Data from USB4F104151__48__12-41-39-171.txt Node

Date: Fri Mar 14 12:41:39 EDT 2025
User: louis
Spectrometer: USB4F10415
Trigger mode: 4
Integration Time (sec): 3.000000E-2
Scans to average: 1
Electric dark correction enabled: true
Nonlinearity correction enabled: false
Boxcar width: 0
XAxis mode: Wavelengths
Number of Pixels in Spectrum: 3648
>>>>>Begin Spectral Data<<<<<
178.204	-147.8
178.424	-147.8
178.644	-147.8
178.864	-117.08
179.084	-100.69
179.304	42.67
179.524	-55.64
179.744	54.95
179.964	7.85
180.184	18.09
180.404	-24.92
180.624	20.14
180.844	-20.82
181.064	-43.35
181.283	-6.49
181.503	22.19
181.723	-14.68
181.943	36.52
182.163	110.25
182.383	22.19
182.602	18.09
182.822	83.63
183.042	132.78
183.262	9.9
183.482	106.15
183.701	-31.06
183.921	93.87
184.141	34.47
184.361	52.91
184.58	-22.87
184.8	-8.53
185.02	-2.39
185.239	95.91
185.459	38.57
185.679	85.67
185.898	38.57
186.118	73.39
186.338	-24.92
186.557	63.15
186.777	-16.73
186.997	-22.87
187.216	-24.92
187.436	157.35
187.655	93.87
187.875	11.95
188.095	26.28
188.314	97.96
188.534	40.62
188.753	-8.53
188.973	50.86
189.192	97.96
189.412	50.86
189.631	67.24
189.851	52.91
190.07	69.29
190.29	-12.63
190.509	13.99
190.729	-49.49
190.948	50.86
191.168	114.34
191.387	120.49
191.607	48.81
191.826	52.91
192.045	57
192.265	-6.49
192.484	104.11
192.704	95.91
192.923	1.71
193.142	71.34
193.362	42.67
193.581	44.71
193.8	-6.49
194.02	77.48
194.239	-0.34
194.458	22.19
194.678	87.72
194.897	69.29
195.116	-55.64
195.335	57
195.555	77.48
195.774	-16.73
195.993	13.99
196.212	67.24
196.432	-33.11
196.651	-31.06
196.87	24.23
197.089	77.48
197.308	42.67
197.528	32.43
197.747	11.95
197.966	38.57
198.185	116.39
198.404	-0.34
198.623	77.48
198.842	13.99
199.062	65.19
199.281	44.71
199.5	-8.53
199.719	30.38
199.938	75.43
200.157	83.63
200.376	11.95
200.595	13.99
200.814	124.58
201.033	32.43
201.252	93.87
201.471	59.05
201.69	7.85
201.909	52.91
202.128	65.19
202.347	26.28
202.566	-14.68
202.785	16.04
203.004	61.1
203.223	106.15
203.442	61.1
203.661	77.48
203.879	77.48
204.098	32.43
204.317	61.1
204.536	145.06
204.755	52.91
204.974	75.43
205.193	46.76
205.411	89.77
205.63	-2.39
205.849	73.39
206.068	30.38
206.287	40.62
206.505	130.73
206.724	59.05
206.943	46.76
207.162	24.23
207.381	54.95
207.599	34.47
207.818	36.52
208.037	-22.87
208.255	9.9
208.474	26.28
208.693	93.87
208.911	71.34
209.13	46.76
209.349	34.47
209.567	73.39
209.786	22.19
210.005	26.28
210.223	91.82
210.442	20.14
210.661	26.28
210.879	3.75
211.098	-10.58
211.316	42.67
211.535	93.87
211.753	11.95
211.972	63.15
212.191	52.91
212.409	24.23
212.628	-10.58
212.846	5.8
213.065	102.06
213.283	79.53
213.502	-16.73
213.72	11.95
213.938	102.06
214.157	-10.58
214.375	52.91
214.594	-16.73
214.812	24.23
215.031	59.05
215.249	95.91
215.467	20.14
215.686	-0.34
215.904	122.54
216.122	83.63
216.341	28.33
216.559	11.95
216.778	-4.44
216.996	18.09
217.214	79.53
217.432	40.62
217.651	34.47
217.869	93.87
218.087	28.33
218.306	61.1
218.524	57
218.742	40.62
218.96	52.91
219.179	116.39
219.397	59.05
219.615	87.72
219.833	97.96
220.051	20.14
220.27	52.91
220.488	3.75
220.706	73.39
220.924	32.43
221.142	30.38
221.36	91.82
221.578	5.8
221.796	24.23
222.015	52.91
222.233	71.34
222.451	57
222.669	46.76
222.887	50.86
223.105	-14.68
223.323	9.9
223.541	75.43
223.759	7.85
223.977	61.1
224.195	75.43
224.413	11.95
224.631	30.38
224.849	46.76
225.067	83.63
225.285	42.67
225.503	44.71
225.721	-8.53
225.939	71.34
226.157	-43.35
226.375	128.68
226.592	40.62
226.81	46.76
227.028	77.48
227.246	52.91
227.464	73.39
227.682	32.43
227.9	48.81
228.117	59.05
228.335	40.62
228.553	20.14
228.771	63.15
228.989	36.52
229.206	22.19
229.424	5.8
229.642	-29.01
229.86	63.15
230.077	124.58
230.295	-12.63
230.513	-45.4
230.731	48.81
230.948	63.15
231.166	87.72
231.384	-14.68
231.601	-14.68
231.819	95.91
232.037	50.86
232.254	-2.39
232.472	18.09
232.689	-2.39
232.907	83.63
233.125	46.76
233.342	-43.35
233.56	-2.39
233.777	46.76
233.995	118.44
234.213	81.58
234.43	42.67
234.648	-41.3
234.865	-2.39
235.083	71.34
235.3	18.09
235.518	73.39
235.735	100.01
235.953	-0.34
236.17	54.95
236.388	40.62
236.605	48.81
236.822	112.3
237.04	91.82
237.257	22.19
237.475	-37.2
237.692	38.57
237.909	-18.77
238.127	9.9
238.344	3.75
238.562	18.09
238.779	18.09
238.996	-12.63
239.214	7.85
239.431	79.53
239.648	44.71
239.865	22.19
240.083	50.86
240.3	48.81
240.517	44.71
240.735	73.39
240.952	-12.63
241.169	-4.44
241.386	20.14
241.603	20.14
241.821	34.47
242.038	28.33
242.255	57
242.472	-24.92
242.689	52.91
242.907	89.77
243.124	42.67
243.341	-0.34
243.558	-8.53
243.775	54.95
243.992	-76.12
244.209	28.33
244.426	95.91
244.643	32.43
244.86	38.57
245.078	-6.49
245.295	30.38
245.512	-4.44
245.729	-37.2
245.946	118.44
246.163	79.53
246.38	79.53
246.597	52.91
246.814	71.34
247.031	36.52
247.248	118.44
247.464	69.29
247.681	1.71
247.898	120.49
248.115	38.57
248.332	-10.58
248.549	32.43
248.766	59.05
248.983	83.63
249.2	102.06
249.417	67.24
249.633	46.76
249.85	5.8
250.067	32.43
250.284	7.85
250.501	108.2
250.717	18.09
250.934	-6.49
251.151	83.63
251.368	1.71
251.585	63.15
251.801	50.86
252.018	114.34
252.235	100.01
252.451	-80.21
252.668	57
252.885	79.53
253.102	-53.59
253.318	46.76
253.535	30.38
253.752	79.53
253.968	-8.53
254.185	-45.4
254.401	28.33
254.618	-16.73
254.835	-12.63
255.051	69.29
255.268	48.81
255.484	75.43
255.701	48.81
255.917	52.91
256.134	-4.44
256.351	93.87
256.567	77.48
256.784	22.19
257	40.62
257.217	85.67
257.433	87.72
257.65	38.57
257.866	16.04
258.082	-8.53
258.299	61.1
258.515	34.47
258.732	18.09
258.948	-31.06
259.165	104.11
259.381	-0.34
259.597	3.75
259.814	77.48
260.03	46.76
260.246	81.58
260.463	77.48
260.679	97.96
260.895	59.05
261.112	52.91
261.328	24.23
261.544	-26.96
261.761	75.43
261.977	95.91
262.193	34.47
262.409	32.43
262.626	7.85
262.842	16.04
263.058	28.33
263.274	52.91
263.49	102.06
263.707	9.9
263.923	48.81
264.139	34.47
264.355	54.95
264.571	87.72
264.787	57
265.004	95.91
265.22	48.81
265.436	59.05
265.652	52.91
265.868	42.67
266.084	11.95
266.3	42.67
266.516	-51.54
266.732	48.81
266.948	-4.44
267.164	13.99
267.38	7.85
267.596	22.19
267.812	75.43
268.028	-8.53
268.244	-61.78
268.46	71.34
268.676	73.39
268.892	50.86
269.108	77.48
269.324	85.67
269.54	-55.64
269.756	42.67
269.972	1.71
270.188	48.81
270.403	50.86
270.619	44.71
270.835	3.75
271.051	46.76
271.267	50.86
271.483	-2.39
271.698	36.52
271.914	18.09
272.13	89.77
272.346	34.47
272.562	116.39
272.777	32.43
272.993	1.71
273.209	-14.68
273.425	48.81
273.64	28.33
273.856	65.19
274.072	77.48
274.287	-41.3
274.503	34.47
274.719	20.14
274.934	18.09
275.15	20.14
275.366	46.76
275.581	75.43
275.797	18.09
276.012	57
276.228	-14.68
276.444	32.43
276.659	46.76
276.875	32.43
277.09	42.67
277.306	50.86
277.521	89.77
277.737	59.05
277.952	69.29
278.168	54.95
278.383	57
278.599	91.82
278.814	5.8
279.03	54.95
279.245	104.11
279.461	20.14
279.676	-10.58
279.892	-8.53
280.107	61.1
280.322	18.09
280.538	100.01
280.753	65.19
280.969	20.14
281.184	11.95
281.399	34.47
281.615	79.53
281.83	91.82
282.045	5.8
282.26	11.95
282.476	-24.92
282.691	75.43
282.906	-33.11
283.122	48.81
283.337	-6.49
283.552	28.33
283.767	-14.68
283.983	112.3
284.198	63.15
284.413	77.48
284.628	67.24
284.843	61.1
285.058	108.2
285.274	52.91
285.489	7.85
285.704	9.9
285.919	32.43
286.134	18.09
286.349	16.04
286.564	36.52
286.779	114.34
286.995	16.04
287.21	-57.68
287.425	73.39
287.64	5.8
287.855	13.99
288.07	-4.44
288.285	106.15
288.5	46.76
288.715	16.04
288.93	83.63
289.145	5.8
289.36	16.04
289.575	77.48
289.79	46.76
290.004	26.28
290.219	87.72
290.434	79.53
290.649	73.39
290.864	-10.58
291.079	50.86
291.294	34.47
291.509	30.38
291.724	24.23
291.938	-14.68
292.153	18.09
292.368	59.05
292.583	67.24
292.798	73.39
293.012	1.71
293.227	40.62
293.442	-14.68
293.657	18.09
293.871	46.76
294.086	85.67
294.301	28.33
294.516	85.67
294.73	40.62
294.945	20.14
295.16	87.72
295.374	63.15
295.589	48.81
295.804	71.34
296.018	20.14
296.233	87.72
296.447	5.8
296.662	-24.92
296.877	-0.34
297.091	24.23
297.306	-16.73
297.52	30.38
297.735	87.72
297.949	24.23
298.164	28.33
298.378	-35.16
298.593	26.28
298.807	-12.63
299.022	54.95
299.236	59.05
299.451	-16.73
299.665	36.52
299.88	77.48
300.094	73.39
300.309	71.34
300.523	69.29
300.737	-2.39
300.952	69.29
301.166	3.75
301.381	61.1
301.595	34.47
301.809	81.58
302.024	52.91
302.238	77.48
302.452	108.2
302.667	9.9
302.881	61.1
303.095	85.67
303.309	83.63
303.524	97.96
303.738	32.43
303.952	38.57
304.166	61.1
304.381	-26.96
304.595	79.53
304.809	48.81
305.023	-10.58
305.237	20.14
305.452	59.05
305.666	167.59
305.88	57
306.094	106.15
306.308	57
306.522	48.81
306.736	13.99
306.95	67.24
307.164	93.87
307.379	114.34
307.593	120.49
307.807	87.72
308.021	67.24
308.235	-6.49
308.449	7.85
308.663	40.62
308.877	97.96
309.091	-24.92
309.305	67.24
309.519	48.81
309.733	73.39
309.947	89.77
310.161	7.85
310.374	24.23
310.588	48.81
310.802	32.43
311.016	48.81
311.23	118.44
311.444	-2.39
311.658	26.28
311.872	59.05
312.085	50.86
312.299	97.96
312.513	79.53
312.727	106.15
312.941	52.91
313.154	54.95
313.368	30.38
313.582	20.14
313.796	52.91
314.009	13.99
314.223	95.91
314.437	-24.92
314.651	40.62
314.864	44.71
315.078	5.8
315.292	28.33
315.505	18.09
315.719	48.81
315.933	50.86
316.146	87.72
316.36	52.91
316.573	59.05
316.787	22.19
317.001	38.57
317.214	5.8
317.428	46.76
317.641	3.75
317.855	26.28
318.068	46.76
318.282	73.39
318.495	87.72
318.709	-2.39
318.922	7.85
319.136	13.99
319.349	38.57
319.563	73.39
319.776	59.05
319.99	-49.49
320.203	71.34
320.417	11.95
320.63	38.57
320.843	63.15
321.057	69.29
321.27	63.15
321.483	54.95
321.697	128.68
321.91	-26.96
322.124	63.15
322.337	20.14
322.55	40.62
322.763	54.95
322.977	97.96
323.19	-41.3
323.403	59.05
323.617	18.09
323.83	42.67
324.043	13.99
324.256	-2.39
324.469	26.28
324.683	130.73
324.896	65.19
325.109	26.28
325.322	32.43
325.535	32.43
325.748	112.3
325.962	5.8
326.175	26.28
326.388	7.85
326.601	34.47
326.814	63.15
327.027	77.48
327.24	147.11
327.453	1.71
327.666	63.15
327.879	93.87
328.092	40.62
328.305	59.05
328.518	-22.87
328.731	1.71
328.944	30.38
329.157	20.14
329.37	69.29
329.583	18.09
329.796	46.76
330.009	54.95
330.222	91.82
330.435	100.01
330.648	63.15
330.861	124.58
331.073	28.33
331.286	42.67
331.499	57
331.712	-2.39
331.925	83.63
332.138	52.91
332.35	65.19
332.563	52.91
332.776	3.75
332.989	73.39
333.202	40.62
333.414	108.2
333.627	124.58
333.84	46.76
334.053	46.76
334.265	83.63
334.478	-10.58
334.691	42.67
334.903	34.47
335.116	63.15
335.329	114.34
335.541	20.14
335.754	54.95
335.966	83.63
336.179	59.05
336.392	18.09
336.604	85.67
336.817	-18.77
337.029	50.86
337.242	71.34
337.454	138.92
337.667	71.34
337.88	93.87
338.092	69.29
338.305	91.82
338.517	5.8
338.729	52.91
338.942	30.38
339.154	3.75
339.367	61.1
339.579	54.95
339.792	42.67
340.004	57
340.217	48.81
340.429	38.57
340.641	38.57
340.854	155.3
341.066	18.09
341.278	85.67
341.491	116.39
341.703	50.86
341.915	24.23
342.128	52.91
342.34	104.11
342.552	46.76
342.764	46.76
342.977	26.28
343.189	40.62
343.401	50.86
343.613	1.71
343.826	54.95
344.038	46.76
344.25	57
344.462	13.99
344.674	73.39
344.886	28.33
345.099	13.99
345.311	87.72
345.523	59.05
345.735	-33.11
345.947	114.34
346.159	-24.92
346.371	65.19
346.583	57
346.795	106.15
347.007	-63.83
347.219	40.62
347.431	34.47
347.643	120.49
347.855	26.28
348.067	106.15
348.279	44.71
348.491	26.28
348.703	40.62
348.915	34.47
349.127	73.39
349.339	97.96
349.551	-18.77
349.763	85.67
349.975	-22.87
350.187	118.44
350.399	67.24
350.61	50.86
350.822	81.58
351.034	32.43
351.246	32.43
351.458	5.8
351.669	34.47
351.881	75.43
352.093	-4.44
352.305	91.82
352.517	79.53
352.728	108.2
352.94	-6.49
353.152	112.3
353.363	44.71
353.575	38.57
353.787	59.05
353.999	57
354.21	116.39
354.422	30.38
354.633	13.99
354.845	104.11
355.057	118.44
355.268	89.77
355.48	-24.92
355.692	-41.3
355.903	63.15
356.115	7.85
356.326	-2.39
356.538	153.26
356.749	102.06
356.961	42.67
357.172	1.71
357.384	26.28
357.595	97.96
357.807	106.15
358.018	24.23
358.23	134.82
358.441	63.15
358.653	95.91
358.864	40.62
359.075	40.62
359.287	87.72
359.498	120.49
359.709	71.34
359.921	57
360.132	38.57
360.344	65.19
360.555	79.53
360.766	24.23
360.977	13.99
361.189	81.58
361.4	16.04
361.611	22.19
361.823	61.1
362.034	75.43
362.245	32.43
362.456	36.52
362.667	69.29
362.879	40.62
363.09	61.1
363.301	44.71
363.512	85.67
363.723	79.53
363.935	5.8
364.146	42.67
364.357	30.38
364.568	130.73
364.779	5.8
364.99	67.24
365.201	-35.16
365.412	149.16
365.623	-4.44
365.834	89.77
366.045	34.47
366.256	34.47
366.467	24.23
366.678	28.33
366.889	-6.49
367.1	-10.58
367.311	42.67
367.522	18.09
367.733	77.48
367.944	28.33
368.155	-22.87
368.366	13.99
368.577	22.19
368.788	28.33
368.999	46.76
369.209	93.87
369.42	102.06
369.631	89.77
369.842	73.39
370.053	38.57
370.264	30.38
370.474	91.82
370.685	-35.16
370.896	71.34
371.107	54.95
371.317	65.19
371.528	22.19
371.739	132.78
371.95	87.72
372.16	38.57
372.371	7.85
372.582	75.43
372.792	93.87
373.003	57
373.214	26.28
373.424	71.34
373.635	-55.64
373.846	40.62
374.056	11.95
374.267	81.58
374.477	65.19
374.688	38.57
374.898	48.81
375.109	28.33
375.319	69.29
375.53	100.01
375.74	89.77
375.951	81.58
376.161	-26.96
376.372	147.11
376.582	93.87
376.793	54.95
377.003	-41.3
377.214	-2.39
377.424	126.63
377.635	16.04
377.845	89.77
378.055	106.15
378.266	61.1
378.476	54.95
378.686	79.53
378.897	112.3
379.107	44.71
379.317	22.19
379.528	11.95
379.738	63.15
379.948	-2.39
380.158	79.53
380.369	24.23
380.579	95.91
380.789	32.43
380.999	71.34
381.21	63.15
381.42	93.87
381.63	13.99
381.84	128.68
382.05	7.85
382.261	26.28
382.471	85.67
382.681	91.82
382.891	26.28
383.101	32.43
383.311	42.67
383.521	69.29
383.731	114.34
383.941	112.3
384.151	32.43
384.361	87.72
384.571	48.81
384.781	73.39
384.991	102.06
385.201	140.97
385.411	57
385.621	108.2
385.831	52.91
386.041	77.48
386.251	63.15
386.461	134.82
386.671	50.86
386.881	67.24
387.091	40.62
387.301	81.58
387.511	108.2
387.72	36.52
387.93	116.39
388.14	22.19
388.35	116.39
388.56	106.15
388.769	79.53
388.979	48.81
389.189	57
389.399	77.48
389.609	100.01
389.818	63.15
390.028	114.34
390.238	34.47
390.447	28.33
390.657	57
390.867	91.82
391.076	7.85
391.286	75.43
391.496	44.71
391.705	93.87
391.915	89.77
392.125	79.53
392.334	59.05
392.544	44.71
392.753	42.67
392.963	61.1
393.172	77.48
393.382	63.15
393.591	110.25
393.801	28.33
394.01	116.39
394.22	145.06
394.429	73.39
394.639	38.57
394.848	100.01
395.058	40.62
395.267	59.05
395.477	75.43
395.686	65.19
395.895	143.02
396.105	173.74
396.314	130.73
396.524	40.62
396.733	108.2
396.942	108.2
397.152	85.67
397.361	93.87
397.57	108.2
397.78	104.11
397.989	57
398.198	151.21
398.407	79.53
398.617	59.05
398.826	89.77
399.035	81.58
399.244	171.69
399.453	138.92
399.663	143.02
399.872	77.48
400.081	77.48
400.29	202.41
400.499	128.68
400.708	104.11
400.917	44.71
401.127	118.44
401.336	102.06
401.545	102.06
401.754	143.02
401.963	179.88
402.172	126.63
402.381	20.14
402.59	126.63
402.799	194.22
403.008	177.83
403.217	128.68
403.426	120.49
403.635	67.24
403.844	188.07
404.053	145.06
404.262	54.95
404.471	122.54
404.68	186.02
404.888	147.11
405.097	147.11
405.306	183.98
405.515	132.78
405.724	149.16
405.933	108.2
406.142	186.02
406.35	190.12
406.559	188.07
406.768	200.36
406.977	263.85
407.185	222.89
407.394	212.65
407.603	261.8
407.812	212.65
408.02	274.09
408.229	159.4
408.438	231.08
408.646	251.56
408.855	280.23
409.064	378.53
409.272	198.31
409.481	315.05
409.69	235.18
409.898	257.7
410.107	304.81
410.315	323.24
410.524	259.75
410.733	335.53
410.941	290.47
411.15	394.92
411.358	394.92
411.567	392.87
411.775	310.95
411.984	437.92
412.192	435.88
412.401	396.96
412.609	478.88
412.818	491.17
413.026	470.69
413.234	497.32
413.443	603.81
413.651	523.94
413.86	564.9
414.068	601.76
414.276	667.3
414.485	562.85
414.693	726.69
414.901	757.41
415.11	769.69
415.318	638.62
415.526	683.68
415.734	759.46
415.943	872.09
416.151	911
416.359	849.57
416.567	898.72
416.776	927.39
416.984	929.44
417.192	1011.36
417.4	1003.16
417.608	1005.21
417.817	1085.08
418.025	1140.38
418.233	1216.15
418.441	1244.82
418.649	1316.5
418.857	1289.88
419.065	1341.08
419.273	1373.85
419.481	1547.92
419.689	1549.97
419.897	1586.83
420.105	1580.69
420.313	1609.36
420.521	1742.48
420.729	1738.38
420.937	1810.06
421.145	1853.07
421.353	1904.27
421.561	2033.29
421.769	2164.36
421.977	2186.89
422.185	2041.48
422.393	2309.77
422.601	2279.05
422.809	2477.7
423.017	2397.83
423.224	2557.57
423.432	2686.59
423.64	2586.24
423.848	2958.97
424.056	2799.23
424.263	3047.04
424.471	3128.95
424.679	3184.25
424.887	3067.52
425.094	3307.13
425.302	3438.2
425.51	3348.09
425.718	3563.12
425.925	3538.55
426.133	3749.49
426.341	3972.72
426.548	4081.26
426.756	4177.51
426.964	4191.85
427.171	4327.02
427.379	4462.18
427.586	4540.01
427.794	4705.89
428.001	4849.25
428.209	5025.37
428.417	5115.48
428.624	5281.37
428.832	5381.72
429.039	5404.25
429.247	5324.38
429.454	5895.76
429.662	6420.04
429.869	5994.06
430.076	6325.83
430.284	6196.81
430.491	6510.15
430.699	6809.15
430.906	6764.1
431.114	6749.76
431.321	7272
431.528	7226.94
431.736	7724.6
431.943	7931.44
432.15	7849.52
432.358	7900.72
432.565	8367.66
432.772	8283.69
432.979	8848.93
433.187	9029.15
433.394	8951.33
433.601	9661.98
433.808	9614.87
434.016	9684.5
434.223	9917.97
434.43	10655.24
434.637	10618.38
434.844	11062.79
435.052	11048.45
435.259	11159.04
435.466	11193.86
435.673	10903.04
435.88	11724.28
436.087	12332.53
436.294	12426.73
436.501	12260.85
436.708	12609
436.915	12975.59
437.122	13512.16
437.329	13376.99
437.537	14015.96
437.743	14247.38
437.95	13983.19
438.157	14525.9
438.364	15123.91
438.571	15183.3
438.778	15218.11
438.985	16739.76
439.192	15939
439.399	16430.51
439.606	16248.24
439.813	17001.9
440.02	18159
440.227	17937.82
440.433	17798.56
440.64	18091.41
440.847	17989.02
441.054	18726.28
441.261	19889.53
441.467	19588.48
441.674	19903.87
441.881	20569.46
442.088	20612.46
442.294	20485.49
442.501	20784.49
442.708	21464.42
442.914	22596.95
443.121	23197
443.328	22482.26
443.534	24612.15
443.741	23565.64
443.948	23301.45
444.154	24892.72
444.361	24556.85
444.568	24784.18
444.774	24692.02
444.981	25355.56
445.187	26125.6
445.394	26791.19
445.6	26701.08
445.807	29320.43
446.013	28196.09
446.22	28331.26
446.426	30049.5
446.633	29863.14
446.839	30670.04
447.046	29269.23
447.252	31220.94
447.459	30999.76
447.665	31284.43
447.871	32955.57
448.078	34141.35
448.284	32380.09
448.491	33473.71
448.697	34657.43
448.903	34978.96
449.11	35435.66
449.316	34708.63
449.522	35282.06
449.728	36482.17
449.935	36615.29
450.141	36582.52
450.347	37717.1
450.553	36242.56
450.76	36373.63
450.966	37809.26
451.172	37364.85
451.378	38325.35
451.584	37653.61
451.791	38624.35
451.997	38296.67
452.203	39263.32
452.409	39545.94
452.615	39068.76
452.821	37563.5
453.027	37203.06
453.233	39089.24
453.44	37315.7
453.646	37844.07
453.852	38159.46
454.058	38720.6
454.264	38061.16
454.47	38263.91
454.676	37807.21
454.882	38560.86
455.088	35437.71
455.294	36007.05
455.5	36187.27
455.705	36519.04
455.911	35202.19
456.117	34403.49
456.323	34116.77
456.529	32478.4
456.735	33965.22
456.941	32857.27
457.147	32191.68
457.352	31253.71
457.558	31018.19
457.764	31376.59
457.97	30545.11
458.176	29940.96
458.381	29947.11
458.587	28161.28
458.793	28232.96
458.999	26756.37
459.204	28683.51
459.41	28103.93
459.616	26252.57
459.821	26592.53
460.027	26187.04
460.233	25380.14
460.438	24415.54
460.644	24376.63
460.85	23373.13
461.055	23061.83
461.261	23082.31
461.466	21288.29
461.672	20733.29
461.878	21941.6
462.083	20948.33
462.289	20317.56
462.494	20045.18
462.7	19182.98
462.905	18691.47
463.111	19297.67
463.316	19742.08
463.522	19004.81
463.727	18898.31
463.932	19025.29
464.138	19031.43
464.343	18965.9
464.549	18355.6
464.754	18697.61
464.959	18929.03
465.165	18800.01
465.37	18163.09
465.575	17597.85
465.781	18212.24
465.986	18189.72
466.191	17495.46
466.397	17092.01
466.602	16430.51
466.807	17022.37
467.012	16975.27
467.218	16981.42
467.423	16909.74
467.628	16827.82
467.833	17640.86
468.038	16850.35
468.244	16604.59
468.449	17018.28
468.654	16317.87
468.859	16444.85
469.064	16391.6
469.269	15435.2
469.474	15752.63
469.679	16283.06
469.885	15467.97
470.09	15793.59
470.295	15777.21
470.5	15365.57
470.705	15635.9
470.91	15070.66
471.115	14792.14
471.32	15183.3
471.525	15037.89
471.73	14548.43
471.935	14515.66
472.139	14128.6
472.344	14400.97
472.549	14200.27
472.754	14138.83
472.959	13927.89
473.164	13616.6
473.369	13346.27
473.574	13690.33
473.778	13575.64
473.983	13454.81
474.188	13475.29
474.393	12670.44
474.598	12924.39
474.802	12918.25
475.007	12695.02
475.212	13002.21
475.417	12183.02
475.621	12279.28
475.826	12164.59
476.031	12178.93
476.235	11769.34
476.44	12174.83
476.645	11613.69
476.849	11580.92
477.054	11693.56
477.259	11558.39
477.463	11513.34
477.668	11283.97
477.872	11355.65
478.077	11226.62
478.282	10843.65
478.486	10677.77
478.691	10829.32
478.895	10874.37
479.1	10616.33
479.304	10731.01
479.509	10229.26
479.713	10591.75
479.918	10046.99
480.122	9965.07
480.326	10133.01
480.531	10235.41
480.735	10014.23
480.94	10065.43
481.144	10302.99
481.348	9829.91
481.553	9956.88
481.757	9621.02
481.961	10010.13
482.166	9983.51
482.37	9975.31
482.574	9639.45
482.778	9829.91
482.983	10034.71
483.187	9807.38
483.391	10128.91
483.595	9635.35
483.8	9686.55
484.004	9731.61
484.208	9899.54
484.412	9707.03
484.616	9856.53
484.821	9602.58
485.025	9510.43
485.229	9735.7
485.433	9838.1
485.637	9836.05
485.841	9741.85
486.045	9821.72
486.249	9850.39
486.453	9778.71
486.657	9831.96
486.861	9760.28
487.065	9520.67
487.269	9793.05
487.473	9682.45
487.677	9877.01
487.881	9866.77
488.085	9711.13
488.289	9846.29
488.493	9750.04
488.697	9635.35
488.901	9729.56
489.105	9803.29
489.309	9836.05
489.512	9840.15
489.716	10044.95
489.92	9844.24
490.124	10008.08
490.328	9967.12
490.531	9920.02
490.735	10212.88
490.939	9920.02
491.143	9977.36
491.346	10036.75
491.55	10247.69
491.754	10235.41
491.958	10372.62
492.161	10178.06
492.365	10206.73
492.569	10235.41
492.772	10397.2
492.976	10507.79
493.18	10436.11
493.383	10442.25
493.587	10401.29
493.79	10726.92
493.994	10616.33
494.197	10558.99
494.401	10827.27
494.605	10784.26
494.808	10823.17
495.012	10995.2
495.215	11132.42
495.419	11212.29
495.622	11128.32
495.825	11212.29
496.029	11189.76
496.232	11437.56
496.436	11406.84
496.639	11955.7
496.843	11771.38
497.046	11859.45
497.249	11988.47
497.453	11824.63
497.656	12144.11
497.859	12099.06
498.063	12434.92
498.266	12416.49
498.469	12459.5
498.673	12674.54
498.876	12940.77
499.079	13204.96
499.282	12944.87
499.485	13374.94
499.689	13368.8
499.892	13403.61
500.095	13651.42
500.298	13807.06
500.501	13567.45
500.705	14175.7
500.908	14187.99
501.111	14372.3
501.314	14433.74
501.517	14765.51
501.72	14679.5
501.923	14843.34
502.126	15103.43
502.329	15390.14
502.532	15287.75
502.735	15658.43
502.938	15728.06
503.141	15957.43
503.344	15955.38
503.547	15939
503.75	16340.4
503.953	16479.66
504.156	16557.49
504.359	16930.22
504.562	16905.64
504.765	17092.01
504.968	17380.77
505.17	17378.72
505.373	17483.17
505.576	18032.02
505.779	18146.71
505.982	18077.08
506.185	18615.69
506.387	18613.65
506.59	18922.89
506.793	19058.06
506.996	19236.23
507.198	19465.6
507.401	19350.92
507.604	19940.73
507.807	20252.02
508.009	20356.47
508.212	20546.93
508.415	20530.55
508.617	20936.04
508.82	20847.98
509.022	21040.49
509.225	21382.5
509.428	21491.04
509.63	21693.79
509.833	21521.76
510.035	22375.77
510.238	21953.88
510.44	22486.36
510.643	22799.69
510.845	22998.35
511.048	22703.44
511.25	22973.77
511.453	23377.22
511.655	24081.72
511.858	23979.32
512.06	23792.96
512.262	24014.14
512.465	24067.39
512.667	24671.54
512.87	24984.88
513.072	24765.74
513.274	25378.09
513.477	25623.84
513.679	25660.71
513.881	26082.59
514.084	26076.44
514.286	26402.07
514.488	26432.79
514.69	27161.87
514.893	26916.11
515.095	27020.56
515.297	27598.09
515.499	27591.94
515.701	27886.85
515.904	28204.28
516.106	28398.84
516.308	28398.84
516.51	28972.27
516.712	28898.55
516.914	29140.21
517.116	29508.84
517.318	29533.42
517.52	29598.95
517.722	30080.22
517.925	30043.36
518.127	30344.41
518.329	30739.67
518.531	30649.56
518.733	31096.02
518.935	31384.78
519.136	31286.48
519.338	31636.68
519.54	31902.92
519.742	31855.81
519.944	32085.19
520.146	32658.62
520.348	32892.08
520.55	33248.43
520.752	33236.14
520.954	33414.32
521.155	33324.21
521.357	34043.04
521.559	34296.99
521.761	34555.04
521.963	34495.64
522.164	34620.57
522.366	34913.43
522.568	35218.58
522.77	34878.61
522.971	35722.38
523.173	35603.6
523.375	35746.95
523.576	35998.85
523.778	35757.19
523.98	36320.38
524.181	36340.86
524.383	36174.98
524.584	36484.22
524.786	36869.24
524.988	36723.83
525.189	37274.74
525.391	37381.23
525.592	37303.41
525.794	37260.4
525.995	37672.04
526.197	37629.04
526.398	37692.52
526.6	37942.38
526.801	38247.52
527.003	38161.51
527.204	38087.78
527.406	38409.31
527.607	38487.14
527.808	38773.85
528.01	38044.77
528.211	38452.32
528.412	39257.17
528.614	38870.11
528.815	38736.99
529.016	39236.69
529.218	38925.4
529.419	38898.78
529.62	39101.53
529.822	39263.32
530.023	38937.69
530.224	39302.23
530.425	39302.23
530.626	39138.39
530.828	39398.48
531.029	39834.7
531.23	39306.32
531.431	39189.59
531.632	39357.52
531.833	39525.46
532.035	39695.44
532.236	39717.96
532.437	39967.82
532.638	39472.21
532.839	39625.81
533.04	39988.3
533.241	39236.69
533.442	39996.49
533.643	39863.37
533.844	39861.32
534.045	39980.1
534.246	39502.93
534.447	39949.39
534.648	39973.96
534.849	39875.66
535.05	39296.08
535.251	39668.81
535.451	39652.43
535.652	39679.05
535.853	39580.75
536.054	39648.33
536.255	39775.31
536.456	39509.07
536.657	40090.69
536.857	39627.85
537.058	39861.32
537.259	40006.73
537.46	39695.44
537.66	39431.25
537.861	39822.41
538.062	39765.07
538.263	39826.51
538.463	39738.44
538.664	39717.96
538.865	39844.94
539.065	39677.01
539.266	39138.39
539.466	39789.64
539.667	39660.62
539.868	40215.62
540.068	39437.39
540.269	39517.26
540.469	39738.44
540.67	39466.06
540.87	39455.82
541.071	39484.5
541.271	39918.67
541.472	39482.45
541.672	38997.08
541.873	38935.64
542.073	38532.19
542.274	39482.45
542.474	39308.37
542.675	39216.21
542.875	39984.2
543.075	39418.96
543.276	39050.33
543.476	39373.91
543.676	39099.48
543.877	39435.34
544.077	39089.24
544.277	39060.57
544.478	39435.34
544.678	39259.22
544.878	38941.78
545.078	39023.7
545.279	38999.13
545.479	39179.35
545.679	39572.56
545.879	39148.63
546.079	39193.68
546.28	38777.95
546.48	38624.35
546.68	39214.16
546.88	39425.11
547.08	39140.44
547.28	38929.5
547.48	38960.22
547.68	39205.97
547.88	38904.92
548.081	38947.93
548.281	39029.85
548.481	38765.66
548.681	39187.54
548.881	38868.06
549.081	38866.01
549.28	38302.82
549.48	38935.64
549.68	38769.76
549.88	39035.99
550.08	38491.23
550.28	38755.42
550.48	38972.5
550.68	39193.68
550.88	38489.18
551.08	38708.32
551.279	39048.28
551.479	38571.1
551.679	38831.19
551.879	38587.49
552.079	38491.23
552.278	38671.45
552.478	38601.82
552.678	38784.09
552.878	38866.01
553.077	38466.66
553.277	37950.57
553.477	38704.22
553.676	38212.71
553.876	38575.2
554.076	38020.2
554.275	38335.59
554.475	37917.8
554.674	38724.7
554.874	38341.73
555.074	37743.72
555.273	38024.29
555.473	38276.19
555.672	37987.43
555.872	38016.1
556.071	38288.48
556.271	38540.38
556.47	37776.49
556.67	37768.3
556.869	37848.17
557.068	37901.42
557.268	37860.46
557.467	37975.14
557.667	38034.53
557.866	37760.11
558.065	37954.66
558.265	37149.81
558.464	37710.96
558.663	37856.36
558.863	37217.39
559.062	37934.18
559.261	37327.99
559.461	38104.17
559.66	36873.34
559.859	37557.36
560.058	37057.65
560.258	37250.16
560.457	37299.31
560.656	37401.71
560.855	36971.64
561.054	37332.08
561.253	36643.96
561.453	37297.27
561.652	37164.15
561.851	37385.33
562.05	37205.11
562.249	36727.93
562.448	36947.06
562.647	36928.63
562.846	36787.32
563.045	36912.25
563.244	36471.93
563.443	36893.82
563.642	36422.78
563.841	36697.21
564.04	36582.52
564.239	36371.58
564.438	36244.61
564.637	36510.85
564.836	36627.58
565.035	36234.37
565.234	36271.23
565.432	36107.4
565.631	36252.8
565.83	36246.66
566.029	36226.18
566.228	36091.01
566.427	35933.32
566.625	35579.02
566.824	35695.75
567.023	35955.85
567.222	35423.37
567.42	35957.89
567.619	36007.05
567.818	35595.4
568.016	35550.35
568.215	35804.3
568.414	35450
568.612	35716.23
568.811	35110.03
569.01	35392.65
569.208	35054.74
569.407	35110.03
569.605	34655.39
569.804	35118.23
570.002	34923.67
570.201	35148.95
570.4	35058.84
570.598	34743.45
570.797	34720.92
570.995	34579.61
571.193	34360.48
571.392	34796.7
571.59	34376.86
571.789	34882.71
571.987	34487.45
572.186	34278.56
572.384	33993.89
572.582	34454.68
572.781	34264.22
572.979	33709.22
573.177	34563.23
573.376	34030.76
573.574	33625.26
573.772	34034.85
573.971	33776.81
574.169	33770.66
574.367	33301.68
574.565	33551.53
574.763	33219.76
574.962	33662.12
575.16	33180.85
575.358	33459.37
575.556	33021.11
575.754	33399.98
575.952	33123.51
576.151	33213.62
576.349	32969.91
576.547	33035.44
576.745	32916.66
576.943	33021.11
577.141	33100.98
577.339	32935.09
577.537	32568.51
577.735	32740.54
577.933	32558.27
578.131	32644.28
578.329	32265.41
578.527	32373.95
578.725	32195.78
578.923	32287.93
579.121	31857.86
579.319	32255.17
579.516	32027.84
579.714	31878.34
579.912	31718.6
580.11	31796.42
580.308	31935.68
580.506	31773.89
580.704	31134.93
580.901	31454.41
581.099	31743.17
581.297	31188.17
581.495	31386.83
581.692	31634.63
581.89	31274.19
582.088	31311.05
582.285	30969.04
582.483	31048.91
582.681	30923.99
582.878	30758.1
583.076	30751.96
583.274	30764.25
583.471	30784.72
583.669	30725.33
583.866	30448.86
584.064	30514.39
584.262	30029.02
584.459	30510.3
584.657	30219.49
584.854	30321.88
585.052	29736.16
585.249	30065.89
585.447	30098.66
585.644	29756.64
585.841	30080.22
586.039	30151.9
586.236	29555.94
586.434	29871.33
586.631	29396.2
586.828	29347.05
587.026	29381.87
587.223	29297.9
587.42	29203.69
587.618	29093.1
587.815	28882.16
588.012	28804.34
588.21	28617.97
588.407	29121.77
588.604	28925.17
588.801	28654.84
588.999	28605.69
589.196	28349.69
589.393	28540.15
589.59	28640.5
589.787	28052.73
589.984	28116.22
590.182	28235
590.379	28249.34
590.576	27925.76
590.773	28126.46
590.97	27815.17
591.167	28204.28
591.364	27641.09
591.561	27856.13
591.758	27254.03
591.955	27413.77
592.152	27528.45
592.349	27524.36
592.546	27596.04
592.743	27401.48
592.94	26834.19
593.137	27249.93
593.334	27376.9
593.531	26750.23
593.727	27155.72
593.924	26801.43
594.121	26707.22
594.318	26617.11
594.515	26182.94
594.712	26803.47
594.908	26238.23
595.105	26098.97
595.302	26197.27
595.499	26297.63
595.696	26008.86
595.892	26211.61
596.089	26066.2
596.286	26039.58
596.482	25646.37
596.679	25406.76
596.876	25681.19
597.072	25527.59
597.269	25838.88
597.466	25236.78
597.662	25251.11
597.859	25492.77
598.055	25328.94
598.252	25232.68
598.448	25410.85
598.645	25163.05
598.841	25074.99
599.038	25097.52
599.234	24827.18
599.431	24864.05
599.627	24802.61
599.824	25101.61
600.02	24720.69
600.217	24599.86
600.413	24317.24
600.609	24378.68
600.806	24001.85
601.002	24362.29
601.198	24159.55
601.395	24108.35
601.591	23989.56
601.787	23962.94
601.984	23747.9
602.18	24253.75
602.376	23596.35
602.572	23543.11
602.769	23461.19
602.965	23293.26
603.161	23194.95
603.357	23321.93
603.553	22895.95
603.75	23299.4
603.946	23170.38
604.142	22859.09
604.338	22738.26
604.534	23199.05
604.73	22728.02
604.926	22742.35
605.122	22719.82
605.318	22381.91
605.514	22517.08
605.71	22713.68
605.906	22197.59
606.102	22320.47
606.298	22500.69
606.494	22236.5
606.69	22406.48
606.886	22443.35
607.082	21941.6
607.278	22377.81
607.474	22109.53
607.67	21955.93
607.866	21738.85
608.062	22007.13
608.257	21831.01
608.453	21808.48
608.649	22070.62
608.845	21814.62
609.041	22087
609.236	21980.51
609.432	21808.48
609.628	21646.69
609.824	21589.35
610.019	21470.56
610.215	21497.19
610.411	21652.83
610.606	21697.89
610.802	21400.93
610.998	20878.7
611.193	21511.52
611.389	21151.08
611.584	21314.92
611.78	21069.16
611.976	21192.04
612.171	21028.2
612.367	21214.57
612.562	20968.81
612.758	20696.43
612.953	20890.99
613.149	20936.04
613.344	20917.61
613.539	20968.81
613.735	20798.83
613.93	20755.82
614.126	20886.89
614.321	20782.45
614.517	20731.25
614.712	20690.29
614.907	20721.01
615.103	20856.17
615.298	20850.03
615.493	20551.03
615.688	20419.96
615.884	20739.44
616.079	20542.83
616.274	20591.98
616.47	20299.12
616.665	20432.24
616.86	20034.94
617.055	20067.7
617.25	20059.51
617.445	20407.67
617.641	19824
617.836	20061.56
618.031	19658.11
618.226	19918.2
618.421	19787.13
618.616	20098.42
618.811	19654.01
619.006	20034.94
619.201	19357.06
619.396	19348.87
619.591	19549.57
619.786	19615.1
619.981	19244.42
620.176	19350.92
620.371	18828.68
620.566	19119.49
620.761	19000.71
620.956	18941.32
621.151	18933.13
621.346	18859.4
621.541	18513.3
621.735	18562.45
621.93	18281.88
622.125	18503.06
622.32	18240.92
622.515	18206.1
622.709	17888.67
622.904	18242.96
623.099	18009.5
623.294	17835.42
623.488	17636.77
623.683	17606.05
623.878	17470.88
624.072	17405.35
624.267	17753.5
624.462	17356.19
624.656	17278.37
624.851	17063.33
625.046	17079.72
625.24	17132.97
625.435	16895.4
625.629	16891.3
625.824	16735.66
626.018	16719.28
626.213	16377.26
626.407	16657.84
626.602	16090.55
626.796	16309.68
626.991	16270.77
627.185	16151.99
627.38	15855.03
627.574	15822.27
627.768	15830.46
627.963	15719.87
628.157	15490.49
628.352	15662.52
628.546	15295.94
628.74	15543.74
628.935	15343.04
629.129	15254.98
629.323	15087.04
629.517	15224.26
629.712	14880.2
629.906	14943.69
630.1	14810.57
630.294	14837.19
630.489	14581.2
630.683	14835.14
630.877	14243.28
631.071	14263.76
631.265	14573
631.459	14329.3
631.653	14054.87
631.848	14323.15
632.042	14063.06
632.236	14325.2
632.43	14011.86
632.624	13911.51
632.818	13831.64
633.012	13811.16
633.206	13450.72
633.4	13864.41
633.594	13313.5
633.788	13428.19
633.982	13344.22
634.176	13256.16
634.369	13323.74
634.563	13383.13
634.757	13049.32
634.951	13170.15
635.145	13120.99
635.339	13110.75
635.533	12916.2
635.726	12985.83
635.92	12606.95
636.114	12674.54
636.308	12903.91
636.501	12475.88
636.695	12697.06
636.889	12318.19
637.083	12443.12
637.276	12430.83
637.47	12348.91
637.664	12008.95
637.857	12097.01
638.051	12162.55
638.244	11853.3
638.438	11875.83
638.632	11728.38
638.825	11957.75
639.019	11841.01
639.212	11619.83
639.406	11687.42
639.599	11679.22
639.793	11611.64
639.986	11458.04
640.18	11472.38
640.373	11345.41
640.567	11247.1
640.76	11496.96
640.954	11122.18
641.147	11128.32
641.34	11261.44
641.534	11150.85
641.727	11075.07
641.92	11144.7
642.114	10843.65
642.307	10802.69
642.5	10753.54
642.694	10614.28
642.887	10348.04
643.08	10608.14
643.273	10786.31
643.467	10550.79
643.66	10364.43
643.853	10339.85
644.046	10161.68
644.239	10329.61
644.432	10343.95
644.626	9997.84
644.819	10141.2
645.012	10046.99
645.205	10106.38
645.398	10008.08
645.591	10024.47
645.784	9848.34
645.977	9709.08
646.17	9676.31
646.363	9557.53
646.556	9518.62
646.749	9815.57
646.942	9567.77
647.135	9387.55
647.328	9666.07
647.521	9608.73
647.714	9166.37
647.907	9389.6
648.099	9270.81
648.292	9291.29
648.485	9297.44
648.678	9031.2
648.871	9117.22
649.064	9102.88
649.256	9223.71
649.449	8973.86
649.642	8912.42
649.835	8902.18
650.027	8664.61
650.22	8850.98
650.413	8701.48
650.605	8648.23
650.798	8566.31
650.991	8478.25
651.183	8517.16
651.376	8500.78
651.568	8642.09
651.761	8472.11
651.954	8285.74
652.146	8338.99
652.339	8355.37
652.531	8373.8
652.724	8224.3
652.916	7970.35
653.109	8097.33
653.301	8085.04
653.494	8111.66
653.686	8048.18
653.879	7894.58
654.071	8029.74
654.263	7734.84
654.456	7740.98
654.648	7974.45
654.84	7765.56
655.033	7827
655.225	7681.59
655.417	7626.29
655.61	7751.22
655.802	7519.8
655.994	7456.31
656.186	7464.5
656.379	7474.74
656.571	7282.24
656.763	7288.38
656.955	7261.76
657.148	7446.07
657.34	7175.74
657.532	7124.54
657.724	7247.42
657.916	7079.49
658.108	6903.36
658.3	7003.71
658.492	7114.3
658.684	6917.7
658.876	7042.62
659.068	7044.67
659.26	6805.06
659.452	6848.07
659.644	6829.63
659.836	6688.32
660.028	6633.03
660.22	6534.73
660.412	6821.44
660.604	6549.06
660.796	6659.65
660.988	6602.31
661.18	6432.33
661.372	6387.27
661.563	6450.76
661.755	6413.9
661.947	6340.17
662.139	6311.5
662.331	6241.87
662.522	6168.14
662.714	6256.2
662.906	6164.04
663.097	6395.47
663.289	6227.53
663.481	6178.38
663.673	6151.76
663.864	6067.79
664.056	6186.57
664.247	6137.42
664.439	5824.08
664.631	6127.18
664.822	5906
665.014	5934.67
665.205	5719.64
665.397	5781.07
665.588	5795.41
665.78	5801.55
665.971	5807.7
666.163	5703.25
666.354	5768.79
666.546	5647.96
666.737	5613.14
666.929	5596.76
667.12	5473.88
667.311	5674.58
667.503	5545.56
667.694	5531.22
667.885	5455.45
668.077	5473.88
668.268	5496.41
668.459	5424.73
668.651	5404.25
668.842	5480.02
669.033	5338.71
669.224	5375.58
669.416	5398.1
669.607	5262.94
669.798	5129.82
669.989	5301.85
670.18	5271.13
670.371	5289.56
670.563	5058.14
670.754	5172.83
670.945	5115.48
671.136	5201.5
671.327	5088.86
671.518	4988.51
671.709	5211.74
671.9	5131.87
672.091	5168.73
672.282	5013.09
672.473	5066.33
672.664	4992.61
672.855	4789.86
673.046	4939.36
673.237	4789.86
673.428	4804.19
673.619	4830.82
673.809	4904.54
674	4796
674.191	4775.52
674.382	4701.79
674.573	4849.25
674.764	4816.48
674.954	4814.43
675.145	4642.4
675.336	4757.09
675.527	4752.99
675.717	4607.59
675.908	4560.49
676.099	4656.74
676.289	4683.36
676.48	4413.03
676.671	4677.22
676.861	4535.91
677.052	4437.61
677.243	4462.18
677.433	4652.64
677.624	4568.68
677.814	4404.84
678.005	4415.08
678.195	4572.77
678.386	4480.61
678.576	4507.24
678.767	4245.1
678.957	4415.08
679.148	4445.8
679.338	4413.03
679.529	4435.56
679.719	4267.63
679.909	4388.46
680.1	4417.13
680.29	4152.94
680.481	4245.1
680.671	4417.13
680.861	4271.72
681.052	4329.06
681.242	4267.63
681.432	4406.89
681.622	4275.82
681.813	4281.96
682.003	4183.66
682.193	4165.23
682.383	4171.37
682.573	4103.79
682.764	4134.51
682.954	4241
683.144	4132.46
683.334	4173.42
683.524	4171.37
683.714	4095.6
683.904	4095.6
684.094	4114.03
684.284	4138.6
684.474	3997.29
684.664	4216.43
684.854	4169.32
685.044	4028.01
685.234	3917.42
685.424	4093.55
685.614	4087.4
685.804	3874.42
685.994	3898.99
686.184	4011.63
686.374	3933.81
686.564	3884.66
686.753	3937.9
686.943	3831.41
687.133	3925.61
687.323	3741.3
687.513	3817.07
687.702	3882.61
687.892	3704.43
688.082	3702.39
688.272	3847.79
688.461	3663.47
688.651	3536.5
688.841	3890.8
689.03	3667.57
689.22	3599.99
689.41	3759.73
689.599	3737.2
689.789	3579.51
689.979	3536.5
690.168	3524.21
690.358	3520.12
690.547	3466.87
690.737	3575.41
690.926	3483.25
691.116	3413.62
691.305	3579.51
691.495	3401.33
691.684	3313.27
691.874	3466.87
692.063	3343.99
692.252	3387
692.442	3313.27
692.631	3364.47
692.82	3354.23
693.01	3307.13
693.199	3333.75
693.388	3092.09
693.578	3325.56
693.767	3354.23
693.956	3319.42
694.146	3190.39
694.335	3108.48
694.524	3249.79
694.713	3208.83
694.902	3155.58
695.092	3231.35
695.281	3128.95
695.47	3010.17
695.659	3036.8
695.848	2889.34
696.037	2967.17
696.226	3126.91
696.415	3065.47
696.604	3047.04
696.793	2911.87
696.982	2995.84
697.171	3073.66
697.36	2963.07
697.549	2844.29
697.738	2911.87
697.927	2832
698.116	2870.91
698.305	2877.05
698.494	2907.77
698.683	2772.61
698.872	2887.29
699.061	2866.81
699.25	2709.12
699.438	2786.94
699.627	2844.29
699.816	2889.34
700.005	2922.11
700.193	2748.03
700.382	2856.58
700.571	2838.14
700.76	2688.64
700.948	2791.04
701.137	2772.61
701.326	2692.74
701.514	2725.51
701.703	2776.7
701.892	2637.44
702.08	2719.36
702.269	2760.32
702.457	2643.59
702.646	2563.72
702.834	2666.11
703.023	2657.92
703.212	2619.01
703.4	2793.09
703.589	2705.03
703.777	2709.12
703.965	2506.37
704.154	2578.05
704.342	2508.42
704.531	2643.59
704.719	2553.48
704.907	2533
705.096	2586.24
705.284	2578.05
705.472	2535.04
705.661	2578.05
705.849	2430.6
706.037	2541.19
706.226	2645.63
706.414	2604.67
706.602	2528.9
706.79	2551.43
706.979	2438.79
707.167	2473.6
707.355	2436.74
707.543	2555.52
707.731	2494.08
707.919	2451.08
708.107	2496.13
708.296	2399.88
708.484	2475.65
708.672	2489.99
708.86	2506.37
709.048	2461.32
709.236	2438.79
709.424	2438.79
709.612	2530.95
709.8	2426.5
709.988	2401.93
710.176	2408.07
710.364	2442.89
710.551	2395.78
710.739	2381.45
710.927	2410.12
711.115	2438.79
711.303	2410.12
711.491	2496.13
711.679	2348.68
711.866	2483.84
712.054	2414.21
712.242	2453.13
712.43	2412.17
712.617	2408.07
712.805	2375.3
712.993	2397.83
713.181	2399.88
713.368	2401.93
713.556	2473.6
713.744	2340.49
713.931	2494.08
714.119	2408.07
714.306	2399.88
714.494	2342.53
714.682	2410.12
714.869	2420.36
715.057	2469.51
715.244	2373.25
715.432	2348.68
715.619	2348.68
715.807	2403.97
715.994	2332.3
716.182	2354.82
716.369	2451.08
716.556	2336.39
716.744	2242.18
716.931	2283.14
717.119	2401.93
717.306	2416.26
717.493	2401.93
717.681	2401.93
717.868	2332.3
718.055	2313.86
718.242	2401.93
718.43	2489.99
718.617	2465.41
718.804	2420.36
718.991	2391.69
719.179	2438.79
719.366	2254.47
719.553	2465.41
719.74	2299.53
719.927	2481.8
720.114	2483.84
720.301	2446.98
720.488	2381.45
720.676	2334.34
720.863	2381.45
721.05	2338.44
721.237	2352.77
721.424	2406.02
721.611	2328.2
721.798	2229.9
721.985	2350.73
722.172	2471.56
722.358	2434.69
722.545	2395.78
722.732	2436.74
722.919	2449.03
723.106	2350.73
723.293	2440.84
723.48	2473.6
723.667	2313.86
723.853	2453.13
724.04	2463.37
724.227	2375.3
724.414	2340.49
724.6	2285.19
724.787	2506.37
724.974	2410.12
725.161	2322.06
725.347	2240.14
725.534	2330.25
725.72	2485.89
725.907	2426.5
726.094	2547.33
726.28	2418.31
726.467	2299.53
726.653	2457.22
726.84	2385.54
727.027	2367.11
727.213	2326.15
727.4	2467.46
727.586	2424.45
727.773	2334.34
727.959	2317.96
728.145	2440.84
728.332	2606.72
728.518	2463.37
728.705	2387.59
728.891	2477.7
729.077	2424.45
729.264	2442.89
729.45	2457.22
729.636	2516.61
729.823	2469.51
730.009	2471.56
730.195	2526.85
730.382	2602.63
730.568	2553.48
730.754	2578.05
730.94	2526.85
731.126	2537.09
731.313	2487.94
731.499	2588.29
731.685	2614.91
731.871	2539.14
732.057	2571.91
732.243	2592.39
732.429	2533
732.615	2604.67
732.801	2414.21
732.987	2473.6
733.173	2453.13
733.359	2537.09
733.545	2471.56
733.731	2408.07
733.917	2588.29
734.103	2508.42
734.289	2621.06
734.475	2567.81
734.661	2621.06
734.847	2580.1
735.033	2590.34
735.219	2610.82
735.404	2645.63
735.59	2594.44
735.776	2623.11
735.962	2647.68
736.148	2725.51
736.333	2778.75
736.519	2522.76
736.705	2479.75
736.89	2643.59
737.076	2676.35
737.262	2684.55
737.447	2694.79
737.633	2655.87
737.819	2688.64
738.004	2698.88
738.19	2619.01
738.375	2641.54
738.561	2686.59
738.747	2666.11
738.932	2649.73
739.118	2637.44
739.303	2774.66
739.489	2729.6
739.674	2502.28
739.859	2719.36
740.045	2684.55
740.23	2608.77
740.416	2496.13
740.601	2737.79
740.786	2563.72
740.972	2606.72
741.157	2571.91
741.342	2559.62
741.528	2690.69
741.713	2662.02
741.898	2567.81
742.084	2625.15
742.269	2684.55
742.454	2659.97
742.639	2750.08
742.824	2608.77
743.01	2596.48
743.195	2594.44
743.38	2717.31
743.565	2487.94
743.75	2623.11
743.935	2580.1
744.12	2651.78
744.305	2582.15
744.49	2582.15
744.675	2512.52
744.86	2444.93
745.045	2557.57
745.23	2578.05
745.415	2522.76
745.6	2547.33
745.785	2455.17
745.97	2496.13
746.155	2508.42
746.34	2668.16
746.525	2576
746.71	2535.04
746.895	2555.52
747.079	2457.22
747.264	2459.27
747.449	2543.24
747.634	2477.7
747.819	2449.03
748.003	2348.68
748.188	2381.45
748.373	2428.55
748.557	2489.99
748.742	2395.78
748.927	2471.56
749.111	2401.93
749.296	2391.69
749.481	2367.11
749.665	2385.54
749.85	2330.25
750.034	2322.06
750.219	2240.14
750.404	2342.53
750.588	2291.34
750.773	2322.06
750.957	2252.42
751.141	2299.53
751.326	2260.62
751.51	2213.51
751.695	2164.36
751.879	2184.84
752.064	2340.49
752.248	2264.71
752.432	2221.7
752.617	2258.57
752.801	2248.33
752.985	2223.75
753.17	2289.29
753.354	2168.46
753.538	2213.51
753.722	2162.31
753.907	2004.62
754.091	2127.5
754.275	2000.52
754.459	1951.37
754.643	2072.2
754.828	2023.05
755.012	2059.92
755.196	1965.71
755.38	1930.89
755.564	2029.2
755.748	2102.92
755.932	2039.44
756.116	1937.04
756.3	1982.09
756.484	2008.72
756.668	1947.28
756.852	1934.99
757.036	1947.28
757.22	1955.47
757.404	1873.55
757.588	1922.7
757.772	1932.94
757.956	1857.17
758.14	1801.87
758.323	1861.26
758.507	1840.78
758.691	1824.4
758.875	1818.25
759.059	1975.95
759.242	1842.83
759.426	1754.77
759.61	1754.77
759.794	1740.43
759.977	1787.54
760.161	1808.02
760.345	1744.53
760.528	1728.14
760.712	1705.62
760.895	1709.71
761.079	1709.71
761.263	1816.21
761.446	1660.56
761.63	1650.32
761.813	1613.46
761.997	1695.38
762.18	1646.23
762.364	1668.75
762.547	1511.06
762.731	1638.03
762.914	1613.46
763.098	1623.7
763.281	1685.14
763.464	1535.64
763.648	1558.16
763.831	1586.83
764.015	1621.65
764.198	1586.83
764.381	1492.63
764.564	1490.58
764.748	1478.29
764.931	1531.54
765.114	1590.93
765.297	1572.5
765.481	1545.88
765.664	1472.15
765.847	1420.95
766.03	1529.49
766.213	1543.83
766.397	1461.91
766.58	1558.16
766.763	1568.4
766.946	1504.92
767.129	1560.21
767.312	1486.48
767.495	1488.53
767.678	1390.23
767.861	1412.76
768.044	1439.38
768.227	1441.43
768.41	1480.34
768.593	1416.85
768.776	1343.13
768.959	1443.48
769.142	1492.63
769.324	1414.81
769.507	1519.25
769.69	1302.17
769.873	1341.08
770.056	1451.67
770.239	1394.33
770.421	1318.55
770.604	1463.96
770.787	1308.31
770.97	1300.12
771.152	1283.74
771.335	1304.21
771.518	1304.21
771.7	1382.04
771.883	1341.08
772.066	1287.83
772.248	1265.3
772.431	1289.88
772.613	1302.17
772.796	1267.35
772.978	1310.36
773.161	1228.44
773.343	1189.53
773.526	1228.44
773.708	1257.11
773.891	1142.43
774.073	1154.71
774.256	1185.43
774.438	1265.3
774.621	1080.99
774.803	1285.78
774.985	1173.14
775.168	1240.73
775.35	1003.16
775.532	1136.28
775.715	1164.95
775.897	1191.58
776.079	1087.13
776.261	1113.75
776.444	1083.03
776.626	1173.14
776.808	1099.42
776.99	972.44
777.173	976.54
777.355	1060.51
777.537	1023.64
777.719	1009.31
777.901	1033.88
778.083	1035.93
778.265	1013.4
778.447	1078.94
778.629	1048.22
778.811	882.33
778.993	986.78
779.175	1080.99
779.357	1060.51
779.539	980.64
779.721	1019.55
779.903	964.25
780.085	994.97
780.267	939.68
780.449	1013.4
780.631	868
780.812	937.63
780.994	868
781.176	919.2
781.358	880.29
781.54	876.19
781.721	915.1
781.903	906.91
782.085	931.48
782.267	841.37
782.448	781.98
782.63	874.14
782.812	902.81
782.993	878.24
783.175	843.42
783.357	792.22
783.538	827.04
783.72	736.93
783.901	833.18
784.083	775.84
784.264	751.26
784.446	771.74
784.627	771.74
784.809	769.69
784.99	716.45
785.172	804.51
785.353	798.37
785.535	718.5
785.716	784.03
785.897	722.59
786.079	675.49
786.26	689.82
786.441	700.06
786.623	587.43
786.804	704.16
786.985	689.82
787.167	665.25
787.348	601.76
787.529	675.49
787.71	718.5
787.891	706.21
788.073	585.38
788.254	571.04
788.435	677.54
788.616	634.53
788.797	622.24
788.978	663.2
789.159	573.09
789.34	612
789.522	482.98
789.703	593.57
789.884	566.95
790.065	618.15
790.246	638.62
790.427	540.32
790.607	661.15
790.788	652.96
790.969	511.65
791.15	519.84
791.331	525.99
791.512	546.47
791.693	513.7
791.874	509.6
792.054	523.94
792.235	489.12
792.416	626.34
792.597	534.18
792.778	552.61
792.958	573.09
793.139	515.75
793.32	487.08
793.5	503.46
793.681	544.42
793.862	409.25
794.042	482.98
794.223	450.21
794.404	431.78
794.584	517.79
794.765	470.69
794.945	540.32
795.126	544.42
795.306	460.45
795.487	421.54
795.667	429.73
795.848	519.84
796.028	411.3
796.209	448.16
796.389	491.17
796.57	446.12
796.75	419.49
796.93	497.32
797.111	399.01
797.291	415.4
797.471	456.36
797.652	421.54
797.832	435.88
798.012	407.2
798.192	339.62
798.373	407.2
798.553	444.07
798.733	523.94
798.913	394.92
799.093	390.82
799.274	468.64
799.454	392.87
799.634	390.82
799.814	423.59
799.994	353.96
800.174	485.03
800.354	356.01
800.534	345.77
800.714	360.1
800.894	364.2
801.074	347.81
801.254	390.82
801.434	310.95
801.614	296.61
801.794	333.48
801.974	1062.55
802.154	356.01
802.334	401.06
802.514	341.67
802.693	437.92
802.873	327.33
803.053	310.95
803.233	356.01
803.413	337.57
803.592	265.89
803.772	329.38
803.952	353.96
804.131	317.09
804.311	302.76
804.491	353.96
804.67	329.38
804.85	329.38
805.03	335.53
805.209	306.85
805.389	278.18
805.568	296.61
805.748	372.39
805.928	341.67
806.107	409.25
806.287	374.44
806.466	284.33
806.646	341.67
806.825	263.85
807.004	210.6
807.184	247.46
807.363	331.43
807.543	317.09
807.722	300.71
807.901	288.42
808.081	296.61
808.26	278.18
808.439	226.98
808.619	329.38
808.798	239.27
808.977	317.09
809.156	302.76
809.336	253.61
809.515	356.01
809.694	247.46
809.873	323.24
810.052	282.28
810.231	294.57
810.411	247.46
810.59	286.37
810.769	286.37
810.948	356.01
811.127	204.46
811.306	282.28
811.485	276.13
811.664	335.53
811.843	210.6
812.022	186.02
812.201	257.7
812.38	208.55
812.559	300.71
812.737	382.63
812.916	171.69
813.095	118.44
813.274	231.08
813.453	251.56
813.632	282.28
813.811	288.42
813.989	226.98
814.168	222.89
814.347	149.16
814.526	202.41
814.704	231.08
814.883	267.94
815.062	298.66
815.24	208.55
815.419	222.89
815.598	243.37
815.776	247.46
815.955	284.33
816.133	157.35
816.312	177.83
816.49	179.88
816.669	210.6
816.847	177.83
817.026	253.61
817.204	263.85
817.383	198.31
817.561	183.98
817.74	216.74
817.918	194.22
818.097	206.5
818.275	147.11
818.453	208.55
818.632	194.22
818.81	243.37
818.988	224.94
819.167	212.65
819.345	157.35
819.523	179.88
819.701	247.46
819.879	220.84
820.058	112.3
820.236	165.54
820.414	243.37
820.592	188.07
820.77	216.74
820.948	147.11
821.127	224.94
821.305	212.65
821.483	134.82
821.661	269.99
821.839	237.22
822.017	210.6
822.195	157.35
822.373	110.25
822.551	149.16
822.729	140.97
822.907	126.63
823.085	245.41
823.262	136.87
823.44	138.92
823.618	44.71
823.796	202.41
823.974	149.16
824.152	149.16
824.329	124.58
824.507	143.02
824.685	194.22
824.863	208.55
825.04	171.69
825.218	204.46
825.396	222.89
825.574	190.12
825.751	118.44
825.929	165.54
826.107	151.21
826.284	235.18
826.462	151.21
826.639	126.63
826.817	192.17
826.994	124.58
827.172	126.63
827.349	220.84
827.527	163.5
827.704	181.93
827.882	183.98
828.059	190.12
828.237	97.96
828.414	212.65
828.591	124.58
828.769	91.82
828.946	136.87
829.124	159.4
829.301	147.11
829.478	134.82
829.655	134.82
829.833	161.45
830.01	100.01
830.187	151.21
830.364	81.58
830.542	198.31
830.719	169.64
830.896	167.59
831.073	130.73
831.25	81.58
831.427	145.06
831.604	116.39
831.782	71.34
831.959	190.12
832.136	95.91
832.313	145.06
832.49	91.82
832.667	147.11
832.844	42.67
833.021	183.98
833.198	181.93
833.374	181.93
833.551	140.97
833.728	124.58
833.905	138.92
834.082	118.44
834.259	153.26
834.436	181.93
834.612	130.73
834.789	194.22
834.966	89.77
835.143	147.11
835.319	140.97
835.496	132.78
835.673	179.88
835.85	202.41
836.026	34.47
836.203	159.4
836.38	110.25
836.556	63.15
836.733	104.11
836.909	186.02
837.086	134.82
837.262	42.67
837.439	97.96
837.616	140.97
837.792	44.71
837.968	95.91
838.145	44.71
838.321	40.62
838.498	67.24
838.674	79.53
838.851	120.49
839.027	118.44
839.203	97.96
839.38	153.26
839.556	118.44
839.732	128.68
839.909	42.67
840.085	161.45
840.261	48.81
840.437	-4.44
840.614	128.68
840.79	77.48
840.966	177.83
841.142	38.57
841.318	57
841.494	145.06
841.671	134.82
841.847	61.1
842.023	63.15
842.199	69.29
842.375	79.53
842.551	79.53
842.727	153.26
842.903	132.78
843.079	73.39
843.255	108.2
843.431	-4.44
843.607	102.06
843.783	28.33
843.959	128.68
844.134	77.48
844.31	173.74
844.486	-10.58
844.662	67.24
844.838	112.3
845.013	75.43
845.189	87.72
845.365	38.57
845.541	63.15
845.716	28.33
845.892	73.39
846.068	85.67
846.244	40.62
846.419	95.91
846.595	-49.49
846.77	28.33
846.946	143.02
847.122	95.91
847.297	54.95
847.473	132.78
847.648	50.86
847.824	177.83
847.999	67.24
848.175	155.3
848.35	147.11
848.526	61.1
848.701	147.11
848.876	16.04
849.052	128.68
849.227	81.58
849.403	18.09
849.578	18.09
849.753	114.34
849.929	34.47
850.104	-22.87
850.279	77.48
850.454	77.48
850.63	3.75
850.805	65.19
850.98	5.8
851.155	85.67
851.33	50.86
851.505	26.28
851.681	134.82
851.856	57
852.031	54.95
852.206	95.91
852.381	48.81
852.556	-20.82
852.731	145.06
852.906	42.67
853.081	61.1
853.256	177.83
853.431	71.34
853.606	26.28
853.781	-0.34
853.956	1.71
854.131	46.76
854.305	40.62
854.48	3.75
854.655	69.29
854.83	-14.68
855.005	73.39
855.18	106.15
855.354	-37.2
855.529	71.34
855.704	34.47
855.879	-4.44
856.053	20.14
856.228	36.52
856.403	-55.64
856.577	100.01
856.752	7.85
856.926	65.19
857.101	-18.77
857.276	-31.06
857.45	75.43
857.625	147.11
857.799	22.19
857.974	138.92
858.148	-26.96
858.323	71.34
858.497	-10.58
858.672	65.19
858.846	20.14
859.02	-26.96
859.195	5.8
859.369	32.43
859.543	-41.3
859.718	79.53
859.892	65.19
860.066	18.09
860.241	-6.49
860.415	104.11
860.589	9.9
860.763	59.05
860.938	63.15
861.112	63.15
861.286	28.33
861.46	13.99
861.634	7.85
861.808	118.44
861.982	108.2
862.157	3.75
862.331	-16.73
862.505	-18.77
862.679	13.99
862.853	48.81
863.027	44.71
863.201	87.72
863.375	-10.58
863.549	118.44
863.722	-12.63
863.896	20.14
864.07	46.76
864.244	30.38
864.418	75.43
864.592	95.91
864.766	52.91
864.939	18.09
865.113	67.24
865.287	54.95
865.461	3.75
865.634	87.72
865.808	-18.77
865.982	5.8
866.156	7.85
866.329	22.19
866.503	42.67
866.676	24.23
866.85	-12.63
867.024	-43.35
867.197	-14.68
867.371	28.33
867.544	18.09
867.718	67.24
867.891	20.14
868.065	7.85
868.238	32.43
868.412	-0.34
868.585	36.52
868.759	-2.39
868.932	32.43
869.105	7.85
869.279	32.43
869.452	38.57
869.625	-43.35
869.799	69.29
869.972	18.09
870.145	-0.34
870.319	-2.39
870.492	38.57
870.665	81.58
870.838	-0.34
871.011	-24.92
871.185	-0.34
871.358	22.19
871.531	-24.92
871.704	28.33
871.877	13.99
872.05	9.9
872.223	-20.82
872.396	32.43
872.569	-33.11
872.742	-67.92
872.915	114.34
873.088	-63.83
873.261	54.95
873.434	18.09
873.607	22.19
873.78	61.1
873.953	24.23
874.126	32.43
874.299	50.86
874.471	-39.25
874.644	46.76
874.817	52.91
874.99	106.15
875.163	69.29
875.335	5.8
875.508	61.1
875.681	87.72
875.853	-22.87
876.026	97.96
876.199	40.62
876.371	36.52
876.544	22.19
876.717	11.95
876.889	-12.63
877.062	73.39
877.234	-6.49
877.407	16.04
877.579	-16.73
877.752	87.72
877.924	38.57
878.097	46.76
878.269	-0.34
878.442	-53.59
878.614	-51.54
878.786	54.95
878.959	-0.34
879.131	97.96
879.303	-24.92
879.476	50.86
879.648	5.8
879.82	9.9
879.993	46.76
880.165	-22.87
880.337	-55.64
880.509	24.23
880.681	32.43
880.854	-26.96
881.026	83.63
881.198	75.43
881.37	5.8
881.542	-29.01
881.714	20.14
881.886	3.75
882.058	7.85
882.23	3.75
882.402	48.81
882.574	30.38
882.746	-10.58
882.918	34.47
883.09	5.8
883.262	50.86
883.434	-8.53
883.606	5.8
883.778	16.04
883.95	81.58
884.122	32.43
884.293	11.95
884.465	11.95
884.637	48.81
884.809	52.91
884.98	-18.77
885.152	24.23
885.324	77.48
885.496	40.62
885.667	-18.77
885.839	32.43
886.011	30.38
886.182	42.67
886.354	79.53
886.525	5.8
886.697	30.38
886.869	100.01
887.04	28.33
887.212	89.77
887.383	85.67
887.555	18.09
887.726	3.75
887.897	9.9
888.069	-29.01
888.24	36.52
888.412	46.76
888.583	7.85
888.754	-10.58
888.926	24.23
889.097	1.71
889.268	5.8
889.44	18.09
889.611	-18.77
889.782	46.76
889.953	-8.53
890.125	1.71
890.296	30.38
890.467	9.9
890.638	-10.58
890.809	-8.53
890.98	-16.73
891.151	57
891.323	20.14
891.494	26.28
891.665	18.09
891.836	36.52
892.007	34.47
892.178	-10.58
892.349	11.95
892.52	30.38
892.691	-12.63
892.862	48.81
893.032	-106.84
893.203	-31.06
893.374	36.52
893.545	67.24
893.716	-18.77
893.887	9.9
894.057	11.95
894.228	38.57
894.399	5.8
894.57	83.63
894.74	81.58
894.911	-8.53
895.082	-18.77
895.253	34.47
895.423	18.09
895.594	24.23
895.764	-43.35
895.935	-12.63
896.106	-18.77
896.276	11.95
896.447	16.04
896.617	26.28
896.788	-45.4
896.958	69.29
897.129	-26.96
897.299	46.76
897.47	38.57
897.64	28.33
897.81	32.43
897.981	9.9
898.151	-49.49
898.322	38.57
898.492	24.23
898.662	50.86
898.832	5.8
899.003	-24.92
899.173	-74.07
899.343	7.85
899.513	42.67
