Data from USB4F104151__12__12-41-00-536.txt Node

Date: Fri Mar 14 12:41:00 EDT 2025
User: louis
Spectrometer: USB4F10415
Trigger mode: 4
Integration Time (sec): 3.000000E-2
Scans to average: 1
Electric dark correction enabled: true
Nonlinearity correction enabled: false
Boxcar width: 0
XAxis mode: Wavelengths
Number of Pixels in Spectrum: 3648
>>>>>Begin Spectral Data<<<<<
178.204	-111.1
178.424	-111.1
178.644	-111.1
178.864	-158.21
179.084	-131.58
179.304	3.58
179.524	-27.14
179.744	-43.52
179.964	101.89
180.184	3.58
180.404	44.54
180.624	-49.66
180.844	-20.99
181.064	9.73
181.283	-6.66
181.503	-16.9
181.723	1.54
181.943	-2.56
182.163	-14.85
182.383	30.21
182.602	52.74
182.822	81.41
183.042	3.58
183.262	-70.14
183.482	-59.9
183.701	13.82
183.921	-23.04
184.141	30.21
184.361	19.97
184.58	42.5
184.8	60.93
185.02	7.68
185.239	71.17
185.459	7.68
185.679	-20.99
185.898	-66.05
186.118	-33.28
186.338	15.87
186.557	95.74
186.777	-20.99
186.997	-33.28
187.216	-39.42
187.436	95.74
187.655	-57.86
187.875	-2.56
188.095	30.21
188.314	48.64
188.534	83.45
188.753	-35.33
188.973	46.59
189.192	56.83
189.412	120.32
189.631	60.93
189.851	30.21
190.07	7.68
190.29	-6.66
190.509	-2.56
190.729	5.63
190.948	44.54
191.168	128.51
191.387	34.3
191.607	24.06
191.826	9.73
192.045	3.58
192.265	44.54
192.484	46.59
192.704	60.93
192.923	-25.09
193.142	71.17
193.362	95.74
193.581	73.21
193.8	69.12
194.02	58.88
194.239	-41.47
194.458	56.83
194.678	15.87
194.897	-76.29
195.116	101.89
195.335	71.17
195.555	5.63
195.774	-25.09
195.993	30.21
196.212	7.68
196.432	7.68
196.651	46.59
196.87	83.45
197.089	93.69
197.308	48.64
197.528	69.12
197.747	-47.62
197.966	-68.09
198.185	15.87
198.404	-33.28
198.623	11.78
198.842	93.69
199.062	44.54
199.281	40.45
199.5	75.26
199.719	67.07
199.938	69.12
200.157	-33.28
200.376	3.58
200.595	69.12
200.814	83.45
201.033	28.16
201.252	38.4
201.471	17.92
201.69	46.59
201.909	26.11
202.128	36.35
202.347	56.83
202.566	62.98
202.785	-2.56
203.004	-2.56
203.223	93.69
203.442	9.73
203.661	-31.23
203.879	-18.94
204.098	79.36
204.317	15.87
204.536	11.78
204.755	-6.66
204.974	28.16
205.193	-20.99
205.411	32.26
205.63	36.35
205.849	13.82
206.068	50.69
206.287	60.93
206.505	-18.94
206.724	-59.9
206.943	-20.99
207.162	-70.14
207.381	54.78
207.599	32.26
207.818	46.59
208.037	87.55
208.255	54.78
208.474	-18.94
208.693	52.74
208.911	17.92
209.13	69.12
209.349	36.35
209.567	28.16
209.786	-8.7
210.005	83.45
210.223	60.93
210.442	-12.8
210.661	87.55
210.879	19.97
211.098	62.98
211.316	46.59
211.535	28.16
211.753	38.4
211.972	-29.18
212.191	17.92
212.409	22.02
212.628	83.45
212.846	-14.85
213.065	15.87
213.283	58.88
213.502	-14.85
213.72	89.6
213.938	46.59
214.157	24.06
214.375	30.21
214.594	17.92
214.812	108.03
215.031	91.65
215.249	-23.04
215.467	40.45
215.686	-6.66
215.904	62.98
216.122	-6.66
216.341	24.06
216.559	52.74
216.778	36.35
216.996	95.74
217.214	62.98
217.432	-12.8
217.651	28.16
217.869	-10.75
218.087	26.11
218.306	30.21
218.524	26.11
218.742	-29.18
218.96	77.31
219.179	17.92
219.397	11.78
219.615	50.69
219.833	140.8
220.051	48.64
220.27	-4.61
220.488	46.59
220.706	93.69
220.924	-10.75
221.142	3.58
221.36	75.26
221.578	71.17
221.796	40.45
222.015	56.83
222.233	26.11
222.451	36.35
222.669	-31.23
222.887	30.21
223.105	15.87
223.323	40.45
223.541	13.82
223.759	30.21
223.977	-4.61
224.195	-0.51
224.413	48.64
224.631	71.17
224.849	7.68
225.067	99.84
225.285	-55.81
225.503	-64
225.721	-47.62
225.939	-35.33
226.157	-8.7
226.375	97.79
226.592	7.68
226.81	11.78
227.028	79.36
227.246	34.3
227.464	-12.8
227.682	114.17
227.9	5.63
228.117	65.02
228.335	32.26
228.553	-18.94
228.771	42.5
228.989	32.26
229.206	46.59
229.424	71.17
229.642	15.87
229.86	7.68
230.077	48.64
230.295	-37.38
230.513	108.03
230.731	116.22
230.948	1.54
231.166	-29.18
231.384	58.88
231.601	30.21
231.819	48.64
232.037	34.3
232.254	44.54
232.472	79.36
232.689	15.87
232.907	83.45
233.125	-6.66
233.342	79.36
233.56	-23.04
233.777	17.92
233.995	54.78
234.213	-2.56
234.43	56.83
234.648	-59.9
234.865	-6.66
235.083	101.89
235.3	44.54
235.518	9.73
235.735	118.27
235.953	28.16
236.17	-80.38
236.388	30.21
236.605	42.5
236.822	124.41
237.04	44.54
237.257	65.02
237.475	-12.8
237.692	42.5
237.909	30.21
238.127	32.26
238.344	26.11
238.562	-10.75
238.779	22.02
238.996	44.54
239.214	17.92
239.431	93.69
239.648	54.78
239.865	62.98
240.083	-18.94
240.3	-16.9
240.517	13.82
240.735	13.82
240.952	-10.75
241.169	95.74
241.386	73.21
241.603	50.69
241.821	9.73
242.038	81.41
242.255	77.31
242.472	-18.94
242.689	44.54
242.907	134.65
243.124	44.54
243.341	-0.51
243.558	60.93
243.775	1.54
243.992	19.97
244.209	75.26
244.426	17.92
244.643	101.89
244.86	26.11
245.078	42.5
245.295	48.64
245.512	44.54
245.729	52.74
245.946	60.93
246.163	-23.04
246.38	22.02
246.597	56.83
246.814	1.54
247.031	3.58
247.248	-39.42
247.464	60.93
247.681	26.11
247.898	60.93
248.115	95.74
248.332	-31.23
248.549	69.12
248.766	148.99
248.983	91.65
249.2	46.59
249.417	11.78
249.633	65.02
249.85	36.35
250.067	46.59
250.284	-41.47
250.501	71.17
250.717	99.84
250.934	-2.56
251.151	3.58
251.368	36.35
251.585	116.22
251.801	3.58
252.018	44.54
252.235	58.88
252.451	44.54
252.668	28.16
252.885	28.16
253.102	-27.14
253.318	-18.94
253.535	3.58
253.752	-2.56
253.968	30.21
254.185	-64
254.401	34.3
254.618	44.54
254.835	-27.14
255.051	62.98
255.268	58.88
255.484	-0.51
255.701	-12.8
255.917	79.36
256.134	5.63
256.351	-2.56
256.567	22.02
256.784	5.63
257	17.92
257.217	26.11
257.433	11.78
257.65	-2.56
257.866	-6.66
258.082	-47.62
258.299	24.06
258.515	85.5
258.732	54.78
258.948	54.78
259.165	-2.56
259.381	-29.18
259.597	-29.18
259.814	-35.33
260.03	-25.09
260.246	56.83
260.463	34.3
260.679	67.07
260.895	60.93
261.112	69.12
261.328	60.93
261.544	-20.99
261.761	85.5
261.977	7.68
262.193	-37.38
262.409	69.12
262.626	17.92
262.842	36.35
263.058	44.54
263.274	93.69
263.49	71.17
263.707	103.93
263.923	13.82
264.139	69.12
264.355	-18.94
264.571	132.61
264.787	-47.62
265.004	67.07
265.22	46.59
265.436	-51.71
265.652	-35.33
265.868	52.74
266.084	-59.9
266.3	36.35
266.516	-51.71
266.732	56.83
266.948	52.74
267.164	-0.51
267.38	3.58
267.596	105.98
267.812	97.79
268.028	56.83
268.244	44.54
268.46	42.5
268.676	79.36
268.892	108.03
269.108	-10.75
269.324	24.06
269.54	34.3
269.756	97.79
269.972	60.93
270.188	58.88
270.403	-6.66
270.619	13.82
270.835	97.79
271.051	30.21
271.267	50.69
271.483	54.78
271.698	5.63
271.914	11.78
272.13	-0.51
272.346	28.16
272.562	1.54
272.777	69.12
272.993	-41.47
273.209	1.54
273.425	138.75
273.64	11.78
273.856	67.07
274.072	17.92
274.287	15.87
274.503	32.26
274.719	95.74
274.934	87.55
275.15	46.59
275.366	71.17
275.581	-23.04
275.797	-14.85
276.012	67.07
276.228	24.06
276.444	15.87
276.659	65.02
276.875	-14.85
277.09	-0.51
277.306	-74.24
277.521	-27.14
277.737	9.73
277.952	50.69
278.168	24.06
278.383	-10.75
278.599	71.17
278.814	11.78
279.03	17.92
279.245	110.08
279.461	13.82
279.676	79.36
279.892	-45.57
280.107	1.54
280.322	42.5
280.538	65.02
280.753	36.35
280.969	22.02
281.184	-29.18
281.399	32.26
281.615	22.02
281.83	44.54
282.045	-33.28
282.26	40.45
282.476	11.78
282.691	165.37
282.906	124.41
283.122	-4.61
283.337	-8.7
283.552	128.51
283.767	-25.09
283.983	79.36
284.198	93.69
284.413	17.92
284.628	42.5
284.843	52.74
285.058	54.78
285.274	44.54
285.489	-41.47
285.704	101.89
285.919	-10.75
286.134	40.45
286.349	-12.8
286.564	77.31
286.779	24.06
286.995	5.63
287.21	40.45
287.425	60.93
287.64	60.93
287.855	-31.23
288.07	65.02
288.285	116.22
288.5	83.45
288.715	67.07
288.93	13.82
289.145	-16.9
289.36	56.83
289.575	28.16
289.79	75.26
290.004	15.87
290.219	-39.42
290.434	-18.94
290.649	-43.52
290.864	62.98
291.079	77.31
291.294	15.87
291.509	101.89
291.724	40.45
291.938	38.4
292.153	-10.75
292.368	42.5
292.583	28.16
292.798	67.07
293.012	28.16
293.227	75.26
293.442	-35.33
293.657	75.26
293.871	30.21
294.086	-64
294.301	69.12
294.516	89.6
294.73	46.59
294.945	-23.04
295.16	15.87
295.374	89.6
295.589	48.64
295.804	26.11
296.018	-12.8
296.233	89.6
296.447	52.74
296.662	87.55
296.877	136.7
297.091	50.69
297.306	81.41
297.52	-39.42
297.735	40.45
297.949	44.54
298.164	26.11
298.378	7.68
298.593	50.69
298.807	17.92
299.022	89.6
299.236	42.5
299.451	19.97
299.665	-12.8
299.88	71.17
300.094	-25.09
300.309	-14.85
300.523	11.78
300.737	38.4
300.952	17.92
301.166	36.35
301.381	-43.52
301.595	42.5
301.809	-6.66
302.024	17.92
302.238	-49.66
302.452	81.41
302.667	62.98
302.881	132.61
303.095	77.31
303.309	79.36
303.524	-14.85
303.738	54.78
303.952	75.26
304.166	60.93
304.381	-10.75
304.595	93.69
304.809	73.21
305.023	-25.09
305.237	-29.18
305.452	3.58
305.666	26.11
305.88	58.88
306.094	69.12
306.308	52.74
306.522	-16.9
306.736	28.16
306.95	1.54
307.164	-4.61
307.379	11.78
307.593	28.16
307.807	56.83
308.021	50.69
308.235	9.73
308.449	17.92
308.663	-29.18
308.877	89.6
309.091	32.26
309.305	85.5
309.519	-59.9
309.733	85.5
309.947	22.02
310.161	85.5
310.374	54.78
310.588	77.31
310.802	11.78
311.016	-51.71
311.23	69.12
311.444	95.74
311.658	-2.56
311.872	118.27
312.085	19.97
312.299	52.74
312.513	58.88
312.727	67.07
312.941	17.92
313.154	13.82
313.368	46.59
313.582	19.97
313.796	87.55
314.009	36.35
314.223	126.46
314.437	-4.61
314.651	32.26
314.864	-35.33
315.078	-6.66
315.292	69.12
315.505	24.06
315.719	54.78
315.933	26.11
316.146	28.16
316.36	-39.42
316.573	65.02
316.787	24.06
317.001	-18.94
317.214	77.31
317.428	42.5
317.641	67.07
317.855	75.26
318.068	44.54
318.282	44.54
318.495	30.21
318.709	103.93
318.922	-49.66
319.136	15.87
319.349	112.13
319.563	101.89
319.776	11.78
319.99	-27.14
320.203	54.78
320.417	120.32
320.63	-4.61
320.843	24.06
321.057	-10.75
321.27	-12.8
321.483	36.35
321.697	69.12
321.91	-14.85
322.124	13.82
322.337	42.5
322.55	28.16
322.763	58.88
322.977	42.5
323.19	34.3
323.403	52.74
323.617	-23.04
323.83	36.35
324.043	62.98
324.256	42.5
324.469	-39.42
324.683	85.5
324.896	22.02
325.109	62.98
325.322	87.55
325.535	30.21
325.748	69.12
325.962	5.63
326.175	34.3
326.388	60.93
326.601	24.06
326.814	30.21
327.027	77.31
327.24	95.74
327.453	-25.09
327.666	91.65
327.879	67.07
328.092	-47.62
328.305	19.97
328.518	15.87
328.731	-49.66
328.944	11.78
329.157	11.78
329.37	15.87
329.583	48.64
329.796	85.5
330.009	-78.33
330.222	1.54
330.435	-16.9
330.648	24.06
330.861	52.74
331.073	99.84
331.286	52.74
331.499	34.3
331.712	-55.81
331.925	89.6
332.138	-31.23
332.35	5.63
332.563	15.87
332.776	69.12
332.989	15.87
333.202	1.54
333.414	36.35
333.627	30.21
333.84	28.16
334.053	81.41
334.265	-55.81
334.478	52.74
334.691	-37.38
334.903	62.98
335.116	15.87
335.329	-53.76
335.541	50.69
335.754	73.21
335.966	-16.9
336.179	-16.9
336.392	-59.9
336.604	3.58
336.817	42.5
337.029	87.55
337.242	118.27
337.454	46.59
337.667	15.87
337.88	22.02
338.092	36.35
338.305	77.31
338.517	42.5
338.729	-0.51
338.942	120.32
339.154	52.74
339.367	-20.99
339.579	34.3
339.792	22.02
340.004	65.02
340.217	-25.09
340.429	52.74
340.641	7.68
340.854	26.11
341.066	56.83
341.278	110.08
341.491	42.5
341.703	108.03
341.915	-74.24
342.128	83.45
342.34	62.98
342.552	28.16
342.764	44.54
342.977	42.5
343.189	67.07
343.401	85.5
343.613	-80.38
343.826	69.12
344.038	99.84
344.25	56.83
344.462	-37.38
344.674	5.63
344.886	24.06
345.099	75.26
345.311	91.65
345.523	-12.8
345.735	-2.56
345.947	65.02
346.159	50.69
346.371	-18.94
346.583	-2.56
346.795	73.21
347.007	40.45
347.219	71.17
347.431	58.88
347.643	105.98
347.855	73.21
348.067	36.35
348.279	28.16
348.491	46.59
348.703	73.21
348.915	26.11
349.127	7.68
349.339	85.5
349.551	26.11
349.763	99.84
349.975	34.3
350.187	65.02
350.399	36.35
350.61	99.84
350.822	15.87
351.034	105.98
351.246	87.55
351.458	-49.66
351.669	54.78
351.881	32.26
352.093	60.93
352.305	93.69
352.517	54.78
352.728	60.93
352.94	54.78
353.152	65.02
353.363	-27.14
353.575	56.83
353.787	103.93
353.999	30.21
354.21	114.17
354.422	36.35
354.633	-12.8
354.845	48.64
355.057	40.45
355.268	65.02
355.48	112.13
355.692	-10.75
355.903	46.59
356.115	67.07
356.326	40.45
356.538	101.89
356.749	71.17
356.961	75.26
357.172	-68.09
357.384	13.82
357.595	91.65
357.807	32.26
358.018	28.16
358.23	19.97
358.441	128.51
358.653	99.84
358.864	28.16
359.075	89.6
359.287	-25.09
359.498	81.41
359.709	97.79
359.921	79.36
360.132	58.88
360.344	-8.7
360.555	71.17
360.766	101.89
360.977	-31.23
361.189	69.12
361.4	30.21
361.611	69.12
361.823	112.13
362.034	69.12
362.245	67.07
362.456	26.11
362.667	108.03
362.879	3.58
363.09	30.21
363.301	24.06
363.512	7.68
363.723	15.87
363.935	-27.14
364.146	126.46
364.357	19.97
364.568	1.54
364.779	48.64
364.99	85.5
365.201	22.02
365.412	77.31
365.623	-53.76
365.834	54.78
366.045	32.26
366.256	44.54
366.467	42.5
366.678	60.93
366.889	-29.18
367.1	62.98
367.311	116.22
367.522	22.02
367.733	32.26
367.944	34.3
368.155	65.02
368.366	122.37
368.577	163.33
368.788	79.36
368.999	44.54
369.209	38.4
369.42	44.54
369.631	138.75
369.842	118.27
370.053	26.11
370.264	30.21
370.474	50.69
370.685	69.12
370.896	62.98
371.107	62.98
371.317	26.11
371.528	40.45
371.739	15.87
371.95	128.51
372.16	65.02
372.371	-72.19
372.582	52.74
372.792	26.11
373.003	40.45
373.214	-6.66
373.424	58.88
373.635	62.98
373.846	93.69
374.056	130.56
374.267	81.41
374.477	28.16
374.688	73.21
374.898	-6.66
375.109	58.88
375.319	89.6
375.53	58.88
375.74	126.46
375.951	40.45
376.161	24.06
376.372	126.46
376.582	1.54
376.793	48.64
377.003	83.45
377.214	114.17
377.424	112.13
377.635	44.54
377.845	110.08
378.055	110.08
378.266	38.4
378.476	46.59
378.686	69.12
378.897	75.26
379.107	69.12
379.317	50.69
379.528	62.98
379.738	126.46
379.948	22.02
380.158	22.02
380.369	36.35
380.579	38.4
380.789	19.97
380.999	56.83
381.21	132.61
381.42	118.27
381.63	34.3
381.84	87.55
382.05	130.56
382.261	71.17
382.471	65.02
382.681	65.02
382.891	108.03
383.101	62.98
383.311	99.84
383.521	56.83
383.731	56.83
383.941	118.27
384.151	36.35
384.361	103.93
384.571	97.79
384.781	73.21
384.991	128.51
385.201	97.79
385.411	148.99
385.621	56.83
385.831	-14.85
386.041	52.74
386.251	95.74
386.461	110.08
386.671	69.12
386.881	30.21
387.091	132.61
387.301	17.92
387.511	93.69
387.72	46.59
387.93	165.37
388.14	48.64
388.35	81.41
388.56	30.21
388.769	32.26
388.979	132.61
389.189	85.5
389.399	89.6
389.609	105.98
389.818	95.74
390.028	-4.61
390.238	58.88
390.447	36.35
390.657	116.22
390.867	50.69
391.076	105.98
391.286	65.02
391.496	62.98
391.705	54.78
391.915	140.8
392.125	144.89
392.334	44.54
392.544	60.93
392.753	136.7
392.963	58.88
393.172	97.79
393.382	67.07
393.591	91.65
393.801	24.06
394.01	69.12
394.22	50.69
394.429	91.65
394.639	77.31
394.848	161.28
395.058	15.87
395.267	40.45
395.477	146.94
395.686	140.8
395.895	112.13
396.105	105.98
396.314	91.65
396.524	99.84
396.733	69.12
396.942	167.42
397.152	58.88
397.361	159.23
397.57	122.37
397.78	110.08
397.989	118.27
398.198	216.57
398.407	144.89
398.617	97.79
398.826	108.03
399.035	95.74
399.244	120.32
399.453	130.56
399.663	73.21
399.872	173.57
400.081	132.61
400.29	142.85
400.499	136.7
400.708	134.65
400.917	142.85
401.127	159.23
401.336	144.89
401.545	179.71
401.754	230.91
401.963	116.22
402.172	110.08
402.381	124.41
402.59	163.33
402.799	79.36
403.008	171.52
403.217	110.08
403.426	183.81
403.635	144.89
403.844	192
404.053	101.89
404.262	189.95
404.471	257.53
404.68	95.74
404.888	165.37
405.097	173.57
405.306	202.24
405.515	187.9
405.724	173.57
405.933	206.33
406.142	206.33
406.35	347.64
406.559	226.81
406.768	251.39
406.977	214.52
407.185	216.57
407.394	243.2
407.603	241.15
407.812	235
408.02	318.97
408.229	167.42
408.438	280.06
408.646	337.4
408.855	306.68
409.064	341.5
409.272	316.92
409.481	421.37
409.69	325.12
409.898	351.74
410.107	321.02
410.315	468.47
410.524	366.07
410.733	400.89
410.941	427.51
411.15	447.99
411.358	445.95
411.567	478.71
411.775	493.05
411.984	568.82
412.192	558.58
412.401	476.66
412.609	531.96
412.818	646.65
413.026	650.74
413.234	660.98
413.443	722.42
413.651	609.78
413.86	689.65
414.068	761.33
414.276	787.96
414.485	816.63
414.693	912.88
414.901	919.03
415.11	865.78
415.318	943.6
415.526	880.11
415.734	902.64
415.943	1021.42
416.151	1023.47
416.359	1078.77
416.567	1025.52
416.776	1226.22
416.984	1273.32
417.192	1193.45
417.4	1324.52
417.608	1166.83
417.817	1330.67
418.025	1471.98
418.233	1494.51
418.441	1531.37
418.649	1508.84
418.857	1666.53
419.065	1644.01
419.273	1572.33
419.481	1789.41
419.689	1746.41
419.897	1955.3
420.105	1924.58
420.313	1930.72
420.521	1975.78
420.729	2158.05
420.937	2168.29
421.145	2184.67
421.353	2452.95
421.561	2436.57
421.769	2506.2
421.977	2749.91
422.185	2647.51
422.393	2827.73
422.601	2915.8
422.809	2825.68
423.017	2995.67
423.224	2975.19
423.432	3202.51
423.64	3114.45
423.848	3626.44
424.056	3243.47
424.263	3669.45
424.471	3689.93
424.679	3739.08
424.887	3902.92
425.094	4005.31
425.302	4150.72
425.51	4285.89
425.718	4304.32
425.925	4359.61
426.133	4568.51
426.341	4742.58
426.548	5084.59
426.756	4992.44
426.964	5062.07
427.171	5465.52
427.379	5529
427.586	5662.12
427.794	5862.82
428.001	5993.89
428.209	6321.57
428.417	6253.98
428.624	6729.11
428.832	6612.38
429.039	6593.95
429.247	6626.71
429.454	7085.46
429.662	7761.29
429.869	7091.6
430.076	7757.19
430.284	7515.53
430.491	7841.16
430.699	8306.05
430.906	8320.39
431.114	8502.65
431.321	8779.13
431.528	8949.11
431.736	9377.14
431.943	10036.58
432.15	9467.25
432.358	9860.46
432.565	10446.18
432.772	10521.95
432.979	10802.52
433.187	11005.27
433.394	10900.83
433.601	11685.2
433.808	11738.44
434.016	11586.9
434.223	12309.83
434.43	12916.03
434.637	12672.32
434.844	13477.17
435.052	13948.2
435.259	13704.49
435.466	13647.15
435.673	13737.26
435.88	14456.1
436.087	15170.84
436.294	15430.93
436.501	15002.91
436.708	15224.09
436.915	15650.07
437.122	16723.2
437.329	16391.43
437.537	17095.93
437.743	17530.1
437.95	17083.64
438.157	18058.48
438.364	18742.5
438.571	18531.56
438.778	18695.39
438.985	20395.21
439.192	19721.43
439.399	20368.59
439.606	19895.5
439.813	21302.46
440.02	22297.77
440.227	22138.03
440.433	21961.9
440.64	22803.62
440.847	22293.68
441.054	22795.43
441.261	24018.07
441.467	23760.02
441.674	24456.33
441.881	25472.12
442.088	25508.99
442.294	25226.37
442.501	25506.94
442.708	26254.45
442.914	27329.63
443.121	28220.5
443.328	28218.45
443.534	29832.25
443.741	28945.48
443.948	28601.42
444.154	30592.05
444.361	30483.5
444.568	30651.44
444.774	30383.15
444.981	30907.43
445.187	31732.76
445.394	33137.67
445.6	32574.48
445.807	35949.53
446.013	34511.86
446.22	35079.14
446.426	36232.15
446.633	36674.51
446.839	37723.07
447.046	36391.89
447.252	38323.13
447.459	38693.81
447.665	38124.47
447.871	39916.45
448.078	41632.64
448.284	39449.51
448.491	40799.12
448.697	42300.28
448.903	42881.91
449.11	43010.93
449.316	42527.61
449.522	43207.53
449.728	44374.87
449.935	44620.63
450.141	44571.48
450.347	46293.82
450.553	44211.04
450.76	44895.06
450.966	46246.72
451.172	45882.18
451.378	47000.37
451.584	46277.44
451.791	47045.43
451.997	46809.91
452.203	48225.06
452.409	47590.19
452.615	47538.99
452.821	46093.12
453.027	45353.8
453.233	47571.75
453.44	45970.24
453.646	46490.43
453.852	46717.75
454.058	47350.57
454.264	45937.48
454.47	47192.88
454.676	45159.25
454.882	46889.78
455.088	43213.68
455.294	43750.24
455.5	45001.55
455.705	44985.17
455.911	43520.87
456.117	42328.95
456.323	42240.89
456.529	39492.52
456.735	41565.06
456.941	40522.65
457.147	39654.31
457.352	38462.39
457.558	38349.75
457.764	38011.84
457.97	37364.68
458.176	36705.23
458.381	36969.42
458.587	34810.86
458.793	34812.91
458.999	33143.81
459.204	35515.36
459.41	34675.69
459.616	32418.83
459.821	32351.25
460.027	32314.39
460.233	31431.71
460.438	29727.8
460.644	30381.1
460.85	29045.83
461.055	28423.25
461.261	28525.64
461.466	26283.12
461.672	25379.96
461.878	27368.54
462.083	25384.06
462.289	24933.51
462.494	24360.08
462.7	23633.05
462.905	23186.59
463.111	23659.67
463.316	24120.46
463.522	23264.41
463.727	23839.89
463.932	23428.25
464.138	23217.31
464.343	23547.03
464.549	22598.82
464.754	23467.16
464.959	23291.04
465.165	22998.18
465.37	22076.59
465.575	21388.47
465.781	22398.12
465.986	22486.18
466.191	21574.84
466.397	21232.83
466.602	20167.88
466.807	21109.95
467.012	20894.91
467.218	20862.15
467.423	20522.18
467.628	20819.14
467.833	21384.38
468.038	20835.52
468.244	20059.34
468.449	20856
468.654	19918.03
468.859	20255.95
469.064	19901.65
469.269	19373.27
469.474	19680.47
469.679	19891.41
469.885	19533.01
470.09	19592.41
470.295	19311.83
470.5	18967.77
470.705	18994.4
470.91	18713.83
471.115	18523.37
471.32	18670.82
471.525	18644.2
471.73	18019.57
471.935	18095.34
472.139	17587.44
472.344	17747.19
472.549	17618.16
472.754	17521.91
472.959	17044.73
473.164	16766.21
473.369	16547.08
473.574	17177.85
473.778	17104.12
473.983	16375.05
474.188	16704.77
474.393	15680.78
474.598	16018.7
474.802	15873.29
475.007	15762.7
475.212	15596.82
475.417	15150.36
475.621	15326.49
475.826	15127.83
476.031	14761.25
476.235	14640.42
476.44	14726.43
476.645	14613.79
476.849	14660.9
477.054	14501.15
477.259	14159.14
477.463	14036.27
477.668	13913.39
477.872	14054.7
478.077	13819.18
478.282	13413.68
478.486	13391.16
478.691	13276.47
478.895	13253.94
479.1	13266.23
479.304	13239.61
479.509	12758.33
479.713	13137.21
479.918	12770.62
480.122	12625.22
480.326	12965.18
480.531	12547.39
480.735	12588.35
480.94	12365.12
481.144	12823.87
481.348	12195.14
481.553	12279.11
481.757	12076.36
481.961	12537.15
482.166	12574.02
482.37	12279.11
482.574	12051.78
482.778	12328.26
482.983	12561.73
483.187	12426.56
483.391	12512.58
483.595	12236.1
483.8	12260.68
484.004	12113.22
484.208	12381.51
484.412	12129.61
484.616	12342.6
484.821	12244.29
485.025	11918.67
485.229	12473.67
485.433	12182.85
485.637	12352.84
485.841	12182.85
486.045	12094.79
486.249	12221.77
486.453	12166.47
486.657	12295.49
486.861	12252.49
487.065	11861.32
487.269	12123.46
487.473	11978.06
487.677	12289.35
487.881	12369.22
488.085	12121.42
488.289	12213.57
488.493	12125.51
488.697	12385.6
488.901	12342.6
489.105	12426.56
489.309	12375.36
489.512	12377.41
489.716	12471.62
489.92	12315.97
490.124	12350.79
490.328	12539.2
490.531	12410.18
490.735	12647.74
490.939	12639.55
491.143	12543.3
491.346	12711.23
491.55	12875.07
491.754	12827.96
491.958	12623.17
492.161	12725.57
492.365	12877.12
492.569	12932.41
492.772	12850.49
492.976	12999.99
493.18	12995.9
493.383	13405.49
493.587	13335.86
493.79	13405.49
493.994	13120.82
494.197	13206.84
494.401	13251.89
494.605	13540.66
494.808	13688.11
495.012	13866.28
495.215	13761.84
495.419	14173.48
495.622	13690.16
495.825	14011.69
496.029	14040.36
496.232	14302.5
496.436	14247.21
496.639	14660.9
496.843	14486.82
497.046	14896.41
497.249	14927.13
497.453	15148.31
497.656	15275.29
497.859	15086.87
498.063	15467.8
498.266	16002.32
498.469	15861.01
498.673	15942.92
498.876	16006.41
499.079	16352.52
499.282	16114.95
499.485	16475.4
499.689	16774.4
499.892	17003.77
500.095	16884.99
500.298	17177.85
500.501	17200.38
500.705	17736.95
500.908	17935.6
501.111	18035.95
501.314	18152.68
501.517	18289.9
501.72	18894.05
501.923	18816.22
502.126	19137.76
502.329	19285.21
502.532	19344.6
502.735	19608.79
502.938	19809.49
503.141	19948.75
503.344	20165.84
503.547	20432.07
503.75	20565.19
503.953	21134.53
504.156	20960.45
504.359	21388.47
504.562	21275.84
504.765	21580.98
504.968	21798.07
505.17	22246.57
505.373	22172.85
505.576	22531.24
505.779	22645.93
505.982	22975.65
506.185	23583.9
506.387	23659.67
506.59	23516.31
506.793	24577.16
506.996	23821.46
507.198	24626.31
507.401	24730.76
507.604	24855.68
507.807	25300.09
508.009	25269.37
508.212	25513.08
508.415	26129.52
508.617	26334.32
508.82	26373.23
509.022	26213.49
509.225	27008.1
509.428	27163.75
509.63	27395.17
509.833	27544.67
510.035	27839.58
510.238	27593.82
510.44	28478.54
510.643	28681.29
510.845	29238.34
511.048	29031.49
511.25	29113.41
511.453	29512.77
511.655	30503.98
511.858	30213.17
512.06	30309.43
512.262	30639.15
512.465	30575.66
512.667	31274.02
512.87	31464.48
513.072	31511.58
513.274	32218.13
513.477	32195.6
513.679	32918.54
513.881	32961.55
514.084	33207.3
514.286	33391.62
514.488	33403.91
514.69	34268.15
514.893	34235.38
515.095	34819.05
515.297	34767.85
515.499	35273.7
515.701	35566.56
515.904	35564.51
516.106	36019.16
516.308	36271.06
516.51	36150.23
516.712	36705.23
516.914	37133.26
517.116	37964.73
517.318	37612.48
517.52	37759.94
517.722	37649.35
517.925	38204.35
518.127	38898.61
518.329	39181.23
518.531	38853.55
518.733	39783.33
518.935	39951.26
519.136	40070.04
519.338	40543.13
519.54	40483.73
519.742	41253.77
519.944	41051.02
520.146	41634.69
520.348	42359.67
520.55	41982.85
520.752	42134.4
520.954	43279.21
521.155	42337.15
521.357	43191.15
521.559	43475.82
521.761	44055.39
521.963	44030.82
522.164	43791.2
522.366	44106.59
522.568	44354.4
522.77	44706.65
522.971	45978.43
523.173	45652.81
523.375	46162.75
523.576	45726.53
523.778	46152.51
523.98	46525.24
524.181	47067.95
524.383	46349.12
524.584	47530.79
524.786	47098.67
524.988	47043.38
525.189	47436.59
525.391	47934.24
525.592	47995.68
525.794	47815.46
525.995	48190.24
526.197	48585.5
526.398	48368.41
526.6	49152.79
526.801	48870.17
527.003	49181.46
527.204	49052.44
527.406	49416.97
527.607	49359.63
527.808	50215.68
528.01	49081.11
528.211	49627.91
528.412	50336.51
528.614	50348.8
528.815	49711.88
529.016	50848.5
529.218	50250.5
529.419	50594.56
529.62	50361.09
529.822	50531.07
530.023	50727.67
530.224	50625.28
530.425	50443.01
530.626	50055.94
530.828	50490.11
531.029	51495.66
531.23	50606.84
531.431	51163.89
531.632	50975.48
531.833	51327.73
532.035	51407.6
532.236	51530.48
532.437	51491.57
532.638	51075.83
532.839	51413.74
533.04	51835.63
533.241	51124.98
533.442	52136.68
533.643	51436.27
533.844	51391.22
534.045	51284.72
534.246	51034.87
534.447	51712.75
534.648	51358.45
534.849	51456.75
535.05	51249.91
535.251	51688.17
535.451	51641.07
535.652	51913.45
535.853	51305.2
536.054	51692.27
536.255	51516.14
536.456	51393.26
536.657	52304.61
536.857	51532.53
537.058	51520.24
537.259	51825.39
537.46	51829.48
537.66	51340.02
537.861	51735.27
538.062	51667.69
538.263	51706.6
538.463	50991.86
538.664	51682.03
538.865	51821.29
539.065	51901.16
539.266	51317.49
539.466	51612.4
539.667	51237.62
539.868	51786.47
540.068	51473.13
540.269	51233.52
540.469	51931.88
540.67	51497.71
540.87	51546.86
541.071	51768.04
541.271	51600.11
541.472	51348.21
541.672	50858.74
541.873	51167.99
542.073	50952.95
542.274	51645.16
542.474	51372.78
542.675	50987.77
542.875	51682.03
543.075	51163.89
543.276	51028.73
543.476	51856.1
543.676	50762.49
543.877	51108.6
544.077	50930.42
544.277	50889.46
544.478	51036.92
544.678	51438.32
544.878	51170.04
545.078	51389.17
545.279	50858.74
545.479	50653.95
545.679	51188.47
545.879	51063.54
546.079	50641.66
546.28	51163.89
546.48	50938.61
546.68	51084.02
546.88	50907.9
547.08	50754.3
547.28	50950.9
547.48	50926.33
547.68	50795.26
547.88	50737.91
548.081	51086.07
548.281	50803.45
548.481	50774.78
548.681	51186.42
548.881	51350.26
549.081	50375.42
549.28	50760.44
549.48	50516.73
549.68	50449.15
549.88	51356.4
550.08	50490.11
550.28	50670.33
550.48	50395.9
550.68	51210.99
550.88	50670.33
551.08	50461.44
551.279	50821.88
551.479	50160.39
551.679	50666.23
551.879	50209.54
552.079	50946.81
552.278	50154.24
552.478	50559.74
552.678	50420.48
552.878	50653.95
553.077	50569.98
553.277	50010.88
553.477	51210.99
553.676	50176.77
553.876	50244.35
554.076	50023.17
554.275	49955.59
554.475	49922.82
554.674	50244.35
554.874	50318.08
555.074	49629.96
555.273	50164.48
555.473	50598.65
555.672	49523.47
555.872	49853.19
556.071	49859.34
556.271	50187.01
556.47	49904.39
556.67	49711.88
556.869	49859.34
557.068	49799.94
557.268	49177.36
557.467	49484.56
557.667	49672.97
557.866	49437.45
558.065	49609.48
558.265	49453.84
558.464	49406.73
558.663	49849.1
558.863	48821.02
559.062	49826.57
559.261	48935.7
559.461	49382.16
559.66	48898.84
559.859	49150.74
560.058	49160.98
560.258	48890.65
560.457	48519.96
560.656	49302.29
560.855	48757.53
561.054	49226.51
561.253	48374.56
561.453	48747.29
561.652	48839.45
561.851	48728.86
562.05	48333.6
562.249	48177.95
562.448	49060.63
562.647	48210.72
562.846	47952.68
563.045	48251.68
563.244	48038.69
563.443	48593.69
563.642	47518.51
563.841	47991.59
564.04	47715.11
564.239	48038.69
564.438	47688.49
564.637	47921.96
564.836	48081.7
565.035	46902.07
565.234	47745.83
565.432	47594.28
565.631	47610.67
565.83	47973.16
566.029	47233.84
566.228	47076.15
566.427	46934.84
566.625	46609.21
566.824	46515
567.023	47057.71
567.222	45867.84
567.42	46979.89
567.619	46740.28
567.818	46383.93
568.016	46367.55
568.215	46850.87
568.414	46463.8
568.612	46392.12
568.811	46639.93
569.01	46271.29
569.208	45488.97
569.407	45980.48
569.605	45187.92
569.804	46295.87
570.002	45599.56
570.201	45957.95
570.4	44870.48
570.598	45531.98
570.797	44995.41
570.995	45423.43
571.193	44587.86
571.392	45294.41
571.59	44968.79
571.789	44749.65
571.987	44772.18
572.186	45042.51
572.384	44743.51
572.582	44639.06
572.781	44788.56
572.979	44059.49
573.177	44522.33
573.376	44493.66
573.574	44096.35
573.772	44577.62
573.971	43864.93
574.169	43858.79
574.367	43598.69
574.565	43971.43
574.763	43826.02
574.962	43488.1
575.16	43051.89
575.358	43361.13
575.556	42472.31
575.754	43668.33
575.952	42926.96
576.151	43176.81
576.349	43076.46
576.547	42984.3
576.745	42595.19
576.943	42550.13
577.141	42888.05
577.339	42466.17
577.537	42511.22
577.735	42519.42
577.933	42267.52
578.131	42134.4
578.329	42128.25
578.527	41499.53
578.725	42218.36
578.923	41606.02
579.121	41765.76
579.319	41841.54
579.516	41827.2
579.714	41569.16
579.912	41352.07
580.11	41005.97
580.308	41345.93
580.506	41087.89
580.704	40569.75
580.901	40633.24
581.099	41450.38
581.297	40924.05
581.495	40819.6
581.692	41053.07
581.89	40393.62
582.088	40659.86
582.285	40360.86
582.483	40340.38
582.681	40520.6
582.878	40323.99
583.076	40104.86
583.274	40223.64
583.471	39537.57
583.669	39816.1
583.866	39510.95
584.064	39926.69
584.262	39300.01
584.459	39340.97
584.657	39222.19
584.854	39351.21
585.052	38726.58
585.249	38996.91
585.447	39158.7
585.644	38474.68
585.841	38906.8
586.039	39087.02
586.236	38599.6
586.434	38103.99
586.631	38288.31
586.828	38335.42
587.026	38323.13
587.223	38071.23
587.42	37796.8
587.618	37796.8
587.815	37276.62
588.012	37309.38
588.21	37370.82
588.407	37323.72
588.604	37063.63
588.801	37366.73
588.999	37092.3
589.196	37186.5
589.393	37127.11
589.59	36862.93
589.787	36422.61
589.984	36232.15
590.182	35908.57
590.379	36492.24
590.576	36113.37
590.773	36281.3
590.97	35963.87
591.167	36381.65
591.364	35650.53
591.561	35810.27
591.758	35636.19
591.955	35857.37
592.152	36021.21
592.349	35494.88
592.546	35562.47
592.743	35494.88
592.94	34878.44
593.137	34874.35
593.334	35535.84
593.531	34737.13
593.727	35066.86
593.924	34716.65
594.121	34530.29
594.318	34579.44
594.515	34085.88
594.712	34747.37
594.908	34196.47
595.105	34192.37
595.302	33803.26
595.499	34063.35
595.696	33805.31
595.892	33799.16
596.089	33688.57
596.286	33592.32
596.482	33434.63
596.679	33174.53
596.876	33545.22
597.072	33025.03
597.269	33170.44
597.466	33192.97
597.662	32580.62
597.859	32926.73
598.055	32936.97
598.252	32547.86
598.448	32867.34
598.645	32758.8
598.841	31904.79
599.038	32021.53
599.234	32101.4
599.431	31726.62
599.627	32027.67
599.824	31980.57
600.02	31618.08
600.217	31659.04
600.413	31163.43
600.609	31214.63
600.806	31654.94
601.002	31675.42
601.198	30807.08
601.395	30946.34
601.591	30950.44
601.787	30897.19
601.984	30608.43
602.18	30848.04
602.376	30854.19
602.572	30759.98
602.769	30497.84
602.965	30395.44
603.161	30280.75
603.357	30116.92
603.553	29928.5
603.75	30139.44
603.946	29901.88
604.142	30051.38
604.338	29629.5
604.534	29684.8
604.73	29520.96
604.926	29289.54
605.122	29748.28
605.318	29449.28
605.514	29195.33
605.71	29144.13
605.906	29164.61
606.102	29180.99
606.298	29273.15
606.494	29226.05
606.69	28769.35
606.886	29269.06
607.082	28591.18
607.278	28499.02
607.474	28562.51
607.67	28595.28
607.866	28558.41
608.062	28974.15
608.257	28634.19
608.453	28705.87
608.649	28236.88
608.845	27993.17
609.041	28273.74
609.236	28034.13
609.432	28144.72
609.628	27925.59
609.824	27892.82
610.019	27980.89
610.215	28150.87
610.411	28050.52
610.606	27765.85
610.802	27761.75
610.998	27741.27
611.193	27769.94
611.389	27042.92
611.584	27511.9
611.78	27208.8
611.976	27513.95
612.171	27323.49
612.367	27577.44
612.562	27298.91
612.758	26825.83
612.953	26917.99
613.149	27085.92
613.344	26840.17
613.539	27180.13
613.735	27092.07
613.93	26848.36
614.126	26928.23
614.321	27071.59
614.517	26799.21
614.712	26754.15
614.907	26539.12
615.103	26879.08
615.298	26473.58
615.493	26805.35
615.688	26283.12
615.884	26688.62
616.079	25975.92
616.274	26459.24
616.47	25957.49
616.665	26258.54
616.86	26033.27
617.055	26039.41
617.25	26012.79
617.445	26340.46
617.641	25416.83
617.836	25994.36
618.031	25668.73
618.226	25969.78
618.421	25613.43
618.616	25707.64
618.811	25130.11
619.006	25894
619.201	25177.22
619.396	25525.37
619.591	24913.03
619.786	25220.22
619.981	24650.89
620.176	24951.94
620.371	24630.41
620.566	24788.1
620.761	24413.32
620.956	24779.91
621.151	24077.46
621.346	24007.83
621.541	24040.59
621.735	24104.08
621.93	23739.54
622.125	23657.62
622.32	23458.97
622.515	23674.01
622.709	23239.84
622.904	23495.83
623.099	22977.7
623.294	23452.83
623.488	22848.68
623.683	23051.42
623.878	22539.43
624.072	22521
624.267	22445.23
624.462	22588.58
624.656	21966
624.851	22281.39
625.046	21869.75
625.24	21886.13
625.435	21507.26
625.629	21832.88
625.824	21507.26
626.018	21621.94
626.213	21083.33
626.407	21255.36
626.602	20776.13
626.796	21126.33
626.991	20980.93
627.185	21079.23
627.38	20694.21
627.574	20464.84
627.768	20479.18
627.963	20356.3
628.157	20083.92
628.352	20188.36
628.546	19834.07
628.74	19940.56
628.935	19950.8
629.129	19897.55
629.323	19651.8
629.517	19500.25
629.712	19430.62
629.906	19438.81
630.1	19256.54
630.294	19107.04
630.489	18799.84
630.683	18984.16
630.877	18877.66
631.071	18650.34
631.265	18676.96
631.459	18615.52
631.653	18461.93
631.848	18437.35
632.042	18162.92
632.236	18341.1
632.43	17947.89
632.624	18109.68
632.818	17782
633.012	17536.24
633.206	17569.01
633.4	17544.44
633.594	17683.7
633.788	17503.48
633.982	17302.78
634.176	17370.36
634.369	17202.43
634.563	17255.67
634.757	17079.55
634.951	17106.17
635.145	16911.61
635.339	17073.4
635.533	16399.62
635.726	16665.86
635.92	16481.54
636.114	16690.43
636.308	16237.83
636.501	16514.31
636.695	16254.22
636.889	16045.32
637.083	15791.38
637.276	15877.39
637.47	15768.85
637.664	15791.38
637.857	15766.8
638.051	15535.38
638.244	15439.12
638.438	15260.95
638.632	15144.22
638.825	15377.69
639.019	15191.32
639.212	15097.11
639.406	14992.67
639.599	15066.39
639.793	15070.49
639.986	14748.96
640.18	14658.85
640.373	14738.72
640.567	14292.26
640.76	14570.79
640.954	14562.59
641.147	14384.42
641.34	14105.9
641.534	14378.28
641.727	14239.01
641.92	14249.25
642.114	14306.6
642.307	14079.27
642.5	14066.99
642.694	13765.93
642.887	13735.21
643.08	13716.78
643.273	13630.77
643.467	13421.88
643.66	13208.89
643.853	13446.45
644.046	13194.55
644.239	13176.12
644.432	12875.07
644.626	12895.55
644.819	12944.7
645.012	12930.36
645.205	13032.76
645.398	12803.39
645.591	12676.41
645.784	12614.98
645.977	12571.97
646.17	12680.51
646.363	12246.34
646.556	12299.59
646.749	12334.4
646.942	12371.27
647.135	12186.95
647.328	12176.71
647.521	12041.54
647.714	12166.47
647.907	12156.23
648.099	11836.75
648.292	12135.75
648.485	12008.78
648.678	11812.17
648.871	11728.21
649.064	11664.72
649.256	11703.63
649.449	11318.61
649.642	11572.56
649.835	11361.62
650.027	11251.03
650.22	11339.09
650.413	11214.16
650.605	11183.45
650.798	11152.73
650.991	10935.64
651.183	11066.71
651.376	10765.66
651.568	11089.24
651.761	10659.17
651.954	10775.9
652.146	10773.85
652.339	10777.95
652.531	10876.25
652.724	10638.69
652.916	10462.56
653.109	10470.75
653.301	10462.56
653.494	10329.44
653.686	10157.41
653.879	10220.9
654.071	10237.28
654.263	10057.06
654.456	10030.44
654.648	10040.68
654.84	9760.11
655.033	9893.23
655.225	9952.62
655.417	9598.32
655.61	9710.96
655.802	9780.59
655.994	9631.09
656.186	9723.24
656.379	9661.8
656.571	9497.97
656.763	9414
656.955	9540.97
657.148	9401.71
657.34	9405.81
657.532	9190.77
657.724	9262.45
657.916	9168.24
658.108	9203.06
658.3	9043.32
658.492	9086.33
658.684	9094.52
658.876	8877.43
659.068	9053.56
659.26	8873.34
659.452	8715.64
659.644	8893.82
659.836	8775.03
660.028	8762.75
660.22	8574.33
660.412	8605.05
660.604	8463.74
660.796	8543.61
660.988	8457.6
661.18	8351.1
661.372	8332.67
661.563	8369.54
661.755	8187.27
661.947	8394.11
662.139	8340.86
662.331	8072.58
662.522	7986.57
662.714	8285.57
662.906	8029.57
663.097	8084.87
663.289	7859.59
663.481	7921.03
663.673	7835.02
663.864	7855.5
664.056	7804.3
664.247	7732.62
664.439	7456.14
664.631	7882.12
664.822	7701.9
665.014	7591.31
665.205	7693.71
665.397	7425.42
665.588	7619.98
665.78	7466.38
665.971	7333.26
666.163	7538.06
666.354	7355.79
666.546	7478.67
666.737	7288.21
666.929	7284.11
667.12	7335.31
667.311	7208.34
667.503	7204.24
667.694	7181.71
667.885	7157.14
668.077	7189.91
668.268	6933.91
668.459	7036.31
668.651	6895
668.842	6940.05
669.033	6710.68
669.224	6688.15
669.416	6962.58
669.607	6718.87
669.798	6692.25
669.989	6677.91
670.18	6643.1
670.371	6698.39
670.563	6604.19
670.754	6718.87
670.945	6802.84
671.136	6712.73
671.327	6460.83
671.518	6522.27
671.709	6401.44
671.9	6585.76
672.091	6311.33
672.282	6335.9
672.473	6215.07
672.664	6313.38
672.855	6253.98
673.046	6387.1
673.237	5987.75
673.428	6323.62
673.619	6380.96
673.809	6141.35
674	6288.8
674.191	6176.16
674.382	6069.67
674.573	6272.42
674.764	6079.91
674.954	6180.26
675.145	6075.81
675.336	5969.32
675.527	6041
675.717	6069.67
675.908	6055.33
676.099	6012.32
676.289	5866.92
676.48	5838.25
676.671	5744.04
676.861	5891.49
677.052	5858.73
677.243	5776.81
677.433	5737.9
677.624	5840.29
677.814	5674.41
678.005	5768.62
678.195	5864.87
678.386	5741.99
678.576	5690.79
678.767	5754.28
678.957	5733.8
679.148	5715.37
679.338	5598.63
679.529	5524.91
679.719	5674.41
679.909	5557.68
680.1	5449.13
680.29	5475.76
680.481	5377.45
680.671	5549.48
680.861	5492.14
681.052	5469.61
681.242	5543.34
681.432	5469.61
681.622	5576.11
681.813	5533.1
682.003	5545.39
682.193	5328.3
682.383	5434.8
682.573	5455.28
682.764	5195.18
682.954	5324.21
683.144	5424.56
683.334	5268.91
683.524	5277.1
683.714	5541.29
683.904	5348.78
684.094	5324.21
684.284	5217.71
684.474	5234.1
684.664	5285.3
684.854	5195.18
685.044	5111.22
685.234	5027.25
685.424	5240.24
685.614	5019.06
685.804	5078.45
685.994	4978.1
686.184	5117.36
686.374	5088.69
686.564	5109.17
686.753	5041.59
686.943	4961.72
687.133	4933.04
687.323	4828.6
687.513	4838.84
687.702	4928.95
687.892	4769.21
688.082	4881.85
688.272	4916.66
688.461	4779.45
688.651	4951.48
688.841	4754.87
689.03	4748.73
689.22	4675
689.41	4677.05
689.599	4675
689.789	4582.84
689.979	4623.8
690.168	4720.06
690.358	4470.2
690.547	4449.72
690.737	4545.98
690.926	4580.79
691.116	4359.61
691.305	4533.69
691.495	4421.05
691.684	4394.43
691.874	4455.87
692.063	4332.99
692.252	4412.86
692.442	4439.48
692.631	4289.98
692.82	4394.43
693.01	4230.59
693.199	4310.46
693.388	4316.61
693.578	4177.34
693.767	4347.33
693.956	4177.34
694.146	4152.77
694.335	4113.86
694.524	4011.46
694.713	4101.57
694.902	4105.67
695.092	4160.96
695.281	4011.46
695.47	4087.23
695.659	4036.03
695.848	3986.88
696.037	3866.05
696.226	4017.6
696.415	3769.8
696.604	4044.23
696.793	3868.1
696.982	3947.97
697.171	3888.58
697.36	3978.69
697.549	3915.2
697.738	3810.76
697.927	3888.58
698.116	3917.25
698.305	3853.77
698.494	3765.7
698.683	3558.86
698.872	3866.05
699.061	3579.34
699.25	3773.89
699.438	3917.25
699.627	3718.6
699.816	3775.94
700.005	3724.74
700.193	3753.41
700.382	3743.17
700.571	3737.03
700.76	3632.58
700.948	3698.12
701.137	3636.68
701.326	3687.88
701.514	3675.59
701.703	3575.24
701.892	3513.8
702.08	3501.51
702.269	3616.2
702.457	3622.34
702.646	3591.63
702.834	3444.17
703.023	3546.57
703.212	3569.1
703.4	3585.48
703.589	3573.19
703.777	3569.1
703.965	3528.14
704.154	3567.05
704.342	3505.61
704.531	3565
704.719	3413.45
704.907	3521.99
705.096	3597.77
705.284	3497.42
705.472	3507.66
705.661	3560.91
705.849	3589.58
706.037	3450.32
706.226	3468.75
706.414	3452.36
706.602	3431.88
706.79	3591.63
706.979	3403.21
707.167	3374.54
707.355	3403.21
707.543	3429.84
707.731	3524.04
707.919	3419.6
708.107	3403.21
708.296	3341.77
708.484	3435.98
708.672	3472.84
708.86	3331.53
709.048	3370.44
709.236	3395.02
709.424	3425.74
709.612	3362.25
709.8	3411.4
709.988	3390.92
710.176	3478.99
710.364	3364.3
710.551	3358.16
710.739	3337.68
710.927	3343.82
711.115	3352.01
711.303	3323.34
711.491	3356.11
711.679	3292.62
711.866	3335.63
712.054	3354.06
712.242	3284.43
712.43	3362.25
712.617	3450.32
712.805	3364.3
712.993	3395.02
713.181	3087.82
713.368	3407.31
713.556	3392.97
713.744	3173.84
713.931	3491.27
714.119	3306.96
714.306	3339.73
714.494	3343.82
714.682	3233.23
714.869	3206.61
715.057	3374.54
715.244	3192.27
715.432	3380.68
715.619	3155.41
715.807	3147.22
715.994	3198.42
716.182	3124.69
716.369	3198.42
716.556	3288.53
716.744	3136.98
716.931	3050.96
717.119	3173.84
717.306	3120.59
717.493	3284.43
717.681	3204.56
717.868	3243.47
718.055	3272.14
718.242	3198.42
718.43	3065.3
718.617	3177.94
718.804	3229.13
718.991	3214.8
719.179	3259.85
719.366	3120.59
719.553	3155.41
719.74	3157.46
719.927	3145.17
720.114	3169.74
720.301	3093.97
720.488	3153.36
720.676	3179.98
720.863	3202.51
721.05	3245.52
721.237	3261.9
721.424	3204.56
721.611	3184.08
721.798	3026.39
721.985	3141.07
722.172	3116.5
722.358	3134.93
722.545	3235.28
722.732	3093.97
722.919	3208.66
723.106	3108.3
723.293	3216.85
723.48	2948.56
723.667	3063.25
723.853	3159.5
724.04	3149.26
724.227	3055.06
724.414	3093.97
724.6	3216.85
724.787	3124.69
724.974	3108.3
725.161	3079.63
725.347	2987.47
725.534	3259.85
725.72	3227.09
725.907	3116.5
726.094	3030.48
726.28	3104.21
726.467	3139.02
726.653	3161.55
726.84	3155.41
727.027	3227.09
727.213	3091.92
727.4	3102.16
727.586	3091.92
727.773	3190.22
727.959	3122.64
728.145	3046.87
728.332	3141.07
728.518	2991.57
728.705	3085.78
728.891	3098.06
729.077	3100.11
729.264	3038.67
729.45	3087.82
729.636	3147.22
729.823	3134.93
730.009	3155.41
730.195	3157.46
730.382	3167.7
730.568	3091.92
730.754	3136.98
730.94	3024.34
731.126	3171.79
731.313	3100.11
731.499	3108.3
731.685	3106.26
731.871	2995.67
732.057	3089.87
732.243	3179.98
732.429	3053.01
732.615	3114.45
732.801	3253.71
732.987	3038.67
733.173	3034.58
733.359	2995.67
733.545	3096.02
733.731	3024.34
733.917	3079.63
734.103	3247.57
734.289	3085.78
734.475	2997.71
734.661	3161.55
734.847	3163.6
735.033	3255.76
735.219	3110.35
735.404	3087.82
735.59	3091.92
735.776	3012.05
735.962	3171.79
736.148	3165.65
736.333	3141.07
736.519	3087.82
736.705	3114.45
736.89	3153.36
737.076	3098.06
737.262	3157.46
737.447	3077.59
737.633	3073.49
737.819	3153.36
738.004	3175.89
738.19	2997.71
738.375	3122.64
738.561	3173.84
738.747	3124.69
738.932	3046.87
739.118	3104.21
739.303	3012.05
739.489	3114.45
739.674	3065.3
739.859	3042.77
740.045	3046.87
740.23	3114.45
740.416	3081.68
740.601	3091.92
740.786	2997.71
740.972	3085.78
741.157	3069.39
741.342	2940.37
741.528	3057.11
741.713	3038.67
741.898	3003.86
742.084	2983.38
742.269	2987.47
742.454	2903.51
742.639	3069.39
742.824	3110.35
743.01	2964.95
743.195	2991.57
743.38	2928.08
743.565	2936.28
743.75	3057.11
743.935	2946.52
744.12	2944.47
744.305	2870.74
744.49	2899.41
744.675	2923.99
744.86	2969.04
745.045	2895.32
745.23	2930.13
745.415	2909.65
745.6	2905.56
745.785	2819.54
745.97	2870.74
746.155	2870.74
746.34	2790.87
746.525	2741.72
746.71	2840.02
746.895	2868.69
747.079	2848.21
747.264	2829.78
747.449	2772.44
747.634	2788.82
747.819	2743.77
748.003	2672.09
748.188	2641.37
748.373	2645.46
748.557	2723.29
748.742	2641.37
748.927	2616.79
749.111	2682.33
749.296	2688.47
749.481	2680.28
749.665	2717.14
749.85	2567.64
750.034	2551.26
750.219	2590.17
750.404	2665.94
750.588	2500.06
750.773	2549.21
750.957	2450.91
751.141	2534.87
751.326	2393.56
751.51	2545.11
751.695	2422.24
751.879	2442.71
752.064	2387.42
752.248	2500.06
752.432	2446.81
752.617	2461.15
752.801	2371.04
752.985	2440.67
753.17	2321.88
753.354	2356.7
753.538	2203.1
753.722	2346.46
753.907	2301.4
754.091	2254.3
754.275	2244.06
754.459	2291.17
754.643	2194.91
754.828	2217.44
755.012	2190.81
755.196	2141.66
755.38	2158.05
755.564	2156
755.748	2188.77
755.932	2143.71
756.116	1986.02
756.3	2149.86
756.484	1994.21
756.668	2153.95
756.852	2024.93
757.036	2115.04
757.22	2051.55
757.404	2063.84
757.588	2037.22
757.772	1857
757.956	2051.55
758.14	1945.06
758.323	1955.3
758.507	1906.15
758.691	1844.71
758.875	1857
759.059	1822.18
759.242	1799.65
759.426	1922.53
759.61	1836.52
759.794	1846.76
759.977	1887.72
760.161	1889.76
760.345	1877.48
760.528	1986.02
760.712	1820.13
760.895	1857
761.079	1824.23
761.263	1777.12
761.446	1693.16
761.63	1793.51
761.813	1883.62
761.997	1818.08
762.18	1789.41
762.364	1752.55
762.547	1723.88
762.731	1719.78
762.914	1721.83
763.098	1738.21
763.281	1644.01
763.464	1656.29
763.648	1650.15
763.831	1707.49
764.015	1629.67
764.198	1668.58
764.381	1621.48
764.564	1596.9
764.748	1670.63
764.931	1586.66
765.114	1615.34
765.297	1650.15
765.481	1564.14
765.664	1598.95
765.847	1650.15
766.03	1545.7
766.213	1523.18
766.397	1553.9
766.58	1629.67
766.763	1576.42
766.946	1543.66
767.129	1574.38
767.312	1457.64
767.495	1537.51
767.678	1533.42
767.861	1514.98
768.044	1469.93
768.227	1523.18
768.41	1496.55
768.593	1529.32
768.776	1424.87
768.959	1428.97
769.142	1564.14
769.324	1406.44
769.507	1463.79
769.69	1392.11
769.873	1324.52
770.056	1433.07
770.239	1461.74
770.421	1482.22
770.604	1381.87
770.787	1371.63
770.97	1402.35
771.152	1363.44
771.335	1431.02
771.518	1342.96
771.7	1392.11
771.883	1338.86
772.066	1332.72
772.248	1398.25
772.431	1385.96
772.613	1299.95
772.796	1353.2
772.978	1435.11
773.161	1324.52
773.343	1297.9
773.526	1197.55
773.708	1228.27
773.891	1302
774.073	1254.89
774.256	1168.88
774.438	1283.56
774.621	1218.03
774.803	1281.52
774.985	1168.88
775.168	1306.09
775.35	1154.54
775.532	1076.72
775.715	1201.65
775.897	1213.93
776.079	1213.93
776.261	1121.77
776.444	1119.73
776.626	1187.31
776.808	1183.21
776.99	1177.07
777.173	1146.35
777.355	1127.92
777.537	1146.35
777.719	1023.47
777.901	1111.54
778.083	1074.67
778.265	1007.09
778.447	1037.81
778.629	982.51
778.811	1037.81
778.993	1142.25
779.175	1021.42
779.357	945.65
779.539	998.9
779.721	976.37
779.903	1019.38
780.085	894.45
780.267	1015.28
780.449	980.47
780.631	945.65
780.812	1025.52
780.994	919.03
781.176	863.73
781.358	962.03
781.54	906.74
781.721	892.4
781.903	902.64
782.085	1017.33
782.267	896.5
782.448	851.44
782.63	894.45
782.812	835.06
782.993	886.26
783.175	910.83
783.357	835.06
783.538	833.01
783.72	818.68
783.901	839.16
784.083	878.07
784.264	880.11
784.446	804.34
784.627	755.19
784.809	777.72
784.99	724.47
785.172	728.56
785.353	728.56
785.535	796.15
785.716	765.43
785.897	722.42
786.079	607.73
786.26	730.61
786.441	763.38
786.623	718.33
786.804	757.24
786.985	691.7
787.167	736.76
787.348	701.94
787.529	644.6
787.71	742.9
787.891	665.08
788.073	609.78
788.254	671.22
788.435	699.89
788.616	654.84
788.797	673.27
788.978	658.93
789.159	644.6
789.34	595.45
789.522	568.82
789.703	697.85
789.884	583.16
790.065	628.21
790.246	632.31
790.427	560.63
790.607	566.78
790.788	632.31
790.969	562.68
791.15	632.31
791.331	538.1
791.512	478.71
791.693	544.25
791.874	515.58
792.054	658.93
792.235	593.4
792.416	534.01
792.597	570.87
792.778	554.49
792.958	556.54
793.139	458.23
793.32	548.34
793.5	437.75
793.681	593.4
793.862	548.34
794.042	556.54
794.223	443.9
794.404	478.71
794.584	493.05
794.765	501.24
794.945	523.77
795.126	415.23
795.306	572.92
795.487	503.29
795.667	378.36
795.848	497.14
796.028	407.03
796.209	585.21
796.389	470.52
796.57	468.47
796.75	466.42
796.93	472.57
797.111	427.51
797.291	470.52
797.471	560.63
797.652	435.71
797.832	529.91
798.012	503.29
798.192	470.52
798.373	374.27
798.553	390.65
798.733	462.33
798.913	400.89
799.093	396.79
799.274	447.99
799.454	443.9
799.634	480.76
799.814	404.99
799.994	413.18
800.174	398.84
800.354	351.74
800.534	323.07
800.714	419.32
800.894	396.79
801.074	404.99
801.254	427.51
801.434	357.88
801.614	343.55
801.794	316.92
801.974	978.42
802.154	407.03
802.334	390.65
802.514	329.21
802.693	329.21
802.873	302.59
803.053	413.18
803.233	302.59
803.413	427.51
803.592	347.64
803.772	355.83
803.952	292.35
804.131	318.97
804.311	382.46
804.491	341.5
804.67	239.1
804.85	370.17
805.03	284.16
805.209	288.25
805.389	300.54
805.568	304.64
805.748	206.33
805.928	304.64
806.107	431.61
806.287	353.79
806.466	235
806.646	243.2
806.825	261.63
807.004	294.4
807.184	308.73
807.363	321.02
807.543	310.78
807.722	247.29
807.901	407.03
808.081	300.54
808.26	280.06
808.439	222.72
808.619	269.82
808.798	251.39
808.977	321.02
809.156	327.16
809.336	351.74
809.515	323.07
809.694	222.72
809.873	196.09
810.052	296.44
810.231	380.41
810.411	308.73
810.59	325.12
810.769	275.96
810.948	228.86
811.127	245.24
811.306	335.35
811.485	218.62
811.664	282.11
811.843	257.53
812.022	286.2
812.201	308.73
812.38	288.25
812.559	214.52
812.737	224.76
812.916	247.29
813.095	222.72
813.274	253.44
813.453	218.62
813.632	175.61
813.811	253.44
813.989	220.67
814.168	187.9
814.347	185.85
814.526	288.25
814.704	216.57
814.883	232.96
815.062	235
815.24	327.16
815.419	261.63
815.598	241.15
815.776	136.7
815.955	163.33
816.133	192
816.312	224.76
816.49	263.68
816.669	226.81
816.847	269.82
817.026	208.38
817.204	218.62
817.383	187.9
817.561	163.33
817.74	192
817.918	243.2
818.097	144.89
818.275	185.85
818.453	212.48
818.632	173.57
818.81	183.81
818.988	222.72
819.167	292.35
819.345	212.48
819.523	249.34
819.701	171.52
819.879	214.52
820.058	126.46
820.236	249.34
820.414	214.52
820.592	185.85
820.77	140.8
820.948	255.48
821.127	136.7
821.305	269.82
821.483	128.51
821.661	259.58
821.839	216.57
822.017	177.66
822.195	155.13
822.373	218.62
822.551	136.7
822.729	224.76
822.907	159.23
823.085	192
823.262	210.43
823.44	163.33
823.618	187.9
823.796	169.47
823.974	120.32
824.152	138.75
824.329	208.38
824.507	189.95
824.685	200.19
824.863	198.14
825.04	126.46
825.218	202.24
825.396	181.76
825.574	159.23
825.751	120.32
825.929	224.76
826.107	114.17
826.284	103.93
826.462	175.61
826.639	110.08
826.817	142.85
826.994	73.21
827.172	83.45
827.349	181.76
827.527	249.34
827.704	93.69
827.882	181.76
828.059	93.69
828.237	167.42
828.414	73.21
828.591	144.89
828.769	200.19
828.946	175.61
829.124	179.71
829.301	185.85
829.478	105.98
829.655	136.7
829.833	110.08
830.01	65.02
830.187	167.42
830.364	69.12
830.542	91.65
830.719	175.61
830.896	171.52
831.073	91.65
831.25	173.57
831.427	114.17
831.604	144.89
831.782	134.65
831.959	134.65
832.136	89.6
832.313	192
832.49	95.74
832.667	144.89
832.844	62.98
833.021	146.94
833.198	169.47
833.374	122.37
833.551	138.75
833.728	136.7
833.905	93.69
834.082	42.5
834.259	91.65
834.436	89.6
834.612	112.13
834.789	148.99
834.966	99.84
835.143	136.7
835.319	3.58
835.496	136.7
835.673	169.47
835.85	103.93
836.026	89.6
836.203	177.66
836.38	105.98
836.556	130.56
836.733	73.21
836.909	163.33
837.086	50.69
837.262	38.4
837.439	46.59
837.616	50.69
837.792	73.21
837.968	85.5
838.145	122.37
838.321	108.03
838.498	85.5
838.674	36.35
838.851	114.17
839.027	69.12
839.203	15.87
839.38	101.89
839.556	73.21
839.732	128.51
839.909	91.65
840.085	103.93
840.261	48.64
840.437	89.6
840.614	42.5
840.79	48.64
840.966	60.93
841.142	130.56
841.318	85.5
841.494	103.93
841.671	-2.56
841.847	38.4
842.023	52.74
842.199	38.4
842.375	151.04
842.551	13.82
842.727	5.63
842.903	120.32
843.079	-12.8
843.255	81.41
843.431	120.32
843.607	56.83
843.783	-4.61
843.959	124.41
844.134	54.78
844.31	89.6
844.486	30.21
844.662	73.21
844.838	69.12
845.013	97.79
845.189	110.08
845.365	34.3
845.541	62.98
845.716	75.26
845.892	75.26
846.068	-10.75
846.244	52.74
846.419	22.02
846.595	114.17
846.77	34.3
846.946	93.69
847.122	67.07
847.297	124.41
847.473	128.51
847.648	95.74
847.824	81.41
847.999	48.64
848.175	77.31
848.35	48.64
848.526	36.35
848.701	124.41
848.876	85.5
849.052	52.74
849.227	73.21
849.403	40.45
849.578	110.08
849.753	67.07
849.929	105.98
850.104	30.21
850.279	58.88
850.454	26.11
850.63	77.31
850.805	48.64
850.98	52.74
851.155	50.69
851.33	83.45
851.505	32.26
851.681	105.98
851.856	62.98
852.031	134.65
852.206	99.84
852.381	36.35
852.556	13.82
852.731	-2.56
852.906	60.93
853.081	69.12
853.256	112.13
853.431	36.35
853.606	58.88
853.781	17.92
853.956	1.54
854.131	62.98
854.305	-6.66
854.48	36.35
854.655	-35.33
854.83	71.17
855.005	62.98
855.18	73.21
855.354	73.21
855.529	118.27
855.704	-35.33
855.879	58.88
856.053	56.83
856.228	28.16
856.403	-0.51
856.577	38.4
856.752	103.93
856.926	-10.75
857.101	118.27
857.276	32.26
857.45	9.73
857.625	105.98
857.799	13.82
857.974	122.37
858.148	52.74
858.323	44.54
858.497	95.74
858.672	13.82
858.846	48.64
859.02	58.88
859.195	-74.24
859.369	108.03
859.543	52.74
859.718	-8.7
859.892	65.02
860.066	48.64
860.241	-25.09
860.415	-14.85
860.589	-23.04
860.763	40.45
860.938	1.54
861.112	50.69
861.286	32.26
861.46	54.78
861.634	-14.85
861.808	93.69
861.982	1.54
862.157	101.89
862.331	40.45
862.505	32.26
862.679	-49.66
862.853	-66.05
863.027	-16.9
863.201	7.68
863.375	50.69
863.549	67.07
863.722	19.97
863.896	105.98
864.07	34.3
864.244	42.5
864.418	34.3
864.592	24.06
864.766	44.54
864.939	60.93
865.113	11.78
865.287	71.17
865.461	-23.04
865.634	-16.9
865.808	22.02
865.982	36.35
866.156	77.31
866.329	-27.14
866.503	34.3
866.676	32.26
866.85	38.4
867.024	22.02
867.197	-2.56
867.371	42.5
867.544	52.74
867.718	-35.33
867.891	52.74
868.065	34.3
868.238	73.21
868.412	50.69
868.585	7.68
868.759	7.68
868.932	28.16
869.105	-6.66
869.279	-16.9
869.452	-29.18
869.625	-6.66
869.799	38.4
869.972	-23.04
870.145	-4.61
870.319	-12.8
870.492	46.59
870.665	38.4
870.838	-6.66
871.011	-20.99
871.185	-12.8
871.358	-37.38
871.531	54.78
871.704	34.3
871.877	-47.62
872.05	1.54
872.223	19.97
872.396	67.07
872.569	17.92
872.742	-49.66
872.915	36.35
873.088	-12.8
873.261	22.02
873.434	-20.99
873.607	26.11
873.78	-25.09
873.953	-4.61
874.126	77.31
874.299	-35.33
874.471	-18.94
874.644	-31.23
874.817	42.5
874.99	46.59
875.163	-20.99
875.335	97.79
875.508	1.54
875.681	-47.62
875.853	-16.9
876.026	26.11
876.199	-14.85
876.371	30.21
876.544	-8.7
876.717	26.11
876.889	-53.76
877.062	65.02
877.234	-123.39
877.407	15.87
877.579	-23.04
877.752	-76.29
877.924	44.54
878.097	-0.51
878.269	9.73
878.442	30.21
878.614	-51.71
878.786	44.54
878.959	-31.23
879.131	91.65
879.303	-4.61
879.476	17.92
879.648	13.82
879.82	9.73
879.993	-25.09
880.165	1.54
880.337	-2.56
880.509	-20.99
880.681	-6.66
880.854	-33.28
881.026	19.97
881.198	71.17
881.37	13.82
881.542	-20.99
881.714	22.02
881.886	9.73
882.058	42.5
882.23	3.58
882.402	-27.14
882.574	13.82
882.746	44.54
882.918	54.78
883.09	-27.14
883.262	-14.85
883.434	-64
883.606	-14.85
883.778	-41.47
883.95	89.6
884.122	-0.51
884.293	24.06
884.465	40.45
884.637	3.58
884.809	-4.61
884.98	36.35
885.152	17.92
885.324	69.12
885.496	-55.81
885.667	-80.38
885.839	-55.81
886.011	56.83
886.182	13.82
886.354	52.74
886.525	7.68
886.697	-12.8
886.869	1.54
887.04	-25.09
887.212	-37.38
887.383	83.45
887.555	-4.61
887.726	-18.94
887.897	-33.28
888.069	-23.04
888.24	15.87
888.412	89.6
888.583	17.92
888.754	17.92
888.926	-64
889.097	-25.09
889.268	7.68
889.44	32.26
889.611	22.02
889.782	-27.14
889.953	-35.33
890.125	48.64
890.296	-80.38
890.467	11.78
890.638	-16.9
890.809	-14.85
890.98	-18.94
891.151	1.54
891.323	30.21
891.494	9.73
891.665	-18.94
891.836	-57.86
892.007	-8.7
892.178	38.4
892.349	-47.62
892.52	-125.44
892.691	44.54
892.862	-37.38
893.032	36.35
893.203	26.11
893.374	26.11
893.545	-6.66
893.716	-72.19
893.887	44.54
894.057	46.59
894.228	97.79
894.399	-33.28
894.57	13.82
894.74	-4.61
894.911	26.11
895.082	-8.7
895.253	-2.56
895.423	-14.85
895.594	-25.09
895.764	13.82
895.935	11.78
896.106	-4.61
896.276	-18.94
896.447	38.4
896.617	36.35
896.788	-90.62
896.958	36.35
897.129	-6.66
897.299	-8.7
897.47	81.41
897.64	34.3
897.81	48.64
897.981	28.16
898.151	-51.71
898.322	67.07
898.492	-2.56
898.662	-20.99
898.832	-61.95
899.003	17.92
899.173	56.83
899.343	-14.85
899.513	-37.38
