Data from USB4F104151__75__12-42-20-837.txt Node

Date: Fri Mar 14 12:42:20 EDT 2025
User: louis
Spectrometer: USB4F10415
Trigger mode: 4
Integration Time (sec): 3.000000E-2
Scans to average: 1
Electric dark correction enabled: true
Nonlinearity correction enabled: false
Boxcar width: 0
XAxis mode: Wavelengths
Number of Pixels in Spectrum: 3648
>>>>>Begin Spectral Data<<<<<
178.204	-144.89
178.424	-144.89
178.644	-144.89
178.864	-179.71
179.084	-128.51
179.304	-13.82
179.524	25.09
179.744	14.85
179.964	25.09
180.184	-58.88
180.404	10.75
180.624	-52.74
180.844	-26.11
181.064	-1.54
181.283	33.28
181.503	-9.73
181.723	53.76
181.943	-19.97
182.163	125.44
182.383	33.28
182.602	123.39
182.822	88.57
183.042	14.85
183.262	16.9
183.482	8.7
183.701	37.38
183.921	-5.63
184.141	2.56
184.361	-32.26
184.58	-24.06
184.8	4.61
185.02	6.66
185.239	43.52
185.459	-26.11
185.679	131.58
185.898	6.66
186.118	47.62
186.338	-34.3
186.557	43.52
186.777	25.09
186.997	12.8
187.216	31.23
187.436	66.05
187.655	59.9
187.875	51.71
188.095	-19.97
188.314	66.05
188.534	51.71
188.753	6.66
188.973	-24.06
189.192	70.14
189.412	92.67
189.631	55.81
189.851	39.42
190.07	57.86
190.29	8.7
190.509	6.66
190.729	-11.78
190.948	156.16
191.168	92.67
191.387	68.09
191.607	-30.21
191.826	8.7
192.045	51.71
192.265	6.66
192.484	-32.26
192.704	72.19
192.923	-1.54
193.142	16.9
193.362	98.81
193.581	143.87
193.8	33.28
194.02	41.47
194.239	-56.83
194.458	74.24
194.678	72.19
194.897	16.9
195.116	20.99
195.335	84.48
195.555	59.9
195.774	53.76
195.993	6.66
196.212	139.77
196.432	82.43
196.651	35.33
196.87	27.14
197.089	64
197.308	-30.21
197.528	-9.73
197.747	55.81
197.966	-13.82
198.185	135.68
198.404	35.33
198.623	31.23
198.842	33.28
199.062	25.09
199.281	92.67
199.5	49.66
199.719	6.66
199.938	131.58
200.157	64
200.376	39.42
200.595	80.38
200.814	25.09
201.033	-7.68
201.252	59.9
201.471	33.28
201.69	-11.78
201.909	-11.78
202.128	78.33
202.347	102.91
202.566	35.33
202.785	-15.87
203.004	37.38
203.223	90.62
203.442	14.85
203.661	31.23
203.879	139.77
204.098	96.77
204.317	33.28
204.536	23.04
204.755	18.94
204.974	113.15
205.193	29.18
205.411	92.67
205.63	6.66
205.849	25.09
206.068	72.19
206.287	72.19
206.505	80.38
206.724	-50.69
206.943	109.05
207.162	43.52
207.381	94.72
207.599	6.66
207.818	14.85
208.037	107.01
208.255	49.66
208.474	64
208.693	76.29
208.911	18.94
209.13	61.95
209.349	16.9
209.567	39.42
209.786	33.28
210.005	72.19
210.223	29.18
210.442	47.62
210.661	72.19
210.879	-24.06
211.098	117.25
211.316	37.38
211.535	100.86
211.753	43.52
211.972	107.01
212.191	-24.06
212.409	49.66
212.628	10.75
212.846	20.99
213.065	33.28
213.283	16.9
213.502	-22.02
213.72	29.18
213.938	49.66
214.157	-24.06
214.375	-46.59
214.594	27.14
214.812	45.57
215.031	76.29
215.249	37.38
215.467	25.09
215.686	45.57
215.904	123.39
216.122	-24.06
216.341	135.68
216.559	-5.63
216.778	16.9
216.996	53.76
217.214	41.47
217.432	33.28
217.651	18.94
217.869	-38.4
218.087	43.52
218.306	37.38
218.524	72.19
218.742	86.53
218.96	90.62
219.179	2.56
219.397	8.7
219.615	47.62
219.833	88.57
220.051	-44.54
220.27	90.62
220.488	57.86
220.706	23.04
220.924	70.14
221.142	72.19
221.36	43.52
221.578	0.51
221.796	-3.58
222.015	64
222.233	53.76
222.451	51.71
222.669	10.75
222.887	25.09
223.105	57.86
223.323	-34.3
223.541	20.99
223.759	100.86
223.977	27.14
224.195	184.83
224.413	84.48
224.631	49.66
224.849	55.81
225.067	68.09
225.285	25.09
225.503	86.53
225.721	35.33
225.939	25.09
226.157	-3.58
226.375	109.05
226.592	43.52
226.81	-11.78
227.028	37.38
227.246	104.96
227.464	70.14
227.682	47.62
227.9	121.34
228.117	39.42
228.335	35.33
228.553	41.47
228.771	82.43
228.989	78.33
229.206	78.33
229.424	-48.64
229.642	43.52
229.86	43.52
230.077	12.8
230.295	-5.63
230.513	27.14
230.731	98.81
230.948	51.71
231.166	53.76
231.384	20.99
231.601	90.62
231.819	84.48
232.037	41.47
232.254	2.56
232.472	90.62
232.689	51.71
232.907	131.58
233.125	25.09
233.342	47.62
233.56	49.66
233.777	6.66
233.995	14.85
234.213	18.94
234.43	0.51
234.648	98.81
234.865	-7.68
235.083	94.72
235.3	45.57
235.518	2.56
235.735	78.33
235.953	66.05
236.17	-7.68
236.388	72.19
236.605	2.56
236.822	121.34
237.04	70.14
237.257	76.29
237.475	-3.58
237.692	4.61
237.909	78.33
238.127	18.94
238.344	84.48
238.562	25.09
238.779	20.99
238.996	-34.3
239.214	57.86
239.431	70.14
239.648	29.18
239.865	-19.97
240.083	35.33
240.3	6.66
240.517	47.62
240.735	53.76
240.952	76.29
241.169	-9.73
241.386	86.53
241.603	70.14
241.821	31.23
242.038	80.38
242.255	33.28
242.472	90.62
242.689	72.19
242.907	-15.87
243.124	25.09
243.341	86.53
243.558	25.09
243.775	35.33
243.992	-91.65
244.209	29.18
244.426	68.09
244.643	16.9
244.86	14.85
245.078	78.33
245.295	49.66
245.512	109.05
245.729	6.66
245.946	33.28
246.163	4.61
246.38	55.81
246.597	-1.54
246.814	18.94
247.031	20.99
247.248	-32.26
247.464	-1.54
247.681	80.38
247.898	35.33
248.115	84.48
248.332	-5.63
248.549	68.09
248.766	45.57
248.983	61.95
249.2	74.24
249.417	72.19
249.633	51.71
249.85	125.44
250.067	64
250.284	16.9
250.501	59.9
250.717	111.1
250.934	49.66
251.151	8.7
251.368	41.47
251.585	72.19
251.801	78.33
252.018	33.28
252.235	61.95
252.451	-34.3
252.668	47.62
252.885	27.14
253.102	90.62
253.318	-42.5
253.535	10.75
253.752	-58.88
253.968	2.56
254.185	90.62
254.401	37.38
254.618	57.86
254.835	33.28
255.051	109.05
255.268	-1.54
255.484	59.9
255.701	39.42
255.917	51.71
256.134	-30.21
256.351	33.28
256.567	0.51
256.784	76.29
257	12.8
257.217	53.76
257.433	49.66
257.65	-7.68
257.866	25.09
258.082	94.72
258.299	10.75
258.515	23.04
258.732	20.99
258.948	-32.26
259.165	45.57
259.381	-11.78
259.597	-22.02
259.814	18.94
260.03	29.18
260.246	100.86
260.463	68.09
260.679	16.9
260.895	37.38
261.112	53.76
261.328	43.52
261.544	-34.3
261.761	143.87
261.977	23.04
262.193	41.47
262.409	80.38
262.626	8.7
262.842	94.72
263.058	-44.54
263.274	61.95
263.49	61.95
263.707	10.75
263.923	90.62
264.139	18.94
264.355	55.81
264.571	117.25
264.787	61.95
265.004	-7.68
265.22	27.14
265.436	2.56
265.652	-44.54
265.868	68.09
266.084	37.38
266.3	68.09
266.516	-44.54
266.732	41.47
266.948	-22.02
267.164	43.52
267.38	12.8
267.596	39.42
267.812	119.29
268.028	78.33
268.244	43.52
268.46	-13.82
268.676	-40.45
268.892	31.23
269.108	72.19
269.324	57.86
269.54	-30.21
269.756	88.57
269.972	14.85
270.188	-15.87
270.403	-22.02
270.619	59.9
270.835	20.99
271.051	131.58
271.267	37.38
271.483	8.7
271.698	51.71
271.914	37.38
272.13	37.38
272.346	14.85
272.562	-24.06
272.777	100.86
272.993	-13.82
273.209	94.72
273.425	98.81
273.64	18.94
273.856	53.76
274.072	-26.11
274.287	4.61
274.503	37.38
274.719	33.28
274.934	113.15
275.15	8.7
275.366	66.05
275.581	51.71
275.797	37.38
276.012	-56.83
276.228	6.66
276.444	2.56
276.659	66.05
276.875	51.71
277.09	23.04
277.306	96.77
277.521	102.91
277.737	43.52
277.952	139.77
278.168	39.42
278.383	12.8
278.599	84.48
278.814	0.51
279.03	8.7
279.245	59.9
279.461	-19.97
279.676	55.81
279.892	64
280.107	12.8
280.322	-38.4
280.538	27.14
280.753	37.38
280.969	51.71
281.184	78.33
281.399	150.01
281.615	27.14
281.83	72.19
282.045	8.7
282.26	-24.06
282.476	33.28
282.691	-7.68
282.906	-7.68
283.122	49.66
283.337	25.09
283.552	59.9
283.767	51.71
283.983	117.25
284.198	33.28
284.413	37.38
284.628	-42.5
284.843	14.85
285.058	37.38
285.274	55.81
285.489	35.33
285.704	55.81
285.919	-32.26
286.134	78.33
286.349	88.57
286.564	49.66
286.779	76.29
286.995	92.67
287.21	-52.74
287.425	61.95
287.64	23.04
287.855	57.86
288.07	12.8
288.285	-19.97
288.5	55.81
288.715	-28.16
288.93	51.71
289.145	41.47
289.36	39.42
289.575	51.71
289.79	59.9
290.004	84.48
290.219	33.28
290.434	33.28
290.649	-44.54
290.864	68.09
291.079	8.7
291.294	78.33
291.509	31.23
291.724	-7.68
291.938	49.66
292.153	8.7
292.368	-5.63
292.583	84.48
292.798	-26.11
293.012	6.66
293.227	47.62
293.442	-28.16
293.657	0.51
293.871	102.91
294.086	55.81
294.301	133.63
294.516	16.9
294.73	8.7
294.945	31.23
295.16	6.66
295.374	96.77
295.589	27.14
295.804	2.56
296.018	14.85
296.233	113.15
296.447	29.18
296.662	-22.02
296.877	74.24
297.091	68.09
297.306	4.61
297.52	39.42
297.735	23.04
297.949	55.81
298.164	31.23
298.378	51.71
298.593	-24.06
298.807	43.52
299.022	76.29
299.236	25.09
299.451	51.71
299.665	129.53
299.88	47.62
300.094	39.42
300.309	72.19
300.523	-7.68
300.737	57.86
300.952	35.33
301.166	68.09
301.381	18.94
301.595	20.99
301.809	84.48
302.024	37.38
302.238	41.47
302.452	76.29
302.667	80.38
302.881	-13.82
303.095	53.76
303.309	59.9
303.524	74.24
303.738	70.14
303.952	57.86
304.166	70.14
304.381	49.66
304.595	109.05
304.809	2.56
305.023	27.14
305.237	4.61
305.452	-15.87
305.666	-1.54
305.88	43.52
306.094	45.57
306.308	27.14
306.522	64
306.736	125.44
306.95	61.95
307.164	-7.68
307.379	27.14
307.593	76.29
307.807	33.28
308.021	-5.63
308.235	76.29
308.449	-3.58
308.663	74.24
308.877	68.09
309.091	25.09
309.305	-1.54
309.519	-56.83
309.733	49.66
309.947	-79.36
310.161	70.14
310.374	47.62
310.588	94.72
310.802	66.05
311.016	68.09
311.23	59.9
311.444	27.14
311.658	82.43
311.872	47.62
312.085	25.09
312.299	41.47
312.513	35.33
312.727	61.95
312.941	80.38
313.154	39.42
313.368	0.51
313.582	45.57
313.796	37.38
314.009	33.28
314.223	80.38
314.437	59.9
314.651	20.99
314.864	-44.54
315.078	4.61
315.292	61.95
315.505	-15.87
315.719	16.9
315.933	68.09
316.146	0.51
316.36	-3.58
316.573	92.67
316.787	121.34
317.001	57.86
317.214	31.23
317.428	53.76
317.641	-30.21
317.855	100.86
318.068	59.9
318.282	121.34
318.495	35.33
318.709	113.15
318.922	20.99
319.136	150.01
319.349	70.14
319.563	14.85
319.776	-32.26
319.99	18.94
320.203	90.62
320.417	51.71
320.63	55.81
320.843	119.29
321.057	68.09
321.27	6.66
321.483	35.33
321.697	72.19
321.91	41.47
322.124	47.62
322.337	84.48
322.55	96.77
322.763	55.81
322.977	41.47
323.19	-15.87
323.403	25.09
323.617	90.62
323.83	20.99
324.043	39.42
324.256	51.71
324.469	18.94
324.683	61.95
324.896	-9.73
325.109	31.23
325.322	23.04
325.535	12.8
325.748	121.34
325.962	74.24
326.175	29.18
326.388	86.53
326.601	119.29
326.814	86.53
327.027	72.19
327.24	96.77
327.453	-11.78
327.666	100.86
327.879	76.29
328.092	98.81
328.305	29.18
328.518	88.57
328.731	41.47
328.944	49.66
329.157	23.04
329.37	27.14
329.583	55.81
329.796	102.91
330.009	68.09
330.222	66.05
330.435	66.05
330.648	37.38
330.861	-13.82
331.073	31.23
331.286	117.25
331.499	57.86
331.712	0.51
331.925	29.18
332.138	51.71
332.35	41.47
332.563	66.05
332.776	107.01
332.989	59.9
333.202	41.47
333.414	70.14
333.627	33.28
333.84	20.99
334.053	-7.68
334.265	31.23
334.478	61.95
334.691	51.71
334.903	-24.06
335.116	27.14
335.329	39.42
335.541	84.48
335.754	59.9
335.966	23.04
336.179	12.8
336.392	35.33
336.604	57.86
336.817	43.52
337.029	14.85
337.242	78.33
337.454	6.66
337.667	-30.21
337.88	82.43
338.092	-15.87
338.305	-13.82
338.517	41.47
338.729	98.81
338.942	127.49
339.154	55.81
339.367	-19.97
339.579	107.01
339.792	68.09
340.004	96.77
340.217	10.75
340.429	35.33
340.641	20.99
340.854	37.38
341.066	94.72
341.278	37.38
341.491	174.59
341.703	64
341.915	-9.73
342.128	51.71
342.34	29.18
342.552	-9.73
342.764	109.05
342.977	20.99
343.189	70.14
343.401	10.75
343.613	10.75
343.826	47.62
344.038	20.99
344.25	2.56
344.462	45.57
344.674	86.53
344.886	23.04
345.099	66.05
345.311	64
345.523	6.66
345.735	35.33
345.947	-40.45
346.159	35.33
346.371	43.52
346.583	49.66
346.795	78.33
347.007	-19.97
347.219	72.19
347.431	12.8
347.643	45.57
347.855	-11.78
348.067	61.95
348.279	25.09
348.491	2.56
348.703	-40.45
348.915	66.05
349.127	-28.16
349.339	72.19
349.551	-30.21
349.763	82.43
349.975	98.81
350.187	92.67
350.399	111.1
350.61	117.25
350.822	55.81
351.034	82.43
351.246	64
351.458	47.62
351.669	-22.02
351.881	72.19
352.093	84.48
352.305	92.67
352.517	76.29
352.728	107.01
352.94	25.09
353.152	68.09
353.363	31.23
353.575	41.47
353.787	119.29
353.999	104.96
354.21	119.29
354.422	20.99
354.633	55.81
354.845	107.01
355.057	68.09
355.268	43.52
355.48	80.38
355.692	-32.26
355.903	59.9
356.115	88.57
356.326	6.66
356.538	68.09
356.749	84.48
356.961	66.05
357.172	20.99
357.384	-22.02
357.595	-1.54
357.807	72.19
358.018	39.42
358.23	18.94
358.441	90.62
358.653	96.77
358.864	31.23
359.075	59.9
359.287	27.14
359.498	100.86
359.709	14.85
359.921	47.62
360.132	31.23
360.344	47.62
360.555	55.81
360.766	86.53
360.977	74.24
361.189	72.19
361.4	55.81
361.611	68.09
361.823	2.56
362.034	88.57
362.245	-7.68
362.456	68.09
362.667	47.62
362.879	102.91
363.09	27.14
363.301	78.33
363.512	72.19
363.723	-44.54
363.935	66.05
364.146	27.14
364.357	39.42
364.568	70.14
364.779	25.09
364.99	4.61
365.201	27.14
365.412	109.05
365.623	92.67
365.834	27.14
366.045	51.71
366.256	2.56
366.467	66.05
366.678	-7.68
366.889	68.09
367.1	20.99
367.311	84.48
367.522	4.61
367.733	121.34
367.944	53.76
368.155	55.81
368.366	72.19
368.577	31.23
368.788	104.96
368.999	-13.82
369.209	84.48
369.42	76.29
369.631	57.86
369.842	10.75
370.053	41.47
370.264	61.95
370.474	31.23
370.685	53.76
370.896	37.38
371.107	68.09
371.317	4.61
371.528	59.9
371.739	145.92
371.95	76.29
372.16	49.66
372.371	-11.78
372.582	82.43
372.792	76.29
373.003	4.61
373.214	8.7
373.424	49.66
373.635	-3.58
373.846	164.35
374.056	31.23
374.267	14.85
374.477	-13.82
374.688	43.52
374.898	35.33
375.109	14.85
375.319	78.33
375.53	43.52
375.74	31.23
375.951	76.29
376.161	84.48
376.372	31.23
376.582	-9.73
376.793	51.71
377.003	35.33
377.214	76.29
377.424	70.14
377.635	23.04
377.845	74.24
378.055	51.71
378.266	43.52
378.476	16.9
378.686	35.33
378.897	78.33
379.107	147.97
379.317	55.81
379.528	31.23
379.738	84.48
379.948	147.97
380.158	18.94
380.369	39.42
380.579	57.86
380.789	125.44
380.999	72.19
381.21	74.24
381.42	92.67
381.63	-5.63
381.84	57.86
382.05	129.53
382.261	64
382.471	127.49
382.681	33.28
382.891	135.68
383.101	12.8
383.311	43.52
383.521	-15.87
383.731	55.81
383.941	133.63
384.151	29.18
384.361	39.42
384.571	55.81
384.781	86.53
384.991	104.96
385.201	29.18
385.411	55.81
385.621	82.43
385.831	82.43
386.041	102.91
386.251	80.38
386.461	109.05
386.671	47.62
386.881	57.86
387.091	76.29
387.301	74.24
387.511	64
387.72	27.14
387.93	117.25
388.14	18.94
388.35	27.14
388.56	90.62
388.769	74.24
388.979	-5.63
389.189	45.57
389.399	100.86
389.609	104.96
389.818	219.64
390.028	76.29
390.238	92.67
390.447	57.86
390.657	113.15
390.867	178.69
391.076	29.18
391.286	70.14
391.496	70.14
391.705	72.19
391.915	90.62
392.125	125.44
392.334	-1.54
392.544	125.44
392.753	117.25
392.963	12.8
393.172	86.53
393.382	35.33
393.591	53.76
393.801	66.05
394.01	70.14
394.22	121.34
394.429	27.14
394.639	37.38
394.848	102.91
395.058	49.66
395.267	55.81
395.477	180.73
395.686	143.87
395.895	121.34
396.105	139.77
396.314	66.05
396.524	119.29
396.733	49.66
396.942	61.95
397.152	174.59
397.361	123.39
397.57	80.38
397.78	100.86
397.989	74.24
398.198	168.45
398.407	66.05
398.617	92.67
398.826	154.11
399.035	135.68
399.244	123.39
399.453	174.59
399.663	166.4
399.872	107.01
400.081	96.77
400.29	152.06
400.499	139.77
400.708	154.11
400.917	104.96
401.127	51.71
401.336	123.39
401.545	190.97
401.754	137.73
401.963	119.29
402.172	125.44
402.381	133.63
402.59	125.44
402.799	178.69
403.008	152.06
403.217	150.01
403.426	145.92
403.635	82.43
403.844	92.67
404.053	152.06
404.262	176.64
404.471	223.74
404.68	98.81
404.888	98.81
405.097	115.2
405.306	158.21
405.515	141.82
405.724	100.86
405.933	252.41
406.142	131.58
406.35	141.82
406.559	236.03
406.768	98.81
406.977	313.85
407.185	115.2
407.394	254.46
407.603	156.16
407.812	223.74
408.02	260.6
408.229	203.26
408.438	176.64
408.646	182.78
408.855	291.32
409.064	270.84
409.272	293.37
409.481	346.62
409.69	229.88
409.898	311.8
410.107	322.04
410.315	322.04
410.524	369.15
410.733	363
410.941	401.91
411.15	408.06
411.358	463.35
411.567	479.74
411.775	422.39
411.984	422.39
412.192	506.36
412.401	477.69
412.609	481.78
412.818	553.46
413.026	592.37
413.234	547.32
413.443	479.74
413.651	621.05
413.86	643.57
414.068	702.97
414.276	768.5
414.485	680.44
414.693	805.36
414.901	805.36
415.11	856.56
415.318	797.17
415.526	860.66
415.734	868.85
415.943	942.58
416.151	956.91
416.359	1049.07
416.567	1147.37
416.776	997.87
416.984	1288.68
417.192	1196.53
417.4	1206.77
417.608	1241.58
417.817	1284.59
418.025	1268.2
418.233	1397.23
418.441	1436.14
418.649	1495.53
418.857	1436.14
419.065	1524.2
419.273	1589.74
419.481	1622.5
419.689	1755.62
419.897	1774.05
420.105	1851.88
420.313	2015.71
420.521	2077.15
420.729	2062.82
420.937	2001.38
421.145	2136.54
421.353	2329.05
421.561	2392.54
421.769	2370.01
421.977	2578.9
422.185	2449.88
422.393	2535.9
422.601	2724.31
422.809	2988.5
423.017	2816.47
423.224	2941.4
423.432	3105.23
423.64	3074.51
423.848	3369.42
424.056	3213.77
424.263	3664.33
424.471	3619.27
424.679	3594.7
424.887	3873.22
425.094	3889.6
425.302	4032.96
425.51	4172.22
425.718	4266.43
425.925	4381.12
426.133	4350.4
426.341	4659.64
426.548	4811.19
426.756	4907.45
426.964	5034.42
427.171	5243.31
427.379	5302.7
427.586	5554.6
427.794	5626.28
428.001	5867.94
428.209	6029.73
428.417	5857.7
428.624	6328.74
428.832	6388.13
429.039	6398.37
429.247	6474.14
429.454	6934.93
429.662	7557.52
429.869	7002.52
430.076	7526.8
430.284	7170.45
430.491	7704.97
430.699	7819.66
430.906	7920.01
431.114	8006.02
431.321	8606.08
431.528	8575.36
431.736	9132.4
431.943	9587.05
432.15	9273.71
432.358	9519.47
432.565	9748.84
432.772	9779.56
432.979	10473.82
433.187	10817.88
433.394	10668.38
433.601	11280.72
433.808	11450.71
434.016	11309.4
434.223	11876.68
434.43	12294.47
434.637	12140.87
434.844	12939.58
435.052	13179.19
435.259	13062.46
435.466	13214.01
435.673	13146.42
435.88	13961.51
436.087	14881.05
436.294	14967.07
436.501	14354.72
436.708	14491.94
436.915	15038.75
437.122	15698.19
437.329	15884.56
437.537	16453.89
437.743	16828.67
437.95	16470.28
438.157	17408.25
438.364	17969.39
438.571	17709.3
438.778	18053.36
438.985	19400.92
439.192	18907.36
439.399	19505.37
439.606	19140.83
439.813	19896.53
440.02	21506.23
440.227	20932.8
440.433	20863.17
440.64	21504.18
440.847	21235.9
441.054	22143.15
441.261	23154.85
441.467	22790.31
441.674	23328.92
441.881	24252.56
442.088	24410.25
442.294	23988.37
442.501	24985.73
442.708	25213.06
442.914	26198.13
443.121	27680.86
443.328	26710.12
443.534	28624.97
443.741	27641.95
443.948	27076.71
444.154	28938.31
444.361	29192.26
444.568	29024.33
444.774	29237.31
444.981	29759.55
445.187	30193.72
445.394	31918.1
445.6	31213.6
445.807	33959.93
446.013	32888.84
446.22	33097.73
446.426	34469.87
446.633	35002.35
446.839	36083.67
447.046	34721.77
447.252	36827.09
447.459	36736.98
447.665	36546.51
447.871	38154.17
448.078	39597.99
448.284	38102.97
448.491	39040.94
448.697	40257.43
448.903	40724.37
449.11	41285.51
449.316	40220.57
449.522	41299.85
449.728	42223.48
449.935	42704.76
450.141	42811.25
450.347	43663.21
450.553	42495.86
450.76	42958.7
450.966	43945.83
451.172	43839.33
451.378	45014.87
451.584	44179.29
451.791	45160.27
451.997	44885.84
452.203	45510.47
452.409	45432.65
452.615	45199.18
452.821	43978.59
453.027	43593.57
453.233	45580.1
453.44	44037.98
453.646	44760.92
453.852	44414.81
454.058	45377.36
454.264	43839.33
454.47	45199.18
454.676	43812.71
454.882	45213.52
455.088	41361.29
455.294	42321.79
455.5	42512.25
455.705	42751.86
455.911	41148.3
456.117	40669.08
456.323	40513.43
456.529	38297.53
456.735	39516.07
456.941	38684.59
457.147	38164.41
457.352	36919.24
457.558	36528.08
457.764	36292.57
457.97	36177.88
458.176	34953.19
458.381	35121.13
458.587	33533.95
458.793	33237
458.999	32090.13
459.204	33968.12
459.41	32735.24
459.616	30801.96
459.821	30679.08
460.027	30976.04
460.233	29863.99
460.438	28753.99
460.644	28934.21
460.85	27449.44
461.055	27156.58
461.261	27422.81
461.466	25153.66
461.672	24465.55
461.878	26083.44
462.083	24330.38
462.289	23931.03
462.494	23718.04
462.7	22579.37
462.905	22413.48
463.111	22841.51
463.316	22931.62
463.522	22345.9
463.727	22274.22
463.932	22245.55
464.138	22481.06
464.343	22352.04
464.549	21747.89
464.754	22411.43
464.959	21977.26
465.165	21844.15
465.37	21321.91
465.575	20543.69
465.781	21436.6
465.986	21446.84
466.191	20527.3
466.397	20101.33
466.602	19028.19
466.807	19904.72
467.012	20043.98
467.218	20058.32
467.423	19755.22
467.628	19769.55
467.833	20553.93
468.038	20138.19
468.244	19359.96
468.449	20015.31
468.654	19396.82
468.859	19153.12
469.064	19048.67
469.269	18338.02
469.474	18825.44
469.679	18833.63
469.885	18680.03
470.09	18493.67
470.295	18630.88
470.5	18032.88
470.705	18096.36
470.91	17785.07
471.115	17959.15
471.32	17920.24
471.525	17553.65
471.73	17490.17
471.935	17193.21
472.139	16523.52
472.344	16984.32
472.549	16793.86
472.754	16511.24
472.959	15999.24
473.164	15886.61
473.369	15603.99
473.574	16355.59
473.778	16128.27
473.983	16197.9
474.188	15980.81
474.393	15477.01
474.598	15350.04
474.802	15155.48
475.007	15126.81
475.212	15153.43
475.417	14496.03
475.621	14520.61
475.826	14618.91
476.031	14287.14
476.235	13922.6
476.44	14266.66
476.645	13883.69
476.849	14246.18
477.054	13687.09
477.259	13709.61
477.463	13441.33
477.668	13297.97
477.872	13470
478.077	13291.83
478.282	12915
478.486	12826.94
478.691	12818.75
478.895	12816.7
479.1	12575.04
479.304	12654.91
479.509	12265.8
479.713	12501.31
479.918	12161.35
480.122	12132.68
480.326	12343.62
480.531	12052.81
480.735	11880.78
480.94	11970.89
481.144	12302.66
481.348	11950.41
481.553	11839.82
481.757	11569.49
481.961	11737.42
482.166	11909.45
482.37	11688.27
482.574	11565.39
482.778	11692.37
482.983	11845.96
483.187	11604.3
483.391	11696.46
483.595	11692.37
483.8	11546.96
484.004	11766.09
484.208	11948.36
484.412	11876.68
484.616	11745.61
484.821	11792.72
485.025	11565.39
485.229	11753.8
485.433	11641.17
485.637	11743.56
485.841	11469.14
486.045	11764.04
486.249	11878.73
486.453	11712.85
486.657	11725.13
486.861	11940.17
487.065	11483.47
487.269	11686.22
487.473	11665.74
487.677	11764.04
487.881	11778.38
488.085	11659.6
488.289	11790.67
488.493	11690.32
488.697	11753.8
488.901	11807.05
489.105	11723.09
489.309	11841.87
489.512	11798.86
489.716	11749.71
489.92	11745.61
490.124	11718.99
490.328	12058.95
490.531	12001.61
490.735	11784.52
490.939	11921.74
491.143	11788.62
491.346	11880.78
491.55	12175.69
491.754	12177.73
491.958	12374.34
492.161	12263.75
492.365	12257.6
492.569	12394.82
492.772	12386.63
492.976	12443.97
493.18	12581.18
493.383	12564.8
493.587	12587.33
493.79	13054.26
493.994	12679.49
494.197	12955.96
494.401	13027.64
494.605	12943.67
494.808	13338.93
495.012	13330.74
495.215	13316.4
495.419	13304.12
495.622	13207.86
495.825	13672.75
496.029	13592.88
496.232	14088.49
496.436	13834.54
496.639	14047.53
496.843	13934.89
497.046	14360.87
497.249	14522.66
497.453	14639.39
497.656	14674.21
497.859	14782.75
498.063	15122.71
498.266	15343.89
498.469	15376.66
498.673	15329.56
498.876	15468.82
499.079	15583.51
499.282	15542.55
499.485	16099.59
499.689	16165.13
499.892	16449.8
500.095	16222.47
500.298	16591.11
500.501	16511.24
500.705	17099
500.908	17221.88
501.111	17297.66
501.314	17281.27
501.517	17744.11
501.72	17733.87
501.923	17701.11
502.126	18395.37
502.329	18622.69
502.532	18727.14
502.735	18712.8
502.938	19042.53
503.141	19056.86
503.344	19445.98
503.547	19269.85
503.75	19783.89
503.953	20185.29
504.156	19937.49
504.359	20416.71
504.562	20414.66
504.765	21043.39
504.968	21127.36
505.17	21428.41
505.373	21389.5
505.576	21647.54
505.779	21627.06
505.982	22050.99
506.185	22515.88
506.387	22483.11
506.59	22778.02
506.793	23347.36
506.996	22735.01
507.198	23646.36
507.401	23609.5
507.604	23644.31
507.807	24375.44
508.009	24397.96
508.212	24443.02
508.415	24778.89
508.617	25370.75
508.82	25284.73
509.022	25157.76
509.225	25813.11
509.428	25940.08
509.63	25839.73
509.833	26392.69
510.035	27035.75
510.238	26769.51
510.44	27082.85
510.643	27535.45
510.845	27680.86
511.048	27850.84
511.25	28303.44
511.453	28291.15
511.655	29372.48
511.858	28719.18
512.06	28887.11
512.262	29585.47
512.465	29567.04
512.667	29476.93
512.87	30292.02
513.072	30292.02
513.274	30607.4
513.477	30887.98
513.679	31023.14
513.881	31352.87
514.084	31434.78
514.286	31916.06
514.488	31991.83
514.69	33013.77
514.893	32661.52
515.095	32798.73
515.297	33103.88
515.499	33392.64
515.701	33951.74
515.904	34123.77
516.106	34400.24
516.308	34486.26
516.51	34748.4
516.712	34867.18
516.914	35235.81
517.116	35592.16
517.318	35948.51
517.52	35813.34
517.722	36151.26
517.925	36503.51
518.127	37121.99
518.329	37019.6
518.531	37003.21
518.733	37404.61
518.935	37795.78
519.136	37937.09
519.338	38475.7
519.54	38664.11
519.742	38774.7
519.944	38770.61
520.146	39210.92
520.348	39991.2
520.55	39473.06
520.752	39796.64
520.954	40761.23
521.155	40376.22
521.357	40789.91
521.559	41353.1
521.761	41570.18
521.963	41578.37
522.164	41785.22
522.366	41762.69
522.568	42258.3
522.77	42674.04
522.971	43118.45
523.173	42532.73
523.375	43278.19
523.576	43065.2
523.778	42944.37
523.98	43581.29
524.181	43448.17
524.383	44037.98
524.584	44466.01
524.786	44193.63
524.988	44072.8
525.189	44932.95
525.391	44713.81
525.592	44844.88
525.794	45377.36
525.995	45352.78
526.197	45391.69
526.398	45348.68
526.6	46088
526.801	45590.34
527.003	45963.07
527.204	46038.85
527.406	46665.53
527.607	46358.33
527.808	46591.8
528.01	45901.64
528.211	46327.61
528.412	47038.26
528.614	46888.76
528.815	46741.3
529.016	47275.82
529.218	47232.82
529.419	47173.42
529.62	47193.9
529.822	47468.33
530.023	47241.01
530.224	47445.8
530.425	47351.6
530.626	47040.31
530.828	47490.86
531.029	47759.14
531.23	47001.39
531.431	47482.67
531.632	47482.67
531.833	48115.49
532.035	47587.11
532.236	47699.75
532.437	48267.04
532.638	47830.82
532.839	48301.85
533.04	48416.54
533.241	47435.56
533.442	48404.25
533.643	48097.06
533.844	48138.02
534.045	47882.02
534.246	47910.69
534.447	48297.76
534.648	48101.15
534.849	47787.81
535.05	47986.47
535.251	47865.64
535.451	47675.18
535.652	47810.34
535.853	47816.49
536.054	48166.69
536.255	48285.47
536.456	47558.44
536.657	48185.12
536.857	47908.64
537.058	47529.77
537.259	48119.59
537.46	47826.73
537.66	47898.41
537.861	47820.58
538.062	47628.07
538.263	48103.2
538.463	47816.49
538.664	47593.26
538.865	48049.95
539.065	47810.34
539.266	47116.08
539.466	48023.33
539.667	47357.74
539.868	47652.65
540.068	47523.63
540.269	47796.01
540.469	47826.73
540.67	47646.5
540.87	47910.69
541.071	47462.19
541.271	47820.58
541.472	47810.34
541.672	47560.49
541.873	47558.44
542.073	46911.28
542.274	48211.74
542.474	47296.3
542.675	47083.31
542.875	47650.6
543.075	47456.04
543.276	46903.09
543.476	47570.73
543.676	47337.26
543.877	47423.28
544.077	47234.86
544.277	46866.23
544.478	47425.32
544.678	47081.27
544.878	47372.08
545.078	47179.57
545.279	46696.25
545.479	47472.43
545.679	47523.63
545.879	46933.81
546.079	47546.15
546.28	46925.62
546.48	46493.5
546.68	46831.41
546.88	47241.01
547.08	47259.44
547.28	46643
547.48	46964.53
547.68	47128.37
547.88	46706.49
548.081	46919.48
548.281	46788.41
548.481	46819.13
548.681	47161.14
548.881	46841.65
549.081	46718.78
549.28	46667.58
549.48	47247.15
549.68	46655.29
549.88	47124.27
550.08	46937.91
550.28	47009.59
550.48	47210.29
550.68	47150.9
550.88	46817.08
551.08	46808.89
551.279	47071.03
551.479	46647.1
551.679	46755.64
551.879	46747.45
552.079	46473.02
552.278	46612.28
552.478	46665.53
552.678	46679.86
552.878	46835.51
553.077	46534.46
553.277	46366.52
553.477	47187.76
553.676	46518.07
553.876	46544.7
554.076	46358.33
554.275	46227.26
554.475	45952.83
554.674	46335.8
554.874	46255.93
555.074	46583.61
555.273	46454.59
555.473	46673.72
555.672	45655.88
555.872	46202.69
556.071	45985.6
556.271	46628.66
556.47	45711.17
556.67	45571.91
556.869	45739.85
557.068	45903.68
557.268	45436.75
557.467	45948.74
557.667	45940.55
557.866	45555.53
558.065	45653.83
558.265	45576.01
558.464	45459.27
558.663	46004.03
558.863	45147.98
559.062	45885.25
559.261	44945.23
559.461	45965.12
559.66	45037.39
559.859	45625.16
560.058	44916.56
560.258	45365.07
560.457	44431.19
560.656	45498.19
560.855	45039.44
561.054	44934.99
561.253	44791.64
561.453	44793.68
561.652	45104.98
561.851	45201.23
562.05	44877.65
562.249	44754.77
562.448	45188.94
562.647	44812.12
562.846	44822.36
563.045	44523.35
563.244	44220.25
563.443	44859.22
563.642	44117.85
563.841	44556.12
564.04	44379.99
564.239	44773.2
564.438	44423
564.637	44715.86
564.836	44375.9
565.035	43462.5
565.234	44171.1
565.432	43847.52
565.631	43882.34
565.83	43988.83
566.029	43548.52
566.228	43513.7
566.427	43888.48
566.625	43249.52
566.824	43151.21
567.023	43495.27
567.222	42915.7
567.42	43562.86
567.619	43263.85
567.818	43495.27
568.016	43026.29
568.215	43474.79
568.414	42815.35
568.612	43192.17
568.811	42563.45
569.01	43126.64
569.208	42637.17
569.407	43024.24
569.605	42248.06
569.804	42815.35
570.002	42188.67
570.201	42868.59
570.4	42381.18
570.598	42178.43
570.797	42002.3
570.995	42205.05
571.193	42063.74
571.392	42250.11
571.59	41518.98
571.789	41893.76
571.987	41635.72
572.186	41875.33
572.384	41553.8
572.582	41691.01
572.781	41547.65
572.979	41107.34
573.177	41553.8
573.376	41381.77
573.574	40931.22
573.772	41420.68
573.971	40939.41
574.169	40916.88
574.367	40499.09
574.565	40927.12
574.763	40427.42
574.962	40538.01
575.16	40294.3
575.358	40554.39
575.556	40398.74
575.754	40880.02
575.952	40282.01
576.151	40638.36
576.349	39896.99
576.547	39940
576.745	40234.91
576.943	40282.01
577.141	40050.59
577.339	39747.49
577.537	39862.18
577.735	39790.5
577.933	39462.82
578.131	39237.55
578.329	39397.29
578.527	39153.58
578.725	39262.12
578.923	39212.97
579.121	38981.55
579.319	39045.04
579.516	39448.49
579.714	39137.19
579.912	38848.43
580.11	38893.49
580.308	38604.72
580.506	38528.95
580.704	38404.02
580.901	38604.72
581.099	38461.37
581.297	38285.24
581.495	37937.09
581.692	38330.3
581.89	37783.49
582.088	38152.12
582.285	37978.04
582.483	37892.03
582.681	37631.94
582.878	37586.88
583.076	37341.13
583.274	37318.6
583.471	37046.22
583.669	37216.2
583.866	37033.93
584.064	37396.42
584.262	36763.6
584.459	37074.89
584.657	36526.03
584.854	36931.53
585.052	36437.97
585.249	36919.24
585.447	36366.29
585.644	36571.09
585.841	36321.24
586.039	36638.67
586.236	35733.47
586.434	35686.37
586.631	35991.51
586.828	35565.54
587.026	35848.16
587.223	35657.7
587.42	35684.32
587.618	35889.12
587.815	35123.18
588.012	35098.6
588.21	35344.36
588.407	35479.52
588.604	35045.35
588.801	34795.5
588.999	34938.86
589.196	34945
589.393	34768.88
589.59	34349.04
589.787	34383.86
589.984	34387.96
590.182	34230.26
590.379	34488.31
590.576	33968.12
590.773	34465.78
590.97	33699.84
591.167	34127.86
591.364	33374.21
591.561	34144.25
591.758	33415.17
591.955	33581.06
592.152	33589.25
592.349	33193.99
592.546	33531.9
592.743	33191.94
592.94	32874.51
593.137	33128.45
593.334	32811.02
593.531	32686.09
593.727	32778.25
593.924	32804.88
594.121	32591.89
594.318	32847.88
594.515	32020.5
594.712	32354.32
594.908	32335.89
595.105	32268.31
595.302	31690.78
595.499	32180.24
595.696	31836.19
595.892	31842.33
596.089	31832.09
596.286	31877.15
596.482	31522.85
596.679	31557.66
596.876	31635.49
597.072	31602.72
597.269	31098.92
597.466	30947.37
597.662	30967.85
597.859	31023.14
598.055	30943.27
598.252	30830.63
598.448	30490.67
598.645	30513.2
598.841	30279.73
599.038	30224.43
599.234	30572.59
599.431	29923.38
599.627	30064.69
599.824	30449.71
600.02	29810.75
600.217	30091.32
600.413	29679.68
600.609	29741.11
600.806	29311.04
601.002	29403.2
601.198	29409.34
601.395	29345.86
601.591	29360.19
601.787	29374.53
601.984	28741.71
602.18	29276.23
602.376	28969.03
602.572	28764.23
602.769	28690.51
602.965	28514.38
603.161	28575.82
603.357	28551.24
603.553	28745.8
603.75	28489.81
603.946	28196.95
604.142	28366.93
604.338	28029.01
604.534	28110.93
604.73	28065.88
604.926	27902.04
605.122	27965.53
605.318	27775.06
605.514	27988.05
605.71	27234.4
605.906	28010.58
606.102	27463.77
606.298	27482.2
606.494	27164.77
606.69	27596.89
606.886	27297.89
607.082	27084.9
607.278	27175.01
607.474	26880.1
607.67	27258.98
607.866	26712.17
608.062	26968.16
608.257	26951.78
608.453	26966.12
608.649	26755.18
608.845	26673.26
609.041	26671.21
609.236	26589.29
609.432	26534
609.628	26656.87
609.824	26570.86
610.019	26495.08
610.215	26478.7
610.411	25919.6
610.606	26112.11
610.802	26075.25
610.998	26308.72
611.193	25856.12
611.389	26026.1
611.584	26187.89
611.78	25946.23
611.976	25456.76
612.171	25761.91
612.367	25766.01
612.562	25610.36
612.758	25270.4
612.953	25487.48
613.149	25737.34
613.344	25583.74
613.539	25596.03
613.735	25647.22
613.93	25180.29
614.126	25237.63
614.321	25577.59
614.517	24869
614.712	25278.59
614.907	25256.06
615.103	25434.24
615.298	25280.64
615.493	25149.57
615.688	24764.55
615.884	25550.97
616.079	25053.31
616.274	24858.76
616.47	24561.8
616.665	25038.98
616.86	24805.51
617.055	24664.2
617.25	24559.75
617.445	24533.13
617.641	24248.46
617.836	24903.81
618.031	24248.46
618.226	24240.27
618.421	24397.96
618.616	24258.7
618.811	24111.25
619.006	23939.22
619.201	23703.7
619.396	23965.84
619.591	23797.91
619.786	24131.73
619.981	23269.53
620.176	23507.1
620.371	23410.84
620.566	23632.02
620.761	23138.46
620.956	23322.78
621.151	22890.66
621.346	23085.22
621.541	22665.38
621.735	22857.89
621.93	22483.11
622.125	22241.45
622.32	22290.6
622.515	22112.43
622.709	22347.95
622.904	22186.16
623.099	21770.42
623.294	21948.59
623.488	21645.49
623.683	21625.01
623.878	21358.78
624.072	21459.13
624.267	21244.09
624.462	21020.86
624.656	21051.58
624.851	21133.5
625.046	21000.38
625.24	20873.41
625.435	20480.2
625.629	20574.41
625.824	20416.71
626.018	20240.59
626.213	20013.26
626.407	20166.86
626.602	19769.55
626.796	19896.53
626.991	19759.31
627.185	19898.58
627.38	19493.08
627.574	19685.59
627.768	19427.54
627.963	19247.32
628.157	19093.72
628.352	19159.26
628.546	18821.34
628.74	18997.47
628.935	18747.62
629.129	18718.95
629.323	18589.92
629.517	18342.12
629.712	18465
629.906	18366.7
630.1	18020.59
630.294	18225.39
630.489	18098.41
630.683	18090.22
630.877	17926.38
631.071	17750.26
631.265	17776.88
631.459	17662.19
631.653	17567.99
631.848	17236.22
632.042	17297.66
632.236	17563.89
632.43	16818.43
632.624	17221.88
632.818	16810.24
633.012	16640.26
633.206	16853.25
633.4	16591.11
633.594	16288.01
633.788	16498.95
633.982	16427.27
634.176	16472.32
634.369	16015.63
634.563	16337.16
634.757	16275.72
634.951	16044.3
635.145	15847.69
635.339	15948.04
635.533	15644.95
635.726	15845.65
635.92	15708.43
636.114	15530.26
636.308	15425.81
636.501	15442.2
636.695	15391
636.889	15124.76
637.083	15280.41
637.276	15040.79
637.47	14907.68
637.664	14821.66
637.857	14721.31
638.051	15003.93
638.244	14709.02
638.438	14756.13
638.632	14690.59
638.825	14610.72
639.019	14575.91
639.212	14121.26
639.406	14229.8
639.599	14336.29
639.793	14278.95
639.986	13842.73
640.18	14154.02
640.373	13928.75
640.567	13848.88
640.76	13832.49
640.954	13592.88
641.147	13707.57
641.34	13969.71
641.534	13461.81
641.727	13406.52
641.92	13232.44
642.114	13283.64
642.307	13308.21
642.5	13130.04
642.694	12788.03
642.887	12917.05
643.08	13029.69
643.273	13013.31
643.467	12878.14
643.66	12646.72
643.853	12835.13
644.046	12542.27
644.239	12491.07
644.432	12462.4
644.626	12503.36
644.819	12431.68
645.012	12452.16
645.205	12546.37
645.398	12269.89
645.591	12179.78
645.784	11938.12
645.977	11860.3
646.17	12130.63
646.363	11731.28
646.556	11657.55
646.749	11794.76
646.942	11643.21
647.135	11772.24
647.328	11657.55
647.521	11737.42
647.714	11305.3
647.907	11452.75
648.099	11405.65
648.292	11211.09
648.485	11360.59
648.678	10983.77
648.871	11041.11
649.064	11002.2
649.256	11092.31
649.449	11030.87
649.642	10713.44
649.835	10848.6
650.027	11096.41
650.22	10770.78
650.413	10672.48
650.605	10854.75
650.798	10553.69
650.991	10498.4
651.183	10723.68
651.376	10266.98
651.568	10447.2
651.761	10342.75
651.954	10252.64
652.146	10246.5
652.339	10015.08
652.531	10027.37
652.724	10074.47
652.916	9804.14
653.109	9740.65
653.301	9980.26
653.494	10125.67
653.686	9816.43
653.879	9750.89
654.071	9849.19
654.263	9658.73
654.456	9632.11
654.648	9748.84
654.84	9406.83
655.033	9343.35
655.225	9498.99
655.417	9374.06
655.61	9333.11
655.802	9320.82
655.994	9066.87
656.186	9255.28
656.379	9052.53
656.571	8999.29
656.763	8763.77
656.955	9021.81
657.148	9027.96
657.34	8956.28
657.532	8731
657.724	8839.55
657.916	8479.1
658.108	8739.19
658.3	8561.02
658.492	8675.71
658.684	8429.95
658.876	8493.44
659.068	8554.88
659.26	8300.93
659.452	8468.86
659.644	8356.22
659.836	8307.07
660.028	8262.02
660.22	8133
660.412	8059.27
660.604	7786.89
660.796	8053.13
660.988	8079.75
661.18	7752.07
661.372	7985.54
661.563	7963.01
661.755	7727.5
661.947	7764.36
662.139	7715.21
662.331	7692.68
662.522	7627.15
662.714	7645.58
662.906	7578
663.097	7606.67
663.289	7446.93
663.481	7551.37
663.673	7403.92
663.864	7496.08
664.056	7334.29
664.247	7291.28
664.439	7502.22
664.631	7238.03
664.822	7211.41
665.014	7238.03
665.205	7266.71
665.397	7106.96
665.588	6977.94
665.78	6979.99
665.971	7088.53
666.163	6984.09
666.354	6967.7
666.546	6885.78
666.737	6787.48
666.929	6775.19
667.12	6773.14
667.311	6707.61
667.503	6746.52
667.694	6576.54
667.885	6654.36
668.077	6713.75
668.268	6338.98
668.459	6558.11
668.651	6435.23
668.842	6635.93
669.033	6349.22
669.224	6468
669.416	6445.47
669.607	6361.5
669.798	6343.07
669.989	6259.1
670.18	6226.34
670.371	6130.08
670.563	6205.86
670.754	6111.65
670.945	6048.16
671.136	6275.49
671.327	6060.45
671.518	5910.95
671.709	6044.07
671.9	6103.46
672.091	5996.96
672.282	5882.28
672.473	5876.13
672.664	5984.68
672.855	5783.98
673.046	5761.45
673.237	5896.61
673.428	5691.82
673.619	5890.47
673.809	5798.31
674	5773.74
674.191	5753.26
674.382	5622.19
674.573	5624.23
674.764	5532.08
674.954	5497.26
675.145	5558.7
675.336	5542.32
675.527	5503.4
675.717	5554.6
675.908	5358
676.099	5499.31
676.289	5439.92
676.48	5282.22
676.671	5235.12
676.861	5138.87
677.052	5278.13
677.243	5386.67
677.433	5271.98
677.624	5212.59
677.814	5239.22
678.005	5157.3
678.195	5200.3
678.386	5169.59
678.576	5020.08
678.767	5204.4
678.957	5073.33
679.148	5235.12
679.338	5022.13
679.529	5097.91
679.719	4919.73
679.909	5067.19
680.1	4997.56
680.29	5050.8
680.481	5034.42
680.671	4913.59
680.861	4907.45
681.052	4858.29
681.242	4993.46
681.432	4884.92
681.622	4735.42
681.813	4739.51
682.003	4624.83
682.193	4762.04
682.383	4776.38
682.573	4702.65
682.764	4618.68
682.954	4678.07
683.144	4686.26
683.334	4788.66
683.524	4569.53
683.714	4688.31
683.904	4432.32
684.094	4504
684.284	4645.31
684.474	4577.72
684.664	4680.12
684.854	4440.51
685.044	4331.97
685.234	4467.13
685.424	4467.13
685.614	4460.99
685.804	4438.46
685.994	4313.53
686.184	4477.37
686.374	4374.97
686.564	4274.62
686.753	4280.77
686.943	4184.51
687.133	4192.7
687.323	4116.93
687.513	4168.13
687.702	4125.12
687.892	4051.39
688.082	4043.2
688.272	4125.12
688.461	4092.35
688.651	4024.77
688.841	4028.87
689.03	3973.57
689.22	4018.63
689.41	4020.67
689.599	4004.29
689.789	3942.85
689.979	3887.56
690.168	4071.87
690.358	3957.19
690.547	3873.22
690.737	3873.22
690.926	3807.69
691.116	3621.32
691.305	3736.01
691.495	3787.21
691.684	3656.14
691.874	3664.33
692.063	3744.2
692.252	3596.75
692.442	3762.63
692.631	3615.18
692.82	3639.75
693.01	3566.03
693.199	3584.46
693.388	3529.16
693.578	3613.13
693.767	3523.02
693.956	3580.36
694.146	3459.53
694.335	3439.05
694.524	3432.91
694.713	3463.63
694.902	3508.68
695.092	3293.65
695.281	3402.19
695.47	3303.89
695.659	3250.64
695.848	3314.13
696.037	3350.99
696.226	3332.56
696.415	3307.98
696.604	3328.46
696.793	3207.63
696.982	3193.3
697.171	3156.43
697.36	3232.21
697.549	3197.39
697.738	3150.29
697.927	3068.37
698.116	3154.38
698.305	3058.13
698.494	3039.7
698.683	3129.81
698.872	3113.42
699.061	3109.33
699.25	3027.41
699.438	3006.93
699.627	3160.53
699.816	3111.38
700.005	3045.84
700.193	2982.35
700.382	3076.56
700.571	3058.13
700.76	3066.32
700.948	2933.2
701.137	2933.2
701.326	2886.1
701.514	2908.63
701.703	2980.31
701.892	3021.27
702.08	3062.23
702.269	2972.11
702.457	2843.09
702.646	2841.04
702.834	2918.87
703.023	2834.9
703.212	2875.86
703.4	2781.65
703.589	2804.18
703.777	2914.77
703.965	2675.16
704.154	2728.41
704.342	2933.2
704.531	2828.76
704.719	2724.31
704.907	2834.9
705.096	2705.88
705.284	2787.8
705.472	2765.27
705.661	2568.66
705.849	2716.12
706.037	2759.13
706.226	2675.16
706.414	2730.45
706.602	2603.48
706.79	2693.59
706.979	2707.93
707.167	2722.26
707.355	2611.67
707.543	2654.68
707.731	2705.88
707.919	2699.73
708.107	2601.43
708.296	2712.02
708.484	2585.05
708.672	2564.57
708.86	2617.82
709.048	2654.68
709.236	2568.66
709.424	2572.76
709.612	2621.91
709.8	2640.34
709.988	2519.51
710.176	2548.19
710.364	2709.97
710.551	2539.99
710.739	2615.77
710.927	2589.14
711.115	2519.51
711.303	2537.95
711.491	2535.9
711.679	2486.75
711.866	2492.89
712.054	2615.77
712.242	2445.79
712.43	2478.55
712.617	2576.86
712.805	2478.55
712.993	2562.52
713.181	2445.79
713.368	2439.64
713.556	2470.36
713.744	2511.32
713.931	2441.69
714.119	2519.51
714.306	2390.49
714.494	2488.79
714.682	2431.45
714.869	2363.87
715.057	2427.35
715.244	2380.25
715.432	2476.51
715.619	2425.31
715.807	2423.26
715.994	2314.72
716.182	2505.18
716.369	2476.51
716.556	2376.16
716.744	2288.09
716.931	2370.01
717.119	2378.2
717.306	2519.51
717.493	2462.17
717.681	2335.2
717.868	2310.62
718.055	2265.57
718.242	2355.68
718.43	2499.03
718.617	2431.45
718.804	2331.1
718.991	2357.72
719.179	2378.2
719.366	2496.99
719.553	2339.29
719.74	2339.29
719.927	2322.91
720.114	2367.96
720.301	2294.24
720.488	2277.85
720.676	2253.28
720.863	2327
721.05	2306.52
721.237	2468.31
721.424	2372.06
721.611	2310.62
721.798	2306.52
721.985	2417.12
722.172	2275.81
722.358	2353.63
722.545	2298.33
722.732	2312.67
722.919	2425.31
723.106	2286.05
723.293	2349.53
723.48	2435.55
723.667	2314.72
723.853	2279.9
724.04	2357.72
724.227	2402.78
724.414	2181.6
724.6	2298.33
724.787	2279.9
724.974	2347.48
725.161	2138.59
725.347	2306.52
725.534	2304.48
725.72	2322.91
725.907	2247.13
726.094	2265.57
726.28	2167.26
726.467	2306.52
726.653	2220.51
726.84	2267.61
727.027	2296.28
727.213	2173.41
727.4	2251.23
727.586	2245.09
727.773	2314.72
727.959	2240.99
728.145	2327
728.332	2318.81
728.518	2247.13
728.705	2355.68
728.891	2359.77
729.077	2236.89
729.264	2234.85
729.45	2310.62
729.636	2322.91
729.823	2224.61
730.009	2245.09
730.195	2292.19
730.382	2232.8
730.568	2284
730.754	2292.19
730.94	2304.48
731.126	2345.44
731.313	2382.3
731.499	2404.83
731.685	2122.21
731.871	2238.94
732.057	2273.76
732.243	2249.18
732.429	2247.13
732.615	2222.56
732.801	2183.65
732.987	2318.81
733.173	2128.35
733.359	2208.22
733.545	2111.97
733.731	2206.17
733.917	2259.42
734.103	2267.61
734.289	2353.63
734.475	2220.51
734.661	2296.28
734.847	2343.39
735.033	2195.93
735.219	2251.23
735.404	2339.29
735.59	2148.83
735.776	2310.62
735.962	2308.57
736.148	2398.68
736.333	2228.7
736.519	2249.18
736.705	2306.52
736.89	2202.08
737.076	2327
737.262	2236.89
737.447	2320.86
737.633	2226.65
737.819	2140.64
738.004	2267.61
738.19	2251.23
738.375	2312.67
738.561	2243.04
738.747	2179.55
738.932	2185.69
739.118	2339.29
739.303	2261.47
739.489	2200.03
739.674	2107.87
739.859	2128.35
740.045	2189.79
740.23	2228.7
740.416	2206.17
740.601	2183.65
740.786	2277.85
740.972	2161.12
741.157	2068.96
741.342	2187.74
741.528	2236.89
741.713	2109.92
741.898	2197.98
742.084	2185.69
742.269	2236.89
742.454	2206.17
742.639	2208.22
742.824	2277.85
743.01	2138.59
743.195	2122.21
743.38	2136.54
743.565	2175.45
743.75	2124.26
743.935	2167.26
744.12	2052.58
744.305	2101.73
744.49	2091.49
744.675	2144.74
744.86	2001.38
745.045	2071.01
745.23	2036.19
745.415	2079.2
745.6	2048.48
745.785	2093.54
745.97	2132.45
746.155	2073.06
746.34	1933.79
746.525	1999.33
746.71	2013.67
746.895	1948.13
747.079	2019.81
747.264	1987.04
747.449	2015.71
747.634	1999.33
747.819	1968.61
748.003	1987.04
748.188	2025.95
748.373	1997.28
748.557	1941.99
748.742	1956.32
748.927	1970.66
749.111	1960.42
749.296	1939.94
749.481	2001.38
749.665	2034.14
749.85	1855.97
750.034	1950.18
750.219	1804.77
750.404	1823.2
750.588	1782.24
750.773	1741.29
750.957	1860.07
751.141	1827.3
751.326	1845.73
751.51	1776.1
751.695	1778.15
751.879	1722.85
752.064	1827.3
752.248	1886.69
752.432	1892.84
752.617	1827.3
752.801	1706.47
752.985	1817.06
753.17	1831.4
753.354	1743.33
753.538	1788.39
753.722	1753.57
753.907	1763.81
754.091	1667.56
754.275	1651.17
754.459	1741.29
754.643	1653.22
754.828	1741.29
755.012	1708.52
755.196	1634.79
755.38	1716.71
755.564	1608.17
755.748	1561.06
755.932	1624.55
756.116	1624.55
756.3	1624.55
756.484	1610.22
756.668	1546.73
756.852	1507.82
757.036	1499.63
757.22	1503.72
757.404	1509.86
757.588	1495.53
757.772	1632.74
757.956	1479.15
758.14	1548.78
758.323	1485.29
758.507	1481.19
758.691	1448.43
758.875	1487.34
759.059	1468.91
759.242	1475.05
759.426	1438.19
759.61	1456.62
759.794	1382.89
759.977	1477.1
760.161	1470.95
760.345	1456.62
760.528	1434.09
760.712	1327.6
760.895	1399.27
761.079	1438.19
761.263	1368.56
761.446	1419.75
761.63	1399.27
761.813	1444.33
761.997	1386.99
762.18	1292.78
762.364	1432.04
762.547	1323.5
762.731	1325.55
762.914	1391.08
763.098	1354.22
763.281	1405.42
763.464	1298.92
763.648	1325.55
763.831	1198.57
764.015	1348.08
764.198	1229.29
764.381	1386.99
764.564	1243.63
764.748	1274.35
764.931	1339.88
765.114	1280.49
765.297	1237.49
765.481	1239.53
765.664	1278.44
765.847	1221.1
766.03	1262.06
766.213	1239.53
766.397	1247.72
766.58	1225.2
766.763	1190.38
766.946	1276.4
767.129	1227.25
767.312	1249.77
767.495	1204.72
767.678	1163.76
767.861	1217.01
768.044	1257.96
768.227	1235.44
768.41	1262.06
768.593	1163.76
768.776	1260.01
768.959	1227.25
769.142	1227.25
769.324	1174
769.507	1096.18
769.69	1204.72
769.873	1241.58
770.056	1165.81
770.239	1135.09
770.421	1208.81
770.604	1167.85
770.787	1290.73
770.97	1087.98
771.152	1122.8
771.335	1094.13
771.518	1053.17
771.7	1122.8
771.883	1204.72
772.066	1055.22
772.248	1073.65
772.431	1176.05
772.613	1092.08
772.796	1071.6
772.978	1059.31
773.161	1022.45
773.343	1081.84
773.526	1090.03
773.708	1047.02
773.891	1069.55
774.073	1081.84
774.256	1081.84
774.438	1104.37
774.621	1004.02
774.803	1034.74
774.985	1032.69
775.168	922.1
775.35	1051.12
775.532	1057.26
775.715	963.06
775.897	887.28
776.079	981.49
776.261	1044.98
776.444	1051.12
776.626	1008.11
776.808	1018.35
776.99	915.95
777.173	891.38
777.355	948.72
777.537	801.27
777.719	874.99
777.901	879.09
778.083	829.94
778.265	913.91
778.447	954.87
778.629	854.51
778.811	842.23
778.993	852.47
779.175	895.47
779.357	842.23
779.539	856.56
779.721	911.86
779.903	807.41
780.085	887.28
780.267	858.61
780.449	815.6
780.631	807.41
780.812	805.36
780.994	772.6
781.176	723.44
781.358	774.64
781.54	788.98
781.721	741.88
781.903	821.75
782.085	874.99
782.267	729.59
782.448	772.6
782.63	786.93
782.812	778.74
782.993	666.1
783.175	776.69
783.357	737.78
783.538	731.64
783.72	696.82
783.901	731.64
784.083	721.4
784.264	629.24
784.446	727.54
784.627	580.09
784.809	649.72
784.99	692.73
785.172	637.43
785.353	694.77
785.535	625.14
785.716	659.96
785.897	559.61
786.079	606.71
786.26	555.51
786.441	530.94
786.623	643.57
786.804	528.89
786.985	606.71
787.167	584.18
787.348	559.61
787.529	578.04
787.71	631.29
787.891	635.38
788.073	596.47
788.254	537.08
788.435	662.01
788.616	532.98
788.797	561.66
788.978	494.07
789.159	633.33
789.34	563.7
789.522	584.18
789.703	555.51
789.884	561.66
790.065	465.4
790.246	461.3
790.427	598.52
790.607	561.66
790.788	510.46
790.969	555.51
791.15	537.08
791.331	545.27
791.512	500.22
791.693	446.97
791.874	502.26
792.054	539.13
792.235	559.61
792.416	422.39
792.597	432.63
792.778	436.73
792.958	485.88
793.139	457.21
793.32	471.54
793.5	446.97
793.681	483.83
793.862	322.04
794.042	514.55
794.223	444.92
794.404	467.45
794.584	461.3
794.765	434.68
794.945	420.35
795.126	481.78
795.306	496.12
795.487	426.49
795.667	338.43
795.848	418.3
796.028	467.45
796.209	381.43
796.389	438.78
796.57	391.67
796.75	356.86
796.93	317.95
797.111	354.81
797.291	334.33
797.471	410.11
797.652	365.05
797.832	346.62
798.012	369.15
798.192	371.19
798.373	375.29
798.553	383.48
798.733	352.76
798.913	336.38
799.093	356.86
799.274	354.81
799.454	426.49
799.634	295.42
799.814	317.95
799.994	406.01
800.174	291.32
800.354	317.95
800.534	242.17
800.714	281.08
800.894	320
801.074	266.75
801.254	307.71
801.434	365.05
801.614	385.53
801.794	231.93
801.974	1042.93
802.154	297.47
802.334	360.95
802.514	317.95
802.693	367.1
802.873	279.04
803.053	358.91
803.233	317.95
803.413	295.42
803.592	326.14
803.772	328.19
803.952	262.65
804.131	281.08
804.311	205.31
804.491	268.8
804.67	287.23
804.85	317.95
805.03	311.8
805.209	246.27
805.389	281.08
805.568	248.32
805.748	336.38
805.928	233.98
806.107	354.81
806.287	256.51
806.466	289.28
806.646	264.7
806.825	320
807.004	256.51
807.184	279.04
807.363	279.04
807.543	238.08
807.722	254.46
807.901	315.9
808.081	203.26
808.26	242.17
808.439	295.42
808.619	209.4
808.798	238.08
808.977	240.12
809.156	231.93
809.336	260.6
809.515	279.04
809.694	252.41
809.873	268.8
810.052	322.04
810.231	336.38
810.411	240.12
810.59	301.56
810.769	256.51
810.948	309.76
811.127	256.51
811.306	227.84
811.485	283.13
811.664	242.17
811.843	178.69
812.022	215.55
812.201	213.5
812.38	197.12
812.559	244.22
812.737	242.17
812.916	174.59
813.095	180.73
813.274	154.11
813.453	231.93
813.632	199.16
813.811	233.98
813.989	221.69
814.168	229.88
814.347	233.98
814.526	227.84
814.704	193.02
814.883	274.94
815.062	154.11
815.24	270.84
815.419	145.92
815.598	197.12
815.776	162.3
815.955	213.5
816.133	70.14
816.312	152.06
816.49	145.92
816.669	193.02
816.847	170.49
817.026	147.97
817.204	164.35
817.383	195.07
817.561	236.03
817.74	201.21
817.918	184.83
818.097	172.54
818.275	154.11
818.453	238.08
818.632	305.66
818.81	135.68
818.988	129.53
819.167	172.54
819.345	172.54
819.523	162.3
819.701	156.16
819.879	221.69
820.058	166.4
820.236	174.59
820.414	154.11
820.592	104.96
820.77	182.78
820.948	131.58
821.127	186.88
821.305	170.49
821.483	213.5
821.661	229.88
821.839	117.25
822.017	158.21
822.195	131.58
822.373	115.2
822.551	168.45
822.729	135.68
822.907	109.05
823.085	188.93
823.262	80.38
823.44	119.29
823.618	162.3
823.796	166.4
823.974	145.92
824.152	104.96
824.329	215.55
824.507	139.77
824.685	197.12
824.863	107.01
825.04	133.63
825.218	207.36
825.396	152.06
825.574	61.95
825.751	242.17
825.929	154.11
826.107	-1.54
826.284	180.73
826.462	141.82
826.639	176.64
826.817	193.02
826.994	111.1
827.172	141.82
827.349	164.35
827.527	107.01
827.704	129.53
827.882	158.21
828.059	119.29
828.237	84.48
828.414	182.78
828.591	164.35
828.769	197.12
828.946	104.96
829.124	139.77
829.301	125.44
829.478	182.78
829.655	129.53
829.833	111.1
830.01	141.82
830.187	74.24
830.364	170.49
830.542	123.39
830.719	176.64
830.896	127.49
831.073	158.21
831.25	113.15
831.427	78.33
831.604	164.35
831.782	90.62
831.959	100.86
832.136	98.81
832.313	166.4
832.49	129.53
832.667	143.87
832.844	102.91
833.021	113.15
833.198	100.86
833.374	117.25
833.551	147.97
833.728	137.73
833.905	133.63
834.082	80.38
834.259	107.01
834.436	109.05
834.612	102.91
834.789	41.47
834.966	141.82
835.143	125.44
835.319	84.48
835.496	113.15
835.673	121.34
835.85	121.34
836.026	109.05
836.203	180.73
836.38	119.29
836.556	64
836.733	53.76
836.909	111.1
837.086	96.77
837.262	152.06
837.439	145.92
837.616	111.1
837.792	100.86
837.968	131.58
838.145	29.18
838.321	51.71
838.498	127.49
838.674	162.3
838.851	47.62
839.027	68.09
839.203	-5.63
839.38	102.91
839.556	61.95
839.732	133.63
839.909	70.14
840.085	113.15
840.261	49.66
840.437	6.66
840.614	49.66
840.79	98.81
840.966	78.33
841.142	115.2
841.318	100.86
841.494	156.16
841.671	147.97
841.847	117.25
842.023	90.62
842.199	100.86
842.375	125.44
842.551	59.9
842.727	53.76
842.903	209.4
843.079	96.77
843.255	88.57
843.431	113.15
843.607	51.71
843.783	55.81
843.959	121.34
844.134	39.42
844.31	137.73
844.486	113.15
844.662	70.14
844.838	125.44
845.013	51.71
845.189	123.39
845.365	78.33
845.541	98.81
845.716	-13.82
845.892	135.68
846.068	14.85
846.244	94.72
846.419	35.33
846.595	-1.54
846.77	66.05
846.946	117.25
847.122	23.04
847.297	113.15
847.473	166.4
847.648	70.14
847.824	117.25
847.999	57.86
848.175	31.23
848.35	68.09
848.526	119.29
848.701	45.57
848.876	68.09
849.052	98.81
849.227	92.67
849.403	86.53
849.578	76.29
849.753	43.52
849.929	27.14
850.104	39.42
850.279	59.9
850.454	43.52
850.63	6.66
850.805	70.14
850.98	51.71
851.155	-24.06
851.33	104.96
851.505	55.81
851.681	82.43
851.856	43.52
852.031	174.59
852.206	133.63
852.381	16.9
852.556	53.76
852.731	57.86
852.906	-3.58
853.081	86.53
853.256	61.95
853.431	90.62
853.606	25.09
853.781	14.85
853.956	0.51
854.131	25.09
854.305	64
854.48	57.86
854.655	43.52
854.83	20.99
855.005	55.81
855.18	117.25
855.354	57.86
855.529	70.14
855.704	-7.68
855.879	76.29
856.053	45.57
856.228	82.43
856.403	98.81
856.577	76.29
856.752	18.94
856.926	41.47
857.101	0.51
857.276	39.42
857.45	31.23
857.625	45.57
857.799	20.99
857.974	64
858.148	47.62
858.323	57.86
858.497	43.52
858.672	4.61
858.846	14.85
859.02	43.52
859.195	16.9
859.369	84.48
859.543	57.86
859.718	0.51
859.892	80.38
860.066	37.38
860.241	-26.11
860.415	14.85
860.589	-9.73
860.763	45.57
860.938	55.81
861.112	49.66
861.286	35.33
861.46	51.71
861.634	31.23
861.808	84.48
861.982	10.75
862.157	18.94
862.331	16.9
862.505	55.81
862.679	2.56
862.853	37.38
863.027	23.04
863.201	86.53
863.375	33.28
863.549	16.9
863.722	25.09
863.896	133.63
864.07	-22.02
864.244	86.53
864.418	88.57
864.592	115.2
864.766	49.66
864.939	-11.78
865.113	-60.93
865.287	72.19
865.461	-3.58
865.634	-19.97
865.808	127.49
865.982	18.94
866.156	35.33
866.329	-81.41
866.503	20.99
866.676	88.57
866.85	61.95
867.024	-15.87
867.197	0.51
867.371	70.14
867.544	23.04
867.718	31.23
867.891	51.71
868.065	20.99
868.238	53.76
868.412	98.81
868.585	82.43
868.759	64
868.932	33.28
869.105	-7.68
869.279	-1.54
869.452	-50.69
869.625	78.33
869.799	92.67
869.972	8.7
870.145	29.18
870.319	33.28
870.492	12.8
870.665	23.04
870.838	0.51
871.011	-62.98
871.185	37.38
871.358	86.53
871.531	55.81
871.704	31.23
871.877	43.52
872.05	66.05
872.223	8.7
872.396	35.33
872.569	-9.73
872.742	4.61
872.915	14.85
873.088	29.18
873.261	25.09
873.434	49.66
873.607	-13.82
873.78	27.14
873.953	0.51
874.126	10.75
874.299	92.67
874.471	20.99
874.644	25.09
874.817	37.38
874.99	53.76
875.163	88.57
875.335	43.52
875.508	23.04
875.681	27.14
875.853	39.42
876.026	18.94
876.199	72.19
876.371	123.39
876.544	-38.4
876.717	66.05
876.889	-24.06
877.062	41.47
877.234	4.61
877.407	-3.58
877.579	35.33
877.752	76.29
877.924	64
878.097	-5.63
878.269	0.51
878.442	125.44
878.614	14.85
878.786	90.62
878.959	25.09
879.131	25.09
879.303	-40.45
879.476	-32.26
879.648	25.09
879.82	31.23
879.993	10.75
880.165	-17.92
880.337	-38.4
880.509	29.18
880.681	-44.54
880.854	-42.5
881.026	35.33
881.198	57.86
881.37	35.33
881.542	0.51
881.714	-30.21
881.886	-1.54
882.058	-9.73
882.23	-19.97
882.402	-17.92
882.574	-17.92
882.746	14.85
882.918	29.18
883.09	53.76
883.262	-42.5
883.434	0.51
883.606	4.61
883.778	51.71
883.95	104.96
884.122	-3.58
884.293	80.38
884.465	64
884.637	31.23
884.809	-9.73
884.98	-38.4
885.152	-22.02
885.324	53.76
885.496	12.8
885.667	66.05
885.839	35.33
886.011	55.81
886.182	6.66
886.354	12.8
886.525	-50.69
886.697	51.71
886.869	27.14
887.04	-13.82
887.212	31.23
887.383	23.04
887.555	-19.97
887.726	-69.12
887.897	-9.73
888.069	29.18
888.24	70.14
888.412	-30.21
888.583	-15.87
888.754	29.18
888.926	-11.78
889.097	47.62
889.268	-3.58
889.44	49.66
889.611	-46.59
889.782	-28.16
889.953	12.8
890.125	35.33
890.296	57.86
890.467	12.8
890.638	-34.3
890.809	2.56
890.98	37.38
891.151	14.85
891.323	14.85
891.494	29.18
891.665	31.23
891.836	-38.4
892.007	35.33
892.178	14.85
892.349	-1.54
892.52	-105.98
892.691	-11.78
892.862	90.62
893.032	-89.6
893.203	68.09
893.374	-69.12
893.545	41.47
893.716	-75.26
893.887	18.94
894.057	14.85
894.228	66.05
894.399	27.14
894.57	51.71
894.74	-15.87
894.911	70.14
895.082	18.94
895.253	23.04
895.423	55.81
895.594	-7.68
895.764	4.61
895.935	-40.45
896.106	35.33
896.276	-11.78
896.447	64
896.617	45.57
896.788	20.99
896.958	-5.63
897.129	10.75
897.299	-15.87
897.47	27.14
897.64	14.85
897.81	-83.45
897.981	64
898.151	-22.02
898.322	64
898.492	-5.63
898.662	-15.87
898.832	16.9
899.003	-5.63
899.173	14.85
899.343	-40.45
899.513	41.47
