Data from USB4F104151__94__12-42-56-593.txt Node

Date: Fri Mar 14 12:42:56 EDT 2025
User: louis
Spectrometer: USB4F10415
Trigger mode: 4
Integration Time (sec): 3.000000E-2
Scans to average: 1
Electric dark correction enabled: true
Nonlinearity correction enabled: false
Boxcar width: 0
XAxis mode: Wavelengths
Number of Pixels in Spectrum: 3648
>>>>>Begin Spectral Data<<<<<
178.204	-179.88
178.424	-179.88
178.644	-179.88
178.864	-155.3
179.084	-159.4
179.304	22.87
179.524	20.82
179.744	8.53
179.964	20.82
180.184	26.96
180.404	-52.91
180.624	-54.95
180.844	69.97
181.064	-26.28
181.283	-5.8
181.503	-1.71
181.723	-28.33
181.943	-65.19
182.163	57.68
182.383	-40.62
182.602	2.39
182.822	33.11
183.042	20.82
183.262	78.16
183.482	31.06
183.701	-48.81
183.921	63.83
184.141	-36.52
184.361	37.2
184.58	49.49
184.8	-16.04
185.02	61.78
185.239	55.64
185.459	6.49
185.679	26.96
185.898	-75.43
186.118	33.11
186.338	-13.99
186.557	12.63
186.777	4.44
186.997	-59.05
187.216	16.73
187.436	84.31
187.655	43.35
187.875	51.54
188.095	57.68
188.314	-3.75
188.534	2.39
188.753	69.97
188.973	33.11
189.192	90.45
189.412	41.3
189.631	-22.19
189.851	26.96
190.07	74.07
190.29	-7.85
190.509	69.97
190.729	26.96
190.948	57.68
191.168	166.23
191.387	102.74
191.607	-30.38
191.826	55.64
192.045	-18.09
192.265	-30.38
192.484	14.68
192.704	84.31
192.923	-106.15
193.142	106.84
193.362	35.16
193.581	100.69
193.8	102.74
194.02	57.68
194.239	92.5
194.458	33.11
194.678	55.64
194.897	55.64
195.116	-7.85
195.335	37.2
195.555	33.11
195.774	45.4
195.993	29.01
196.212	26.96
196.432	-1.71
196.651	-1.71
196.87	16.73
197.089	108.88
197.308	47.44
197.528	-7.85
197.747	31.06
197.966	14.68
198.185	100.69
198.404	65.88
198.623	63.83
198.842	63.83
199.062	67.92
199.281	49.49
199.5	39.25
199.719	39.25
199.938	108.88
200.157	53.59
200.376	76.12
200.595	88.4
200.814	88.4
201.033	47.44
201.252	108.88
201.471	8.53
201.69	55.64
201.909	39.25
202.128	-1.71
202.347	55.64
202.566	12.63
202.785	-7.85
203.004	-30.38
203.223	139.6
203.442	16.73
203.661	24.92
203.879	2.39
204.098	49.49
204.317	33.11
204.536	100.69
204.755	112.98
204.974	43.35
205.193	65.88
205.411	102.74
205.63	37.2
205.849	6.49
206.068	18.77
206.287	0.34
206.505	26.96
206.724	12.63
206.943	55.64
207.162	61.78
207.381	51.54
207.599	41.3
207.818	22.87
208.037	22.87
208.255	-3.75
208.474	-28.33
208.693	35.16
208.911	112.98
209.13	41.3
209.349	2.39
209.567	-24.23
209.786	119.12
210.005	18.77
210.223	37.2
210.442	55.64
210.661	45.4
210.879	-20.14
211.098	16.73
211.316	65.88
211.535	-3.75
211.753	-46.76
211.972	53.59
212.191	-36.52
212.409	69.97
212.628	26.96
212.846	96.6
213.065	78.16
213.283	112.98
213.502	14.68
213.72	-1.71
213.938	20.82
214.157	63.83
214.375	14.68
214.594	8.53
214.812	90.45
215.031	86.36
215.249	12.63
215.467	72.02
215.686	-24.23
215.904	67.92
216.122	-9.9
216.341	76.12
216.559	37.2
216.778	108.88
216.996	98.64
217.214	61.78
217.432	4.44
217.651	59.73
217.869	12.63
218.087	16.73
218.306	0.34
218.524	69.97
218.742	2.39
218.96	47.44
219.179	45.4
219.397	20.82
219.615	110.93
219.833	69.97
220.051	39.25
220.27	51.54
220.488	94.55
220.706	6.49
220.924	-34.47
221.142	18.77
221.36	45.4
221.578	47.44
221.796	35.16
222.015	67.92
222.233	-22.19
222.451	45.4
222.669	41.3
222.887	69.97
223.105	-18.09
223.323	57.68
223.541	12.63
223.759	29.01
223.977	26.96
224.195	141.65
224.413	55.64
224.631	47.44
224.849	26.96
225.067	141.65
225.285	16.73
225.503	-20.14
225.721	-22.19
225.939	98.64
226.157	-26.28
226.375	188.75
226.592	51.54
226.81	8.53
227.028	33.11
227.246	43.35
227.464	-26.28
227.682	51.54
227.9	24.92
228.117	37.2
228.335	-28.33
228.553	78.16
228.771	86.36
228.989	49.49
229.206	53.59
229.424	39.25
229.642	49.49
229.86	78.16
230.077	49.49
230.295	33.11
230.513	20.82
230.731	84.31
230.948	80.21
231.166	143.7
231.384	-9.9
231.601	-22.19
231.819	33.11
232.037	12.63
232.254	51.54
232.472	96.6
232.689	-3.75
232.907	29.01
233.125	16.73
233.342	-13.99
233.56	31.06
233.777	6.49
233.995	12.63
234.213	20.82
234.43	26.96
234.648	-20.14
234.865	20.82
235.083	43.35
235.3	24.92
235.518	20.82
235.735	112.98
235.953	37.2
236.17	-34.47
236.388	16.73
236.605	41.3
236.822	129.36
237.04	26.96
237.257	88.4
237.475	-13.99
237.692	63.83
237.909	24.92
238.127	31.06
238.344	2.39
238.562	20.82
238.779	-11.95
238.996	29.01
239.214	63.83
239.431	22.87
239.648	78.16
239.865	61.78
240.083	-22.19
240.3	65.88
240.517	-7.85
240.735	51.54
240.952	-1.71
241.169	115.03
241.386	22.87
241.603	37.2
241.821	-11.95
242.038	8.53
242.255	82.26
242.472	31.06
242.689	90.45
242.907	88.4
243.124	-7.85
243.341	63.83
243.558	35.16
243.775	-89.77
243.992	-52.91
244.209	72.02
244.426	84.31
244.643	67.92
244.86	4.44
245.078	41.3
245.295	39.25
245.512	10.58
245.729	31.06
245.946	61.78
246.163	22.87
246.38	10.58
246.597	20.82
246.814	72.02
247.031	69.97
247.248	37.2
247.464	39.25
247.681	14.68
247.898	59.73
248.115	0.34
248.332	53.59
248.549	-11.95
248.766	129.36
248.983	-34.47
249.2	57.68
249.417	24.92
249.633	88.4
249.85	90.45
250.067	-65.19
250.284	-1.71
250.501	47.44
250.717	-24.23
250.934	24.92
251.151	12.63
251.368	-9.9
251.585	86.36
251.801	24.92
252.018	-1.71
252.235	90.45
252.451	51.54
252.668	16.73
252.885	41.3
253.102	14.68
253.318	82.26
253.535	37.2
253.752	-11.95
253.968	78.16
254.185	-24.23
254.401	31.06
254.618	57.68
254.835	76.12
255.051	125.27
255.268	4.44
255.484	67.92
255.701	35.16
255.917	47.44
256.134	-59.05
256.351	29.01
256.567	43.35
256.784	31.06
257	31.06
257.217	96.6
257.433	82.26
257.65	96.6
257.866	-5.8
258.082	-34.47
258.299	18.77
258.515	72.02
258.732	-7.85
258.948	18.77
259.165	-16.04
259.381	16.73
259.597	10.58
259.814	76.12
260.03	33.11
260.246	37.2
260.463	90.45
260.679	53.59
260.895	-40.62
261.112	6.49
261.328	31.06
261.544	16.73
261.761	49.49
261.977	31.06
262.193	-5.8
262.409	80.21
262.626	12.63
262.842	12.63
263.058	-3.75
263.274	59.73
263.49	31.06
263.707	39.25
263.923	16.73
264.139	-36.52
264.355	51.54
264.571	110.93
264.787	2.39
265.004	45.4
265.22	51.54
265.436	67.92
265.652	4.44
265.868	29.01
266.084	-24.23
266.3	74.07
266.516	14.68
266.732	-9.9
266.948	-1.71
267.164	65.88
267.38	10.58
267.596	63.83
267.812	76.12
268.028	59.73
268.244	8.53
268.46	14.68
268.676	-3.75
268.892	90.45
269.108	-26.28
269.324	55.64
269.54	18.77
269.756	102.74
269.972	-30.38
270.188	37.2
270.403	47.44
270.619	-44.71
270.835	20.82
271.051	-28.33
271.267	80.21
271.483	49.49
271.698	72.02
271.914	16.73
272.13	47.44
272.346	-13.99
272.562	6.49
272.777	121.17
272.993	51.54
273.209	-7.85
273.425	72.02
273.64	12.63
273.856	45.4
274.072	-40.62
274.287	-46.76
274.503	-34.47
274.719	0.34
274.934	-9.9
275.15	69.97
275.366	90.45
275.581	35.16
275.797	45.4
276.012	33.11
276.228	51.54
276.444	8.53
276.659	84.31
276.875	86.36
277.09	22.87
277.306	76.12
277.521	24.92
277.737	-44.71
277.952	45.4
278.168	4.44
278.383	106.84
278.599	-24.23
278.814	16.73
279.03	6.49
279.245	94.55
279.461	16.73
279.676	16.73
279.892	8.53
280.107	49.49
280.322	14.68
280.538	67.92
280.753	0.34
280.969	119.12
281.184	18.77
281.399	24.92
281.615	24.92
281.83	-46.76
282.045	10.58
282.26	12.63
282.476	8.53
282.691	72.02
282.906	61.78
283.122	16.73
283.337	31.06
283.552	61.78
283.767	35.16
283.983	49.49
284.198	39.25
284.413	74.07
284.628	0.34
284.843	-5.8
285.058	31.06
285.274	47.44
285.489	-20.14
285.704	31.06
285.919	31.06
286.134	47.44
286.349	-20.14
286.564	55.64
286.779	65.88
286.995	2.39
287.21	31.06
287.425	51.54
287.64	59.73
287.855	22.87
288.07	-20.14
288.285	63.83
288.5	78.16
288.715	67.92
288.93	63.83
289.145	-3.75
289.36	20.82
289.575	82.26
289.79	145.75
290.004	12.63
290.219	67.92
290.434	-3.75
290.649	0.34
290.864	96.6
291.079	35.16
291.294	31.06
291.509	14.68
291.724	59.73
291.938	22.87
292.153	-5.8
292.368	69.97
292.583	24.92
292.798	67.92
293.012	86.36
293.227	29.01
293.442	6.49
293.657	35.16
293.871	61.78
294.086	96.6
294.301	115.03
294.516	37.2
294.73	72.02
294.945	-20.14
295.16	43.35
295.374	47.44
295.589	53.59
295.804	20.82
296.018	65.88
296.233	74.07
296.447	31.06
296.662	14.68
296.877	61.78
297.091	82.26
297.306	-44.71
297.52	37.2
297.735	29.01
297.949	59.73
298.164	63.83
298.378	26.96
298.593	37.2
298.807	0.34
299.022	31.06
299.236	35.16
299.451	-11.95
299.665	35.16
299.88	24.92
300.094	41.3
300.309	61.78
300.523	57.68
300.737	37.2
300.952	88.4
301.166	69.97
301.381	8.53
301.595	61.78
301.809	29.01
302.024	47.44
302.238	-18.09
302.452	16.73
302.667	-50.86
302.881	92.5
303.095	47.44
303.309	12.63
303.524	-32.43
303.738	26.96
303.952	-28.33
304.166	84.31
304.381	-46.76
304.595	57.68
304.809	104.79
305.023	59.73
305.237	47.44
305.452	112.98
305.666	76.12
305.88	78.16
306.094	61.78
306.308	29.01
306.522	82.26
306.736	90.45
306.95	8.53
307.164	20.82
307.379	47.44
307.593	108.88
307.807	82.26
308.021	63.83
308.235	-5.8
308.449	-18.09
308.663	45.4
308.877	104.79
309.091	96.6
309.305	-20.14
309.519	20.82
309.733	29.01
309.947	-57
310.161	74.07
310.374	53.59
310.588	112.98
310.802	76.12
311.016	12.63
311.23	37.2
311.444	-5.8
311.658	-44.71
311.872	88.4
312.085	-18.09
312.299	151.89
312.513	72.02
312.727	14.68
312.941	-16.04
313.154	76.12
313.368	31.06
313.582	22.87
313.796	26.96
314.009	55.64
314.223	82.26
314.437	117.08
314.651	72.02
314.864	-22.19
315.078	10.58
315.292	67.92
315.505	4.44
315.719	125.27
315.933	51.54
316.146	55.64
316.36	47.44
316.573	59.73
316.787	123.22
317.001	80.21
317.214	39.25
317.428	29.01
317.641	104.79
317.855	90.45
318.068	51.54
318.282	43.35
318.495	86.36
318.709	133.46
318.922	84.31
319.136	41.3
319.349	69.97
319.563	57.68
319.776	22.87
319.99	-18.09
320.203	18.77
320.417	55.64
320.63	51.54
320.843	123.22
321.057	72.02
321.27	4.44
321.483	-11.95
321.697	96.6
321.91	35.16
322.124	74.07
322.337	18.77
322.55	90.45
322.763	-28.33
322.977	29.01
323.19	98.64
323.403	10.58
323.617	61.78
323.83	82.26
324.043	67.92
324.256	104.79
324.469	10.58
324.683	123.22
324.896	80.21
325.109	57.68
325.322	41.3
325.535	-1.71
325.748	53.59
325.962	24.92
326.175	47.44
326.388	37.2
326.601	31.06
326.814	22.87
327.027	-9.9
327.24	166.23
327.453	2.39
327.666	65.88
327.879	39.25
328.092	88.4
328.305	22.87
328.518	74.07
328.731	57.68
328.944	33.11
329.157	51.54
329.37	8.53
329.583	121.17
329.796	67.92
330.009	18.77
330.222	100.69
330.435	45.4
330.648	26.96
330.861	100.69
331.073	51.54
331.286	69.97
331.499	51.54
331.712	-1.71
331.925	-1.71
332.138	69.97
332.35	106.84
332.563	39.25
332.776	67.92
332.989	20.82
333.202	41.3
333.414	37.2
333.627	80.21
333.84	-40.62
334.053	45.4
334.265	10.58
334.478	37.2
334.691	8.53
334.903	96.6
335.116	63.83
335.329	10.58
335.541	41.3
335.754	119.12
335.966	43.35
336.179	29.01
336.392	63.83
336.604	39.25
336.817	112.98
337.029	39.25
337.242	-20.14
337.454	88.4
337.667	43.35
337.88	74.07
338.092	84.31
338.305	74.07
338.517	59.73
338.729	29.01
338.942	72.02
339.154	6.49
339.367	35.16
339.579	16.73
339.792	39.25
340.004	96.6
340.217	37.2
340.429	14.68
340.641	106.84
340.854	78.16
341.066	8.53
341.278	121.17
341.491	63.83
341.703	31.06
341.915	59.73
342.128	65.88
342.34	43.35
342.552	24.92
342.764	-5.8
342.977	18.77
343.189	22.87
343.401	61.78
343.613	-20.14
343.826	63.83
344.038	135.51
344.25	41.3
344.462	41.3
344.674	86.36
344.886	-1.71
345.099	-34.47
345.311	45.4
345.523	51.54
345.735	-52.91
345.947	82.26
346.159	-42.67
346.371	55.64
346.583	41.3
346.795	92.5
347.007	61.78
347.219	31.06
347.431	49.49
347.643	67.92
347.855	69.97
348.067	78.16
348.279	65.88
348.491	-26.28
348.703	104.79
348.915	82.26
349.127	78.16
349.339	106.84
349.551	10.58
349.763	135.51
349.975	43.35
350.187	69.97
350.399	90.45
350.61	86.36
350.822	110.93
351.034	82.26
351.246	69.97
351.458	94.55
351.669	80.21
351.881	162.13
352.093	121.17
352.305	47.44
352.517	45.4
352.728	72.02
352.94	86.36
353.152	24.92
353.363	35.16
353.575	47.44
353.787	43.35
353.999	61.78
354.21	108.88
354.422	82.26
354.633	104.79
354.845	74.07
355.057	-20.14
355.268	49.49
355.48	49.49
355.692	-26.28
355.903	100.69
356.115	106.84
356.326	59.73
356.538	102.74
356.749	72.02
356.961	92.5
357.172	100.69
357.384	74.07
357.595	82.26
357.807	53.59
358.018	6.49
358.23	61.78
358.441	104.79
358.653	80.21
358.864	88.4
359.075	-50.86
359.287	80.21
359.498	131.41
359.709	-20.14
359.921	63.83
360.132	147.8
360.344	12.63
360.555	43.35
360.766	20.82
360.977	-5.8
361.189	104.79
361.4	45.4
361.611	129.36
361.823	57.68
362.034	90.45
362.245	20.82
362.456	4.44
362.667	51.54
362.879	49.49
363.09	39.25
363.301	63.83
363.512	155.99
363.723	-32.43
363.935	69.97
364.146	121.17
364.357	115.03
364.568	76.12
364.779	2.39
364.99	125.27
365.201	49.49
365.412	76.12
365.623	-44.71
365.834	41.3
366.045	57.68
366.256	178.51
366.467	178.51
366.678	-9.9
366.889	18.77
367.1	78.16
367.311	45.4
367.522	55.64
367.733	39.25
367.944	67.92
368.155	115.03
368.366	61.78
368.577	153.94
368.788	20.82
368.999	82.26
369.209	110.93
369.42	82.26
369.631	127.32
369.842	88.4
370.053	45.4
370.264	90.45
370.474	6.49
370.685	41.3
370.896	-26.28
371.107	176.47
371.317	129.36
371.528	106.84
371.739	69.97
371.95	117.08
372.16	141.65
372.371	0.34
372.582	49.49
372.792	139.6
373.003	57.68
373.214	33.11
373.424	31.06
373.635	49.49
373.846	125.27
374.056	69.97
374.267	2.39
374.477	78.16
374.688	86.36
374.898	49.49
375.109	141.65
375.319	108.88
375.53	-11.95
375.74	67.92
375.951	94.55
376.161	37.2
376.372	112.98
376.582	31.06
376.793	55.64
377.003	49.49
377.214	-5.8
377.424	63.83
377.635	59.73
377.845	35.16
378.055	121.17
378.266	61.78
378.476	20.82
378.686	80.21
378.897	51.54
379.107	-13.99
379.317	47.44
379.528	106.84
379.738	102.74
379.948	-1.71
380.158	90.45
380.369	69.97
380.579	137.56
380.789	69.97
380.999	78.16
381.21	90.45
381.42	170.32
381.63	115.03
381.84	51.54
382.05	43.35
382.261	141.65
382.471	170.32
382.681	110.93
382.891	26.96
383.101	35.16
383.311	76.12
383.521	80.21
383.731	102.74
383.941	76.12
384.151	57.68
384.361	96.6
384.571	57.68
384.781	106.84
384.991	96.6
385.201	192.85
385.411	149.84
385.621	92.5
385.831	61.78
386.041	90.45
386.251	39.25
386.461	63.83
386.671	63.83
386.881	72.02
387.091	61.78
387.301	110.93
387.511	41.3
387.72	102.74
387.93	129.36
388.14	59.73
388.35	55.64
388.56	53.59
388.769	108.88
388.979	88.4
389.189	39.25
389.399	24.92
389.609	69.97
389.818	110.93
390.028	31.06
390.238	115.03
390.447	41.3
390.657	57.68
390.867	72.02
391.076	43.35
391.286	80.21
391.496	96.6
391.705	78.16
391.915	155.99
392.125	92.5
392.334	125.27
392.544	123.22
392.753	125.27
392.963	63.83
393.172	53.59
393.382	47.44
393.591	139.6
393.801	131.41
394.01	133.46
394.22	121.17
394.429	92.5
394.639	133.46
394.848	82.26
395.058	33.11
395.267	108.88
395.477	92.5
395.686	100.69
395.895	207.19
396.105	158.03
396.314	127.32
396.524	94.55
396.733	139.6
396.942	196.95
397.152	119.12
397.361	166.23
397.57	65.88
397.78	155.99
397.989	96.6
398.198	135.51
398.407	72.02
398.617	135.51
398.826	141.65
399.035	155.99
399.244	153.94
399.453	108.88
399.663	155.99
399.872	145.75
400.081	166.23
400.29	198.99
400.499	119.12
400.708	178.51
400.917	188.75
401.127	186.71
401.336	112.98
401.545	231.76
401.754	184.66
401.963	127.32
402.172	82.26
402.381	143.7
402.59	90.45
402.799	233.81
403.008	194.9
403.217	235.86
403.426	258.39
403.635	190.8
403.844	223.57
404.053	237.91
404.262	170.32
404.471	239.95
404.68	174.42
404.888	211.28
405.097	252.24
405.306	264.53
405.515	209.23
405.724	256.34
405.933	287.06
406.142	350.54
406.35	262.48
406.559	313.68
406.768	264.53
406.977	248.15
407.185	317.78
407.394	248.15
407.603	219.47
407.812	235.86
408.02	334.16
408.229	325.97
408.438	328.02
408.646	328.02
408.855	350.54
409.064	418.13
409.272	332.11
409.481	389.46
409.69	448.85
409.898	428.37
410.107	381.26
410.315	465.23
410.524	454.99
410.733	563.53
410.941	500.05
411.15	526.67
411.358	608.59
411.567	602.44
411.775	538.96
411.984	524.62
412.192	618.83
412.401	678.22
412.609	577.87
412.818	672.08
413.026	784.71
413.234	682.31
413.443	782.67
413.651	784.71
413.86	758.09
414.068	756.04
414.276	874.82
414.485	895.3
414.693	993.61
414.901	1075.52
415.11	1014.09
415.318	1038.66
415.526	1016.13
415.734	1024.33
415.943	1046.85
416.151	1198.4
416.359	1208.64
416.567	1249.6
416.776	1354.05
416.984	1380.67
417.192	1354.05
417.4	1454.4
417.608	1440.06
417.817	1536.32
418.025	1583.42
418.233	1737.02
418.441	1700.16
418.649	1718.59
418.857	1788.22
419.065	1796.41
419.273	1859.9
419.481	1894.71
419.689	2036.02
419.897	2158.9
420.105	2089.27
420.313	2193.72
420.521	2382.13
420.729	2386.22
420.937	2429.23
421.145	2492.72
421.353	2713.9
421.561	2779.43
421.769	2890.03
421.977	3078.44
422.185	2976.04
422.393	3154.21
422.601	3275.04
422.809	3367.2
423.017	3340.58
423.224	3639.58
423.432	3635.49
423.64	3682.59
423.848	4006.17
424.056	3746.08
424.263	4186.39
424.471	4192.53
424.679	4190.49
424.887	4462.87
425.094	4555.02
425.302	4462.87
425.51	4813.07
425.718	4911.37
425.925	4901.13
426.133	5124.36
426.341	5652.74
426.548	5712.13
426.756	5783.81
426.964	5714.17
427.171	6254.84
427.379	6308.09
427.586	6228.21
427.794	6535.41
428.001	7004.39
428.209	7254.25
428.417	6981.87
428.624	7643.36
428.832	7624.93
429.039	7340.26
429.247	7549.15
429.454	8351.96
429.662	8689.87
429.869	8134.87
430.076	8861.9
430.284	8698.06
430.491	9152.71
430.699	9523.4
430.906	9423.05
431.114	9734.34
431.321	10019
431.528	10131.64
431.736	10801.33
431.943	11247.79
432.15	11014.32
432.358	10836.14
432.565	11741.35
432.772	11591.84
432.979	12179.61
433.187	12472.47
433.394	12624.02
433.601	13242.51
433.808	13701.25
434.016	13545.61
434.223	13947.01
434.43	14710.9
434.637	14473.34
434.844	15583.34
435.052	15564.9
435.259	15456.36
435.466	15624.29
435.673	15771.75
435.88	16552.02
436.087	17455.18
436.294	17295.44
436.501	17176.66
436.708	17598.54
436.915	17889.35
437.122	18710.58
437.329	18878.52
437.537	19370.03
437.743	19886.12
437.95	19365.93
438.157	20707.35
438.364	21219.35
438.571	20885.53
438.778	21471.25
438.985	23302.13
439.192	22204.42
439.399	22704.12
439.606	22781.95
439.813	24039.4
440.02	25325.52
440.227	24805.34
440.433	24750.04
440.64	25634.77
440.847	25358.29
441.054	25919.43
441.261	27652.02
441.467	27254.71
441.674	27606.96
441.881	28907.42
442.088	28993.43
442.294	28559.27
442.501	29216.66
442.708	29736.85
442.914	31031.16
443.121	32081.77
443.328	31174.52
443.534	33781.59
443.741	32778.08
443.948	32126.83
444.154	34733.89
444.361	34195.28
444.568	34594.63
444.774	34535.24
444.981	35020.61
445.187	36210.48
445.394	37629.72
445.6	37404.44
445.807	40449.77
446.013	38766.34
446.22	39407.36
446.426	41068.26
446.633	41397.98
446.839	42622.67
447.046	40750.82
447.252	43083.46
447.459	43151.04
447.665	43347.65
447.871	45008.55
448.078	47513.22
448.284	44576.43
448.491	45567.65
448.697	47906.43
448.903	48402.03
449.11	48592.5
449.316	48002.68
449.522	48549.49
449.728	49657.44
449.935	50134.62
450.141	50003.55
450.347	51125.83
450.553	50064.99
450.76	50738.77
450.966	52371
451.172	51371.59
451.378	53235.24
451.584	51871.29
451.791	52719.15
451.997	52766.26
452.203	53575.2
452.409	53587.49
452.615	53325.35
452.821	51521.09
453.027	50968.14
453.233	53100.08
453.44	51566.15
453.646	52309.56
453.852	52471.35
454.058	52723.25
454.264	51572.29
454.47	52813.36
454.676	51406.4
454.882	52608.56
455.088	49041
455.294	49231.46
455.5	50038.36
455.705	50146.9
455.911	48846.44
456.117	48072.31
456.323	47234.69
456.529	44981.93
456.735	46388.88
456.941	45475.49
457.147	44471.98
457.352	43337.41
457.558	43026.12
457.764	43099.84
457.97	42323.66
458.176	41195.23
458.381	41522.91
458.587	39474.94
458.793	39591.67
458.999	37328.67
459.204	39923.44
459.41	38930.18
459.616	36388.65
459.821	36652.84
460.027	36032.3
460.233	35501.88
460.438	33679.19
460.644	34158.41
460.85	32464.74
461.055	31993.71
461.261	32042.86
461.466	29503.38
461.672	29009.82
461.878	31006.59
462.083	28610.46
462.289	28157.86
462.494	27639.73
462.7	26603.46
462.905	26013.64
463.111	26720.19
463.316	26920.89
463.522	26609.6
463.727	26548.16
463.932	26578.88
464.138	25966.54
464.343	26308.55
464.549	25327.57
464.754	26558.4
464.959	25956.3
465.165	25663.44
465.37	24432.61
465.575	24059.88
465.781	25495.5
465.986	25372.63
466.191	24643.55
466.397	23973.86
466.602	22859.77
466.807	23883.75
467.012	23453.68
467.218	23302.13
467.423	23382
467.628	23130.1
467.833	24168.42
468.038	23425.01
468.244	22853.62
468.449	23928.81
468.654	22831.1
468.859	22573.05
469.064	22515.71
469.269	21979.14
469.474	21889.03
469.679	22370.3
469.885	21651.47
470.09	22069.25
470.295	22093.83
470.5	21323.79
470.705	21506.06
470.91	20881.43
471.115	20670.49
471.32	21260.3
471.525	20738.07
471.73	20424.73
471.935	20275.23
472.139	19353.65
472.344	19832.87
472.549	19961.89
472.754	19560.49
472.959	19515.44
473.164	18686.01
473.369	18518.07
473.574	18972.72
473.778	18931.76
473.983	18677.82
474.188	18812.98
474.393	17940.55
474.598	17915.97
474.802	17709.13
475.007	17799.24
475.212	17733.7
475.417	16947.28
475.621	16826.45
475.826	17281.1
476.031	16889.94
476.235	16492.63
476.44	16805.97
476.645	16502.87
476.849	16404.57
477.054	16324.7
477.259	15923.3
477.463	15992.93
477.668	15724.65
477.872	16037.98
478.077	15476.84
478.282	14856.31
478.486	15063.15
478.691	14790.77
478.895	14770.29
479.1	14774.39
479.304	14749.81
479.509	14301.31
479.713	14618.74
479.918	14325.88
480.122	14114.94
480.326	14217.34
480.531	14415.99
480.735	14082.17
480.94	13975.68
481.144	14317.69
481.348	13715.59
481.553	13996.16
481.757	13615.24
481.961	13549.7
482.166	13752.45
482.37	13889.67
482.574	13459.59
482.778	13719.68
482.983	13904
483.187	13588.61
483.391	14018.69
483.595	13543.56
483.8	13645.96
484.004	13461.64
484.208	13701.25
484.412	13488.26
484.616	13633.67
484.821	13533.32
485.025	13367.43
485.229	13705.35
485.433	13416.58
485.637	13514.89
485.841	13668.48
486.045	13439.11
486.249	13660.29
486.453	13570.18
486.657	13506.7
486.861	13785.22
487.065	13086.86
487.269	13559.94
487.473	13248.65
487.677	13912.19
487.881	13805.7
488.085	13529.22
488.289	13750.4
488.493	13553.8
488.697	13619.33
488.901	13731.97
489.105	13648.01
489.309	13779.08
489.512	13789.31
489.716	13736.07
489.92	13756.55
490.124	13592.71
490.328	13828.23
490.531	13856.9
490.735	13668.48
490.939	13957.25
491.143	13805.7
491.346	13863.04
491.55	14284.92
491.754	14258.3
491.958	14237.82
492.161	13893.76
492.365	14440.57
492.569	14391.42
492.772	14227.58
492.976	14487.67
493.18	14444.66
493.383	14506.1
493.587	14889.07
493.79	14633.08
493.994	14614.65
494.197	14921.84
494.401	14829.68
494.605	15102.06
494.808	15327.34
495.012	15353.96
495.215	15149.17
495.419	15439.98
495.622	15536.23
495.825	15898.72
496.029	15861.86
496.232	15886.43
496.436	16154.72
496.639	16334.94
496.843	16199.77
497.046	16592.98
497.249	16926.8
497.453	16728.15
497.656	16912.47
497.859	17102.93
498.063	16984.15
498.266	17528.91
498.469	17444.94
498.673	17569.87
498.876	17756.23
499.079	17711.18
499.282	17981.51
499.485	18276.41
499.689	18548.79
499.892	18700.34
500.095	18905.14
500.298	19341.36
500.501	19310.64
500.705	19791.91
500.908	19742.76
501.111	19939.37
501.314	20170.79
501.517	20477.98
501.72	20875.29
501.923	20383.77
502.126	21295.12
502.329	21354.51
502.532	21381.14
502.735	21520.4
502.938	22079.49
503.141	22102.02
503.344	22427.65
503.547	22583.29
503.75	22802.43
503.953	23011.32
504.156	23080.95
504.359	23537.65
504.562	23480.3
504.765	24170.47
504.968	24051.69
505.17	24354.79
505.373	24471.52
505.576	25151.45
505.779	25425.87
505.982	25507.79
506.185	25726.92
506.387	25974.73
506.59	25944.01
506.793	26638.27
506.996	26425.28
507.198	27228.09
507.401	26957.75
507.604	27658.16
507.807	27828.14
508.009	28114.86
508.212	28313.51
508.415	28438.44
508.617	28776.35
508.82	29312.92
509.022	29050.78
509.225	29628.31
509.428	30082.95
509.63	30031.76
509.833	30287.75
510.035	30906.24
510.238	30680.96
510.44	31063.93
510.643	31711.09
510.845	31596.4
511.048	31915.89
511.25	32114.54
511.453	32298.86
511.655	33331.03
511.858	32925.53
512.06	33445.72
512.262	33607.51
512.465	33664.85
512.667	34289.48
512.87	34326.35
513.072	34694.98
513.274	35086.14
513.477	35172.16
513.679	35731.25
513.881	36044.59
514.084	36351.79
514.286	36325.16
514.488	36501.29
514.69	38020.88
514.893	37674.77
515.095	37478.17
515.297	38655.75
515.499	38166.29
515.701	38442.76
515.904	38745.86
516.106	39116.54
516.308	39175.94
516.51	40273.65
516.712	39905.01
516.914	40580.84
517.116	40945.38
517.318	41049.83
517.52	41309.92
517.722	41576.15
517.925	42061.52
518.127	42231.5
518.329	42450.64
518.531	42972.87
518.733	43247.3
518.935	43482.81
519.136	43546.3
519.338	43925.18
519.54	43579.07
519.742	44390.06
519.944	44891.82
520.146	45557.41
520.348	45389.47
520.55	45510.3
520.752	45844.12
520.954	46565.01
521.155	45786.78
521.357	46716.56
521.559	47191.69
521.761	47464.07
521.963	47634.05
522.164	47648.38
522.366	48164.47
522.568	48098.94
522.77	48336.5
522.971	49124.97
523.173	48819.82
523.375	49567.33
523.576	49368.68
523.778	49403.49
523.98	50234.97
524.181	50376.28
524.383	50253.4
524.584	50830.93
524.786	50835.02
524.988	50562.64
525.189	51033.67
525.391	51408.45
525.592	51648.07
525.794	51615.3
525.995	51713.6
526.197	51715.65
526.398	51908.16
526.6	52719.15
526.801	52536.88
527.003	52508.21
527.204	52428.34
527.406	53548.58
527.607	52874.8
527.808	53306.92
528.01	52198.97
528.211	53227.05
528.412	53890.59
528.614	53935.65
528.815	53628.45
529.016	54251.03
529.218	53374.5
529.419	53696.03
529.62	53886.5
529.822	53859.87
530.023	53788.19
530.224	53968.41
530.425	54042.14
530.626	53915.17
530.828	53806.62
531.029	54834.7
531.23	54509.08
531.431	54324.76
531.632	54251.03
531.833	54468.12
532.035	54433.3
532.236	54656.53
532.437	54562.32
532.638	54324.76
532.839	55045.65
533.04	54820.37
533.241	54156.83
533.442	55008.78
533.643	54846.99
533.844	54801.94
534.045	54801.94
534.246	54025.76
534.447	54591
534.648	54261.27
534.849	54898.19
535.05	54523.41
535.251	54672.92
535.451	54760.98
535.652	54781.46
535.853	54468.12
536.054	55014.93
536.255	54867.47
536.456	54535.7
536.657	54760.98
536.857	54289.94
537.058	54185.5
537.259	55055.89
537.46	54857.23
537.66	54558.23
537.861	54437.4
538.062	53935.65
538.263	54615.57
538.463	54179.35
538.664	54423.06
538.865	54330.9
539.065	54758.93
539.266	54081.05
539.466	54953.49
539.667	54173.21
539.868	54851.09
540.068	54560.28
540.269	54111.77
540.469	54552.08
540.67	54003.23
540.87	54056.48
541.071	53945.89
541.271	54558.23
541.472	54044.19
541.672	53886.5
541.873	54072.86
542.073	53607.97
542.274	54291.99
542.474	53984.8
542.675	53679.65
542.875	54605.33
543.075	53906.97
543.276	53544.48
543.476	54507.03
543.676	53769.76
543.877	53888.54
544.077	54191.64
544.277	53569.06
544.478	53603.88
544.678	54101.53
544.878	53757.47
545.078	53540.39
545.279	53616.16
545.479	53321.26
545.679	53587.49
545.879	53790.24
546.079	53659.17
546.28	53405.22
546.48	53306.92
546.68	53544.48
546.88	53904.93
547.08	53288.49
547.28	53354.02
547.48	53116.46
547.68	53421.61
547.88	53337.64
548.081	53702.18
548.281	53468.71
548.481	53225
548.681	53528.1
548.881	53743.14
549.081	53736.99
549.28	52899.37
549.48	53206.57
549.68	53108.27
549.88	53855.78
550.08	52825.65
550.28	53548.58
550.48	53270.06
550.68	53528.1
550.88	52870.7
551.08	53116.46
551.279	52897.33
551.479	53233.19
551.679	52981.29
551.879	52938.29
552.079	53112.36
552.278	52676.15
552.478	53085.74
552.678	53026.35
552.878	53444.13
553.077	53014.06
553.277	52143.67
553.477	53292.58
553.676	52794.93
553.876	52796.98
554.076	52504.12
554.275	52940.33
554.475	52442.68
554.674	52649.52
554.874	52231.74
555.074	52321.85
555.273	52522.55
555.473	53192.23
555.672	52190.78
555.872	52106.81
556.071	52708.91
556.271	52545.08
556.47	52289.08
556.67	51584.58
556.869	52350.52
557.068	52108.86
557.268	51887.68
557.467	52098.62
557.667	51934.78
557.866	52305.46
558.065	52442.68
558.265	51920.45
558.464	51779.14
558.663	52133.43
558.863	51580.48
559.062	52090.43
559.261	51578.43
559.461	52201.02
559.66	51256.9
559.859	51353.16
560.058	51238.47
560.258	51639.87
560.457	51197.51
560.656	51748.42
560.855	51191.37
561.054	51447.36
561.253	51041.87
561.453	51097.16
561.652	51168.84
561.851	51396.17
562.05	51248.71
562.249	50708.05
562.448	51291.72
562.647	51189.32
562.846	50749.01
563.045	50875.98
563.244	50333.27
563.443	50962
563.642	50165.34
563.841	50351.7
564.04	50017.88
564.239	50869.84
564.438	50079.32
564.637	50062.94
564.836	50040.41
565.035	49972.83
565.234	50306.65
565.432	49944.16
565.631	49858.14
565.83	50105.94
566.029	49462.88
566.228	49852
566.427	49548.9
566.625	49358.44
566.824	49266.28
567.023	49376.87
567.222	48768.62
567.42	49415.78
567.619	49358.44
567.818	49000.04
568.016	49008.23
568.215	49374.82
568.414	48942.7
568.612	49268.33
568.811	48739.95
569.01	48885.36
569.208	48324.21
569.407	48733.81
569.605	47906.43
569.804	48508.53
570.002	48451.19
570.201	48600.69
570.4	47763.07
570.598	48373.36
570.797	48031.35
570.995	47922.81
571.193	47672.96
571.392	48072.31
571.59	47746.68
571.789	47464.07
571.987	47683.2
572.186	47564.42
572.384	47255.17
572.582	47486.59
572.781	47199.88
572.979	47038.09
573.177	47492.74
573.376	47222.4
573.574	46626.45
573.772	47423.11
573.971	46747.28
574.169	46808.72
574.367	46511.76
574.565	46599.82
574.763	46210.71
574.962	46335.63
575.16	45969.05
575.358	46104.21
575.556	45588.13
575.754	46085.78
575.952	45430.43
576.151	46773.9
576.349	45602.46
576.547	45780.63
576.745	45352.61
576.943	45463.2
577.141	45235.88
577.339	45571.74
577.537	44990.12
577.735	45080.23
577.933	44959.4
578.131	45293.22
578.329	44551.85
578.527	44717.74
578.725	44267.19
578.923	44875.43
579.121	44314.29
579.319	43908.79
579.516	44226.23
579.714	44254.9
579.912	44064.44
580.11	44132.02
580.308	43783.87
580.506	43773.63
580.704	43390.66
580.901	43847.35
581.099	43859.64
581.297	43019.97
581.495	43093.7
581.692	43669.18
581.89	43067.08
582.088	43697.85
582.285	43120.32
582.483	42999.49
582.681	43108.04
582.878	42823.37
583.076	42413.77
583.274	42903.24
583.471	42155.73
583.669	42340.05
583.866	42006.23
584.064	42454.73
584.262	41447.13
584.459	42006.23
584.657	41783
584.854	42133.2
585.052	41332.45
585.249	42039
585.447	41361.12
585.644	40771.3
585.841	41500.38
586.039	41154.27
586.236	41283.3
586.434	40873.7
586.631	41277.15
586.828	40939.24
587.026	40769.26
587.223	40937.19
587.42	40314.61
587.618	40486.64
587.815	40341.23
588.012	39866.1
588.21	40097.52
588.407	40570.6
588.604	39950.07
588.801	39239.42
588.999	39397.12
589.196	39925.49
589.393	39610.1
589.59	39300.86
589.787	39239.42
589.984	39233.28
590.182	38850.31
590.379	39331.58
590.576	38481.67
590.773	39063.3
590.97	38608.65
591.167	38973.19
591.364	38027.03
591.561	38850.31
591.758	38115.09
591.955	38162.19
592.152	38506.25
592.349	37809.94
592.546	37687.06
592.743	37818.13
592.94	37574.42
593.137	37795.6
593.334	37601.05
593.531	37156.64
593.727	37336.86
593.924	37371.68
594.121	37183.26
594.318	36957.99
594.515	36722.47
594.712	37105.44
594.908	36581.16
595.105	36839.2
595.302	36173.61
595.499	36720.42
595.696	35876.66
595.892	36087.6
596.089	35991.34
596.286	36171.57
596.482	35706.68
596.679	35755.83
596.876	35903.28
597.072	35258.17
597.269	35559.22
597.466	35260.22
597.662	35297.08
597.859	35254.08
598.055	35360.57
598.252	34809.67
598.448	34627.4
598.645	34938.69
598.841	34473.8
599.038	34346.83
599.234	34873.15
599.431	34211.66
599.627	34350.92
599.824	34582.34
600.02	33894.22
600.217	34455.37
600.413	33752.91
600.609	33724.24
600.806	33677.14
601.002	33783.63
601.198	33531.73
601.395	33083.23
601.591	32939.87
601.787	33154.91
601.984	33003.36
602.18	33116
602.376	33214.3
602.572	33044.32
602.769	32593.76
602.965	32315.24
603.161	32642.92
603.357	32239.47
603.553	32356.2
603.75	32276.33
603.946	32231.27
604.142	32165.74
604.338	31864.69
604.534	32051.05
604.73	31512.44
604.926	31819.63
605.122	31647.6
605.318	31494
605.514	31422.33
605.71	31154.04
605.906	31195
606.102	31485.81
606.298	31362.93
606.494	31281.02
606.69	31256.44
606.886	31272.82
607.082	30842.75
607.278	30865.28
607.474	30119.82
607.67	30816.13
607.866	30328.71
608.062	30465.92
608.257	30390.15
608.453	30498.69
608.649	30392.2
608.845	30236.55
609.041	30410.63
609.236	30234.5
609.432	30058.38
609.628	30248.84
609.824	30087.05
610.019	29835.15
610.215	30011.28
610.411	30234.5
610.606	29484.95
610.802	29908.88
610.998	29605.78
611.193	29847.44
611.389	29171.61
611.584	29341.59
611.78	29331.35
611.976	29603.73
612.171	29255.57
612.367	29251.48
612.562	29161.37
612.758	28874.65
612.953	28985.24
613.149	29286.29
613.344	28835.74
613.539	29089.69
613.735	28868.51
613.93	29124.5
614.126	28827.55
614.321	28802.97
614.517	28813.21
614.712	28759.97
614.907	28346.28
615.103	28817.31
615.298	28211.11
615.493	28827.55
615.688	28215.21
615.884	28663.71
616.079	27850.67
616.274	28346.28
616.47	28364.71
616.665	28256.17
616.86	28032.94
617.055	27809.71
617.25	27729.84
617.445	28260.26
617.641	27666.35
617.836	27951.02
618.031	27641.78
618.226	27856.81
618.421	27914.16
618.616	27709.36
618.811	27285.43
619.006	27529.14
619.201	26974.14
619.396	26970.04
619.591	26447.81
619.786	26589.12
619.981	26372.03
620.176	26959.8
620.371	26562.5
620.566	26595.26
620.761	26048.46
620.956	26550.21
621.151	25878.47
621.346	26144.71
621.541	25817.04
621.735	26345.41
621.93	25522.13
622.125	25831.37
622.32	24965.08
622.515	25225.17
622.709	25184.21
622.904	25128.92
623.099	24743.9
623.294	24651.74
623.488	24784.86
623.683	24666.08
623.878	24123.37
624.072	24240.1
624.267	24539.1
624.462	24180.71
624.656	23549.93
624.851	23513.07
625.046	23687.15
625.24	23551.98
625.435	23425.01
625.629	23502.83
625.824	23048.18
626.018	23445.49
626.213	22659.07
626.407	22855.67
626.602	22837.24
626.796	22568.96
626.991	22464.51
627.185	22450.17
627.38	22087.68
627.574	22020.1
627.768	22151.17
627.963	21966.85
628.157	21692.43
628.352	21659.66
628.546	21196.82
628.74	21467.15
628.935	21219.35
629.129	21096.47
629.323	20797.46
629.517	20901.91
629.712	20799.51
629.906	20760.6
630.1	20566.04
630.294	20686.87
630.489	20242.46
630.683	20453.41
630.877	20240.42
631.071	19861.54
631.265	20181.03
631.459	19800.1
631.653	19775.53
631.848	19607.59
632.042	19761.19
632.236	19593.26
632.43	19535.92
632.624	19394.61
632.818	19324.97
633.012	18974.77
633.206	19378.22
633.4	18890.81
633.594	18624.57
633.788	18708.54
633.982	18921.52
634.176	18792.5
634.369	18436.16
634.563	18030.66
634.757	18352.19
634.951	18540.6
635.145	18448.44
635.339	18239.55
635.533	17823.81
635.726	18077.76
635.92	17537.1
636.114	17590.34
636.308	17680.46
636.501	17727.56
636.695	17657.93
636.889	17223.76
637.083	16975.95
637.276	17066.06
637.47	16879.7
637.664	17043.54
637.857	17035.35
638.051	16748.63
638.244	16779.35
638.438	16736.34
638.632	16287.84
638.825	16693.33
639.019	16167.01
639.212	16126.05
639.406	15966.31
639.599	16105.57
639.793	16363.61
639.986	15771.75
640.18	15814.76
640.373	16031.84
640.567	15583.34
640.76	15519.85
640.954	15515.75
641.147	15343.72
641.34	15482.99
641.534	15515.75
641.727	15341.68
641.92	15214.7
642.114	14913.65
642.307	15001.71
642.5	15065.2
642.694	14647.41
642.887	14731.38
643.08	15001.71
643.273	14618.74
643.467	14684.28
643.66	14413.95
643.853	14379.13
644.046	14229.63
644.239	14352.51
644.432	14069.89
644.626	14086.27
644.819	14096.51
645.012	14076.03
645.205	14135.42
645.398	13887.62
645.591	13670.53
645.784	13576.33
645.977	13469.83
646.17	13572.23
646.363	13631.62
646.556	13299.85
646.749	13449.35
646.942	13447.3
647.135	13228.17
647.328	13093.01
647.521	13203.6
647.714	12877.97
647.907	13099.15
648.099	12984.46
648.292	12912.78
648.485	12726.42
648.678	12552.34
648.871	12509.33
649.064	12445.85
649.256	12574.87
649.449	12419.22
649.642	12495
649.835	12351.64
650.027	12312.73
650.22	11806.88
650.413	12028.06
650.605	12071.07
650.798	12019.87
650.991	11780.26
651.183	11862.18
651.376	11817.12
651.568	11714.72
651.761	11571.36
651.954	11503.78
652.146	11581.6
652.339	11321.51
652.531	11378.86
652.724	11362.47
652.916	11327.66
653.109	11258.03
653.301	11180.2
653.494	11057.32
653.686	11020.46
653.879	11180.2
654.071	10729.65
654.263	10809.52
654.456	10801.33
654.648	10975.41
654.84	10729.65
655.033	10541.24
655.225	10567.86
655.417	10434.74
655.61	10518.71
655.802	10682.55
655.994	10465.46
656.186	10504.37
656.379	10322.1
656.571	10291.38
656.763	10229.95
656.955	10072.25
657.148	9961.66
657.34	10051.77
657.532	9982.14
657.724	10068.16
657.916	9822.4
658.108	9599.17
658.3	9734.34
658.492	9781.44
658.684	9572.55
658.876	9572.55
659.068	9752.77
659.26	9324.74
659.452	9629.89
659.644	9322.7
659.836	9279.69
660.028	9486.53
660.22	9035.98
660.412	9228.49
660.604	9093.32
660.796	9109.71
660.988	9117.9
661.18	9003.21
661.372	8966.35
661.563	8798.42
661.755	8761.55
661.947	8775.89
662.139	8767.7
662.331	8726.74
662.522	8581.33
662.714	8808.65
662.906	8601.81
663.097	8669.39
663.289	8618.19
663.481	8499.41
663.673	8497.36
663.864	8364.25
664.056	8368.34
664.247	8554.71
664.439	8065.24
664.631	8028.38
664.822	8171.74
665.014	8093.91
665.205	8073.43
665.397	7997.66
665.588	8155.35
665.78	8073.43
665.971	8014.04
666.163	7981.28
666.354	7756
666.546	7934.17
666.737	7964.89
666.929	8052.95
667.12	7811.29
667.311	7661.79
667.503	7534.82
667.694	7721.18
667.885	7528.67
668.077	7610.59
668.268	7397.6
668.459	7461.09
668.651	7575.78
668.842	7332.07
669.033	7147.75
669.224	7252.2
669.416	7366.88
669.607	7143.66
669.798	7088.36
669.989	7258.34
670.18	7336.17
670.371	7117.03
670.563	6975.72
670.754	7149.8
670.945	7076.07
671.136	6951.15
671.327	6881.52
671.518	7037.16
671.709	6805.74
671.9	6869.23
672.091	6924.52
672.282	6902
672.473	6680.82
672.664	6838.51
672.855	6660.34
673.046	6871.28
673.237	6533.36
673.428	6682.86
673.619	6656.24
673.809	6570.23
674	6543.6
674.191	6533.36
674.382	6455.54
674.573	6433.01
674.764	6420.72
674.954	6480.11
675.145	6324.47
675.336	6351.09
675.527	6402.29
675.717	6224.12
675.908	6209.78
676.099	6220.02
676.289	6271.22
676.48	6230.26
676.671	6254.84
676.861	6195.45
677.052	5867.77
677.243	6131.96
677.433	5998.84
677.624	6205.69
677.814	5974.27
678.005	6199.54
678.195	6021.37
678.386	5843.2
678.576	5894.4
678.767	5867.77
678.957	6015.23
679.148	5843.2
679.338	5949.69
679.529	5855.48
679.719	5656.83
679.909	5814.52
680.1	5718.27
680.29	5734.65
680.481	5740.8
680.671	5822.72
680.861	5615.87
681.052	5601.54
681.242	5531.9
681.432	5646.59
681.622	5568.77
681.813	5417.22
682.003	5658.88
682.193	5449.99
682.383	5472.51
682.573	5605.63
682.764	5474.56
682.954	5452.03
683.144	5554.43
683.334	5390.6
683.524	5482.75
683.714	5531.9
683.904	5400.83
684.094	5357.83
684.284	5490.95
684.474	5505.28
684.664	5237
684.854	5370.12
685.044	5392.64
685.234	5306.63
685.424	5271.81
685.614	5159.17
685.804	5284.1
685.994	5165.32
686.184	5218.57
686.374	5247.24
686.564	5058.82
686.753	4919.56
686.943	4956.43
687.133	5042.44
687.323	4919.56
687.513	4995.34
687.702	5034.25
687.892	5009.67
688.082	4841.74
688.272	5138.69
688.461	4845.84
688.651	4784.4
688.841	4880.65
689.03	4835.6
689.22	4792.59
689.41	4673.81
689.599	4737.29
689.789	4843.79
689.979	4772.11
690.168	4595.98
690.358	4626.7
690.547	4659.47
690.737	4622.61
690.926	4550.93
691.116	4538.64
691.305	4444.43
691.495	4475.15
691.684	4403.47
691.874	4452.63
692.063	4423.95
692.252	4405.52
692.442	4335.89
692.631	4376.85
692.82	4413.71
693.01	4317.46
693.199	4163.86
693.388	4258.07
693.578	4182.29
693.767	4311.32
693.956	4235.54
694.146	4139.29
694.335	4110.61
694.524	4088.09
694.713	4163.86
694.902	4231.44
695.092	4040.98
695.281	4061.46
695.47	3936.54
695.659	4002.07
695.848	3991.83
696.037	3914.01
696.226	4170.01
696.415	4006.17
696.604	4043.03
696.793	3799.32
696.982	3948.83
697.171	3903.77
697.36	3815.71
697.549	3846.43
697.738	3795.23
697.927	3889.43
698.116	3834.14
698.305	3815.71
698.494	3721.5
698.683	3647.77
698.872	3864.86
699.061	3580.19
699.25	3780.89
699.438	3701.02
699.627	3649.82
699.816	3639.58
700.005	3549.47
700.193	3651.87
700.382	3637.53
700.571	3608.86
700.76	3668.25
700.948	3701.02
701.137	3651.87
701.326	3641.63
701.514	3416.35
701.703	3686.69
701.892	3453.22
702.08	3516.7
702.269	3539.23
702.457	3424.55
702.646	3516.7
702.834	3467.55
703.023	3545.38
703.212	3432.74
703.4	3526.94
703.589	3453.22
703.777	3428.64
703.965	3461.41
704.154	3379.49
704.342	3436.83
704.531	3324.19
704.719	3346.72
704.907	3365.15
705.096	3387.68
705.284	3242.28
705.472	3184.93
705.661	3283.24
705.849	3328.29
706.037	3229.99
706.226	3299.62
706.414	3285.28
706.602	3213.6
706.79	3273
706.979	3268.9
707.167	3266.85
707.355	3201.32
707.543	3285.28
707.731	3297.57
707.919	3191.08
708.107	3156.26
708.296	3320.1
708.484	3273
708.672	3168.55
708.86	3213.6
709.048	3197.22
709.236	3121.45
709.424	3174.69
709.612	3023.14
709.8	3131.69
709.988	3115.3
710.176	3205.41
710.364	3100.97
710.551	3154.21
710.739	3277.09
710.927	3115.3
711.115	3080.49
711.303	3088.68
711.491	3103.01
711.679	2967.85
711.866	3133.73
712.054	3152.17
712.242	3158.31
712.43	2976.04
712.617	3168.55
712.805	3150.12
712.993	3137.83
713.181	2973.99
713.368	3023.14
713.556	3141.93
713.744	3084.58
713.931	3100.97
714.119	3039.53
714.306	3027.24
714.494	2933.03
714.682	3053.86
714.869	2961.7
715.057	2961.7
715.244	2988.33
715.432	3017
715.619	2875.69
715.807	2943.27
715.994	3057.96
716.182	3025.19
716.369	2959.66
716.556	2900.27
716.744	2976.04
716.931	2947.37
717.119	2969.9
717.306	2949.42
717.493	2832.68
717.681	3017
717.868	2844.97
718.055	2830.63
718.242	2887.98
718.43	2871.59
718.617	2857.26
718.804	2820.39
718.991	2910.5
719.179	2847.02
719.366	2924.84
719.553	2922.79
719.74	2879.79
719.927	2920.74
720.114	2894.12
720.301	2976.04
720.488	2871.59
720.676	2885.93
720.863	2885.93
721.05	2973.99
721.237	2947.37
721.424	2883.88
721.611	2799.91
721.798	2849.07
721.985	2853.16
722.172	2824.49
722.358	2890.03
722.545	2998.57
722.732	2861.35
722.919	2973.99
723.106	2728.24
723.293	2793.77
723.48	2865.45
723.667	2885.93
723.853	2783.53
724.04	2830.63
724.227	2871.59
724.414	2922.79
724.6	2775.34
724.787	2842.92
724.974	2969.9
725.161	2840.87
725.347	2699.56
725.534	2933.03
725.72	2834.73
725.907	2752.81
726.094	2767.15
726.28	2703.66
726.467	2754.86
726.653	2769.2
726.84	2920.74
727.027	2947.37
727.213	2826.54
727.4	2867.5
727.586	2832.68
727.773	2779.43
727.959	2851.11
728.145	2781.48
728.332	2822.44
728.518	2814.25
728.705	2832.68
728.891	2930.98
729.077	2826.54
729.264	2865.45
729.45	2883.88
729.636	2812.2
729.823	2873.64
730.009	2857.26
730.195	2879.79
730.382	3025.19
730.568	2838.83
730.754	2709.8
730.94	2838.83
731.126	3004.71
731.313	2908.46
731.499	2930.98
731.685	2969.9
731.871	2853.16
732.057	2961.7
732.243	2816.3
732.429	2904.36
732.615	2857.26
732.801	2978.09
732.987	2976.04
733.173	2783.53
733.359	2920.74
733.545	2920.74
733.731	2810.15
733.917	2797.87
734.103	2877.74
734.289	2984.23
734.475	2752.81
734.661	2865.45
734.847	2924.84
735.033	2945.32
735.219	2885.93
735.404	2820.39
735.59	2795.82
735.776	2887.98
735.962	2961.7
736.148	3000.62
736.333	2908.46
736.519	2885.93
736.705	2933.03
736.89	2898.22
737.076	2887.98
737.262	2851.11
737.447	2902.31
737.633	2894.12
737.819	2916.65
738.004	2851.11
738.19	2947.37
738.375	3021.1
738.561	2947.37
738.747	2973.99
738.932	2912.55
739.118	2951.46
739.303	2896.17
739.489	2898.22
739.674	2875.69
739.859	2971.94
740.045	2855.21
740.23	2834.73
740.416	2674.99
740.601	2873.64
740.786	2781.48
740.972	2748.72
741.157	2816.3
741.342	2728.24
741.528	2754.86
741.713	2883.88
741.898	2799.91
742.084	2830.63
742.269	2842.92
742.454	2851.11
742.639	2836.78
742.824	2730.28
743.01	2750.76
743.195	2869.55
743.38	2820.39
743.565	2695.47
743.75	2902.31
743.935	2724.14
744.12	2840.87
744.305	2748.72
744.49	2754.86
744.675	2652.46
744.86	2705.71
745.045	2674.99
745.23	2726.19
745.415	2822.44
745.6	2754.86
745.785	2847.02
745.97	2789.67
746.155	2689.32
746.34	2601.26
746.525	2595.12
746.71	2754.86
746.895	2595.12
747.079	2699.56
747.264	2687.28
747.449	2699.56
747.634	2599.21
747.819	2605.36
748.003	2533.68
748.188	2591.02
748.373	2470.19
748.557	2486.58
748.742	2478.38
748.927	2642.22
749.111	2566.45
749.296	2521.39
749.481	2599.21
749.665	2496.82
749.85	2433.33
750.034	2425.14
750.219	2390.32
750.404	2525.49
750.588	2447.66
750.773	2335.03
750.957	2394.42
751.141	2445.62
751.326	2375.99
751.51	2400.56
751.695	2345.27
751.879	2445.62
752.064	2416.94
752.248	2269.49
752.432	2361.65
752.617	2298.16
752.801	2320.69
752.985	2324.79
753.17	2300.21
753.354	2335.03
753.538	2384.18
753.722	2169.14
753.907	2183.48
754.091	2140.47
754.275	2269.49
754.459	2152.76
754.643	2150.71
754.828	2095.41
755.012	2163
755.196	2097.46
755.38	2165.04
755.564	2064.69
755.748	2099.51
755.932	2052.41
756.116	2021.69
756.3	2083.13
756.484	2138.42
756.668	2124.08
756.852	1939.77
757.036	1941.82
757.22	1982.78
757.404	1911.1
757.588	1950.01
757.772	1980.73
757.956	1954.1
758.14	1974.58
758.323	1923.38
758.507	1933.62
758.691	1923.38
758.875	1812.79
759.059	1962.3
759.242	1792.31
759.426	1739.07
759.61	1814.84
759.794	1843.51
759.977	1734.97
760.161	1909.05
760.345	1853.75
760.528	1800.51
760.712	1788.22
760.895	1808.7
761.079	1802.55
761.263	1675.58
761.446	1751.35
761.63	1784.12
761.813	1685.82
761.997	1605.95
762.18	1642.81
762.364	1741.11
762.547	1648.96
762.731	1712.44
762.914	1620.28
763.098	1714.49
763.281	1653.05
763.464	1730.87
763.648	1640.76
763.831	1665.34
764.015	1564.99
764.198	1683.77
764.381	1567.04
764.564	1571.13
764.748	1603.9
764.931	1634.62
765.114	1472.83
765.297	1626.43
765.481	1577.28
765.664	1628.48
765.847	1546.56
766.03	1511.74
766.213	1530.17
766.397	1564.99
766.58	1521.98
766.763	1583.42
766.946	1612.09
767.129	1411.39
767.312	1513.79
767.495	1513.79
767.678	1528.13
767.861	1493.31
768.044	1507.65
768.227	1501.5
768.41	1407.3
768.593	1487.17
768.776	1534.27
768.959	1462.59
769.142	1407.3
769.324	1423.68
769.507	1431.87
769.69	1466.69
769.873	1435.97
770.056	1546.56
770.239	1356.1
770.421	1438.02
770.604	1384.77
770.787	1356.1
770.97	1349.95
771.152	1274.18
771.335	1411.39
771.518	1421.63
771.7	1438.02
771.883	1339.71
772.066	1311.04
772.248	1319.23
772.431	1417.54
772.613	1388.86
772.796	1315.14
772.978	1345.86
773.161	1388.86
773.343	1177.92
773.526	1347.9
773.708	1329.47
773.891	1366.34
774.073	1259.84
774.256	1253.7
774.438	1278.27
774.621	1354.05
774.803	1255.75
774.985	1175.88
775.168	1247.55
775.35	1155.4
775.532	1184.07
775.715	1202.5
775.897	1143.11
776.079	1093.96
776.261	1112.39
776.444	1112.39
776.626	1173.83
776.808	1212.74
776.99	1118.53
777.173	1136.96
777.355	1071.43
777.537	1159.49
777.719	1091.91
777.901	1018.18
778.083	1083.72
778.265	1012.04
778.447	1110.34
778.629	1007.94
778.811	948.55
778.993	983.37
779.175	1055.05
779.357	1001.8
779.539	1016.13
779.721	1012.04
779.903	952.65
780.085	1009.99
780.267	948.55
780.449	1001.8
780.631	975.17
780.812	1007.94
780.994	903.5
781.176	969.03
781.358	979.27
781.54	913.74
781.721	899.4
781.903	915.78
782.085	844.1
782.267	897.35
782.448	930.12
782.63	807.24
782.812	872.78
782.993	864.58
783.175	823.62
783.357	833.86
783.538	862.54
783.72	790.86
783.901	842.06
784.083	846.15
784.264	842.06
784.446	766.28
784.627	772.43
784.809	776.52
784.99	799.05
785.172	831.82
785.353	768.33
785.535	704.84
785.716	608.59
785.897	725.32
786.079	758.09
786.26	774.47
786.441	637.26
786.623	674.12
786.804	846.15
786.985	692.55
787.167	770.38
787.348	665.93
787.529	776.52
787.71	715.08
787.891	700.75
788.073	676.17
788.254	637.26
788.435	690.51
788.616	643.4
788.797	661.84
788.978	678.22
789.159	657.74
789.34	608.59
789.522	571.72
789.703	573.77
789.884	647.5
790.065	592.2
790.246	688.46
790.427	563.53
790.607	647.5
790.788	588.11
790.969	504.14
791.15	536.91
791.331	641.36
791.512	592.2
791.693	520.53
791.874	588.11
792.054	536.91
792.235	536.91
792.416	518.48
792.597	545.1
792.778	532.81
792.958	559.44
793.139	489.81
793.32	520.53
793.5	491.85
793.681	532.81
793.862	502.09
794.042	547.15
794.223	450.89
794.404	450.89
794.584	473.42
794.765	508.24
794.945	471.37
795.126	547.15
795.306	444.75
795.487	514.38
795.667	457.04
795.848	454.99
796.028	510.29
796.209	491.85
796.389	467.28
796.57	405.84
796.75	428.37
796.93	403.79
797.111	405.84
797.291	377.17
797.471	477.52
797.652	414.03
797.832	434.51
798.012	444.75
798.192	371.02
798.373	465.23
798.553	414.03
798.733	383.31
798.913	385.36
799.093	405.84
799.274	450.89
799.454	411.98
799.634	375.12
799.814	387.41
799.994	459.09
800.174	465.23
800.354	414.03
800.534	364.88
800.714	397.65
800.894	328.02
801.074	381.26
801.254	401.74
801.434	489.81
801.614	348.5
801.794	409.94
801.974	1036.61
802.154	330.06
802.334	397.65
802.514	301.39
802.693	356.69
802.873	276.82
803.053	368.98
803.233	246.1
803.413	342.35
803.592	371.02
803.772	274.77
803.952	387.41
804.131	319.82
804.311	442.7
804.491	301.39
804.67	356.69
804.85	381.26
805.03	373.07
805.209	385.36
805.389	373.07
805.568	262.48
805.748	332.11
805.928	299.34
806.107	291.15
806.287	328.02
806.466	282.96
806.646	299.34
806.825	311.63
807.004	299.34
807.184	280.91
807.363	297.3
807.543	323.92
807.722	274.77
807.901	317.78
808.081	282.96
808.26	354.64
808.439	354.64
808.619	354.64
808.798	272.72
808.977	268.63
809.156	336.21
809.336	205.14
809.515	319.82
809.694	291.15
809.873	315.73
810.052	311.63
810.231	348.5
810.411	313.68
810.59	311.63
810.769	215.38
810.948	239.95
811.127	235.86
811.306	235.86
811.485	229.71
811.664	235.86
811.843	211.28
812.022	299.34
812.201	268.63
812.38	274.77
812.559	295.25
812.737	293.2
812.916	223.57
813.095	207.19
813.274	258.39
813.453	278.87
813.632	186.71
813.811	254.29
813.989	225.62
814.168	194.9
814.347	217.43
814.526	244.05
814.704	252.24
814.883	305.49
815.062	266.58
815.24	164.18
815.419	229.71
815.598	203.09
815.776	180.56
815.955	254.29
816.133	192.85
816.312	254.29
816.49	254.29
816.669	233.81
816.847	282.96
817.026	221.52
817.204	221.52
817.383	223.57
817.561	215.38
817.74	235.86
817.918	213.33
818.097	190.8
818.275	125.27
818.453	162.13
818.632	215.38
818.81	215.38
818.988	237.91
819.167	147.8
819.345	260.43
819.523	182.61
819.701	166.23
819.879	235.86
820.058	137.56
820.236	209.23
820.414	160.08
820.592	96.6
820.77	209.23
820.948	139.6
821.127	149.84
821.305	172.37
821.483	125.27
821.661	211.28
821.839	129.36
822.017	155.99
822.195	166.23
822.373	188.75
822.551	151.89
822.729	221.52
822.907	147.8
823.085	166.23
823.262	170.32
823.44	131.41
823.618	231.76
823.796	180.56
823.974	162.13
824.152	125.27
824.329	221.52
824.507	188.75
824.685	153.94
824.863	86.36
825.04	119.12
825.218	207.19
825.396	137.56
825.574	205.14
825.751	194.9
825.929	147.8
826.107	86.36
826.284	198.99
826.462	205.14
826.639	158.03
826.817	125.27
826.994	88.4
827.172	110.93
827.349	168.27
827.527	205.14
827.704	182.61
827.882	158.03
828.059	170.32
828.237	151.89
828.414	213.33
828.591	145.75
828.769	178.51
828.946	168.27
829.124	180.56
829.301	192.85
829.478	69.97
829.655	127.32
829.833	127.32
830.01	86.36
830.187	174.42
830.364	153.94
830.542	174.42
830.719	106.84
830.896	147.8
831.073	143.7
831.25	250.19
831.427	158.03
831.604	164.18
831.782	100.69
831.959	141.65
832.136	172.37
832.313	174.42
832.49	80.21
832.667	131.41
832.844	65.88
833.021	112.98
833.198	145.75
833.374	104.79
833.551	121.17
833.728	90.45
833.905	147.8
834.082	86.36
834.259	51.54
834.436	153.94
834.612	88.4
834.789	74.07
834.966	82.26
835.143	80.21
835.319	98.64
835.496	176.47
835.673	115.03
835.85	119.12
836.026	125.27
836.203	102.74
836.38	112.98
836.556	51.54
836.733	115.03
836.909	168.27
837.086	145.75
837.262	121.17
837.439	125.27
837.616	141.65
837.792	108.88
837.968	20.82
838.145	43.35
838.321	72.02
838.498	106.84
838.674	145.75
838.851	182.61
839.027	84.31
839.203	41.3
839.38	168.27
839.556	155.99
839.732	125.27
839.909	80.21
840.085	100.69
840.261	59.73
840.437	135.51
840.614	84.31
840.79	78.16
840.966	61.78
841.142	47.44
841.318	43.35
841.494	178.51
841.671	94.55
841.847	14.68
842.023	-13.99
842.199	110.93
842.375	102.74
842.551	145.75
842.727	65.88
842.903	92.5
843.079	100.69
843.255	104.79
843.431	108.88
843.607	82.26
843.783	69.97
843.959	115.03
844.134	59.73
844.31	110.93
844.486	80.21
844.662	86.36
844.838	125.27
845.013	55.64
845.189	47.44
845.365	104.79
845.541	112.98
845.716	88.4
845.892	92.5
846.068	100.69
846.244	18.77
846.419	115.03
846.595	57.68
846.77	8.53
846.946	78.16
847.122	55.64
847.297	133.46
847.473	153.94
847.648	47.44
847.824	53.59
847.999	12.63
848.175	57.68
848.35	-16.04
848.526	110.93
848.701	98.64
848.876	69.97
849.052	92.5
849.227	65.88
849.403	63.83
849.578	45.4
849.753	119.12
849.929	94.55
850.104	76.12
850.279	53.59
850.454	29.01
850.63	92.5
850.805	65.88
850.98	63.83
851.155	47.44
851.33	78.16
851.505	78.16
851.681	133.46
851.856	110.93
852.031	12.63
852.206	16.73
852.381	29.01
852.556	43.35
852.731	45.4
852.906	96.6
853.081	57.68
853.256	104.79
853.431	35.16
853.606	33.11
853.781	59.73
853.956	-1.71
854.131	61.78
854.305	53.59
854.48	51.54
854.655	84.31
854.83	90.45
855.005	98.64
855.18	26.96
855.354	67.92
855.529	22.87
855.704	55.64
855.879	39.25
856.053	65.88
856.228	147.8
856.403	29.01
856.577	94.55
856.752	-3.75
856.926	76.12
857.101	6.49
857.276	65.88
857.45	8.53
857.625	94.55
857.799	14.68
857.974	0.34
858.148	-34.47
858.323	14.68
858.497	8.53
858.672	8.53
858.846	-26.28
859.02	63.83
859.195	-18.09
859.369	49.49
859.543	10.58
859.718	24.92
859.892	67.92
860.066	43.35
860.241	51.54
860.415	29.01
860.589	59.73
860.763	88.4
860.938	-18.09
861.112	33.11
861.286	-44.71
861.46	-34.47
861.634	12.63
861.808	29.01
861.982	12.63
862.157	10.58
862.331	37.2
862.505	33.11
862.679	33.11
862.853	47.44
863.027	10.58
863.201	80.21
863.375	47.44
863.549	41.3
863.722	47.44
863.896	117.08
864.07	55.64
864.244	69.97
864.418	24.92
864.592	63.83
864.766	39.25
864.939	20.82
865.113	57.68
865.287	129.36
865.461	14.68
865.634	-3.75
865.808	35.16
865.982	39.25
866.156	51.54
866.329	-1.71
866.503	35.16
866.676	55.64
866.85	65.88
867.024	80.21
867.197	41.3
867.371	72.02
867.544	47.44
867.718	-13.99
867.891	16.73
868.065	12.63
868.238	61.78
868.412	57.68
868.585	39.25
868.759	-22.19
868.932	-28.33
869.105	108.88
869.279	31.06
869.452	6.49
869.625	49.49
869.799	55.64
869.972	94.55
870.145	-20.14
870.319	80.21
870.492	63.83
870.665	63.83
870.838	-1.71
871.011	-44.71
871.185	119.12
871.358	16.73
871.531	29.01
871.704	43.35
871.877	94.55
872.05	-11.95
872.223	-52.91
872.396	47.44
872.569	8.53
872.742	-28.33
872.915	8.53
873.088	-50.86
873.261	45.4
873.434	59.73
873.607	-1.71
873.78	37.2
873.953	14.68
874.126	-13.99
874.299	-3.75
874.471	-1.71
874.644	45.4
874.817	61.78
874.99	80.21
875.163	-22.19
875.335	-26.28
875.508	18.77
875.681	29.01
875.853	14.68
876.026	82.26
876.199	82.26
876.371	-11.95
876.544	41.3
876.717	16.73
876.889	26.96
877.062	20.82
877.234	-5.8
877.407	55.64
877.579	49.49
877.752	53.59
877.924	65.88
878.097	63.83
878.269	67.92
878.442	18.77
878.614	53.59
878.786	84.31
878.959	-13.99
879.131	67.92
879.303	-73.39
879.476	20.82
879.648	39.25
879.82	-40.62
879.993	59.73
880.165	-28.33
880.337	-1.71
880.509	14.68
880.681	-11.95
880.854	-32.43
881.026	-28.33
881.198	115.03
881.37	20.82
881.542	31.06
881.714	6.49
881.886	37.2
882.058	29.01
882.23	-18.09
882.402	-26.28
882.574	59.73
882.746	63.83
882.918	67.92
883.09	20.82
883.262	-40.62
883.434	41.3
883.606	61.78
883.778	-30.38
883.95	20.82
884.122	-24.23
884.293	-34.47
884.465	-52.91
884.637	20.82
884.809	-18.09
884.98	-67.24
885.152	31.06
885.324	88.4
885.496	29.01
885.667	6.49
885.839	55.64
886.011	61.78
886.182	-13.99
886.354	-7.85
886.525	20.82
886.697	49.49
886.869	-1.71
887.04	-26.28
887.212	88.4
887.383	127.32
887.555	41.3
887.726	2.39
887.897	55.64
888.069	4.44
888.24	-1.71
888.412	-28.33
888.583	26.96
888.754	47.44
888.926	4.44
889.097	57.68
889.268	24.92
889.44	39.25
889.611	82.26
889.782	43.35
889.953	22.87
890.125	-1.71
890.296	22.87
890.467	-7.85
890.638	4.44
890.809	14.68
890.98	31.06
891.151	12.63
891.323	10.58
891.494	8.53
891.665	-5.8
891.836	22.87
892.007	-36.52
892.178	-36.52
892.349	106.84
892.52	-11.95
892.691	-22.19
892.862	49.49
893.032	-87.72
893.203	33.11
893.374	37.2
893.545	51.54
893.716	35.16
893.887	12.63
894.057	26.96
894.228	22.87
894.399	63.83
894.57	24.92
894.74	22.87
894.911	22.87
895.082	-11.95
895.253	-44.71
895.423	24.92
895.594	67.92
895.764	86.36
895.935	8.53
896.106	-16.04
896.276	12.63
896.447	-18.09
896.617	35.16
896.788	-108.2
896.958	-54.95
897.129	31.06
897.299	24.92
897.47	74.07
897.64	-13.99
897.81	115.03
897.981	-5.8
898.151	-18.09
898.322	80.21
898.492	18.77
898.662	16.73
898.832	76.12
899.003	-40.62
899.173	53.59
899.343	-24.23
899.513	37.2
