Data from USB4F104151__30__12-41-13-704.txt Node

Date: Fri Mar 14 12:41:13 EDT 2025
User: louis
Spectrometer: USB4F10415
Trigger mode: 4
Integration Time (sec): 3.000000E-2
Scans to average: 1
Electric dark correction enabled: true
Nonlinearity correction enabled: false
Boxcar width: 0
XAxis mode: Wavelengths
Number of Pixels in Spectrum: 3648
>>>>>Begin Spectral Data<<<<<
178.204	-154.45
178.424	-154.45
178.644	-154.45
178.864	-97.11
179.084	-123.73
179.304	11.43
179.524	-60.24
179.744	-27.48
179.964	1.19
180.184	15.53
180.404	11.43
180.624	-43.86
180.844	21.67
181.064	5.29
181.283	3.24
181.503	3.24
181.723	58.54
181.943	-82.77
182.163	38.06
182.383	-43.86
182.602	-13.14
182.822	58.54
183.042	9.39
183.262	15.53
183.482	29.87
183.701	3.24
183.921	48.3
184.141	-43.86
184.361	56.49
184.58	17.58
184.8	52.39
185.02	36.01
185.239	52.39
185.459	-13.14
185.679	21.67
185.898	-35.67
186.118	81.07
186.338	23.72
186.557	-13.14
186.777	-29.52
186.997	54.44
187.216	-21.33
187.436	76.97
187.655	62.63
187.875	7.34
188.095	27.82
188.314	33.96
188.534	-7
188.753	-17.24
188.973	-19.29
189.192	113.83
189.412	68.78
189.631	-11.09
189.851	-45.91
190.07	48.3
190.29	-43.86
190.509	27.82
190.729	70.83
190.948	52.39
191.168	85.16
191.387	15.53
191.607	38.06
191.826	97.45
192.045	-21.33
192.265	81.07
192.484	-0.85
192.704	87.21
192.923	-58.2
193.142	103.59
193.362	50.35
193.581	64.68
193.8	13.48
194.02	42.15
194.239	17.58
194.458	25.77
194.678	-19.29
194.897	44.2
195.116	21.67
195.335	-56.15
195.555	-25.43
195.774	31.91
195.993	25.77
196.212	15.53
196.432	-50
196.651	-15.19
196.87	68.78
197.089	111.78
197.308	19.63
197.528	56.49
197.747	-19.29
197.966	38.06
198.185	105.64
198.404	70.83
198.623	52.39
198.842	68.78
199.062	25.77
199.281	132.26
199.5	48.3
199.719	-31.57
199.938	95.4
200.157	44.2
200.376	40.11
200.595	93.35
200.814	-19.29
201.033	-29.52
201.252	19.63
201.471	42.15
201.69	68.78
201.909	54.44
202.128	50.35
202.347	81.07
202.566	5.29
202.785	-4.95
203.004	-7
203.223	40.11
203.442	5.29
203.661	31.91
203.879	52.39
204.098	48.3
204.317	44.2
204.536	36.01
204.755	38.06
204.974	29.87
205.193	36.01
205.411	48.3
205.63	101.55
205.849	-19.29
206.068	42.15
206.287	17.58
206.505	13.48
206.724	-13.14
206.943	-9.05
207.162	40.11
207.381	38.06
207.599	68.78
207.818	-7
208.037	-41.81
208.255	7.34
208.474	44.2
208.693	17.58
208.911	27.82
209.13	3.24
209.349	21.67
209.567	56.49
209.786	109.74
210.005	91.31
210.223	15.53
210.442	31.91
210.661	15.53
210.879	56.49
211.098	-35.67
211.316	-9.05
211.535	40.11
211.753	5.29
211.972	44.2
212.191	3.24
212.409	-23.38
212.628	-21.33
212.846	58.54
213.065	38.06
213.283	52.39
213.502	46.25
213.72	52.39
213.938	33.96
214.157	76.97
214.375	95.4
214.594	48.3
214.812	72.87
215.031	-37.72
215.249	-17.24
215.467	42.15
215.686	91.31
215.904	38.06
216.122	25.77
216.341	115.88
216.559	11.43
216.778	31.91
216.996	44.2
217.214	23.72
217.432	9.39
217.651	70.83
217.869	-17.24
218.087	-33.62
218.306	27.82
218.524	72.87
218.742	25.77
218.96	38.06
219.179	50.35
219.397	89.26
219.615	70.83
219.833	40.11
220.051	13.48
220.27	87.21
220.488	91.31
220.706	68.78
220.924	13.48
221.142	70.83
221.36	-33.62
221.578	68.78
221.796	-9.05
222.015	91.31
222.233	42.15
222.451	31.91
222.669	74.92
222.887	44.2
223.105	-23.38
223.323	23.72
223.541	21.67
223.759	-15.19
223.977	-15.19
224.195	60.59
224.413	27.82
224.631	44.2
224.849	64.68
225.067	74.92
225.285	-80.72
225.503	64.68
225.721	-62.29
225.939	-52.05
226.157	29.87
226.375	142.5
226.592	-93.01
226.81	23.72
227.028	146.6
227.246	156.84
227.464	42.15
227.682	1.19
227.9	-19.29
228.117	48.3
228.335	-17.24
228.553	70.83
228.771	5.29
228.989	111.78
229.206	13.48
229.424	1.19
229.642	15.53
229.86	42.15
230.077	85.16
230.295	56.49
230.513	56.49
230.731	1.19
230.948	81.07
231.166	40.11
231.384	38.06
231.601	-31.57
231.819	111.78
232.037	1.19
232.254	-39.76
232.472	50.35
232.689	25.77
232.907	68.78
233.125	15.53
233.342	58.54
233.56	36.01
233.777	-60.24
233.995	105.64
234.213	64.68
234.43	62.63
234.648	68.78
234.865	5.29
235.083	27.82
235.3	-25.43
235.518	64.68
235.735	58.54
235.953	15.53
236.17	76.97
236.388	44.2
236.605	38.06
236.822	-7
237.04	48.3
237.257	-19.29
237.475	-7
237.692	27.82
237.909	56.49
238.127	-39.76
238.344	-29.52
238.562	79.02
238.779	76.97
238.996	44.2
239.214	-2.9
239.431	21.67
239.648	-13.14
239.865	66.73
240.083	64.68
240.3	38.06
240.517	38.06
240.735	68.78
240.952	62.63
241.169	152.74
241.386	29.87
241.603	68.78
241.821	-13.14
242.038	50.35
242.255	-11.09
242.472	-21.33
242.689	31.91
242.907	27.82
243.124	21.67
243.341	-39.76
243.558	23.72
243.775	1.19
243.992	-25.43
244.209	76.97
244.426	124.07
244.643	-35.67
244.86	15.53
245.078	9.39
245.295	48.3
245.512	15.53
245.729	29.87
245.946	13.48
246.163	68.78
246.38	23.72
246.597	-23.38
246.814	-29.52
247.031	42.15
247.248	33.96
247.464	23.72
247.681	-7
247.898	11.43
248.115	25.77
248.332	48.3
248.549	21.67
248.766	66.73
248.983	15.53
249.2	-9.05
249.417	44.2
249.633	31.91
249.85	-7
250.067	38.06
250.284	23.72
250.501	68.78
250.717	97.45
250.934	-25.43
251.151	1.19
251.368	-31.57
251.585	99.5
251.801	-52.05
252.018	25.77
252.235	68.78
252.451	3.24
252.668	40.11
252.885	1.19
253.102	56.49
253.318	60.59
253.535	42.15
253.752	-17.24
253.968	33.96
254.185	-7
254.401	-27.48
254.618	64.68
254.835	7.34
255.051	62.63
255.268	-35.67
255.484	48.3
255.701	36.01
255.917	48.3
256.134	-2.9
256.351	54.44
256.567	-2.9
256.784	-41.81
257	-13.14
257.217	31.91
257.433	93.35
257.65	70.83
257.866	68.78
258.082	33.96
258.299	48.3
258.515	48.3
258.732	27.82
258.948	-29.52
259.165	15.53
259.381	9.39
259.597	23.72
259.814	58.54
260.03	38.06
260.246	15.53
260.463	11.43
260.679	21.67
260.895	19.63
261.112	74.92
261.328	-0.85
261.544	19.63
261.761	68.78
261.977	36.01
262.193	-33.62
262.409	-11.09
262.626	46.25
262.842	5.29
263.058	42.15
263.274	23.72
263.49	36.01
263.707	-7
263.923	-7
264.139	-0.85
264.355	-35.67
264.571	29.87
264.787	21.67
265.004	87.21
265.22	50.35
265.436	21.67
265.652	70.83
265.868	27.82
266.084	-0.85
266.3	40.11
266.516	85.16
266.732	62.63
266.948	56.49
267.164	74.92
267.38	38.06
267.596	-13.14
267.812	50.35
268.028	25.77
268.244	44.2
268.46	33.96
268.676	74.92
268.892	89.26
269.108	87.21
269.324	23.72
269.54	-19.29
269.756	70.83
269.972	-7
270.188	-25.43
270.403	29.87
270.619	19.63
270.835	74.92
271.051	21.67
271.267	-2.9
271.483	9.39
271.698	25.77
271.914	38.06
272.13	64.68
272.346	-0.85
272.562	-2.9
272.777	-4.95
272.993	109.74
273.209	-21.33
273.425	52.39
273.64	36.01
273.856	87.21
274.072	-13.14
274.287	36.01
274.503	44.2
274.719	101.55
274.934	-11.09
275.15	-33.62
275.366	79.02
275.581	-25.43
275.797	15.53
276.012	60.59
276.228	29.87
276.444	7.34
276.659	79.02
276.875	-31.57
277.09	9.39
277.306	68.78
277.521	52.39
277.737	25.77
277.952	-7
278.168	72.87
278.383	7.34
278.599	-2.9
278.814	42.15
279.03	54.44
279.245	95.4
279.461	25.77
279.676	-31.57
279.892	-62.29
280.107	-80.72
280.322	-19.29
280.538	68.78
280.753	58.54
280.969	83.11
281.184	-19.29
281.399	50.35
281.615	126.12
281.83	31.91
282.045	-29.52
282.26	70.83
282.476	-58.2
282.691	11.43
282.906	-9.05
283.122	36.01
283.337	11.43
283.552	42.15
283.767	-11.09
283.983	97.45
284.198	38.06
284.413	25.77
284.628	-25.43
284.843	7.34
285.058	113.83
285.274	64.68
285.489	11.43
285.704	1.19
285.919	31.91
286.134	-7
286.349	1.19
286.564	19.63
286.779	31.91
286.995	81.07
287.21	1.19
287.425	-15.19
287.64	13.48
287.855	7.34
288.07	-4.95
288.285	38.06
288.5	23.72
288.715	107.69
288.93	-29.52
289.145	25.77
289.36	42.15
289.575	21.67
289.79	85.16
290.004	15.53
290.219	105.64
290.434	-62.29
290.649	-80.72
290.864	72.87
291.079	27.82
291.294	64.68
291.509	66.73
291.724	33.96
291.938	23.72
292.153	87.21
292.368	40.11
292.583	38.06
292.798	64.68
293.012	-15.19
293.227	95.4
293.442	40.11
293.657	66.73
293.871	115.88
294.086	103.59
294.301	60.59
294.516	15.53
294.73	97.45
294.945	-25.43
295.16	66.73
295.374	62.63
295.589	17.58
295.804	52.39
296.018	54.44
296.233	66.73
296.447	68.78
296.662	-7
296.877	89.26
297.091	105.64
297.306	-15.19
297.52	74.92
297.735	111.78
297.949	-9.05
298.164	48.3
298.378	81.07
298.593	-4.95
298.807	-13.14
299.022	27.82
299.236	66.73
299.451	-41.81
299.665	-41.81
299.88	-15.19
300.094	87.21
300.309	42.15
300.523	-0.85
300.737	38.06
300.952	72.87
301.166	33.96
301.381	5.29
301.595	9.39
301.809	9.39
302.024	56.49
302.238	44.2
302.452	93.35
302.667	17.58
302.881	117.93
303.095	44.2
303.309	50.35
303.524	-45.91
303.738	29.87
303.952	3.24
304.166	-37.72
304.381	-41.81
304.595	79.02
304.809	62.63
305.023	64.68
305.237	5.29
305.452	38.06
305.666	46.25
305.88	17.58
306.094	52.39
306.308	23.72
306.522	66.73
306.736	29.87
306.95	66.73
307.164	-19.29
307.379	23.72
307.593	79.02
307.807	15.53
308.021	87.21
308.235	52.39
308.449	74.92
308.663	56.49
308.877	103.59
309.091	5.29
309.305	-2.9
309.519	7.34
309.733	111.78
309.947	54.44
310.161	56.49
310.374	81.07
310.588	85.16
310.802	-9.05
311.016	-13.14
311.23	89.26
311.444	9.39
311.658	31.91
311.872	79.02
312.085	103.59
312.299	97.45
312.513	56.49
312.727	101.55
312.941	-39.76
313.154	87.21
313.368	25.77
313.582	-29.52
313.796	17.58
314.009	19.63
314.223	31.91
314.437	60.59
314.651	36.01
314.864	56.49
315.078	-11.09
315.292	44.2
315.505	74.92
315.719	-2.9
315.933	17.58
316.146	23.72
316.36	-0.85
316.573	76.97
316.787	68.78
317.001	21.67
317.214	21.67
317.428	-7
317.641	-35.67
317.855	-7
318.068	-41.81
318.282	58.54
318.495	136.36
318.709	44.2
318.922	15.53
319.136	40.11
319.349	64.68
319.563	13.48
319.776	-15.19
319.99	25.77
320.203	64.68
320.417	60.59
320.63	23.72
320.843	66.73
321.057	46.25
321.27	36.01
321.483	23.72
321.697	99.5
321.91	58.54
322.124	40.11
322.337	56.49
322.55	5.29
322.763	-17.24
322.977	46.25
323.19	62.63
323.403	-7
323.617	-13.14
323.83	-39.76
324.043	7.34
324.256	56.49
324.469	-45.91
324.683	29.87
324.896	-11.09
325.109	48.3
325.322	-64.34
325.535	93.35
325.748	70.83
325.962	93.35
326.175	17.58
326.388	46.25
326.601	-2.9
326.814	17.58
327.027	23.72
327.24	107.69
327.453	33.96
327.666	27.82
327.879	44.2
328.092	101.55
328.305	23.72
328.518	15.53
328.731	29.87
328.944	33.96
329.157	50.35
329.37	62.63
329.583	36.01
329.796	62.63
330.009	-11.09
330.222	50.35
330.435	87.21
330.648	81.07
330.861	19.63
331.073	68.78
331.286	150.7
331.499	29.87
331.712	40.11
331.925	48.3
332.138	-4.95
332.35	21.67
332.563	23.72
332.776	25.77
332.989	15.53
333.202	60.59
333.414	23.72
333.627	42.15
333.84	36.01
334.053	-9.05
334.265	58.54
334.478	17.58
334.691	54.44
334.903	15.53
335.116	-4.95
335.329	109.74
335.541	5.29
335.754	85.16
335.966	-25.43
336.179	52.39
336.392	-17.24
336.604	-11.09
336.817	48.3
337.029	9.39
337.242	95.4
337.454	89.26
337.667	44.2
337.88	148.65
338.092	62.63
338.305	83.11
338.517	11.43
338.729	27.82
338.942	97.45
339.154	68.78
339.367	5.29
339.579	117.93
339.792	11.43
340.004	76.97
340.217	99.5
340.429	58.54
340.641	48.3
340.854	-27.48
341.066	-25.43
341.278	44.2
341.491	126.12
341.703	31.91
341.915	21.67
342.128	-11.09
342.34	68.78
342.552	60.59
342.764	-0.85
342.977	50.35
343.189	38.06
343.401	148.65
343.613	52.39
343.826	19.63
344.038	-15.19
344.25	62.63
344.462	-2.9
344.674	109.74
344.886	95.4
345.099	115.88
345.311	64.68
345.523	31.91
345.735	56.49
345.947	128.17
346.159	17.58
346.371	44.2
346.583	66.73
346.795	13.48
347.007	105.64
347.219	40.11
347.431	-37.72
347.643	132.26
347.855	-13.14
348.067	134.31
348.279	83.11
348.491	40.11
348.703	48.3
348.915	42.15
349.127	27.82
349.339	81.07
349.551	115.88
349.763	50.35
349.975	40.11
350.187	58.54
350.399	56.49
350.61	97.45
350.822	97.45
351.034	91.31
351.246	50.35
351.458	76.97
351.669	72.87
351.881	-50
352.093	33.96
352.305	130.22
352.517	15.53
352.728	5.29
352.94	31.91
353.152	122.02
353.363	11.43
353.575	64.68
353.787	138.41
353.999	64.68
354.21	103.59
354.422	9.39
354.633	5.29
354.845	27.82
355.057	93.35
355.268	89.26
355.48	109.74
355.692	115.88
355.903	54.44
356.115	31.91
356.326	-4.95
356.538	105.64
356.749	38.06
356.961	95.4
357.172	70.83
357.384	-13.14
357.595	33.96
357.807	93.35
358.018	31.91
358.23	-7
358.441	74.92
358.653	115.88
358.864	25.77
359.075	1.19
359.287	54.44
359.498	81.07
359.709	105.64
359.921	60.59
360.132	31.91
360.344	68.78
360.555	56.49
360.766	50.35
360.977	68.78
361.189	130.22
361.4	33.96
361.611	113.83
361.823	70.83
362.034	56.49
362.245	91.31
362.456	31.91
362.667	48.3
362.879	31.91
363.09	38.06
363.301	23.72
363.512	60.59
363.723	21.67
363.935	36.01
364.146	62.63
364.357	-0.85
364.568	97.45
364.779	-29.52
364.99	64.68
365.201	44.2
365.412	60.59
365.623	-0.85
365.834	60.59
366.045	68.78
366.256	46.25
366.467	99.5
366.678	-31.57
366.889	-4.95
367.1	62.63
367.311	-0.85
367.522	31.91
367.733	-13.14
367.944	40.11
368.155	23.72
368.366	64.68
368.577	97.45
368.788	23.72
368.999	36.01
369.209	122.02
369.42	46.25
369.631	119.98
369.842	40.11
370.053	11.43
370.264	7.34
370.474	81.07
370.685	50.35
370.896	42.15
371.107	15.53
371.317	128.17
371.528	7.34
371.739	38.06
371.95	44.2
372.16	46.25
372.371	107.69
372.582	74.92
372.792	5.29
373.003	52.39
373.214	25.77
373.424	19.63
373.635	-47.96
373.846	85.16
374.056	42.15
374.267	44.2
374.477	25.77
374.688	50.35
374.898	38.06
375.109	64.68
375.319	42.15
375.53	85.16
375.74	23.72
375.951	74.92
376.161	1.19
376.372	42.15
376.582	-35.67
376.793	70.83
377.003	27.82
377.214	74.92
377.424	33.96
377.635	107.69
377.845	-2.9
378.055	107.69
378.266	-11.09
378.476	25.77
378.686	52.39
378.897	117.93
379.107	42.15
379.317	54.44
379.528	21.67
379.738	29.87
379.948	13.48
380.158	70.83
380.369	95.4
380.579	15.53
380.789	62.63
380.999	40.11
381.21	87.21
381.42	138.41
381.63	97.45
381.84	179.37
382.05	15.53
382.261	56.49
382.471	46.25
382.681	9.39
382.891	50.35
383.101	109.74
383.311	25.77
383.521	72.87
383.731	54.44
383.941	42.15
384.151	128.17
384.361	36.01
384.571	42.15
384.781	42.15
384.991	29.87
385.201	109.74
385.411	36.01
385.621	130.22
385.831	54.44
386.041	44.2
386.251	27.82
386.461	134.31
386.671	48.3
386.881	23.72
387.091	50.35
387.301	79.02
387.511	33.96
387.72	72.87
387.93	-13.14
388.14	83.11
388.35	-17.24
388.56	68.78
388.769	64.68
388.979	130.22
389.189	79.02
389.399	7.34
389.609	66.73
389.818	60.59
390.028	50.35
390.238	23.72
390.447	58.54
390.657	15.53
390.867	23.72
391.076	60.59
391.286	48.3
391.496	95.4
391.705	38.06
391.915	126.12
392.125	62.63
392.334	91.31
392.544	19.63
392.753	48.3
392.963	60.59
393.172	70.83
393.382	79.02
393.591	107.69
393.801	54.44
394.01	136.36
394.22	-27.48
394.429	50.35
394.639	70.83
394.848	122.02
395.058	130.22
395.267	66.73
395.477	119.98
395.686	101.55
395.895	195.75
396.105	193.7
396.314	103.59
396.524	117.93
396.733	76.97
396.942	142.5
397.152	122.02
397.361	115.88
397.57	103.59
397.78	122.02
397.989	138.41
398.198	175.27
398.407	48.3
398.617	99.5
398.826	134.31
399.035	128.17
399.244	128.17
399.453	99.5
399.663	56.49
399.872	85.16
400.081	124.07
400.29	99.5
400.499	89.26
400.708	175.27
400.917	79.02
401.127	76.97
401.336	130.22
401.545	99.5
401.754	220.33
401.963	122.02
402.172	169.13
402.381	179.37
402.59	74.92
402.799	101.55
403.008	144.55
403.217	171.18
403.426	107.69
403.635	76.97
403.844	175.27
404.053	158.89
404.262	173.22
404.471	169.13
404.68	130.22
404.888	101.55
405.097	111.78
405.306	144.55
405.515	158.89
405.724	234.66
405.933	167.08
406.142	212.14
406.35	222.38
406.559	298.15
406.768	214.18
406.977	296.1
407.185	263.33
407.394	183.46
407.603	277.67
407.812	226.47
408.02	335.01
408.229	238.76
408.438	242.85
408.646	287.91
408.855	273.57
409.064	285.86
409.272	332.97
409.481	314.53
409.69	345.25
409.898	335.01
410.107	281.77
410.315	371.88
410.524	359.59
410.733	341.16
410.941	357.54
411.15	466.08
411.358	447.65
411.567	486.56
411.775	402.6
411.984	537.76
412.192	531.62
412.401	527.52
412.609	580.77
412.818	605.35
413.026	642.21
413.234	560.29
413.443	634.02
413.651	699.55
413.86	586.91
414.068	685.22
414.276	781.47
414.485	726.18
414.693	832.67
414.901	896.16
415.11	879.77
415.318	804
415.526	892.06
415.734	939.16
415.943	971.93
416.151	965.79
416.359	1012.89
416.567	1053.85
416.776	1014.94
416.984	1154.2
417.192	1127.58
417.4	1117.34
417.608	1176.73
417.817	1258.65
418.025	1322.13
418.233	1385.62
418.441	1440.92
418.649	1424.53
418.857	1539.22
419.065	1569.94
419.273	1569.94
419.481	1713.3
419.689	1768.59
419.897	1883.28
420.105	1799.31
420.313	1901.71
420.521	1926.29
420.729	1934.48
420.937	2116.75
421.145	2071.69
421.353	2219.14
421.561	2413.7
421.769	2458.76
421.977	2475.14
422.185	2544.77
422.393	2720.9
422.601	2878.59
422.809	2686.08
423.017	2856.06
423.224	2907.26
423.432	2956.41
423.64	2960.51
423.848	3415.16
424.056	3144.83
424.263	3458.17
424.471	3564.66
424.679	3683.44
424.887	3882.1
425.094	3935.34
425.302	3896.43
425.51	4050.03
425.718	4027.5
425.925	4203.63
426.133	4404.33
426.341	4625.51
426.548	4678.76
426.756	4863.07
426.964	4820.07
427.171	5041.25
427.379	5227.61
427.586	5424.22
427.794	5557.33
428.001	5762.13
428.209	6054.99
428.417	5868.63
428.624	6364.23
428.832	6286.41
429.039	6399.05
429.247	6356.04
429.454	6700.1
429.662	7367.74
429.869	6804.55
430.076	7349.31
430.284	7150.65
430.491	7550.01
430.699	7935.03
430.906	8006.7
431.114	8098.86
431.321	8361
431.528	8537.13
431.736	9188.38
431.943	9485.34
432.15	9239.58
432.358	9405.47
432.565	9896.98
432.772	9796.63
432.979	10238.99
433.187	10494.99
433.394	10603.53
433.601	11260.93
433.808	11203.58
434.016	11377.66
434.223	11817.97
434.43	12266.48
434.637	12307.44
434.844	12868.58
435.052	13022.18
435.259	13149.15
435.466	13255.65
435.673	13093.86
435.88	13913.05
436.087	14703.56
436.294	14787.53
436.501	14416.85
436.708	14472.14
436.915	15401.92
437.122	15614.91
437.329	15844.28
437.537	16417.71
437.743	16612.27
437.95	16640.94
438.157	17312.67
438.364	18121.62
438.571	18072.47
438.778	17972.12
438.985	19463.04
439.192	19020.68
439.399	19454.85
439.606	19059.59
439.813	20259.7
440.02	21369.7
440.227	20839.28
440.433	20489.07
440.64	21392.23
440.847	21130.09
441.054	21758.81
441.261	23237.45
441.467	23014.22
441.674	23466.82
441.881	24218.43
442.088	24007.48
442.294	24093.5
442.501	24587.06
442.708	25129.77
442.914	26266.39
443.121	27167.5
443.328	26690.32
443.534	28400.38
443.741	27482.89
443.948	27153.16
444.154	29184.75
444.361	29258.48
444.568	29653.73
444.774	29309.68
444.981	29563.62
445.187	30304.99
445.394	31732.42
445.6	31154.9
445.807	34237.09
446.013	32365.24
446.22	33436.33
446.426	34685.59
446.633	34462.36
446.839	36280.96
447.046	34298.53
447.252	36350.59
447.459	36563.58
447.665	36379.26
447.871	38304.35
448.078	39975.5
448.284	37667.44
448.491	38914.65
448.697	40766.01
448.903	41241.14
449.11	41175.61
449.316	40577.6
449.522	41738.8
449.728	41871.92
449.935	42791.45
450.141	42353.19
450.347	43588.11
450.553	42232.36
450.76	42592.8
450.966	44483.08
451.172	43502.1
451.378	44564.99
451.584	44081.67
451.791	45040.12
451.997	44493.32
452.203	45693.43
452.409	45709.81
452.615	45369.85
452.821	44038.67
453.027	43201.05
453.233	45384.18
453.44	43672.08
453.646	44505.6
453.852	44259.85
454.058	45519.35
454.264	43627.02
454.47	44589.57
454.676	43303.45
454.882	44999.16
455.088	41060.92
455.294	41640.5
455.5	41933.35
455.705	42893.85
455.911	40886.84
456.117	40176.2
456.323	39891.53
456.529	37972.58
456.735	39494.22
456.941	38562.4
457.147	38003.3
457.352	36610.68
457.558	36395.65
457.764	36358.78
457.97	35394.19
458.176	34597.53
458.381	34597.53
458.587	33084.08
458.793	33174.19
458.999	31425.23
459.204	33639.08
459.41	32910
459.616	30554.84
459.821	30872.28
460.027	30773.97
460.233	30171.87
460.438	28261.12
460.644	28910.32
460.85	27783.94
461.055	26938.13
461.261	26856.21
461.466	24980.27
461.672	24402.74
461.878	25998.11
462.083	23909.18
462.289	23962.43
462.494	23511.88
462.7	22483.8
462.905	21887.84
463.111	22709.07
463.316	22670.16
463.522	22313.81
463.727	22246.23
463.932	22424.4
464.138	21998.43
464.343	21828.45
464.549	21697.38
464.754	22395.73
464.959	21889.88
465.165	21920.6
465.37	21134.18
465.575	20337.52
465.781	21105.51
465.986	21390.18
466.191	20759.41
466.397	20183.93
466.602	19094.41
466.807	19905.4
467.012	19846.01
467.218	19788.67
467.423	19786.62
467.628	20040.57
467.833	20497.27
468.038	19626.88
468.244	19325.83
468.449	20296.56
468.654	19338.12
468.859	19270.53
469.064	19309.44
469.269	18314.13
469.474	18344.85
469.679	18969.48
469.885	18316.18
470.09	18557.84
470.295	18582.42
470.5	18099.09
470.705	18246.55
470.91	17800.09
471.115	17486.75
471.32	18021.27
471.525	17597.34
471.73	17439.65
471.935	17253.28
472.139	16640.94
472.344	16882.6
472.549	16679.85
472.754	16769.96
472.959	16335.79
473.164	15985.59
473.369	15901.62
473.574	16280.5
473.778	16032.69
473.983	15946.68
474.188	15791.03
474.393	15272.9
474.598	15223.75
474.802	14879.69
475.007	15057.86
475.212	14990.28
475.417	14480.33
475.621	14586.83
475.826	14336.98
476.031	14203.86
476.235	13976.53
476.44	14089.17
476.645	13755.35
476.849	13999.06
477.054	13736.92
477.259	13556.7
477.463	13528.03
477.668	13175.78
477.872	13341.66
478.077	13108.19
478.282	12717.03
478.486	12755.94
478.691	12733.42
478.895	12622.83
479.1	12704.74
479.304	12485.61
479.509	12094.45
479.713	12573.67
479.918	12129.27
480.122	11959.28
480.326	12000.24
480.531	12170.22
480.735	12014.58
480.94	11903.99
481.144	12379.12
481.348	11717.62
481.553	11879.41
481.757	11711.48
481.961	11803.64
482.166	11987.96
482.37	11834.36
482.574	11631.61
482.778	11533.31
482.983	12098.55
483.187	11686.9
483.391	11883.51
483.595	11404.28
483.8	11641.85
484.004	11805.69
484.208	11719.67
484.412	11529.21
484.616	11463.68
484.821	11760.63
485.025	11441.15
485.229	11588.6
485.433	11727.86
485.637	11672.57
485.841	11592.7
486.045	11588.6
486.249	11588.6
486.453	11699.19
486.657	11637.75
486.861	11797.49
487.065	11439.1
487.269	11721.72
487.473	11490.3
487.677	11680.76
487.881	11820.02
488.085	11688.95
488.289	11805.69
488.493	11858.93
488.697	11906.04
488.901	11721.72
489.105	11688.95
489.309	11760.63
489.512	11912.18
489.716	11807.73
489.92	11656.18
490.124	11854.84
490.328	12028.92
490.531	11932.66
490.735	11830.26
490.939	11981.81
491.143	11910.13
491.346	11871.22
491.55	12035.06
491.754	12057.59
491.958	12350.45
492.161	12260.34
492.365	12354.54
492.569	12186.61
492.772	12280.82
492.976	12610.54
493.18	12262.38
493.383	12973.03
493.587	12491.76
493.79	12827.62
493.994	12499.95
494.197	12870.63
494.401	12917.73
494.605	12796.9
494.808	13095.91
495.012	13198.31
495.215	13247.46
495.419	13345.76
495.622	13204.45
495.825	13442.01
496.029	13427.68
496.232	13781.98
496.436	13788.12
496.639	14085.08
496.843	13990.87
497.046	14236.63
497.249	14420.94
497.453	14463.95
497.656	14781.39
497.859	14834.63
498.063	14969.8
498.266	15166.4
498.469	14875.59
498.673	15080.39
498.876	15262.66
499.079	15219.65
499.282	15397.82
499.485	16124.85
499.689	16018.36
499.892	16251.83
500.095	16415.66
500.298	16628.65
500.501	16315.31
500.705	16935.85
500.908	17167.27
501.111	17384.35
501.314	17746.84
501.517	17800.09
501.72	17669.02
501.923	18160.53
502.126	18131.86
502.329	18480.02
502.532	18232.21
502.735	18621.33
502.938	18920.33
503.141	18928.52
503.344	19499.91
503.547	19250.05
503.75	19673.98
503.953	19794.81
504.156	20173.69
504.359	20470.64
504.562	20489.07
504.765	20783.98
504.968	20960.11
505.17	21218.15
505.373	21080.94
505.576	21662.56
505.779	21916.51
505.982	21742.43
506.185	22373.21
506.387	22518.61
506.59	22971.21
506.793	23008.08
506.996	22909.77
507.198	24036.16
507.401	23601.99
507.604	23982.91
507.807	24085.31
508.009	24329.02
508.212	24509.24
508.415	24802.1
508.617	24933.17
508.82	25125.68
509.022	24953.65
509.225	25916.19
509.428	25637.67
509.63	26030.88
509.833	26401.56
510.035	26876.69
510.238	26718.99
510.44	26794.77
510.643	27360.01
510.845	27714.31
511.048	27785.99
511.25	28029.69
511.453	28123.9
511.655	29295.34
511.858	28574.45
512.06	29051.63
512.262	28988.14
512.465	29309.68
512.667	29547.24
512.87	30096.1
513.072	30116.58
513.274	30528.22
513.477	30933.71
513.679	31156.94
513.881	31285.97
514.084	31515.34
514.286	31390.41
514.488	31711.94
514.69	32531.13
514.893	32615.1
515.095	32129.73
515.297	33090.23
515.499	33030.83
515.701	33249.97
515.904	33921.7
516.106	34060.96
516.308	34337.44
516.51	34802.33
516.712	34863.77
516.914	35295.89
517.116	35603.08
517.318	35547.79
517.52	35793.54
517.722	36125.32
517.925	36483.71
518.127	36700.79
518.329	36991.61
518.531	36958.84
518.733	37792.36
518.935	37964.39
519.136	37890.66
519.338	38400.61
519.54	38363.75
519.742	38687.32
519.944	38656.6
520.146	39367.25
520.348	39625.29
520.55	39414.35
520.752	39656.01
520.954	40565.31
521.155	40362.56
521.357	40757.82
521.559	40759.87
521.761	41404.98
521.963	41237.05
522.164	41255.48
522.366	41538.1
522.568	42035.75
522.77	42209.83
522.971	42859.04
523.173	42443.3
523.375	42781.21
523.576	42607.14
523.778	42736.16
523.98	43579.92
524.181	43459.09
524.383	43512.34
524.584	44063.24
524.786	44169.74
524.988	43864.59
525.189	44456.45
525.391	44642.82
525.592	44868.09
525.794	44956.16
525.995	45144.57
526.197	45156.86
526.398	45222.39
526.6	45750.77
526.801	45480.44
527.003	45650.42
527.204	45539.83
527.406	46017
527.607	45941.23
527.808	46397.93
528.01	45296.12
528.211	46109.16
528.412	46733.79
528.614	46799.33
528.815	46645.73
529.016	46911.97
529.218	46545.38
529.419	46946.78
529.62	46922.21
529.822	46830.05
530.023	46866.91
530.224	46586.34
530.425	46612.96
530.626	46615.01
530.828	46778.85
531.029	47921.62
531.23	47055.32
531.431	46873.06
531.632	47487.45
531.833	47653.33
532.035	47045.08
532.236	47190.49
532.437	47575.51
532.638	47227.35
532.839	47643.09
533.04	47602.13
533.241	46846.43
533.442	47821.26
533.643	47489.49
533.844	46981.6
534.045	47229.4
534.246	47110.62
534.447	47331.8
534.648	47600.08
534.849	47497.69
535.05	47172.06
535.251	47684.05
535.451	47438.29
535.652	47798.74
535.853	47507.93
536.054	47331.8
536.255	47616.47
536.456	47135.2
536.657	47643.09
536.857	47501.78
537.058	47215.07
537.259	47706.58
537.46	47577.56
537.66	47577.56
537.861	47454.68
538.062	47495.64
538.263	47366.62
538.463	47352.28
538.664	47387.1
538.865	47307.22
539.065	48101.84
539.266	46926.3
539.466	47757.78
539.667	47010.27
539.868	47620.56
540.068	47237.59
540.269	46852.58
540.469	47092.19
540.67	46828
540.87	46881.25
541.071	47440.34
541.271	47245.79
541.472	46862.82
541.672	46631.4
541.873	46658.02
542.073	46346.73
542.274	47765.97
542.474	47358.42
542.675	46481.89
542.875	47090.14
543.075	46807.52
543.276	46553.57
543.476	46936.54
543.676	47065.56
543.877	47374.81
544.077	46711.27
544.277	46881.25
544.478	46602.72
544.678	47102.43
544.878	46705.12
545.078	46954.97
545.279	46572
545.479	46307.82
545.679	47004.13
545.879	46930.4
546.079	46598.63
546.28	46741.99
546.48	46590.44
546.68	46639.59
546.88	46141.93
547.08	46541.28
547.28	46303.72
547.48	46373.35
547.68	46604.77
547.88	46123.5
548.081	46694.88
548.281	46467.56
548.481	46174.7
548.681	46969.31
548.881	46514.66
549.081	46303.72
549.28	45900.27
549.48	46631.4
549.68	46055.92
549.88	46926.3
550.08	46275.05
550.28	46608.87
550.48	45863.41
550.68	46416.36
550.88	46096.88
551.08	46088.68
551.279	46617.06
551.479	46229.99
551.679	46180.84
551.879	45828.59
552.079	46377.45
552.278	46170.6
552.478	45849.07
552.678	46217.71
552.878	45908.46
553.077	45832.69
553.277	45529.59
553.477	46260.71
553.676	46076.4
553.876	46160.36
554.076	45722.1
554.275	45758.96
554.475	45449.72
554.674	45941.23
554.874	45552.12
555.074	45720.05
555.273	45556.21
555.473	45953.52
555.672	45361.65
555.872	45490.68
556.071	45662.71
556.271	45472.24
556.47	45527.54
556.67	45320.7
556.869	45419
557.068	45384.18
557.268	44929.53
557.467	45261.3
557.667	45019.64
557.866	45429.24
558.065	45308.41
558.265	44988.92
558.464	44763.65
558.663	45298.17
558.863	44823.04
559.062	45445.62
559.261	44640.77
559.461	45414.9
559.66	44671.49
559.859	44980.73
560.058	44587.52
560.258	44980.73
560.457	44235.27
560.656	44698.11
560.855	44444.16
561.054	44796.42
561.253	44388.87
561.453	44284.42
561.652	44628.48
561.851	44612.1
562.05	44218.89
562.249	43969.04
562.448	44485.12
562.647	44378.63
562.846	44098.06
563.045	44292.61
563.244	43688.46
563.443	44591.62
563.642	43850.25
563.841	43878.93
564.04	43674.13
564.239	44145.16
564.438	43477.52
564.637	43864.59
564.836	43923.98
565.035	43203.1
565.234	43790.86
565.432	43270.68
565.631	43407.89
565.83	43612.69
566.029	43305.49
566.228	43307.54
566.427	43039.26
566.625	43112.98
566.824	42600.99
567.023	43117.08
567.222	42590.75
567.42	42988.06
567.619	42633.76
567.818	42779.17
568.016	42662.43
568.215	43072.03
568.414	42816.03
568.612	42867.23
568.811	42861.08
569.01	42770.97
569.208	41914.92
569.407	42252.84
569.605	42035.75
569.804	42699.3
570.002	41943.59
570.201	42246.69
570.4	41683.5
570.598	41876.01
570.797	41972.27
570.995	41794.09
571.193	41511.47
571.392	41869.87
571.59	41493.04
571.789	41429.55
571.987	41493.04
572.186	41613.87
572.384	41140.79
572.582	41640.5
572.781	41460.27
572.979	40837.69
573.177	41462.32
573.376	41296.44
573.574	40516.16
573.772	41073.21
573.971	40974.91
574.169	40438.34
574.367	40354.37
574.565	40929.85
574.763	40729.15
574.962	40340.04
575.16	39977.54
575.358	40450.63
575.556	39930.44
575.754	40376.9
575.952	39977.54
576.151	40018.5
576.349	39680.59
576.547	39805.52
576.745	39975.5
576.943	40024.65
577.141	39627.34
577.339	39660.11
577.537	39479.89
577.735	39551.57
577.933	39273.04
578.131	39785.04
578.329	38863.45
578.527	38869.59
578.725	39279.19
578.923	39088.73
579.121	38937.18
579.319	38890.07
579.516	39297.62
579.714	38451.81
579.912	38406.75
580.11	38574.69
580.308	38793.82
580.506	38699.61
580.704	37444.21
580.901	38464.1
581.099	38421.09
581.297	37692.01
581.495	37911.14
581.692	38117.99
581.89	37603.95
582.088	38074.98
582.285	37442.16
582.483	37683.82
582.681	37741.16
582.878	37472.88
583.076	36987.51
583.274	37390.96
583.471	36733.56
583.669	37141.11
583.866	36557.44
584.064	37157.49
584.262	36819.58
584.459	36727.42
584.657	36717.18
584.854	37114.48
585.052	36223.62
585.249	36321.92
585.447	36446.85
585.644	36100.74
585.841	36166.27
586.039	36162.18
586.236	35783.3
586.434	35762.82
586.631	35965.57
586.828	35672.71
587.026	35728.01
587.223	35531.4
587.42	35588.75
587.618	35838.6
587.815	35056.28
588.012	34970.26
588.21	35213.97
588.407	35084.95
588.604	34767.51
588.801	34355.87
588.999	34622.11
589.196	34923.16
589.393	34591.39
589.59	34396.83
589.787	34232.99
589.984	34177.7
590.182	34153.12
590.379	34009.76
590.576	34030.24
590.773	33985.19
590.97	33964.71
591.167	33946.28
591.364	33485.48
591.561	33649.32
591.758	33479.34
591.955	32989.88
592.152	33532.59
592.349	33348.27
592.546	33245.87
592.743	33508.01
592.94	32864.95
593.137	33106.61
593.334	33039.03
593.531	32512.7
593.727	33307.31
593.924	32811.7
594.121	32627.38
594.318	32346.81
594.515	32191.17
594.712	32469.69
594.908	31916.74
595.105	32189.12
595.302	31666.89
595.499	32010.95
595.696	31806.15
595.892	31484.62
596.089	31945.41
596.286	31820.49
596.482	31335.12
596.679	31290.06
596.876	31277.77
597.072	31302.35
597.269	31177.42
597.466	31363.79
597.662	30730.97
597.859	31134.42
598.055	30892.76
598.252	30839.51
598.448	30522.07
598.645	30302.94
598.841	30122.72
599.038	30362.33
599.234	30180.06
599.431	30337.76
599.627	29950.69
599.824	30092
600.02	29694.69
600.217	29784.8
600.413	29680.36
600.609	29584.1
600.806	29917.92
601.002	29649.64
601.198	29416.17
601.395	29354.73
601.591	29405.93
601.787	28979.95
601.984	28971.76
602.18	29197.04
602.376	29119.21
602.572	28666.61
602.769	28781.3
602.965	28674.81
603.161	28515.06
603.357	28535.54
603.553	28353.27
603.75	28369.66
603.946	28224.25
604.142	28318.46
604.338	28066.56
604.534	28105.47
604.73	27728.64
604.926	27986.69
605.122	27974.4
605.318	27826.95
605.514	27552.52
605.71	27331.34
605.906	27626.25
606.102	27290.38
606.298	27452.17
606.494	27124.49
606.69	27566.85
606.886	27493.13
607.082	26712.85
607.278	27484.94
607.474	26764.05
607.67	26598.16
607.866	26592.02
608.062	27140.88
608.257	26403.61
608.453	26917.65
608.649	26712.85
608.845	26360.6
609.041	26583.83
609.236	26415.9
609.432	26368.79
609.628	26395.42
609.824	26319.64
610.019	26100.51
610.215	26252.06
610.411	26391.32
610.606	25864.99
610.802	26016.54
610.998	26434.33
611.193	26252.06
611.389	25684.77
611.584	25832.22
611.78	25684.77
611.976	25955.1
612.171	26069.79
612.367	25817.89
612.562	25404.2
612.758	25375.53
612.953	25269.03
613.149	25883.42
613.344	25377.58
613.539	26088.22
613.735	25223.98
613.93	25410.34
614.126	25379.62
614.321	25369.38
614.517	25094.96
614.712	25359.14
614.907	25326.38
615.103	25346.86
615.298	25228.07
615.493	25396.01
615.688	24748.85
615.884	25449.25
616.079	24580.92
616.274	25195.31
616.47	25082.67
616.665	24761.14
616.86	24853.3
617.055	24464.18
617.25	24558.39
617.445	24722.23
617.641	24232.76
617.836	24464.18
618.031	23825.22
618.226	24410.93
618.421	24288.06
618.616	24568.63
618.811	23903.04
619.006	23802.69
619.201	23640.9
619.396	23771.97
619.591	23253.83
619.786	23632.71
619.981	23266.12
620.176	23683.91
620.371	23216.97
620.566	23292.74
620.761	23229.26
620.956	23415.62
621.151	22743.89
621.346	23196.49
621.541	22338.39
621.735	22707.02
621.93	22487.89
622.125	22389.59
622.32	22137.69
622.515	22238.04
622.709	22033.24
622.904	21951.32
623.099	21957.47
623.294	22059.87
623.488	22100.83
623.683	21787.49
623.878	21490.53
624.072	21336.93
624.267	21484.39
624.462	21279.59
624.656	20986.73
624.851	21220.2
625.046	20843.37
625.24	20831.08
625.435	20540.27
625.629	20523.89
625.824	20308.85
626.018	20540.27
626.213	20071.29
626.407	20059
626.602	19706.75
626.796	19913.59
626.991	19735.42
627.185	19786.62
627.38	19401.6
627.574	19315.59
627.768	19446.66
627.963	19342.21
628.157	18967.43
628.352	19180.42
628.546	18963.34
628.74	19266.44
628.935	18408.34
629.129	18629.52
629.323	18447.25
629.517	18461.58
629.712	18191.25
629.906	18291.6
630.1	17914.78
630.294	18101.14
630.489	17972.12
630.683	17990.55
630.877	17642.4
631.071	17714.08
631.265	17867.67
631.459	17591.2
631.653	17453.98
631.848	17572.77
632.042	16993.19
632.236	17181.6
632.43	17019.81
632.624	16944.04
632.818	16997.29
633.012	16714.67
633.206	16767.91
633.4	16765.87
633.594	16554.93
633.788	16454.58
633.982	16432.05
634.176	16352.18
634.369	16280.5
634.563	16026.55
634.757	16057.27
634.951	15999.93
635.145	15928.25
635.339	15946.68
635.533	15741.88
635.726	15580.09
635.92	15582.14
636.114	15559.61
636.308	15578.04
636.501	15469.5
636.695	15518.65
636.889	15209.41
637.083	15115.2
637.276	15281.09
637.47	14953.41
637.664	15086.53
637.857	14980.04
638.051	15037.38
638.244	14805.96
638.438	14603.21
638.632	14644.17
638.825	14531.53
639.019	14382.03
639.212	14164.95
639.406	14463.95
639.599	14121.94
639.793	14001.11
639.986	13892.57
640.18	14103.51
640.373	13937.62
640.567	13689.82
640.76	13745.11
640.954	13515.74
641.147	13634.52
641.34	13722.59
641.534	13376.48
641.727	13386.72
641.92	13302.75
642.114	13468.64
642.307	13222.88
642.5	13286.37
642.694	13042.66
642.887	12891.11
643.08	13042.66
643.273	12970.98
643.467	12973.03
643.66	12471.28
643.853	12659.69
644.046	12526.57
644.239	12620.78
644.432	12579.82
644.626	12469.23
644.819	12403.69
645.012	12356.59
645.205	12364.78
645.398	12225.52
645.591	12231.66
645.784	12149.75
645.977	12010.48
646.17	11869.17
646.363	11731.96
646.556	11850.74
646.749	11709.43
646.942	11652.09
647.135	11629.56
647.328	11496.44
647.521	11492.35
647.714	11189.25
647.907	11510.78
648.099	11195.39
648.292	11348.99
648.485	11215.87
648.678	10943.49
648.871	11092.99
649.064	11111.43
649.256	11158.53
649.449	10765.32
649.642	10904.58
649.835	10925.06
650.027	10804.23
650.22	10877.96
650.413	10529.8
650.605	10662.92
650.798	10609.67
650.991	10423.31
651.183	10537.99
651.376	10390.54
651.568	10327.05
651.761	10304.53
651.954	10230.8
652.146	10200.08
652.339	10202.13
652.531	10013.71
652.724	10112.02
652.916	9759.77
653.109	9856.02
653.301	9733.14
653.494	9884.69
653.686	9712.66
653.879	9731.09
654.071	9767.96
654.263	9524.25
654.456	9565.21
654.648	9688.09
654.84	9604.12
655.033	9333.79
655.225	9294.88
655.417	9286.68
655.61	9301.02
655.802	9395.23
655.994	9186.33
656.186	9008.16
656.379	8969.25
656.571	9059.36
656.763	9028.64
656.955	8805.41
657.148	8836.13
657.34	8805.41
657.532	8623.14
657.724	8762.4
657.916	8805.41
658.108	8637.48
658.3	8807.46
658.492	8537.13
658.684	8412.2
658.876	8598.57
659.068	8340.52
659.26	8246.32
659.452	8404.01
659.644	8412.2
659.836	8344.62
660.028	8393.77
660.22	8088.62
660.412	8041.52
660.604	7941.17
660.796	8164.4
660.988	8088.62
661.18	8055.86
661.372	7932.98
661.563	8047.66
661.755	7820.34
661.947	7808.05
662.139	7574.58
662.331	7668.79
662.522	7613.49
662.714	7599.16
662.906	7545.91
663.097	7625.78
663.289	7468.09
663.481	7642.17
663.673	7474.23
663.864	7550.01
664.056	7410.75
664.247	7332.92
664.439	7218.24
664.631	7418.94
664.822	7220.28
665.014	7199.8
665.205	7013.44
665.397	7040.06
665.588	7009.34
665.78	6962.24
665.971	7130.17
666.163	7124.03
666.354	7021.63
666.546	6982.72
666.737	6870.08
666.929	6880.32
667.12	6892.61
667.311	6847.55
667.503	6546.5
667.694	6716.48
667.885	6564.93
668.077	6853.7
668.268	6599.75
668.459	6605.89
668.651	6483.02
668.842	6634.57
669.033	6413.38
669.224	6390.86
669.416	6419.53
669.607	6192.2
669.798	6390.86
669.989	6532.17
670.18	6351.95
670.371	6472.78
670.563	6083.66
670.754	6040.65
670.945	6067.28
671.136	6206.54
671.327	6071.37
671.518	5999.7
671.709	6147.15
671.9	6014.03
672.091	6134.86
672.282	5973.07
672.473	5772.37
672.664	5981.26
672.855	5790.8
673.046	5842
673.237	5899.34
673.428	5663.83
673.619	5901.39
673.809	5778.51
674	5864.53
674.191	5964.88
674.382	5702.74
674.573	5825.62
674.764	5624.92
674.954	5674.07
675.145	5749.84
675.336	5395.54
675.527	5545.05
675.717	5489.75
675.908	5334.11
676.099	5469.27
676.289	5567.57
676.48	5422.17
676.671	5340.25
676.861	5432.41
677.052	5344.35
677.243	5350.49
677.433	5301.34
677.624	5487.7
677.814	5225.56
678.005	5389.4
678.195	5289.05
678.386	5200.99
678.576	5248.09
678.767	5080.16
678.957	5133.4
679.148	5211.23
679.338	5114.97
679.529	5024.86
679.719	5043.29
679.909	5352.54
680.1	5024.86
680.29	5016.67
680.481	4916.32
680.671	4996.19
680.861	5051.49
681.052	5031.01
681.242	4971.61
681.432	4944.99
681.622	4840.54
681.813	4885.6
682.003	4920.42
682.193	4715.62
682.383	4828.26
682.573	4764.77
682.764	4805.73
682.954	4828.26
683.144	4758.63
683.334	4674.66
683.524	4652.13
683.714	4619.36
683.904	4750.43
684.094	4717.67
684.284	4652.13
684.474	4621.41
684.664	4633.7
684.854	4480.1
685.044	4660.32
685.234	4541.54
685.424	4557.93
685.614	4453.48
685.804	4541.54
685.994	4553.83
686.184	4457.57
686.374	4490.34
686.564	4502.63
686.753	4500.58
686.943	4283.5
687.133	4381.8
687.323	4318.31
687.513	4377.7
687.702	4224.11
687.892	4177
688.082	4189.29
688.272	4320.36
688.461	4283.5
688.651	4097.13
688.841	4117.61
689.03	4105.32
689.22	4041.84
689.41	4213.87
689.599	4064.36
689.789	4013.17
689.979	4029.55
690.168	4097.13
690.358	4023.41
690.547	3918.96
690.737	3986.54
690.926	3933.29
691.116	3892.34
691.305	3841.14
691.495	3841.14
691.684	3841.14
691.874	3843.18
692.063	3886.19
692.252	3880.05
692.442	3925.1
692.631	3720.31
692.82	3746.93
693.01	3759.22
693.199	3742.83
693.388	3671.15
693.578	3722.35
693.767	3681.39
693.956	3589.24
694.146	3505.27
694.335	3599.48
694.524	3425.4
694.713	3622
694.902	3560.56
695.092	3488.89
695.281	3374.2
695.47	3435.64
695.659	3411.06
695.848	3290.23
696.037	3474.55
696.226	3372.15
696.415	3425.4
696.604	3388.53
696.793	3382.39
696.982	3292.28
697.171	3351.67
697.36	3308.66
697.549	3431.54
697.738	3273.85
697.927	3374.2
698.116	3290.23
698.305	3325.05
698.494	3261.56
698.683	3230.84
698.872	3239.03
699.061	3163.26
699.25	3157.11
699.438	3204.22
699.627	3146.87
699.816	3138.68
700.005	3101.82
700.193	3089.53
700.382	3017.85
700.571	3157.11
700.76	3183.74
700.948	3046.52
701.137	3062.91
701.326	3155.07
701.514	2980.99
701.703	3120.25
701.892	2970.75
702.08	2976.89
702.269	3009.66
702.457	2907.26
702.646	2909.31
702.834	3067
703.023	2915.45
703.212	2921.6
703.4	2958.46
703.589	2870.4
703.777	2985.09
703.965	2860.16
704.154	2968.7
704.342	2798.72
704.531	2952.32
704.719	2835.58
704.907	2860.16
705.096	2882.69
705.284	2813.06
705.472	2813.06
705.661	2782.34
705.849	2917.5
706.037	2788.48
706.226	2882.69
706.414	2833.54
706.602	2757.76
706.79	2763.9
706.979	2630.79
707.167	2800.77
707.355	2694.27
707.543	2802.82
707.731	2684.03
707.919	2638.98
708.107	2761.86
708.296	2645.12
708.484	2718.85
708.672	2702.47
708.86	2679.94
709.048	2595.97
709.236	2567.3
709.424	2731.14
709.612	2604.16
709.8	2722.95
709.988	2688.13
710.176	2532.48
710.364	2745.47
710.551	2704.51
710.739	2720.9
710.927	2573.44
711.115	2692.23
711.303	2616.45
711.491	2661.51
711.679	2512
711.866	2499.72
712.054	2598.02
712.242	2458.76
712.43	2626.69
712.617	2450.57
712.805	2577.54
712.993	2491.52
713.181	2526.34
713.368	2526.34
713.556	2522.24
713.744	2544.77
713.931	2600.07
714.119	2481.28
714.306	2555.01
714.494	2434.18
714.682	2610.31
714.869	2325.64
715.057	2462.85
715.244	2405.51
715.432	2585.73
715.619	2491.52
715.807	2385.03
715.994	2382.98
716.182	2440.33
716.369	2475.14
716.556	2495.62
716.744	2368.65
716.931	2362.5
717.119	2376.84
717.306	2403.46
717.493	2356.36
717.681	2452.61
717.868	2370.69
718.055	2466.95
718.242	2337.93
718.43	2497.67
718.617	2335.88
718.804	2458.76
718.991	2378.89
719.179	2344.07
719.366	2364.55
719.553	2368.65
719.74	2454.66
719.927	2350.21
720.114	2342.02
720.301	2237.58
720.488	2270.34
720.676	2333.83
720.863	2382.98
721.05	2438.28
721.237	2286.73
721.424	2374.79
721.611	2391.17
721.798	2262.15
721.985	2284.68
722.172	2262.15
722.358	2260.1
722.545	2444.42
722.732	2233.48
722.919	2272.39
723.106	2337.93
723.293	2335.88
723.48	2323.59
723.667	2243.72
723.853	2223.24
724.04	2268.3
724.227	2385.03
724.414	2280.58
724.6	2227.34
724.787	2315.4
724.974	2278.54
725.161	2229.38
725.347	2352.26
725.534	2350.21
725.72	2241.67
725.907	2276.49
726.094	2364.55
726.28	2223.24
726.467	2284.68
726.653	2227.34
726.84	2329.74
727.027	2256.01
727.213	2268.3
727.4	2219.14
727.586	2237.58
727.773	2219.14
727.959	2198.67
728.145	2159.75
728.332	2159.75
728.518	2100.36
728.705	2276.49
728.891	2194.57
729.077	2301.06
729.264	2221.19
729.45	2342.02
729.636	2358.41
729.823	2247.82
730.009	2321.54
730.195	2382.98
730.382	2288.78
730.568	2276.49
730.754	2260.1
730.94	2305.16
731.126	2278.54
731.313	2307.21
731.499	2221.19
731.685	2157.71
731.871	2366.6
732.057	2219.14
732.243	2342.02
732.429	2280.58
732.615	2299.02
732.801	2280.58
732.987	2233.48
733.173	2182.28
733.359	2247.82
733.545	2235.53
733.731	2253.96
733.917	2296.97
734.103	2286.73
734.289	2237.58
734.475	2325.64
734.661	2301.06
734.847	2249.86
735.033	2251.91
735.219	2299.02
735.404	2307.21
735.59	2159.75
735.776	2303.11
735.962	2262.15
736.148	2389.13
736.333	2333.83
736.519	2307.21
736.705	2231.43
736.89	2339.97
737.076	2225.29
737.262	2301.06
737.447	2190.47
737.633	2258.06
737.819	2192.52
738.004	2282.63
738.19	2309.26
738.375	2253.96
738.561	2253.96
738.747	2235.53
738.932	2268.3
739.118	2264.2
739.303	2256.01
739.489	2350.21
739.674	2155.66
739.859	2292.87
740.045	2157.71
740.23	2249.86
740.416	2284.68
740.601	2194.57
740.786	2249.86
740.972	2188.43
741.157	2172.04
741.342	2256.01
741.528	2239.62
741.713	2296.97
741.898	2200.71
742.084	2155.66
742.269	2182.28
742.454	2225.29
742.639	2233.48
742.824	2213
743.01	2292.87
743.195	2219.14
743.38	2268.3
743.565	2004.11
743.75	2118.79
743.935	2010.25
744.12	2213
744.305	2139.27
744.49	2182.28
744.675	2145.42
744.86	2016.4
745.045	2098.31
745.23	2151.56
745.415	2092.17
745.6	2088.07
745.785	2049.16
745.97	2176.14
746.155	2047.12
746.34	2026.64
746.525	1991.82
746.71	2229.38
746.895	2047.12
747.079	1995.92
747.264	2040.97
747.449	2090.12
747.634	2137.23
747.819	2083.98
748.003	2075.79
748.188	2049.16
748.373	1946.76
748.557	1967.24
748.742	2028.68
748.927	2010.25
749.111	1909.9
749.296	1856.65
749.481	1946.76
749.665	2043.02
749.85	1930.38
750.034	2016.4
750.219	2012.3
750.404	1963.15
750.588	1959.05
750.773	1850.51
750.957	1924.24
751.141	1889.42
751.326	1893.52
751.51	1746.06
751.695	1821.84
751.879	1811.6
752.064	1889.42
752.248	1823.89
752.432	1793.17
752.617	1701.01
752.801	1778.83
752.985	1778.83
753.17	1807.5
753.354	1778.83
753.538	1815.69
753.722	1619.09
753.907	1760.4
754.091	1703.06
754.275	1688.72
754.459	1608.85
754.643	1496.21
754.828	1590.42
755.012	1617.04
755.196	1639.57
755.38	1598.61
755.564	1602.71
755.748	1565.84
755.932	1631.38
756.116	1535.12
756.3	1528.98
756.484	1578.13
756.668	1692.82
756.852	1557.65
757.036	1602.71
757.22	1574.03
757.404	1518.74
757.588	1457.3
757.772	1432.72
757.956	1574.03
758.14	1576.08
758.323	1473.68
758.507	1578.13
758.691	1332.37
758.875	1551.51
759.059	1516.69
759.242	1338.52
759.426	1342.61
759.61	1432.72
759.794	1422.48
759.977	1535.12
760.161	1393.81
760.345	1483.92
760.528	1438.87
760.712	1377.43
760.895	1354.9
761.079	1303.7
761.263	1285.27
761.446	1311.89
761.63	1338.52
761.813	1367.19
761.997	1318.04
762.18	1324.18
762.364	1377.43
762.547	1238.17
762.731	1189.02
762.914	1334.42
763.098	1246.36
763.281	1182.87
763.464	1309.85
763.648	1318.04
763.831	1266.84
764.015	1219.74
764.198	1262.74
764.381	1313.94
764.564	1154.2
764.748	1272.98
764.931	1291.41
765.114	1227.93
765.297	1264.79
765.481	1189.02
765.664	1301.65
765.847	1242.26
766.03	1264.79
766.213	1160.34
766.397	1154.2
766.58	1107.1
766.763	1158.3
766.946	1184.92
767.129	1225.88
767.312	1217.69
767.495	1141.91
767.678	1195.16
767.861	1199.26
768.044	1146.01
768.227	1207.45
768.41	1191.06
768.593	1096.86
768.776	1103
768.959	1055.9
769.142	1191.06
769.324	1103
769.507	1105.05
769.69	1041.56
769.873	1146.01
770.056	1088.67
770.239	1135.77
770.421	1189.02
770.604	1055.9
770.787	1096.86
770.97	1174.68
771.152	1045.66
771.335	1107.1
771.518	1080.47
771.7	1182.87
771.883	1076.38
772.066	1152.15
772.248	1045.66
772.431	986.27
772.613	1025.18
772.796	1025.18
772.978	1092.76
773.161	1039.51
773.343	1051.8
773.526	920.73
773.708	914.59
773.891	887.97
774.073	941.21
774.256	1119.39
774.438	959.64
774.621	910.49
774.803	971.93
774.985	912.54
775.168	976.03
775.35	883.87
775.532	896.16
775.715	879.77
775.897	1014.94
776.079	851.1
776.261	877.73
776.444	973.98
776.626	826.53
776.808	879.77
776.99	797.85
777.173	871.58
777.355	732.32
777.537	789.66
777.719	838.81
777.901	851.1
778.083	908.44
778.265	853.15
778.447	859.29
778.629	763.04
778.811	787.61
778.993	783.52
779.175	771.23
779.357	793.76
779.539	732.32
779.721	812.19
779.903	875.68
780.085	781.47
780.267	787.61
780.449	744.61
780.631	808.09
780.812	732.32
780.994	797.85
781.176	732.32
781.358	785.57
781.54	693.41
781.721	642.21
781.903	785.57
782.085	664.74
782.267	638.11
782.448	607.39
782.63	636.06
782.812	672.93
782.993	636.06
783.175	545.95
783.357	595.11
783.538	623.78
783.72	631.97
783.901	615.59
784.083	584.87
784.264	584.87
784.446	574.63
784.627	556.19
784.809	609.44
784.99	629.92
785.172	541.86
785.353	517.28
785.535	648.35
785.716	570.53
785.897	564.39
786.079	586.91
786.26	648.35
786.441	584.87
786.623	507.04
786.804	562.34
786.985	564.39
787.167	484.52
787.348	429.22
787.529	525.47
787.71	566.43
787.891	568.48
788.073	527.52
788.254	525.47
788.435	492.71
788.616	554.15
788.797	529.57
788.978	507.04
789.159	435.36
789.34	468.13
789.522	423.08
789.703	492.71
789.884	537.76
790.065	511.14
790.246	488.61
790.427	468.13
790.607	545.95
790.788	412.84
790.969	375.97
791.15	455.84
791.331	429.22
791.512	464.04
791.693	421.03
791.874	433.32
792.054	447.65
792.235	545.95
792.416	341.16
792.597	429.22
792.778	375.97
792.958	388.26
793.139	367.78
793.32	363.69
793.5	380.07
793.681	404.64
793.862	328.87
794.042	322.73
794.223	361.64
794.404	369.83
794.584	359.59
794.765	425.12
794.945	361.64
795.126	435.36
795.306	384.16
795.487	332.97
795.667	296.1
795.848	384.16
796.028	287.91
796.209	359.59
796.389	326.82
796.57	410.79
796.75	281.77
796.93	375.97
797.111	283.81
797.291	326.82
797.471	390.31
797.652	345.25
797.832	322.73
798.012	316.58
798.192	257.19
798.373	330.92
798.553	425.12
798.733	382.12
798.913	249
799.093	287.91
799.274	361.64
799.454	345.25
799.634	359.59
799.814	287.91
799.994	339.11
800.174	324.77
800.354	281.77
800.534	324.77
800.714	257.19
800.894	226.47
801.074	195.75
801.254	226.47
801.434	287.91
801.614	277.67
801.794	285.86
801.974	828.57
802.154	246.95
802.334	267.43
802.514	246.95
802.693	289.96
802.873	306.34
803.053	328.87
803.233	267.43
803.413	271.53
803.592	285.86
803.772	179.37
803.952	351.4
804.131	283.81
804.311	300.2
804.491	320.68
804.67	218.28
804.85	265.38
805.03	277.67
805.209	273.57
805.389	234.66
805.568	267.43
805.748	259.24
805.928	294.05
806.107	226.47
806.287	261.29
806.466	251.05
806.646	158.89
806.825	279.72
807.004	273.57
807.184	232.62
807.363	203.94
807.543	257.19
807.722	197.8
807.901	289.96
808.081	292.01
808.26	183.46
808.439	210.09
808.619	271.53
808.798	199.85
808.977	285.86
809.156	205.99
809.336	197.8
809.515	255.14
809.694	167.08
809.873	201.9
810.052	189.61
810.231	273.57
810.411	199.85
810.59	138.41
810.769	249
810.948	230.57
811.127	134.31
811.306	222.38
811.485	234.66
811.664	187.56
811.843	212.14
812.022	177.32
812.201	249
812.38	181.42
812.559	173.22
812.737	158.89
812.916	191.66
813.095	181.42
813.274	210.09
813.453	208.04
813.632	187.56
813.811	257.19
813.989	191.66
814.168	156.84
814.347	140.46
814.526	173.22
814.704	187.56
814.883	189.61
815.062	109.74
815.24	169.13
815.419	169.13
815.598	251.05
815.776	109.74
815.955	162.98
816.133	191.66
816.312	193.7
816.49	175.27
816.669	128.17
816.847	183.46
817.026	177.32
817.204	249
817.383	124.07
817.561	169.13
817.74	205.99
817.918	175.27
818.097	72.87
818.275	117.93
818.453	185.51
818.632	146.6
818.81	169.13
818.988	138.41
819.167	97.45
819.345	177.32
819.523	175.27
819.701	115.88
819.879	115.88
820.058	197.8
820.236	99.5
820.414	111.78
820.592	189.61
820.77	144.55
820.948	93.35
821.127	132.26
821.305	162.98
821.483	113.83
821.661	187.56
821.839	128.17
822.017	173.22
822.195	54.44
822.373	130.22
822.551	113.83
822.729	177.32
822.907	146.6
823.085	85.16
823.262	117.93
823.44	130.22
823.618	54.44
823.796	187.56
823.974	97.45
824.152	83.11
824.329	105.64
824.507	177.32
824.685	113.83
824.863	150.7
825.04	113.83
825.218	93.35
825.396	126.12
825.574	99.5
825.751	177.32
825.929	214.18
826.107	79.02
826.284	113.83
826.462	126.12
826.639	140.46
826.817	165.03
826.994	87.21
827.172	60.59
827.349	107.69
827.527	85.16
827.704	193.7
827.882	148.65
828.059	130.22
828.237	109.74
828.414	109.74
828.591	97.45
828.769	113.83
828.946	87.21
829.124	54.44
829.301	160.94
829.478	76.97
829.655	99.5
829.833	122.02
830.01	107.69
830.187	119.98
830.364	171.18
830.542	175.27
830.719	95.4
830.896	122.02
831.073	81.07
831.25	81.07
831.427	160.94
831.604	85.16
831.782	17.58
831.959	93.35
832.136	54.44
832.313	115.88
832.49	103.59
832.667	66.73
832.844	9.39
833.021	167.08
833.198	146.6
833.374	117.93
833.551	68.78
833.728	89.26
833.905	128.17
834.082	38.06
834.259	40.11
834.436	15.53
834.612	36.01
834.789	126.12
834.966	128.17
835.143	83.11
835.319	40.11
835.496	113.83
835.673	56.49
835.85	79.02
836.026	68.78
836.203	83.11
836.38	64.68
836.556	89.26
836.733	44.2
836.909	99.5
837.086	29.87
837.262	31.91
837.439	79.02
837.616	44.2
837.792	3.24
837.968	167.08
838.145	15.53
838.321	48.3
838.498	101.55
838.674	119.98
838.851	70.83
839.027	27.82
839.203	54.44
839.38	107.69
839.556	87.21
839.732	52.39
839.909	83.11
840.085	113.83
840.261	15.53
840.437	-23.38
840.614	58.54
840.79	60.59
840.966	99.5
841.142	46.25
841.318	103.59
841.494	29.87
841.671	60.59
841.847	21.67
842.023	52.39
842.199	23.72
842.375	83.11
842.551	42.15
842.727	3.24
842.903	152.74
843.079	-15.19
843.255	91.31
843.431	62.63
843.607	105.64
843.783	-33.62
843.959	48.3
844.134	64.68
844.31	33.96
844.486	25.77
844.662	25.77
844.838	25.77
845.013	171.18
845.189	105.64
845.365	9.39
845.541	83.11
845.716	40.11
845.892	70.83
846.068	-11.09
846.244	54.44
846.419	19.63
846.595	23.72
846.77	93.35
846.946	156.84
847.122	74.92
847.297	3.24
847.473	33.96
847.648	25.77
847.824	122.02
847.999	-11.09
848.175	107.69
848.35	7.34
848.526	76.97
848.701	17.58
848.876	-31.57
849.052	52.39
849.227	-29.52
849.403	56.49
849.578	19.63
849.753	9.39
849.929	7.34
850.104	33.96
850.279	-13.14
850.454	64.68
850.63	66.73
850.805	111.78
850.98	52.39
851.155	74.92
851.33	38.06
851.505	36.01
851.681	72.87
851.856	-50
852.031	70.83
852.206	27.82
852.381	-11.09
852.556	50.35
852.731	21.67
852.906	56.49
853.081	40.11
853.256	42.15
853.431	21.67
853.606	-2.9
853.781	-33.62
853.956	-17.24
854.131	52.39
854.305	25.77
854.48	-7
854.655	1.19
854.83	-15.19
855.005	31.91
855.18	95.4
855.354	40.11
855.529	66.73
855.704	15.53
855.879	23.72
856.053	21.67
856.228	38.06
856.403	13.48
856.577	5.29
856.752	29.87
856.926	-39.76
857.101	111.78
857.276	52.39
857.45	87.21
857.625	40.11
857.799	25.77
857.974	33.96
858.148	23.72
858.323	119.98
858.497	44.2
858.672	23.72
858.846	7.34
859.02	138.41
859.195	21.67
859.369	19.63
859.543	50.35
859.718	-35.67
859.892	54.44
860.066	72.87
860.241	-29.52
860.415	50.35
860.589	50.35
860.763	33.96
860.938	19.63
861.112	27.82
861.286	7.34
861.46	38.06
861.634	-72.53
861.808	79.02
861.982	15.53
862.157	33.96
862.331	-76.63
862.505	-33.62
862.679	21.67
862.853	-4.95
863.027	-0.85
863.201	148.65
863.375	25.77
863.549	15.53
863.722	3.24
863.896	42.15
864.07	-41.81
864.244	-11.09
864.418	-7
864.592	29.87
864.766	-19.29
864.939	40.11
865.113	13.48
865.287	31.91
865.461	-17.24
865.634	36.01
865.808	3.24
865.982	50.35
866.156	-9.05
866.329	38.06
866.503	72.87
866.676	95.4
866.85	-74.58
867.024	1.19
867.197	89.26
867.371	52.39
867.544	36.01
867.718	31.91
867.891	9.39
868.065	-68.44
868.238	85.16
868.412	85.16
868.585	56.49
868.759	40.11
868.932	25.77
869.105	-39.76
869.279	-0.85
869.452	-52.05
869.625	36.01
869.799	-7
869.972	38.06
870.145	3.24
870.319	33.96
870.492	42.15
870.665	50.35
870.838	40.11
871.011	-88.92
871.185	60.59
871.358	62.63
871.531	11.43
871.704	15.53
871.877	-56.15
872.05	-35.67
872.223	-25.43
872.396	48.3
872.569	46.25
872.742	-2.9
872.915	-0.85
873.088	-66.39
873.261	60.59
873.434	-47.96
873.607	1.19
873.78	38.06
873.953	27.82
874.126	-33.62
874.299	-29.52
874.471	9.39
874.644	-68.44
874.817	7.34
874.99	36.01
875.163	38.06
875.335	-45.91
875.508	-21.33
875.681	42.15
875.853	-35.67
876.026	-17.24
876.199	27.82
876.371	11.43
876.544	74.92
876.717	72.87
876.889	-23.38
877.062	15.53
877.234	-70.48
877.407	1.19
877.579	89.26
877.752	-15.19
877.924	21.67
878.097	44.2
878.269	52.39
878.442	3.24
878.614	3.24
878.786	5.29
878.959	-15.19
879.131	-66.39
879.303	-58.2
879.476	-17.24
879.648	27.82
879.82	21.67
879.993	-74.58
880.165	-64.34
880.337	70.83
880.509	-4.95
880.681	-7
880.854	76.97
881.026	52.39
881.198	1.19
881.37	23.72
881.542	-17.24
881.714	-15.19
881.886	29.87
882.058	-11.09
882.23	25.77
882.402	-80.72
882.574	-2.9
882.746	19.63
882.918	-37.72
883.09	-39.76
883.262	21.67
883.434	-7
883.606	-86.87
883.778	-7
883.95	72.87
884.122	5.29
884.293	52.39
884.465	60.59
884.637	46.25
884.809	87.21
884.98	-15.19
885.152	17.58
885.324	79.02
885.496	-25.43
885.667	15.53
885.839	-11.09
886.011	60.59
886.182	17.58
886.354	15.53
886.525	50.35
886.697	31.91
886.869	95.4
887.04	7.34
887.212	33.96
887.383	60.59
887.555	-13.14
887.726	-9.05
887.897	23.72
888.069	7.34
888.24	-11.09
888.412	38.06
888.583	33.96
888.754	25.77
888.926	-29.52
889.097	-45.91
889.268	-15.19
889.44	11.43
889.611	-62.29
889.782	25.77
889.953	-23.38
890.125	7.34
890.296	3.24
890.467	1.19
890.638	-11.09
890.809	9.39
890.98	-23.38
891.151	54.44
891.323	-15.19
891.494	21.67
891.665	-35.67
891.836	-21.33
892.007	-0.85
892.178	-2.9
892.349	-37.72
892.52	-52.05
892.691	-11.09
892.862	38.06
893.032	-43.86
893.203	-23.38
893.374	-21.33
893.545	5.29
893.716	-21.33
893.887	115.88
894.057	-37.72
894.228	101.55
894.399	-15.19
894.57	7.34
894.74	23.72
894.911	29.87
895.082	11.43
895.253	-29.52
895.423	13.48
895.594	-47.96
895.764	42.15
895.935	-27.48
896.106	-4.95
896.276	-23.38
896.447	3.24
896.617	-27.48
896.788	-47.96
896.958	31.91
897.129	-56.15
897.299	-17.24
897.47	-29.52
897.64	-45.91
897.81	9.39
897.981	15.53
898.151	42.15
898.322	-7
898.492	-9.05
898.662	-123.73
898.832	79.02
899.003	-35.67
899.173	-11.09
899.343	3.24
899.513	-25.43
