Data from USB4F104151__70__12-42-14-628.txt Node

Date: Fri Mar 14 12:42:14 EDT 2025
User: louis
Spectrometer: USB4F10415
Trigger mode: 4
Integration Time (sec): 3.000000E-2
Scans to average: 1
Electric dark correction enabled: true
Nonlinearity correction enabled: false
Boxcar width: 0
XAxis mode: Wavelengths
Number of Pixels in Spectrum: 3648
>>>>>Begin Spectral Data<<<<<
178.204	-115.03
178.424	-115.03
178.644	-115.03
178.864	-151.89
179.084	-166.23
179.304	59.05
179.524	-16.73
179.744	-24.92
179.964	97.96
180.184	-33.11
180.404	-33.11
180.624	3.75
180.844	5.8
181.064	34.47
181.283	-35.16
181.503	-102.74
181.723	44.71
181.943	-67.92
182.163	61.1
182.383	24.23
182.602	-45.4
182.822	89.77
183.042	24.23
183.262	3.75
183.482	-45.4
183.701	3.75
183.921	26.28
184.141	-69.97
184.361	71.34
184.58	-2.39
184.8	7.85
185.02	-2.39
185.239	85.67
185.459	52.91
185.679	59.05
185.898	38.57
186.118	81.58
186.338	-74.07
186.557	67.24
186.777	36.52
186.997	-4.44
187.216	-10.58
187.436	38.57
187.655	-45.4
187.875	59.05
188.095	-14.68
188.314	34.47
188.534	57
188.753	-2.39
188.973	-90.45
189.192	24.23
189.412	3.75
189.631	16.04
189.851	-8.53
190.07	54.95
190.29	-39.25
190.509	20.14
190.729	18.09
190.948	42.67
191.168	210.6
191.387	57
191.607	38.57
191.826	5.8
192.045	-55.64
192.265	50.86
192.484	42.67
192.704	40.62
192.923	-51.54
193.142	26.28
193.362	-2.39
193.581	65.19
193.8	40.62
194.02	63.15
194.239	73.39
194.458	81.58
194.678	-26.96
194.897	11.95
195.116	57
195.335	59.05
195.555	22.19
195.774	5.8
195.993	46.76
196.212	16.04
196.432	-39.25
196.651	52.91
196.87	50.86
197.089	38.57
197.308	20.14
197.528	26.28
197.747	24.23
197.966	24.23
198.185	5.8
198.404	-22.87
198.623	75.43
198.842	44.71
199.062	24.23
199.281	26.28
199.5	128.68
199.719	-20.82
199.938	18.09
200.157	40.62
200.376	38.57
200.595	-0.34
200.814	1.71
201.033	11.95
201.252	48.81
201.471	65.19
201.69	36.52
201.909	16.04
202.128	3.75
202.347	-8.53
202.566	-41.3
202.785	18.09
203.004	44.71
203.223	93.87
203.442	24.23
203.661	-18.77
203.879	46.76
204.098	-24.92
204.317	32.43
204.536	81.58
204.755	11.95
204.974	40.62
205.193	136.87
205.411	71.34
205.63	136.87
205.849	28.33
206.068	-61.78
206.287	20.14
206.505	57
206.724	16.04
206.943	11.95
207.162	46.76
207.381	-26.96
207.599	-0.34
207.818	-39.25
208.037	26.28
208.255	-59.73
208.474	9.9
208.693	24.23
208.911	30.38
209.13	-0.34
209.349	42.67
209.567	16.04
209.786	54.95
210.005	-2.39
210.223	-0.34
210.442	-39.25
210.661	79.53
210.879	108.2
211.098	85.67
211.316	71.34
211.535	-0.34
211.753	-51.54
211.972	22.19
212.191	-20.82
212.409	59.05
212.628	22.19
212.846	1.71
213.065	22.19
213.283	40.62
213.502	11.95
213.72	59.05
213.938	36.52
214.157	28.33
214.375	20.14
214.594	22.19
214.812	7.85
215.031	132.78
215.249	3.75
215.467	18.09
215.686	20.14
215.904	54.95
216.122	77.48
216.341	-22.87
216.559	59.05
216.778	57
216.996	73.39
217.214	48.81
217.432	-61.78
217.651	22.19
217.869	16.04
218.087	-8.53
218.306	13.99
218.524	52.91
218.742	-22.87
218.96	114.34
219.179	-57.68
219.397	-6.49
219.615	59.05
219.833	69.29
220.051	-4.44
220.27	46.76
220.488	63.15
220.706	44.71
220.924	-82.26
221.142	26.28
221.36	77.48
221.578	-22.87
221.796	18.09
222.015	61.1
222.233	85.67
222.451	63.15
222.669	5.8
222.887	-31.06
223.105	-31.06
223.323	38.57
223.541	5.8
223.759	-10.58
223.977	48.81
224.195	61.1
224.413	65.19
224.631	46.76
224.849	24.23
225.067	71.34
225.285	-4.44
225.503	-53.59
225.721	-22.87
225.939	16.04
226.157	50.86
226.375	143.02
226.592	54.95
226.81	59.05
227.028	63.15
227.246	36.52
227.464	-59.73
227.682	34.47
227.9	63.15
228.117	52.91
228.335	16.04
228.553	-31.06
228.771	44.71
228.989	61.1
229.206	34.47
229.424	-0.34
229.642	38.57
229.86	16.04
230.077	42.67
230.295	59.05
230.513	42.67
230.731	54.95
230.948	42.67
231.166	18.09
231.384	24.23
231.601	71.34
231.819	-16.73
232.037	-24.92
232.254	24.23
232.472	-35.16
232.689	22.19
232.907	13.99
233.125	3.75
233.342	-53.59
233.56	-18.77
233.777	77.48
233.995	36.52
234.213	46.76
234.43	93.87
234.648	-24.92
234.865	40.62
235.083	83.63
235.3	-12.63
235.518	18.09
235.735	-33.11
235.953	52.91
236.17	-53.59
236.388	-41.3
236.605	28.33
236.822	61.1
237.04	-16.73
237.257	-2.39
237.475	54.95
237.692	34.47
237.909	9.9
238.127	-0.34
238.344	67.24
238.562	104.11
238.779	7.85
238.996	32.43
239.214	-16.73
239.431	52.91
239.648	-8.53
239.865	67.24
240.083	40.62
240.3	28.33
240.517	42.67
240.735	48.81
240.952	71.34
241.169	34.47
241.386	-26.96
241.603	-22.87
241.821	5.8
242.038	-14.68
242.255	77.48
242.472	24.23
242.689	-8.53
242.907	46.76
243.124	54.95
243.341	-6.49
243.558	-16.73
243.775	-8.53
243.992	28.33
244.209	-33.11
244.426	122.54
244.643	104.11
244.86	-20.82
245.078	9.9
245.295	102.06
245.512	54.95
245.729	-12.63
245.946	24.23
246.163	63.15
246.38	-8.53
246.597	110.25
246.814	34.47
247.031	38.57
247.248	50.86
247.464	54.95
247.681	3.75
247.898	7.85
248.115	24.23
248.332	50.86
248.549	48.81
248.766	73.39
248.983	28.33
249.2	114.34
249.417	7.85
249.633	-59.73
249.85	-37.2
250.067	-33.11
250.284	40.62
250.501	-18.77
250.717	75.43
250.934	-0.34
251.151	85.67
251.368	16.04
251.585	13.99
251.801	-8.53
252.018	-65.88
252.235	-45.4
252.451	-43.35
252.668	-29.01
252.885	16.04
253.102	36.52
253.318	91.82
253.535	-12.63
253.752	28.33
253.968	54.95
254.185	-31.06
254.401	-6.49
254.618	16.04
254.835	-16.73
255.051	91.82
255.268	48.81
255.484	9.9
255.701	50.86
255.917	63.15
256.134	-20.82
256.351	5.8
256.567	-29.01
256.784	-12.63
257	28.33
257.217	16.04
257.433	42.67
257.65	81.58
257.866	128.68
258.082	69.29
258.299	-39.25
258.515	-16.73
258.732	26.28
258.948	22.19
259.165	18.09
259.381	-78.16
259.597	-57.68
259.814	5.8
260.03	5.8
260.246	52.91
260.463	-31.06
260.679	46.76
260.895	-24.92
261.112	65.19
261.328	36.52
261.544	30.38
261.761	100.01
261.977	1.71
262.193	-29.01
262.409	89.77
262.626	-22.87
262.842	5.8
263.058	5.8
263.274	42.67
263.49	91.82
263.707	38.57
263.923	26.28
264.139	-57.68
264.355	87.72
264.571	46.76
264.787	-35.16
265.004	46.76
265.22	24.23
265.436	100.01
265.652	5.8
265.868	120.49
266.084	24.23
266.3	9.9
266.516	-12.63
266.732	85.67
266.948	11.95
267.164	-10.58
267.38	32.43
267.596	59.05
267.812	61.1
268.028	-39.25
268.244	30.38
268.46	71.34
268.676	40.62
268.892	18.09
269.108	38.57
269.324	22.19
269.54	-26.96
269.756	5.8
269.972	-6.49
270.188	-33.11
270.403	54.95
270.619	36.52
270.835	26.28
271.051	50.86
271.267	1.71
271.483	-16.73
271.698	-43.35
271.914	16.04
272.13	3.75
272.346	16.04
272.562	75.43
272.777	79.53
272.993	7.85
273.209	-0.34
273.425	91.82
273.64	44.71
273.856	36.52
274.072	93.87
274.287	13.99
274.503	5.8
274.719	71.34
274.934	50.86
275.15	-0.34
275.366	-53.59
275.581	-2.39
275.797	-4.44
276.012	-33.11
276.228	59.05
276.444	13.99
276.659	50.86
276.875	18.09
277.09	5.8
277.306	22.19
277.521	63.15
277.737	30.38
277.952	50.86
278.168	32.43
278.383	38.57
278.599	75.43
278.814	40.62
279.03	18.09
279.245	48.81
279.461	-6.49
279.676	79.53
279.892	44.71
280.107	52.91
280.322	28.33
280.538	44.71
280.753	-37.2
280.969	61.1
281.184	32.43
281.399	57
281.615	11.95
281.83	93.87
282.045	3.75
282.26	26.28
282.476	-26.96
282.691	95.91
282.906	11.95
283.122	79.53
283.337	-26.96
283.552	26.28
283.767	-57.68
283.983	38.57
284.198	-2.39
284.413	61.1
284.628	-53.59
284.843	-14.68
285.058	44.71
285.274	112.3
285.489	50.86
285.704	65.19
285.919	9.9
286.134	26.28
286.349	-14.68
286.564	-18.77
286.779	18.09
286.995	3.75
287.21	-29.01
287.425	-2.39
287.64	87.72
287.855	34.47
288.07	-61.78
288.285	97.96
288.5	54.95
288.715	3.75
288.93	9.9
289.145	30.38
289.36	63.15
289.575	65.19
289.79	91.82
290.004	3.75
290.219	32.43
290.434	13.99
290.649	65.19
290.864	-0.34
291.079	-26.96
291.294	30.38
291.509	67.24
291.724	13.99
291.938	50.86
292.153	59.05
292.368	26.28
292.583	9.9
292.798	71.34
293.012	-49.49
293.227	75.43
293.442	11.95
293.657	50.86
293.871	48.81
294.086	26.28
294.301	83.63
294.516	83.63
294.73	48.81
294.945	-22.87
295.16	38.57
295.374	34.47
295.589	28.33
295.804	16.04
296.018	69.29
296.233	5.8
296.447	77.48
296.662	32.43
296.877	-16.73
297.091	140.97
297.306	-0.34
297.52	57
297.735	9.9
297.949	38.57
298.164	11.95
298.378	16.04
298.593	79.53
298.807	-35.16
299.022	-14.68
299.236	54.95
299.451	34.47
299.665	-8.53
299.88	52.91
300.094	-69.97
300.309	38.57
300.523	-29.01
300.737	46.76
300.952	79.53
301.166	42.67
301.381	-22.87
301.595	3.75
301.809	44.71
302.024	-24.92
302.238	16.04
302.452	46.76
302.667	-55.64
302.881	36.52
303.095	1.71
303.309	11.95
303.524	-24.92
303.738	48.81
303.952	-43.35
304.166	22.19
304.381	-0.34
304.595	81.58
304.809	22.19
305.023	22.19
305.237	26.28
305.452	24.23
305.666	93.87
305.88	-16.73
306.094	100.01
306.308	112.3
306.522	-16.73
306.736	67.24
306.95	85.67
307.164	-14.68
307.379	20.14
307.593	46.76
307.807	75.43
308.021	7.85
308.235	83.63
308.449	-51.54
308.663	42.67
308.877	112.3
309.091	24.23
309.305	42.67
309.519	13.99
309.733	30.38
309.947	-6.49
310.161	57
310.374	91.82
310.588	44.71
310.802	48.81
311.016	-47.44
311.23	11.95
311.444	24.23
311.658	-10.58
311.872	69.29
312.085	102.06
312.299	-10.58
312.513	30.38
312.727	34.47
312.941	54.95
313.154	13.99
313.368	16.04
313.582	16.04
313.796	16.04
314.009	-22.87
314.223	32.43
314.437	13.99
314.651	24.23
314.864	-31.06
315.078	44.71
315.292	20.14
315.505	73.39
315.719	69.29
315.933	48.81
316.146	30.38
316.36	52.91
316.573	104.11
316.787	30.38
317.001	13.99
317.214	63.15
317.428	22.19
317.641	-26.96
317.855	81.58
318.068	83.63
318.282	7.85
318.495	63.15
318.709	-14.68
318.922	-22.87
319.136	61.1
319.349	57
319.563	-26.96
319.776	85.67
319.99	40.62
320.203	20.14
320.417	46.76
320.63	42.67
320.843	93.87
321.057	114.34
321.27	77.48
321.483	-55.64
321.697	30.38
321.91	5.8
322.124	116.39
322.337	-29.01
322.55	-63.83
322.763	36.52
322.977	16.04
323.19	-10.58
323.403	28.33
323.617	20.14
323.83	65.19
324.043	48.81
324.256	40.62
324.469	-67.92
324.683	83.63
324.896	38.57
325.109	30.38
325.322	-18.77
325.535	9.9
325.748	-24.92
325.962	22.19
326.175	36.52
326.388	79.53
326.601	3.75
326.814	34.47
327.027	89.77
327.24	89.77
327.453	5.8
327.666	38.57
327.879	50.86
328.092	122.54
328.305	54.95
328.518	42.67
328.731	11.95
328.944	38.57
329.157	44.71
329.37	30.38
329.583	91.82
329.796	54.95
330.009	11.95
330.222	54.95
330.435	73.39
330.648	77.48
330.861	54.95
331.073	75.43
331.286	13.99
331.499	54.95
331.712	16.04
331.925	11.95
332.138	69.29
332.35	32.43
332.563	-0.34
332.776	118.44
332.989	-43.35
333.202	-0.34
333.414	65.19
333.627	61.1
333.84	-4.44
334.053	11.95
334.265	20.14
334.478	18.09
334.691	81.58
334.903	48.81
335.116	63.15
335.329	-6.49
335.541	59.05
335.754	54.95
335.966	-74.07
336.179	18.09
336.392	28.33
336.604	16.04
336.817	73.39
337.029	104.11
337.242	9.9
337.454	65.19
337.667	16.04
337.88	54.95
338.092	16.04
338.305	16.04
338.517	26.28
338.729	36.52
338.942	108.2
339.154	57
339.367	9.9
339.579	48.81
339.792	-14.68
340.004	-4.44
340.217	13.99
340.429	-4.44
340.641	28.33
340.854	-57.68
341.066	16.04
341.278	57
341.491	-4.44
341.703	44.71
341.915	48.81
342.128	22.19
342.34	44.71
342.552	13.99
342.764	59.05
342.977	67.24
343.189	36.52
343.401	13.99
343.613	67.24
343.826	13.99
344.038	-2.39
344.25	7.85
344.462	-31.06
344.674	57
344.886	26.28
345.099	79.53
345.311	73.39
345.523	28.33
345.735	-24.92
345.947	124.58
346.159	65.19
346.371	-43.35
346.583	20.14
346.795	140.97
347.007	110.25
347.219	-22.87
347.431	13.99
347.643	102.06
347.855	-10.58
348.067	112.3
348.279	54.95
348.491	30.38
348.703	48.81
348.915	40.62
349.127	20.14
349.339	71.34
349.551	-0.34
349.763	69.29
349.975	61.1
350.187	73.39
350.399	59.05
350.61	24.23
350.822	54.95
351.034	50.86
351.246	67.24
351.458	-10.58
351.669	69.29
351.881	40.62
352.093	59.05
352.305	67.24
352.517	36.52
352.728	65.19
352.94	85.67
353.152	63.15
353.363	32.43
353.575	108.2
353.787	75.43
353.999	65.19
354.21	165.54
354.422	-33.11
354.633	-14.68
354.845	65.19
355.057	28.33
355.268	24.23
355.48	104.11
355.692	-4.44
355.903	30.38
356.115	5.8
356.326	-65.88
356.538	104.11
356.749	69.29
356.961	104.11
357.172	36.52
357.384	5.8
357.595	122.54
357.807	85.67
358.018	-45.4
358.23	44.71
358.441	63.15
358.653	73.39
358.864	16.04
359.075	-53.59
359.287	-0.34
359.498	77.48
359.709	61.1
359.921	69.29
360.132	42.67
360.344	46.76
360.555	108.2
360.766	67.24
360.977	-41.3
361.189	-4.44
361.4	13.99
361.611	20.14
361.823	46.76
362.034	5.8
362.245	13.99
362.456	54.95
362.667	89.77
362.879	54.95
363.09	9.9
363.301	83.63
363.512	67.24
363.723	110.25
363.935	13.99
364.146	112.3
364.357	36.52
364.568	-65.88
364.779	-45.4
364.99	106.15
365.201	1.71
365.412	48.81
365.623	18.09
365.834	75.43
366.045	9.9
366.256	42.67
366.467	57
366.678	50.86
366.889	57
367.1	32.43
367.311	120.49
367.522	97.96
367.733	52.91
367.944	147.11
368.155	-0.34
368.366	48.81
368.577	50.86
368.788	50.86
368.999	48.81
369.209	69.29
369.42	81.58
369.631	130.73
369.842	5.8
370.053	54.95
370.264	61.1
370.474	-35.16
370.685	32.43
370.896	104.11
371.107	71.34
371.317	87.72
371.528	95.91
371.739	-2.39
371.95	71.34
372.16	22.19
372.371	-51.54
372.582	34.47
372.792	77.48
373.003	77.48
373.214	22.19
373.424	5.8
373.635	67.24
373.846	106.15
374.056	-16.73
374.267	73.39
374.477	61.1
374.688	28.33
374.898	-6.49
375.109	122.54
375.319	-8.53
375.53	46.76
375.74	57
375.951	-4.44
376.161	36.52
376.372	124.58
376.582	42.67
376.793	59.05
377.003	48.81
377.214	40.62
377.424	91.82
377.635	18.09
377.845	-8.53
378.055	169.64
378.266	32.43
378.476	13.99
378.686	83.63
378.897	9.9
379.107	61.1
379.317	30.38
379.528	128.68
379.738	24.23
379.948	32.43
380.158	93.87
380.369	57
380.579	118.44
380.789	77.48
380.999	104.11
381.21	69.29
381.42	85.67
381.63	149.16
381.84	40.62
382.05	95.91
382.261	32.43
382.471	102.06
382.681	118.44
382.891	18.09
383.101	63.15
383.311	-33.11
383.521	30.38
383.731	48.81
383.941	34.47
384.151	28.33
384.361	118.44
384.571	44.71
384.781	65.19
384.991	108.2
385.201	69.29
385.411	138.92
385.621	40.62
385.831	42.67
386.041	54.95
386.251	57
386.461	104.11
386.671	79.53
386.881	138.92
387.091	59.05
387.301	130.73
387.511	108.2
387.72	108.2
387.93	110.25
388.14	-8.53
388.35	54.95
388.56	81.58
388.769	87.72
388.979	73.39
389.189	9.9
389.399	40.62
389.609	36.52
389.818	75.43
390.028	3.75
390.238	151.21
390.447	3.75
390.657	59.05
390.867	40.62
391.076	-14.68
391.286	54.95
391.496	26.28
391.705	24.23
391.915	89.77
392.125	73.39
392.334	44.71
392.544	71.34
392.753	114.34
392.963	48.81
393.172	59.05
393.382	13.99
393.591	91.82
393.801	3.75
394.01	50.86
394.22	61.1
394.429	5.8
394.639	18.09
394.848	106.15
395.058	46.76
395.267	120.49
395.477	106.15
395.686	163.5
395.895	79.53
396.105	134.82
396.314	69.29
396.524	73.39
396.733	63.15
396.942	59.05
397.152	95.91
397.361	95.91
397.57	120.49
397.78	59.05
397.989	95.91
398.198	122.54
398.407	30.38
398.617	136.87
398.826	91.82
399.035	73.39
399.244	147.11
399.453	46.76
399.663	93.87
399.872	93.87
400.081	61.1
400.29	71.34
400.499	112.3
400.708	93.87
400.917	126.63
401.127	104.11
401.336	65.19
401.545	165.54
401.754	108.2
401.963	87.72
402.172	161.45
402.381	118.44
402.59	102.06
402.799	161.45
403.008	120.49
403.217	75.43
403.426	134.82
403.635	75.43
403.844	161.45
404.053	171.69
404.262	120.49
404.471	204.46
404.68	73.39
404.888	130.73
405.097	48.81
405.306	118.44
405.515	134.82
405.724	124.58
405.933	85.67
406.142	163.5
406.35	134.82
406.559	171.69
406.768	202.41
406.977	153.26
407.185	272.04
407.394	149.16
407.603	104.11
407.812	237.22
408.02	267.94
408.229	220.84
408.438	214.7
408.646	126.63
408.855	249.51
409.064	243.37
409.272	200.36
409.481	286.37
409.69	347.81
409.898	282.28
410.107	351.91
410.315	356.01
410.524	290.47
410.733	353.96
410.941	353.96
411.15	321.19
411.358	335.53
411.567	411.3
411.775	409.25
411.984	390.82
412.192	384.68
412.401	364.2
412.609	409.25
412.818	550.56
413.026	456.36
413.234	497.32
413.443	435.88
413.651	513.7
413.86	521.89
414.068	550.56
414.276	542.37
414.485	612
414.693	665.25
414.901	689.82
415.11	642.72
415.318	730.78
415.526	722.59
415.734	734.88
415.943	761.5
416.151	767.65
416.359	706.21
416.567	853.66
416.776	857.76
416.984	892.57
417.192	958.11
417.4	974.49
417.608	880.29
417.817	968.35
418.025	1029.79
418.233	1171.1
418.441	1093.27
418.649	1154.71
418.857	1142.43
419.065	1248.92
419.273	1173.14
419.481	1326.74
419.689	1339.03
419.897	1332.89
420.105	1367.7
420.313	1480.34
420.521	1377.94
420.729	1584.79
420.937	1609.36
421.145	1621.65
421.353	1742.48
421.561	1812.11
421.769	1867.41
421.977	1855.12
422.185	1961.61
422.393	1986.19
422.601	2205.32
422.809	2176.65
423.017	2188.94
423.224	2256.52
423.432	2309.77
423.64	2354.82
423.848	2530.95
424.056	2516.61
424.263	2709.12
424.471	2702.98
424.679	2619.01
424.887	2791.04
425.094	3018.36
425.302	3057.28
425.51	3069.56
425.718	3110.52
425.925	3217.02
426.133	3266.17
426.341	3554.93
426.548	3559.03
426.756	3645.04
426.964	3763.83
427.171	3855.98
427.379	4232.81
427.586	3989.1
427.794	4234.86
428.001	4390.5
428.209	4679.27
428.417	4458.09
428.624	4920.93
428.832	4986.46
429.039	4746.85
429.247	4937.31
429.454	5369.43
429.662	5736.02
429.869	5447.26
430.076	5725.78
430.284	5611.09
430.491	5736.02
430.699	6108.75
430.906	6184.52
431.114	6049.36
431.321	6526.54
431.528	6458.95
431.736	6833.73
431.943	7220.8
432.15	7122.49
432.358	7206.46
432.565	7595.57
432.772	7573.05
432.979	7956.02
433.187	8175.15
433.394	7800.37
433.601	8703.53
433.808	8820.26
434.016	8461.87
434.223	8984.1
434.43	9545.24
434.637	9496.09
434.844	9717.27
435.052	10182.16
435.259	9948.69
435.466	10020.37
435.673	9983.51
435.88	10839.56
436.087	11197.95
436.294	11271.68
436.501	11093.51
436.708	11447.8
436.915	11644.41
437.122	12252.66
437.329	12142.07
437.537	12393.97
437.743	12602.86
437.95	12385.77
438.157	13170.15
438.364	13446.62
438.571	13657.56
438.778	13825.5
438.985	15052.23
439.192	14323.15
439.399	15099.33
439.606	14609.87
439.813	15482.3
440.02	16188.85
440.227	16242.1
440.433	15807.93
440.64	16227.76
440.847	16387.5
441.054	16713.13
441.261	17665.44
441.467	17663.39
441.674	18089.37
441.881	18664.85
442.088	18449.81
442.294	18255.25
442.501	18853.26
442.708	19320.2
442.914	20266.36
443.121	20741.49
443.328	20182.39
443.534	21642.59
443.741	21218.66
443.948	20997.48
444.154	22662.48
444.361	22236.5
444.568	22324.57
444.774	22414.68
444.981	22857.04
445.187	23090.51
445.394	24182.07
445.6	23803.2
445.807	26328.34
446.013	25429.29
446.22	25658.66
446.426	26699.03
446.633	26914.06
446.839	28132.61
447.046	26438.94
447.252	28089.6
447.459	27915.52
447.665	28292.35
447.871	29414.63
448.078	30665.94
448.284	29099.25
448.491	29961.44
448.697	31397.07
448.903	31638.73
449.11	31968.45
449.316	31081.68
449.522	31970.5
449.728	32707.77
449.935	32994.48
450.141	32851.13
450.347	33797.29
450.553	32812.21
450.76	32871.61
450.966	34360.48
451.172	33983.65
451.378	34430.11
451.584	34190.5
451.791	34589.85
451.997	34768.02
452.203	35542.16
452.409	35427.47
452.615	35075.22
452.821	33909.93
453.027	33768.62
453.233	35433.61
453.44	34329.76
453.646	34223.26
453.852	34624.67
454.058	35062.93
454.264	34231.46
454.47	34632.86
454.676	33811.62
454.882	34964.63
455.088	31919.3
455.294	32521.4
455.5	32732.34
455.705	33184.94
455.911	32216.26
456.117	31397.07
456.323	30870.74
456.529	29406.44
456.735	30627.03
456.941	29936.87
457.147	29373.67
457.352	28912.88
457.558	28327.16
457.764	28304.63
457.97	27675.91
458.176	27155.72
458.381	27094.29
458.587	25855.26
458.793	25593.12
458.999	24436.02
459.204	26041.63
459.41	25423.14
459.616	23921.98
459.821	24212.79
460.027	23672.13
460.233	23336.26
460.438	21884.25
460.644	22476.12
460.85	21386.6
461.055	21001.58
461.261	20960.62
461.466	19457.41
461.672	18537.87
461.878	20209.01
462.083	18900.36
462.289	18630.03
462.494	18234.77
462.7	17477.02
462.905	17116.58
463.111	17714.59
463.316	17841.56
463.522	17208.74
463.727	17540.51
463.932	17139.11
464.138	17204.64
464.343	17241.51
464.549	16518.57
464.754	17272.23
464.959	17001.9
465.165	17251.75
465.37	16405.94
465.575	15857.08
465.781	16559.53
465.986	16532.91
466.191	16027.06
466.397	15574.46
466.602	14925.25
466.807	15437.25
467.012	15502.78
467.218	15408.58
467.423	15144.39
467.628	15168.96
467.833	15930.81
468.038	15197.63
468.244	15148.48
468.449	15386.05
468.654	14978.5
468.859	14953.93
469.064	14902.73
469.269	14431.69
469.474	14216.66
469.679	14798.28
469.885	14267.86
470.09	14388.69
470.295	14241.23
470.5	13923.8
470.705	13917.65
470.91	13700.57
471.115	13483.48
471.32	13784.54
471.525	13745.62
471.73	13438.43
471.935	13368.8
472.139	13004.26
472.344	13207.01
472.549	12910.05
472.754	12699.11
472.959	12684.78
473.164	12262.9
473.369	12094.96
473.574	12680.68
473.778	12475.88
473.983	12129.78
474.188	12381.68
474.393	11855.35
474.598	11849.21
474.802	11689.46
475.007	11593.21
475.212	11535.87
475.417	11101.7
475.621	11169.28
475.826	11298.3
476.031	10868.23
476.235	10728.97
476.44	11165.18
476.645	10829.32
476.849	10927.62
477.054	10550.79
477.259	10524.17
477.463	10618.38
477.668	10282.51
477.872	10499.59
478.077	10188.3
478.282	9778.71
478.486	9831.96
478.691	9651.74
478.895	9711.13
479.1	9729.56
479.304	9590.3
479.509	9311.77
479.713	9729.56
479.918	9262.62
480.122	9307.68
480.326	9317.92
480.531	9438.75
480.735	9098.78
480.94	9252.38
481.144	9543.19
481.348	9010.72
481.553	9109.02
481.757	8877.6
481.961	9164.32
482.166	9152.03
482.37	9000.48
482.574	8943.14
482.778	8992.29
482.983	8924.71
483.187	8980
483.391	9072.16
483.595	8635.94
483.8	9029.15
484.004	8793.64
484.208	8932.9
484.412	8975.91
484.616	8875.56
484.821	8918.56
485.025	8738.34
485.229	9051.68
485.433	9002.53
485.637	8889.89
485.841	8893.99
486.045	8781.35
486.249	8881.7
486.453	8830.5
486.657	8965.67
486.861	8889.89
487.065	8719.91
487.269	8920.61
487.473	8805.92
487.677	9088.54
487.881	9289.24
488.085	8607.27
488.289	9039.39
488.493	9135.65
488.697	9221.66
488.901	9082.4
489.105	9045.54
489.309	8939.04
489.512	9109.02
489.716	9043.49
489.92	9098.78
490.124	8943.14
490.328	8992.29
490.531	9008.67
490.735	9133.6
490.939	9053.73
491.143	9174.56
491.346	9229.85
491.55	9213.47
491.754	9285.15
491.958	9213.47
492.161	9295.39
492.365	9489.95
492.569	9418.27
492.772	9319.96
492.976	9592.34
493.18	9485.85
493.383	9594.39
493.587	9795.09
493.79	9799.19
493.994	9682.45
494.197	9768.47
494.401	9825.81
494.605	9735.7
494.808	9920.02
495.012	9885.2
495.215	10065.43
495.419	10270.22
495.622	10237.45
495.825	10112.53
496.029	10157.58
496.232	10536.46
496.436	10333.71
496.639	11070.98
496.843	10798.6
497.046	10966.53
497.249	11122.18
497.453	11013.63
497.656	11245.06
497.859	11019.78
498.063	11204.1
498.266	11628.03
498.469	11501.05
498.673	11472.38
498.876	11679.22
499.079	12105.2
499.282	12090.87
499.485	12275.18
499.689	12082.67
499.892	12322.29
500.095	12586.47
500.298	12744.17
500.501	12490.22
500.705	12854.76
500.908	13155.81
501.111	13077.99
501.314	13301.22
501.517	13245.92
501.72	13508.06
501.923	13465.05
502.126	13757.91
502.329	13880.79
502.532	14171.6
502.735	14331.34
502.938	14466.51
503.141	14587.34
503.344	14898.63
503.547	14718.41
503.75	14988.74
503.953	15205.83
504.156	15533.5
504.359	15453.63
504.562	15570.37
504.765	15893.94
504.968	16119.22
505.17	16278.96
505.373	16334.26
505.576	16606.64
505.779	16608.69
505.982	16852.39
506.185	17016.23
506.387	17157.54
506.59	17331.62
506.793	17675.68
506.996	17659.29
507.198	17931.67
507.401	18191.77
507.604	17962.39
507.807	18683.28
508.009	18492.82
508.212	18714
508.415	18797.96
508.617	19182.98
508.82	19285.38
509.022	19217.8
509.225	19664.25
509.428	19803.52
509.63	20147.58
509.833	20016.51
510.035	20422
510.238	20340.08
510.44	20647.28
510.643	21224.81
510.845	21206.38
511.048	21271.91
511.25	21495.14
511.453	21511.52
511.655	22283.61
511.858	22017.37
512.06	22041.95
512.262	22496.6
512.465	22330.71
512.667	22601.04
512.87	22828.37
513.072	23127.37
513.274	23119.18
513.477	23553.35
513.679	24065.34
513.881	23876.93
514.084	24094.01
514.286	24153.4
514.488	24753.46
514.69	24900.91
514.893	24892.72
515.095	25412.9
515.297	25662.76
515.499	25552.16
515.701	25785.63
515.904	26078.49
516.106	26387.74
516.308	26451.22
516.51	26453.27
516.712	26758.42
516.914	26936.59
517.116	27577.61
517.318	27639.04
517.52	27462.92
517.722	28005.63
517.925	28388.6
518.127	28519.67
518.329	28685.56
518.531	28488.95
518.733	28972.27
518.935	29207.79
519.136	29381.87
519.338	29557.99
519.54	29646.05
519.742	30211.29
519.944	30086.37
520.146	30366.94
520.348	30870.74
520.55	30889.17
520.752	30983.38
520.954	31372.49
521.155	31022.29
521.357	31628.49
521.559	31780.04
521.761	32496.83
521.963	31835.33
522.164	32476.35
522.366	32730.3
522.568	32771.25
522.77	33275.05
522.971	33440.94
523.173	32814.26
523.375	33316.01
523.576	33369.26
523.778	33793.19
523.98	33959.08
524.181	33879.21
524.383	34231.46
524.584	34530.46
524.786	34571.42
524.988	34720.92
525.189	34602.14
525.391	34999.44
525.592	35394.7
525.794	35310.74
525.995	35374.22
526.197	35548.3
526.398	35345.55
526.6	35853.45
526.801	35630.22
527.003	35953.8
527.204	35957.89
527.406	36746.36
527.607	36246.66
527.808	36549.76
528.01	36142.21
528.211	36193.41
528.412	37104.76
528.614	36848.76
528.815	37094.52
529.016	37092.47
529.218	36963.45
529.419	37315.7
529.62	37217.39
529.822	36992.12
530.023	37024.89
530.224	37262.45
530.425	37559.41
530.626	37233.78
530.828	36977.78
531.029	37796.97
531.23	37600.36
531.431	37268.59
531.632	37594.22
531.833	37641.32
532.035	37594.22
532.236	37624.94
532.437	38040.68
532.638	37311.6
532.839	38032.49
533.04	37889.13
533.241	37649.52
533.442	38069.35
533.643	37772.39
533.844	37602.41
534.045	37858.41
534.246	37579.89
534.447	37954.66
534.648	37688.43
534.849	38026.34
535.05	37489.77
535.251	38349.92
535.451	37905.51
535.652	38132.84
535.853	38075.49
536.054	37882.98
536.255	37835.88
536.456	37598.32
536.657	38229.09
536.857	37557.36
537.058	37633.13
537.259	38073.45
537.46	38040.68
537.66	37880.94
537.861	38354.02
538.062	37653.61
538.263	38362.21
538.463	37842.03
538.664	37680.24
538.865	37753.96
539.065	38354.02
539.266	37729.39
539.466	38159.46
539.667	37479.53
539.868	38306.91
540.068	37801.07
540.269	37422.19
540.469	38024.29
540.67	37842.03
540.87	37909.61
541.071	37696.62
541.271	37997.67
541.472	37543.02
541.672	37725.29
541.873	37575.79
542.073	37526.64
542.274	38095.97
542.474	37586.03
542.675	37244.02
542.875	38351.97
543.075	37727.34
543.276	36932.73
543.476	37958.76
543.676	37512.3
543.877	37823.59
544.077	37796.97
544.277	37573.74
544.478	37516.4
544.678	37821.55
544.878	37508.21
545.078	37848.17
545.279	37110.9
545.479	37241.97
545.679	37577.84
545.879	37401.71
546.079	37434.48
546.28	37356.66
546.48	37311.6
546.68	37360.75
546.88	37680.24
547.08	37268.59
547.28	37026.93
547.48	37008.5
547.68	37121.14
547.88	37166.2
548.081	37551.21
548.281	37409.9
548.481	37250.16
548.681	37831.79
548.881	37065.85
549.081	37149.81
549.28	36936.82
549.48	37651.56
549.68	37028.98
549.88	37723.24
550.08	37303.41
550.28	37319.79
550.48	37002.36
550.68	37469.29
550.88	37209.2
551.08	37407.86
551.279	37201.01
551.479	37125.24
551.679	37219.44
551.879	36949.11
552.079	37342.32
552.278	37067.89
552.478	36996.21
552.678	37145.72
552.878	37248.11
553.077	37031.03
553.277	36494.46
553.477	37452.91
553.676	36801.66
553.876	37198.96
554.076	37045.37
554.275	36578.43
554.475	36293.76
554.674	37037.17
554.874	36934.78
555.074	36897.91
555.273	37082.23
555.473	36590.72
555.672	36347.01
555.872	36672.64
556.071	36875.38
556.271	36856.95
556.47	36406.4
556.67	36680.83
556.869	36428.93
557.068	36715.64
557.268	36207.75
557.467	36238.47
557.667	36074.63
557.866	36232.32
558.065	36385.92
558.265	36287.62
558.464	35896.45
558.663	36572.28
558.863	36215.94
559.062	36394.11
559.261	36015.24
559.461	36347.01
559.66	35853.45
559.859	36177.03
560.058	35849.35
560.258	36072.58
560.457	35660.94
560.656	35724.43
560.855	35832.97
561.054	36035.72
561.253	35880.07
561.453	35755.15
561.652	35806.34
561.851	35816.58
562.05	35554.44
562.249	34958.49
562.448	35703.95
562.647	35234.96
562.846	35435.66
563.045	35222.67
563.244	35499.15
563.443	35456.14
563.642	34796.7
563.841	35329.17
564.04	35509.39
564.239	35538.06
564.438	34753.69
564.637	34768.02
564.836	34792.6
565.035	34673.82
565.234	34661.53
565.432	34753.69
565.631	34499.74
565.83	34817.18
566.029	34653.34
566.228	34280.61
566.427	34436.25
566.625	34098.34
566.824	34006.18
567.023	34702.49
567.222	33655.98
567.42	34514.08
567.619	33897.64
567.818	34004.13
568.016	33766.57
568.215	34159.78
568.414	33928.36
568.612	34100.39
568.811	33766.57
569.01	33991.84
569.208	33070.26
569.407	33762.47
569.605	33297.58
569.804	33502.38
570.002	33209.52
570.201	33543.34
570.4	33141.94
570.598	32890.04
570.797	32769.21
570.995	33258.67
571.193	32715.96
571.392	32898.23
571.59	32761.01
571.789	33311.92
571.987	32847.03
572.186	32787.64
572.384	32474.3
572.582	32818.36
572.781	32347.33
572.979	31995.07
573.177	32392.38
573.376	32220.35
573.574	32222.4
573.772	32240.83
573.971	32126.14
574.169	31880.39
574.367	31790.28
574.565	32023.75
574.763	31855.81
574.962	31698.12
575.16	31401.16
575.358	31691.98
575.556	31360.2
575.754	31413.45
575.952	31636.68
576.151	31573.19
576.349	31134.93
576.547	31028.43
576.745	30887.12
576.943	31540.43
577.141	31085.78
577.339	31069.39
577.537	30885.08
577.735	30909.65
577.933	30522.58
578.131	30866.64
578.329	30741.72
578.527	30272.73
578.725	30866.64
578.923	30553.3
579.121	30291.16
579.319	30213.34
579.516	30442.71
579.714	30080.22
579.912	30168.29
580.11	30024.93
580.308	30065.89
580.506	30026.98
580.704	29431.02
580.901	29584.62
581.099	29936.87
581.297	29582.57
581.495	29805.8
581.692	29670.63
581.89	29269.23
582.088	29662.44
582.285	29037.81
582.483	29682.92
582.681	29267.18
582.878	29037.81
583.076	28642.55
583.274	29125.87
583.471	28701.94
583.669	28777.72
583.866	28441.85
584.064	28726.52
584.262	28198.14
584.459	28902.64
584.657	28536.06
584.854	28818.67
585.052	28192
585.249	28452.09
585.447	28280.06
585.644	27972.86
585.841	28226.81
586.039	28257.53
586.236	27972.86
586.434	27956.48
586.631	27829.51
586.828	27798.79
587.026	27753.73
587.223	27602.18
587.42	27395.34
587.618	27118.86
587.815	27370.76
588.012	27245.83
588.21	27004.17
588.407	27403.53
588.604	27141.39
588.801	26641.68
588.999	27112.72
589.196	26909.97
589.393	26809.62
589.59	26797.33
589.787	26461.46
589.984	26586.39
590.182	26191.13
590.379	26633.49
590.576	26111.26
590.773	26596.63
590.97	25945.37
591.167	26240.28
591.364	26070.3
591.561	26160.41
591.758	25957.66
591.955	25894.18
592.152	26012.96
592.349	25875.74
592.546	25920.8
592.743	25767.2
592.94	25427.24
593.137	25500.97
593.334	25437.48
593.531	25326.89
593.727	25441.57
593.924	25269.55
594.121	25046.32
594.318	25218.35
594.515	24941.87
594.712	25136.43
594.908	24859.95
595.105	25177.39
595.302	24720.69
595.499	25138.48
595.696	24589.62
595.892	24307
596.089	24563
596.286	24143.16
596.482	24575.28
596.679	24237.37
596.876	24204.6
597.072	23901.5
597.269	24347.96
597.466	23866.69
597.662	23819.58
597.859	24040.76
598.055	24057.15
598.252	23588.16
598.448	23602.5
598.645	23608.64
598.841	23266.63
599.038	23311.69
599.234	23670.08
599.431	23182.66
599.627	23573.83
599.824	23162.19
600.02	22971.72
600.217	23164.23
600.413	22988.11
600.609	22992.2
600.806	22871.37
601.002	22797.65
601.198	22738.26
601.395	22502.74
601.591	22703.44
601.787	22517.08
601.984	22414.68
602.18	22621.52
602.376	22277.46
602.572	22033.75
602.769	22130.01
602.965	22113.63
603.161	22080.86
603.357	22023.51
603.553	21865.82
603.75	22003.03
603.946	21788
604.142	21794.14
604.338	21650.78
604.534	21710.18
604.73	21611.87
604.926	21288.29
605.122	21480.8
605.318	21378.4
605.514	21175.66
605.71	20929.9
605.906	21329.25
606.102	21122.41
606.298	21228.9
606.494	21292.39
606.69	21140.84
606.886	20970.86
607.082	20813.17
607.278	21067.11
607.474	20501.87
607.67	20745.58
607.866	20671.86
608.062	20919.66
608.257	20667.76
608.453	20510.07
608.649	20540.79
608.845	20278.65
609.041	20686.19
609.236	20475.25
609.432	20469.11
609.628	20290.93
609.824	20333.94
610.019	20317.56
610.215	20002.17
610.411	20354.42
610.606	20120.95
610.802	20024.7
610.998	20088.18
611.193	20047.22
611.389	19735.93
611.584	19799.42
611.78	19834.24
611.976	19801.47
612.171	19940.73
612.367	19678.59
612.562	19576.19
612.758	19416.45
612.953	19541.38
613.149	19613.06
613.344	19557.76
613.539	19924.35
613.735	19754.37
613.93	19907.96
614.126	19103.11
614.321	19531.14
614.517	19725.69
614.712	19344.77
614.907	19352.96
615.103	19281.28
615.298	19080.58
615.493	19479.94
615.688	18994.57
615.884	19232.13
616.079	18906.51
616.274	19318.15
616.47	18959.75
616.665	18992.52
616.86	19033.48
617.055	18740.62
617.25	18834.83
617.445	19053.96
617.641	18609.55
617.836	18795.92
618.031	18646.41
618.226	18662.8
618.421	18115.99
618.616	18863.5
618.811	18468.24
619.006	18521.49
619.201	18148.76
619.396	18421.14
619.591	17972.63
619.786	18326.93
619.981	18072.98
620.176	18054.55
620.371	17577.37
620.566	17905.05
620.761	17759.64
620.956	17915.29
621.151	17696.16
621.346	17644.96
621.541	17501.6
621.735	17429.92
621.93	17175.97
622.125	17421.73
622.32	17026.47
622.515	17229.22
622.709	16817.58
622.904	17116.58
623.099	17008.04
623.294	16999.85
623.488	16547.25
623.683	16704.94
623.878	16459.18
624.072	16326.07
624.267	16326.07
624.462	16350.64
624.656	16086.45
624.851	16215.48
625.046	16182.71
625.24	16084.41
625.435	15674.81
625.629	15756.73
625.824	15644.09
626.018	15695.29
626.213	15324.61
626.407	15664.57
626.602	15431.1
626.796	15330.75
626.991	15373.76
627.185	15035.85
627.38	15001.03
627.574	14982.6
627.768	14806.47
627.963	14855.62
628.157	14544.33
628.352	14677.45
628.546	14355.92
628.74	14417.36
628.935	14382.54
629.129	14476.75
629.323	14083.54
629.517	14054.87
629.712	14091.73
629.906	14040.53
630.1	14032.34
630.294	13868.5
630.489	13667.8
630.683	13798.87
630.877	13491.68
631.071	13635.03
631.265	13694.43
631.459	13499.87
631.653	13436.38
631.848	13395.42
632.042	13452.77
632.236	13307.36
632.43	13229.54
632.624	13120.99
632.818	12944.87
633.012	12973.54
633.206	12959.2
633.4	12897.77
633.594	12598.76
633.788	12582.38
633.982	12811.75
634.176	12649.96
634.369	12346.86
634.563	12463.6
634.757	12291.57
634.951	12236.27
635.145	12266.99
635.339	12303.85
635.533	11998.71
635.726	12281.33
635.92	11789.81
636.114	12125.68
636.308	11941.36
636.501	11804.15
636.695	11806.2
636.889	11668.98
637.083	11638.27
637.276	11683.32
637.47	11447.8
637.664	11501.05
637.857	11593.21
638.051	11421.18
638.244	11150.85
638.438	11075.07
638.632	11159.04
638.825	10944
639.019	10921.48
639.212	10878.47
639.406	11032.07
639.599	10771.97
639.793	10866.18
639.986	10913.28
640.18	10771.97
640.373	10753.54
640.567	10655.24
640.76	10483.21
640.954	10556.94
641.147	10446.35
641.34	10429.96
641.534	10311.18
641.727	10264.08
641.92	10423.82
642.114	10128.91
642.307	10044.95
642.5	10223.12
642.694	9973.27
642.887	9831.96
643.08	9774.61
643.273	9868.82
643.467	9782.81
643.66	9618.97
643.853	9797.14
644.046	9653.78
644.239	9627.16
644.432	9692.69
644.626	9358.88
644.819	9584.15
645.012	9618.97
645.205	9397.79
645.398	9405.98
645.591	9369.12
645.784	9127.46
645.977	9172.51
646.17	9215.52
646.363	9027.1
646.556	8869.41
646.749	9186.85
646.942	8881.7
647.135	8844.84
647.328	8945.19
647.521	8760.87
647.714	8810.02
647.907	8701.48
648.099	8582.7
648.292	8711.72
648.485	8760.87
648.678	8523.3
648.871	8564.26
649.064	8523.3
649.256	8492.59
649.449	8472.11
649.642	8373.8
649.835	8420.91
650.027	8281.64
650.22	8195.63
650.413	7951.92
650.605	8193.58
650.798	7943.73
650.991	8003.12
651.183	7988.78
651.376	8021.55
651.568	7988.78
651.761	7943.73
651.954	7970.35
652.146	7802.42
652.339	7859.76
652.531	7718.45
652.724	7773.75
652.916	7452.22
653.109	7544.38
653.301	7700.02
653.494	7568.95
653.686	7253.56
653.879	7384.63
654.071	7433.79
654.263	7355.96
654.456	7390.78
654.648	7319.1
654.84	7177.79
655.033	7308.86
655.225	7108.16
655.417	7114.3
655.61	7292.48
655.802	7093.82
655.994	7194.17
656.186	7036.48
656.379	6909.51
656.571	7028.29
656.763	6870.59
656.955	6956.61
657.148	6946.37
657.34	6809.15
657.532	6649.41
657.724	6745.67
657.916	6755.91
658.108	6688.32
658.3	6551.11
658.492	6643.27
658.684	6579.78
658.876	6637.13
659.068	6504.01
659.26	6659.65
659.452	6569.54
659.644	6587.97
659.836	6319.69
660.028	6368.84
660.22	6114.89
660.412	6223.44
660.604	6063.69
660.796	6237.77
660.988	6133.33
661.18	6118.99
661.372	5922.38
661.563	6172.24
661.755	5989.97
661.947	5983.82
662.139	5918.29
662.331	5996.11
662.522	5942.86
662.714	5924.43
662.906	5744.21
663.097	5776.98
663.289	5758.55
663.481	5830.23
663.673	5693.01
663.864	5715.54
664.056	5580.37
664.247	5637.72
664.439	5766.74
664.631	5635.67
664.822	5557.85
665.014	5627.48
665.205	5561.94
665.397	5488.21
665.588	5430.87
665.78	5471.83
665.971	5477.98
666.163	5344.86
666.354	5420.63
666.546	5293.66
666.737	5244.51
666.929	5283.42
667.12	5205.6
667.311	5381.72
667.503	5168.73
667.694	5330.52
667.885	5226.07
668.077	5117.53
668.268	5150.3
668.459	5166.68
668.651	5111.39
668.842	4931.17
669.033	4906.59
669.224	5115.48
669.416	5004.89
669.607	4945.5
669.798	4996.7
669.989	5029.47
670.18	4888.16
670.371	4879.97
670.563	4796
670.754	4857.44
670.945	4828.77
671.136	4894.3
671.327	4724.32
671.518	4740.71
671.709	4752.99
671.9	4800.1
672.091	4845.15
672.282	4793.95
672.473	4628.07
672.664	4691.56
672.855	4728.42
673.046	4499.05
673.237	4744.8
673.428	4660.84
673.619	4611.68
673.809	4578.92
674	4519.53
674.191	4548.2
674.382	4503.14
674.573	4458.09
674.764	4486.76
674.954	4613.73
675.145	4421.22
675.336	4634.21
675.527	4572.77
675.717	4507.24
675.908	4580.96
676.099	4386.41
676.289	4453.99
676.48	4380.26
676.671	4259.43
676.861	4298.35
677.052	4111.98
677.243	4142.7
677.433	4294.25
677.624	4212.33
677.814	4253.29
678.005	4208.23
678.195	4335.21
678.386	4245.1
678.576	4175.47
678.767	4124.27
678.957	4257.39
679.148	4148.84
679.338	3987.05
679.529	4085.36
679.719	4130.41
679.909	4226.67
680.1	4052.59
680.29	4120.17
680.481	4066.92
680.671	4003.44
680.861	4154.99
681.052	4179.56
681.242	4169.32
681.432	4017.77
681.622	4048.49
681.813	4017.77
682.003	4028.01
682.193	3915.37
682.383	4023.92
682.573	3929.71
682.764	4054.64
682.954	3948.14
683.144	4013.68
683.334	3989.1
683.524	3933.81
683.714	4142.7
683.904	3890.8
684.094	3950.19
684.284	4054.64
684.474	3927.66
684.664	3923.57
684.854	3780.21
685.044	3931.76
685.234	3839.6
685.424	3911.28
685.614	3862.13
685.804	3759.73
685.994	3733.11
686.184	3761.78
686.374	3753.59
686.564	3812.98
686.753	3827.31
686.943	3653.23
687.133	3751.54
687.323	3827.31
687.513	3790.45
687.702	3622.52
687.892	3653.23
688.082	3585.65
688.272	3765.87
688.461	3606.13
688.651	3643
688.841	3552.88
689.03	3583.6
689.22	3659.38
689.41	3518.07
689.599	3534.45
689.789	3599.99
689.979	3495.54
690.168	3536.5
690.358	3335.8
690.547	3456.63
690.737	3294.84
690.926	3329.66
691.116	3356.28
691.305	3372.66
691.495	3227.26
691.684	3366.52
691.874	3309.18
692.063	3223.16
692.252	3413.62
692.442	3391.09
692.631	3214.97
692.82	3264.12
693.01	3145.34
693.199	3331.7
693.388	3163.77
693.578	3157.63
693.767	3198.59
693.956	3198.59
694.146	3186.3
694.335	3073.66
694.524	3243.64
694.713	3137.15
694.902	3171.96
695.092	3024.51
695.281	3104.38
695.47	2989.69
695.659	3075.71
695.848	3004.03
696.037	3053.18
696.226	3102.33
696.415	2903.68
696.604	2991.74
696.793	2965.12
696.982	3092.09
697.171	2983.55
697.36	2895.49
697.549	2842.24
697.738	2899.58
697.927	3020.41
698.116	2924.16
698.305	2897.53
698.494	2795.14
698.683	2907.77
698.872	2911.87
699.061	2877.05
699.25	2776.7
699.438	2883.2
699.627	2885.25
699.816	2893.44
700.005	2879.1
700.193	2791.04
700.382	2823.81
700.571	2811.52
700.76	2903.68
700.948	2791.04
701.137	2834.05
701.326	2872.96
701.514	2817.66
701.703	2772.61
701.892	2696.83
702.08	2803.33
702.269	2768.51
702.457	2774.66
702.646	2696.83
702.834	2766.46
703.023	2754.18
703.212	2684.55
703.4	2823.81
703.589	2692.74
703.777	2791.04
703.965	2602.63
704.154	2645.63
704.342	2647.68
704.531	2692.74
704.719	2651.78
704.907	2666.11
705.096	2694.79
705.284	2733.7
705.472	2766.46
705.661	2680.45
705.849	2760.32
706.037	2711.17
706.226	2649.73
706.414	2637.44
706.602	2594.44
706.79	2711.17
706.979	2555.52
707.167	2733.7
707.355	2565.76
707.543	2700.93
707.731	2637.44
707.919	2631.3
708.107	2592.39
708.296	2506.37
708.484	2537.09
708.672	2694.79
708.86	2614.91
709.048	2625.15
709.236	2633.35
709.424	2713.22
709.612	2631.3
709.8	2686.59
709.988	2576
710.176	2788.99
710.364	2647.68
710.551	2702.98
710.739	2721.41
710.927	2731.65
711.115	2621.06
711.303	2735.74
711.491	2645.63
711.679	2582.15
711.866	2610.82
712.054	2619.01
712.242	2623.11
712.43	2596.48
712.617	2625.15
712.805	2461.32
712.993	2612.87
713.181	2596.48
713.368	2590.34
713.556	2608.77
713.744	2664.07
713.931	2645.63
714.119	2594.44
714.306	2748.03
714.494	2766.46
714.682	2533
714.869	2580.1
715.057	2606.72
715.244	2684.55
715.432	2623.11
715.619	2788.99
715.807	2635.39
715.994	2547.33
716.182	2664.07
716.369	2627.2
716.556	2598.53
716.744	2676.35
716.931	2608.77
717.119	2629.25
717.306	2588.29
717.493	2684.55
717.681	2602.63
717.868	2606.72
718.055	2676.35
718.242	2547.33
718.43	2696.83
718.617	2729.6
718.804	2621.06
718.991	2678.4
719.179	2700.93
719.366	2592.39
719.553	2696.83
719.74	2631.3
719.927	2666.11
720.114	2637.44
720.301	2510.47
720.488	2696.83
720.676	2739.84
720.863	2645.63
721.05	2608.77
721.237	2649.73
721.424	2702.98
721.611	2578.05
721.798	2569.86
721.985	2610.82
722.172	2588.29
722.358	2625.15
722.545	2725.51
722.732	2571.91
722.919	2682.5
723.106	2690.69
723.293	2711.17
723.48	2754.18
723.667	2535.04
723.853	2743.94
724.04	2664.07
724.227	2688.64
724.414	2565.76
724.6	2668.16
724.787	2641.54
724.974	2748.03
725.161	2662.02
725.347	2528.9
725.534	2670.21
725.72	2737.79
725.907	2717.31
726.094	2643.59
726.28	2709.12
726.467	2770.56
726.653	2729.6
726.84	2842.24
727.027	2840.19
727.213	2569.86
727.4	2799.23
727.586	2801.28
727.773	2729.6
727.959	2772.61
728.145	2813.57
728.332	2653.83
728.518	2795.14
728.705	2727.55
728.891	2731.65
729.077	2832
729.264	2811.52
729.45	2750.08
729.636	2844.29
729.823	2721.41
730.009	2819.71
730.195	2854.53
730.382	2838.14
730.568	2932.35
730.754	2815.62
730.94	2827.9
731.126	2799.23
731.313	2860.67
731.499	2725.51
731.685	2768.51
731.871	2733.7
732.057	2825.86
732.243	2854.53
732.429	2856.58
732.615	2842.24
732.801	2969.21
732.987	2872.96
733.173	2854.53
733.359	2743.94
733.545	2850.43
733.731	2875.01
733.917	3010.17
734.103	2963.07
734.289	2889.34
734.475	2836.1
734.661	2954.88
734.847	2811.52
735.033	2944.64
735.219	2891.39
735.404	2868.86
735.59	2866.81
735.776	2979.45
735.962	2872.96
736.148	3022.46
736.333	2920.06
736.519	2850.43
736.705	2977.41
736.89	2954.88
737.076	2881.15
737.262	2778.75
737.447	2817.66
737.633	2948.73
737.819	2997.88
738.004	2856.58
738.19	2893.44
738.375	2907.77
738.561	2969.21
738.747	2909.82
738.932	2952.83
739.118	3088
739.303	2944.64
739.489	2928.25
739.674	2936.45
739.859	2932.35
740.045	2891.39
740.23	3075.71
740.416	2780.8
740.601	2961.02
740.786	3014.27
740.972	2866.81
741.157	2975.36
741.342	2981.5
741.528	2944.64
741.713	2981.5
741.898	2850.43
742.084	2854.53
742.269	3032.7
742.454	2946.69
742.639	2907.77
742.824	2942.59
743.01	2915.97
743.195	2936.45
743.38	2893.44
743.565	2967.17
743.75	2803.33
743.935	2893.44
744.12	3102.33
744.305	2848.38
744.49	2907.77
744.675	2815.62
744.86	2770.56
745.045	2909.82
745.23	2932.35
745.415	2897.53
745.6	2817.66
745.785	2819.71
745.97	2922.11
746.155	2848.38
746.34	2784.9
746.525	2756.22
746.71	2793.09
746.895	2797.18
747.079	2760.32
747.264	2614.91
747.449	2801.28
747.634	2768.51
747.819	2735.74
748.003	2651.78
748.188	2676.35
748.373	2692.74
748.557	2674.31
748.742	2619.01
748.927	2758.27
749.111	2684.55
749.296	2594.44
749.481	2616.96
749.665	2606.72
749.85	2598.53
750.034	2520.71
750.219	2670.21
750.404	2504.32
750.588	2442.89
750.773	2510.47
750.957	2406.02
751.141	2555.52
751.326	2438.79
751.51	2379.4
751.695	2373.25
751.879	2475.65
752.064	2459.27
752.248	2363.01
752.432	2457.22
752.617	2451.08
752.801	2483.84
752.985	2389.64
753.17	2416.26
753.354	2420.36
753.538	2324.1
753.722	2256.52
753.907	2219.66
754.091	2289.29
754.275	2209.42
754.459	2252.42
754.643	2205.32
754.828	2277
755.012	2309.77
755.196	2133.64
755.38	2285.19
755.564	2150.03
755.748	2121.35
755.932	2125.45
756.116	2111.11
756.3	2025.1
756.484	1990.28
756.668	2164.36
756.852	2016.91
757.036	2100.87
757.22	2021
757.404	2012.81
757.588	1930.89
757.772	2027.15
757.956	1928.85
758.14	1980.04
758.323	1959.56
758.507	1969.8
758.691	2004.62
758.875	2129.55
759.059	1969.8
759.242	1664.66
759.426	1912.46
759.61	1887.89
759.794	1891.98
759.977	1914.51
760.161	1955.47
760.345	1867.41
760.528	1851.02
760.712	1814.16
760.895	1814.16
761.079	1871.5
761.263	1916.56
761.446	1785.49
761.63	1871.5
761.813	1906.32
761.997	1769.1
762.18	1758.86
762.364	1791.63
762.547	1824.4
762.731	1709.71
762.914	1799.82
763.098	1734.29
763.281	1678.99
763.464	1627.79
763.648	1683.09
763.831	1648.27
764.015	1689.23
764.198	1697.42
764.381	1549.97
764.564	1681.04
764.748	1656.47
764.931	1693.33
765.114	1564.31
765.297	1599.12
765.481	1578.64
765.664	1584.79
765.847	1676.95
766.03	1697.42
766.213	1652.37
766.397	1640.08
766.58	1547.92
766.763	1603.22
766.946	1480.34
767.129	1588.88
767.312	1621.65
767.495	1527.44
767.678	1502.87
767.861	1511.06
768.044	1558.16
768.227	1537.68
768.41	1582.74
768.593	1605.27
768.776	1515.16
768.959	1543.83
769.142	1527.44
769.324	1480.34
769.507	1513.11
769.69	1453.72
769.873	1429.14
770.056	1511.06
770.239	1455.76
770.421	1490.58
770.604	1429.14
770.787	1386.13
770.97	1484.44
771.152	1408.66
771.335	1433.24
771.518	1429.14
771.7	1353.37
771.883	1490.58
772.066	1293.97
772.248	1414.81
772.431	1388.18
772.613	1310.36
772.796	1234.58
772.978	1365.65
773.161	1359.51
773.343	1242.78
773.526	1289.88
773.708	1277.59
773.891	1304.21
774.073	1205.91
774.256	1222.3
774.438	1316.5
774.621	1185.43
774.803	1126.04
774.985	1244.82
775.168	1216.15
775.35	1179.29
775.532	1293.97
775.715	1193.62
775.897	1267.35
776.079	1160.86
776.261	1177.24
776.444	1097.37
776.626	1173.14
776.808	1187.48
776.99	1132.19
777.173	1154.71
777.355	1152.67
777.537	1121.95
777.719	1136.28
777.901	1087.13
778.083	1093.27
778.265	997.02
778.447	1142.43
778.629	980.64
778.811	960.16
778.993	1056.41
779.175	1087.13
779.357	1154.71
779.539	1029.79
779.721	1027.74
779.903	988.83
780.085	976.54
780.267	1068.7
780.449	954.01
780.631	992.92
780.812	980.64
780.994	937.63
781.176	929.44
781.358	921.24
781.54	990.88
781.721	865.95
781.903	974.49
782.085	835.23
782.267	777.89
782.448	861.85
782.63	870.05
782.812	837.28
782.993	874.14
783.175	847.52
783.357	855.71
783.538	777.89
783.72	761.5
783.901	784.03
784.083	814.75
784.264	798.37
784.446	810.65
784.627	704.16
784.809	712.35
784.99	857.76
785.172	804.51
785.353	784.03
785.535	790.17
785.716	718.5
785.897	732.83
786.079	743.07
786.26	741.02
786.441	691.87
786.623	669.34
786.804	738.98
786.985	743.07
787.167	700.06
787.348	663.2
787.529	736.93
787.71	732.83
787.891	732.83
788.073	755.36
788.254	661.15
788.435	665.25
788.616	638.62
788.797	593.57
788.978	632.48
789.159	620.19
789.34	605.86
789.522	573.09
789.703	687.78
789.884	585.38
790.065	585.38
790.246	642.72
790.427	609.95
790.607	609.95
790.788	673.44
790.969	497.32
791.15	716.45
791.331	577.19
791.512	605.86
791.693	534.18
791.874	513.7
792.054	673.44
792.235	640.67
792.416	616.1
792.597	532.13
792.778	515.75
792.958	521.89
793.139	601.76
793.32	609.95
793.5	499.36
793.681	634.53
793.862	493.22
794.042	499.36
794.223	487.08
794.404	464.55
794.584	452.26
794.765	577.19
794.945	503.46
795.126	474.79
795.306	491.17
795.487	470.69
795.667	493.22
795.848	532.13
796.028	392.87
796.209	491.17
796.389	452.26
796.57	411.3
796.75	433.83
796.93	394.92
797.111	384.68
797.291	460.45
797.471	462.5
797.652	384.68
797.832	396.96
798.012	411.3
798.192	388.77
798.373	390.82
798.553	454.31
798.733	380.58
798.913	386.72
799.093	425.64
799.274	556.71
799.454	472.74
799.634	392.87
799.814	431.78
799.994	454.31
800.174	480.93
800.354	341.67
800.534	321.19
800.714	343.72
800.894	403.11
801.074	403.11
801.254	245.41
801.434	413.35
801.614	382.63
801.794	378.53
801.974	1093.27
802.154	345.77
802.334	442.02
802.514	347.81
802.693	394.92
802.873	347.81
803.053	308.9
803.233	345.77
803.413	366.25
803.592	323.24
803.772	409.25
803.952	331.43
804.131	437.92
804.311	331.43
804.491	286.37
804.67	378.53
804.85	278.18
805.03	368.29
805.209	376.48
805.389	290.47
805.568	304.81
805.748	378.53
805.928	333.48
806.107	245.41
806.287	399.01
806.466	229.03
806.646	308.9
806.825	335.53
807.004	276.13
807.184	255.65
807.363	341.67
807.543	327.33
807.722	300.71
807.901	360.1
808.081	327.33
808.26	259.75
808.439	304.81
808.619	302.76
808.798	313
808.977	259.75
809.156	327.33
809.336	229.03
809.515	392.87
809.694	323.24
809.873	218.79
810.052	298.66
810.231	247.46
810.411	333.48
810.59	302.76
810.769	290.47
810.948	356.01
811.127	267.94
811.306	249.51
811.485	261.8
811.664	386.72
811.843	241.32
812.022	204.46
812.201	261.8
812.38	306.85
812.559	272.04
812.737	239.27
812.916	247.46
813.095	253.61
813.274	231.08
813.453	257.7
813.632	222.89
813.811	284.33
813.989	167.59
814.168	278.18
814.347	214.7
814.526	286.37
814.704	255.65
814.883	229.03
815.062	245.41
815.24	241.32
815.419	237.22
815.598	231.08
815.776	138.92
815.955	200.36
816.133	192.17
816.312	263.85
816.49	116.39
816.669	153.26
816.847	239.27
817.026	226.98
817.204	267.94
817.383	179.88
817.561	173.74
817.74	292.52
817.918	138.92
818.097	175.78
818.275	237.22
818.453	245.41
818.632	126.63
818.81	226.98
818.988	218.79
819.167	196.26
819.345	169.64
819.523	214.7
819.701	310.95
819.879	235.18
820.058	165.54
820.236	136.87
820.414	237.22
820.592	161.45
820.77	196.26
820.948	222.89
821.127	202.41
821.305	175.78
821.483	188.07
821.661	155.3
821.839	173.74
822.017	200.36
822.195	247.46
822.373	210.6
822.551	200.36
822.729	190.12
822.907	202.41
823.085	243.37
823.262	179.88
823.44	169.64
823.618	210.6
823.796	161.45
823.974	169.64
824.152	202.41
824.329	253.61
824.507	161.45
824.685	202.41
824.863	138.92
825.04	216.74
825.218	218.79
825.396	104.11
825.574	124.58
825.751	222.89
825.929	251.56
826.107	126.63
826.284	112.3
826.462	218.79
826.639	108.2
826.817	132.78
826.994	147.11
827.172	136.87
827.349	208.55
827.527	91.82
827.704	171.69
827.882	204.46
828.059	169.64
828.237	126.63
828.414	118.44
828.591	79.53
828.769	202.41
828.946	73.39
829.124	85.67
829.301	186.02
829.478	124.58
829.655	155.3
829.833	130.73
830.01	116.39
830.187	147.11
830.364	112.3
830.542	140.97
830.719	165.54
830.896	155.3
831.073	87.72
831.25	130.73
831.427	188.07
831.604	91.82
831.782	106.15
831.959	91.82
832.136	126.63
832.313	188.07
832.49	114.34
832.667	122.54
832.844	83.63
833.021	181.93
833.198	140.97
833.374	161.45
833.551	67.24
833.728	136.87
833.905	153.26
834.082	163.5
834.259	118.44
834.436	134.82
834.612	149.16
834.789	149.16
834.966	132.78
835.143	75.43
835.319	89.77
835.496	97.96
835.673	130.73
835.85	159.4
836.026	155.3
836.203	134.82
836.38	112.3
836.556	116.39
836.733	75.43
836.909	165.54
837.086	48.81
837.262	100.01
837.439	132.78
837.616	79.53
837.792	143.02
837.968	112.3
838.145	69.29
838.321	118.44
838.498	126.63
838.674	110.25
838.851	118.44
839.027	63.15
839.203	100.01
839.38	120.49
839.556	177.83
839.732	77.48
839.909	61.1
840.085	106.15
840.261	79.53
840.437	114.34
840.614	54.95
840.79	87.72
840.966	50.86
841.142	44.71
841.318	122.54
841.494	159.4
841.671	116.39
841.847	67.24
842.023	128.68
842.199	63.15
842.375	73.39
842.551	5.8
842.727	24.23
842.903	87.72
843.079	65.19
843.255	81.58
843.431	52.91
843.607	67.24
843.783	48.81
843.959	120.49
844.134	69.29
844.31	95.91
844.486	22.19
844.662	136.87
844.838	67.24
845.013	106.15
845.189	63.15
845.365	32.43
845.541	79.53
845.716	65.19
845.892	73.39
846.068	155.3
846.244	130.73
846.419	104.11
846.595	5.8
846.77	16.04
846.946	130.73
847.122	63.15
847.297	34.47
847.473	138.92
847.648	-31.06
847.824	110.25
847.999	22.19
848.175	54.95
848.35	61.1
848.526	77.48
848.701	73.39
848.876	93.87
849.052	38.57
849.227	24.23
849.403	5.8
849.578	67.24
849.753	65.19
849.929	89.77
850.104	32.43
850.279	87.72
850.454	11.95
850.63	52.91
850.805	116.39
850.98	79.53
851.155	52.91
851.33	54.95
851.505	-26.96
851.681	171.69
851.856	81.58
852.031	75.43
852.206	85.67
852.381	65.19
852.556	65.19
852.731	124.58
852.906	36.52
853.081	159.4
853.256	140.97
853.431	54.95
853.606	57
853.781	-2.39
853.956	-6.49
854.131	44.71
854.305	13.99
854.48	73.39
854.655	-41.3
854.83	-31.06
855.005	40.62
855.18	-0.34
855.354	83.63
855.529	48.81
855.704	11.95
855.879	59.05
856.053	28.33
856.228	-6.49
856.403	20.14
856.577	40.62
856.752	42.67
856.926	30.38
857.101	20.14
857.276	38.57
857.45	75.43
857.625	42.67
857.799	122.54
857.974	-26.96
858.148	-51.54
858.323	-8.53
858.497	54.95
858.672	5.8
858.846	-8.53
859.02	36.52
859.195	-0.34
859.369	48.81
859.543	97.96
859.718	9.9
859.892	36.52
860.066	124.58
860.241	34.47
860.415	16.04
860.589	32.43
860.763	22.19
860.938	-26.96
861.112	67.24
861.286	32.43
861.46	42.67
861.634	-35.16
861.808	79.53
861.982	-35.16
862.157	24.23
862.331	40.62
862.505	-20.82
862.679	-6.49
862.853	-31.06
863.027	-2.39
863.201	106.15
863.375	81.58
863.549	87.72
863.722	30.38
863.896	-10.58
864.07	20.14
864.244	-61.78
864.418	79.53
864.592	71.34
864.766	11.95
864.939	83.63
865.113	65.19
865.287	30.38
865.461	-10.58
865.634	7.85
865.808	-18.77
865.982	22.19
866.156	65.19
866.329	-37.2
866.503	9.9
866.676	16.04
866.85	18.09
867.024	5.8
867.197	30.38
867.371	11.95
867.544	20.14
867.718	-57.68
867.891	67.24
868.065	57
868.238	24.23
868.412	100.01
868.585	-39.25
868.759	-2.39
868.932	-2.39
869.105	-24.92
869.279	-0.34
869.452	-16.73
869.625	59.05
869.799	-31.06
869.972	-12.63
870.145	57
870.319	93.87
870.492	44.71
870.665	-22.87
870.838	-24.92
871.011	-12.63
871.185	-39.25
871.358	-39.25
871.531	-24.92
871.704	67.24
871.877	32.43
872.05	28.33
872.223	11.95
872.396	48.81
872.569	-16.73
872.742	106.15
872.915	36.52
873.088	87.72
873.261	52.91
873.434	71.34
873.607	-12.63
873.78	73.39
873.953	-18.77
874.126	-33.11
874.299	57
874.471	61.1
874.644	26.28
874.817	-12.63
874.99	48.81
875.163	30.38
875.335	1.71
875.508	-22.87
875.681	26.28
875.853	-0.34
876.026	-33.11
876.199	63.15
876.371	44.71
876.544	59.05
876.717	7.85
876.889	-37.2
877.062	-24.92
877.234	-53.59
877.407	3.75
877.579	71.34
877.752	13.99
877.924	-22.87
878.097	73.39
878.269	-26.96
878.442	40.62
878.614	5.8
878.786	5.8
878.959	48.81
879.131	81.58
879.303	-92.5
879.476	57
879.648	7.85
879.82	20.14
879.993	-4.44
880.165	83.63
880.337	-39.25
880.509	13.99
880.681	-29.01
880.854	-49.49
881.026	18.09
881.198	34.47
881.37	7.85
881.542	42.67
881.714	52.91
881.886	-0.34
882.058	-26.96
882.23	-4.44
882.402	-65.88
882.574	-26.96
882.746	-2.39
882.918	-12.63
883.09	67.24
883.262	-4.44
883.434	38.57
883.606	-39.25
883.778	-35.16
883.95	73.39
884.122	13.99
884.293	95.91
884.465	-12.63
884.637	50.86
884.809	32.43
884.98	-16.73
885.152	-4.44
885.324	16.04
885.496	-20.82
885.667	46.76
885.839	3.75
886.011	-59.73
886.182	-61.78
886.354	73.39
886.525	59.05
886.697	-14.68
886.869	44.71
887.04	7.85
887.212	52.91
887.383	59.05
887.555	36.52
887.726	11.95
887.897	-18.77
888.069	-33.11
888.24	13.99
888.412	-41.3
888.583	18.09
888.754	-39.25
888.926	28.33
889.097	24.23
889.268	-39.25
889.44	32.43
889.611	-20.82
889.782	73.39
889.953	-16.73
890.125	81.58
890.296	-53.59
890.467	-14.68
890.638	34.47
890.809	-22.87
890.98	-10.58
891.151	-2.39
891.323	7.85
891.494	54.95
891.665	36.52
891.836	-14.68
892.007	-61.78
892.178	44.71
892.349	28.33
892.52	-59.73
892.691	9.9
892.862	-24.92
893.032	-57.68
893.203	-45.4
893.374	-26.96
893.545	46.76
893.716	9.9
893.887	104.11
894.057	-22.87
894.228	-29.01
894.399	-33.11
894.57	-4.44
894.74	-6.49
894.911	22.19
895.082	22.19
895.253	40.62
895.423	-26.96
895.594	63.15
895.764	32.43
895.935	54.95
896.106	-0.34
896.276	-12.63
896.447	87.72
896.617	24.23
896.788	-43.35
896.958	30.38
897.129	-45.4
897.299	-29.01
897.47	34.47
897.64	28.33
897.81	-41.3
897.981	-4.44
898.151	-37.2
898.322	46.76
898.492	18.09
898.662	-33.11
898.832	-24.92
899.003	1.71
899.173	9.9
899.343	11.95
899.513	-8.53
