Data from USB4F104151__64__12-42-09-979.txt Node

Date: Fri Mar 14 12:42:09 EDT 2025
User: louis
Spectrometer: USB4F10415
Trigger mode: 4
Integration Time (sec): 3.000000E-2
Scans to average: 1
Electric dark correction enabled: true
Nonlinearity correction enabled: false
Boxcar width: 0
XAxis mode: Wavelengths
Number of Pixels in Spectrum: 3648
>>>>>Begin Spectral Data<<<<<
178.204	-177.66
178.424	-177.66
178.644	-177.66
178.864	-77.31
179.084	-91.65
179.304	23.04
179.524	-40.45
179.744	80.38
179.964	4.61
180.184	0.51
180.404	20.99
180.624	-50.69
180.844	31.23
181.064	-73.21
181.283	2.56
181.503	-5.63
181.723	6.66
181.943	-48.64
182.163	64
182.383	29.18
182.602	41.47
182.822	98.81
183.042	49.66
183.262	10.75
183.482	35.33
183.701	12.8
183.921	100.86
184.141	-13.82
184.361	76.29
184.58	88.57
184.8	25.09
185.02	37.38
185.239	51.71
185.459	-13.82
185.679	68.09
185.898	-56.83
186.118	145.92
186.338	-38.4
186.557	39.42
186.777	-19.97
186.997	41.47
187.216	0.51
187.436	49.66
187.655	20.99
187.875	2.56
188.095	23.04
188.314	16.9
188.534	84.48
188.753	33.28
188.973	39.42
189.192	61.95
189.412	-3.58
189.631	6.66
189.851	35.33
190.07	41.47
190.29	6.66
190.509	-5.63
190.729	55.81
190.948	111.1
191.168	195.07
191.387	80.38
191.607	37.38
191.826	94.72
192.045	43.52
192.265	-5.63
192.484	57.86
192.704	27.14
192.923	0.51
193.142	2.56
193.362	29.18
193.581	-56.83
193.8	117.25
194.02	-5.63
194.239	25.09
194.458	53.76
194.678	55.81
194.897	-34.3
195.116	74.24
195.335	31.23
195.555	31.23
195.774	20.99
195.993	104.96
196.212	37.38
196.432	-32.26
196.651	84.48
196.87	-1.54
197.089	127.49
197.308	-30.21
197.528	25.09
197.747	14.85
197.966	39.42
198.185	92.67
198.404	27.14
198.623	-9.73
198.842	14.85
199.062	18.94
199.281	-26.11
199.5	-13.82
199.719	41.47
199.938	8.7
200.157	86.53
200.376	59.9
200.595	2.56
200.814	20.99
201.033	10.75
201.252	61.95
201.471	2.56
201.69	84.48
201.909	25.09
202.128	45.57
202.347	82.43
202.566	47.62
202.785	4.61
203.004	-62.98
203.223	137.73
203.442	-28.16
203.661	-38.4
203.879	57.86
204.098	64
204.317	-56.83
204.536	51.71
204.755	12.8
204.974	43.52
205.193	100.86
205.411	76.29
205.63	16.9
205.849	64
206.068	45.57
206.287	6.66
206.505	2.56
206.724	-11.78
206.943	-7.68
207.162	16.9
207.381	76.29
207.599	98.81
207.818	35.33
208.037	57.86
208.255	20.99
208.474	47.62
208.693	25.09
208.911	45.57
209.13	68.09
209.349	16.9
209.567	66.05
209.786	55.81
210.005	51.71
210.223	76.29
210.442	72.19
210.661	59.9
210.879	33.28
211.098	-36.35
211.316	8.7
211.535	72.19
211.753	-5.63
211.972	33.28
212.191	-42.5
212.409	-9.73
212.628	-13.82
212.846	-7.68
213.065	80.38
213.283	96.77
213.502	29.18
213.72	23.04
213.938	84.48
214.157	20.99
214.375	-19.97
214.594	55.81
214.812	-19.97
215.031	68.09
215.249	35.33
215.467	35.33
215.686	4.61
215.904	61.95
216.122	8.7
216.341	68.09
216.559	-24.06
216.778	18.94
216.996	121.34
217.214	-40.45
217.432	20.99
217.651	-30.21
217.869	47.62
218.087	6.66
218.306	29.18
218.524	90.62
218.742	-15.87
218.96	27.14
219.179	64
219.397	39.42
219.615	72.19
219.833	41.47
220.051	-15.87
220.27	35.33
220.488	109.05
220.706	55.81
220.924	68.09
221.142	86.53
221.36	43.52
221.578	8.7
221.796	-17.92
222.015	96.77
222.233	64
222.451	100.86
222.669	8.7
222.887	57.86
223.105	-1.54
223.323	14.85
223.541	20.99
223.759	2.56
223.977	8.7
224.195	43.52
224.413	109.05
224.631	94.72
224.849	70.14
225.067	90.62
225.285	61.95
225.503	37.38
225.721	-22.02
225.939	-22.02
226.157	45.57
226.375	109.05
226.592	82.43
226.81	35.33
227.028	27.14
227.246	29.18
227.464	14.85
227.682	31.23
227.9	20.99
228.117	31.23
228.335	-42.5
228.553	0.51
228.771	72.19
228.989	45.57
229.206	70.14
229.424	18.94
229.642	14.85
229.86	59.9
230.077	-3.58
230.295	109.05
230.513	82.43
230.731	20.99
230.948	51.71
231.166	-5.63
231.384	-58.88
231.601	70.14
231.819	2.56
232.037	0.51
232.254	23.04
232.472	10.75
232.689	4.61
232.907	33.28
233.125	109.05
233.342	12.8
233.56	-36.35
233.777	45.57
233.995	16.9
234.213	37.38
234.43	111.1
234.648	35.33
234.865	16.9
235.083	37.38
235.3	41.47
235.518	-1.54
235.735	96.77
235.953	49.66
236.17	86.53
236.388	0.51
236.605	41.47
236.822	90.62
237.04	-1.54
237.257	-7.68
237.475	-17.92
237.692	74.24
237.909	14.85
238.127	55.81
238.344	94.72
238.562	-17.92
238.779	2.56
238.996	-9.73
239.214	-11.78
239.431	121.34
239.648	23.04
239.865	-60.93
240.083	16.9
240.3	33.28
240.517	14.85
240.735	53.76
240.952	78.33
241.169	72.19
241.386	64
241.603	-19.97
241.821	-3.58
242.038	92.67
242.255	115.2
242.472	25.09
242.689	27.14
242.907	12.8
243.124	-17.92
243.341	78.33
243.558	12.8
243.775	-26.11
243.992	-17.92
244.209	20.99
244.426	109.05
244.643	61.95
244.86	-3.58
245.078	55.81
245.295	117.25
245.512	-48.64
245.729	-34.3
245.946	-36.35
246.163	25.09
246.38	29.18
246.597	14.85
246.814	35.33
247.031	39.42
247.248	41.47
247.464	59.9
247.681	27.14
247.898	57.86
248.115	10.75
248.332	-7.68
248.549	31.23
248.766	61.95
248.983	29.18
249.2	2.56
249.417	59.9
249.633	49.66
249.85	41.47
250.067	6.66
250.284	111.1
250.501	2.56
250.717	31.23
250.934	-73.21
251.151	35.33
251.368	0.51
251.585	64
251.801	47.62
252.018	-48.64
252.235	78.33
252.451	49.66
252.668	-46.59
252.885	152.06
253.102	57.86
253.318	104.96
253.535	39.42
253.752	61.95
253.968	-58.88
254.185	25.09
254.401	29.18
254.618	66.05
254.835	-9.73
255.051	72.19
255.268	43.52
255.484	43.52
255.701	94.72
255.917	49.66
256.134	-7.68
256.351	-44.54
256.567	-40.45
256.784	41.47
257	4.61
257.217	72.19
257.433	33.28
257.65	47.62
257.866	72.19
258.082	0.51
258.299	6.66
258.515	49.66
258.732	55.81
258.948	47.62
259.165	8.7
259.381	-46.59
259.597	55.81
259.814	49.66
260.03	10.75
260.246	-15.87
260.463	86.53
260.679	111.1
260.895	35.33
261.112	29.18
261.328	-42.5
261.544	29.18
261.761	107.01
261.977	39.42
262.193	-52.74
262.409	88.57
262.626	29.18
262.842	-15.87
263.058	55.81
263.274	33.28
263.49	57.86
263.707	100.86
263.923	8.7
264.139	49.66
264.355	35.33
264.571	94.72
264.787	70.14
265.004	-15.87
265.22	82.43
265.436	41.47
265.652	4.61
265.868	18.94
266.084	-44.54
266.3	8.7
266.516	37.38
266.732	45.57
266.948	119.29
267.164	39.42
267.38	-44.54
267.596	-3.58
267.812	145.92
268.028	-44.54
268.244	51.71
268.46	20.99
268.676	29.18
268.892	-19.97
269.108	23.04
269.324	45.57
269.54	-5.63
269.756	61.95
269.972	8.7
270.188	10.75
270.403	-24.06
270.619	61.95
270.835	70.14
271.051	4.61
271.267	27.14
271.483	18.94
271.698	18.94
271.914	66.05
272.13	53.76
272.346	-5.63
272.562	41.47
272.777	31.23
272.993	0.51
273.209	39.42
273.425	-30.21
273.64	-24.06
273.856	6.66
274.072	-11.78
274.287	8.7
274.503	23.04
274.719	-15.87
274.934	29.18
275.15	29.18
275.366	86.53
275.581	16.9
275.797	74.24
276.012	-48.64
276.228	25.09
276.444	41.47
276.659	74.24
276.875	64
277.09	0.51
277.306	16.9
277.521	59.9
277.737	96.77
277.952	92.67
278.168	49.66
278.383	-17.92
278.599	-13.82
278.814	45.57
279.03	104.96
279.245	39.42
279.461	31.23
279.676	111.1
279.892	6.66
280.107	16.9
280.322	55.81
280.538	53.76
280.753	45.57
280.969	74.24
281.184	27.14
281.399	100.86
281.615	-11.78
281.83	27.14
282.045	59.9
282.26	0.51
282.476	72.19
282.691	33.28
282.906	4.61
283.122	8.7
283.337	57.86
283.552	49.66
283.767	29.18
283.983	82.43
284.198	82.43
284.413	121.34
284.628	-48.64
284.843	27.14
285.058	84.48
285.274	49.66
285.489	-48.64
285.704	41.47
285.919	-22.02
286.134	145.92
286.349	57.86
286.564	-11.78
286.779	84.48
286.995	25.09
287.21	-17.92
287.425	109.05
287.64	6.66
287.855	14.85
288.07	10.75
288.285	14.85
288.5	-52.74
288.715	51.71
288.93	92.67
289.145	29.18
289.36	92.67
289.575	16.9
289.79	-28.16
290.004	57.86
290.219	96.77
290.434	-32.26
290.649	6.66
290.864	41.47
291.079	6.66
291.294	37.38
291.509	27.14
291.724	8.7
291.938	-11.78
292.153	125.44
292.368	64
292.583	20.99
292.798	76.29
293.012	53.76
293.227	23.04
293.442	-3.58
293.657	14.85
293.871	49.66
294.086	27.14
294.301	43.52
294.516	-22.02
294.73	45.57
294.945	49.66
295.16	109.05
295.374	-22.02
295.589	121.34
295.804	10.75
296.018	4.61
296.233	68.09
296.447	-5.63
296.662	20.99
296.877	74.24
297.091	78.33
297.306	27.14
297.52	16.9
297.735	72.19
297.949	-38.4
298.164	96.77
298.378	82.43
298.593	74.24
298.807	23.04
299.022	61.95
299.236	43.52
299.451	31.23
299.665	8.7
299.88	35.33
300.094	-5.63
300.309	25.09
300.523	23.04
300.737	111.1
300.952	64
301.166	64
301.381	88.57
301.595	98.81
301.809	6.66
302.024	43.52
302.238	6.66
302.452	37.38
302.667	10.75
302.881	92.67
303.095	72.19
303.309	88.57
303.524	39.42
303.738	-11.78
303.952	16.9
304.166	23.04
304.381	-11.78
304.595	145.92
304.809	92.67
305.023	-9.73
305.237	18.94
305.452	16.9
305.666	98.81
305.88	76.29
306.094	51.71
306.308	51.71
306.522	41.47
306.736	23.04
306.95	27.14
307.164	-26.11
307.379	-3.58
307.593	31.23
307.807	88.57
308.021	41.47
308.235	72.19
308.449	25.09
308.663	-9.73
308.877	145.92
309.091	33.28
309.305	57.86
309.519	4.61
309.733	-3.58
309.947	0.51
310.161	92.67
310.374	16.9
310.588	0.51
310.802	41.47
311.016	-38.4
311.23	-7.68
311.444	-44.54
311.658	45.57
311.872	88.57
312.085	80.38
312.299	94.72
312.513	41.47
312.727	64
312.941	-48.64
313.154	31.23
313.368	72.19
313.582	33.28
313.796	102.91
314.009	80.38
314.223	86.53
314.437	84.48
314.651	33.28
314.864	14.85
315.078	4.61
315.292	-1.54
315.505	20.99
315.719	-17.92
315.933	41.47
316.146	16.9
316.36	-19.97
316.573	84.48
316.787	-40.45
317.001	35.33
317.214	-1.54
317.428	-22.02
317.641	10.75
317.855	47.62
318.068	51.71
318.282	37.38
318.495	47.62
318.709	49.66
318.922	49.66
319.136	92.67
319.349	82.43
319.563	-42.5
319.776	78.33
319.99	-3.58
320.203	27.14
320.417	-7.68
320.63	68.09
320.843	152.06
321.057	31.23
321.27	4.61
321.483	45.57
321.697	66.05
321.91	51.71
322.124	-7.68
322.337	20.99
322.55	-46.59
322.763	43.52
322.977	-11.78
323.19	-5.63
323.403	4.61
323.617	100.86
323.83	92.67
324.043	39.42
324.256	53.76
324.469	6.66
324.683	119.29
324.896	12.8
325.109	64
325.322	-22.02
325.535	39.42
325.748	86.53
325.962	29.18
326.175	20.99
326.388	51.71
326.601	33.28
326.814	96.77
327.027	92.67
327.24	70.14
327.453	12.8
327.666	33.28
327.879	92.67
328.092	102.91
328.305	37.38
328.518	-22.02
328.731	43.52
328.944	-40.45
329.157	51.71
329.37	41.47
329.583	53.76
329.796	45.57
330.009	16.9
330.222	31.23
330.435	78.33
330.648	133.63
330.861	31.23
331.073	8.7
331.286	37.38
331.499	29.18
331.712	4.61
331.925	39.42
332.138	43.52
332.35	80.38
332.563	20.99
332.776	51.71
332.989	29.18
333.202	66.05
333.414	76.29
333.627	-9.73
333.84	100.86
334.053	27.14
334.265	33.28
334.478	39.42
334.691	-40.45
334.903	78.33
335.116	-67.07
335.329	27.14
335.541	64
335.754	154.11
335.966	72.19
336.179	74.24
336.392	-5.63
336.604	66.05
336.817	96.77
337.029	72.19
337.242	45.57
337.454	12.8
337.667	10.75
337.88	51.71
338.092	70.14
338.305	35.33
338.517	-9.73
338.729	100.86
338.942	18.94
339.154	10.75
339.367	35.33
339.579	2.56
339.792	37.38
340.004	59.9
340.217	45.57
340.429	39.42
340.641	2.56
340.854	12.8
341.066	-11.78
341.278	125.44
341.491	82.43
341.703	-13.82
341.915	14.85
342.128	41.47
342.34	-1.54
342.552	74.24
342.764	59.9
342.977	16.9
343.189	107.01
343.401	76.29
343.613	-13.82
343.826	4.61
344.038	14.85
344.25	84.48
344.462	45.57
344.674	111.1
344.886	45.57
345.099	47.62
345.311	66.05
345.523	-7.68
345.735	0.51
345.947	49.66
346.159	20.99
346.371	84.48
346.583	64
346.795	156.16
347.007	14.85
347.219	94.72
347.431	43.52
347.643	88.57
347.855	57.86
348.067	61.95
348.279	-50.69
348.491	68.09
348.703	51.71
348.915	111.1
349.127	-15.87
349.339	14.85
349.551	23.04
349.763	96.77
349.975	59.9
350.187	66.05
350.399	154.11
350.61	82.43
350.822	6.66
351.034	25.09
351.246	64
351.458	31.23
351.669	-1.54
351.881	100.86
352.093	86.53
352.305	51.71
352.517	8.7
352.728	49.66
352.94	4.61
353.152	107.01
353.363	31.23
353.575	68.09
353.787	84.48
353.999	10.75
354.21	27.14
354.422	41.47
354.633	47.62
354.845	6.66
355.057	70.14
355.268	57.86
355.48	27.14
355.692	80.38
355.903	59.9
356.115	6.66
356.326	76.29
356.538	125.44
356.749	61.95
356.961	115.2
357.172	-38.4
357.384	20.99
357.595	68.09
357.807	41.47
358.018	154.11
358.23	92.67
358.441	92.67
358.653	86.53
358.864	0.51
359.075	59.9
359.287	45.57
359.498	61.95
359.709	59.9
359.921	68.09
360.132	123.39
360.344	96.77
360.555	86.53
360.766	33.28
360.977	53.76
361.189	133.63
361.4	41.47
361.611	74.24
361.823	96.77
362.034	53.76
362.245	55.81
362.456	27.14
362.667	90.62
362.879	-54.78
363.09	23.04
363.301	47.62
363.512	41.47
363.723	25.09
363.935	86.53
364.146	80.38
364.357	41.47
364.568	76.29
364.779	-1.54
364.99	111.1
365.201	72.19
365.412	57.86
365.623	-3.58
365.834	90.62
366.045	61.95
366.256	23.04
366.467	33.28
366.678	6.66
366.889	94.72
367.1	68.09
367.311	86.53
367.522	53.76
367.733	47.62
367.944	86.53
368.155	35.33
368.366	8.7
368.577	100.86
368.788	80.38
368.999	6.66
369.209	47.62
369.42	72.19
369.631	76.29
369.842	51.71
370.053	121.34
370.264	84.48
370.474	70.14
370.685	113.15
370.896	45.57
371.107	139.77
371.317	57.86
371.528	-52.74
371.739	127.49
371.95	53.76
372.16	53.76
372.371	6.66
372.582	57.86
372.792	39.42
373.003	55.81
373.214	82.43
373.424	104.96
373.635	27.14
373.846	90.62
374.056	35.33
374.267	59.9
374.477	66.05
374.688	119.29
374.898	68.09
375.109	37.38
375.319	90.62
375.53	68.09
375.74	78.33
375.951	55.81
376.161	70.14
376.372	8.7
376.582	-42.5
376.793	74.24
377.003	51.71
377.214	35.33
377.424	86.53
377.635	29.18
377.845	8.7
378.055	51.71
378.266	45.57
378.476	37.38
378.686	51.71
378.897	6.66
379.107	76.29
379.317	82.43
379.528	90.62
379.738	78.33
379.948	25.09
380.158	129.53
380.369	51.71
380.579	53.76
380.789	92.67
380.999	47.62
381.21	156.16
381.42	72.19
381.63	27.14
381.84	45.57
382.05	119.29
382.261	123.39
382.471	143.87
382.681	16.9
382.891	74.24
383.101	59.9
383.311	53.76
383.521	53.76
383.731	61.95
383.941	90.62
384.151	53.76
384.361	61.95
384.571	25.09
384.781	82.43
384.991	39.42
385.201	160.25
385.411	86.53
385.621	80.38
385.831	70.14
386.041	74.24
386.251	2.56
386.461	141.82
386.671	-11.78
386.881	74.24
387.091	27.14
387.301	37.38
387.511	8.7
387.72	154.11
387.93	53.76
388.14	4.61
388.35	61.95
388.56	92.67
388.769	102.91
388.979	14.85
389.189	53.76
389.399	109.05
389.609	141.82
389.818	57.86
390.028	76.29
390.238	125.44
390.447	113.15
390.657	117.25
390.867	31.23
391.076	104.96
391.286	131.58
391.496	18.94
391.705	35.33
391.915	86.53
392.125	119.29
392.334	51.71
392.544	96.77
392.753	68.09
392.963	78.33
393.172	29.18
393.382	55.81
393.591	74.24
393.801	82.43
394.01	137.73
394.22	61.95
394.429	51.71
394.639	86.53
394.848	195.07
395.058	43.52
395.267	74.24
395.477	25.09
395.686	141.82
395.895	139.77
396.105	125.44
396.314	102.91
396.524	47.62
396.733	115.2
396.942	74.24
397.152	51.71
397.361	111.1
397.57	96.77
397.78	107.01
397.989	61.95
398.198	152.06
398.407	113.15
398.617	98.81
398.826	86.53
399.035	143.87
399.244	107.01
399.453	90.62
399.663	74.24
399.872	72.19
400.081	74.24
400.29	168.45
400.499	86.53
400.708	86.53
400.917	113.15
401.127	139.77
401.336	180.73
401.545	193.02
401.754	133.63
401.963	104.96
402.172	135.68
402.381	76.29
402.59	154.11
402.799	145.92
403.008	113.15
403.217	121.34
403.426	162.3
403.635	76.29
403.844	125.44
404.053	12.8
404.262	80.38
404.471	178.69
404.68	172.54
404.888	195.07
405.097	117.25
405.306	219.64
405.515	125.44
405.724	137.73
405.933	221.69
406.142	201.21
406.35	150.01
406.559	209.4
406.768	188.93
406.977	164.35
407.185	236.03
407.394	246.27
407.603	150.01
407.812	215.55
408.02	281.08
408.229	242.17
408.438	287.23
408.646	229.88
408.855	264.7
409.064	266.75
409.272	334.33
409.481	287.23
409.69	270.84
409.898	227.84
410.107	397.82
410.315	289.28
410.524	342.52
410.733	373.24
410.941	399.87
411.15	414.2
411.358	303.61
411.567	381.43
411.775	469.5
411.984	363
412.192	477.69
412.401	461.3
412.609	444.92
412.818	545.27
413.026	483.83
413.234	492.02
413.443	541.18
413.651	623.09
413.86	567.8
414.068	733.68
414.276	623.09
414.485	606.71
414.693	666.1
414.901	729.59
415.11	694.77
415.318	702.97
415.526	801.27
415.734	715.25
415.943	737.78
416.151	770.55
416.359	819.7
416.567	768.5
416.776	825.84
416.984	885.23
417.192	1049.07
417.4	1022.45
417.608	985.58
417.817	973.3
418.025	1018.35
418.233	1184.24
418.441	1114.61
418.649	1075.7
418.857	1268.2
419.065	1296.88
419.273	1284.59
419.481	1362.41
419.689	1423.85
419.897	1425.9
420.105	1518.06
420.313	1591.78
420.521	1561.06
420.729	1669.61
420.937	1649.13
421.145	1722.85
421.353	1763.81
421.561	2005.47
421.769	1915.36
421.977	2060.77
422.185	2081.25
422.393	2179.55
422.601	2243.04
422.809	2298.33
423.017	2257.37
423.224	2476.51
423.432	2478.55
423.64	2568.66
423.848	2726.36
424.056	2652.63
424.263	2798.04
424.471	2994.64
424.679	2875.86
424.887	3070.42
425.094	3146.19
425.302	3174.86
425.51	3318.22
425.718	3459.53
425.925	3469.77
426.133	3668.42
426.341	3705.29
426.548	3850.69
426.756	3860.93
426.964	4039.11
427.171	4301.25
427.379	4241.86
427.586	4252.1
427.794	4538.81
428.001	4667.83
428.209	5036.47
428.417	5003.7
428.624	5136.82
428.832	5190.06
429.039	5257.65
429.247	5104.05
429.454	5595.56
429.662	6074.79
429.869	5673.39
430.076	6265.25
430.284	6031.78
430.491	6091.17
430.699	6566.3
430.906	6449.57
431.114	6689.18
431.321	6805.91
431.528	7111.06
431.736	7410.06
431.943	7887.24
432.15	7569.8
432.358	7653.77
432.565	8051.08
432.772	8161.67
432.979	8425.86
433.187	8518.01
433.394	8606.08
433.601	9199.99
433.808	9384.3
434.016	9159.03
434.223	9488.75
434.43	10174.82
434.637	9808.23
434.844	10670.43
435.052	10717.53
435.259	10742.11
435.466	10926.43
435.673	10848.6
435.88	11426.13
436.087	11882.83
436.294	12149.06
436.501	11774.28
436.708	11882.83
436.915	12419.39
437.122	13115.7
437.329	12855.61
437.537	13283.64
437.743	13556.02
437.95	13281.59
438.157	14151.98
438.364	14647.58
438.571	14502.18
438.778	14584.1
438.985	16245
439.192	15278.36
439.399	15884.56
439.606	15364.37
439.813	16460.04
440.02	17725.68
440.227	16865.53
440.433	17092.86
440.64	17492.21
440.847	17463.54
441.054	17729.78
441.261	19032.29
441.467	18651.36
441.674	19024.09
441.881	19874
442.088	19734.74
442.294	19712.21
442.501	20234.44
442.708	20504.78
442.914	21377.21
443.121	22341.8
443.328	21676.21
443.534	23255.2
443.741	22263.98
443.948	22268.08
444.154	23632.02
444.361	24051.86
444.568	23720.09
444.774	23777.43
444.981	24129.68
445.187	24696.97
445.394	25884.79
445.6	25548.92
445.807	27930.71
446.013	26992.74
446.22	27682.91
446.426	28457.04
446.633	28719.18
446.839	29941.82
447.046	28301.39
447.252	30044.21
447.459	30242.87
447.665	29681.72
447.871	31125.54
448.078	32561.17
448.284	31123.49
448.491	31795.23
448.697	33488.9
448.903	33986.55
449.11	33632.25
449.316	33110.02
449.522	33732.61
449.728	34850.8
449.935	34953.19
450.141	34926.57
450.347	36014.04
450.553	34629.62
450.76	35301.35
450.966	36042.71
451.172	36038.62
451.378	36585.43
451.584	36216.79
451.791	36929.48
451.997	37048.27
452.203	37418.95
452.409	37603.27
452.615	37318.6
452.821	36063.19
453.027	35676.13
453.233	37605.31
453.44	36014.04
453.646	36579.28
453.852	36270.04
454.058	37369.8
454.264	35968.99
454.47	36906.96
454.676	35981.27
454.882	37175.24
455.088	33882.11
455.294	34850.8
455.5	35004.39
455.705	35168.23
455.911	33935.35
456.117	33210.37
456.323	32747.53
456.529	31014.95
456.735	32935.95
456.941	31621.15
457.147	31158.31
457.352	30277.68
457.558	29978.68
457.764	30122.04
457.97	29495.36
458.176	28948.55
458.381	29040.71
458.587	27488.35
458.793	27480.16
458.999	26218.61
459.204	27861.08
459.41	27244.64
459.616	25124.99
459.821	25528.44
460.027	25024.64
460.233	24754.31
460.438	23654.55
460.644	23752.85
460.85	22782.12
461.055	22188.21
461.261	22014.13
461.466	20521.16
461.672	19826.9
461.878	21268.67
462.083	20115.66
462.289	19951.82
462.494	19564.76
462.7	18661.6
462.905	18079.98
463.111	18698.47
463.316	18753.76
463.522	18387.18
463.727	18471.14
463.932	18643.17
464.138	18272.49
464.343	18118.89
464.549	17602.8
464.754	18321.64
464.959	18131.18
465.165	18090.22
465.37	17158.39
465.575	16875.77
465.781	17330.42
465.986	17494.26
466.191	17056
466.397	16800
466.602	15800.59
466.807	16462.08
467.012	16285.96
467.218	16023.82
467.423	15972.62
467.628	16179.47
467.833	16679.17
468.038	16077.07
468.244	15704.34
468.449	16556.29
468.654	16081.16
468.859	15913.23
469.064	15565.07
469.269	15198.49
469.474	15401.24
469.679	15569.17
469.885	15188.25
470.09	15300.89
470.295	15257.88
470.5	14911.77
470.705	14995.74
470.91	14836
471.115	14459.17
471.32	14692.64
471.525	14493.99
471.73	14297.38
471.935	14166.31
472.139	13711.66
472.344	13639.98
472.549	13635.89
472.754	13762.86
472.959	13377.84
473.164	13033.79
473.369	13005.11
473.574	13228.34
473.778	13318.45
473.983	13044.02
474.188	13134.14
474.393	12661.05
474.598	12521.79
474.802	12298.56
475.007	12476.74
475.212	12120.39
475.417	12038.47
475.621	12040.52
475.826	11884.87
476.031	11571.54
476.235	11696.46
476.44	11815.24
476.645	11303.25
476.849	11225.43
477.054	11395.41
477.259	11008.34
477.463	11153.75
477.668	11106.65
477.872	11045.21
478.077	10600.8
478.282	10582.37
478.486	10652
478.691	10406.24
478.895	10516.83
479.1	10383.71
479.304	10207.59
479.509	10103.14
479.713	10447.2
479.918	9972.07
480.122	9779.56
480.326	9978.22
480.531	10121.57
480.735	9918.82
480.94	9935.21
481.144	10135.91
481.348	9447.79
481.553	9597.29
481.757	9445.74
481.961	9795.95
482.166	9752.94
482.37	9738.6
482.574	9472.37
482.778	9591.15
482.983	9736.56
483.187	9523.57
483.391	9785.71
483.595	9427.31
483.8	9341.3
484.004	9587.05
484.208	9787.75
484.412	9550.19
484.616	9777.51
484.821	9703.79
485.025	9574.77
485.229	9628.01
485.433	9421.17
485.637	9675.12
485.841	9400.69
486.045	9636.2
486.249	9505.13
486.453	9388.4
486.657	9523.57
486.861	9638.25
487.065	9312.63
487.269	9335.15
487.473	9345.39
487.677	9597.29
487.881	9744.75
488.085	9277.81
488.289	9736.56
488.493	9548.14
488.697	9808.23
488.901	9359.73
489.105	9498.99
489.309	9480.56
489.512	9507.18
489.716	9566.57
489.92	9675.12
490.124	9638.25
490.328	9894.25
490.531	9498.99
490.735	9982.31
490.939	9986.41
491.143	9812.33
491.346	9703.79
491.55	10111.33
491.754	10000.74
491.958	10076.52
492.161	9992.55
492.365	10146.15
492.569	9957.74
492.772	9836.91
492.976	9910.63
493.18	10195.3
493.383	10338.66
493.587	10201.44
493.79	10393.95
493.994	10076.52
494.197	10264.93
494.401	10453.34
494.605	10490.21
494.808	10617.18
495.012	10783.07
495.215	10740.06
495.419	10776.92
495.622	10723.68
495.825	10821.98
496.029	10910.04
496.232	11219.28
496.436	11098.45
496.639	11354.45
496.843	11372.88
497.046	11534.67
497.249	11581.78
497.453	11612.49
497.656	11960.65
497.859	11852.11
498.063	12017.99
498.266	12114.25
498.469	12255.56
498.673	12409.15
498.876	12476.74
499.079	12536.13
499.282	12616
499.485	12896.57
499.689	12966.2
499.892	13175.09
500.095	12958.01
500.298	13558.07
500.501	13072.7
500.705	13693.23
500.908	13926.7
501.111	14012.71
501.314	14119.21
501.517	14522.66
501.72	14543.14
501.923	14510.37
502.126	14727.46
502.329	15030.55
502.532	14993.69
502.735	15014.17
502.938	15495.44
503.141	15481.11
503.344	15757.58
503.547	15718.67
503.75	15618.32
503.953	16283.91
504.156	16261.38
504.359	16363.78
504.562	16435.46
504.765	16689.41
504.968	16800
505.17	17297.66
505.373	17342.71
505.576	17461.49
505.779	17838.32
505.982	17690.87
506.185	18057.45
506.387	17944.81
506.59	18264.3
506.793	18690.27
506.996	18637.03
507.198	19042.53
507.401	18850.02
507.604	19388.63
507.807	19751.12
508.009	19525.85
508.212	19972.3
508.415	20347.08
508.617	20150.48
508.82	20312.27
509.022	20328.65
509.225	20836.55
509.428	20781.25
509.63	21166.27
509.833	21170.36
510.035	21758.13
510.238	21487.8
510.44	21870.77
510.643	22102.19
510.845	22511.78
511.048	22442.15
511.25	22765.73
511.453	22636.71
511.655	23529.62
511.858	23228.57
512.06	23302.3
512.262	23756.95
512.465	23552.15
512.667	24094.86
512.87	24217.74
513.072	24021.14
513.274	24889.48
513.477	25051.27
513.679	25202.82
513.881	25086.08
514.084	25475.2
514.286	25700.47
514.488	25956.47
514.69	26398.83
514.893	26550.38
515.095	26611.82
515.297	26810.47
515.499	26957.92
515.701	27365.47
515.904	27609.18
516.106	27443.29
516.308	28012.63
516.51	27963.48
516.712	28454.99
516.914	28264.53
517.116	29032.52
517.318	29179.97
517.52	28934.21
517.722	29155.4
517.925	29405.25
518.127	29718.59
518.329	29923.38
518.531	29902.9
518.733	30699.56
518.935	30906.41
519.136	30605.36
519.338	31297.57
519.54	31119.4
519.742	31541.28
519.944	31604.77
520.146	32464.91
520.348	32208.92
520.55	32215.06
520.752	32344.08
520.954	33060.87
521.155	32874.51
521.357	33284.1
521.559	33433.6
521.761	33701.89
521.963	33722.37
522.164	33800.19
522.366	34078.71
522.568	34510.83
522.77	34521.07
522.971	34934.76
523.173	34805.74
523.375	34934.76
523.576	34934.76
523.778	35375.08
523.98	35219.43
524.181	35293.16
524.383	35399.65
524.584	36128.73
524.786	36079.58
524.988	36306.9
525.189	36280.28
525.391	36413.4
525.592	36876.24
525.794	37126.09
525.995	36954.06
526.197	36847.57
526.398	37121.99
526.6	37236.68
526.801	37144.52
527.003	37619.65
527.204	37435.33
527.406	37679.04
527.607	37742.53
527.808	38098.87
528.01	37388.23
528.211	37582.79
528.412	38578.1
528.614	38141.88
528.815	38240.18
529.016	38625.2
529.218	38031.29
529.419	38604.72
529.62	38633.39
529.822	38408.12
530.023	38688.69
530.224	38272.95
530.425	38629.3
530.626	38367.16
530.828	38619.06
531.029	39131.05
531.23	38545.33
531.431	38926.25
531.632	38670.26
531.833	39196.59
532.035	38653.87
532.236	38825.9
532.437	39595.94
532.638	38731.7
532.839	38881.2
533.04	38901.68
533.241	39032.75
533.442	39620.52
533.643	39258.02
533.844	39026.6
534.045	39292.84
534.246	38862.77
534.447	39298.98
534.648	39106.48
534.849	38782.9
535.05	39157.67
535.251	39307.18
535.451	38989.74
535.652	39231.4
535.853	38944.69
536.054	39448.49
536.255	39018.41
536.456	39059.37
536.657	39163.82
536.857	39106.48
537.058	38860.72
537.259	39432.1
537.46	39176.11
537.66	39167.91
537.861	39624.61
538.062	38913.97
538.263	38995.88
538.463	39061.42
538.664	38776.75
538.865	39196.59
539.065	39090.09
539.266	38870.96
539.466	39198.63
539.667	38541.24
539.868	39552.93
540.068	38983.6
540.269	39311.27
540.469	38991.79
540.67	38614.96
540.87	38875.05
541.071	39129
541.271	39032.75
541.472	38604.72
541.672	38666.16
541.873	38746.03
542.073	38389.69
542.274	39055.28
542.474	38930.35
542.675	38868.91
542.875	39149.48
543.075	38690.74
543.276	38537.14
543.476	38827.95
543.676	38885.29
543.877	38987.69
544.077	38696.88
544.277	38791.09
544.478	38852.53
544.678	38850.48
544.878	38477.75
545.078	38576.05
545.279	38397.88
545.479	38629.3
545.679	38442.93
545.879	38510.52
546.079	38698.93
546.28	38545.33
546.48	38100.92
546.68	38504.37
546.88	38842.29
547.08	38682.55
547.28	38408.12
547.48	37838.78
547.68	38285.24
547.88	38426.55
548.081	38318.01
548.281	38186.94
548.481	38092.73
548.681	38604.72
548.881	38213.56
549.081	38123.45
549.28	38193.08
549.48	38395.83
549.68	38051.77
549.88	39122.86
550.08	37937.09
550.28	38578.1
550.48	38264.76
550.68	38442.93
550.88	38283.19
551.08	38111.16
551.279	38250.42
551.479	37767.1
551.679	37875.65
551.879	38158.27
552.079	38520.76
552.278	38131.64
552.478	38516.66
552.678	38043.58
552.878	38045.63
553.077	38004.67
553.277	38203.32
553.477	38361.01
553.676	38047.68
553.876	38037.44
554.076	37836.73
554.275	37648.32
554.475	37459.91
554.674	37771.2
554.874	38135.74
555.074	37396.42
555.273	37543.88
555.473	37978.04
555.672	37554.11
555.872	37593.03
556.071	37650.37
556.271	37826.49
556.47	37672.9
556.67	37367.75
556.869	37433.28
557.068	37455.81
557.268	37246.92
557.467	37242.82
557.667	37175.24
557.866	37515.2
558.065	37246.92
558.265	37320.65
558.464	37011.4
558.663	37451.72
558.863	36880.33
559.062	37291.97
559.261	36812.75
559.461	37377.99
559.66	36222.94
559.859	37087.18
560.058	36272.09
560.258	36927.44
560.457	36644.82
560.656	36843.47
560.855	36843.47
561.054	36929.48
561.253	36702.16
561.453	36683.73
561.652	36898.76
561.851	36939.72
562.05	36397.01
562.249	36274.13
562.448	36687.82
562.647	36433.88
562.846	36575.19
563.045	36061.15
563.244	36151.26
563.443	36945.87
563.642	36026.33
563.841	36216.79
564.04	36356.05
564.239	36487.12
564.438	35893.21
564.637	35930.08
564.836	35946.46
565.035	35850.2
565.234	35956.7
565.432	35422.18
565.631	35672.03
565.83	35739.61
566.029	35305.45
566.228	35721.18
566.427	35319.78
566.625	35557.35
566.824	35280.87
567.023	35413.99
567.222	34789.36
567.42	35651.55
567.619	35426.28
567.818	34899.95
568.016	35102.7
568.215	35143.66
568.414	35031.02
568.612	35315.69
568.811	34744.3
569.01	35014.63
569.208	34353.14
569.407	34902
569.605	34672.62
569.804	34502.64
570.002	34152.44
570.201	34793.45
570.4	34461.68
570.598	34553.84
570.797	34172.92
570.995	34609.14
571.193	33918.97
571.392	34545.65
571.59	33812.48
571.789	33951.74
571.987	33906.68
572.186	34191.35
572.384	33589.25
572.582	33777.66
572.781	34021.37
572.979	33546.24
573.177	33638.4
573.376	33519.62
573.574	33306.63
573.772	33544.19
573.971	33323.01
574.169	33368.07
574.367	32999.43
574.565	33353.73
574.763	32995.34
574.962	33050.63
575.16	33157.13
575.358	32997.38
575.556	32710.67
575.754	33120.26
575.952	32788.49
576.151	33013.77
576.349	32264.21
576.547	32634.89
576.745	32438.29
576.943	32595.98
577.141	32518.16
577.339	32540.69
577.537	32413.71
577.735	32391.19
577.933	31766.56
578.131	32399.38
578.329	31875.1
578.527	32063.51
578.725	31871
578.923	32034.84
579.121	31782.94
579.319	31848.47
579.516	31901.72
579.714	31776.8
579.912	31621.15
580.11	31512.61
580.308	31316
580.506	31068.2
580.704	31092.77
580.901	31199.27
581.099	31434.78
581.297	30771.24
581.495	30887.98
581.692	31060.01
581.89	30763.05
582.088	31051.81
582.285	30713.9
582.483	30824.49
582.681	30683.18
582.878	30752.81
583.076	30036.02
583.274	30631.98
583.471	30230.58
583.669	30273.59
583.866	30048.31
584.064	30425.14
584.262	29638.72
584.459	30183.48
584.657	29982.77
584.854	29978.68
585.052	29734.97
585.249	29681.72
585.447	29646.91
585.644	29628.48
585.841	29626.43
586.039	29624.38
586.236	29188.16
586.434	29157.44
586.631	29182.02
586.828	29372.48
587.026	29325.38
587.223	29139.01
587.42	28948.55
587.618	28696.65
587.815	28432.46
588.012	28366.93
588.21	28629.07
588.407	28721.23
588.604	28368.98
588.801	28313.68
588.999	28340.3
589.196	28373.07
589.393	28293.2
589.59	28180.56
589.787	28041.3
589.984	27779.16
590.182	27848.79
590.379	27818.07
590.576	27779.16
590.773	27643.99
590.97	27330.65
591.167	27441.25
591.364	27183.2
591.561	27418.72
591.758	27103.33
591.955	27207.78
592.152	27240.54
592.349	26935.4
592.546	27164.77
592.743	27017.32
592.94	26454.12
593.137	26968.16
593.334	26599.53
593.531	26200.18
593.727	26679.4
593.924	26730.6
594.121	26247.28
594.318	26566.76
594.515	26038.39
594.712	26394.73
594.908	26052.72
595.105	26480.75
595.302	25991.28
595.499	25983.09
595.696	25933.94
595.892	25833.59
596.089	25856.12
596.286	25901.17
596.482	25645.18
596.679	25538.68
596.876	25720.95
597.072	25348.22
597.269	25520.25
597.466	25086.08
597.662	25118.85
597.859	25358.46
598.055	25129.09
598.252	24869
598.448	25043.07
598.645	24694.92
598.841	24645.77
599.038	24690.82
599.234	24572.04
599.431	24377.48
599.627	24182.93
599.824	24569.99
600.02	24369.29
600.217	24389.77
600.413	24187.02
600.609	24158.35
600.806	23955.6
601.002	24158.35
601.198	24121.49
601.395	23543.96
601.591	23814.29
601.787	23722.13
601.984	23697.56
602.18	23656.6
602.376	23410.84
602.572	23709.85
602.769	23621.78
602.965	23257.25
603.161	23279.77
603.357	23255.2
603.553	23134.37
603.75	22948
603.946	22837.41
604.142	22595.75
604.338	22896.8
604.534	22681.77
604.73	22732.97
604.926	22356.14
605.122	22888.61
605.318	22431.91
605.514	22468.78
605.71	22124.72
605.906	22388.91
606.102	22151.34
606.298	22421.67
606.494	22186.16
606.69	22206.64
606.886	22130.86
607.082	21768.37
607.278	22251.69
607.474	21915.83
607.67	22212.78
607.866	21579.96
608.062	22005.94
608.257	21901.49
608.453	21543.1
608.649	21678.26
608.845	21340.35
609.041	21256.38
609.236	21614.77
609.432	21553.34
609.628	21461.18
609.824	21371.07
610.019	21260.48
610.215	21463.22
610.411	20785.35
610.606	21258.43
610.802	21430.46
610.998	21242.04
611.193	20910.27
611.389	20758.72
611.584	20965.57
611.78	21063.87
611.976	21164.22
612.171	21063.87
612.367	21252.28
612.562	20811.97
612.758	20719.81
612.953	20572.36
613.149	21041.34
613.344	20553.93
613.539	20955.33
613.735	20803.78
613.93	20564.17
614.126	20674.76
614.321	20725.96
614.517	20644.04
614.712	20613.32
614.907	20611.27
615.103	20390.09
615.298	20347.08
615.493	20568.26
615.688	20037.84
615.884	20435.14
616.079	19720.4
616.274	20248.78
616.47	20013.26
616.665	20330.7
616.86	20150.48
617.055	20046.03
617.25	19957.97
617.445	20312.27
617.641	19704.02
617.836	20019.41
618.031	19620.05
618.226	19857.62
618.421	19450.07
618.616	19603.67
618.811	19331.29
619.006	19472.6
619.201	19327.19
619.396	19534.04
619.591	19038.43
619.786	19435.74
619.981	19009.76
620.176	19032.29
620.371	18847.97
620.566	19187.93
620.761	18718.95
620.956	18901.22
621.151	18413.8
621.346	18688.23
621.541	18413.8
621.735	18620.64
621.93	18002.16
622.125	18039.02
622.32	17907.95
622.515	18301.16
622.709	17903.85
622.904	17774.83
623.099	17813.74
623.294	17801.46
623.488	17604.85
623.683	17686.77
623.878	17268.98
624.072	17453.3
624.267	17418.49
624.462	17277.18
624.656	17072.38
624.851	17162.49
625.046	16982.27
625.24	16847.1
625.435	16713.98
625.629	16867.58
625.824	16537.86
626.018	16496.9
626.213	16210.18
626.407	16285.96
626.602	16261.38
626.796	16185.61
626.991	16193.8
627.185	15917.33
627.38	15894.8
627.574	15833.36
627.768	15620.37
627.963	15440.15
628.157	15589.65
628.352	15536.4
628.546	15155.48
628.74	15487.25
628.935	15116.57
629.129	15257.88
629.323	14831.9
629.517	14825.76
629.712	14774.56
629.906	14940.44
630.1	14557.47
630.294	14819.61
630.489	14737.7
630.683	14371.11
630.877	14491.94
631.071	14268.71
631.265	14412.07
631.459	14131.5
631.653	14027.05
631.848	14113.06
632.042	14051.63
632.236	14072.11
632.43	13977.9
632.624	13916.46
632.818	13588.78
633.012	13713.71
633.206	13449.52
633.4	13672.75
633.594	13173.05
633.788	13289.78
633.982	13467.95
634.176	13326.64
634.369	13136.18
634.563	13230.39
634.757	13117.75
634.951	13005.11
635.145	12915
635.339	12890.43
635.533	12661.05
635.726	12728.64
635.92	12759.36
636.114	12476.74
636.308	12536.13
636.501	12632.38
636.695	12435.78
636.889	12349.76
637.083	12286.28
637.276	12067.14
637.47	12155.21
637.664	12011.85
637.857	12183.88
638.051	12015.94
638.244	11899.21
638.438	11948.36
638.632	11981.13
638.825	11723.09
639.019	11665.74
639.212	11479.38
639.406	11532.62
639.599	11583.82
639.793	11381.07
639.986	11317.59
640.18	11485.52
640.373	11276.63
640.567	11215.19
640.76	11262.29
640.954	11252.05
641.147	11155.8
641.34	10914.14
641.534	10973.53
641.727	10907.99
641.92	10867.03
642.114	10668.38
642.307	10781.02
642.5	10705.24
642.694	10359.14
642.887	10613.09
643.08	10520.93
643.273	10611.04
643.467	10377.57
643.66	10492.26
643.853	10238.31
644.046	10240.36
644.239	10205.54
644.432	10101.09
644.626	9963.88
644.819	10053.99
645.012	10082.66
645.205	10248.55
645.398	9927.02
645.591	9847.15
645.784	10004.84
645.977	9554.29
646.17	9824.62
646.363	9804.14
646.556	9646.44
646.749	9482.61
646.942	9701.74
647.135	9372.02
647.328	9494.9
647.521	9331.06
647.714	9417.07
647.907	9302.39
648.099	9290.1
648.292	9257.33
648.485	9062.77
648.678	9130.36
648.871	8843.64
649.064	8882.55
649.256	8964.47
649.449	8788.35
649.642	8837.5
649.835	8724.86
650.027	8866.17
650.22	8771.96
650.413	8534.4
650.605	8743.29
650.798	8565.12
650.991	8466.81
651.183	8429.95
651.376	8452.48
651.568	8391.04
651.761	8421.76
651.954	8448.38
652.146	8276.35
652.339	8081.8
652.531	8118.66
652.724	8210.82
652.916	7934.34
653.109	8112.52
653.301	8081.8
653.494	8122.76
653.686	7977.35
653.879	7833.99
654.071	7950.73
654.263	7707.02
654.456	7737.74
654.648	7944.58
654.84	7666.06
655.033	7674.25
655.225	7645.58
655.417	7520.65
655.61	7395.73
655.802	7362.96
655.994	7494.03
656.186	7430.54
656.379	7422.35
656.571	7500.17
656.763	7424.4
656.955	7276.94
657.148	7141.78
657.34	7141.78
657.532	7342.48
657.724	7125.4
657.916	7113.11
658.108	7082.39
658.3	6973.85
658.492	6861.21
658.684	6992.28
658.876	7000.47
659.068	6807.96
659.26	6828.44
659.452	6945.17
659.644	6789.53
659.836	6715.8
660.028	6668.7
660.22	6545.82
660.412	6805.91
660.604	6566.3
660.796	6451.61
660.988	6539.68
661.18	6480.29
661.372	6486.43
661.563	6484.38
661.755	6398.37
661.947	6422.94
662.139	6281.63
662.331	6263.2
662.522	6056.36
662.714	6396.32
662.906	6123.94
663.097	6113.7
663.289	5976.48
663.481	6220.19
663.673	6068.64
663.864	6037.92
664.056	6076.84
664.247	6021.54
664.439	5945.77
664.631	5994.92
664.822	5980.58
665.014	5884.33
665.205	5904.81
665.397	5839.27
665.588	5697.96
665.78	5869.99
665.971	5751.21
666.163	5749.16
666.354	5767.59
666.546	5577.13
666.737	5740.97
666.929	5513.64
667.12	5564.84
667.311	5595.56
667.503	5493.16
667.694	5626.28
667.885	5411.25
668.077	5364.14
668.268	5308.85
668.459	5439.92
668.651	5358
668.842	5427.63
669.033	5243.31
669.224	5271.98
669.416	5288.37
669.607	5263.79
669.798	5300.66
669.989	5134.77
670.18	5165.49
670.371	5218.74
670.563	5097.91
670.754	5140.91
670.945	5134.77
671.136	5081.52
671.327	4987.32
671.518	4852.15
671.709	5030.32
671.9	5173.68
672.091	4964.79
672.282	5052.85
672.473	4921.78
672.664	4893.11
672.855	4753.85
673.046	4719.03
673.237	4878.77
673.428	4878.77
673.619	4811.19
673.809	4778.42
674	4723.13
674.191	4651.45
674.382	4743.61
674.573	4637.11
674.764	4671.93
674.954	4596.15
675.145	4573.63
675.336	4518.33
675.527	4516.28
675.717	4571.58
675.908	4452.8
676.099	4450.75
676.289	4606.39
676.48	4563.39
676.671	4428.22
676.861	4499.9
677.052	4463.04
677.243	4297.15
677.433	4379.07
677.624	4282.81
677.814	4323.77
678.005	4413.88
678.195	4315.58
678.386	4213.18
678.576	4319.68
678.767	4299.2
678.957	4381.12
679.148	4424.12
679.338	4420.03
679.529	4223.42
679.719	4260.29
679.909	4186.56
680.1	4256.19
680.29	4190.66
680.481	4209.09
680.671	4127.17
680.861	4207.04
681.052	4235.71
681.242	4164.03
681.432	4137.41
681.622	4002.24
681.813	4104.64
682.003	4090.31
682.193	3801.54
682.383	4098.5
682.573	4037.06
682.764	4127.17
682.954	4030.91
683.144	4082.11
683.334	4127.17
683.524	3977.67
683.714	4137.41
683.904	3903.94
684.094	3873.22
684.284	3924.42
684.474	3858.89
684.664	3924.42
684.854	3856.84
685.044	3867.08
685.234	3893.7
685.424	3727.82
685.614	3746.25
685.804	3944.9
685.994	3850.69
686.184	3783.11
686.374	3807.69
686.564	3703.24
686.753	3635.66
686.943	3693
687.133	3586.51
687.323	3748.29
687.513	3623.37
687.702	3604.94
687.892	3613.13
688.082	3609.03
688.272	3760.58
688.461	3602.89
688.651	3680.71
688.841	3475.91
689.03	3615.18
689.22	3600.84
689.41	3402.19
689.599	3539.4
689.789	3475.91
689.979	3516.87
690.168	3457.48
690.358	3428.81
690.547	3439.05
690.737	3445.2
690.926	3412.43
691.116	3375.56
691.305	3441.1
691.495	3412.43
691.684	3359.18
691.874	3176.91
692.063	3330.51
692.252	3281.36
692.442	3219.92
692.631	2976.21
692.82	3203.54
693.01	3228.11
693.199	3232.21
693.388	3127.76
693.578	3056.08
693.767	3142.1
693.956	3129.81
694.146	3008.98
694.335	3256.78
694.524	3051.99
694.713	3054.03
694.902	2945.49
695.092	2986.45
695.281	2929.11
695.47	2935.25
695.659	2968.02
695.848	3047.89
696.037	2902.48
696.226	2892.24
696.415	2781.65
696.604	2828.76
696.793	2820.56
696.982	3062.23
697.171	2824.66
697.36	2939.35
697.549	2904.53
697.738	2787.8
697.927	2787.8
698.116	2777.56
698.305	2865.62
698.494	2769.37
698.683	2773.46
698.872	2822.61
699.061	2773.46
699.25	2750.93
699.438	2621.91
699.627	2728.41
699.816	2746.84
700.005	2728.41
700.193	2607.58
700.382	2705.88
700.571	2638.3
700.76	2769.37
700.948	2626.01
701.137	2621.91
701.326	2607.58
701.514	2595.29
701.703	2664.92
701.892	2585.05
702.08	2650.58
702.269	2574.81
702.457	2566.62
702.646	2550.23
702.834	2439.64
703.023	2505.18
703.212	2490.84
703.4	2611.67
703.589	2468.31
703.777	2509.27
703.965	2513.37
704.154	2517.47
704.342	2525.66
704.531	2490.84
704.719	2363.87
704.907	2515.42
705.096	2585.05
705.284	2423.26
705.472	2415.07
705.661	2560.47
705.849	2415.07
706.037	2490.84
706.226	2392.54
706.414	2435.55
706.602	2494.94
706.79	2384.35
706.979	2470.36
707.167	2378.2
707.355	2429.4
707.543	2474.46
707.731	2388.44
707.919	2327
708.107	2386.4
708.296	2363.87
708.484	2406.88
708.672	2417.12
708.86	2392.54
709.048	2400.73
709.236	2261.47
709.424	2458.07
709.612	2359.77
709.8	2306.52
709.988	2292.19
710.176	2220.51
710.364	2374.11
710.551	2329.05
710.739	2263.52
710.927	2304.48
711.115	2322.91
711.303	2380.25
711.491	2327
711.679	2413.02
711.866	2306.52
712.054	2271.71
712.242	2339.29
712.43	2294.24
712.617	2312.67
712.805	2380.25
712.993	2290.14
713.181	2269.66
713.368	2333.15
713.556	2349.53
713.744	2329.05
713.931	2394.59
714.119	2249.18
714.306	2327
714.494	2304.48
714.682	2210.27
714.869	2255.33
715.057	2382.3
715.244	2208.22
715.432	2363.87
715.619	2204.13
715.807	2259.42
715.994	2419.16
716.182	2195.93
716.369	2267.61
716.556	2310.62
716.744	2331.1
716.931	2275.81
717.119	2216.41
717.306	2392.54
717.493	2275.81
717.681	2212.32
717.868	2322.91
718.055	2275.81
718.242	2300.38
718.43	2251.23
718.617	2408.92
718.804	2372.06
718.991	2294.24
719.179	2222.56
719.366	2224.61
719.553	2333.15
719.74	2228.7
719.927	2361.82
720.114	2171.36
720.301	2310.62
720.488	2226.65
720.676	2286.05
720.863	2273.76
721.05	2339.29
721.237	2152.93
721.424	2265.57
721.611	2361.82
721.798	2238.94
721.985	2152.93
722.172	2224.61
722.358	2302.43
722.545	2355.68
722.732	2167.26
722.919	2343.39
723.106	2234.85
723.293	2292.19
723.48	2216.41
723.667	2228.7
723.853	2374.11
724.04	2343.39
724.227	2230.75
724.414	2230.75
724.6	2320.86
724.787	2265.57
724.974	2390.49
725.161	2267.61
725.347	2271.71
725.534	2281.95
725.72	2304.48
725.907	2195.93
726.094	2300.38
726.28	2251.23
726.467	2296.28
726.653	2359.77
726.84	2279.9
727.027	2281.95
727.213	2263.52
727.4	2310.62
727.586	2238.94
727.773	2146.78
727.959	2341.34
728.145	2292.19
728.332	2361.82
728.518	2249.18
728.705	2318.81
728.891	2347.48
729.077	2298.33
729.264	2378.2
729.45	2394.59
729.636	2445.79
729.823	2355.68
730.009	2427.35
730.195	2310.62
730.382	2392.54
730.568	2314.72
730.754	2349.53
730.94	2404.83
731.126	2423.26
731.313	2433.5
731.499	2378.2
731.685	2386.4
731.871	2413.02
732.057	2339.29
732.243	2333.15
732.429	2378.2
732.615	2456.03
732.801	2308.57
732.987	2335.2
733.173	2374.11
733.359	2355.68
733.545	2386.4
733.731	2372.06
733.917	2384.35
734.103	2544.09
734.289	2464.22
734.475	2370.01
734.661	2523.61
734.847	2445.79
735.033	2431.45
735.219	2427.35
735.404	2458.07
735.59	2443.74
735.776	2372.06
735.962	2456.03
736.148	2499.03
736.333	2517.47
736.519	2363.87
736.705	2548.19
736.89	2343.39
737.076	2443.74
737.262	2404.83
737.447	2460.12
737.633	2357.72
737.819	2378.2
738.004	2456.03
738.19	2329.05
738.375	2468.31
738.561	2617.82
738.747	2443.74
738.932	2482.65
739.118	2361.82
739.303	2361.82
739.489	2490.84
739.674	2439.64
739.859	2515.42
740.045	2476.51
740.23	2415.07
740.416	2329.05
740.601	2464.22
740.786	2394.59
740.972	2439.64
741.157	2560.47
741.342	2343.39
741.528	2480.6
741.713	2439.64
741.898	2423.26
742.084	2402.78
742.269	2382.3
742.454	2466.27
742.639	2492.89
742.824	2417.12
743.01	2496.99
743.195	2523.61
743.38	2398.68
743.565	2451.93
743.75	2339.29
743.935	2386.4
744.12	2492.89
744.305	2277.85
744.49	2402.78
744.675	2294.24
744.86	2306.52
745.045	2388.44
745.23	2468.31
745.415	2464.22
745.6	2458.07
745.785	2376.16
745.97	2417.12
746.155	2433.5
746.34	2382.3
746.525	2382.3
746.71	2304.48
746.895	2310.62
747.079	2224.61
747.264	2175.45
747.449	2251.23
747.634	2300.38
747.819	2234.85
748.003	2314.72
748.188	2189.79
748.373	2298.33
748.557	2298.33
748.742	2214.37
748.927	2193.89
749.111	2314.72
749.296	2171.36
749.481	2394.59
749.665	2140.64
749.85	2187.74
750.034	2259.42
750.219	2095.58
750.404	2124.26
750.588	2193.89
750.773	2124.26
750.957	2265.57
751.141	2077.15
751.326	2140.64
751.51	2034.14
751.695	2011.62
751.879	2056.67
752.064	2183.65
752.248	1907.17
752.432	2099.68
752.617	1960.42
752.801	2007.52
752.985	1972.71
753.17	1874.4
753.354	1937.89
753.538	2042.34
753.722	1962.47
753.907	1997.28
754.091	1909.22
754.275	1855.97
754.459	1935.84
754.643	1786.34
754.828	1925.6
755.012	1956.32
755.196	1954.27
755.38	1786.34
755.564	1827.3
755.748	1896.93
755.932	1753.57
756.116	1878.5
756.3	1749.48
756.484	1735.14
756.668	1872.36
756.852	1763.81
757.036	1700.33
757.22	1767.91
757.404	1819.11
757.588	1780.2
757.772	1739.24
757.956	1726.95
758.14	1696.23
758.323	1673.7
758.507	1606.12
758.691	1710.57
758.875	1622.5
759.059	1657.32
759.242	1575.4
759.426	1632.74
759.61	1659.37
759.794	1610.22
759.977	1606.12
760.161	1655.27
760.345	1589.74
760.528	1524.2
760.712	1700.33
760.895	1507.82
761.079	1489.39
761.263	1567.21
761.446	1520.1
761.63	1624.55
761.813	1571.3
761.997	1499.63
762.18	1534.44
762.364	1616.36
762.547	1501.67
762.731	1450.47
762.914	1513.96
763.098	1407.47
763.281	1554.92
763.464	1362.41
763.648	1415.66
763.831	1499.63
764.015	1460.71
764.198	1464.81
764.381	1487.34
764.564	1425.9
764.748	1495.53
764.931	1391.08
765.114	1432.04
765.297	1341.93
765.481	1415.66
765.664	1423.85
765.847	1470.95
766.03	1434.09
766.213	1386.99
766.397	1386.99
766.58	1354.22
766.763	1413.61
766.946	1429.99
767.129	1395.18
767.312	1343.98
767.495	1319.4
767.678	1432.04
767.861	1393.13
768.044	1311.21
768.227	1407.47
768.41	1333.74
768.593	1274.35
768.776	1239.53
768.959	1255.92
769.142	1335.79
769.324	1262.06
769.507	1313.26
769.69	1255.92
769.873	1196.53
770.056	1313.26
770.239	1268.2
770.421	1262.06
770.604	1356.27
770.787	1188.33
770.97	1298.92
771.152	1176.05
771.335	1268.2
771.518	1157.61
771.7	1262.06
771.883	1255.92
772.066	1309.16
772.248	1143.28
772.431	1268.2
772.613	1137.13
772.796	1198.57
772.978	1126.89
773.161	1268.2
773.343	1227.25
773.526	1249.77
773.708	1137.13
773.891	1038.83
774.073	1141.23
774.256	1073.65
774.438	1214.96
774.621	1032.69
774.803	1133.04
774.985	993.78
775.168	1034.74
775.35	1157.61
775.532	1057.26
775.715	1044.98
775.897	1122.8
776.079	993.78
776.261	1077.74
776.444	1040.88
776.626	1044.98
776.808	1020.4
776.99	1026.54
777.173	971.25
777.355	991.73
777.537	963.06
777.719	944.63
777.901	1018.35
778.083	883.19
778.265	989.68
778.447	1055.22
778.629	920.05
778.811	909.81
778.993	979.44
779.175	940.53
779.357	948.72
779.539	870.9
779.721	838.13
779.903	887.28
780.085	897.52
780.267	864.75
780.449	918
780.631	850.42
780.812	838.13
780.994	756.21
781.176	817.65
781.358	854.51
781.54	842.23
781.721	766.45
781.903	829.94
782.085	852.47
782.267	819.7
782.448	721.4
782.63	793.08
782.812	860.66
782.993	727.54
783.175	805.36
783.357	758.26
783.538	770.55
783.72	690.68
783.901	803.32
784.083	688.63
784.264	739.83
784.446	727.54
784.627	659.96
784.809	770.55
784.99	705.01
785.172	662.01
785.353	686.58
785.535	715.25
785.716	702.97
785.897	664.05
786.079	705.01
786.26	709.11
786.441	729.59
786.623	610.81
786.804	600.57
786.985	616.95
787.167	635.38
787.348	586.23
787.529	604.66
787.71	629.24
787.891	623.09
788.073	594.42
788.254	578.04
788.435	637.43
788.616	655.86
788.797	610.81
788.978	598.52
789.159	524.79
789.34	631.29
789.522	422.39
789.703	555.51
789.884	539.13
790.065	518.65
790.246	645.62
790.427	489.98
790.607	553.46
790.788	496.12
790.969	608.76
791.15	584.18
791.331	500.22
791.512	573.94
791.693	502.26
791.874	580.09
792.054	535.03
792.235	506.36
792.416	451.07
792.597	432.63
792.778	498.17
792.958	459.26
793.139	500.22
793.32	518.65
793.5	444.92
793.681	594.42
793.862	463.35
794.042	520.7
794.223	442.87
794.404	451.07
794.584	387.58
794.765	489.98
794.945	500.22
795.126	459.26
795.306	459.26
795.487	440.83
795.667	397.82
795.848	432.63
796.028	442.87
796.209	410.11
796.389	473.59
796.57	377.34
796.75	401.91
796.93	428.54
797.111	354.81
797.291	393.72
797.471	453.11
797.652	397.82
797.832	406.01
798.012	408.06
798.192	326.14
798.373	305.66
798.553	446.97
798.733	326.14
798.913	330.23
799.093	317.95
799.274	391.67
799.454	459.26
799.634	393.72
799.814	385.53
799.994	350.71
800.174	369.15
800.354	406.01
800.534	346.62
800.714	295.42
800.894	326.14
801.074	242.17
801.254	360.95
801.434	434.68
801.614	324.09
801.794	293.37
801.974	944.63
802.154	238.08
802.334	391.67
802.514	276.99
802.693	336.38
802.873	293.37
803.053	432.63
803.233	340.47
803.413	342.52
803.592	315.9
803.772	383.48
803.952	317.95
804.131	295.42
804.311	348.67
804.491	315.9
804.67	313.85
804.85	317.95
805.03	264.7
805.209	342.52
805.389	242.17
805.568	248.32
805.748	324.09
805.928	317.95
806.107	283.13
806.287	291.32
806.466	309.76
806.646	393.72
806.825	264.7
807.004	211.45
807.184	383.48
807.363	276.99
807.543	250.36
807.722	264.7
807.901	242.17
808.081	285.18
808.26	252.41
808.439	205.31
808.619	332.28
808.798	256.51
808.977	240.12
809.156	326.14
809.336	213.5
809.515	256.51
809.694	233.98
809.873	264.7
810.052	264.7
810.231	328.19
810.411	262.65
810.59	268.8
810.769	291.32
810.948	221.69
811.127	182.78
811.306	297.47
811.485	213.5
811.664	256.51
811.843	268.8
812.022	260.6
812.201	225.79
812.38	219.64
812.559	254.46
812.737	289.28
812.916	219.64
813.095	213.5
813.274	221.69
813.453	244.22
813.632	229.88
813.811	244.22
813.989	184.83
814.168	248.32
814.347	174.59
814.526	205.31
814.704	197.12
814.883	205.31
815.062	207.36
815.24	209.4
815.419	190.97
815.598	227.84
815.776	199.16
815.955	174.59
816.133	193.02
816.312	143.87
816.49	170.49
816.669	264.7
816.847	172.54
817.026	162.3
817.204	231.93
817.383	205.31
817.561	125.44
817.74	211.45
817.918	211.45
818.097	160.25
818.275	236.03
818.453	209.4
818.632	178.69
818.81	125.44
818.988	172.54
819.167	207.36
819.345	174.59
819.523	160.25
819.701	145.92
819.879	229.88
820.058	195.07
820.236	233.98
820.414	139.77
820.592	141.82
820.77	127.49
820.948	135.68
821.127	158.21
821.305	145.92
821.483	129.53
821.661	158.21
821.839	96.77
822.017	150.01
822.195	119.29
822.373	102.91
822.551	145.92
822.729	223.74
822.907	262.65
823.085	215.55
823.262	113.15
823.44	113.15
823.618	137.73
823.796	164.35
823.974	172.54
824.152	139.77
824.329	168.45
824.507	100.86
824.685	121.34
824.863	119.29
825.04	150.01
825.218	137.73
825.396	190.97
825.574	147.97
825.751	152.06
825.929	137.73
826.107	31.23
826.284	164.35
826.462	113.15
826.639	104.96
826.817	100.86
826.994	100.86
827.172	123.39
827.349	188.93
827.527	115.2
827.704	135.68
827.882	199.16
828.059	68.09
828.237	156.16
828.414	213.5
828.591	166.4
828.769	115.2
828.946	139.77
829.124	199.16
829.301	137.73
829.478	143.87
829.655	92.67
829.833	111.1
830.01	129.53
830.187	96.77
830.364	156.16
830.542	121.34
830.719	31.23
830.896	152.06
831.073	154.11
831.25	127.49
831.427	59.9
831.604	127.49
831.782	92.67
831.959	119.29
832.136	145.92
832.313	74.24
832.49	43.52
832.667	113.15
832.844	84.48
833.021	111.1
833.198	137.73
833.374	113.15
833.551	31.23
833.728	145.92
833.905	88.57
834.082	109.05
834.259	111.1
834.436	92.67
834.612	94.72
834.789	123.39
834.966	104.96
835.143	131.58
835.319	98.81
835.496	90.62
835.673	113.15
835.85	90.62
836.026	156.16
836.203	119.29
836.38	0.51
836.556	117.25
836.733	41.47
836.909	125.44
837.086	98.81
837.262	88.57
837.439	68.09
837.616	113.15
837.792	43.52
837.968	96.77
838.145	92.67
838.321	72.19
838.498	107.01
838.674	160.25
838.851	4.61
839.027	57.86
839.203	55.81
839.38	166.4
839.556	59.9
839.732	68.09
839.909	137.73
840.085	43.52
840.261	23.04
840.437	45.57
840.614	90.62
840.79	100.86
840.966	143.87
841.142	57.86
841.318	51.71
841.494	127.49
841.671	172.54
841.847	76.29
842.023	76.29
842.199	107.01
842.375	102.91
842.551	53.76
842.727	43.52
842.903	68.09
843.079	16.9
843.255	131.58
843.431	150.01
843.607	96.77
843.783	31.23
843.959	20.99
844.134	94.72
844.31	111.1
844.486	78.33
844.662	98.81
844.838	20.99
845.013	51.71
845.189	127.49
845.365	-24.06
845.541	107.01
845.716	-24.06
845.892	156.16
846.068	98.81
846.244	55.81
846.419	121.34
846.595	68.09
846.77	100.86
846.946	96.77
847.122	64
847.297	47.62
847.473	61.95
847.648	6.66
847.824	104.96
847.999	49.66
848.175	70.14
848.35	127.49
848.526	94.72
848.701	113.15
848.876	90.62
849.052	100.86
849.227	49.66
849.403	27.14
849.578	27.14
849.753	80.38
849.929	137.73
850.104	43.52
850.279	109.05
850.454	121.34
850.63	90.62
850.805	76.29
850.98	25.09
851.155	29.18
851.33	96.77
851.505	39.42
851.681	98.81
851.856	84.48
852.031	92.67
852.206	88.57
852.381	35.33
852.556	-11.78
852.731	2.56
852.906	113.15
853.081	51.71
853.256	68.09
853.431	49.66
853.606	25.09
853.781	25.09
853.956	2.56
854.131	-5.63
854.305	45.57
854.48	78.33
854.655	-11.78
854.83	88.57
855.005	59.9
855.18	64
855.354	39.42
855.529	111.1
855.704	33.28
855.879	0.51
856.053	-3.58
856.228	57.86
856.403	18.94
856.577	70.14
856.752	94.72
856.926	55.81
857.101	64
857.276	-13.82
857.45	23.04
857.625	72.19
857.799	72.19
857.974	25.09
858.148	20.99
858.323	61.95
858.497	23.04
858.672	35.33
858.846	-15.87
859.02	78.33
859.195	12.8
859.369	29.18
859.543	66.05
859.718	-36.35
859.892	6.66
860.066	45.57
860.241	31.23
860.415	41.47
860.589	23.04
860.763	31.23
860.938	33.28
861.112	53.76
861.286	10.75
861.46	-7.68
861.634	-3.58
861.808	43.52
861.982	80.38
862.157	29.18
862.331	-71.17
862.505	-32.26
862.679	4.61
862.853	-44.54
863.027	82.43
863.201	2.56
863.375	18.94
863.549	-3.58
863.722	102.91
863.896	143.87
864.07	18.94
864.244	74.24
864.418	-7.68
864.592	-17.92
864.766	8.7
864.939	61.95
865.113	-3.58
865.287	-5.63
865.461	29.18
865.634	-1.54
865.808	27.14
865.982	-42.5
866.156	51.71
866.329	27.14
866.503	25.09
866.676	16.9
866.85	47.62
867.024	-13.82
867.197	64
867.371	18.94
867.544	84.48
867.718	-1.54
867.891	88.57
868.065	14.85
868.238	68.09
868.412	37.38
868.585	-9.73
868.759	35.33
868.932	8.7
869.105	-9.73
869.279	57.86
869.452	29.18
869.625	72.19
869.799	51.71
869.972	35.33
870.145	-9.73
870.319	29.18
870.492	12.8
870.665	6.66
870.838	-3.58
871.011	12.8
871.185	76.29
871.358	0.51
871.531	16.9
871.704	27.14
871.877	39.42
872.05	-7.68
872.223	14.85
872.396	31.23
872.569	80.38
872.742	-97.79
872.915	4.61
873.088	2.56
873.261	14.85
873.434	18.94
873.607	-3.58
873.78	4.61
873.953	12.8
874.126	16.9
874.299	78.33
874.471	4.61
874.644	-24.06
874.817	45.57
874.99	74.24
875.163	12.8
875.335	37.38
875.508	35.33
875.681	55.81
875.853	-22.02
876.026	-22.02
876.199	18.94
876.371	-13.82
876.544	0.51
876.717	43.52
876.889	84.48
877.062	-15.87
877.234	-7.68
877.407	61.95
877.579	66.05
877.752	-22.02
877.924	43.52
878.097	76.29
878.269	10.75
878.442	23.04
878.614	43.52
878.786	35.33
878.959	12.8
879.131	4.61
879.303	-58.88
879.476	-36.35
879.648	8.7
879.82	23.04
879.993	-32.26
880.165	0.51
880.337	27.14
880.509	20.99
880.681	27.14
880.854	4.61
881.026	43.52
881.198	55.81
881.37	27.14
881.542	16.9
881.714	61.95
881.886	-3.58
882.058	-5.63
882.23	14.85
882.402	35.33
882.574	-5.63
882.746	0.51
882.918	8.7
883.09	49.66
883.262	4.61
883.434	33.28
883.606	-56.83
883.778	-40.45
883.95	109.05
884.122	25.09
884.293	49.66
884.465	6.66
884.637	74.24
884.809	55.81
884.98	14.85
885.152	61.95
885.324	96.77
885.496	41.47
885.667	8.7
885.839	-24.06
886.011	41.47
886.182	59.9
886.354	4.61
886.525	55.81
886.697	80.38
886.869	-15.87
887.04	68.09
887.212	104.96
887.383	53.76
887.555	66.05
887.726	31.23
887.897	-1.54
888.069	-15.87
888.24	104.96
888.412	20.99
888.583	31.23
888.754	51.71
888.926	-9.73
889.097	29.18
889.268	-26.11
889.44	2.56
889.611	6.66
889.782	-50.69
889.953	45.57
890.125	-24.06
890.296	-30.21
890.467	-22.02
890.638	-13.82
890.809	-67.07
890.98	-5.63
891.151	80.38
891.323	61.95
891.494	20.99
891.665	6.66
891.836	27.14
892.007	-3.58
892.178	70.14
892.349	-34.3
892.52	55.81
892.691	23.04
892.862	25.09
893.032	-24.06
893.203	8.7
893.374	-46.59
893.545	-13.82
893.716	-50.69
893.887	0.51
894.057	-40.45
894.228	12.8
894.399	-9.73
894.57	-7.68
894.74	8.7
894.911	45.57
895.082	16.9
895.253	-5.63
895.423	41.47
895.594	23.04
895.764	-32.26
895.935	-19.97
896.106	16.9
896.276	20.99
896.447	-19.97
896.617	-17.92
896.788	39.42
896.958	-3.58
897.129	10.75
897.299	10.75
897.47	2.56
897.64	-60.93
897.81	33.28
897.981	2.56
898.151	18.94
898.322	45.57
898.492	-11.78
898.662	-42.5
898.832	-36.35
899.003	2.56
899.173	-24.06
899.343	80.38
899.513	-71.17
