Data from USB4F104151__66__12-42-10-878.txt Node

Date: Fri Mar 14 12:42:10 EDT 2025
User: louis
Spectrometer: USB4F10415
Trigger mode: 4
Integration Time (sec): 3.000000E-2
Scans to average: 1
Electric dark correction enabled: true
Nonlinearity correction enabled: false
Boxcar width: 0
XAxis mode: Wavelengths
Number of Pixels in Spectrum: 3648
>>>>>Begin Spectral Data<<<<<
178.204	-128.68
178.424	-128.68
178.644	-128.68
178.864	-202.41
179.084	-116.39
179.304	-38.57
179.524	45.4
179.744	-85.67
179.964	53.59
180.184	-44.71
180.404	41.3
180.624	-48.81
180.844	72.02
181.064	-3.75
181.283	-50.86
181.503	8.53
181.723	51.54
181.943	-77.48
182.163	53.59
182.383	24.92
182.602	-32.43
182.822	0.34
183.042	39.25
183.262	-13.99
183.482	-32.43
183.701	4.44
183.921	55.64
184.141	-3.75
184.361	88.4
184.58	18.77
184.8	-16.04
185.02	-75.43
185.239	84.31
185.459	33.11
185.679	16.73
185.898	-40.62
186.118	67.92
186.338	-28.33
186.557	-48.81
186.777	-11.95
186.997	22.87
187.216	24.92
187.436	131.41
187.655	16.73
187.875	92.5
188.095	22.87
188.314	69.97
188.534	106.84
188.753	18.77
188.973	10.58
189.192	76.12
189.412	20.82
189.631	24.92
189.851	18.77
190.07	22.87
190.29	-5.8
190.509	26.96
190.729	4.44
190.948	110.93
191.168	76.12
191.387	-16.04
191.607	-73.39
191.826	31.06
192.045	-30.38
192.265	-46.76
192.484	51.54
192.704	-11.95
192.923	-85.67
193.142	108.88
193.362	18.77
193.581	102.74
193.8	-28.33
194.02	72.02
194.239	110.93
194.458	16.73
194.678	45.4
194.897	0.34
195.116	12.63
195.335	33.11
195.555	67.92
195.774	-61.1
195.993	-9.9
196.212	26.96
196.432	-24.23
196.651	16.73
196.87	26.96
197.089	106.84
197.308	45.4
197.528	-26.28
197.747	-59.05
197.966	20.82
198.185	31.06
198.404	12.63
198.623	22.87
198.842	49.49
199.062	47.44
199.281	74.07
199.5	-11.95
199.719	6.49
199.938	53.59
200.157	22.87
200.376	59.73
200.595	-3.75
200.814	-40.62
201.033	-36.52
201.252	90.45
201.471	24.92
201.69	35.16
201.909	69.97
202.128	80.21
202.347	6.49
202.566	4.44
202.785	-18.09
203.004	-5.8
203.223	67.92
203.442	41.3
203.661	47.44
203.879	53.59
204.098	72.02
204.317	-22.19
204.536	35.16
204.755	39.25
204.974	51.54
205.193	74.07
205.411	82.26
205.63	43.35
205.849	8.53
206.068	72.02
206.287	4.44
206.505	0.34
206.724	24.92
206.943	55.64
207.162	-16.04
207.381	86.36
207.599	16.73
207.818	59.73
208.037	-22.19
208.255	-7.85
208.474	-7.85
208.693	10.58
208.911	39.25
209.13	69.97
209.349	100.69
209.567	45.4
209.786	-9.9
210.005	55.64
210.223	14.68
210.442	-50.86
210.661	22.87
210.879	74.07
211.098	55.64
211.316	43.35
211.535	129.36
211.753	-40.62
211.972	14.68
212.191	-36.52
212.409	12.63
212.628	14.68
212.846	72.02
213.065	43.35
213.283	125.27
213.502	-13.99
213.72	16.73
213.938	51.54
214.157	18.77
214.375	127.32
214.594	69.97
214.812	72.02
215.031	18.77
215.249	4.44
215.467	35.16
215.686	-83.63
215.904	59.73
216.122	-1.71
216.341	61.78
216.559	78.16
216.778	8.53
216.996	92.5
217.214	45.4
217.432	0.34
217.651	14.68
217.869	41.3
218.087	31.06
218.306	4.44
218.524	35.16
218.742	-7.85
218.96	57.68
219.179	10.58
219.397	-36.52
219.615	67.92
219.833	104.79
220.051	-11.95
220.27	72.02
220.488	125.27
220.706	65.88
220.924	10.58
221.142	106.84
221.36	43.35
221.578	10.58
221.796	61.78
222.015	47.44
222.233	29.01
222.451	16.73
222.669	37.2
222.887	63.83
223.105	0.34
223.323	37.2
223.541	-1.71
223.759	55.64
223.977	49.49
224.195	72.02
224.413	35.16
224.631	18.77
224.849	72.02
225.067	106.84
225.285	-32.43
225.503	-69.29
225.721	-91.82
225.939	49.49
226.157	47.44
226.375	55.64
226.592	-9.9
226.81	86.36
227.028	76.12
227.246	88.4
227.464	16.73
227.682	22.87
227.9	24.92
228.117	47.44
228.335	0.34
228.553	8.53
228.771	84.31
228.989	-44.71
229.206	39.25
229.424	24.92
229.642	35.16
229.86	0.34
230.077	119.12
230.295	80.21
230.513	-1.71
230.731	57.68
230.948	100.69
231.166	45.4
231.384	59.73
231.601	14.68
231.819	139.6
232.037	55.64
232.254	110.93
232.472	-7.85
232.689	57.68
232.907	102.74
233.125	53.59
233.342	72.02
233.56	39.25
233.777	74.07
233.995	10.58
234.213	35.16
234.43	-24.23
234.648	80.21
234.865	39.25
235.083	0.34
235.3	-42.67
235.518	80.21
235.735	84.31
235.953	121.17
236.17	0.34
236.388	18.77
236.605	35.16
236.822	16.73
237.04	39.25
237.257	12.63
237.475	-24.23
237.692	39.25
237.909	84.31
238.127	-65.19
238.344	8.53
238.562	65.88
238.779	47.44
238.996	-1.71
239.214	33.11
239.431	35.16
239.648	45.4
239.865	31.06
240.083	-40.62
240.3	-48.81
240.517	24.92
240.735	14.68
240.952	39.25
241.169	82.26
241.386	74.07
241.603	-13.99
241.821	-1.71
242.038	6.49
242.255	59.73
242.472	4.44
242.689	-16.04
242.907	108.88
243.124	92.5
243.341	108.88
243.558	-30.38
243.775	-13.99
243.992	39.25
244.209	61.78
244.426	49.49
244.643	74.07
244.86	26.96
245.078	57.68
245.295	22.87
245.512	100.69
245.729	-46.76
245.946	14.68
246.163	65.88
246.38	76.12
246.597	80.21
246.814	29.01
247.031	76.12
247.248	-18.09
247.464	26.96
247.681	65.88
247.898	39.25
248.115	65.88
248.332	-38.57
248.549	26.96
248.766	61.78
248.983	33.11
249.2	74.07
249.417	55.64
249.633	57.68
249.85	16.73
250.067	-11.95
250.284	26.96
250.501	108.88
250.717	-16.04
250.934	8.53
251.151	51.54
251.368	22.87
251.585	80.21
251.801	74.07
252.018	-11.95
252.235	61.78
252.451	0.34
252.668	-13.99
252.885	63.83
253.102	-16.04
253.318	65.88
253.535	-20.14
253.752	-22.19
253.968	-26.28
254.185	6.49
254.401	33.11
254.618	37.2
254.835	61.78
255.051	106.84
255.268	67.92
255.484	-9.9
255.701	20.82
255.917	78.16
256.134	-71.34
256.351	49.49
256.567	14.68
256.784	47.44
257	-59.05
257.217	41.3
257.433	63.83
257.65	76.12
257.866	10.58
258.082	-26.28
258.299	49.49
258.515	33.11
258.732	82.26
258.948	90.45
259.165	47.44
259.381	-52.91
259.597	82.26
259.814	20.82
260.03	57.68
260.246	14.68
260.463	41.3
260.679	139.6
260.895	0.34
261.112	115.03
261.328	8.53
261.544	-28.33
261.761	41.3
261.977	33.11
262.193	-32.43
262.409	39.25
262.626	0.34
262.842	96.6
263.058	8.53
263.274	47.44
263.49	0.34
263.707	104.79
263.923	82.26
264.139	-13.99
264.355	76.12
264.571	104.79
264.787	29.01
265.004	49.49
265.22	65.88
265.436	-57
265.652	14.68
265.868	31.06
266.084	12.63
266.3	49.49
266.516	-54.95
266.732	74.07
266.948	24.92
267.164	35.16
267.38	96.6
267.596	53.59
267.812	39.25
268.028	33.11
268.244	94.55
268.46	61.78
268.676	49.49
268.892	33.11
269.108	102.74
269.324	33.11
269.54	-36.52
269.756	110.93
269.972	-5.8
270.188	76.12
270.403	24.92
270.619	10.58
270.835	57.68
271.051	117.08
271.267	43.35
271.483	-18.09
271.698	123.22
271.914	-24.23
272.13	57.68
272.346	94.55
272.562	-16.04
272.777	-1.71
272.993	-5.8
273.209	14.68
273.425	8.53
273.64	63.83
273.856	80.21
274.072	39.25
274.287	24.92
274.503	24.92
274.719	22.87
274.934	100.69
275.15	-3.75
275.366	76.12
275.581	-5.8
275.797	53.59
276.012	123.22
276.228	-26.28
276.444	26.96
276.659	69.97
276.875	39.25
277.09	-9.9
277.306	35.16
277.521	14.68
277.737	-75.43
277.952	88.4
278.168	41.3
278.383	72.02
278.599	18.77
278.814	-24.23
279.03	2.39
279.245	82.26
279.461	-44.71
279.676	49.49
279.892	-91.82
280.107	-54.95
280.322	8.53
280.538	-9.9
280.753	0.34
280.969	14.68
281.184	26.96
281.399	86.36
281.615	-42.67
281.83	20.82
282.045	16.73
282.26	10.58
282.476	53.59
282.691	61.78
282.906	63.83
283.122	63.83
283.337	31.06
283.552	80.21
283.767	-3.75
283.983	88.4
284.198	12.63
284.413	100.69
284.628	-9.9
284.843	53.59
285.058	8.53
285.274	47.44
285.489	14.68
285.704	74.07
285.919	35.16
286.134	14.68
286.349	51.54
286.564	43.35
286.779	16.73
286.995	-1.71
287.21	22.87
287.425	-34.47
287.64	0.34
287.855	61.78
288.07	-44.71
288.285	98.64
288.5	84.31
288.715	63.83
288.93	0.34
289.145	69.97
289.36	80.21
289.575	0.34
289.79	-13.99
290.004	69.97
290.219	63.83
290.434	-32.43
290.649	18.77
290.864	43.35
291.079	12.63
291.294	37.2
291.509	96.6
291.724	0.34
291.938	0.34
292.153	16.73
292.368	33.11
292.583	37.2
292.798	12.63
293.012	39.25
293.227	63.83
293.442	-1.71
293.657	-52.91
293.871	49.49
294.086	67.92
294.301	55.64
294.516	76.12
294.73	24.92
294.945	-42.67
295.16	45.4
295.374	39.25
295.589	31.06
295.804	8.53
296.018	55.64
296.233	72.02
296.447	16.73
296.662	-11.95
296.877	74.07
297.091	29.01
297.306	10.58
297.52	78.16
297.735	96.6
297.949	92.5
298.164	104.79
298.378	33.11
298.593	18.77
298.807	12.63
299.022	26.96
299.236	112.98
299.451	59.73
299.665	39.25
299.88	47.44
300.094	8.53
300.309	76.12
300.523	10.58
300.737	117.08
300.952	76.12
301.166	84.31
301.381	-22.19
301.595	4.44
301.809	-9.9
302.024	-54.95
302.238	0.34
302.452	6.49
302.667	-9.9
302.881	0.34
303.095	26.96
303.309	-36.52
303.524	0.34
303.738	22.87
303.952	-50.86
304.166	76.12
304.381	51.54
304.595	160.08
304.809	8.53
305.023	18.77
305.237	29.01
305.452	55.64
305.666	26.96
305.88	6.49
306.094	78.16
306.308	55.64
306.522	72.02
306.736	16.73
306.95	-3.75
307.164	20.82
307.379	43.35
307.593	133.46
307.807	8.53
308.021	37.2
308.235	31.06
308.449	-93.87
308.663	43.35
308.877	115.03
309.091	-11.95
309.305	41.3
309.519	-22.19
309.733	67.92
309.947	-7.85
310.161	18.77
310.374	92.5
310.588	106.84
310.802	84.31
311.016	76.12
311.23	65.88
311.444	72.02
311.658	49.49
311.872	67.92
312.085	92.5
312.299	106.84
312.513	108.88
312.727	106.84
312.941	61.78
313.154	26.96
313.368	53.59
313.582	26.96
313.796	6.49
314.009	57.68
314.223	74.07
314.437	96.6
314.651	-48.81
314.864	29.01
315.078	78.16
315.292	8.53
315.505	31.06
315.719	-3.75
315.933	29.01
316.146	31.06
316.36	49.49
316.573	29.01
316.787	90.45
317.001	67.92
317.214	-3.75
317.428	47.44
317.641	18.77
317.855	61.78
318.068	-50.86
318.282	24.92
318.495	145.75
318.709	6.49
318.922	82.26
319.136	-13.99
319.349	59.73
319.563	0.34
319.776	88.4
319.99	14.68
320.203	90.45
320.417	35.16
320.63	14.68
320.843	74.07
321.057	8.53
321.27	53.59
321.483	35.16
321.697	39.25
321.91	22.87
322.124	76.12
322.337	139.6
322.55	-32.43
322.763	-22.19
322.977	10.58
323.19	94.55
323.403	57.68
323.617	96.6
323.83	74.07
324.043	74.07
324.256	29.01
324.469	24.92
324.683	57.68
324.896	14.68
325.109	65.88
325.322	-9.9
325.535	67.92
325.748	22.87
325.962	65.88
326.175	55.64
326.388	35.16
326.601	6.49
326.814	14.68
327.027	47.44
327.24	16.73
327.453	-34.47
327.666	82.26
327.879	108.88
328.092	61.78
328.305	63.83
328.518	100.69
328.731	-20.14
328.944	-3.75
329.157	-11.95
329.37	26.96
329.583	94.55
329.796	94.55
330.009	39.25
330.222	61.78
330.435	22.87
330.648	59.73
330.861	-11.95
331.073	4.44
331.286	10.58
331.499	47.44
331.712	2.39
331.925	92.5
332.138	26.96
332.35	78.16
332.563	-9.9
332.776	94.55
332.989	-5.8
333.202	45.4
333.414	41.3
333.627	6.49
333.84	14.68
334.053	82.26
334.265	65.88
334.478	143.7
334.691	43.35
334.903	72.02
335.116	4.44
335.329	86.36
335.541	14.68
335.754	96.6
335.966	43.35
336.179	45.4
336.392	35.16
336.604	106.84
336.817	78.16
337.029	100.69
337.242	59.73
337.454	117.08
337.667	24.92
337.88	82.26
338.092	39.25
338.305	80.21
338.517	-3.75
338.729	72.02
338.942	80.21
339.154	45.4
339.367	65.88
339.579	104.79
339.792	22.87
340.004	74.07
340.217	-24.23
340.429	29.01
340.641	84.31
340.854	59.73
341.066	33.11
341.278	49.49
341.491	86.36
341.703	49.49
341.915	-3.75
342.128	90.45
342.34	35.16
342.552	-18.09
342.764	39.25
342.977	49.49
343.189	-42.67
343.401	10.58
343.613	-16.04
343.826	0.34
344.038	-18.09
344.25	51.54
344.462	41.3
344.674	39.25
344.886	-22.19
345.099	43.35
345.311	63.83
345.523	61.78
345.735	22.87
345.947	123.22
346.159	33.11
346.371	2.39
346.583	72.02
346.795	98.64
347.007	8.53
347.219	135.51
347.431	61.78
347.643	51.54
347.855	96.6
348.067	51.54
348.279	-11.95
348.491	47.44
348.703	6.49
348.915	98.64
349.127	26.96
349.339	22.87
349.551	-13.99
349.763	39.25
349.975	90.45
350.187	53.59
350.399	12.63
350.61	31.06
350.822	49.49
351.034	117.08
351.246	80.21
351.458	16.73
351.669	2.39
351.881	29.01
352.093	8.53
352.305	72.02
352.517	35.16
352.728	67.92
352.94	-13.99
353.152	-24.23
353.363	92.5
353.575	4.44
353.787	74.07
353.999	57.68
354.21	59.73
354.422	18.77
354.633	37.2
354.845	6.49
355.057	35.16
355.268	31.06
355.48	123.22
355.692	18.77
355.903	55.64
356.115	41.3
356.326	18.77
356.538	59.73
356.749	37.2
356.961	33.11
357.172	76.12
357.384	47.44
357.595	108.88
357.807	57.68
358.018	72.02
358.23	14.68
358.441	123.22
358.653	74.07
358.864	45.4
359.075	59.73
359.287	61.78
359.498	47.44
359.709	94.55
359.921	26.96
360.132	26.96
360.344	2.39
360.555	31.06
360.766	20.82
360.977	29.01
361.189	22.87
361.4	57.68
361.611	88.4
361.823	35.16
362.034	55.64
362.245	0.34
362.456	78.16
362.667	-38.57
362.879	49.49
363.09	35.16
363.301	69.97
363.512	16.73
363.723	22.87
363.935	96.6
364.146	98.64
364.357	69.97
364.568	47.44
364.779	-26.28
364.99	49.49
365.201	22.87
365.412	12.63
365.623	-81.58
365.834	108.88
366.045	-16.04
366.256	67.92
366.467	37.2
366.678	0.34
366.889	78.16
367.1	55.64
367.311	108.88
367.522	-11.95
367.733	59.73
367.944	-20.14
368.155	-3.75
368.366	59.73
368.577	-11.95
368.788	31.06
368.999	-20.14
369.209	14.68
369.42	8.53
369.631	37.2
369.842	39.25
370.053	22.87
370.264	82.26
370.474	41.3
370.685	53.59
370.896	76.12
371.107	94.55
371.317	59.73
371.528	-34.47
371.739	20.82
371.95	112.98
372.16	76.12
372.371	65.88
372.582	31.06
372.792	92.5
373.003	63.83
373.214	69.97
373.424	102.74
373.635	31.06
373.846	47.44
374.056	-5.8
374.267	-13.99
374.477	76.12
374.688	110.93
374.898	92.5
375.109	-18.09
375.319	123.22
375.53	72.02
375.74	-7.85
375.951	67.92
376.161	39.25
376.372	29.01
376.582	51.54
376.793	41.3
377.003	24.92
377.214	6.49
377.424	90.45
377.635	-7.85
377.845	78.16
378.055	92.5
378.266	24.92
378.476	39.25
378.686	55.64
378.897	110.93
379.107	117.08
379.317	94.55
379.528	4.44
379.738	41.3
379.948	47.44
380.158	155.99
380.369	12.63
380.579	80.21
380.789	16.73
380.999	125.27
381.21	63.83
381.42	110.93
381.63	12.63
381.84	82.26
382.05	67.92
382.261	-7.85
382.471	41.3
382.681	35.16
382.891	78.16
383.101	65.88
383.311	35.16
383.521	112.98
383.731	59.73
383.941	76.12
384.151	20.82
384.361	8.53
384.571	18.77
384.781	49.49
384.991	123.22
385.201	121.17
385.411	49.49
385.621	47.44
385.831	33.11
386.041	137.56
386.251	100.69
386.461	74.07
386.671	47.44
386.881	59.73
387.091	24.92
387.301	92.5
387.511	88.4
387.72	160.08
387.93	49.49
388.14	39.25
388.35	86.36
388.56	135.51
388.769	37.2
388.979	127.32
389.189	41.3
389.399	43.35
389.609	57.68
389.818	92.5
390.028	117.08
390.238	59.73
390.447	0.34
390.657	51.54
390.867	69.97
391.076	45.4
391.286	72.02
391.496	172.37
391.705	-18.09
391.915	31.06
392.125	74.07
392.334	69.97
392.544	178.51
392.753	69.97
392.963	67.92
393.172	-20.14
393.382	41.3
393.591	106.84
393.801	12.63
394.01	94.55
394.22	59.73
394.429	65.88
394.639	123.22
394.848	55.64
395.058	59.73
395.267	96.6
395.477	102.74
395.686	63.83
395.895	184.66
396.105	112.98
396.314	160.08
396.524	115.03
396.733	84.31
396.942	74.07
397.152	108.88
397.361	115.03
397.57	76.12
397.78	31.06
397.989	92.5
398.198	174.42
398.407	108.88
398.617	106.84
398.826	82.26
399.035	-24.23
399.244	80.21
399.453	80.21
399.663	129.36
399.872	76.12
400.081	45.4
400.29	188.75
400.499	72.02
400.708	168.27
400.917	94.55
401.127	186.71
401.336	115.03
401.545	151.89
401.754	133.46
401.963	115.03
402.172	82.26
402.381	119.12
402.59	125.27
402.799	145.75
403.008	88.4
403.217	180.56
403.426	131.41
403.635	125.27
403.844	102.74
404.053	151.89
404.262	186.71
404.471	162.13
404.68	88.4
404.888	141.65
405.097	115.03
405.306	178.51
405.515	178.51
405.724	121.17
405.933	233.81
406.142	203.09
406.35	207.19
406.559	205.14
406.768	215.38
406.977	344.4
407.185	305.49
407.394	153.94
407.603	153.94
407.812	170.32
408.02	264.53
408.229	225.62
408.438	293.2
408.646	178.51
408.855	229.71
409.064	266.58
409.272	272.72
409.481	229.71
409.69	287.06
409.898	248.15
410.107	383.31
410.315	328.02
410.524	325.97
410.733	309.58
410.941	325.97
411.15	381.26
411.358	334.16
411.567	457.04
411.775	325.97
411.984	313.68
412.192	465.23
412.401	424.27
412.609	461.13
412.818	452.94
413.026	514.38
413.234	422.22
413.443	477.52
413.651	524.62
413.86	565.58
414.068	694.6
414.276	627.02
414.485	618.83
414.693	612.68
414.901	690.51
415.11	778.57
415.318	747.85
415.526	731.47
415.734	780.62
415.943	706.89
416.151	852.3
416.359	872.78
416.567	903.5
416.776	909.64
416.984	915.78
417.192	1016.13
417.4	936.26
417.608	958.79
417.817	1007.94
418.025	1102.15
418.233	1157.44
418.441	1136.96
418.649	1139.01
418.857	1227.07
419.065	1384.77
419.273	1247.55
419.481	1384.77
419.689	1413.44
419.897	1499.45
420.105	1509.69
420.313	1476.93
420.521	1685.82
420.729	1599.8
420.937	1714.49
421.145	1765.69
421.353	1820.99
421.561	1988.92
421.769	1966.39
421.977	1990.97
422.185	1968.44
422.393	2191.67
422.601	2341.17
422.809	2318.64
423.017	2249.01
423.224	2517.29
423.432	2480.43
423.64	2572.59
423.848	2804.01
424.056	2765.1
424.263	2904.36
424.471	2904.36
424.679	2890.03
424.887	3164.45
425.094	3117.35
425.302	3090.73
425.51	3379.49
425.718	3469.6
425.925	3500.32
426.133	3672.35
426.341	3877.15
426.548	3881.24
426.756	3967.26
426.964	4036.89
427.171	4202.77
427.379	4403.47
427.586	4530.45
427.794	4559.12
428.001	4761.87
428.209	5087.5
428.417	4995.34
428.624	5273.86
428.832	5169.41
429.039	5189.89
429.247	5218.57
429.454	5699.84
429.662	6076.66
429.869	5652.74
430.076	6166.78
430.284	5994.75
430.491	6187.25
430.699	6578.42
430.906	6650.1
431.114	6717.68
431.321	6930.67
431.528	6856.94
431.736	7452.9
431.943	7823.58
432.15	7594.21
432.358	7680.22
432.565	7989.47
432.772	8083.67
432.979	8536.28
433.187	8573.14
433.394	8597.71
433.601	9339.08
433.808	9294.02
434.016	9320.65
434.223	9701.57
434.43	10305.72
434.637	9926.85
434.844	10625.2
435.052	10868.91
435.259	10830
435.466	10729.65
435.673	10768.56
435.88	11655.33
436.087	12155.04
436.294	12251.29
436.501	11872.42
436.708	12075.17
436.915	12570.77
437.122	13095.05
437.329	13054.09
437.537	13351.05
437.743	13744.26
437.95	13578.37
438.157	14459
438.364	14659.7
438.571	14715
438.778	14579.83
438.985	16302.17
439.192	15482.99
439.399	16220.25
439.606	15806.56
439.813	16582.74
440.02	17709.13
440.227	17299.53
440.433	17258.57
440.64	17832.01
440.847	17698.89
441.054	18030.66
441.261	19298.35
441.467	18925.62
441.674	19353.65
441.881	20062.24
442.088	20207.65
442.294	19677.23
442.501	20525.08
442.708	20924.44
442.914	21610.51
443.121	22536.19
443.328	21727.24
443.534	23357.42
443.741	22765.56
443.948	22697.98
444.154	24537.05
444.361	24223.72
444.568	24053.73
444.774	24510.43
444.981	24446.94
445.187	25456.59
445.394	26339.27
445.6	26130.37
445.807	28381.09
446.013	27406.26
446.22	27629.49
446.426	28829.6
446.633	29056.92
446.839	30199.69
447.046	28663.71
447.252	30680.96
447.459	30332.81
447.665	30367.62
447.871	31643.51
448.078	33159
448.284	31455.09
448.491	32204.65
448.697	33742.67
448.903	33949.52
449.11	34166.6
449.316	33849.17
449.522	34436.94
449.728	34897.73
449.935	35350.33
450.141	35383.1
450.347	36247.34
450.553	34879.3
450.76	35915.57
450.966	36611.88
451.172	36757.28
451.378	37021.47
451.584	36269.87
451.791	37500.7
451.997	37336.86
452.203	37703.45
452.409	38379.28
452.615	37748.5
452.821	36466.47
453.027	35833.65
453.233	37721.88
453.44	36511.53
453.646	36955.94
453.852	37211.93
454.058	37609.24
454.264	36605.73
454.47	37254.94
454.676	36427.56
454.882	37758.74
455.088	34230.09
455.294	34959.17
455.5	35561.27
455.705	35890.99
455.911	34549.57
456.117	33814.35
456.323	33310.55
456.529	31889.26
456.735	33347.42
456.941	31960.94
457.147	31717.23
457.352	31020.92
457.558	30095.24
457.764	30443.4
457.97	30070.67
458.176	29380.5
458.381	29190.04
458.587	27869.1
458.793	27709.36
458.999	26101.7
459.204	28434.34
459.41	27590.58
459.616	25522.13
459.821	25860.04
460.027	25352.15
460.233	24903.64
460.438	23898.09
460.644	24082.41
460.85	22532.09
461.055	22540.29
461.261	22476.8
461.466	20721.69
461.672	20166.69
461.878	21442.57
462.083	19929.13
462.289	20009
462.494	19763.24
462.7	18827.32
462.905	18128.96
463.111	18626.62
463.316	19157.04
463.522	18745.4
463.727	18589.75
463.932	18583.61
464.138	18247.74
464.343	18387
464.549	17829.96
464.754	18487.36
464.959	18274.37
465.165	17973.32
465.37	17504.33
465.575	17154.13
465.781	17516.62
465.986	17723.46
466.191	17002.58
466.397	16777.3
466.602	15775.84
466.807	16679
467.012	16693.33
467.218	16459.87
467.423	16265.31
467.628	16377.95
467.833	16808.02
468.038	16330.84
468.244	15753.32
468.449	16547.93
468.654	16066.66
468.859	15810.66
469.064	15816.8
469.269	15263.85
469.474	15450.22
469.679	15671.4
469.885	15466.6
470.09	15347.82
470.295	15394.92
470.5	15093.87
470.705	15204.46
470.91	14588.02
471.115	14463.1
471.32	14905.46
471.525	14491.77
471.73	14329.98
471.935	14549.11
472.139	13811.84
472.344	14121.09
472.549	14188.67
472.754	13688.96
472.959	13592.71
473.164	13035.66
473.369	13088.91
473.574	13467.78
473.778	13281.42
473.983	13199.5
474.188	13402.25
474.393	12654.74
474.598	12691.6
474.802	12718.23
475.007	12390.55
475.212	12349.59
475.417	12200.09
475.621	12021.92
475.826	12193.95
476.031	11810.98
476.235	11489.45
476.44	12040.35
476.645	11636.9
476.849	11471.01
477.054	11421.86
477.259	11284.65
477.463	11178.15
477.668	10858.67
477.872	11172.01
478.077	10832.05
478.282	10584.24
478.486	10621.11
478.691	10608.82
478.895	10563.76
479.1	10420.41
479.304	10449.08
479.509	10041.53
479.713	10457.27
479.918	10111.16
480.122	9844.93
480.326	10004.67
480.531	9978.05
480.735	10037.44
480.94	9828.54
481.144	10041.53
481.348	9795.78
481.553	9904.32
481.757	9539.78
481.961	9738.43
482.166	9857.21
482.37	9713.86
482.574	9705.67
482.778	9517.25
482.983	9654.47
483.187	9652.42
483.391	9867.45
483.595	9507.01
483.8	9466.05
484.004	9609.41
484.208	9873.6
484.412	9695.43
484.616	9576.64
484.821	9621.7
485.025	9502.92
485.229	9691.33
485.433	9705.67
485.637	9574.6
485.841	9496.77
486.045	9619.65
486.249	9660.61
486.453	9566.4
486.657	9646.27
486.861	9681.09
487.065	9564.36
487.269	9539.78
487.473	9298.12
487.677	9560.26
487.881	9621.7
488.085	9590.98
488.289	9767.1
488.493	9619.65
488.697	9717.95
488.901	9656.51
489.105	9533.64
489.309	9693.38
489.512	9787.58
489.716	9842.88
489.92	9664.71
490.124	9662.66
490.328	9830.59
490.531	9930.94
490.735	10008.76
490.939	9976
491.143	9732.29
491.346	10035.39
491.55	10023.1
491.754	9857.21
491.958	10019
492.161	10055.87
492.365	10082.49
492.569	10133.69
492.772	9881.79
492.976	10221.75
493.18	10162.36
493.383	10377.4
493.587	10418.36
493.79	10565.81
493.994	10633.4
494.197	10590.39
494.401	10602.68
494.605	10594.48
494.808	10789.04
495.012	10680.5
495.215	10946.73
495.419	11073.71
495.622	10873.01
495.825	11370.66
496.029	11186.35
496.232	11280.55
496.436	11192.49
496.639	11514.02
496.843	11577.51
497.046	11722.91
497.249	11782.31
497.453	11864.22
497.656	11688.1
497.859	12171.42
498.063	12243.1
498.266	12427.42
498.469	12296.35
498.673	12501.14
498.876	12634.26
499.079	12724.37
499.282	12689.56
499.485	13070.48
499.689	13086.86
499.892	13127.82
500.095	13283.47
500.298	13740.16
500.501	13625.48
500.705	13852.8
500.908	14164.09
501.111	14301.31
501.314	14153.85
501.517	14526.58
501.72	14485.62
501.923	14647.41
502.126	14956.66
502.329	14860.4
502.532	15235.18
502.735	15048.82
502.938	15532.14
503.141	15546.47
503.344	15978.59
503.547	15808.61
503.75	16367.71
503.953	16386.14
504.156	16259.17
504.359	16547.93
504.562	16662.62
504.765	16771.16
504.968	17111.12
505.17	17477.71
505.373	17236.05
505.576	17776.71
505.779	17840.2
505.982	17918.02
506.185	18286.65
506.387	18354.24
506.59	18399.29
506.793	18780.21
506.996	18751.54
507.198	19462.19
507.401	19355.69
507.604	19394.61
507.807	19896.36
508.009	19963.94
508.212	19759.14
508.415	20301.86
508.617	20467.74
508.82	20441.12
509.022	20582.43
509.225	21315.6
509.428	21043.22
509.63	21286.93
509.833	21628.94
510.035	21786.63
510.238	21655.56
510.44	21977.09
510.643	22372.35
510.845	22632.44
511.048	22546.43
511.25	22882.3
511.453	23156.72
511.655	23844.84
511.858	23269.36
512.06	23377.9
512.262	23846.89
512.465	23881.7
512.667	24565.73
512.87	24655.84
513.072	24772.57
513.274	25173.97
513.477	25077.72
513.679	25446.35
513.881	25882.57
514.084	25935.82
514.286	25771.98
514.488	26204.1
514.69	26892.22
514.893	26499.01
515.095	26900.41
515.297	27154.36
515.499	26853.31
515.701	27553.71
515.904	28012.46
516.106	27905.96
516.308	27994.03
516.51	28383.14
516.712	28463.01
516.914	28729.25
517.116	29204.38
517.318	29544.34
517.52	29704.08
517.722	29478.8
517.925	29980.56
518.127	30015.37
518.329	30685.06
518.531	30244.74
518.733	30873.47
518.935	31104.89
519.136	31342.46
519.338	30996.35
519.54	31610.74
519.742	31750
519.944	31750
520.146	32466.79
520.348	32720.74
520.55	32595.81
520.752	32687.97
520.954	33277.79
521.155	33003.36
521.357	33535.83
521.559	33587.03
521.761	33894.22
521.963	34160.46
522.164	33949.52
522.366	34590.53
522.568	34737.99
522.77	34742.08
522.971	35139.39
523.173	35053.37
523.375	35198.78
523.576	35374.91
523.778	35704.63
523.98	35731.25
524.181	35917.62
524.383	36302.64
524.584	36476.71
524.786	36388.65
524.988	36384.55
525.189	36769.57
525.391	36622.12
525.592	37416.73
525.794	37181.21
525.995	37185.31
526.197	37302.04
526.398	37066.53
526.6	37478.17
526.801	37867.28
527.003	38031.12
527.204	37965.59
527.406	38037.26
527.607	37967.63
527.808	38352.65
528.01	38143.76
528.211	38493.96
528.412	38928.13
528.614	38471.43
528.815	38698.76
529.016	38938.37
529.218	38747.91
529.419	38692.61
529.62	38856.45
529.822	39005.95
530.023	39059.2
530.224	38776.58
530.425	39190.27
530.626	38772.49
530.828	38637.32
531.029	39167.74
531.23	39079.68
531.431	39096.06
531.632	39048.96
531.833	39212.8
532.035	39223.04
532.236	39485.18
532.437	39542.52
532.638	39350.01
532.839	39585.53
533.04	39433.98
533.241	39360.25
533.442	39743.22
533.643	39350.01
533.844	39294.72
534.045	39556.86
534.246	39196.42
534.447	39792.37
534.648	39454.46
534.849	39384.83
535.05	39282.43
535.251	39765.75
535.451	39368.44
535.652	39517.95
535.853	39583.48
536.054	39651.06
536.255	39716.6
536.456	39190.27
536.657	40193.78
536.857	39468.8
537.058	39417.6
537.259	39532.28
537.46	39681.78
537.66	39368.44
537.861	39122.69
538.062	39038.72
538.263	39415.55
538.463	39198.46
538.664	39636.73
538.865	39313.15
539.065	39763.7
539.266	39141.12
539.466	39782.13
539.667	39014.15
539.868	39827.19
540.068	39462.65
540.269	39180.03
540.469	39628.54
540.67	39460.6
540.87	38883.08
541.071	39493.37
541.271	39225.09
541.472	39165.7
541.672	39198.46
541.873	39005.95
542.073	38942.47
542.274	39429.88
542.474	39012.1
542.675	38829.83
542.875	39743.22
543.075	39016.19
543.276	39008
543.476	39118.59
543.676	38944.52
543.877	39266.05
544.077	39253.76
544.277	39038.72
544.478	38827.78
544.678	38954.75
544.878	38891.27
545.078	39180.03
545.279	38706.95
545.479	38448.91
545.679	39098.11
545.879	38948.61
546.079	39065.35
546.28	39026.43
546.48	38592.26
546.68	39024.39
546.88	39087.87
547.08	39022.34
547.28	38743.81
547.48	38448.91
547.68	38942.47
547.88	38395.66
548.081	38776.58
548.281	38795.01
548.481	38407.95
548.681	38897.41
548.881	38878.98
549.081	38457.1
549.28	38438.67
549.48	38862.6
549.68	38663.94
549.88	38835.97
550.08	38545.16
550.28	38487.82
550.48	38082.32
550.68	38919.94
550.88	38590.22
551.08	38612.74
551.279	38795.01
551.479	38487.82
551.679	38119.18
551.879	38534.92
552.079	38778.63
552.278	38237.97
552.478	38545.16
552.678	38338.32
552.878	38579.98
553.077	38037.26
553.277	37963.54
553.477	38911.75
553.676	38246.16
553.876	38254.35
554.076	38440.71
554.275	37947.15
554.475	37766.93
554.674	38133.52
554.874	38123.28
555.074	38229.77
555.273	37828.37
555.473	38565.64
555.672	37906.19
555.872	37838.61
556.071	38039.31
556.271	37930.77
556.47	37695.25
556.67	37599
556.869	38301.45
557.068	38004.5
557.268	37773.08
557.467	37791.51
557.667	37709.59
557.866	37998.35
558.065	37512.98
558.265	37314.33
558.464	37500.7
558.663	38008.59
558.863	37506.84
559.062	37738.26
559.261	37068.58
559.461	37777.17
559.66	37418.78
559.859	37324.57
560.058	37082.91
560.258	37293.85
560.457	36896.55
560.656	37283.61
560.855	37087.01
561.054	37256.99
561.253	36749.09
561.453	36947.75
561.652	37099.3
561.851	37267.23
562.05	36765.48
562.249	36874.02
562.448	37084.96
562.647	36630.31
562.846	36941.6
563.045	36761.38
563.244	36615.97
563.443	37023.52
563.642	36388.65
563.841	36685.61
564.04	36306.73
564.239	36689.7
564.438	36265.77
564.637	36296.49
564.836	36263.72
565.035	36085.55
565.234	36306.73
565.432	36263.72
565.631	35962.67
565.83	36054.83
566.029	35878.71
566.228	36077.36
566.427	35981.1
566.625	35675.96
566.824	35780.4
567.023	36040.5
567.222	35190.59
567.42	35872.56
567.619	36063.02
567.818	35350.33
568.016	35419.96
568.215	35761.97
568.414	35084.09
568.612	35878.71
568.811	35147.58
569.01	35247.93
569.208	34867.01
569.407	35254.08
569.605	35036.99
569.804	34764.61
570.002	34932.54
570.201	34774.85
570.4	35002.18
570.598	34492.23
570.797	34416.46
570.995	34592.58
571.193	34113.36
571.392	34393.93
571.59	34207.56
571.789	34383.69
571.987	34735.94
572.186	34207.56
572.384	34191.18
572.582	34617.16
572.781	34250.57
572.979	33664.85
573.177	33941.33
573.376	34307.91
573.574	33898.32
573.772	33904.46
573.971	33804.11
574.169	33779.54
574.367	33396.57
574.565	33630.04
574.763	33683.28
574.962	33529.69
575.16	33480.53
575.358	33355.61
575.556	32974.69
575.754	33431.38
575.952	33234.78
576.151	33689.43
576.349	32667.49
576.547	32978.78
576.745	32708.45
576.943	32921.44
577.141	32579.43
577.339	32503.65
577.537	32540.52
577.735	32550.76
577.933	32307.05
578.131	32448.36
578.329	32302.95
578.527	32329.58
578.725	32294.76
578.923	32397.16
579.121	31854.45
579.319	31754.1
579.516	32038.76
579.714	32153.45
579.912	31709.04
580.11	31625.07
580.308	31606.64
580.506	31790.96
580.704	31434.61
580.901	31174.52
581.099	31954.8
581.297	31096.7
581.495	31487.86
581.692	31444.85
581.89	30961.53
582.088	31137.66
582.285	31225.72
582.483	31113.08
582.681	30736.26
582.878	30779.26
583.076	30556.04
583.274	30613.38
583.471	30195.59
583.669	30650.24
583.866	30259.08
584.064	30584.71
584.262	30062.47
584.459	30062.47
584.657	30060.43
584.854	30470.02
585.052	29974.41
585.249	30072.71
585.447	29644.69
585.644	29742.99
585.841	29710.22
586.039	30171.02
586.236	29362.07
586.434	29628.31
586.631	29499.28
586.828	29415.32
587.026	29239.19
587.223	29220.76
587.42	29116.31
587.618	29306.77
587.815	28686.24
588.012	28884.89
588.21	29280.15
588.407	29239.19
588.604	28596.13
588.801	28424.1
588.999	28682.14
589.196	28778.4
589.393	28243.88
589.59	28766.11
589.787	28319.65
589.984	28305.32
590.182	28204.97
590.379	28315.56
590.576	27854.76
590.773	28084.14
590.97	27879.34
591.167	27742.13
591.364	27404.21
591.561	27439.03
591.758	27635.63
591.955	27154.36
592.152	27723.69
592.349	27332.53
592.546	27334.58
592.743	27332.53
592.94	26894.27
593.137	27209.65
593.334	27080.63
593.531	26675.13
593.727	27146.17
593.924	26918.84
594.121	26468.29
594.318	26773.44
594.515	26322.88
594.712	26591.17
594.908	26279.88
595.105	26439.62
595.302	26204.1
595.499	26484.67
595.696	25978.82
595.892	26175.43
596.089	25929.67
596.286	25741.26
596.482	25722.83
596.679	25661.39
596.876	25806.8
597.072	25716.68
597.269	25489.36
597.466	25819.08
597.662	25561.04
597.859	25354.19
598.055	25550.8
598.252	24854.49
598.448	25108.44
598.645	24838.11
598.841	25063.38
599.038	24877.02
599.234	25098.2
599.431	24500.19
599.627	24770.52
599.824	24879.07
600.02	24504.29
600.217	24655.84
600.413	24537.05
600.609	24172.52
600.806	24297.44
601.002	24356.83
601.198	24203.24
601.395	24162.28
601.591	24076.26
601.787	23902.18
601.984	23668.72
602.18	24166.37
602.376	23828.46
602.572	23613.42
602.769	23572.46
602.965	23308.27
603.161	23375.86
603.357	23302.13
603.553	23173.11
603.75	23506.93
603.946	23128.05
604.142	23336.95
604.338	22892.54
604.534	23332.85
604.73	22652.92
604.926	22943.74
605.122	22837.24
605.318	22501.37
605.514	22743.03
605.71	22525.95
605.906	22464.51
606.102	22646.78
606.298	22532.09
606.494	22716.41
606.69	22517.76
606.886	22233.09
607.082	21780.49
607.278	22149.12
607.474	21936.13
607.67	22321.15
607.866	21973
608.062	22241.28
608.257	21809.16
608.453	22200.32
608.649	21786.63
608.845	21725.19
609.041	21616.65
609.236	21899.27
609.432	21899.27
609.628	21772.3
609.824	21688.33
610.019	21665.8
610.215	21532.68
610.411	21712.91
610.606	21223.44
610.802	21426.19
610.998	21547.02
611.193	21344.27
611.389	21205.01
611.584	21418
611.78	21121.04
611.976	21137.43
612.171	21069.84
612.367	20934.68
612.562	21137.43
612.758	20439.07
612.953	20953.11
613.149	21325.84
613.344	21024.79
613.539	21170.19
613.735	20688.92
613.93	20819.99
614.126	20801.56
614.321	20838.42
614.517	20797.46
614.712	20760.6
614.907	20557.85
615.103	20850.71
615.298	20613.15
615.493	20738.07
615.688	20289.57
615.884	20854.81
616.079	20408.35
616.274	20262.94
616.47	20426.78
616.665	20373.53
616.86	20086.82
617.055	19808.3
617.25	20250.66
617.445	20275.23
617.641	19865.64
617.836	20113.44
618.031	19656.75
618.226	20181.03
618.421	19748.9
618.616	20086.82
618.811	19544.11
619.006	19947.56
619.201	19339.31
619.396	19699.75
619.591	19054.64
619.786	19574.83
619.981	19210.29
620.176	19503.15
620.371	19048.5
620.566	19171.38
620.761	18849.85
620.956	19030.07
621.151	18774.07
621.346	18907.19
621.541	18397.24
621.735	18804.79
621.93	18217.02
622.125	18212.93
622.32	18356.29
622.515	18362.43
622.709	18022.47
622.904	18073.67
623.099	17848.39
623.294	18135.1
623.488	17768.52
623.683	17850.44
623.878	17543.24
624.072	17879.11
624.267	17637.45
624.462	17702.98
624.656	17195.09
624.851	17184.85
625.046	16949.33
625.24	17072.21
625.435	16939.09
625.629	16980.05
625.824	16668.76
626.018	16785.49
626.213	16351.32
626.407	16515.16
626.602	16328.8
626.796	16441.43
626.991	16375.9
627.185	16185.44
627.38	15790.18
627.574	15874.15
627.768	15781.99
627.963	15992.93
628.157	15386.73
628.352	15964.26
628.546	15564.9
628.74	15442.03
628.935	15378.54
629.129	15159.41
629.323	15206.51
629.517	15057.01
629.712	15386.73
629.906	14948.47
630.1	14827.64
630.294	14811.25
630.489	14649.46
630.683	14774.39
630.877	14348.41
631.071	14413.95
631.265	14649.46
631.459	14471.29
631.653	14483.58
631.848	14334.07
632.042	14235.77
632.236	14319.74
632.43	14135.42
632.624	13746.31
632.818	13949.06
633.012	13865.09
633.206	13709.44
633.4	13576.33
633.594	13588.61
633.788	13707.4
633.982	13449.35
634.176	13490.31
634.369	13338.76
634.563	13441.16
634.757	13291.66
634.951	13156.49
635.145	13068.43
635.339	13213.84
635.533	12925.07
635.726	12994.7
635.92	12781.71
636.114	12607.64
636.308	12863.63
636.501	12785.81
636.695	12753.04
636.889	12451.99
637.083	12380.31
637.276	12398.74
637.47	12282.01
637.664	12245.15
637.857	12451.99
638.051	12183.71
638.244	12001.44
638.438	11944.1
638.632	11894.94
638.825	11882.66
639.019	11784.35
639.212	11827.36
639.406	11849.89
639.599	11704.48
639.793	11706.53
639.986	11581.6
640.18	11677.86
640.373	11407.53
640.567	11235.5
640.76	11387.05
640.954	11229.35
641.147	11172.01
641.34	11124.91
641.534	11188.39
641.727	10963.12
641.92	11012.27
642.114	10961.07
642.307	10778.8
642.5	10713.27
642.694	10447.03
642.887	10672.31
643.08	10844.34
643.273	10594.48
643.467	10631.35
643.66	10369.21
643.853	10332.34
644.046	10102.97
644.239	10275
644.432	10342.58
644.626	10207.42
644.819	10180.79
645.012	10207.42
645.205	10041.53
645.398	10154.17
645.591	10115.26
645.784	10014.91
645.977	9763.01
646.17	9838.78
646.363	9707.71
646.556	9509.06
646.749	9527.49
646.942	9586.88
647.135	9535.68
647.328	9527.49
647.521	9402.57
647.714	9382.09
647.907	9492.68
648.099	9408.71
648.292	9371.85
648.485	9285.83
648.678	9208.01
648.871	9107.66
649.064	9103.56
649.256	8988.88
649.449	9060.56
649.642	8909.01
649.835	8890.57
650.027	8851.66
650.22	8923.34
650.413	8644.82
650.605	8612.05
650.798	8632.53
650.991	8466.64
651.183	8689.87
651.376	8556.75
651.568	8530.13
651.761	8483.03
651.954	8415.44
652.146	8298.71
652.339	8302.81
652.531	8354.01
652.724	8212.7
652.916	8141.02
653.109	8171.74
653.301	8067.29
653.494	8143.07
653.686	7768.29
653.879	8104.15
654.071	7964.89
654.263	7962.84
654.456	7827.68
654.648	7903.45
654.84	7710.94
655.033	7825.63
655.225	7782.62
655.417	7534.82
655.61	7592.16
655.802	7645.41
655.994	7600.35
656.186	7606.5
656.379	7293.16
656.571	7530.72
656.763	7313.64
656.955	7393.51
657.148	7270.63
657.34	7276.77
657.532	7237.86
657.724	7237.86
657.916	7344.36
658.108	7254.25
658.3	7125.22
658.492	7176.42
658.684	6891.76
658.876	7004.39
659.068	6904.04
659.26	6826.22
659.452	6832.37
659.644	6785.26
659.836	6701.3
660.028	6787.31
660.22	6514.93
660.412	6559.99
660.604	6551.79
660.796	6721.77
660.988	6566.13
661.18	6670.58
661.372	6471.92
661.563	6541.55
661.755	6527.22
661.947	6424.82
662.139	6308.09
662.331	6256.89
662.522	6387.96
662.714	6426.87
662.906	6199.54
663.097	6189.3
663.289	6291.7
663.481	6328.56
663.673	6179.06
663.864	6095.1
664.056	5986.55
664.247	5998.84
664.439	6021.37
664.631	6070.52
664.822	6097.14
665.014	5845.24
665.205	5959.93
665.397	5830.91
665.588	5953.79
665.78	5738.75
665.971	5839.1
666.163	5638.4
666.354	5812.48
666.546	5800.19
666.737	5562.62
666.929	5595.39
667.12	5665.02
667.311	5740.8
667.503	5525.76
667.694	5654.78
667.885	5404.93
668.077	5402.88
668.268	5302.53
668.459	5368.07
668.651	5398.79
668.842	5398.79
669.033	5329.16
669.224	5292.29
669.416	5431.55
669.607	5267.72
669.798	5308.68
669.989	5345.54
670.18	5333.25
670.371	5120.26
670.563	5038.34
670.754	5081.35
670.945	5007.62
671.136	5042.44
671.327	5015.82
671.518	5118.22
671.709	5134.6
671.9	5042.44
672.091	5138.69
672.282	5003.53
672.473	4968.71
672.664	4962.57
672.855	4806.92
673.046	5056.78
673.237	4833.55
673.428	4780.3
673.619	4804.88
673.809	4817.16
674	4870.41
674.191	4831.5
674.382	4659.47
674.573	4788.49
674.764	4632.85
674.954	4641.04
675.145	4688.14
675.336	4768.01
675.527	4657.42
675.717	4647.18
675.908	4546.83
676.099	4567.31
676.289	4600.08
676.48	4479.25
676.671	4565.26
676.861	4462.87
677.052	4462.87
677.243	4342.04
677.433	4446.48
677.624	4534.54
677.814	4268.31
678.005	4364.56
678.195	4479.25
678.386	4366.61
678.576	4397.33
678.767	4378.9
678.957	4280.6
679.148	4493.58
679.338	4247.83
679.529	4196.63
679.719	4213.01
679.909	4368.66
680.1	4260.12
680.29	4323.6
680.481	4243.73
680.671	4176.15
680.861	4217.11
681.052	4094.23
681.242	4122.9
681.432	4256.02
681.622	4086.04
681.813	4223.25
682.003	4245.78
682.193	4102.42
682.383	4053.27
682.573	4110.61
682.764	3987.74
682.954	4145.43
683.144	3997.98
683.334	3963.16
683.524	3989.78
683.714	4053.27
683.904	3983.64
684.094	3946.78
684.284	3920.15
684.474	4104.47
684.664	3850.52
684.854	3957.02
685.044	3860.76
685.234	3989.78
685.424	3907.87
685.614	3854.62
685.804	3879.19
685.994	3823.9
686.184	3940.63
686.374	3838.23
686.564	3821.85
686.753	3776.8
686.943	3684.64
687.133	3746.08
687.323	3653.92
687.513	3764.51
687.702	3684.64
687.892	3672.35
688.082	3655.97
688.272	3686.69
688.461	3602.72
688.651	3668.25
688.841	3660.06
689.03	3537.18
689.22	3612.96
689.41	3543.33
689.599	3553.57
689.789	3596.57
689.979	3498.27
690.168	3512.61
690.358	3318.05
690.547	3512.61
690.737	3518.75
690.926	3236.13
691.116	3320.1
691.305	3410.21
691.495	3283.24
691.684	3309.86
691.874	3332.39
692.063	3336.48
692.252	3248.42
692.442	3340.58
692.631	3109.16
692.82	3141.93
693.01	3129.64
693.199	3096.87
693.388	3123.49
693.578	3084.58
693.767	3258.66
693.956	3096.87
694.146	3080.49
694.335	3031.34
694.524	2945.32
694.713	3045.67
694.902	3047.72
695.092	3017
695.281	2933.03
695.47	2926.89
695.659	2890.03
695.848	2957.61
696.037	2898.22
696.226	3010.86
696.415	2967.85
696.604	2990.38
696.793	2902.31
696.982	3006.76
697.171	2971.94
697.36	2865.45
697.549	2779.43
697.738	2681.13
697.927	2754.86
698.116	2781.48
698.305	2779.43
698.494	2892.07
698.683	2853.16
698.872	2785.58
699.061	2799.91
699.25	2718
699.438	2699.56
699.627	2627.89
699.816	2621.74
700.005	2705.71
700.193	2724.14
700.382	2756.91
700.571	2724.14
700.76	2617.65
700.948	2685.23
701.137	2758.96
701.326	2617.65
701.514	2617.65
701.703	2674.99
701.892	2722.09
702.08	2578.73
702.269	2601.26
702.457	2644.27
702.646	2670.89
702.834	2576.69
703.023	2580.78
703.212	2572.59
703.4	2586.93
703.589	2455.86
703.777	2556.21
703.965	2320.69
704.154	2433.33
704.342	2502.96
704.531	2572.59
704.719	2564.4
704.907	2500.91
705.096	2423.09
705.284	2523.44
705.472	2613.55
705.661	2431.28
705.849	2507.06
706.037	2543.92
706.226	2378.03
706.414	2568.49
706.602	2472.24
706.79	2464.05
706.979	2425.14
707.167	2462
707.355	2441.52
707.543	2490.67
707.731	2566.45
707.919	2390.32
708.107	2355.51
708.296	2455.86
708.484	2375.99
708.672	2478.38
708.86	2472.24
709.048	2447.66
709.236	2447.66
709.424	2341.17
709.612	2408.75
709.8	2423.09
709.988	2425.14
710.176	2478.38
710.364	2423.09
710.551	2396.46
710.739	2429.23
710.927	2429.23
711.115	2355.51
711.303	2451.76
711.491	2390.32
711.679	2375.99
711.866	2275.63
712.054	2367.79
712.242	2341.17
712.43	2392.37
712.617	2367.79
712.805	2373.94
712.993	2359.6
713.181	2353.46
713.368	2431.28
713.556	2339.12
713.744	2228.53
713.931	2427.18
714.119	2447.66
714.306	2367.79
714.494	2390.32
714.682	2382.13
714.869	2238.77
715.057	2349.36
715.244	2308.4
715.432	2287.92
715.619	2328.88
715.807	2365.75
715.994	2462
716.182	2232.63
716.369	2396.46
716.556	2312.5
716.744	2163
716.931	2275.63
717.119	2322.74
717.306	2330.93
717.493	2312.5
717.681	2269.49
717.868	2320.69
718.055	2220.34
718.242	2394.42
718.43	2289.97
718.617	2365.75
718.804	2304.31
718.991	2449.71
719.179	2246.96
719.366	2261.3
719.553	2259.25
719.74	2249.01
719.927	2269.49
720.114	2271.54
720.301	2296.11
720.488	2341.17
720.676	2285.87
720.863	2203.96
721.05	2416.94
721.237	2251.06
721.424	2212.15
721.611	2271.54
721.798	2122.04
721.985	2306.35
722.172	2281.78
722.358	2312.5
722.545	2226.48
722.732	2240.82
722.919	2337.07
723.106	2271.54
723.293	2312.5
723.48	2328.88
723.667	2289.97
723.853	2193.72
724.04	2382.13
724.227	2222.39
724.414	2273.59
724.6	2367.79
724.787	2402.61
724.974	2304.31
725.161	2263.35
725.347	2343.22
725.534	2314.55
725.72	2300.21
725.907	2324.79
726.094	2206
726.28	2335.03
726.467	2259.25
726.653	2216.24
726.84	2353.46
727.027	2324.79
727.213	2171.19
727.4	2402.61
727.586	2369.84
727.773	2322.74
727.959	2296.11
728.145	2289.97
728.332	2378.03
728.518	2257.2
728.705	2375.99
728.891	2406.7
729.077	2308.4
729.264	2322.74
729.45	2265.39
729.636	2394.42
729.823	2240.82
730.009	2388.27
730.195	2365.75
730.382	2246.96
730.568	2201.91
730.754	2312.5
730.94	2375.99
731.126	2486.58
731.313	2304.31
731.499	2367.79
731.685	2304.31
731.871	2416.94
732.057	2410.8
732.243	2427.18
732.429	2464.05
732.615	2472.24
732.801	2486.58
732.987	2335.03
733.173	2373.94
733.359	2355.51
733.545	2371.89
733.731	2480.43
733.917	2365.75
734.103	2439.47
734.289	2388.27
734.475	2359.6
734.661	2513.2
734.847	2470.19
735.033	2472.24
735.219	2404.66
735.404	2392.37
735.59	2464.05
735.776	2486.58
735.962	2455.86
736.148	2484.53
736.333	2447.66
736.519	2443.57
736.705	2462
736.89	2502.96
737.076	2609.45
737.262	2378.03
737.447	2484.53
737.633	2406.7
737.819	2457.9
738.004	2453.81
738.19	2478.38
738.375	2474.29
738.561	2535.73
738.747	2476.34
738.932	2457.9
739.118	2564.4
739.303	2468.14
739.489	2490.67
739.674	2328.88
739.859	2474.29
740.045	2603.31
740.23	2523.44
740.416	2425.14
740.601	2468.14
740.786	2418.99
740.972	2423.09
741.157	2402.61
741.342	2386.22
741.528	2298.16
741.713	2511.15
741.898	2507.06
742.084	2418.99
742.269	2451.76
742.454	2455.86
742.639	2388.27
742.824	2421.04
743.01	2511.15
743.195	2523.44
743.38	2312.5
743.565	2468.14
743.75	2435.38
743.935	2410.8
744.12	2494.77
744.305	2408.75
744.49	2457.9
744.675	2451.76
744.86	2402.61
745.045	2390.32
745.23	2347.31
745.415	2396.46
745.6	2439.47
745.785	2253.11
745.97	2339.12
746.155	2289.97
746.34	2335.03
746.525	2285.87
746.71	2224.44
746.895	2312.5
747.079	2214.2
747.264	2437.42
747.449	2314.55
747.634	2296.11
747.819	2314.55
748.003	2277.68
748.188	2238.77
748.373	2148.66
748.557	2189.62
748.742	2234.68
748.927	2281.78
749.111	2068.79
749.296	2275.63
749.481	2173.24
749.665	2183.48
749.85	2169.14
750.034	2199.86
750.219	2027.83
750.404	2148.66
750.588	2087.22
750.773	2081.08
750.957	2171.19
751.141	2103.61
751.326	2081.08
751.51	2081.08
751.695	2105.65
751.879	1904.95
752.064	2064.69
752.248	2042.17
752.432	2148.66
752.617	2023.73
752.801	2060.6
752.985	2019.64
753.17	2013.49
753.354	2009.4
753.538	1943.86
753.722	2044.21
753.907	2001.21
754.091	1921.34
754.275	1909.05
754.459	1857.85
754.643	1898.81
754.828	1921.34
755.012	1888.57
755.196	1747.26
755.38	1861.94
755.564	1818.94
755.748	1843.51
755.932	1886.52
756.116	1853.75
756.3	1818.94
756.484	1751.35
756.668	1806.65
756.852	1798.46
757.036	1775.93
757.22	1786.17
757.404	1716.54
757.588	1651
757.772	1814.84
757.956	1804.6
758.14	1702.2
758.323	1679.68
758.507	1755.45
758.691	1587.52
758.875	1753.4
759.059	1745.21
759.242	1642.81
759.426	1546.56
759.61	1587.52
759.794	1675.58
759.977	1696.06
760.161	1724.73
760.345	1599.8
760.528	1530.17
760.712	1589.57
760.895	1646.91
761.079	1618.24
761.263	1618.24
761.446	1534.27
761.63	1489.21
761.813	1601.85
761.997	1464.64
762.18	1505.6
762.364	1558.85
762.547	1489.21
762.731	1452.35
762.914	1562.94
763.098	1411.39
763.281	1608
763.464	1466.69
763.648	1540.41
763.831	1478.97
764.015	1409.34
764.198	1478.97
764.381	1411.39
764.564	1440.06
764.748	1452.35
764.931	1431.87
765.114	1542.46
765.297	1386.82
765.481	1329.47
765.664	1366.34
765.847	1419.58
766.03	1524.03
766.213	1362.24
766.397	1366.34
766.58	1329.47
766.763	1415.49
766.946	1382.72
767.129	1349.95
767.312	1392.96
767.495	1337.66
767.678	1245.51
767.861	1364.29
768.044	1354.05
768.227	1440.06
768.41	1335.62
768.593	1288.51
768.776	1268.03
768.959	1204.55
769.142	1362.24
769.324	1282.37
769.507	1280.32
769.69	1345.86
769.873	1274.18
770.056	1405.25
770.239	1315.14
770.421	1395.01
770.604	1362.24
770.787	1243.46
770.97	1255.75
771.152	1214.79
771.335	1276.23
771.518	1227.07
771.7	1272.13
771.883	1132.87
772.066	1116.48
772.248	1159.49
772.431	1202.5
772.613	1241.41
772.796	1171.78
772.978	1235.27
773.161	1282.37
773.343	1177.92
773.526	1177.92
773.708	1069.38
773.891	1098.05
774.073	1139.01
774.256	1204.55
774.438	1204.55
774.621	1108.29
774.803	1202.5
774.985	1089.86
775.168	1147.2
775.35	1112.39
775.532	1169.73
775.715	1053
775.897	1053
776.079	1034.57
776.261	1077.57
776.444	1040.71
776.626	1018.18
776.808	1020.23
776.99	977.22
777.173	1055.05
777.355	1001.8
777.537	1071.43
777.719	946.5
777.901	983.37
778.083	1024.33
778.265	887.11
778.447	973.13
778.629	948.55
778.811	895.3
778.993	999.75
779.175	991.56
779.357	921.93
779.539	969.03
779.721	899.4
779.903	831.82
780.085	907.59
780.267	846.15
780.449	870.73
780.631	878.92
780.812	885.06
780.994	880.97
781.176	827.72
781.358	885.06
781.54	788.81
781.721	885.06
781.903	876.87
782.085	749.9
782.267	870.73
782.448	721.23
782.63	805.19
782.812	786.76
782.993	850.25
783.175	747.85
783.357	753.99
783.538	778.57
783.72	753.99
783.901	743.75
784.083	768.33
784.264	774.47
784.446	774.47
784.627	704.84
784.809	706.89
784.99	719.18
785.172	710.99
785.353	686.41
785.535	698.7
785.716	688.46
785.897	618.83
786.079	665.93
786.26	680.27
786.441	739.66
786.623	608.59
786.804	688.46
786.985	612.68
787.167	637.26
787.348	620.88
787.529	686.41
787.71	667.98
787.891	629.07
788.073	522.57
788.254	602.44
788.435	557.39
788.616	614.73
788.797	571.72
788.978	606.54
789.159	629.07
789.34	598.35
789.522	538.96
789.703	596.3
789.884	571.72
790.065	504.14
790.246	530.77
790.427	579.92
790.607	553.29
790.788	555.34
790.969	541.01
791.15	559.44
791.331	569.68
791.512	545.1
791.693	528.72
791.874	512.33
792.054	579.92
792.235	450.89
792.416	487.76
792.597	473.42
792.778	483.66
792.958	448.85
793.139	502.09
793.32	475.47
793.5	387.41
793.681	534.86
793.862	426.32
794.042	391.5
794.223	411.98
794.404	440.65
794.584	381.26
794.765	407.89
794.945	489.81
795.126	426.32
795.306	516.43
795.487	436.56
795.667	457.04
795.848	432.46
796.028	448.85
796.209	383.31
796.389	450.89
796.57	436.56
796.75	452.94
796.93	401.74
797.111	397.65
797.291	387.41
797.471	422.22
797.652	399.7
797.832	371.02
798.012	418.13
798.192	426.32
798.373	377.17
798.553	389.46
798.733	319.82
798.913	362.83
799.093	416.08
799.274	391.5
799.454	350.54
799.634	407.89
799.814	397.65
799.994	487.76
800.174	358.74
800.354	368.98
800.534	313.68
800.714	403.79
800.894	291.15
801.074	436.56
801.254	375.12
801.434	381.26
801.614	362.83
801.794	350.54
801.974	975.17
802.154	293.2
802.334	371.02
802.514	278.87
802.693	319.82
802.873	260.43
803.053	291.15
803.233	272.72
803.413	305.49
803.592	317.78
803.772	303.44
803.952	325.97
804.131	330.06
804.311	354.64
804.491	319.82
804.67	352.59
804.85	344.4
805.03	360.78
805.209	368.98
805.389	338.26
805.568	311.63
805.748	270.67
805.928	375.12
806.107	389.46
806.287	260.43
806.466	301.39
806.646	280.91
806.825	231.76
807.004	274.77
807.184	313.68
807.363	303.44
807.543	352.59
807.722	235.86
807.901	174.42
808.081	350.54
808.26	192.85
808.439	297.3
808.619	282.96
808.798	190.8
808.977	221.52
809.156	319.82
809.336	256.34
809.515	262.48
809.694	215.38
809.873	235.86
810.052	231.76
810.231	270.67
810.411	225.62
810.59	252.24
810.769	262.48
810.948	209.23
811.127	250.19
811.306	209.23
811.485	188.75
811.664	252.24
811.843	268.63
812.022	256.34
812.201	221.52
812.38	276.82
812.559	260.43
812.737	264.53
812.916	145.75
813.095	274.77
813.274	137.56
813.453	184.66
813.632	231.76
813.811	172.37
813.989	227.67
814.168	186.71
814.347	125.27
814.526	160.08
814.704	145.75
814.883	237.91
815.062	184.66
815.24	117.08
815.419	155.99
815.598	162.13
815.776	221.52
815.955	207.19
816.133	168.27
816.312	190.8
816.49	129.36
816.669	239.95
816.847	201.04
817.026	239.95
817.204	233.81
817.383	158.03
817.561	147.8
817.74	172.37
817.918	188.75
818.097	188.75
818.275	186.71
818.453	213.33
818.632	180.56
818.81	172.37
818.988	160.08
819.167	141.65
819.345	213.33
819.523	186.71
819.701	174.42
819.879	162.13
820.058	209.23
820.236	205.14
820.414	229.71
820.592	143.7
820.77	180.56
820.948	180.56
821.127	178.51
821.305	141.65
821.483	164.18
821.661	258.39
821.839	166.23
822.017	190.8
822.195	176.47
822.373	190.8
822.551	188.75
822.729	158.03
822.907	141.65
823.085	190.8
823.262	180.56
823.44	76.12
823.618	155.99
823.796	188.75
823.974	151.89
824.152	237.91
824.329	164.18
824.507	155.99
824.685	174.42
824.863	172.37
825.04	143.7
825.218	155.99
825.396	151.89
825.574	110.93
825.751	123.22
825.929	155.99
826.107	22.87
826.284	129.36
826.462	129.36
826.639	94.55
826.817	86.36
826.994	164.18
827.172	72.02
827.349	221.52
827.527	155.99
827.704	198.99
827.882	80.21
828.059	168.27
828.237	100.69
828.414	160.08
828.591	24.92
828.769	135.51
828.946	96.6
829.124	176.47
829.301	129.36
829.478	135.51
829.655	129.36
829.833	88.4
830.01	92.5
830.187	143.7
830.364	139.6
830.542	108.88
830.719	131.41
830.896	153.94
831.073	96.6
831.25	145.75
831.427	182.61
831.604	151.89
831.782	90.45
831.959	180.56
832.136	151.89
832.313	92.5
832.49	108.88
832.667	39.25
832.844	131.41
833.021	131.41
833.198	129.36
833.374	80.21
833.551	90.45
833.728	106.84
833.905	213.33
834.082	55.64
834.259	84.31
834.436	137.56
834.612	121.17
834.789	125.27
834.966	43.35
835.143	98.64
835.319	112.98
835.496	158.03
835.673	49.49
835.85	112.98
836.026	135.51
836.203	61.78
836.38	65.88
836.556	37.2
836.733	22.87
836.909	104.79
837.086	131.41
837.262	94.55
837.439	190.8
837.616	55.64
837.792	90.45
837.968	88.4
838.145	18.77
838.321	41.3
838.498	63.83
838.674	57.68
838.851	121.17
839.027	123.22
839.203	82.26
839.38	131.41
839.556	12.63
839.732	90.45
839.909	69.97
840.085	119.12
840.261	123.22
840.437	133.46
840.614	78.16
840.79	102.74
840.966	88.4
841.142	72.02
841.318	86.36
841.494	117.08
841.671	168.27
841.847	59.73
842.023	55.64
842.199	102.74
842.375	172.37
842.551	26.96
842.727	65.88
842.903	65.88
843.079	31.06
843.255	78.16
843.431	72.02
843.607	137.56
843.783	86.36
843.959	12.63
844.134	51.54
844.31	74.07
844.486	112.98
844.662	39.25
844.838	41.3
845.013	170.32
845.189	92.5
845.365	53.59
845.541	74.07
845.716	80.21
845.892	100.69
846.068	47.44
846.244	49.49
846.419	121.17
846.595	47.44
846.77	22.87
846.946	51.54
847.122	31.06
847.297	92.5
847.473	137.56
847.648	6.49
847.824	76.12
847.999	76.12
848.175	61.78
848.35	59.73
848.526	92.5
848.701	141.65
848.876	90.45
849.052	84.31
849.227	51.54
849.403	-22.19
849.578	20.82
849.753	72.02
849.929	76.12
850.104	29.01
850.279	47.44
850.454	31.06
850.63	121.17
850.805	20.82
850.98	80.21
851.155	131.41
851.33	59.73
851.505	65.88
851.681	86.36
851.856	-22.19
852.031	115.03
852.206	80.21
852.381	-1.71
852.556	8.53
852.731	82.26
852.906	55.64
853.081	110.93
853.256	14.68
853.431	100.69
853.606	2.39
853.781	29.01
853.956	0.34
854.131	10.58
854.305	88.4
854.48	41.3
854.655	47.44
854.83	-36.52
855.005	-36.52
855.18	69.97
855.354	39.25
855.529	8.53
855.704	39.25
855.879	33.11
856.053	51.54
856.228	82.26
856.403	-7.85
856.577	-11.95
856.752	-20.14
856.926	-3.75
857.101	-36.52
857.276	18.77
857.45	39.25
857.625	41.3
857.799	-9.9
857.974	57.68
858.148	-11.95
858.323	65.88
858.497	67.92
858.672	-5.8
858.846	16.73
859.02	72.02
859.195	33.11
859.369	76.12
859.543	72.02
859.718	43.35
859.892	39.25
860.066	35.16
860.241	24.92
860.415	0.34
860.589	88.4
860.763	14.68
860.938	-7.85
861.112	39.25
861.286	4.44
861.46	6.49
861.634	82.26
861.808	51.54
861.982	-34.47
862.157	-3.75
862.331	-59.05
862.505	20.82
862.679	-59.05
862.853	0.34
863.027	-11.95
863.201	47.44
863.375	-1.71
863.549	63.83
863.722	98.64
863.896	72.02
864.07	22.87
864.244	61.78
864.418	2.39
864.592	31.06
864.766	61.78
864.939	57.68
865.113	0.34
865.287	41.3
865.461	51.54
865.634	108.88
865.808	45.4
865.982	82.26
866.156	69.97
866.329	-20.14
866.503	47.44
866.676	125.27
866.85	86.36
867.024	43.35
867.197	43.35
867.371	67.92
867.544	61.78
867.718	-32.43
867.891	26.96
868.065	22.87
868.238	31.06
868.412	22.87
868.585	-3.75
868.759	41.3
868.932	-36.52
869.105	12.63
869.279	16.73
869.452	31.06
869.625	65.88
869.799	26.96
869.972	24.92
870.145	6.49
870.319	102.74
870.492	-59.05
870.665	-11.95
870.838	20.82
871.011	-69.29
871.185	49.49
871.358	10.58
871.531	90.45
871.704	-5.8
871.877	51.54
872.05	72.02
872.223	41.3
872.396	47.44
872.569	26.96
872.742	-44.71
872.915	-11.95
873.088	37.2
873.261	-16.04
873.434	-54.95
873.607	12.63
873.78	8.53
873.953	18.77
874.126	61.78
874.299	29.01
874.471	12.63
874.644	39.25
874.817	47.44
874.99	49.49
875.163	37.2
875.335	16.73
875.508	-5.8
875.681	96.6
875.853	-54.95
876.026	20.82
876.199	43.35
876.371	35.16
876.544	-42.67
876.717	-20.14
876.889	10.58
877.062	-5.8
877.234	-26.28
877.407	0.34
877.579	-16.04
877.752	43.35
877.924	39.25
878.097	37.2
878.269	26.96
878.442	-7.85
878.614	-7.85
878.786	29.01
878.959	14.68
879.131	-9.9
879.303	-97.96
879.476	-32.43
879.648	18.77
879.82	33.11
879.993	47.44
880.165	-3.75
880.337	-18.09
880.509	39.25
880.681	43.35
880.854	-16.04
881.026	-30.38
881.198	49.49
881.37	20.82
881.542	-44.71
881.714	39.25
881.886	10.58
882.058	2.39
882.23	43.35
882.402	10.58
882.574	29.01
882.746	8.53
882.918	141.65
883.09	4.44
883.262	49.49
883.434	-5.8
883.606	-13.99
883.778	6.49
883.95	6.49
884.122	53.59
884.293	86.36
884.465	39.25
884.637	59.73
884.809	24.92
884.98	-1.71
885.152	-3.75
885.324	94.55
885.496	-13.99
885.667	43.35
885.839	29.01
886.011	-16.04
886.182	-16.04
886.354	-13.99
886.525	22.87
886.697	10.58
886.869	-18.09
887.04	16.73
887.212	41.3
887.383	53.59
887.555	84.31
887.726	-3.75
887.897	18.77
888.069	-36.52
888.24	49.49
888.412	69.97
888.583	63.83
888.754	55.64
888.926	-38.57
889.097	37.2
889.268	-24.23
889.44	55.64
889.611	20.82
889.782	-7.85
889.953	-5.8
890.125	65.88
890.296	39.25
890.467	-77.48
890.638	-65.19
890.809	55.64
890.98	20.82
891.151	51.54
891.323	59.73
891.494	-50.86
891.665	33.11
891.836	-16.04
892.007	37.2
892.178	35.16
892.349	-3.75
892.52	16.73
892.691	-3.75
892.862	45.4
893.032	-32.43
893.203	-16.04
893.374	-28.33
893.545	43.35
893.716	-22.19
893.887	61.78
894.057	29.01
894.228	14.68
894.399	-26.28
894.57	55.64
894.74	88.4
894.911	39.25
895.082	45.4
895.253	-69.29
895.423	-71.34
895.594	76.12
895.764	16.73
895.935	51.54
896.106	4.44
896.276	22.87
896.447	80.21
896.617	49.49
896.788	2.39
896.958	24.92
897.129	43.35
897.299	6.49
897.47	37.2
897.64	151.89
897.81	74.07
897.981	-26.28
898.151	29.01
898.322	59.73
898.492	16.73
898.662	33.11
898.832	10.58
899.003	-79.53
899.173	-7.85
899.343	33.11
899.513	49.49
