Data from USB4F104151__8__12-40-57-687.txt Node

Date: Fri Mar 14 12:40:57 EDT 2025
User: louis
Spectrometer: USB4F10415
Trigger mode: 4
Integration Time (sec): 3.000000E-2
Scans to average: 1
Electric dark correction enabled: true
Nonlinearity correction enabled: false
Boxcar width: 0
XAxis mode: Wavelengths
Number of Pixels in Spectrum: 3648
>>>>>Begin Spectral Data<<<<<
178.204	-119.12
178.424	-119.12
178.644	-119.12
178.864	-112.98
179.084	-117.08
179.304	-53.59
179.524	-39.25
179.744	-24.92
179.964	48.81
180.184	52.91
180.404	-47.44
180.624	-18.77
180.844	42.67
181.064	42.67
181.283	-39.25
181.503	-45.4
181.723	81.58
181.943	-69.97
182.163	46.76
182.383	9.9
182.602	3.75
182.822	83.63
183.042	-24.92
183.262	-63.83
183.482	26.28
183.701	-4.44
183.921	-0.34
184.141	-51.54
184.361	40.62
184.58	44.71
184.8	11.95
185.02	63.15
185.239	28.33
185.459	63.15
185.679	48.81
185.898	-67.92
186.118	102.06
186.338	48.81
186.557	40.62
186.777	20.14
186.997	73.39
187.216	-31.06
187.436	126.63
187.655	97.96
187.875	108.2
188.095	22.19
188.314	73.39
188.534	108.2
188.753	61.1
188.973	59.05
189.192	34.47
189.412	85.67
189.631	26.28
189.851	32.43
190.07	-33.11
190.29	11.95
190.509	-8.53
190.729	46.76
190.948	106.15
191.168	112.3
191.387	20.14
191.607	28.33
191.826	73.39
192.045	13.99
192.265	44.71
192.484	-14.68
192.704	11.95
192.923	-59.73
193.142	71.34
193.362	32.43
193.581	134.82
193.8	18.09
194.02	20.14
194.239	-16.73
194.458	95.91
194.678	18.09
194.897	73.39
195.116	42.67
195.335	-2.39
195.555	52.91
195.774	-12.63
195.993	65.19
196.212	-10.58
196.432	-20.82
196.651	57
196.87	63.15
197.089	161.45
197.308	85.67
197.528	30.38
197.747	-10.58
197.966	26.28
198.185	57
198.404	13.99
198.623	-0.34
198.842	22.19
199.062	140.97
199.281	75.43
199.5	11.95
199.719	57
199.938	32.43
200.157	83.63
200.376	24.23
200.595	48.81
200.814	95.91
201.033	-20.82
201.252	97.96
201.471	77.48
201.69	48.81
201.909	93.87
202.128	26.28
202.347	30.38
202.566	20.14
202.785	34.47
203.004	52.91
203.223	95.91
203.442	63.15
203.661	18.09
203.879	-2.39
204.098	65.19
204.317	30.38
204.536	-0.34
204.755	89.77
204.974	75.43
205.193	7.85
205.411	69.29
205.63	24.23
205.849	-12.63
206.068	1.71
206.287	32.43
206.505	91.82
206.724	16.04
206.943	36.52
207.162	16.04
207.381	26.28
207.599	32.43
207.818	63.15
208.037	28.33
208.255	89.77
208.474	100.01
208.693	63.15
208.911	73.39
209.13	34.47
209.349	65.19
209.567	145.06
209.786	30.38
210.005	22.19
210.223	20.14
210.442	-24.92
210.661	42.67
210.879	-29.01
211.098	48.81
211.316	44.71
211.535	91.82
211.753	34.47
211.972	77.48
212.191	36.52
212.409	-31.06
212.628	-2.39
212.846	46.76
213.065	16.04
213.283	71.34
213.502	1.71
213.72	-26.96
213.938	28.33
214.157	40.62
214.375	149.16
214.594	61.1
214.812	65.19
215.031	36.52
215.249	-24.92
215.467	28.33
215.686	32.43
215.904	59.05
216.122	30.38
216.341	106.15
216.559	3.75
216.778	24.23
216.996	102.06
217.214	65.19
217.432	22.19
217.651	3.75
217.869	59.05
218.087	-41.3
218.306	50.86
218.524	3.75
218.742	16.04
218.96	9.9
219.179	-53.59
219.397	77.48
219.615	79.53
219.833	13.99
220.051	69.29
220.27	42.67
220.488	16.04
220.706	61.1
220.924	9.9
221.142	52.91
221.36	-10.58
221.578	-29.01
221.796	63.15
222.015	110.25
222.233	87.72
222.451	36.52
222.669	67.24
222.887	69.29
223.105	-35.16
223.323	87.72
223.541	57
223.759	54.95
223.977	3.75
224.195	52.91
224.413	91.82
224.631	20.14
224.849	16.04
225.067	65.19
225.285	1.71
225.503	52.91
225.721	5.8
225.939	81.58
226.157	46.76
226.375	106.15
226.592	57
226.81	38.57
227.028	100.01
227.246	38.57
227.464	22.19
227.682	108.2
227.9	-14.68
228.117	61.1
228.335	34.47
228.553	16.04
228.771	65.19
228.989	134.82
229.206	11.95
229.424	28.33
229.642	1.71
229.86	18.09
230.077	26.28
230.295	40.62
230.513	5.8
230.731	104.11
230.948	93.87
231.166	79.53
231.384	93.87
231.601	-6.49
231.819	67.24
232.037	36.52
232.254	-0.34
232.472	7.85
232.689	50.86
232.907	104.11
233.125	28.33
233.342	-16.73
233.56	-63.83
233.777	-39.25
233.995	67.24
234.213	65.19
234.43	59.05
234.648	50.86
234.865	28.33
235.083	50.86
235.3	-53.59
235.518	61.1
235.735	145.06
235.953	145.06
236.17	46.76
236.388	-26.96
236.605	44.71
236.822	110.25
237.04	57
237.257	13.99
237.475	-2.39
237.692	34.47
237.909	38.57
238.127	11.95
238.344	24.23
238.562	7.85
238.779	32.43
238.996	7.85
239.214	36.52
239.431	-0.34
239.648	46.76
239.865	108.2
240.083	46.76
240.3	11.95
240.517	-2.39
240.735	26.28
240.952	59.05
241.169	83.63
241.386	104.11
241.603	7.85
241.821	-14.68
242.038	46.76
242.255	63.15
242.472	-20.82
242.689	46.76
242.907	16.04
243.124	-10.58
243.341	36.52
243.558	42.67
243.775	46.76
243.992	9.9
244.209	75.43
244.426	61.1
244.643	63.15
244.86	46.76
245.078	145.06
245.295	65.19
245.512	-57.68
245.729	32.43
245.946	63.15
246.163	57
246.38	16.04
246.597	-12.63
246.814	36.52
247.031	75.43
247.248	40.62
247.464	85.67
247.681	50.86
247.898	5.8
248.115	54.95
248.332	-24.92
248.549	63.15
248.766	147.11
248.983	46.76
249.2	85.67
249.417	79.53
249.633	-69.97
249.85	28.33
250.067	5.8
250.284	36.52
250.501	-14.68
250.717	128.68
250.934	16.04
251.151	9.9
251.368	-8.53
251.585	106.15
251.801	67.24
252.018	26.28
252.235	54.95
252.451	-16.73
252.668	7.85
252.885	34.47
253.102	65.19
253.318	28.33
253.535	40.62
253.752	87.72
253.968	30.38
254.185	-31.06
254.401	22.19
254.618	-47.44
254.835	30.38
255.051	104.11
255.268	36.52
255.484	73.39
255.701	85.67
255.917	116.39
256.134	-31.06
256.351	44.71
256.567	-16.73
256.784	81.58
257	9.9
257.217	155.3
257.433	65.19
257.65	83.63
257.866	87.72
258.082	32.43
258.299	-4.44
258.515	73.39
258.732	7.85
258.948	13.99
259.165	-33.11
259.381	32.43
259.597	59.05
259.814	-6.49
260.03	1.71
260.246	69.29
260.463	69.29
260.679	89.77
260.895	52.91
261.112	42.67
261.328	22.19
261.544	26.28
261.761	102.06
261.977	81.58
262.193	13.99
262.409	-10.58
262.626	67.24
262.842	100.01
263.058	-49.49
263.274	89.77
263.49	140.97
263.707	114.34
263.923	83.63
264.139	16.04
264.355	26.28
264.571	46.76
264.787	-35.16
265.004	155.3
265.22	38.57
265.436	16.04
265.652	7.85
265.868	11.95
266.084	-47.44
266.3	52.91
266.516	18.09
266.732	48.81
266.948	44.71
267.164	-12.63
267.38	-6.49
267.596	13.99
267.812	81.58
268.028	-20.82
268.244	34.47
268.46	28.33
268.676	38.57
268.892	75.43
269.108	-37.2
269.324	26.28
269.54	32.43
269.756	134.82
269.972	9.9
270.188	36.52
270.403	-37.2
270.619	7.85
270.835	34.47
271.051	110.25
271.267	38.57
271.483	48.81
271.698	26.28
271.914	63.15
272.13	-16.73
272.346	63.15
272.562	18.09
272.777	128.68
272.993	42.67
273.209	18.09
273.425	3.75
273.64	20.14
273.856	36.52
274.072	46.76
274.287	-29.01
274.503	81.58
274.719	116.39
274.934	5.8
275.15	7.85
275.366	13.99
275.581	-12.63
275.797	24.23
276.012	-8.53
276.228	44.71
276.444	77.48
276.659	61.1
276.875	77.48
277.09	-33.11
277.306	106.15
277.521	46.76
277.737	-8.53
277.952	32.43
278.168	-6.49
278.383	32.43
278.599	11.95
278.814	54.95
279.03	11.95
279.245	77.48
279.461	-18.77
279.676	40.62
279.892	36.52
280.107	30.38
280.322	-24.92
280.538	16.04
280.753	48.81
280.969	20.14
281.184	38.57
281.399	106.15
281.615	97.96
281.83	44.71
282.045	-8.53
282.26	30.38
282.476	-4.44
282.691	32.43
282.906	1.71
283.122	50.86
283.337	30.38
283.552	7.85
283.767	-55.64
283.983	13.99
284.198	54.95
284.413	61.1
284.628	22.19
284.843	32.43
285.058	24.23
285.274	46.76
285.489	102.06
285.704	26.28
285.919	48.81
286.134	5.8
286.349	7.85
286.564	32.43
286.779	67.24
286.995	1.71
287.21	11.95
287.425	32.43
287.64	-41.3
287.855	24.23
288.07	-26.96
288.285	22.19
288.5	36.52
288.715	67.24
288.93	73.39
289.145	46.76
289.36	65.19
289.575	40.62
289.79	57
290.004	-8.53
290.219	54.95
290.434	44.71
290.649	104.11
290.864	7.85
291.079	24.23
291.294	16.04
291.509	67.24
291.724	77.48
291.938	9.9
292.153	36.52
292.368	-24.92
292.583	52.91
292.798	44.71
293.012	34.47
293.227	11.95
293.442	-35.16
293.657	67.24
293.871	95.91
294.086	116.39
294.301	95.91
294.516	32.43
294.73	61.1
294.945	-35.16
295.16	46.76
295.374	149.16
295.589	100.01
295.804	20.14
296.018	38.57
296.233	54.95
296.447	112.3
296.662	16.04
296.877	134.82
297.091	48.81
297.306	18.09
297.52	-14.68
297.735	134.82
297.949	34.47
298.164	151.21
298.378	34.47
298.593	102.06
298.807	5.8
299.022	44.71
299.236	83.63
299.451	-29.01
299.665	-18.77
299.88	54.95
300.094	5.8
300.309	69.29
300.523	67.24
300.737	-24.92
300.952	7.85
301.166	28.33
301.381	22.19
301.595	38.57
301.809	54.95
302.024	-37.2
302.238	16.04
302.452	95.91
302.667	50.86
302.881	40.62
303.095	22.19
303.309	-8.53
303.524	38.57
303.738	-10.58
303.952	20.14
304.166	34.47
304.381	-29.01
304.595	36.52
304.809	3.75
305.023	26.28
305.237	32.43
305.452	24.23
305.666	69.29
305.88	77.48
306.094	57
306.308	16.04
306.522	95.91
306.736	79.53
306.95	83.63
307.164	85.67
307.379	9.9
307.593	102.06
307.807	126.63
308.021	38.57
308.235	83.63
308.449	22.19
308.663	46.76
308.877	16.04
309.091	-6.49
309.305	63.15
309.519	26.28
309.733	116.39
309.947	59.05
310.161	40.62
310.374	-12.63
310.588	118.44
310.802	13.99
311.016	42.67
311.23	71.34
311.444	73.39
311.658	22.19
311.872	67.24
312.085	81.58
312.299	114.34
312.513	71.34
312.727	52.91
312.941	50.86
313.154	63.15
313.368	48.81
313.582	34.47
313.796	89.77
314.009	50.86
314.223	155.3
314.437	28.33
314.651	65.19
314.864	13.99
315.078	-10.58
315.292	-43.35
315.505	3.75
315.719	97.96
315.933	36.52
316.146	22.19
316.36	36.52
316.573	63.15
316.787	30.38
317.001	87.72
317.214	20.14
317.428	20.14
317.641	48.81
317.855	-18.77
318.068	16.04
318.282	5.8
318.495	44.71
318.709	30.38
318.922	46.76
319.136	120.49
319.349	59.05
319.563	40.62
319.776	114.34
319.99	-63.83
320.203	87.72
320.417	44.71
320.63	36.52
320.843	52.91
321.057	112.3
321.27	22.19
321.483	63.15
321.697	52.91
321.91	57
322.124	69.29
322.337	-6.49
322.55	11.95
322.763	34.47
322.977	7.85
323.19	13.99
323.403	77.48
323.617	87.72
323.83	91.82
324.043	63.15
324.256	5.8
324.469	7.85
324.683	24.23
324.896	5.8
325.109	9.9
325.322	36.52
325.535	44.71
325.748	46.76
325.962	20.14
326.175	63.15
326.388	89.77
326.601	71.34
326.814	22.19
327.027	34.47
327.24	114.34
327.453	-12.63
327.666	83.63
327.879	59.05
328.092	120.49
328.305	79.53
328.518	5.8
328.731	-12.63
328.944	20.14
329.157	30.38
329.37	28.33
329.583	93.87
329.796	100.01
330.009	-37.2
330.222	104.11
330.435	-51.54
330.648	26.28
330.861	116.39
331.073	28.33
331.286	63.15
331.499	22.19
331.712	-35.16
331.925	13.99
332.138	71.34
332.35	11.95
332.563	-2.39
332.776	42.67
332.989	-4.44
333.202	122.54
333.414	-4.44
333.627	44.71
333.84	-16.73
334.053	-6.49
334.265	13.99
334.478	50.86
334.691	22.19
334.903	46.76
335.116	97.96
335.329	102.06
335.541	61.1
335.754	16.04
335.966	61.1
336.179	32.43
336.392	34.47
336.604	22.19
336.817	122.54
337.029	-8.53
337.242	95.91
337.454	30.38
337.667	-12.63
337.88	110.25
338.092	81.58
338.305	32.43
338.517	44.71
338.729	54.95
338.942	52.91
339.154	32.43
339.367	85.67
339.579	57
339.792	26.28
340.004	16.04
340.217	54.95
340.429	79.53
340.641	11.95
340.854	32.43
341.066	-16.73
341.278	112.3
341.491	67.24
341.703	18.09
341.915	-6.49
342.128	28.33
342.34	-6.49
342.552	13.99
342.764	13.99
342.977	18.09
343.189	83.63
343.401	77.48
343.613	-0.34
343.826	67.24
344.038	-14.68
344.25	28.33
344.462	-10.58
344.674	34.47
344.886	28.33
345.099	87.72
345.311	24.23
345.523	67.24
345.735	24.23
345.947	77.48
346.159	20.14
346.371	52.91
346.583	3.75
346.795	110.25
347.007	42.67
347.219	7.85
347.431	67.24
347.643	75.43
347.855	59.05
348.067	93.87
348.279	-8.53
348.491	44.71
348.703	91.82
348.915	-14.68
349.127	24.23
349.339	102.06
349.551	46.76
349.763	63.15
349.975	50.86
350.187	65.19
350.399	112.3
350.61	112.3
350.822	61.1
351.034	42.67
351.246	-18.77
351.458	7.85
351.669	73.39
351.881	79.53
352.093	130.73
352.305	85.67
352.517	-20.82
352.728	57
352.94	73.39
353.152	63.15
353.363	-47.44
353.575	106.15
353.787	16.04
353.999	93.87
354.21	57
354.422	69.29
354.633	34.47
354.845	138.92
355.057	81.58
355.268	102.06
355.48	44.71
355.692	81.58
355.903	20.14
356.115	69.29
356.326	26.28
356.538	122.54
356.749	183.98
356.961	40.62
357.172	26.28
357.384	-2.39
357.595	120.49
357.807	52.91
358.018	38.57
358.23	30.38
358.441	126.63
358.653	26.28
358.864	-4.44
359.075	79.53
359.287	36.52
359.498	128.68
359.709	89.77
359.921	32.43
360.132	52.91
360.344	-2.39
360.555	79.53
360.766	59.05
360.977	-22.87
361.189	67.24
361.4	32.43
361.611	71.34
361.823	40.62
362.034	26.28
362.245	-61.78
362.456	132.78
362.667	32.43
362.879	114.34
363.09	32.43
363.301	38.57
363.512	97.96
363.723	7.85
363.935	26.28
364.146	151.21
364.357	1.71
364.568	61.1
364.779	-0.34
364.99	71.34
365.201	69.29
365.412	155.3
365.623	57
365.834	13.99
366.045	34.47
366.256	91.82
366.467	22.19
366.678	79.53
366.889	110.25
367.1	52.91
367.311	83.63
367.522	44.71
367.733	73.39
367.944	71.34
368.155	75.43
368.366	50.86
368.577	57
368.788	102.06
368.999	65.19
369.209	-20.82
369.42	130.73
369.631	102.06
369.842	114.34
370.053	48.81
370.264	85.67
370.474	69.29
370.685	18.09
370.896	20.14
371.107	52.91
371.317	38.57
371.528	7.85
371.739	124.58
371.95	85.67
372.16	18.09
372.371	-2.39
372.582	73.39
372.792	112.3
373.003	79.53
373.214	77.48
373.424	63.15
373.635	26.28
373.846	110.25
374.056	77.48
374.267	67.24
374.477	46.76
374.688	50.86
374.898	85.67
375.109	30.38
375.319	59.05
375.53	75.43
375.74	102.06
375.951	59.05
376.161	46.76
376.372	104.11
376.582	30.38
376.793	120.49
377.003	7.85
377.214	34.47
377.424	59.05
377.635	42.67
377.845	54.95
378.055	95.91
378.266	-14.68
378.476	122.54
378.686	79.53
378.897	16.04
379.107	54.95
379.317	89.77
379.528	42.67
379.738	79.53
379.948	75.43
380.158	54.95
380.369	36.52
380.579	61.1
380.789	59.05
380.999	9.9
381.21	67.24
381.42	167.59
381.63	50.86
381.84	59.05
382.05	63.15
382.261	140.97
382.471	20.14
382.681	50.86
382.891	44.71
383.101	46.76
383.311	-43.35
383.521	95.91
383.731	106.15
383.941	50.86
384.151	114.34
384.361	22.19
384.571	32.43
384.781	30.38
384.991	108.2
385.201	71.34
385.411	85.67
385.621	120.49
385.831	87.72
386.041	-20.82
386.251	116.39
386.461	75.43
386.671	42.67
386.881	69.29
387.091	50.86
387.301	75.43
387.511	46.76
387.72	67.24
387.93	69.29
388.14	40.62
388.35	77.48
388.56	61.1
388.769	69.29
388.979	50.86
389.189	87.72
389.399	93.87
389.609	67.24
389.818	161.45
390.028	20.14
390.238	7.85
390.447	32.43
390.657	97.96
390.867	81.58
391.076	-2.39
391.286	63.15
391.496	46.76
391.705	59.05
391.915	42.67
392.125	93.87
392.334	106.15
392.544	77.48
392.753	87.72
392.963	52.91
393.172	54.95
393.382	34.47
393.591	136.87
393.801	75.43
394.01	159.4
394.22	42.67
394.429	28.33
394.639	114.34
394.848	61.1
395.058	106.15
395.267	114.34
395.477	104.11
395.686	100.01
395.895	85.67
396.105	106.15
396.314	67.24
396.524	65.19
396.733	75.43
396.942	188.07
397.152	38.57
397.361	136.87
397.57	36.52
397.78	116.39
397.989	102.06
398.198	198.31
398.407	34.47
398.617	32.43
398.826	-6.49
399.035	97.96
399.244	102.06
399.453	61.1
399.663	65.19
399.872	118.44
400.081	124.58
400.29	147.11
400.499	89.77
400.708	108.2
400.917	102.06
401.127	77.48
401.336	155.3
401.545	192.17
401.754	138.92
401.963	104.11
402.172	50.86
402.381	81.58
402.59	110.25
402.799	106.15
403.008	175.78
403.217	100.01
403.426	118.44
403.635	143.02
403.844	89.77
404.053	71.34
404.262	134.82
404.471	183.98
404.68	57
404.888	161.45
405.097	65.19
405.306	128.68
405.515	145.06
405.724	100.01
405.933	188.07
406.142	194.22
406.35	218.79
406.559	149.16
406.768	183.98
406.977	132.78
407.185	194.22
407.394	190.12
407.603	100.01
407.812	210.6
408.02	229.03
408.229	202.41
408.438	284.33
408.646	206.5
408.855	239.27
409.064	269.99
409.272	151.21
409.481	274.09
409.69	249.51
409.898	190.12
410.107	288.42
410.315	208.55
410.524	288.42
410.733	208.55
410.941	286.37
411.15	339.62
411.358	313
411.567	325.29
411.775	276.13
411.984	308.9
412.192	356.01
412.401	339.62
412.609	466.6
412.818	491.17
413.026	407.2
413.234	427.68
413.443	347.81
413.651	460.45
413.86	472.74
414.068	497.32
414.276	552.61
414.485	560.8
414.693	550.56
414.901	599.71
415.11	620.19
415.318	542.37
415.526	607.91
415.734	618.15
415.943	665.25
416.151	718.5
416.359	722.59
416.567	759.46
416.776	710.3
416.984	781.98
417.192	800.41
417.4	868
417.608	806.56
417.817	818.85
418.025	900.76
418.233	1005.21
418.441	915.1
418.649	954.01
418.857	1054.36
419.065	1099.42
419.273	1005.21
419.481	1101.47
419.689	1126.04
419.897	1216.15
420.105	1230.49
420.313	1394.33
420.521	1400.47
420.729	1298.07
420.937	1447.57
421.145	1449.62
421.353	1498.77
421.561	1648.27
421.769	1674.9
421.977	1638.03
422.185	1699.47
422.393	1728.14
422.601	1984.14
422.809	1791.63
423.017	1846.93
423.224	2025.1
423.432	2080.39
423.64	2025.1
423.848	2233.99
424.056	2143.88
424.263	2416.26
424.471	2379.4
424.679	2494.08
424.887	2561.67
425.094	2557.57
425.302	2522.76
425.51	2797.18
425.718	2723.46
425.925	2741.89
426.133	2977.41
426.341	3085.95
426.548	3266.17
426.756	3227.26
426.964	3257.98
427.171	3556.98
427.379	3614.32
427.586	3638.9
427.794	3688.05
428.001	3808.88
428.209	4034.16
428.417	3878.51
428.624	4290.15
428.832	4286.06
429.039	4331.11
429.247	4222.57
429.454	4632.16
429.662	4920.93
429.869	4509.29
430.076	4929.12
430.284	4941.41
430.491	5088.86
430.699	5287.51
430.906	5203.55
431.114	5328.47
431.321	5510.74
431.528	5717.59
431.736	5955.15
431.943	6282.83
432.15	6139.47
432.358	6135.37
432.565	6557.25
432.772	6624.84
432.979	6929.98
433.187	6958.66
433.394	7065.15
433.601	7511.61
433.808	7527.99
434.016	7534.14
434.223	7853.62
434.43	8121.9
434.637	8212.01
434.844	8625.7
435.052	8728.1
435.259	8889.89
435.466	8799.78
435.673	8902.18
435.88	9356.83
436.087	9866.77
436.294	9793.05
436.501	9604.63
436.708	9690.65
436.915	10137.1
437.122	10655.24
437.329	10470.92
437.537	10999.3
437.743	11052.55
437.95	10999.3
438.157	11638.27
438.364	11906.55
438.571	12047.86
438.778	12029.43
438.985	13131.23
439.192	12436.97
439.399	13073.89
439.606	12877.29
439.813	13331.94
440.02	13993.43
440.227	13970.9
440.433	13600.22
440.64	14079.44
440.847	13833.69
441.054	14603.72
441.261	15408.58
441.467	15203.78
441.674	15699.39
441.881	16358.83
442.088	16186.8
442.294	15943.1
442.501	16307.63
442.708	16684.46
442.914	17411.49
443.121	18326.93
443.328	17700.25
443.534	18900.36
443.741	18161.05
443.948	18148.76
444.154	19426.69
444.361	19305.86
444.568	19365.25
444.774	19551.62
444.981	19504.51
445.187	20510.07
445.394	21165.42
445.6	21005.67
445.807	22859.09
446.013	21939.55
446.22	22357.33
446.426	23123.27
446.633	23135.56
446.839	24227.13
447.046	23352.65
447.252	24827.18
447.459	24606
447.665	24505.65
447.871	25466.15
448.078	26617.11
448.284	25382.18
448.491	26010.91
448.697	26752.27
448.903	27620.61
449.11	27741.44
449.316	27342.09
449.522	27784.45
449.728	28523.77
449.935	28523.77
450.141	28652.79
450.347	29383.91
450.553	28306.68
450.76	28841.2
450.966	30037.22
451.172	29551.85
451.378	30305.5
451.584	29402.35
451.791	30354.65
451.997	30137.57
452.203	30663.89
452.409	30835.92
452.615	30764.25
452.821	29412.59
453.027	29246.7
453.233	30803.16
453.44	29590.76
453.646	29562.09
453.852	29715.69
454.058	30469.34
454.264	29598.95
454.47	30117.09
454.676	29121.77
454.882	30424.28
455.088	28140.8
455.294	28073.21
455.5	28540.15
455.705	28595.45
455.911	27639.04
456.117	27157.77
456.323	26641.68
456.529	25388.33
456.735	26637.59
456.941	25783.59
457.147	25546.02
457.352	24862
457.558	24382.77
457.764	24474.93
457.97	23973.18
458.176	23450.95
458.381	23539.01
458.587	22226.26
458.793	22367.57
458.999	20909.42
459.204	22426.96
459.41	21964.12
459.616	20665.71
459.821	20536.69
460.027	20508.02
460.233	19903.87
460.438	19004.81
460.644	19375.49
460.85	18253.2
461.055	18056.6
461.261	17864.09
461.466	16922.02
461.672	16176.56
461.878	17446.3
462.083	16154.04
462.289	15857.08
462.494	15824.31
462.7	15091.14
462.905	14679.5
463.111	15306.18
463.316	15424.96
463.522	15099.33
463.727	14962.12
463.932	14779.85
464.138	14753.23
464.343	14785.99
464.549	14253.52
464.754	14867.91
464.959	14853.58
465.165	14550.48
465.37	14032.34
465.575	13657.56
465.781	14185.94
465.986	14142.93
466.191	13731.29
466.397	13567.45
466.602	12842.47
466.807	13331.94
467.012	13530.59
467.218	13077.99
467.423	13149.67
467.628	13137.38
467.833	13596.12
468.038	13116.9
468.244	12879.33
468.449	13350.37
468.654	12979.68
468.859	12860.9
469.064	12742.12
469.269	12109.3
469.474	12518.89
469.679	12486.12
469.885	12097.01
470.09	12125.68
470.295	12496.36
470.5	12111.35
470.705	12144.11
470.91	11703.8
471.115	11812.34
471.32	11967.99
471.525	11734.52
471.73	11769.34
471.935	11589.11
472.139	11333.12
472.344	11275.77
472.549	11167.23
472.754	11070.98
472.959	10991.11
473.164	10579.47
473.369	10268.17
473.574	10851.85
473.778	10737.16
473.983	10571.27
474.188	10624.52
474.393	10085.9
474.598	10106.38
474.802	9965.07
475.007	9950.74
475.212	9938.45
475.417	9586.2
475.621	9612.82
475.826	9756.18
476.031	9508.38
476.235	9229.85
476.44	9303.58
476.645	9047.58
476.849	9412.12
477.054	9131.55
477.259	9008.67
477.463	9080.35
477.668	8724.01
477.872	8830.5
478.077	8689.19
478.282	8513.06
478.486	8459.82
478.691	8431.15
478.895	8474.15
479.1	8392.23
479.304	8242.73
479.509	7980.59
479.713	8275.5
479.918	7992.88
480.122	8044.08
480.326	8037.94
480.531	8072.75
480.735	7974.45
480.94	8050.22
481.144	8044.08
481.348	7863.86
481.553	7962.16
481.757	7771.7
481.961	7843.38
482.166	7906.87
482.37	7745.08
482.574	7675.45
482.778	7816.76
482.983	7958.07
483.187	7861.81
483.391	7804.47
483.595	7671.35
483.8	7659.06
484.004	7759.41
484.208	7872.05
484.412	7812.66
484.616	7796.28
484.821	7743.03
485.025	7695.93
485.229	7845.43
485.433	7691.83
485.637	7679.54
485.841	7931.44
486.045	7562.81
486.249	7702.07
486.453	7626.29
486.657	7632.44
486.861	7816.76
487.065	7507.51
487.269	7722.55
487.473	7691.83
487.677	7718.45
487.881	7689.78
488.085	7786.04
488.289	7753.27
488.493	7810.61
488.697	7796.28
488.901	7962.16
489.105	7806.52
489.309	7712.31
489.512	7671.35
489.716	7751.22
489.92	7792.18
490.124	7743.03
490.328	8035.89
490.531	7837.24
490.735	8013.36
490.939	7857.71
491.143	7804.47
491.346	7999.02
491.55	8140.33
491.754	8089.14
491.958	7919.15
492.161	8062.51
492.365	8111.66
492.569	8060.46
492.772	8082.99
492.976	8238.64
493.18	8410.67
493.383	8318.51
493.587	8336.94
493.79	8381.99
493.994	8379.95
494.197	8455.72
494.401	8519.21
494.605	8496.68
494.808	8535.59
495.012	8674.85
495.215	8889.89
495.419	8836.64
495.622	8695.33
495.825	9051.68
496.029	8738.34
496.232	8896.03
496.436	9139.74
496.639	9299.48
496.843	9510.43
497.046	9428.51
497.249	9444.89
497.453	9506.33
497.656	9618.97
497.859	9555.48
498.063	9684.5
498.266	9909.78
498.469	10010.13
498.673	9967.12
498.876	10161.68
499.079	10231.31
499.282	10133.01
499.485	10548.75
499.689	10552.84
499.892	10722.82
500.095	10642.95
500.298	11056.64
500.501	11111.94
500.705	11122.18
500.908	11243.01
501.111	11423.23
501.314	11578.87
501.517	11703.8
501.72	11658.74
501.923	11666.94
502.126	12195.31
502.329	12148.21
502.532	12152.31
502.735	12336.62
502.938	12463.6
503.141	12828.13
503.344	12631.53
503.547	12881.38
503.75	13010.4
503.953	13180.39
504.156	13393.37
504.359	13434.33
504.562	13614.55
504.765	14063.06
504.968	13950.42
505.17	14022.1
505.373	14194.13
505.576	14349.78
505.779	14415.31
505.982	14409.17
506.185	14853.58
506.387	14974.41
506.59	14919.11
506.793	15336.9
506.996	15091.14
507.198	15539.65
507.401	15572.41
507.604	15658.43
507.807	15904.18
508.009	16274.87
508.212	16385.46
508.415	16487.86
508.617	16539.05
508.82	16565.68
509.022	16741.8
509.225	17225.12
509.428	17251.75
509.63	17245.6
509.833	17354.15
510.035	17851.8
510.238	17837.47
510.44	17946.01
510.643	18425.23
510.845	18310.55
511.048	18294.16
511.25	18529.68
511.453	18703.76
511.655	19418.5
511.858	19154.31
512.06	19256.71
512.262	19631.49
512.465	19371.4
512.667	19912.06
512.87	20163.96
513.072	20127.1
513.274	20471.15
513.477	20639.09
513.679	20876.65
513.881	20972.91
514.084	21032.3
514.286	21271.91
514.488	21265.77
514.69	21802.33
514.893	21990.75
515.095	21962.08
515.297	22199.64
515.499	22422.87
515.701	22500.69
515.904	22930.76
516.106	22621.52
516.308	23229.77
516.51	23151.95
516.712	23260.49
516.914	23633.22
517.116	23895.36
517.318	24284.47
517.52	23997.76
517.722	24374.58
517.925	24376.63
518.127	24898.86
518.329	25156.91
518.531	24829.23
518.733	25554.21
518.935	25634.08
519.136	25812.26
519.338	25888.03
519.54	26094.88
519.742	26344.73
519.944	26570.01
520.146	27008.27
520.348	27016.46
520.55	26881.3
520.752	27323.66
520.954	27684.1
521.155	27489.54
521.357	27669.76
521.559	27804.93
521.761	28337.4
521.963	28482.81
522.164	28380.41
522.366	28484.86
522.568	29041.9
522.77	29103.34
522.971	29295.85
523.173	29129.97
523.375	29580.52
523.576	29377.77
523.778	29584.62
523.98	30033.12
524.181	30053.6
524.383	29938.91
524.584	30295.26
524.786	30473.43
524.988	30639.32
525.189	30801.11
525.391	30909.65
525.592	31077.58
525.794	31266
525.995	31401.16
526.197	31433.93
526.398	31620.3
526.6	31261.9
526.801	31507.66
527.003	31472.84
527.204	31632.58
527.406	32042.18
527.607	32167.1
527.808	32068.8
528.01	31970.5
528.211	32062.66
528.412	32806.07
528.614	32619.7
528.815	32625.85
529.016	32703.67
529.218	32804.02
529.419	32799.93
529.62	32617.66
529.822	32715.96
530.023	32853.17
530.224	32550.07
530.425	33168.56
530.626	32867.51
530.828	32801.97
531.029	33162.42
531.23	32828.6
531.431	33105.07
531.632	33356.97
531.833	33258.67
532.035	33082.55
532.236	33471.66
532.437	33758.38
532.638	32873.65
532.839	33641.64
533.04	33402.03
533.241	33260.72
533.442	33805.48
533.643	33524.91
533.844	33455.28
534.045	33696.94
534.246	33461.42
534.447	33553.58
534.648	33316.01
534.849	33557.67
535.05	33250.48
535.251	33529
535.451	33619.11
535.652	33760.42
535.853	33840.29
536.054	33684.65
536.255	33705.13
536.456	33385.65
536.657	34213.02
536.857	33553.58
537.058	33363.12
537.259	33774.76
537.46	33463.47
537.66	33553.58
537.861	33572.01
538.062	33324.21
538.263	33453.23
538.463	33707.18
538.664	33563.82
538.865	33395.89
539.065	33823.91
539.266	33215.66
539.466	33871.01
539.667	33281.2
539.868	34079.91
540.068	33408.17
540.269	33660.07
540.469	33576.11
540.67	33356.97
540.87	33428.65
541.071	33506.48
541.271	33625.26
541.472	33621.16
541.672	33107.12
541.873	33543.34
542.073	32947.38
542.274	34032.8
542.474	33543.34
542.675	32951.48
542.875	33846.44
543.075	33166.51
543.276	32947.38
543.476	34098.34
543.676	33348.78
543.877	33184.94
544.077	33438.89
544.277	33348.78
544.478	33397.93
544.678	33234.1
544.878	33266.86
545.078	33438.89
545.279	33402.03
545.479	32898.23
545.679	33283.25
545.879	32883.89
546.079	33119.41
546.28	32963.76
546.48	32867.51
546.68	33594.54
546.88	33420.46
547.08	33090.74
547.28	33344.69
547.48	32707.77
547.68	33184.94
547.88	32703.67
548.081	33301.68
548.281	33103.03
548.481	32730.3
548.681	33463.47
548.881	33037.49
549.081	32998.58
549.28	32969.91
549.48	32867.51
549.68	32959.67
549.88	33209.52
550.08	32812.21
550.28	32711.86
550.48	32990.39
550.68	33060.02
550.88	32963.76
551.08	33172.66
551.279	32801.97
551.479	32644.28
551.679	33000.63
551.879	32787.64
552.079	33273.01
552.278	32982.2
552.478	32767.16
552.678	33031.35
552.878	33008.82
553.077	32832.69
553.277	32304.32
553.477	33434.8
553.676	32615.61
553.876	32943.28
554.076	32660.66
554.275	33166.51
554.475	32519.35
554.674	32754.87
554.874	32814.26
555.074	32369.85
555.273	32482.49
555.473	32752.82
555.672	32249.02
555.872	32341.18
556.071	32666.81
556.271	32453.82
556.47	32631.99
556.67	32322.75
556.869	31923.4
557.068	32359.61
557.268	32195.78
557.467	32140.48
557.667	32289.98
557.866	32064.71
558.065	32005.31
558.265	31857.86
558.464	31900.87
558.663	32646.33
558.863	31669.45
559.062	32044.23
559.261	31503.56
559.461	32136.38
559.66	31896.77
559.859	31737.03
560.058	31941.83
560.258	31933.64
560.457	31581.38
560.656	31943.88
560.855	31478.99
561.054	31554.76
561.253	31268.05
561.453	31714.5
561.652	31509.71
561.851	31462.6
562.05	31278.29
562.249	31261.9
562.448	31626.44
562.647	31534.28
562.846	31503.56
563.045	31184.08
563.244	31149.26
563.443	31169.74
563.642	30713.05
563.841	31188.17
564.04	31270.09
564.239	31220.94
564.438	30506.2
564.637	30876.88
564.836	30917.84
565.035	30315.74
565.234	30991.57
565.432	30328.03
565.631	30285.02
565.83	30807.25
566.029	30915.79
566.228	30160.09
566.427	30278.88
566.625	30455
566.824	29721.83
567.023	30600.41
567.222	30053.6
567.42	30227.68
567.619	29969.63
567.818	29732.07
568.016	29912.29
568.215	29961.44
568.414	29805.8
568.612	30076.13
568.811	29437.16
569.01	29764.84
569.208	29541.61
569.407	29658.34
569.605	29363.43
569.804	29537.51
570.002	29635.81
570.201	29463.79
570.4	28908.79
570.598	29099.25
570.797	29289.71
570.995	29033.71
571.193	28914.93
571.392	29064.43
571.59	28779.76
571.789	28767.48
571.987	28644.6
572.186	28837.11
572.384	28812.53
572.582	28839.15
572.781	28716.28
572.979	28103.93
573.177	28476.66
573.376	28521.72
573.574	28255.48
573.772	28570.87
573.971	28294.39
574.169	27925.76
574.367	27884.8
574.565	28183.8
574.763	27950.34
574.962	27915.52
575.16	27688.2
575.358	27737.35
575.556	27340.04
575.754	27835.65
575.952	27677.96
576.151	27649.28
576.349	27061.52
576.547	27315.47
576.745	27540.74
576.943	27241.74
577.141	27155.72
577.339	27258.12
577.537	27112.72
577.735	26819.86
577.933	26690.84
578.131	27073.81
578.329	26641.68
578.527	26639.64
578.725	26711.32
578.923	26682.64
579.121	26674.45
579.319	26594.58
579.516	26668.31
579.714	26694.93
579.912	26242.33
580.11	26187.04
580.308	26506.52
580.506	26236.19
580.704	25636.13
580.901	26047.77
581.099	25947.42
581.297	25593.12
581.495	25562.4
581.692	26021.15
581.89	25767.2
582.088	25842.98
582.285	25707.81
582.483	25765.15
582.681	25576.74
582.878	25367.85
583.076	25398.57
583.274	25713.95
583.471	25167.15
583.669	25378.09
583.866	24843.57
584.064	24991.02
584.262	24773.94
584.459	24915.25
584.657	24827.18
584.854	25158.95
585.052	24737.07
585.249	24964.4
585.447	25269.55
585.644	24257.85
585.841	24581.43
586.039	24640.82
586.236	24448.31
586.434	24216.89
586.631	24239.42
586.828	24522.04
587.026	24145.21
587.223	24311.1
587.42	24220.99
587.618	24290.62
587.815	23856.45
588.012	23725.38
588.21	23725.38
588.407	23719.23
588.604	23788.86
588.801	23385.41
588.999	23799.1
589.196	23409.99
589.393	23469.38
589.59	23266.63
589.787	23131.47
589.984	23332.17
590.182	23049.55
590.379	22912.33
590.576	22920.52
590.773	23045.45
590.97	22549.84
591.167	22875.47
591.364	22515.03
591.561	22830.41
591.758	22484.31
591.955	22652.24
592.152	22693.2
592.349	22410.58
592.546	22386.01
592.743	22158.68
592.94	21998.94
593.137	22123.87
593.334	22349.14
593.531	22021.47
593.727	22426.96
593.924	22082.91
594.121	21831.01
594.318	21927.26
594.515	21394.79
594.712	21720.42
594.908	21820.77
595.105	21710.18
595.302	21499.23
595.499	21218.66
595.696	21634.4
595.892	21372.26
596.089	21212.52
596.286	21286.25
596.482	21265.77
596.679	21042.54
596.876	20997.48
597.072	20907.37
597.269	21161.32
597.466	20880.75
597.662	20790.64
597.859	20614.51
598.055	20637.04
598.252	20284.79
598.448	20495.73
598.645	20477.3
598.841	20311.41
599.038	20448.63
599.234	20471.15
599.431	20487.54
599.627	20319.6
599.824	20266.36
600.02	20067.7
600.217	20016.51
600.413	20065.66
600.609	19920.25
600.806	19869.05
601.002	19981.69
601.198	19727.74
601.395	19895.68
601.591	19641.73
601.787	19768.7
601.984	19606.91
602.18	19686.78
602.376	19199.37
602.572	19520.9
602.769	19572.1
602.965	19361.16
603.161	19236.23
603.357	19111.3
603.553	18949.51
603.75	19094.92
603.946	18836.88
604.142	19035.53
604.338	18828.68
604.534	19051.91
604.73	18812.3
604.926	18574.74
605.122	18961.8
605.318	18394.51
605.514	18328.98
605.71	18484.62
605.906	18478.48
606.102	18492.82
606.298	18417.04
606.494	18206.1
606.69	18412.95
606.886	18353.55
607.082	17984.92
607.278	18091.41
607.474	18140.57
607.67	18017.69
607.866	17806.75
608.062	18083.22
608.257	17851.8
608.453	17841.56
608.649	17687.96
608.845	17661.34
609.041	17900.95
609.236	17880.47
609.432	17833.37
609.628	17800.6
609.824	17624.48
610.019	17616.29
610.215	17526.18
610.411	17571.23
610.606	17544.61
610.802	17671.58
610.998	17198.5
611.193	17454.5
611.389	17339.81
611.584	17259.94
611.78	17065.38
611.976	17270.18
612.171	17427.87
612.367	16932.26
612.562	16883.11
612.758	16774.57
612.953	16872.87
613.149	17067.43
613.344	16629.16
613.539	17223.08
613.735	17216.93
613.93	16948.65
614.126	16842.15
614.321	17141.16
614.517	16799.15
614.712	16879.02
614.907	16637.36
615.103	16885.16
615.298	16737.71
615.493	16919.98
615.688	16463.28
615.884	16489.9
616.079	16502.19
616.274	16709.04
616.47	16278.96
616.665	16528.81
616.86	16305.59
617.055	16160.18
617.25	16350.64
617.445	16481.71
617.641	16225.72
617.836	16240.05
618.031	16170.42
618.226	16068.02
618.421	15893.94
618.616	16250.29
618.811	15783.35
619.006	16098.74
619.201	15674.81
619.396	16108.98
619.591	15738.3
619.786	15842.74
619.981	15533.5
620.176	15437.25
620.371	15384
620.566	15601.08
620.761	15519.17
620.956	15670.72
621.151	15095.24
621.346	15310.27
621.541	15054.28
621.735	15205.83
621.93	14867.91
622.125	15134.15
622.32	14532.04
622.515	14753.23
622.709	14728.65
622.904	14654.92
623.099	14642.64
623.294	14511.57
623.488	14400.97
623.683	14495.18
623.878	14167.51
624.072	14470.61
624.267	14077.4
624.462	13911.51
624.656	13848.02
624.851	13917.65
625.046	13880.79
625.24	13848.02
625.435	13667.8
625.629	13694.43
625.824	13399.52
626.018	13649.37
626.213	13497.82
626.407	13473.25
626.602	13110.75
626.796	13118.95
626.991	13284.83
627.185	13090.27
627.38	13069.8
627.574	12905.96
627.768	12652.01
627.963	12707.3
628.157	12705.26
628.352	12733.93
628.546	12363.25
628.74	12555.76
628.935	12340.72
629.129	12336.62
629.323	12248.56
629.517	12232.18
629.712	12056.05
629.906	12205.55
630.1	11959.8
630.294	11918.84
630.489	12023.28
630.683	11929.08
630.877	11742.71
631.071	11589.11
631.265	11802.1
631.459	11595.26
631.653	11390.46
631.848	11699.7
632.042	11359.74
632.236	11499
632.43	11357.69
632.624	11390.46
632.818	11032.07
633.012	11048.45
633.206	11036.16
633.4	11154.94
633.594	10780.17
633.788	10909.19
633.982	10952.2
634.176	10931.72
634.369	10645
634.563	10704.39
634.757	10563.08
634.951	10614.28
635.145	10493.45
635.339	10487.31
635.533	10464.78
635.726	10538.51
635.92	10376.72
636.114	10300.94
636.308	10038.8
636.501	10137.1
636.695	10155.54
636.889	10282.51
637.083	9969.17
637.276	10102.29
637.47	10018.32
637.664	9954.83
637.857	9821.72
638.051	9917.97
638.244	9641.5
638.438	9659.93
638.632	9735.7
638.825	9651.74
639.019	9598.49
639.212	9586.2
639.406	9442.84
639.599	9405.98
639.793	9192.99
639.986	9184.8
640.18	9295.39
640.373	9201.18
640.567	9182.75
640.76	8969.76
640.954	9027.1
641.147	9004.58
641.34	8973.86
641.534	8617.51
641.727	8564.26
641.92	8840.74
642.114	8982.05
642.307	8744.49
642.5	8625.7
642.694	8594.98
642.887	8472.11
643.08	8635.94
643.273	8648.23
643.467	8328.75
643.66	8224.3
643.853	8381.99
644.046	8283.69
644.239	8269.36
644.432	8322.6
644.626	8035.89
644.819	8013.36
645.012	8150.57
645.205	8123.95
645.398	8187.44
645.591	8064.56
645.784	7978.54
645.977	8031.79
646.17	7960.11
646.363	7843.38
646.556	7781.94
646.749	7734.84
646.942	7786.04
647.135	7788.08
647.328	7519.8
647.521	7759.41
647.714	7421.5
647.907	7370.3
648.099	7462.46
648.292	7562.81
648.485	7568.95
648.678	7392.83
648.871	7210.56
649.064	7333.43
649.256	7161.41
649.449	7155.26
649.642	7024.19
649.835	7134.78
650.027	6929.98
650.22	6860.35
650.413	6921.79
650.605	7044.67
650.798	6964.8
650.991	6886.98
651.183	6874.69
651.376	6843.97
651.568	6725.19
651.761	6680.13
651.954	6612.55
652.146	6776.39
652.339	6600.26
652.531	6667.84
652.724	6401.61
652.916	6526.54
653.109	6467.14
653.301	6377.03
653.494	6434.38
653.686	6350.41
653.879	6436.42
654.071	6366.79
654.263	6272.59
654.456	6411.85
654.648	6413.9
654.84	6071.89
655.033	6108.75
655.225	6174.28
655.417	6084.17
655.61	6092.37
655.802	6170.19
655.994	6012.49
656.186	5901.9
656.379	5973.58
656.571	5856.85
656.763	5873.23
656.955	5856.85
657.148	5873.23
657.34	5928.53
657.532	5852.75
657.724	5725.78
657.916	5641.81
658.108	5754.45
658.3	5723.73
658.492	5762.64
658.684	5494.36
658.876	5625.43
659.068	5543.51
659.26	5563.99
659.452	5574.23
659.644	5592.66
659.836	5336.67
660.028	5424.73
660.22	5189.21
660.412	5250.65
660.604	5387.86
660.796	5375.58
660.988	5262.94
661.18	5191.26
661.372	5367.38
661.563	5271.13
661.755	5097.05
661.947	5168.73
662.139	5260.89
662.331	5135.96
662.522	4945.5
662.714	5105.24
662.906	4972.13
663.097	4920.93
663.289	4879.97
663.481	4882.02
663.673	5101.15
663.864	4791.91
664.056	4873.82
664.247	4935.26
664.439	4912.74
664.631	4822.63
664.822	4800.1
665.014	4812.39
665.205	4832.86
665.397	4695.65
665.588	4882.02
665.78	4709.99
665.971	4867.68
666.163	4560.49
666.354	4662.88
666.546	4456.04
666.737	4591.2
666.929	4476.52
667.12	4478.57
667.311	4552.29
667.503	4413.03
667.694	4499.05
667.885	4591.2
668.077	4404.84
668.268	4445.8
668.459	4443.75
668.651	4337.26
668.842	4347.5
669.033	4312.68
669.224	4294.25
669.416	4363.88
669.607	4337.26
669.798	4300.39
669.989	4255.34
670.18	4214.38
670.371	4275.82
670.563	4222.57
670.754	4189.8
670.945	4124.27
671.136	4261.48
671.327	4107.88
671.518	3995.25
671.709	4193.9
671.9	4191.85
672.091	4097.64
672.282	4107.88
672.473	3997.29
672.664	3976.81
672.855	3999.34
673.046	4087.4
673.237	3987.05
673.428	3896.94
673.619	4017.77
673.809	3823.22
674	3958.38
674.191	3894.9
674.382	3972.72
674.573	4032.11
674.764	3860.08
674.954	3931.76
675.145	3812.98
675.336	3808.88
675.527	3671.67
675.717	3788.4
675.908	3888.75
676.099	3798.64
676.289	3726.96
676.48	3763.83
676.671	3735.15
676.861	3796.59
677.052	3700.34
677.243	3663.47
677.433	3589.75
677.624	3591.8
677.814	3718.77
678.005	3745.39
678.195	3653.23
678.386	3698.29
678.576	3550.84
678.767	3538.55
678.957	3649.14
679.148	3683.95
679.338	3581.56
679.529	3577.46
679.719	3462.77
679.909	3655.28
680.1	3530.36
680.29	3595.89
680.481	3630.71
680.671	3753.59
680.861	3487.35
681.052	3544.69
681.242	3587.7
681.432	3563.12
681.622	3507.83
681.813	3671.67
682.003	3583.6
682.193	3397.24
682.383	3479.16
682.573	3534.45
682.764	3380.86
682.954	3493.49
683.144	3419.77
683.334	3319.42
683.524	3462.77
683.714	3544.69
683.904	3419.77
684.094	3360.38
684.284	3462.77
684.474	3483.25
684.664	3450.49
684.854	3288.7
685.044	3391.09
685.234	3362.42
685.424	3362.42
685.614	3434.1
685.804	3214.97
685.994	3317.37
686.184	3366.52
686.374	3294.84
686.564	3409.53
686.753	3339.9
686.943	3159.67
687.133	3075.71
687.323	3241.59
687.513	3329.66
687.702	3149.43
687.892	3159.67
688.082	3180.15
688.272	3243.64
688.461	3106.43
688.651	3149.43
688.841	3067.52
689.03	3016.32
689.22	2971.26
689.41	3067.52
689.599	3071.61
689.789	3049.08
689.979	3088
690.168	3004.03
690.358	2977.41
690.547	2987.65
690.737	2985.6
690.926	3001.98
691.116	2950.78
691.305	2999.93
691.495	2901.63
691.684	2934.4
691.874	2803.33
692.063	2969.21
692.252	2856.58
692.442	2819.71
692.631	2659.97
692.82	2985.6
693.01	2948.73
693.199	2803.33
693.388	2725.51
693.578	2788.99
693.767	2657.92
693.956	2713.22
694.146	2756.22
694.335	2709.12
694.524	2582.15
694.713	2672.26
694.902	2629.25
695.092	2619.01
695.281	2682.5
695.47	2641.54
695.659	2791.04
695.848	2580.1
696.037	2563.72
696.226	2662.02
696.415	2594.44
696.604	2686.59
696.793	2555.52
696.982	2668.16
697.171	2674.31
697.36	2481.8
697.549	2363.01
697.738	2494.08
697.927	2616.96
698.116	2530.95
698.305	2557.57
698.494	2563.72
698.683	2545.28
698.872	2528.9
699.061	2436.74
699.25	2496.13
699.438	2432.65
699.627	2471.56
699.816	2557.57
700.005	2549.38
700.193	2520.71
700.382	2496.13
700.571	2547.33
700.76	2514.56
700.948	2485.89
701.137	2348.68
701.326	2264.71
701.514	2383.49
701.703	2354.82
701.892	2326.15
702.08	2502.28
702.269	2479.75
702.457	2451.08
702.646	2524.8
702.834	2393.73
703.023	2506.37
703.212	2485.89
703.4	2360.97
703.589	2389.64
703.777	2518.66
703.965	2367.11
704.154	2399.88
704.342	2406.02
704.531	2287.24
704.719	2389.64
704.907	2293.38
705.096	2315.91
705.284	2295.43
705.472	2285.19
705.661	2389.64
705.849	2317.96
706.037	2348.68
706.226	2352.77
706.414	2393.73
706.602	2401.93
706.79	2295.43
706.979	2375.3
707.167	2340.49
707.355	2193.03
707.543	2289.29
707.731	2365.06
707.919	2340.49
708.107	2238.09
708.296	2289.29
708.484	2322.06
708.672	2227.85
708.86	2309.77
709.048	2287.24
709.236	2217.61
709.424	2401.93
709.612	2393.73
709.8	2311.82
709.988	2240.14
710.176	2342.53
710.364	2320.01
710.551	2225.8
710.739	2277
710.927	2272.9
711.115	2233.99
711.303	2412.17
711.491	2305.67
711.679	2252.42
711.866	2250.38
712.054	2277
712.242	2176.65
712.43	2248.33
712.617	2127.5
712.805	2266.76
712.993	2203.27
713.181	2277
713.368	2154.12
713.556	2283.14
713.744	2262.66
713.931	2360.97
714.119	2186.89
714.306	2293.38
714.494	2309.77
714.682	2162.31
714.869	2219.66
715.057	2147.98
715.244	2150.03
715.432	2252.42
715.619	2186.89
715.807	2172.55
715.994	2268.81
716.182	2201.23
716.369	2170.51
716.556	2238.09
716.744	2246.28
716.931	2186.89
717.119	2309.77
717.306	2299.53
717.493	2190.99
717.681	2211.46
717.868	2102.92
718.055	2221.7
718.242	2094.73
718.43	2180.75
718.617	2190.99
718.804	2281.1
718.991	2201.23
719.179	2207.37
719.366	2195.08
719.553	2193.03
719.74	2283.14
719.927	2322.06
720.114	2236.04
720.301	2209.42
720.488	2217.61
720.676	2225.8
720.863	2223.75
721.05	2213.51
721.237	2180.75
721.424	2281.1
721.611	2209.42
721.798	2233.99
721.985	2170.51
722.172	2088.59
722.358	2154.12
722.545	2231.94
722.732	2252.42
722.919	2240.14
723.106	2176.65
723.293	2188.94
723.48	2162.31
723.667	2176.65
723.853	2197.13
724.04	2162.31
724.227	2162.31
724.414	2201.23
724.6	2127.5
724.787	2274.95
724.974	2252.42
725.161	2244.23
725.347	2164.36
725.534	2162.31
725.72	2162.31
725.907	2223.75
726.094	2207.37
726.28	2178.7
726.467	2158.22
726.653	2213.51
726.84	2248.33
727.027	2281.1
727.213	2285.19
727.4	2193.03
727.586	2203.27
727.773	2209.42
727.959	2311.82
728.145	2215.56
728.332	2283.14
728.518	2207.37
728.705	2299.53
728.891	2107.02
729.077	2168.46
729.264	2309.77
729.45	2166.41
729.636	2297.48
729.823	2268.81
730.009	2293.38
730.195	2152.07
730.382	2227.85
730.568	2160.27
730.754	2213.51
730.94	2223.75
731.126	2334.34
731.313	2340.49
731.499	2256.52
731.685	2383.49
731.871	2213.51
732.057	2373.25
732.243	2270.86
732.429	2258.57
732.615	2336.39
732.801	2227.85
732.987	2293.38
733.173	2371.21
733.359	2203.27
733.545	2262.66
733.731	2254.47
733.917	2207.37
734.103	2336.39
734.289	2289.29
734.475	2264.71
734.661	2285.19
734.847	2330.25
735.033	2420.36
735.219	2315.91
735.404	2281.1
735.59	2252.42
735.776	2240.14
735.962	2344.58
736.148	2315.91
736.333	2430.6
736.519	2293.38
736.705	2322.06
736.89	2311.82
737.076	2455.17
737.262	2303.62
737.447	2250.38
737.633	2256.52
737.819	2385.54
738.004	2242.18
738.19	2291.34
738.375	2188.94
738.561	2334.34
738.747	2129.55
738.932	2195.08
739.118	2383.49
739.303	2277
739.489	2348.68
739.674	2332.3
739.859	2172.55
740.045	2342.53
740.23	2170.51
740.416	2233.99
740.601	2246.28
740.786	2205.32
740.972	2287.24
741.157	2272.9
741.342	2188.94
741.528	2326.15
741.713	2238.09
741.898	2238.09
742.084	2320.01
742.269	2277
742.454	2205.32
742.639	2174.6
742.824	2182.79
743.01	2176.65
743.195	2342.53
743.38	2172.55
743.565	2082.44
743.75	2129.55
743.935	2076.3
744.12	2221.7
744.305	2100.87
744.49	2209.42
744.675	2164.36
744.86	2211.46
745.045	2205.32
745.23	2166.41
745.415	2123.4
745.6	2117.26
745.785	2184.84
745.97	2078.35
746.155	2045.58
746.34	2127.5
746.525	2147.98
746.71	2147.98
746.895	2070.16
747.079	2119.31
747.264	2086.54
747.449	2027.15
747.634	2078.35
747.819	2129.55
748.003	2039.44
748.188	2104.97
748.373	2049.68
748.557	1891.98
748.742	2068.11
748.927	1932.94
749.111	2006.67
749.296	2006.67
749.481	1937.04
749.665	1867.41
749.85	1926.8
750.034	1916.56
750.219	2004.62
750.404	1756.82
750.588	1826.45
750.773	1840.78
750.957	1988.24
751.141	1855.12
751.326	1914.51
751.51	1812.11
751.695	1896.08
751.879	1867.41
752.064	1828.49
752.248	1904.27
752.432	1855.12
752.617	1834.64
752.801	1871.5
752.985	1816.21
753.17	1701.52
753.354	1670.8
753.538	1859.21
753.722	1705.62
753.907	1605.27
754.091	1681.04
754.275	1691.28
754.459	1689.23
754.643	1603.22
754.828	1744.53
755.012	1574.55
755.196	1707.66
755.38	1656.47
755.564	1566.35
755.748	1652.37
755.932	1693.33
756.116	1584.79
756.3	1750.67
756.484	1564.31
756.668	1451.67
756.852	1552.02
757.036	1484.44
757.22	1488.53
757.404	1423
757.588	1513.11
757.772	1521.3
757.956	1562.26
758.14	1521.3
758.323	1461.91
758.507	1535.64
758.691	1425.04
758.875	1504.92
759.059	1359.51
759.242	1326.74
759.426	1427.09
759.61	1476.24
759.794	1429.14
759.977	1447.57
760.161	1363.61
760.345	1408.66
760.528	1361.56
760.712	1345.17
760.895	1400.47
761.079	1369.75
761.263	1359.51
761.446	1341.08
761.63	1363.61
761.813	1351.32
761.997	1322.65
762.18	1332.89
762.364	1304.21
762.547	1214.1
762.731	1275.54
762.914	1167
763.098	1289.88
763.281	1205.91
763.464	1248.92
763.648	1154.71
763.831	1234.58
764.015	1306.26
764.198	1300.12
764.381	1248.92
764.564	1222.3
764.748	1234.58
764.931	1279.64
765.114	1187.48
765.297	1195.67
765.481	1238.68
765.664	1232.54
765.847	1169.05
766.03	1105.56
766.213	1126.04
766.397	1210.01
766.58	1179.29
766.763	1191.58
766.946	1199.77
767.129	1160.86
767.312	1183.38
767.495	1179.29
767.678	1144.47
767.861	1148.57
768.044	1148.57
768.227	1126.04
768.41	1101.47
768.593	1164.95
768.776	1091.23
768.959	1062.55
769.142	1003.16
769.324	1140.38
769.507	958.11
769.69	1056.41
769.873	1134.23
770.056	1160.86
770.239	1040.03
770.421	1029.79
770.604	1025.69
770.787	1040.03
770.97	1101.47
771.152	1042.07
771.335	1005.21
771.518	1011.36
771.7	1103.51
771.883	1177.24
772.066	964.25
772.248	988.83
772.431	1074.84
772.613	1011.36
772.796	908.96
772.978	1042.07
773.161	1015.45
773.343	982.68
773.526	911
773.708	935.58
773.891	976.54
774.073	954.01
774.256	1003.16
774.438	1005.21
774.621	919.2
774.803	947.87
774.985	888.48
775.168	892.57
775.35	868
775.532	865.95
775.715	913.05
775.897	927.39
776.079	851.61
776.261	863.9
776.444	820.89
776.626	784.03
776.808	886.43
776.99	855.71
777.173	868
777.355	773.79
777.537	804.51
777.719	784.03
777.901	849.57
778.083	827.04
778.265	775.84
778.447	761.5
778.629	720.54
778.811	802.46
778.993	753.31
779.175	724.64
779.357	777.89
779.539	786.08
779.721	642.72
779.903	741.02
780.085	788.13
780.267	769.69
780.449	763.55
780.631	747.17
780.812	726.69
780.994	708.26
781.176	663.2
781.358	689.82
781.54	708.26
781.721	657.06
781.903	712.35
782.085	738.98
782.267	655.01
782.448	675.49
782.63	609.95
782.812	646.82
782.993	655.01
783.175	581.28
783.357	712.35
783.538	542.37
783.72	603.81
783.901	636.58
784.083	695.97
784.264	517.79
784.446	544.42
784.627	630.43
784.809	616.1
784.99	521.89
785.172	599.71
785.353	562.85
785.535	587.43
785.716	560.8
785.897	517.79
786.079	614.05
786.26	515.75
786.441	538.27
786.623	515.75
786.804	505.51
786.985	587.43
787.167	566.95
787.348	587.43
787.529	519.84
787.71	556.71
787.891	550.56
788.073	491.17
788.254	509.6
788.435	558.75
788.616	566.95
788.797	476.84
788.978	515.75
789.159	460.45
789.34	482.98
789.522	433.83
789.703	515.75
789.884	435.88
790.065	462.5
790.246	448.16
790.427	501.41
790.607	603.81
790.788	437.92
790.969	476.84
791.15	489.12
791.331	435.88
791.512	327.33
791.693	423.59
791.874	407.2
792.054	425.64
792.235	458.4
792.416	378.53
792.597	470.69
792.778	468.64
792.958	417.44
793.139	425.64
793.32	349.86
793.5	374.44
793.681	517.79
793.862	349.86
794.042	384.68
794.223	290.47
794.404	444.07
794.584	345.77
794.765	315.05
794.945	337.57
795.126	356.01
795.306	415.4
795.487	362.15
795.667	345.77
795.848	421.54
796.028	321.19
796.209	378.53
796.389	411.3
796.57	339.62
796.75	351.91
796.93	323.24
797.111	396.96
797.291	372.39
797.471	386.72
797.652	370.34
797.832	304.81
798.012	319.14
798.192	272.04
798.373	257.7
798.553	294.57
798.733	333.48
798.913	360.1
799.093	317.09
799.274	308.9
799.454	345.77
799.634	360.1
799.814	310.95
799.994	276.13
800.174	362.15
800.354	302.76
800.534	239.27
800.714	343.72
800.894	276.13
801.074	292.52
801.254	276.13
801.434	329.38
801.614	308.9
801.794	296.61
801.974	890.53
802.154	274.09
802.334	282.28
802.514	267.94
802.693	339.62
802.873	300.71
803.053	269.99
803.233	360.1
803.413	317.09
803.592	222.89
803.772	294.57
803.952	261.8
804.131	202.41
804.311	226.98
804.491	317.09
804.67	249.51
804.85	253.61
805.03	280.23
805.209	388.77
805.389	284.33
805.568	294.57
805.748	243.37
805.928	224.94
806.107	292.52
806.287	224.94
806.466	321.19
806.646	321.19
806.825	237.22
807.004	374.44
807.184	233.13
807.363	302.76
807.543	233.13
807.722	218.79
807.901	231.08
808.081	239.27
808.26	179.88
808.439	315.05
808.619	265.89
808.798	241.32
808.977	235.18
809.156	261.8
809.336	167.59
809.515	210.6
809.694	192.17
809.873	218.79
810.052	224.94
810.231	208.55
810.411	179.88
810.59	251.56
810.769	208.55
810.948	161.45
811.127	134.82
811.306	263.85
811.485	120.49
811.664	263.85
811.843	214.7
812.022	206.5
812.201	179.88
812.38	165.54
812.559	183.98
812.737	198.31
812.916	169.64
813.095	218.79
813.274	229.03
813.453	220.84
813.632	124.58
813.811	102.06
813.989	167.59
814.168	136.87
814.347	239.27
814.526	192.17
814.704	245.41
814.883	259.75
815.062	206.5
815.24	200.36
815.419	173.74
815.598	249.51
815.776	159.4
815.955	200.36
816.133	147.11
816.312	167.59
816.49	181.93
816.669	183.98
816.847	239.27
817.026	177.83
817.204	202.41
817.383	153.26
817.561	206.5
817.74	91.82
817.918	120.49
818.097	163.5
818.275	110.25
818.453	161.45
818.632	145.06
818.81	143.02
818.988	157.35
819.167	186.02
819.345	140.97
819.523	216.74
819.701	175.78
819.879	132.78
820.058	81.58
820.236	145.06
820.414	190.12
820.592	149.16
820.77	130.73
820.948	157.35
821.127	124.58
821.305	140.97
821.483	110.25
821.661	138.92
821.839	87.72
822.017	175.78
822.195	108.2
822.373	108.2
822.551	128.68
822.729	237.22
822.907	143.02
823.085	83.63
823.262	77.48
823.44	153.26
823.618	159.4
823.796	200.36
823.974	100.01
824.152	132.78
824.329	155.3
824.507	134.82
824.685	138.92
824.863	143.02
825.04	167.59
825.218	89.77
825.396	138.92
825.574	136.87
825.751	-2.39
825.929	132.78
826.107	81.58
826.284	75.43
826.462	100.01
826.639	91.82
826.817	161.45
826.994	145.06
827.172	108.2
827.349	151.21
827.527	54.95
827.704	134.82
827.882	149.16
828.059	181.93
828.237	130.73
828.414	110.25
828.591	106.15
828.769	134.82
828.946	38.57
829.124	143.02
829.301	190.12
829.478	161.45
829.655	181.93
829.833	124.58
830.01	91.82
830.187	161.45
830.364	157.35
830.542	132.78
830.719	116.39
830.896	30.38
831.073	186.02
831.25	122.54
831.427	188.07
831.604	69.29
831.782	102.06
831.959	149.16
832.136	118.44
832.313	177.83
832.49	3.75
832.667	149.16
832.844	100.01
833.021	169.64
833.198	132.78
833.374	79.53
833.551	112.3
833.728	122.54
833.905	38.57
834.082	87.72
834.259	108.2
834.436	118.44
834.612	85.67
834.789	153.26
834.966	112.3
835.143	110.25
835.319	130.73
835.496	100.01
835.673	138.92
835.85	52.91
836.026	34.47
836.203	61.1
836.38	87.72
836.556	81.58
836.733	73.39
836.909	79.53
837.086	91.82
837.262	48.81
837.439	81.58
837.616	112.3
837.792	130.73
837.968	89.77
838.145	36.52
838.321	20.14
838.498	36.52
838.674	136.87
838.851	54.95
839.027	61.1
839.203	44.71
839.38	155.3
839.556	-59.73
839.732	91.82
839.909	104.11
840.085	126.63
840.261	77.48
840.437	85.67
840.614	77.48
840.79	89.77
840.966	69.29
841.142	46.76
841.318	57
841.494	18.09
841.671	102.06
841.847	136.87
842.023	89.77
842.199	128.68
842.375	73.39
842.551	75.43
842.727	28.33
842.903	102.06
843.079	36.52
843.255	181.93
843.431	118.44
843.607	67.24
843.783	54.95
843.959	124.58
844.134	79.53
844.31	71.34
844.486	54.95
844.662	36.52
844.838	67.24
845.013	81.58
845.189	83.63
845.365	112.3
845.541	18.09
845.716	75.43
845.892	110.25
846.068	85.67
846.244	77.48
846.419	132.78
846.595	16.04
846.77	28.33
846.946	52.91
847.122	52.91
847.297	118.44
847.473	112.3
847.648	79.53
847.824	73.39
847.999	13.99
848.175	89.77
848.35	63.15
848.526	79.53
848.701	102.06
848.876	73.39
849.052	106.15
849.227	112.3
849.403	13.99
849.578	89.77
849.753	112.3
849.929	73.39
850.104	26.28
850.279	13.99
850.454	50.86
850.63	-45.4
850.805	73.39
850.98	87.72
851.155	-41.3
851.33	38.57
851.505	97.96
851.681	36.52
851.856	134.82
852.031	69.29
852.206	57
852.381	106.15
852.556	36.52
852.731	30.38
852.906	91.82
853.081	65.19
853.256	81.58
853.431	87.72
853.606	57
853.781	20.14
853.956	5.8
854.131	52.91
854.305	77.48
854.48	24.23
854.655	28.33
854.83	-45.4
855.005	32.43
855.18	-0.34
855.354	73.39
855.529	89.77
855.704	-20.82
855.879	71.34
856.053	91.82
856.228	54.95
856.403	-45.4
856.577	7.85
856.752	44.71
856.926	-10.58
857.101	3.75
857.276	9.9
857.45	-35.16
857.625	3.75
857.799	110.25
857.974	48.81
858.148	44.71
858.323	122.54
858.497	40.62
858.672	89.77
858.846	63.15
859.02	81.58
859.195	52.91
859.369	69.29
859.543	11.95
859.718	114.34
859.892	52.91
860.066	13.99
860.241	32.43
860.415	24.23
860.589	-8.53
860.763	3.75
860.938	48.81
861.112	44.71
861.286	5.8
861.46	122.54
861.634	57
861.808	100.01
861.982	-10.58
862.157	-18.77
862.331	30.38
862.505	1.71
862.679	7.85
862.853	13.99
863.027	-26.96
863.201	5.8
863.375	-14.68
863.549	89.77
863.722	71.34
863.896	1.71
864.07	-26.96
864.244	73.39
864.418	7.85
864.592	16.04
864.766	65.19
864.939	54.95
865.113	-4.44
865.287	16.04
865.461	13.99
865.634	30.38
865.808	36.52
865.982	11.95
866.156	-61.78
866.329	-12.63
866.503	42.67
866.676	63.15
866.85	-12.63
867.024	57
867.197	22.19
867.371	1.71
867.544	-45.4
867.718	3.75
867.891	16.04
868.065	-61.78
868.238	-2.39
868.412	26.28
868.585	-0.34
868.759	28.33
868.932	-49.49
869.105	52.91
869.279	52.91
869.452	69.29
869.625	38.57
869.799	38.57
869.972	-59.73
870.145	106.15
870.319	9.9
870.492	-29.01
870.665	-14.68
870.838	7.85
871.011	5.8
871.185	1.71
871.358	-63.83
871.531	95.91
871.704	-4.44
871.877	38.57
872.05	-31.06
872.223	65.19
872.396	104.11
872.569	97.96
872.742	48.81
872.915	-45.4
873.088	67.24
873.261	-8.53
873.434	34.47
873.607	-16.73
873.78	104.11
873.953	-24.92
874.126	65.19
874.299	83.63
874.471	9.9
874.644	18.09
874.817	20.14
874.99	22.19
875.163	11.95
875.335	5.8
875.508	77.48
875.681	48.81
875.853	-8.53
876.026	-16.73
876.199	20.14
876.371	36.52
876.544	1.71
876.717	48.81
876.889	-63.83
877.062	130.73
877.234	89.77
877.407	-12.63
877.579	-6.49
877.752	46.76
877.924	57
878.097	65.19
878.269	91.82
878.442	-16.73
878.614	9.9
878.786	52.91
878.959	-41.3
879.131	18.09
879.303	65.19
879.476	-37.2
879.648	93.87
879.82	71.34
879.993	-26.96
880.165	85.67
880.337	-6.49
880.509	-47.44
880.681	-10.58
880.854	24.23
881.026	100.01
881.198	48.81
881.37	1.71
881.542	22.19
881.714	-10.58
881.886	-37.2
882.058	32.43
882.23	1.71
882.402	75.43
882.574	16.04
882.746	69.29
882.918	52.91
883.09	108.2
883.262	108.2
883.434	-12.63
883.606	61.1
883.778	-20.82
883.95	18.09
884.122	44.71
884.293	95.91
884.465	65.19
884.637	36.52
884.809	-4.44
884.98	52.91
885.152	110.25
885.324	50.86
885.496	-59.73
885.667	-20.82
885.839	67.24
886.011	104.11
886.182	32.43
886.354	71.34
886.525	79.53
886.697	40.62
886.869	-63.83
887.04	-0.34
887.212	71.34
887.383	52.91
887.555	44.71
887.726	13.99
887.897	-39.25
888.069	13.99
888.24	-2.39
888.412	108.2
888.583	46.76
888.754	34.47
888.926	-74.07
889.097	24.23
889.268	-49.49
889.44	79.53
889.611	28.33
889.782	69.29
889.953	38.57
890.125	77.48
890.296	-33.11
890.467	36.52
890.638	-10.58
890.809	-14.68
890.98	-37.2
891.151	57
891.323	20.14
891.494	44.71
891.665	-2.39
891.836	-16.73
892.007	-24.92
892.178	36.52
892.349	79.53
892.52	-53.59
892.691	-16.73
892.862	3.75
893.032	-16.73
893.203	42.67
893.374	1.71
893.545	52.91
893.716	20.14
893.887	40.62
894.057	73.39
894.228	-8.53
894.399	11.95
894.57	89.77
894.74	36.52
894.911	40.62
895.082	-24.92
895.253	-12.63
895.423	-12.63
895.594	73.39
895.764	106.15
895.935	20.14
896.106	57
896.276	28.33
896.447	54.95
896.617	-31.06
896.788	-14.68
896.958	9.9
897.129	52.91
897.299	44.71
897.47	59.05
897.64	42.67
897.81	-35.16
897.981	81.58
898.151	42.67
898.322	-22.87
898.492	38.57
898.662	16.04
898.832	7.85
899.003	32.43
899.173	69.29
899.343	-41.3
899.513	13.99
