Data from USB4F104151__87__12-42-40-156.txt Node

Date: Fri Mar 14 12:42:40 EDT 2025
User: louis
Spectrometer: USB4F10415
Trigger mode: 4
Integration Time (sec): 3.000000E-2
Scans to average: 1
Electric dark correction enabled: true
Nonlinearity correction enabled: false
Boxcar width: 0
XAxis mode: Wavelengths
Number of Pixels in Spectrum: 3648
>>>>>Begin Spectral Data<<<<<
178.204	-139.6
178.424	-139.6
178.644	-139.6
178.864	-147.8
179.084	-158.03
179.304	116.39
179.524	-59.73
179.744	-8.53
179.964	-0.34
180.184	-39.25
180.404	26.28
180.624	52.91
180.844	24.23
181.064	-41.3
181.283	-10.58
181.503	-39.25
181.723	-20.82
181.943	-41.3
182.163	-24.92
182.383	54.95
182.602	104.11
182.822	7.85
183.042	-12.63
183.262	-18.77
183.482	54.95
183.701	1.71
183.921	52.91
184.141	34.47
184.361	28.33
184.58	75.43
184.8	11.95
185.02	57
185.239	-6.49
185.459	46.76
185.679	22.19
185.898	-39.25
186.118	36.52
186.338	13.99
186.557	104.11
186.777	30.38
186.997	42.67
187.216	93.87
187.436	126.63
187.655	89.77
187.875	52.91
188.095	73.39
188.314	42.67
188.534	140.97
188.753	16.04
188.973	5.8
189.192	130.73
189.412	61.1
189.631	-0.34
189.851	26.28
190.07	163.5
190.29	20.14
190.509	3.75
190.729	67.24
190.948	-10.58
191.168	116.39
191.387	100.01
191.607	30.38
191.826	3.75
192.045	30.38
192.265	57
192.484	-41.3
192.704	-39.25
192.923	-35.16
193.142	20.14
193.362	9.9
193.581	52.91
193.8	18.09
194.02	124.58
194.239	32.43
194.458	20.14
194.678	44.71
194.897	1.71
195.116	-24.92
195.335	42.67
195.555	44.71
195.774	57
195.993	-12.63
196.212	30.38
196.432	-16.73
196.651	-39.25
196.87	9.9
197.089	138.92
197.308	48.81
197.528	67.24
197.747	-12.63
197.966	-10.58
198.185	71.34
198.404	18.09
198.623	1.71
198.842	63.15
199.062	13.99
199.281	106.15
199.5	38.57
199.719	-43.35
199.938	52.91
200.157	61.1
200.376	26.28
200.595	40.62
200.814	69.29
201.033	32.43
201.252	-12.63
201.471	-2.39
201.69	54.95
201.909	54.95
202.128	110.25
202.347	65.19
202.566	1.71
202.785	40.62
203.004	-20.82
203.223	112.3
203.442	-0.34
203.661	16.04
203.879	-2.39
204.098	32.43
204.317	95.91
204.536	50.86
204.755	22.19
204.974	54.95
205.193	-55.64
205.411	61.1
205.63	-41.3
205.849	69.29
206.068	18.09
206.287	50.86
206.505	7.85
206.724	108.2
206.943	44.71
207.162	48.81
207.381	34.47
207.599	-18.77
207.818	36.52
208.037	28.33
208.255	34.47
208.474	79.53
208.693	79.53
208.911	36.52
209.13	32.43
209.349	54.95
209.567	-37.2
209.786	44.71
210.005	50.86
210.223	9.9
210.442	-12.63
210.661	59.05
210.879	13.99
211.098	20.14
211.316	20.14
211.535	63.15
211.753	75.43
211.972	36.52
212.191	7.85
212.409	91.82
212.628	48.81
212.846	83.63
213.065	50.86
213.283	79.53
213.502	81.58
213.72	48.81
213.938	59.05
214.157	59.05
214.375	59.05
214.594	-12.63
214.812	85.67
215.031	28.33
215.249	9.9
215.467	32.43
215.686	34.47
215.904	145.06
216.122	22.19
216.341	106.15
216.559	-4.44
216.778	28.33
216.996	48.81
217.214	91.82
217.432	61.1
217.651	57
217.869	-18.77
218.087	61.1
218.306	13.99
218.524	71.34
218.742	9.9
218.96	32.43
219.179	16.04
219.397	104.11
219.615	112.3
219.833	44.71
220.051	9.9
220.27	34.47
220.488	63.15
220.706	34.47
220.924	-4.44
221.142	46.76
221.36	22.19
221.578	30.38
221.796	36.52
222.015	57
222.233	-12.63
222.451	50.86
222.669	-8.53
222.887	106.15
223.105	11.95
223.323	71.34
223.541	30.38
223.759	93.87
223.977	40.62
224.195	16.04
224.413	50.86
224.631	57
224.849	46.76
225.067	34.47
225.285	28.33
225.503	69.29
225.721	-31.06
225.939	-22.87
226.157	24.23
226.375	116.39
226.592	50.86
226.81	-33.11
227.028	26.28
227.246	34.47
227.464	34.47
227.682	54.95
227.9	30.38
228.117	42.67
228.335	1.71
228.553	-80.21
228.771	42.67
228.989	46.76
229.206	-24.92
229.424	13.99
229.642	-10.58
229.86	57
230.077	69.29
230.295	24.23
230.513	22.19
230.731	77.48
230.948	124.58
231.166	87.72
231.384	-63.83
231.601	57
231.819	-29.01
232.037	-14.68
232.254	40.62
232.472	38.57
232.689	-4.44
232.907	9.9
233.125	46.76
233.342	36.52
233.56	59.05
233.777	36.52
233.995	108.2
234.213	106.15
234.43	-12.63
234.648	65.19
234.865	61.1
235.083	77.48
235.3	75.43
235.518	114.34
235.735	138.92
235.953	128.68
236.17	7.85
236.388	11.95
236.605	20.14
236.822	34.47
237.04	67.24
237.257	50.86
237.475	1.71
237.692	-6.49
237.909	40.62
238.127	7.85
238.344	9.9
238.562	50.86
238.779	-72.02
238.996	3.75
239.214	24.23
239.431	126.63
239.648	28.33
239.865	40.62
240.083	26.28
240.3	-4.44
240.517	1.71
240.735	24.23
240.952	118.44
241.169	57
241.386	30.38
241.603	5.8
241.821	-39.25
242.038	112.3
242.255	85.67
242.472	7.85
242.689	22.19
242.907	24.23
243.124	91.82
243.341	3.75
243.558	22.19
243.775	57
243.992	-12.63
244.209	69.29
244.426	30.38
244.643	30.38
244.86	57
245.078	57
245.295	89.77
245.512	63.15
245.729	-26.96
245.946	13.99
246.163	97.96
246.38	-16.73
246.597	79.53
246.814	57
247.031	-18.77
247.248	13.99
247.464	-0.34
247.681	16.04
247.898	9.9
248.115	-20.82
248.332	65.19
248.549	38.57
248.766	61.1
248.983	50.86
249.2	-14.68
249.417	9.9
249.633	50.86
249.85	69.29
250.067	3.75
250.284	67.24
250.501	48.81
250.717	69.29
250.934	-45.4
251.151	9.9
251.368	44.71
251.585	13.99
251.801	-10.58
252.018	50.86
252.235	93.87
252.451	28.33
252.668	13.99
252.885	30.38
253.102	87.72
253.318	134.82
253.535	24.23
253.752	-0.34
253.968	18.09
254.185	-6.49
254.401	-31.06
254.618	24.23
254.835	-0.34
255.051	124.58
255.268	102.06
255.484	40.62
255.701	18.09
255.917	75.43
256.134	-4.44
256.351	89.77
256.567	34.47
256.784	44.71
257	-22.87
257.217	124.58
257.433	30.38
257.65	44.71
257.866	97.96
258.082	52.91
258.299	13.99
258.515	157.35
258.732	116.39
258.948	61.1
259.165	42.67
259.381	-2.39
259.597	-8.53
259.814	22.19
260.03	16.04
260.246	34.47
260.463	79.53
260.679	11.95
260.895	-35.16
261.112	93.87
261.328	-31.06
261.544	38.57
261.761	87.72
261.977	28.33
262.193	16.04
262.409	32.43
262.626	57
262.842	22.19
263.058	59.05
263.274	69.29
263.49	48.81
263.707	65.19
263.923	3.75
264.139	69.29
264.355	1.71
264.571	63.15
264.787	59.05
265.004	95.91
265.22	16.04
265.436	38.57
265.652	52.91
265.868	83.63
266.084	50.86
266.3	126.63
266.516	30.38
266.732	110.25
266.948	-24.92
267.164	40.62
267.38	61.1
267.596	16.04
267.812	48.81
268.028	79.53
268.244	-6.49
268.46	71.34
268.676	48.81
268.892	61.1
269.108	38.57
269.324	34.47
269.54	30.38
269.756	32.43
269.972	34.47
270.188	3.75
270.403	50.86
270.619	22.19
270.835	42.67
271.051	54.95
271.267	81.58
271.483	-14.68
271.698	93.87
271.914	54.95
272.13	36.52
272.346	73.39
272.562	57
272.777	95.91
272.993	-20.82
273.209	42.67
273.425	16.04
273.64	46.76
273.856	120.49
274.072	-16.73
274.287	32.43
274.503	-20.82
274.719	59.05
274.934	69.29
275.15	24.23
275.366	108.2
275.581	61.1
275.797	67.24
276.012	24.23
276.228	-18.77
276.444	16.04
276.659	32.43
276.875	7.85
277.09	-16.73
277.306	-24.92
277.521	87.72
277.737	22.19
277.952	16.04
278.168	-35.16
278.383	77.48
278.599	13.99
278.814	77.48
279.03	-0.34
279.245	108.2
279.461	13.99
279.676	42.67
279.892	44.71
280.107	65.19
280.322	38.57
280.538	22.19
280.753	11.95
280.969	22.19
281.184	67.24
281.399	104.11
281.615	134.82
281.83	34.47
282.045	9.9
282.26	93.87
282.476	11.95
282.691	93.87
282.906	7.85
283.122	34.47
283.337	-14.68
283.552	77.48
283.767	18.09
283.983	22.19
284.198	83.63
284.413	9.9
284.628	13.99
284.843	75.43
285.058	54.95
285.274	91.82
285.489	-29.01
285.704	61.1
285.919	79.53
286.134	34.47
286.349	-57.68
286.564	34.47
286.779	46.76
286.995	87.72
287.21	-98.64
287.425	79.53
287.64	-0.34
287.855	20.14
288.07	-35.16
288.285	97.96
288.5	38.57
288.715	30.38
288.93	18.09
289.145	48.81
289.36	77.48
289.575	59.05
289.79	44.71
290.004	-0.34
290.219	22.19
290.434	-0.34
290.649	11.95
290.864	93.87
291.079	59.05
291.294	79.53
291.509	40.62
291.724	3.75
291.938	77.48
292.153	91.82
292.368	34.47
292.583	-67.92
292.798	85.67
293.012	-14.68
293.227	50.86
293.442	48.81
293.657	-4.44
293.871	120.49
294.086	69.29
294.301	118.44
294.516	40.62
294.73	52.91
294.945	-63.83
295.16	116.39
295.374	36.52
295.589	-41.3
295.804	-29.01
296.018	81.58
296.233	34.47
296.447	83.63
296.662	48.81
296.877	93.87
297.091	7.85
297.306	42.67
297.52	30.38
297.735	67.24
297.949	7.85
298.164	108.2
298.378	118.44
298.593	-45.4
298.807	20.14
299.022	114.34
299.236	63.15
299.451	104.11
299.665	112.3
299.88	24.23
300.094	50.86
300.309	54.95
300.523	38.57
300.737	34.47
300.952	46.76
301.166	40.62
301.381	32.43
301.595	-8.53
301.809	73.39
302.024	120.49
302.238	-4.44
302.452	128.68
302.667	54.95
302.881	59.05
303.095	124.58
303.309	77.48
303.524	77.48
303.738	20.14
303.952	57
304.166	93.87
304.381	30.38
304.595	128.68
304.809	-16.73
305.023	5.8
305.237	16.04
305.452	42.67
305.666	97.96
305.88	52.91
306.094	79.53
306.308	30.38
306.522	22.19
306.736	34.47
306.95	124.58
307.164	32.43
307.379	34.47
307.593	91.82
307.807	69.29
308.021	-0.34
308.235	97.96
308.449	-31.06
308.663	24.23
308.877	38.57
309.091	71.34
309.305	28.33
309.519	30.38
309.733	126.63
309.947	22.19
310.161	79.53
310.374	24.23
310.588	71.34
310.802	5.8
311.016	110.25
311.23	30.38
311.444	-20.82
311.658	93.87
311.872	108.2
312.085	9.9
312.299	122.54
312.513	93.87
312.727	13.99
312.941	20.14
313.154	85.67
313.368	18.09
313.582	46.76
313.796	126.63
314.009	77.48
314.223	85.67
314.437	32.43
314.651	65.19
314.864	40.62
315.078	50.86
315.292	-0.34
315.505	7.85
315.719	5.8
315.933	-18.77
316.146	61.1
316.36	11.95
316.573	73.39
316.787	18.09
317.001	61.1
317.214	75.43
317.428	59.05
317.641	69.29
317.855	75.43
318.068	-12.63
318.282	89.77
318.495	22.19
318.709	36.52
318.922	40.62
319.136	102.06
319.349	48.81
319.563	11.95
319.776	110.25
319.99	-41.3
320.203	91.82
320.417	57
320.63	106.15
320.843	116.39
321.057	32.43
321.27	83.63
321.483	147.11
321.697	83.63
321.91	149.16
322.124	46.76
322.337	11.95
322.55	50.86
322.763	-31.06
322.977	54.95
323.19	26.28
323.403	18.09
323.617	18.09
323.83	110.25
324.043	18.09
324.256	36.52
324.469	59.05
324.683	30.38
324.896	-6.49
325.109	61.1
325.322	54.95
325.535	106.15
325.748	61.1
325.962	57
326.175	11.95
326.388	83.63
326.601	97.96
326.814	77.48
327.027	30.38
327.24	75.43
327.453	28.33
327.666	26.28
327.879	97.96
328.092	75.43
328.305	46.76
328.518	28.33
328.731	95.91
328.944	52.91
329.157	28.33
329.37	59.05
329.583	83.63
329.796	1.71
330.009	11.95
330.222	69.29
330.435	97.96
330.648	38.57
330.861	75.43
331.073	9.9
331.286	69.29
331.499	73.39
331.712	22.19
331.925	44.71
332.138	52.91
332.35	69.29
332.563	30.38
332.776	85.67
332.989	7.85
333.202	136.87
333.414	28.33
333.627	3.75
333.84	34.47
334.053	54.95
334.265	22.19
334.478	79.53
334.691	75.43
334.903	36.52
335.116	22.19
335.329	83.63
335.541	69.29
335.754	149.16
335.966	85.67
336.179	77.48
336.392	95.91
336.604	67.24
336.817	106.15
337.029	69.29
337.242	87.72
337.454	57
337.667	100.01
337.88	91.82
338.092	52.91
338.305	65.19
338.517	89.77
338.729	7.85
338.942	63.15
339.154	73.39
339.367	3.75
339.579	116.39
339.792	-43.35
340.004	124.58
340.217	65.19
340.429	73.39
340.641	34.47
340.854	61.1
341.066	97.96
341.278	36.52
341.491	44.71
341.703	91.82
341.915	-6.49
342.128	32.43
342.34	40.62
342.552	52.91
342.764	11.95
342.977	89.77
343.189	85.67
343.401	26.28
343.613	-16.73
343.826	46.76
344.038	24.23
344.25	9.9
344.462	-47.44
344.674	52.91
344.886	95.91
345.099	32.43
345.311	63.15
345.523	71.34
345.735	13.99
345.947	20.14
346.159	52.91
346.371	36.52
346.583	5.8
346.795	140.97
347.007	77.48
347.219	71.34
347.431	20.14
347.643	11.95
347.855	16.04
348.067	138.92
348.279	59.05
348.491	57
348.703	20.14
348.915	71.34
349.127	91.82
349.339	-4.44
349.551	28.33
349.763	97.96
349.975	18.09
350.187	149.16
350.399	36.52
350.61	28.33
350.822	26.28
351.034	71.34
351.246	-12.63
351.458	69.29
351.669	138.92
351.881	81.58
352.093	140.97
352.305	83.63
352.517	38.57
352.728	147.11
352.94	100.01
353.152	83.63
353.363	28.33
353.575	136.87
353.787	63.15
353.999	95.91
354.21	73.39
354.422	38.57
354.633	50.86
354.845	87.72
355.057	22.19
355.268	57
355.48	57
355.692	71.34
355.903	130.73
356.115	85.67
356.326	26.28
356.538	93.87
356.749	52.91
356.961	104.11
357.172	52.91
357.384	-26.96
357.595	110.25
357.807	3.75
358.018	93.87
358.23	108.2
358.441	81.58
358.653	18.09
358.864	67.24
359.075	65.19
359.287	52.91
359.498	52.91
359.709	44.71
359.921	106.15
360.132	67.24
360.344	69.29
360.555	102.06
360.766	134.82
360.977	30.38
361.189	91.82
361.4	20.14
361.611	59.05
361.823	67.24
362.034	61.1
362.245	46.76
362.456	71.34
362.667	34.47
362.879	32.43
363.09	69.29
363.301	89.77
363.512	-0.34
363.723	91.82
363.935	75.43
364.146	91.82
364.357	24.23
364.568	71.34
364.779	67.24
364.99	24.23
365.201	67.24
365.412	155.3
365.623	57
365.834	85.67
366.045	124.58
366.256	91.82
366.467	38.57
366.678	118.44
366.889	77.48
367.1	54.95
367.311	61.1
367.522	36.52
367.733	26.28
367.944	79.53
368.155	54.95
368.366	87.72
368.577	-0.34
368.788	18.09
368.999	28.33
369.209	46.76
369.42	155.3
369.631	93.87
369.842	110.25
370.053	20.14
370.264	69.29
370.474	-24.92
370.685	40.62
370.896	79.53
371.107	54.95
371.317	52.91
371.528	42.67
371.739	122.54
371.95	7.85
372.16	104.11
372.371	75.43
372.582	28.33
372.792	30.38
373.003	106.15
373.214	79.53
373.424	36.52
373.635	44.71
373.846	132.78
374.056	134.82
374.267	71.34
374.477	54.95
374.688	112.3
374.898	67.24
375.109	69.29
375.319	28.33
375.53	102.06
375.74	11.95
375.951	59.05
376.161	54.95
376.372	95.91
376.582	-29.01
376.793	46.76
377.003	77.48
377.214	102.06
377.424	69.29
377.635	52.91
377.845	69.29
378.055	42.67
378.266	9.9
378.476	104.11
378.686	22.19
378.897	112.3
379.107	63.15
379.317	79.53
379.528	7.85
379.738	18.09
379.948	22.19
380.158	118.44
380.369	79.53
380.579	32.43
380.789	85.67
380.999	77.48
381.21	114.34
381.42	77.48
381.63	57
381.84	85.67
382.05	61.1
382.261	116.39
382.471	24.23
382.681	67.24
382.891	157.35
383.101	157.35
383.311	34.47
383.521	106.15
383.731	46.76
383.941	38.57
384.151	130.73
384.361	16.04
384.571	85.67
384.781	48.81
384.991	200.36
385.201	134.82
385.411	73.39
385.621	71.34
385.831	69.29
386.041	128.68
386.251	54.95
386.461	188.07
386.671	112.3
386.881	87.72
387.091	59.05
387.301	100.01
387.511	54.95
387.72	87.72
387.93	122.54
388.14	65.19
388.35	100.01
388.56	140.97
388.769	87.72
388.979	118.44
389.189	67.24
389.399	161.45
389.609	108.2
389.818	175.78
390.028	102.06
390.238	153.26
390.447	18.09
390.657	155.3
390.867	124.58
391.076	44.71
391.286	89.77
391.496	122.54
391.705	102.06
391.915	38.57
392.125	130.73
392.334	24.23
392.544	218.79
392.753	122.54
392.963	63.15
393.172	108.2
393.382	63.15
393.591	104.11
393.801	143.02
394.01	50.86
394.22	116.39
394.429	75.43
394.639	138.92
394.848	128.68
395.058	93.87
395.267	102.06
395.477	149.16
395.686	130.73
395.895	155.3
396.105	81.58
396.314	100.01
396.524	122.54
396.733	159.4
396.942	165.54
397.152	157.35
397.361	63.15
397.57	167.59
397.78	116.39
397.989	161.45
398.198	159.4
398.407	89.77
398.617	104.11
398.826	128.68
399.035	147.11
399.244	169.64
399.453	194.22
399.663	192.17
399.872	138.92
400.081	104.11
400.29	138.92
400.499	108.2
400.708	241.32
400.917	163.5
401.127	167.59
401.336	110.25
401.545	212.65
401.754	181.93
401.963	200.36
402.172	167.59
402.381	132.78
402.59	239.27
402.799	167.59
403.008	181.93
403.217	222.89
403.426	196.26
403.635	138.92
403.844	186.02
404.053	233.13
404.262	183.98
404.471	183.98
404.68	249.51
404.888	192.17
405.097	253.61
405.306	235.18
405.515	218.79
405.724	249.51
405.933	214.7
406.142	251.56
406.35	290.47
406.559	259.75
406.768	327.33
406.977	294.57
407.185	308.9
407.394	247.46
407.603	198.31
407.812	261.8
408.02	353.96
408.229	364.2
408.438	315.05
408.646	306.85
408.855	327.33
409.064	392.87
409.272	374.44
409.481	444.07
409.69	462.5
409.898	403.11
410.107	384.68
410.315	448.16
410.524	456.36
410.733	501.41
410.941	464.55
411.15	497.32
411.358	540.32
411.567	548.51
411.775	509.6
411.984	554.66
412.192	620.19
412.401	665.25
412.609	743.07
412.818	698.02
413.026	687.78
413.234	687.78
413.443	771.74
413.651	810.65
413.86	732.83
414.068	880.29
414.276	915.1
414.485	964.25
414.693	859.81
414.901	1040.03
415.11	1087.13
415.318	958.11
415.526	1060.51
415.734	1080.99
415.943	1113.75
416.151	1175.19
416.359	1201.82
416.567	1193.62
416.776	1291.93
416.984	1463.96
417.192	1384.09
417.4	1330.84
417.608	1390.23
417.817	1488.53
418.025	1576.59
418.233	1740.43
418.441	1619.6
418.649	1662.61
418.857	1803.92
419.065	1816.21
419.273	1851.02
419.481	1818.25
419.689	2076.3
419.897	2152.07
420.105	2084.49
420.313	2182.79
420.521	2244.23
420.729	2320.01
420.937	2412.17
421.145	2512.52
421.353	2541.19
421.561	2797.18
421.769	2788.99
421.977	2969.21
422.185	2846.34
422.393	3069.56
422.601	3253.88
422.809	3335.8
423.017	3358.33
423.224	3397.24
423.432	3556.98
423.64	3544.69
423.848	4089.45
424.056	3788.4
424.263	3917.42
424.471	4085.36
424.679	4261.48
424.887	4378.22
425.094	4558.44
425.302	4537.96
425.51	4562.53
425.718	4894.3
425.925	4904.54
426.133	5144.16
426.341	5523.03
426.548	5641.81
426.756	5635.67
426.964	5658.2
427.171	5971.54
427.379	6329.93
427.586	6370.89
427.794	6432.33
428.001	6780.48
428.209	7153.21
428.417	7038.53
428.624	7343.67
428.832	7505.46
429.039	7489.08
429.247	7511.61
429.454	8324.65
429.662	8494.63
429.869	8074.8
430.076	8764.96
430.284	8660.52
430.491	8996.39
430.699	9463.32
430.906	9455.13
431.114	9592.34
431.321	9932.31
431.528	10090
431.736	10632.71
431.943	11124.22
432.15	10814.98
432.358	10968.58
432.565	11875.83
432.772	11558.39
432.979	12031.48
433.187	12350.96
433.394	12520.94
433.601	13252.06
433.808	13350.37
434.016	13319.65
434.223	13868.5
434.43	14771.66
434.637	14187.99
434.844	15433.15
435.052	15543.74
435.259	15498.69
435.466	15490.49
435.673	15472.06
435.88	16600.49
436.087	17085.86
436.294	17376.67
436.501	16928.17
436.708	17100.2
436.915	17943.96
437.122	18666.89
437.329	18578.83
437.537	19271.04
437.743	19287.43
437.95	19258.76
438.157	20362.61
438.364	21058.92
438.571	21099.88
438.778	21208.42
438.985	22857.04
439.192	22117.72
439.399	22947.15
439.606	22343
439.813	23737.66
440.02	25261.35
440.227	24814.9
440.433	24466.74
440.64	25236.78
440.847	24978.73
441.054	25595.17
441.261	27561.22
441.467	27057.42
441.674	27499.78
441.881	28636.41
442.088	28288.25
442.294	28271.87
442.501	28982.51
442.708	29832.42
442.914	30846.16
443.121	31847.62
443.328	31245.52
443.534	33545.39
443.741	32697.53
443.948	31579.34
444.154	34237.6
444.361	34368.67
444.568	34395.29
444.774	34268.32
444.981	34610.33
445.187	35384.46
445.394	37473.39
445.6	36885.62
445.807	40379.46
446.013	38964.31
446.22	39369.81
446.426	40821.82
446.633	41382.96
446.839	42671.14
447.046	40594.5
447.252	42966.04
447.459	43295.77
447.665	43117.59
447.871	44905.47
448.078	46744.55
448.284	44463.11
448.491	46044.14
448.697	47453.14
448.903	48085.96
449.11	48600.01
449.316	47735.76
449.522	48651.2
449.728	49720.24
449.935	49951.66
450.141	49908.66
450.347	51145.63
450.553	49882.03
450.76	50092.97
450.966	51688.34
451.172	51096.48
451.378	52857.73
451.584	51710.87
451.791	52949.89
451.997	52435.85
452.203	53633.91
452.409	53812.09
452.615	53037.95
452.821	51497.88
453.027	51153.82
453.233	53347.2
453.44	51264.41
453.646	51979.15
453.852	52083.6
454.058	53367.68
454.264	51323.8
454.47	52448.14
454.676	51397.53
454.882	52937.6
455.088	48634.82
455.294	49089.47
455.5	50009.01
455.705	50613.16
455.911	48577.48
456.117	47393.75
456.323	46949.34
456.529	44655.62
456.735	46468.07
456.941	45501.43
457.147	44925.95
457.352	43447.32
457.558	42720.29
457.764	42834.97
457.97	42230.82
458.176	41174.07
458.381	41712.69
458.587	39386.19
458.793	39378
458.999	37317.75
459.204	39799.88
459.41	38421.6
459.616	36347.01
459.821	36134.02
460.027	36080.77
460.233	35294.35
460.438	33754.28
460.644	34299.04
460.85	32740.54
461.055	31882.44
461.261	31857.86
461.466	29695.21
461.672	28812.53
461.878	30823.64
462.083	28724.47
462.289	28208.38
462.494	27890.95
462.7	26582.29
462.905	26033.44
463.111	26803.47
463.316	26983.69
463.522	26297.63
463.727	26473.75
463.932	26449.18
464.138	26250.52
464.343	26758.42
464.549	25324.84
464.754	26635.54
464.959	25939.23
465.165	26201.37
465.37	24597.81
465.575	24304.95
465.781	24888.62
465.986	25007.41
466.191	24335.67
466.397	23686.47
466.602	22594.9
466.807	23500.1
467.012	23727.42
467.218	23346.5
467.423	23377.22
467.628	23403.85
467.833	24350.01
468.038	23156.04
468.244	22906.19
468.449	23516.48
468.654	22912.33
468.859	22760.78
469.064	22386.01
469.269	21534.05
469.474	21974.36
469.679	22476.12
469.885	21656.93
470.09	22179.16
470.295	21972.32
470.5	21276.01
470.705	21214.57
470.91	21400.93
471.115	20725.1
471.32	21060.97
471.525	21017.96
471.73	20526.45
471.935	20407.67
472.139	19662.21
472.344	19996.03
472.549	19936.63
472.754	19639.68
472.959	19395.97
473.164	18617.74
473.369	18695.57
473.574	19101.06
473.778	18795.92
473.983	18912.65
474.188	18746.76
474.393	17970.58
474.598	17870.23
474.802	17724.83
475.007	17767.84
475.212	17722.78
475.417	17270.18
475.621	17106.34
475.826	16991.66
476.031	16893.35
476.235	16272.82
476.44	16813.48
476.645	16537.01
476.849	16471.47
477.054	16151.99
477.259	16121.27
477.463	15777.21
477.668	15408.58
477.872	15893.94
478.077	15498.69
478.282	15025.61
478.486	14910.92
478.691	14947.78
478.895	15076.8
479.1	14773.71
479.304	14767.56
479.509	14265.81
479.713	14556.62
479.918	14067.16
480.122	14040.53
480.326	14233.04
480.531	14292.43
480.735	14210.51
480.94	13895.13
481.144	14491.09
481.348	13589.98
481.553	14114.26
481.757	13411.81
481.961	13835.74
482.166	14044.63
482.37	13708.76
482.574	13710.81
482.778	13649.37
482.983	13843.93
483.187	13704.67
483.391	13647.32
483.595	13516.25
483.8	13639.13
484.004	13473.25
484.208	13600.22
484.412	13549.02
484.616	13567.45
484.821	13784.54
485.025	13424.09
485.229	13559.26
485.433	13610.46
485.637	13571.55
485.841	13692.38
486.045	13465.05
486.249	13663.71
486.453	13460.96
486.657	13821.4
486.861	13614.55
487.065	13217.25
487.269	13546.97
487.473	13211.11
487.677	13577.69
487.881	13675.99
488.085	13708.76
488.289	13770.2
488.493	13616.6
488.697	13942.23
488.901	13778.39
489.105	13905.37
489.309	13694.43
489.512	13819.35
489.716	13841.88
489.92	13975
490.124	13776.34
490.328	14056.92
490.531	13807.06
490.735	13964.76
490.939	13960.66
491.143	13942.23
491.346	14058.96
491.55	14126.55
491.754	14208.47
491.958	14208.47
492.161	14251.47
492.365	14462.41
492.569	14525.9
492.772	14374.35
492.976	14462.41
493.18	14341.58
493.383	14591.44
493.587	14753.23
493.79	14943.69
493.994	14519.76
494.197	15062.47
494.401	14927.3
494.605	14941.64
494.808	15506.88
495.012	15259.07
495.215	15191.49
495.419	15433.15
495.622	15326.66
495.825	15953.34
496.029	15484.35
496.232	16027.06
496.436	15877.56
496.639	16412.08
496.843	16201.14
497.046	16602.54
497.249	16641.45
497.453	16651.69
497.656	16911.78
497.859	17145.25
498.063	17298.85
498.266	17710.49
498.469	17444.26
498.673	17747.36
498.876	17864.09
499.079	17962.39
499.282	17878.43
499.485	18441.62
499.689	18365.84
499.892	18918.79
500.095	18912.65
500.298	19303.81
500.501	19289.48
500.705	19588.48
500.908	20127.1
501.111	20090.23
501.314	20288.89
501.517	20485.49
501.72	20843.88
501.923	20690.29
502.126	21345.64
502.329	21259.62
502.532	21443.94
502.735	21480.8
502.938	22175.06
503.141	22007.13
503.344	22250.84
503.547	22529.36
503.75	22922.57
503.953	23559.49
504.156	23266.63
504.359	23442.76
504.562	23596.35
504.765	24155.45
504.968	24065.34
505.17	24378.68
505.373	24470.84
505.576	25216.3
505.779	25269.55
505.982	25429.29
506.185	25769.25
506.387	25865.5
506.59	26025.25
506.793	26846.48
506.996	26641.68
507.198	27294.99
507.401	27145.48
507.604	27485.45
507.807	28214.52
508.009	27987.2
508.212	28290.3
508.415	28183.8
508.617	29101.29
508.82	29246.7
509.022	29322.48
509.225	29813.99
509.428	30106.85
509.63	30184.67
509.833	30188.77
510.035	30897.36
510.238	30620.89
510.44	31300.81
510.643	31562.95
510.845	32005.31
511.048	31450.31
511.25	32369.85
511.453	32691.38
511.655	33442.99
511.858	32908.47
512.06	33645.74
512.262	34141.35
512.465	33498.28
512.667	34319.52
512.87	34546.84
513.072	34821.27
513.274	35191.95
513.477	35667.08
513.679	35667.08
513.881	36037.76
514.084	36142.21
514.286	36402.3
514.488	36646.01
514.69	37430.38
514.893	37708.91
515.095	37698.67
515.297	38120.55
515.499	38358.11
515.701	38724.7
515.904	39525.46
516.106	39476.3
516.308	39738.44
516.51	40313.92
516.712	40201.29
516.914	40744
517.116	41045.05
517.318	41223.22
517.52	41491.51
517.722	41331.76
517.925	41700.4
518.127	42365.99
518.329	42671.14
518.531	42859.55
518.733	43592.72
518.935	43854.86
519.136	43482.13
519.338	44157.96
519.54	43987.98
519.742	44637.19
519.944	44780.54
520.146	45583.35
520.348	45411.32
520.55	45923.31
520.752	45898.73
520.954	46898.14
521.155	46427.11
521.357	47064.03
521.559	47176.67
521.761	48059.34
521.963	47367.13
522.164	48225.23
522.366	47793.11
522.568	48155.6
522.77	48645.06
522.971	49214.4
523.173	49073.09
523.375	49535.93
523.576	49376.19
523.778	49531.83
523.98	50355.11
524.181	50482.09
524.383	49906.61
524.584	50895.78
524.786	50738.08
524.988	50801.57
525.189	51454.87
525.391	51542.94
525.592	51739.54
525.794	51886.99
525.995	51727.25
526.197	51981.2
526.398	52257.68
526.6	52835.2
526.801	52525.96
527.003	52968.32
527.204	52833.16
527.406	53480.31
527.607	53404.54
527.808	53410.68
528.01	52597.64
528.211	53236.61
528.412	54262.64
528.614	53951.35
528.815	53887.86
529.016	54164.34
529.218	53785.46
529.419	54440.81
529.62	54168.43
529.822	53900.15
530.023	54365.04
530.224	54143.86
530.425	54365.04
530.626	54000.5
530.828	54307.69
531.029	55192.42
531.23	54137.71
531.431	54233.97
531.632	54782.82
531.833	54739.82
532.035	55051.11
532.236	54700.9
532.437	55077.73
532.638	54856.55
532.839	54983.52
533.04	55290.72
533.241	54193.01
533.442	55335.77
533.643	54983.52
533.844	54868.84
534.045	55495.52
534.246	54614.89
534.447	55661.4
534.648	54889.32
534.849	55073.63
535.05	54557.55
535.251	55008.1
535.451	55415.65
535.652	54795.11
535.853	55110.5
536.054	55327.58
536.255	55212.9
536.456	54659.94
536.657	55184.22
536.857	55085.92
537.058	54563.69
537.259	55235.42
537.46	55016.29
537.66	54610.79
537.861	54721.38
538.062	54758.25
538.263	54840.17
538.463	54602.6
538.664	54995.81
538.865	55178.08
539.065	55176.03
539.266	54319.98
539.466	54887.27
539.667	54500.2
539.868	55286.62
540.068	54877.03
540.269	54666.09
540.469	55098.21
540.67	54274.93
540.87	54786.92
541.071	54793.06
541.271	54690.66
541.472	54627.18
541.672	54731.62
541.873	54176.62
542.073	53631.86
542.274	55008.1
542.474	54375.28
542.675	54362.99
542.875	54942.56
543.075	54119.28
543.276	53693.3
543.476	54395.76
543.676	54102.9
543.877	54801.25
544.077	54084.47
544.277	54184.82
544.478	54033.27
544.678	54369.13
544.878	54545.26
545.078	53955.44
545.279	54090.61
545.479	54190.96
545.679	54467.44
545.879	54446.96
546.079	53879.67
546.28	53945.2
546.48	53973.88
546.68	54434.67
546.88	54301.55
547.08	54041.46
547.28	53805.94
547.48	53658.49
547.68	53932.92
547.88	53695.35
548.081	54147.95
548.281	53828.47
548.481	53595
548.681	54045.55
548.881	54061.94
549.081	53547.9
549.28	53631.86
549.48	54078.32
549.68	53222.27
549.88	53955.44
550.08	53578.62
550.28	53840.76
550.48	53572.47
550.68	53971.83
550.88	53443.45
551.08	53576.57
551.279	53296
551.479	52816.77
551.679	53488.51
551.879	53621.62
552.079	53721.97
552.278	53699.45
552.478	53519.23
552.678	53566.33
552.878	53881.72
553.077	53261.18
553.277	52960.13
553.477	54236.02
553.676	53209.98
553.876	53330.81
554.076	52958.08
554.275	53328.76
554.475	52890.5
554.674	53091.2
554.874	53293.95
555.074	52786.05
555.273	53060.48
555.473	52800.39
555.672	53005.19
555.872	52872.07
556.071	53033.86
556.271	53162.88
556.47	52585.35
556.67	52421.51
556.869	52642.7
557.068	52513.67
557.268	52220.81
557.467	52900.74
557.667	52134.8
557.866	52466.57
558.065	52388.75
558.265	52321.16
558.464	52478.86
558.663	52556.68
558.863	51725.21
559.062	52654.98
559.261	52108.18
559.461	52794.25
559.66	51493.78
559.859	51903.38
560.058	51579.8
560.258	51876.76
560.457	51624.85
560.656	52265.87
560.855	51409.82
561.054	51721.11
561.253	51252.12
561.453	51600.28
561.652	51483.55
561.851	52009.87
562.05	51692.44
562.249	51229.6
562.448	51520.41
562.647	51282.84
562.846	50777
563.045	50969.5
563.244	50707.36
563.443	51295.13
563.642	50418.6
563.841	50906.02
564.04	50580.39
564.239	50846.63
564.438	50238.38
564.637	50822.05
564.836	50713.51
565.035	50101.17
565.234	50457.51
565.432	50498.47
565.631	50228.14
565.83	50455.46
566.029	49920.94
566.228	50242.48
566.427	49914.8
566.625	49736.63
566.824	49648.57
567.023	49957.81
567.222	49386.43
567.42	49904.56
567.619	49218.49
567.818	49517.5
568.016	48923.58
568.215	49583.03
568.414	48991.17
568.612	49343.42
568.811	49007.55
569.01	49122.24
569.208	48952.26
569.407	49105.85
569.605	48868.29
569.804	48884.67
570.002	48397.26
570.201	48708.55
570.4	48176.08
570.598	48296.91
570.797	47643.6
570.995	48237.51
571.193	47836.11
571.392	48286.67
571.59	47514.58
571.789	47807.44
571.987	47694.8
572.186	47743.95
572.384	47756.24
572.582	47692.75
572.781	47588.31
572.979	47064.03
573.177	47033.31
573.376	47502.29
573.574	46576.61
573.772	47012.83
573.971	46887.9
574.169	46762.98
574.367	46287.85
574.565	47021.02
574.763	46609.38
574.962	46343.14
575.16	46128.11
575.358	46640.1
575.556	45849.58
575.754	46509.03
575.952	45829.1
576.151	46410.73
576.349	45831.15
576.547	45624.31
576.745	45984.75
576.943	45935.6
577.141	45614.07
577.339	45679.6
577.537	45583.35
577.735	45036.54
577.933	45282.3
578.131	45196.28
578.329	45192.19
578.527	44723.2
578.725	45032.44
578.923	45005.82
579.121	44631.04
579.319	44200.97
579.516	44878.85
579.714	44749.82
579.912	44336.13
580.11	44141.58
580.308	44438.53
580.506	43910.16
580.704	43602.96
580.901	44039.18
581.099	43965.45
581.297	43629.58
581.495	43570.19
581.692	43648.02
581.89	42959.9
582.088	43807.76
582.285	42648.61
582.483	43142.17
582.681	43410.45
582.878	43379.73
583.076	42693.66
583.274	42947.61
583.471	42353.7
583.669	42763.29
583.866	42069.03
584.064	42687.52
584.262	41907.24
584.459	42443.81
584.657	41884.72
584.854	42400.8
585.052	41333.81
585.249	41907.24
585.447	41960.49
585.644	41237.56
585.841	41385.01
586.039	41925.67
586.236	41045.05
586.434	41337.91
586.631	40836.16
586.828	40823.87
587.026	41186.36
587.223	40905.79
587.42	40442.95
587.618	40602.69
587.815	39844.94
588.012	40365.12
588.21	40246.34
588.407	40889.4
588.604	39898.19
588.801	39746.64
588.999	39742.54
589.196	39582.8
589.393	39849.03
589.59	39488.59
589.787	39279.7
589.984	38988.89
590.182	39308.37
590.379	39093.33
590.576	38853.72
590.773	38984.79
590.97	38599.77
591.167	38861.91
591.364	38517.85
591.561	38374.5
591.758	38366.31
591.955	38145.12
592.152	38526.05
592.349	38272.1
592.546	38009.96
592.743	38141.03
592.94	37422.19
593.137	37962.86
593.334	37784.68
593.531	37262.45
593.727	37411.95
593.924	37465.2
594.121	37411.95
594.318	37457.01
594.515	36961.4
594.712	37176.44
594.908	36473.98
595.105	37354.61
595.302	36138.12
595.499	36408.45
595.696	36107.4
595.892	36367.49
596.089	36306.05
596.286	36080.77
596.482	35904.65
596.679	36148.36
596.876	35986.57
597.072	35814.54
597.269	35749
597.466	35417.23
597.662	35118.23
597.859	35275.92
598.055	35560.59
598.252	35194
598.448	34872.47
598.645	34770.07
598.841	34489.5
599.038	35011.73
599.234	34473.12
599.431	34294.94
599.627	34227.36
599.824	34479.26
600.02	33963.17
600.217	34165.92
600.413	33758.38
600.609	33963.17
600.806	33776.81
601.002	34135.2
601.198	33789.1
601.395	33989.8
601.591	33598.63
601.787	33449.13
601.984	33057.97
602.18	33330.35
602.376	32892.08
602.572	32740.54
602.769	32918.71
602.965	32079.04
603.161	33000.63
603.357	32502.97
603.553	32631.99
603.75	32496.83
603.946	32222.4
604.142	32242.88
604.338	31753.41
604.534	32052.42
604.73	31806.66
604.926	31759.56
605.122	32093.38
605.318	31536.33
605.514	31599.82
605.71	31179.98
605.906	31438.03
606.102	31177.93
606.298	31243.47
606.494	31020.24
606.69	31073.49
606.886	31108.3
607.082	30817.49
607.278	30774.49
607.474	30944.47
607.67	30788.82
607.866	30090.46
608.062	30823.64
608.257	30532.82
608.453	30418.14
608.649	30627.03
608.845	30237.92
609.041	30760.15
609.236	30407.9
609.432	30049.5
609.628	30282.97
609.824	30125.28
610.019	29711.59
610.215	30018.78
610.411	29902.05
610.606	29723.88
610.802	29805.8
610.998	29652.2
611.193	29793.51
611.389	29947.11
611.584	29320.43
611.78	29431.02
611.976	29781.22
612.171	29633.77
612.367	29519.08
612.562	29193.45
612.758	29220.08
612.953	28964.08
613.149	29179.12
613.344	29054.19
613.539	29482.22
613.735	28892.4
613.93	28994.8
614.126	28953.84
614.321	28855.54
614.517	28785.91
614.712	28824.82
614.907	28755.19
615.103	28656.89
615.298	28468.47
615.493	28855.54
615.688	28484.86
615.884	28900.59
616.079	28132.61
616.274	28579.06
616.47	27952.38
616.665	28153.09
616.86	27919.62
617.055	27958.53
617.25	27987.2
617.445	28439.8
617.641	27804.93
617.836	28179.71
618.031	27577.61
618.226	27989.25
618.421	27604.23
618.616	27774.21
618.811	27274.51
619.006	27868.42
619.201	27118.86
619.396	27118.86
619.591	26846.48
619.786	27082
619.981	26445.08
620.176	27131.15
620.371	26211.61
620.566	26524.95
620.761	26483.99
620.956	26572.05
621.151	25879.84
621.346	26424.6
621.541	25781.54
621.735	25885.98
621.93	25537.83
622.125	25644.32
622.32	25371.94
622.515	25589.03
622.709	25312.55
622.904	25296.17
623.099	24925.49
623.294	24761.65
623.488	24737.07
623.683	24669.49
623.878	24466.74
624.072	24323.38
624.267	24055.1
624.462	24055.1
624.656	23809.34
624.851	23921.98
625.046	23616.83
625.24	23592.26
625.435	23475.52
625.629	23373.13
625.824	23018.83
626.018	23266.63
626.213	22811.98
626.407	23055.69
626.602	22631.76
626.796	22773.07
626.991	22752.59
627.185	22318.42
627.38	22240.6
627.574	22330.71
627.768	22017.37
627.963	22134.1
628.157	21435.75
628.352	21894.49
628.546	21138.79
628.74	21601.63
628.935	21423.46
629.129	21505.38
629.323	21007.72
629.517	20901.23
629.712	20661.62
629.906	20901.23
630.1	20684.14
630.294	20749.68
630.489	20325.75
630.683	20606.32
630.877	20166.01
631.071	20512.11
631.265	20256.12
631.459	19838.33
631.653	19860.86
631.848	19656.06
632.042	19449.22
632.236	19666.3
632.43	19252.61
632.624	19455.36
632.818	19420.55
633.012	19148.17
633.206	19125.64
633.4	19125.64
633.594	18898.31
633.788	18992.52
633.982	18685.33
634.176	18668.94
634.369	18603.41
634.563	18488.72
634.757	18367.89
634.951	18294.16
635.145	18361.75
635.339	18410.9
635.533	17771.93
635.726	17986.97
635.92	17714.59
636.114	17808.79
636.308	17546.65
636.501	17782.17
636.695	17487.26
636.889	17454.5
637.083	17481.12
637.276	17313.19
637.47	17198.5
637.664	16967.08
637.857	17012.14
638.051	17196.45
638.244	16694.7
638.438	16889.26
638.632	16588.21
638.825	16418.22
639.019	16358.83
639.212	16350.64
639.406	16250.29
639.599	16340.4
639.793	16078.26
639.986	15879.61
640.18	15809.98
640.373	15889.85
640.567	15877.56
640.76	15760.83
640.954	15678.91
641.147	15670.72
641.34	15191.49
641.534	15390.14
641.727	15287.75
641.92	15293.89
642.114	15033.8
642.307	15054.28
642.5	14962.12
642.694	14853.58
642.887	14851.53
643.08	15007.17
643.273	14953.93
643.467	14591.44
643.66	14497.23
643.853	14368.21
644.046	14235.09
644.239	14345.68
644.432	14282.19
644.626	14093.78
644.819	14114.26
645.012	14257.62
645.205	14044.63
645.398	13712.86
645.591	13893.08
645.784	13829.59
645.977	13608.41
646.17	13624.79
646.363	13405.66
646.556	13530.59
646.749	13491.68
646.942	13237.73
647.135	13219.3
647.328	13127.14
647.521	13053.41
647.714	12920.29
647.907	13037.03
648.099	12932.58
648.292	12920.29
648.485	13034.98
648.678	12774.89
648.871	12449.26
649.064	12637.67
649.256	12570.09
649.449	12326.38
649.642	12287.47
649.835	12316.14
650.027	12097.01
650.22	12140.02
650.413	12047.86
650.605	11998.71
650.798	12158.45
650.991	11826.68
651.183	11783.67
651.376	11838.97
651.568	11695.61
651.761	11886.07
651.954	11554.3
652.146	11425.28
652.339	11494.91
652.531	11476.48
652.724	11453.95
652.916	11124.22
653.109	11159.04
653.301	11378.17
653.494	11249.15
653.686	10896.9
653.879	11251.2
654.071	11169.28
654.263	10929.67
654.456	10835.46
654.648	10962.44
654.84	10827.27
655.033	10608.14
655.225	10847.75
655.417	10448.4
655.61	10708.49
655.802	10632.71
655.994	10302.99
656.186	10415.63
656.379	10225.17
656.571	10315.28
656.763	10237.45
656.955	10161.68
657.148	10305.04
657.34	9981.46
657.532	9952.79
657.724	10161.68
657.916	9965.07
658.108	9856.53
658.3	9612.82
658.492	9672.22
658.684	9754.13
658.876	9840.15
659.068	9553.43
659.26	9479.71
659.452	9758.23
659.644	9551.38
659.836	9180.7
660.028	9481.75
660.22	9434.65
660.412	9199.13
660.604	9096.74
660.796	9180.7
660.988	9135.65
661.18	9121.31
661.372	9078.3
661.563	9190.94
661.755	9020.96
661.947	8893.99
662.139	8973.86
662.331	8857.12
662.522	8799.78
662.714	8676.9
662.906	8543.78
663.097	8713.77
663.289	8482.35
663.481	8449.58
663.673	8463.91
663.864	8298.03
664.056	8404.52
664.247	8357.42
664.439	8195.63
664.631	8388.14
664.822	8453.67
665.014	8371.75
665.205	8132.14
665.397	8171.05
665.588	8248.88
665.78	8101.42
665.971	7900.72
666.163	7986.74
666.354	8068.66
666.546	7945.78
666.737	7890.48
666.929	7847.47
667.12	7853.62
667.311	7800.37
667.503	7566.9
667.694	7745.08
667.885	7704.12
668.077	7562.81
668.268	7593.53
668.459	7452.22
668.651	7517.75
668.842	7558.71
669.033	7478.84
669.224	7280.19
669.416	7513.66
669.607	7433.79
669.798	7257.66
669.989	7380.54
670.18	7165.5
670.371	7112.25
670.563	7161.41
670.754	7198.27
670.945	7153.21
671.136	7026.24
671.327	6968.9
671.518	6946.37
671.709	7044.67
671.9	7036.48
672.091	7040.58
672.282	6803.01
672.473	6825.54
672.664	6776.39
672.855	6698.56
673.046	6995.52
673.237	6936.13
673.428	6735.43
673.619	6520.39
673.809	6508.1
674	6499.91
674.191	6719.04
674.382	6608.45
674.573	6530.63
674.764	6372.94
674.954	6493.77
675.145	6442.57
675.336	6456.9
675.527	6297.16
675.717	6456.9
675.908	6270.54
676.099	6252.11
676.289	6346.31
676.48	6137.42
676.671	6202.96
676.861	6374.99
677.052	6340.17
677.243	6233.68
677.433	6032.97
677.624	6162
677.814	5963.34
678.005	6096.46
678.195	5967.44
678.386	6172.24
678.576	6051.41
678.767	5979.73
678.957	6055.5
679.148	6024.78
679.338	6053.45
679.529	5989.97
679.719	5981.78
679.909	5994.06
680.1	5914.19
680.29	5848.66
680.481	5860.95
680.671	5971.54
680.861	5801.55
681.052	5879.38
681.242	5887.57
681.432	5881.42
681.622	5674.58
681.813	5813.84
682.003	5766.74
682.193	5772.88
682.383	5883.47
682.573	5641.81
682.764	5731.92
682.954	5815.89
683.144	5715.54
683.334	5670.48
683.524	5480.02
683.714	5506.65
683.904	5510.74
684.094	5547.61
684.284	5430.87
684.474	5545.56
684.664	5404.25
684.854	5578.33
685.044	5496.41
685.234	5406.3
685.424	5369.43
685.614	5351
685.804	5264.99
685.994	5211.74
686.184	5248.6
686.374	5230.17
686.564	5326.43
686.753	5365.34
686.943	5181.02
687.133	5205.6
687.323	5213.79
687.513	5215.84
687.702	5064.29
687.892	5058.14
688.082	5052
688.272	5219.93
688.461	5027.42
688.651	4902.5
688.841	4933.22
689.03	4875.87
689.22	4884.06
689.41	4851.3
689.599	4890.21
689.789	4968.03
689.979	5017.18
690.168	4839.01
690.358	4793.95
690.547	4712.03
690.737	4916.83
690.926	4734.56
691.116	4701.79
691.305	4601.44
691.495	4634.21
691.684	4476.52
691.874	4634.21
692.063	4595.3
692.252	4638.31
692.442	4611.68
692.631	4517.48
692.82	4513.38
693.01	4488.81
693.199	4333.16
693.388	4417.13
693.578	4492.9
693.767	4410.98
693.956	4269.67
694.146	4343.4
694.335	4304.49
694.524	4343.4
694.713	4292.2
694.902	4292.2
695.092	4408.94
695.281	4185.71
695.47	4384.36
695.659	4410.98
695.848	4093.55
696.037	4136.56
696.226	3997.29
696.415	3985.01
696.604	4230.76
696.793	4085.36
696.982	3952.24
697.171	4116.08
697.36	3972.72
697.549	4054.64
697.738	4095.6
697.927	3907.18
698.116	3974.77
698.305	4009.58
698.494	3851.89
698.683	3866.22
698.872	3821.17
699.061	3985.01
699.25	3675.76
699.438	3851.89
699.627	3782.26
699.816	3821.17
700.005	3761.78
700.193	3823.22
700.382	3823.22
700.571	3808.88
700.76	3747.44
700.948	3729.01
701.137	3806.83
701.326	3599.99
701.514	3780.21
701.703	3585.65
701.892	3718.77
702.08	3858.03
702.269	3726.96
702.457	3722.87
702.646	3501.69
702.834	3626.61
703.023	3602.04
703.212	3640.95
703.4	3655.28
703.589	3622.52
703.777	3663.47
703.965	3620.47
704.154	3638.9
704.342	3513.97
704.531	3462.77
704.719	3446.39
704.907	3638.9
705.096	3452.53
705.284	3425.91
705.472	3438.2
705.661	3651.19
705.849	3550.84
706.037	3575.41
706.226	3427.96
706.414	3473.01
706.602	3452.53
706.79	3538.55
706.979	3454.58
707.167	3341.94
707.355	3419.77
707.543	3425.91
707.731	3612.28
707.919	3397.24
708.107	3286.65
708.296	3450.49
708.484	3305.08
708.672	3298.94
708.86	3387
709.048	3352.18
709.236	3384.95
709.424	3473.01
709.612	3298.94
709.8	3374.71
709.988	3495.54
710.176	3356.28
710.364	3200.63
710.551	3319.42
710.739	3298.94
710.927	3212.92
711.115	3376.76
711.303	3415.67
711.491	3372.66
711.679	3284.6
711.866	3339.9
712.054	3241.59
712.242	3245.69
712.43	3305.08
712.617	3362.42
712.805	3282.55
712.993	3206.78
713.181	3208.83
713.368	3300.98
713.556	3237.5
713.744	3200.63
713.931	3325.56
714.119	3075.71
714.306	3348.09
714.494	3169.91
714.682	3231.35
714.869	3149.43
715.057	3294.84
715.244	3188.35
715.432	3280.5
715.619	3137.15
715.807	3196.54
715.994	3190.39
716.182	3278.46
716.369	3204.73
716.556	3227.26
716.744	3139.19
716.931	3178.11
717.119	3151.48
717.306	3217.02
717.493	3155.58
717.681	3202.68
717.868	3120.76
718.055	3206.78
718.242	3210.87
718.43	3206.78
718.617	3112.57
718.804	3235.45
718.991	3200.63
719.179	3202.68
719.366	3313.27
719.553	3212.92
719.74	3186.3
719.927	3083.9
720.114	3188.35
720.301	3188.35
720.488	2973.31
720.676	3104.38
720.863	3214.97
721.05	3221.11
721.237	3106.43
721.424	3153.53
721.611	3176.06
721.798	3102.33
721.985	3057.28
722.172	3008.12
722.358	3118.72
722.545	2997.88
722.732	3094.14
722.919	3212.92
723.106	3137.15
723.293	3128.95
723.48	3176.06
723.667	3147.39
723.853	3026.56
724.04	3311.22
724.227	3266.17
724.414	3075.71
724.6	3110.52
724.787	3139.19
724.974	3151.48
725.161	3012.22
725.347	3088
725.534	3067.52
725.72	3174.01
725.907	3106.43
726.094	3260.02
726.28	3018.36
726.467	3110.52
726.653	3108.48
726.84	3278.46
727.027	3243.64
727.213	3143.29
727.4	3169.91
727.586	3104.38
727.773	3208.83
727.959	3182.2
728.145	3405.43
728.332	3159.67
728.518	3237.5
728.705	3161.72
728.891	3028.6
729.077	3206.78
729.264	3120.76
729.45	3010.17
729.636	3161.72
729.823	3155.58
730.009	3241.59
730.195	3102.33
730.382	3145.34
730.568	3278.46
730.754	3247.74
730.94	3223.16
731.126	3085.95
731.313	3233.4
731.499	3196.54
731.685	3165.82
731.871	3208.83
732.057	3294.84
732.243	3219.07
732.429	3202.68
732.615	3298.94
732.801	3210.87
732.987	3288.7
733.173	3221.11
733.359	3257.98
733.545	3171.96
733.731	3161.72
733.917	3329.66
734.103	3241.59
734.289	3214.97
734.475	3251.83
734.661	3214.97
734.847	3331.7
735.033	3288.7
735.219	3317.37
735.404	3284.6
735.59	3329.66
735.776	3194.49
735.962	3290.74
736.148	3389.05
736.333	3305.08
736.519	3257.98
736.705	3196.54
736.89	3298.94
737.076	3317.37
737.262	3135.1
737.447	3178.11
737.633	3305.08
737.819	3300.98
738.004	3198.59
738.19	3339.9
738.375	3303.03
738.561	3364.47
738.747	3210.87
738.932	3225.21
739.118	3317.37
739.303	3141.24
739.489	3192.44
739.674	3159.67
739.859	3188.35
740.045	3067.52
740.23	3337.85
740.416	3251.83
740.601	3274.36
740.786	3260.02
740.972	3239.55
741.157	3333.75
741.342	3186.3
741.528	3214.97
741.713	3122.81
741.898	3204.73
742.084	3241.59
742.269	3251.83
742.454	3253.88
742.639	3221.11
742.824	3165.82
743.01	3143.29
743.195	3208.83
743.38	3178.11
743.565	3038.84
743.75	3047.04
743.935	3114.62
744.12	3180.15
744.305	3133.05
744.49	3163.77
744.675	3088
744.86	3061.37
745.045	3131
745.23	3092.09
745.415	3200.63
745.6	3245.69
745.785	2993.79
745.97	3073.66
746.155	3180.15
746.34	3016.32
746.525	3018.36
746.71	3034.75
746.895	2942.59
747.079	2846.34
747.264	3079.8
747.449	3075.71
747.634	2891.39
747.819	2928.25
748.003	3010.17
748.188	2952.83
748.373	2866.81
748.557	2891.39
748.742	2903.68
748.927	2887.29
749.111	2952.83
749.296	2737.79
749.481	2852.48
749.665	2881.15
749.85	2719.36
750.034	2866.81
750.219	2809.47
750.404	2743.94
750.588	2768.51
750.773	2670.21
750.957	2594.44
751.141	2707.07
751.326	2633.35
751.51	2668.16
751.695	2645.63
751.879	2666.11
752.064	2573.96
752.248	2500.23
752.432	2666.11
752.617	2537.09
752.801	2678.4
752.985	2594.44
753.17	2578.05
753.354	2604.67
753.538	2494.08
753.722	2379.4
753.907	2496.13
754.091	2401.93
754.275	2408.07
754.459	2336.39
754.643	2457.22
754.828	2383.49
755.012	2426.5
755.196	2371.21
755.38	2348.68
755.564	2336.39
755.748	2248.33
755.932	2326.15
756.116	2209.42
756.3	2258.57
756.484	2297.48
756.668	2264.71
756.852	2283.14
757.036	2180.75
757.22	2205.32
757.404	2225.8
757.588	2051.72
757.772	2281.1
757.956	2055.82
758.14	2188.94
758.323	2209.42
758.507	2137.74
758.691	2139.79
758.875	2178.7
759.059	2182.79
759.242	2090.63
759.426	2029.2
759.61	1973.9
759.794	2051.72
759.977	2107.02
760.161	2135.69
760.345	1984.14
760.528	2023.05
760.712	1978
760.895	1996.43
761.079	2000.52
761.263	1818.25
761.446	1992.33
761.63	1941.13
761.813	1904.27
761.997	1943.18
762.18	1986.19
762.364	1918.61
762.547	1914.51
762.731	1894.03
762.914	1877.65
763.098	1871.5
763.281	1928.85
763.464	1830.54
763.648	1838.73
763.831	1867.41
764.015	1869.45
764.198	1822.35
764.381	1883.79
764.564	1853.07
764.748	1816.21
764.931	1820.3
765.114	1918.61
765.297	1752.72
765.481	1717.9
765.664	1795.73
765.847	1746.58
766.03	1693.33
766.213	1767.06
766.397	1795.73
766.58	1732.24
766.763	1670.8
766.946	1666.71
767.129	1582.74
767.312	1728.14
767.495	1742.48
767.678	1642.13
767.861	1687.18
768.044	1771.15
768.227	1660.56
768.41	1660.56
768.593	1760.91
768.776	1609.36
768.959	1590.93
769.142	1599.12
769.324	1607.31
769.507	1627.79
769.69	1687.18
769.873	1500.82
770.056	1599.12
770.239	1625.75
770.421	1549.97
770.604	1541.78
770.787	1547.92
770.97	1549.97
771.152	1541.78
771.335	1570.45
771.518	1398.42
771.7	1531.54
771.883	1529.49
772.066	1470.1
772.248	1517.2
772.431	1541.78
772.613	1490.58
772.796	1353.37
772.978	1523.35
773.161	1410.71
773.343	1490.58
773.526	1320.6
773.708	1470.1
773.891	1511.06
774.073	1455.76
774.256	1326.74
774.438	1455.76
774.621	1404.57
774.803	1365.65
774.985	1273.5
775.168	1347.22
775.35	1369.75
775.532	1273.5
775.715	1275.54
775.897	1269.4
776.079	1271.45
776.261	1228.44
776.444	1207.96
776.626	1210.01
776.808	1236.63
776.99	1203.86
777.173	1289.88
777.355	1154.71
777.537	1183.38
777.719	1285.78
777.901	1152.67
778.083	1238.68
778.265	1083.03
778.447	1150.62
778.629	1132.19
778.811	1267.35
778.993	1150.62
779.175	1193.62
779.357	1177.24
779.539	1037.98
779.721	1111.71
779.903	1115.8
780.085	1095.32
780.267	1070.75
780.449	1056.41
780.631	1099.42
780.812	1074.84
780.994	1148.57
781.176	968.35
781.358	1080.99
781.54	1001.12
781.721	1044.12
781.903	1048.22
782.085	954.01
782.267	1005.21
782.448	947.87
782.63	872.09
782.812	931.48
782.993	947.87
783.175	984.73
783.357	994.97
783.538	954.01
783.72	857.76
783.901	824.99
784.083	915.1
784.264	880.29
784.446	847.52
784.627	847.52
784.809	872.09
784.99	882.33
785.172	812.7
785.353	831.13
785.535	870.05
785.716	816.8
785.897	843.42
786.079	730.78
786.26	734.88
786.441	814.75
786.623	726.69
786.804	728.74
786.985	765.6
787.167	765.6
787.348	691.87
787.529	732.83
787.71	753.31
787.891	741.02
788.073	648.86
788.254	605.86
788.435	626.34
788.616	708.26
788.797	679.58
788.978	650.91
789.159	769.69
789.34	630.43
789.522	706.21
789.703	679.58
789.884	622.24
790.065	640.67
790.246	632.48
790.427	675.49
790.607	655.01
790.788	616.1
790.969	657.06
791.15	646.82
791.331	634.53
791.512	532.13
791.693	577.19
791.874	630.43
792.054	566.95
792.235	749.22
792.416	573.09
792.597	568.99
792.778	618.15
792.958	554.66
793.139	571.04
793.32	525.99
793.5	595.62
793.681	624.29
793.862	620.19
794.042	450.21
794.223	464.55
794.404	497.32
794.584	501.41
794.765	458.4
794.945	530.08
795.126	534.18
795.306	597.67
795.487	585.38
795.667	542.37
795.848	507.55
796.028	493.22
796.209	485.03
796.389	515.75
796.57	480.93
796.75	550.56
796.93	458.4
797.111	429.73
797.291	456.36
797.471	466.6
797.652	472.74
797.832	450.21
798.012	489.12
798.192	474.79
798.373	446.12
798.553	493.22
798.733	519.84
798.913	493.22
799.093	448.16
799.274	405.16
799.454	505.51
799.634	448.16
799.814	388.77
799.994	480.93
800.174	396.96
800.354	448.16
800.534	439.97
800.714	407.2
800.894	331.43
801.074	382.63
801.254	435.88
801.434	435.88
801.614	460.45
801.794	405.16
801.974	954.01
802.154	474.79
802.334	394.92
802.514	343.72
802.693	415.4
802.873	360.1
803.053	417.44
803.233	429.73
803.413	409.25
803.592	327.33
803.772	368.29
803.952	329.38
804.131	290.47
804.311	485.03
804.491	429.73
804.67	396.96
804.85	323.24
805.03	413.35
805.209	394.92
805.389	431.78
805.568	317.09
805.748	325.29
805.928	282.28
806.107	448.16
806.287	376.48
806.466	337.57
806.646	366.25
806.825	319.14
807.004	325.29
807.184	339.62
807.363	292.52
807.543	351.91
807.722	329.38
807.901	335.53
808.081	276.13
808.26	286.37
808.439	345.77
808.619	321.19
808.798	282.28
808.977	337.57
809.156	337.57
809.336	319.14
809.515	306.85
809.694	249.51
809.873	333.48
810.052	241.32
810.231	360.1
810.411	243.37
810.59	302.76
810.769	224.94
810.948	386.72
811.127	181.93
811.306	300.71
811.485	294.57
811.664	364.2
811.843	269.99
812.022	282.28
812.201	282.28
812.38	292.52
812.559	267.94
812.737	286.37
812.916	249.51
813.095	290.47
813.274	292.52
813.453	292.52
813.632	339.62
813.811	300.71
813.989	255.65
814.168	265.89
814.347	167.59
814.526	261.8
814.704	239.27
814.883	265.89
815.062	204.46
815.24	288.42
815.419	319.14
815.598	208.55
815.776	218.79
815.955	231.08
816.133	208.55
816.312	274.09
816.49	276.13
816.669	235.18
816.847	237.22
817.026	206.5
817.204	253.61
817.383	255.65
817.561	169.64
817.74	233.13
817.918	233.13
818.097	194.22
818.275	233.13
818.453	243.37
818.632	140.97
818.81	198.31
818.988	235.18
819.167	218.79
819.345	218.79
819.523	218.79
819.701	200.36
819.879	241.32
820.058	216.74
820.236	222.89
820.414	286.37
820.592	145.06
820.77	171.69
820.948	241.32
821.127	188.07
821.305	198.31
821.483	181.93
821.661	194.22
821.839	214.7
822.017	194.22
822.195	200.36
822.373	190.12
822.551	161.45
822.729	231.08
822.907	151.21
823.085	255.65
823.262	267.94
823.44	145.06
823.618	226.98
823.796	183.98
823.974	126.63
824.152	169.64
824.329	134.82
824.507	204.46
824.685	181.93
824.863	249.51
825.04	95.91
825.218	198.31
825.396	177.83
825.574	237.22
825.751	151.21
825.929	175.78
826.107	100.01
826.284	190.12
826.462	214.7
826.639	110.25
826.817	151.21
826.994	149.16
827.172	194.22
827.349	183.98
827.527	229.03
827.704	204.46
827.882	218.79
828.059	155.3
828.237	190.12
828.414	132.78
828.591	165.54
828.769	161.45
828.946	110.25
829.124	167.59
829.301	190.12
829.478	198.31
829.655	165.54
829.833	124.58
830.01	108.2
830.187	183.98
830.364	163.5
830.542	267.94
830.719	255.65
830.896	198.31
831.073	81.58
831.25	241.32
831.427	159.4
831.604	126.63
831.782	132.78
831.959	81.58
832.136	165.54
832.313	83.63
832.49	132.78
832.667	120.49
832.844	87.72
833.021	194.22
833.198	116.39
833.374	75.43
833.551	54.95
833.728	214.7
833.905	194.22
834.082	140.97
834.259	157.35
834.436	192.17
834.612	130.73
834.789	149.16
834.966	186.02
835.143	157.35
835.319	83.63
835.496	163.5
835.673	69.29
835.85	171.69
836.026	126.63
836.203	128.68
836.38	93.87
836.556	118.44
836.733	104.11
836.909	147.11
837.086	122.54
837.262	24.23
837.439	106.15
837.616	57
837.792	67.24
837.968	134.82
838.145	50.86
838.321	163.5
838.498	87.72
838.674	190.12
838.851	97.96
839.027	34.47
839.203	147.11
839.38	143.02
839.556	102.06
839.732	65.19
839.909	79.53
840.085	157.35
840.261	34.47
840.437	61.1
840.614	157.35
840.79	153.26
840.966	95.91
841.142	89.77
841.318	85.67
841.494	114.34
841.671	77.48
841.847	38.57
842.023	46.76
842.199	118.44
842.375	183.98
842.551	50.86
842.727	177.83
842.903	50.86
843.079	32.43
843.255	83.63
843.431	95.91
843.607	192.17
843.783	24.23
843.959	179.88
844.134	81.58
844.31	69.29
844.486	22.19
844.662	5.8
844.838	97.96
845.013	138.92
845.189	40.62
845.365	87.72
845.541	118.44
845.716	120.49
845.892	79.53
846.068	61.1
846.244	42.67
846.419	118.44
846.595	61.1
846.77	40.62
846.946	65.19
847.122	124.58
847.297	3.75
847.473	93.87
847.648	46.76
847.824	87.72
847.999	24.23
848.175	38.57
848.35	57
848.526	114.34
848.701	130.73
848.876	89.77
849.052	87.72
849.227	13.99
849.403	48.81
849.578	85.67
849.753	54.95
849.929	42.67
850.104	40.62
850.279	106.15
850.454	89.77
850.63	75.43
850.805	50.86
850.98	28.33
851.155	85.67
851.33	91.82
851.505	48.81
851.681	5.8
851.856	75.43
852.031	83.63
852.206	52.91
852.381	106.15
852.556	46.76
852.731	138.92
852.906	157.35
853.081	44.71
853.256	89.77
853.431	11.95
853.606	28.33
853.781	-16.73
853.956	38.57
854.131	61.1
854.305	-16.73
854.48	-12.63
854.655	63.15
854.83	9.9
855.005	50.86
855.18	16.04
855.354	5.8
855.529	102.06
855.704	83.63
855.879	104.11
856.053	18.09
856.228	126.63
856.403	-31.06
856.577	-43.35
856.752	-39.25
856.926	24.23
857.101	20.14
857.276	95.91
857.45	40.62
857.625	71.34
857.799	-16.73
857.974	16.04
858.148	-8.53
858.323	73.39
858.497	-18.77
858.672	-24.92
858.846	22.19
859.02	95.91
859.195	24.23
859.369	54.95
859.543	-2.39
859.718	-14.68
859.892	48.81
860.066	13.99
860.241	-16.73
860.415	-6.49
860.589	-8.53
860.763	18.09
860.938	57
861.112	61.1
861.286	20.14
861.46	108.2
861.634	22.19
861.808	75.43
861.982	52.91
862.157	30.38
862.331	69.29
862.505	-16.73
862.679	42.67
862.853	9.9
863.027	71.34
863.201	97.96
863.375	-2.39
863.549	67.24
863.722	54.95
863.896	81.58
864.07	59.05
864.244	-2.39
864.418	102.06
864.592	50.86
864.766	106.15
864.939	16.04
865.113	-29.01
865.287	57
865.461	-22.87
865.634	-2.39
865.808	44.71
865.982	65.19
866.156	36.52
866.329	13.99
866.503	11.95
866.676	63.15
866.85	-12.63
867.024	-22.87
867.197	65.19
867.371	44.71
867.544	104.11
867.718	-35.16
867.891	5.8
868.065	1.71
868.238	75.43
868.412	100.01
868.585	-8.53
868.759	73.39
868.932	-24.92
869.105	32.43
869.279	13.99
869.452	46.76
869.625	114.34
869.799	26.28
869.972	3.75
870.145	112.3
870.319	124.58
870.492	-47.44
870.665	69.29
870.838	7.85
871.011	1.71
871.185	30.38
871.358	30.38
871.531	44.71
871.704	38.57
871.877	18.09
872.05	48.81
872.223	13.99
872.396	77.48
872.569	24.23
872.742	-45.4
872.915	40.62
873.088	-14.68
873.261	73.39
873.434	-18.77
873.607	-12.63
873.78	40.62
873.953	-39.25
874.126	24.23
874.299	110.25
874.471	9.9
874.644	18.09
874.817	59.05
874.99	26.28
875.163	-26.96
875.335	22.19
875.508	77.48
875.681	67.24
875.853	-65.88
876.026	67.24
876.199	-2.39
876.371	1.71
876.544	7.85
876.717	30.38
876.889	30.38
877.062	28.33
877.234	-4.44
877.407	18.09
877.579	1.71
877.752	18.09
877.924	87.72
878.097	48.81
878.269	-20.82
878.442	81.58
878.614	-4.44
878.786	44.71
878.959	-4.44
879.131	-26.96
879.303	-33.11
879.476	24.23
879.648	73.39
879.82	-26.96
879.993	36.52
880.165	18.09
880.337	-37.2
880.509	46.76
880.681	-14.68
880.854	38.57
881.026	65.19
881.198	30.38
881.37	-12.63
881.542	11.95
881.714	-4.44
881.886	30.38
882.058	50.86
882.23	57
882.402	-80.21
882.574	40.62
882.746	54.95
882.918	44.71
883.09	97.96
883.262	59.05
883.434	93.87
883.606	1.71
883.778	-61.78
883.95	126.63
884.122	-53.59
884.293	50.86
884.465	-18.77
884.637	116.39
884.809	7.85
884.98	-12.63
885.152	-33.11
885.324	46.76
885.496	18.09
885.667	97.96
885.839	44.71
886.011	59.05
886.182	44.71
886.354	40.62
886.525	18.09
886.697	59.05
886.869	9.9
887.04	40.62
887.212	13.99
887.383	91.82
887.555	-16.73
887.726	-0.34
887.897	57
888.069	71.34
888.24	147.11
888.412	24.23
888.583	-8.53
888.754	-43.35
888.926	-18.77
889.097	52.91
889.268	11.95
889.44	-37.2
889.611	1.71
889.782	34.47
889.953	-59.73
890.125	38.57
890.296	-8.53
890.467	-49.49
890.638	-43.35
890.809	52.91
890.98	-10.58
891.151	44.71
891.323	34.47
891.494	28.33
891.665	7.85
891.836	-24.92
892.007	20.14
892.178	3.75
892.349	67.24
892.52	-0.34
892.691	46.76
892.862	83.63
893.032	-20.82
893.203	1.71
893.374	11.95
893.545	73.39
893.716	34.47
893.887	11.95
894.057	-49.49
894.228	38.57
894.399	-35.16
894.57	-12.63
894.74	11.95
894.911	69.29
895.082	-14.68
895.253	11.95
895.423	9.9
895.594	61.1
895.764	54.95
895.935	-41.3
896.106	-20.82
896.276	-49.49
896.447	26.28
896.617	5.8
896.788	-55.64
896.958	63.15
897.129	22.19
897.299	-53.59
897.47	126.63
897.64	22.19
897.81	52.91
897.981	-2.39
898.151	28.33
898.322	65.19
898.492	63.15
898.662	34.47
898.832	-10.58
899.003	-84.31
899.173	7.85
899.343	9.9
899.513	-82.26
