Data from USB4F104151__73__12-42-15-918.txt Node

Date: Fri Mar 14 12:42:15 EDT 2025
User: louis
Spectrometer: USB4F10415
Trigger mode: 4
Integration Time (sec): 3.000000E-2
Scans to average: 1
Electric dark correction enabled: true
Nonlinearity correction enabled: false
Boxcar width: 0
XAxis mode: Wavelengths
Number of Pixels in Spectrum: 3648
>>>>>Begin Spectral Data<<<<<
178.204	-114.69
178.424	-114.69
178.644	-114.69
178.864	-116.73
179.084	-122.88
179.304	-67.58
179.524	-8.19
179.744	12.29
179.964	100.35
180.184	26.62
180.404	30.72
180.624	-16.38
180.844	-28.67
181.064	36.86
181.283	-18.43
181.503	-63.49
181.723	-4.1
181.943	-6.14
182.163	104.45
182.383	-10.24
182.602	12.29
182.822	86.01
183.042	77.82
183.262	38.91
183.482	28.67
183.701	12.29
183.921	-10.24
184.141	-20.48
184.361	59.39
184.58	61.44
184.8	57.34
185.02	34.82
185.239	83.97
185.459	86.01
185.679	71.68
185.898	-34.82
186.118	26.62
186.338	32.77
186.557	38.91
186.777	-4.1
186.997	73.73
187.216	28.67
187.436	122.88
187.655	26.62
187.875	126.97
188.095	57.34
188.314	90.11
188.534	49.15
188.753	-28.67
188.973	88.06
189.192	30.72
189.412	63.49
189.631	12.29
189.851	12.29
190.07	172.03
190.29	-18.43
190.509	67.58
190.729	26.62
190.948	86.01
191.168	159.74
191.387	-20.48
191.607	-32.77
191.826	94.21
192.045	22.53
192.265	34.82
192.484	2.05
192.704	59.39
192.923	12.29
193.142	149.5
193.362	-14.34
193.581	10.24
193.8	-0
194.02	90.11
194.239	55.3
194.458	57.34
194.678	-24.58
194.897	-8.19
195.116	18.43
195.335	69.63
195.555	94.21
195.774	24.58
195.993	32.77
196.212	51.2
196.432	55.3
196.651	34.82
196.87	6.14
197.089	102.4
197.308	63.49
197.528	116.73
197.747	-32.77
197.966	57.34
198.185	77.82
198.404	43.01
198.623	36.86
198.842	75.77
199.062	57.34
199.281	47.1
199.5	104.45
199.719	77.82
199.938	94.21
200.157	98.3
200.376	92.16
200.595	45.06
200.814	8.19
201.033	2.05
201.252	38.91
201.471	51.2
201.69	36.86
201.909	65.53
202.128	118.78
202.347	51.2
202.566	75.77
202.785	4.1
203.004	61.44
203.223	79.87
203.442	86.01
203.661	4.1
203.879	18.43
204.098	90.11
204.317	4.1
204.536	110.59
204.755	47.1
204.974	61.44
205.193	10.24
205.411	172.03
205.63	49.15
205.849	112.64
206.068	-0
206.287	57.34
206.505	10.24
206.724	4.1
206.943	22.53
207.162	43.01
207.381	71.68
207.599	51.2
207.818	24.58
208.037	118.78
208.255	59.39
208.474	108.54
208.693	34.82
208.911	4.1
209.13	67.58
209.349	120.83
209.567	55.3
209.786	122.88
210.005	-4.1
210.223	-0
210.442	24.58
210.661	18.43
210.879	71.68
211.098	53.25
211.316	-2.05
211.535	59.39
211.753	98.3
211.972	10.24
212.191	-22.53
212.409	45.06
212.628	67.58
212.846	-6.14
213.065	122.88
213.283	83.97
213.502	-26.62
213.72	45.06
213.938	26.62
214.157	102.4
214.375	71.68
214.594	94.21
214.812	43.01
215.031	8.19
215.249	18.43
215.467	57.34
215.686	88.06
215.904	47.1
216.122	2.05
216.341	34.82
216.559	63.49
216.778	73.73
216.996	45.06
217.214	20.48
217.432	45.06
217.651	18.43
217.869	-6.14
218.087	47.1
218.306	-40.96
218.524	67.58
218.742	6.14
218.96	10.24
219.179	51.2
219.397	20.48
219.615	178.17
219.833	77.82
220.051	-12.29
220.27	79.87
220.488	-20.48
220.706	-6.14
220.924	26.62
221.142	16.38
221.36	124.93
221.578	77.82
221.796	57.34
222.015	49.15
222.233	30.72
222.451	57.34
222.669	-20.48
222.887	104.45
223.105	16.38
223.323	-34.82
223.541	26.62
223.759	71.68
223.977	-20.48
224.195	90.11
224.413	88.06
224.631	77.82
224.849	18.43
225.067	106.49
225.285	47.1
225.503	79.87
225.721	20.48
225.939	-4.1
226.157	61.44
226.375	163.84
226.592	20.48
226.81	20.48
227.028	65.53
227.246	180.22
227.464	10.24
227.682	43.01
227.9	36.86
228.117	114.69
228.335	43.01
228.553	6.14
228.771	83.97
228.989	38.91
229.206	-26.62
229.424	53.25
229.642	65.53
229.86	65.53
230.077	57.34
230.295	49.15
230.513	124.93
230.731	28.67
230.948	133.12
231.166	90.11
231.384	22.53
231.601	16.38
231.819	26.62
232.037	-14.34
232.254	28.67
232.472	-55.3
232.689	20.48
232.907	20.48
233.125	6.14
233.342	32.77
233.56	77.82
233.777	8.19
233.995	53.25
234.213	34.82
234.43	22.53
234.648	59.39
234.865	73.73
235.083	106.49
235.3	-18.43
235.518	53.25
235.735	32.77
235.953	6.14
236.17	-43.01
236.388	102.4
236.605	12.29
236.822	45.06
237.04	51.2
237.257	6.14
237.475	28.67
237.692	57.34
237.909	71.68
238.127	71.68
238.344	-18.43
238.562	116.73
238.779	-18.43
238.996	38.91
239.214	43.01
239.431	88.06
239.648	-2.05
239.865	57.34
240.083	88.06
240.3	83.97
240.517	-4.1
240.735	30.72
240.952	100.35
241.169	83.97
241.386	126.97
241.603	61.44
241.821	26.62
242.038	-16.38
242.255	12.29
242.472	4.1
242.689	28.67
242.907	94.21
243.124	51.2
243.341	63.49
243.558	-6.14
243.775	40.96
243.992	26.62
244.209	71.68
244.426	94.21
244.643	124.93
244.86	36.86
245.078	34.82
245.295	38.91
245.512	40.96
245.729	20.48
245.946	8.19
246.163	86.01
246.38	81.92
246.597	14.34
246.814	22.53
247.031	49.15
247.248	79.87
247.464	55.3
247.681	14.34
247.898	45.06
248.115	55.3
248.332	86.01
248.549	55.3
248.766	81.92
248.983	94.21
249.2	6.14
249.417	88.06
249.633	61.44
249.85	126.97
250.067	65.53
250.284	40.96
250.501	63.49
250.717	-8.19
250.934	45.06
251.151	112.64
251.368	-36.86
251.585	2.05
251.801	16.38
252.018	73.73
252.235	104.45
252.451	-4.1
252.668	106.49
252.885	88.06
253.102	38.91
253.318	6.14
253.535	-18.43
253.752	49.15
253.968	63.49
254.185	40.96
254.401	-6.14
254.618	77.82
254.835	4.1
255.051	34.82
255.268	-0
255.484	88.06
255.701	57.34
255.917	-22.53
256.134	12.29
256.351	86.01
256.567	75.77
256.784	32.77
257	6.14
257.217	126.97
257.433	83.97
257.65	51.2
257.866	26.62
258.082	-12.29
258.299	-22.53
258.515	79.87
258.732	10.24
258.948	26.62
259.165	26.62
259.381	-59.39
259.597	49.15
259.814	79.87
260.03	43.01
260.246	88.06
260.463	57.34
260.679	10.24
260.895	100.35
261.112	-6.14
261.328	30.72
261.544	26.62
261.761	129.02
261.977	14.34
262.193	-12.29
262.409	81.92
262.626	94.21
262.842	34.82
263.058	14.34
263.274	71.68
263.49	88.06
263.707	8.19
263.923	98.3
264.139	22.53
264.355	6.14
264.571	102.4
264.787	10.24
265.004	24.58
265.22	65.53
265.436	14.34
265.652	83.97
265.868	104.45
266.084	-34.82
266.3	30.72
266.516	12.29
266.732	94.21
266.948	-8.19
267.164	22.53
267.38	67.58
267.596	137.21
267.812	77.82
268.028	12.29
268.244	49.15
268.46	34.82
268.676	26.62
268.892	96.25
269.108	-0
269.324	-32.77
269.54	112.64
269.756	55.3
269.972	106.49
270.188	-16.38
270.403	61.44
270.619	-6.14
270.835	43.01
271.051	71.68
271.267	28.67
271.483	55.3
271.698	55.3
271.914	38.91
272.13	36.86
272.346	47.1
272.562	6.14
272.777	61.44
272.993	124.93
273.209	26.62
273.425	63.49
273.64	12.29
273.856	61.44
274.072	81.92
274.287	43.01
274.503	45.06
274.719	51.2
274.934	38.91
275.15	53.25
275.366	43.01
275.581	49.15
275.797	-10.24
276.012	47.1
276.228	18.43
276.444	4.1
276.659	79.87
276.875	-2.05
277.09	34.82
277.306	30.72
277.521	71.68
277.737	40.96
277.952	12.29
278.168	20.48
278.383	59.39
278.599	40.96
278.814	47.1
279.03	100.35
279.245	161.79
279.461	47.1
279.676	49.15
279.892	63.49
280.107	16.38
280.322	-18.43
280.538	28.67
280.753	40.96
280.969	51.2
281.184	88.06
281.399	81.92
281.615	6.14
281.83	34.82
282.045	-49.15
282.26	14.34
282.476	43.01
282.691	53.25
282.906	16.38
283.122	-55.3
283.337	98.3
283.552	77.82
283.767	-6.14
283.983	133.12
284.198	69.63
284.413	55.3
284.628	-20.48
284.843	49.15
285.058	16.38
285.274	90.11
285.489	14.34
285.704	59.39
285.919	18.43
286.134	8.19
286.349	36.86
286.564	79.87
286.779	6.14
286.995	92.16
287.21	-2.05
287.425	57.34
287.64	71.68
287.855	75.77
288.07	-22.53
288.285	110.59
288.5	98.3
288.715	79.87
288.93	65.53
289.145	22.53
289.36	92.16
289.575	32.77
289.79	67.58
290.004	40.96
290.219	75.77
290.434	12.29
290.649	-4.1
290.864	104.45
291.079	40.96
291.294	45.06
291.509	57.34
291.724	57.34
291.938	69.63
292.153	102.4
292.368	22.53
292.583	16.38
292.798	47.1
293.012	96.25
293.227	47.1
293.442	-32.77
293.657	71.68
293.871	75.77
294.086	79.87
294.301	96.25
294.516	77.82
294.73	18.43
294.945	-10.24
295.16	71.68
295.374	69.63
295.589	120.83
295.804	24.58
296.018	69.63
296.233	92.16
296.447	49.15
296.662	2.05
296.877	77.82
297.091	45.06
297.306	88.06
297.52	83.97
297.735	30.72
297.949	4.1
298.164	55.3
298.378	69.63
298.593	-4.1
298.807	-0
299.022	10.24
299.236	79.87
299.451	10.24
299.665	22.53
299.88	2.05
300.094	-6.14
300.309	-6.14
300.523	49.15
300.737	126.97
300.952	22.53
301.166	129.02
301.381	59.39
301.595	92.16
301.809	26.62
302.024	30.72
302.238	-22.53
302.452	182.27
302.667	71.68
302.881	47.1
303.095	67.58
303.309	53.25
303.524	-0
303.738	8.19
303.952	45.06
304.166	100.35
304.381	-0
304.595	38.91
304.809	12.29
305.023	26.62
305.237	2.05
305.452	102.4
305.666	63.49
305.88	108.54
306.094	94.21
306.308	69.63
306.522	86.01
306.736	102.4
306.95	61.44
307.164	92.16
307.379	18.43
307.593	22.53
307.807	131.07
308.021	143.36
308.235	22.53
308.449	-57.34
308.663	51.2
308.877	96.25
309.091	47.1
309.305	79.87
309.519	-10.24
309.733	96.25
309.947	61.44
310.161	118.78
310.374	77.82
310.588	22.53
310.802	24.58
311.016	-26.62
311.23	43.01
311.444	26.62
311.658	47.1
311.872	69.63
312.085	69.63
312.299	88.06
312.513	69.63
312.727	32.77
312.941	12.29
313.154	106.49
313.368	45.06
313.582	34.82
313.796	10.24
314.009	57.34
314.223	12.29
314.437	14.34
314.651	67.58
314.864	120.83
315.078	-14.34
315.292	67.58
315.505	28.67
315.719	96.25
315.933	-14.34
316.146	49.15
316.36	-4.1
316.573	90.11
316.787	53.25
317.001	112.64
317.214	-57.34
317.428	18.43
317.641	65.53
317.855	63.49
318.068	43.01
318.282	88.06
318.495	51.2
318.709	53.25
318.922	75.77
319.136	110.59
319.349	94.21
319.563	49.15
319.776	108.54
319.99	-24.58
320.203	114.69
320.417	14.34
320.63	20.48
320.843	-26.62
321.057	6.14
321.27	81.92
321.483	63.49
321.697	71.68
321.91	73.73
322.124	18.43
322.337	-0
322.55	-8.19
322.763	69.63
322.977	-10.24
323.19	12.29
323.403	61.44
323.617	49.15
323.83	79.87
324.043	57.34
324.256	32.77
324.469	45.06
324.683	135.17
324.896	67.58
325.109	10.24
325.322	22.53
325.535	79.87
325.748	79.87
325.962	47.1
326.175	73.73
326.388	73.73
326.601	71.68
326.814	79.87
327.027	-32.77
327.24	90.11
327.453	18.43
327.666	71.68
327.879	55.3
328.092	61.44
328.305	10.24
328.518	14.34
328.731	63.49
328.944	49.15
329.157	26.62
329.37	-0
329.583	100.35
329.796	65.53
330.009	-10.24
330.222	40.96
330.435	63.49
330.648	45.06
330.861	4.1
331.073	18.43
331.286	120.83
331.499	83.97
331.712	63.49
331.925	59.39
332.138	26.62
332.35	114.69
332.563	38.91
332.776	139.26
332.989	38.91
333.202	22.53
333.414	22.53
333.627	34.82
333.84	26.62
334.053	98.3
334.265	83.97
334.478	116.73
334.691	143.36
334.903	61.44
335.116	34.82
335.329	57.34
335.541	92.16
335.754	92.16
335.966	57.34
336.179	-12.29
336.392	92.16
336.604	34.82
336.817	104.45
337.029	59.39
337.242	-0
337.454	65.53
337.667	49.15
337.88	153.6
338.092	43.01
338.305	75.77
338.517	32.77
338.729	104.45
338.942	106.49
339.154	-6.14
339.367	-0
339.579	55.3
339.792	-38.91
340.004	45.06
340.217	-53.25
340.429	47.1
340.641	77.82
340.854	94.21
341.066	4.1
341.278	67.58
341.491	96.25
341.703	94.21
341.915	36.86
342.128	53.25
342.34	90.11
342.552	114.69
342.764	18.43
342.977	26.62
343.189	22.53
343.401	61.44
343.613	22.53
343.826	22.53
344.038	20.48
344.25	79.87
344.462	30.72
344.674	65.53
344.886	45.06
345.099	98.3
345.311	133.12
345.523	26.62
345.735	53.25
345.947	69.63
346.159	65.53
346.371	65.53
346.583	22.53
346.795	86.01
347.007	83.97
347.219	47.1
347.431	88.06
347.643	75.77
347.855	-10.24
348.067	67.58
348.279	-22.53
348.491	26.62
348.703	-0
348.915	43.01
349.127	-28.67
349.339	14.34
349.551	47.1
349.763	51.2
349.975	-30.72
350.187	118.78
350.399	118.78
350.61	12.29
350.822	124.93
351.034	71.68
351.246	69.63
351.458	96.25
351.669	110.59
351.881	112.64
352.093	67.58
352.305	94.21
352.517	22.53
352.728	79.87
352.94	77.82
353.152	57.34
353.363	-22.53
353.575	57.34
353.787	124.93
353.999	106.49
354.21	100.35
354.422	12.29
354.633	110.59
354.845	79.87
355.057	34.82
355.268	32.77
355.48	36.86
355.692	24.58
355.903	88.06
356.115	-38.91
356.326	-63.49
356.538	126.97
356.749	75.77
356.961	122.88
357.172	30.72
357.384	-24.58
357.595	137.21
357.807	30.72
358.018	43.01
358.23	53.25
358.441	94.21
358.653	38.91
358.864	65.53
359.075	73.73
359.287	90.11
359.498	83.97
359.709	65.53
359.921	47.1
360.132	45.06
360.344	18.43
360.555	49.15
360.766	-30.72
360.977	143.36
361.189	59.39
361.4	77.82
361.611	143.36
361.823	81.92
362.034	40.96
362.245	-6.14
362.456	131.07
362.667	83.97
362.879	61.44
363.09	51.2
363.301	79.87
363.512	100.35
363.723	59.39
363.935	122.88
364.146	30.72
364.357	57.34
364.568	90.11
364.779	-6.14
364.99	96.25
365.201	-4.1
365.412	83.97
365.623	-10.24
365.834	77.82
366.045	10.24
366.256	43.01
366.467	79.87
366.678	55.3
366.889	6.14
367.1	40.96
367.311	32.77
367.522	57.34
367.733	63.49
367.944	110.59
368.155	77.82
368.366	57.34
368.577	63.49
368.788	73.73
368.999	92.16
369.209	40.96
369.42	94.21
369.631	59.39
369.842	106.49
370.053	28.67
370.264	53.25
370.474	83.97
370.685	92.16
370.896	55.3
371.107	141.31
371.317	81.92
371.528	2.05
371.739	112.64
371.95	100.35
372.16	124.93
372.371	6.14
372.582	57.34
372.792	47.1
373.003	131.07
373.214	30.72
373.424	90.11
373.635	-28.67
373.846	81.92
374.056	155.65
374.267	90.11
374.477	100.35
374.688	43.01
374.898	6.14
375.109	30.72
375.319	34.82
375.53	96.25
375.74	98.3
375.951	81.92
376.161	126.97
376.372	120.83
376.582	26.62
376.793	67.58
377.003	71.68
377.214	8.19
377.424	108.54
377.635	90.11
377.845	8.19
378.055	147.45
378.266	110.59
378.476	30.72
378.686	43.01
378.897	83.97
379.107	98.3
379.317	47.1
379.528	20.48
379.738	135.17
379.948	28.67
380.158	75.77
380.369	120.83
380.579	133.12
380.789	96.25
380.999	90.11
381.21	149.5
381.42	145.41
381.63	26.62
381.84	114.69
382.05	98.3
382.261	83.97
382.471	55.3
382.681	69.63
382.891	92.16
383.101	106.49
383.311	26.62
383.521	28.67
383.731	92.16
383.941	67.58
384.151	59.39
384.361	79.87
384.571	4.1
384.781	16.38
384.991	100.35
385.201	161.79
385.411	67.58
385.621	96.25
385.831	47.1
386.041	51.2
386.251	47.1
386.461	108.54
386.671	98.3
386.881	73.73
387.091	51.2
387.301	77.82
387.511	131.07
387.72	30.72
387.93	36.86
388.14	59.39
388.35	49.15
388.56	108.54
388.769	43.01
388.979	98.3
389.189	73.73
389.399	73.73
389.609	88.06
389.818	108.54
390.028	49.15
390.238	141.31
390.447	16.38
390.657	96.25
390.867	18.43
391.076	104.45
391.286	102.4
391.496	149.5
391.705	86.01
391.915	116.73
392.125	32.77
392.334	69.63
392.544	180.22
392.753	94.21
392.963	71.68
393.172	-18.43
393.382	34.82
393.591	122.88
393.801	53.25
394.01	145.41
394.22	61.44
394.429	98.3
394.639	81.92
394.848	108.54
395.058	112.64
395.267	116.73
395.477	86.01
395.686	114.69
395.895	137.21
396.105	55.3
396.314	61.44
396.524	71.68
396.733	79.87
396.942	92.16
397.152	77.82
397.361	90.11
397.57	143.36
397.78	104.45
397.989	69.63
398.198	157.69
398.407	133.12
398.617	90.11
398.826	116.73
399.035	90.11
399.244	137.21
399.453	126.97
399.663	143.36
399.872	59.39
400.081	77.82
400.29	186.37
400.499	106.49
400.708	73.73
400.917	143.36
401.127	157.69
401.336	165.89
401.545	131.07
401.754	159.74
401.963	145.41
402.172	116.73
402.381	129.02
402.59	81.92
402.799	98.3
403.008	190.46
403.217	169.98
403.426	143.36
403.635	147.45
403.844	192.51
404.053	157.69
404.262	145.41
404.471	172.03
404.68	157.69
404.888	141.31
405.097	98.3
405.306	145.41
405.515	215.04
405.724	235.52
405.933	118.78
406.142	172.03
406.35	235.52
406.559	180.22
406.768	155.65
406.977	167.93
407.185	202.75
407.394	286.72
407.603	178.17
407.812	202.75
408.02	251.9
408.229	237.56
408.438	215.04
408.646	210.94
408.855	239.61
409.064	288.76
409.272	292.86
409.481	344.06
409.69	237.56
409.898	346.11
410.107	280.57
410.315	290.81
410.524	253.95
410.733	323.58
410.941	303.1
411.15	385.02
411.358	382.97
411.567	485.37
411.775	405.5
411.984	405.5
412.192	413.69
412.401	413.69
412.609	471.03
412.818	552.95
413.026	565.24
413.234	489.46
413.443	499.7
413.651	534.52
413.86	520.18
414.068	507.9
414.276	628.73
414.485	534.52
414.693	624.63
414.901	737.27
415.11	704.5
415.318	727.03
415.526	720.88
415.734	784.37
415.943	749.56
416.151	845.81
416.359	722.93
416.567	788.47
416.776	835.57
416.984	894.96
417.192	993.26
417.4	950.26
417.608	948.21
417.817	999.41
418.025	948.21
418.233	1097.71
418.441	1077.23
418.649	1183.73
418.857	1239.02
419.065	1325.04
419.273	1200.11
419.481	1325.04
419.689	1351.66
419.897	1456.11
420.105	1443.82
420.313	1476.59
420.521	1628.14
420.729	1636.33
420.937	1644.52
421.145	1671.14
421.353	1748.97
421.561	1847.27
421.769	1822.69
421.977	1916.9
422.185	1908.71
422.393	2029.54
422.601	2334.68
422.809	2224.09
423.017	2195.42
423.224	2357.21
423.432	2490.33
423.64	2385.88
423.848	2637.78
424.056	2566.1
424.263	2738.13
424.471	2738.13
424.679	2695.13
424.887	2861.01
425.094	3076.05
425.302	3129.3
425.51	3125.2
425.718	3184.59
425.925	3196.88
426.133	3377.1
426.341	3659.72
426.548	3661.77
426.756	3725.26
426.964	3817.41
427.171	4018.11
427.379	4143.04
427.586	4145.09
427.794	4349.89
428.001	4499.39
428.209	4796.34
428.417	4589.5
428.624	4954.04
428.832	5015.48
429.039	4945.84
429.247	4902.84
429.454	5382.06
429.662	5826.47
429.869	5388.21
430.076	5541.8
430.284	5674.92
430.491	5900.2
430.699	6090.66
430.906	6180.77
431.114	6203.3
431.321	6535.07
431.528	6662.04
431.736	7096.21
431.943	7458.7
432.15	7270.29
432.358	7260.05
432.565	7565.2
432.772	7585.68
432.979	7915.4
433.187	8091.52
433.394	8105.86
433.601	8585.08
433.808	8564.61
434.016	8755.07
434.223	9156.47
434.43	9549.68
434.637	9299.83
434.844	9801.58
435.052	10260.32
435.259	9946.98
435.466	10299.23
435.673	10248.04
435.88	10860.38
436.087	11450.19
436.294	11413.33
436.501	10981.21
436.708	11409.23
436.915	11820.88
437.122	12304.2
437.329	12353.35
437.537	12576.58
437.743	12887.87
437.95	12744.51
438.157	13385.52
438.364	13852.46
438.571	13926.19
438.778	13899.56
438.985	15173.4
439.192	14761.76
439.399	15048.47
439.606	14747.42
439.813	15658.77
440.02	16721.66
440.227	16039.69
440.433	15953.68
440.64	16621.31
440.847	16494.34
441.054	16867.07
441.261	17923.82
441.467	17477.37
441.674	18269.93
441.881	18716.39
442.088	18994.91
442.294	18626.28
442.501	18986.72
442.708	19433.18
442.914	20199.12
443.121	21264.06
443.328	20635.33
443.534	21999.28
443.741	21384.89
443.948	21028.54
444.154	22417.07
444.361	22744.74
444.568	22486.7
444.774	22738.6
444.981	22898.34
445.187	23455.39
445.394	24514.19
445.6	24061.58
445.807	26351.21
446.013	25644.66
446.22	25808.5
446.426	26670.7
446.633	27131.49
446.839	28253.78
447.046	26893.93
447.252	28616.27
447.459	28247.63
447.665	28366.42
447.871	29607.48
448.078	30664.24
448.284	29109.83
448.491	30092.85
448.697	31538.72
448.903	32073.24
449.11	32052.76
449.316	31520.29
449.522	32329.23
449.728	33052.17
449.935	32982.54
450.141	33052.17
450.347	34006.52
450.553	33080.84
450.76	33322.5
450.966	34317.81
451.172	34045.43
451.378	34657.78
451.584	34156.02
451.791	35216.87
451.997	35126.76
452.203	35446.24
452.409	35493.35
452.615	35671.52
452.821	34088.44
453.027	33562.11
453.233	35356.13
453.44	34100.73
453.646	34803.18
453.852	34661.87
454.058	35352.04
454.264	34303.48
454.47	35091.94
454.676	34065.91
454.882	35341.8
455.088	32337.43
455.294	32669.2
455.5	33099.27
455.705	33474.05
455.911	32347.67
456.117	31381.03
456.323	31098.41
456.529	29623.87
456.735	30961.19
456.941	30400.05
457.147	29560.38
457.352	28913.22
457.558	28307.02
457.764	28569.16
457.97	27971.16
458.176	27068
458.381	26986.08
458.587	26089.07
458.793	25849.46
458.999	24905.35
459.204	26478.19
459.41	25800.31
459.616	23637.66
459.821	24241.81
460.027	23850.64
460.233	23479.96
460.438	22253.23
460.644	22824.61
460.85	21462.71
461.055	21421.75
461.261	21257.92
461.466	19953.36
461.672	18882.27
461.878	20598.47
462.083	18667.24
462.289	18550.5
462.494	18585.32
462.7	17688.31
462.905	17219.32
463.111	17839.86
463.316	17800.94
463.522	17463.03
463.727	17526.52
463.932	17555.19
464.138	17358.58
464.343	17473.27
464.549	16752.38
464.754	17409.78
464.959	17200.89
465.165	17280.76
465.37	16523.01
465.575	16006.92
465.781	16596.74
465.986	16746.24
466.191	16084.75
466.397	15927.05
466.602	14941.98
466.807	15720.21
467.012	15609.62
467.218	15542.03
467.423	15339.29
467.628	15486.74
467.833	16029.45
468.038	15458.07
468.244	15081.24
468.449	15480.6
468.654	15071
468.859	14870.3
469.064	15089.43
469.269	14554.91
469.474	14384.93
469.679	14874.4
469.885	14065.45
470.09	14479.14
470.295	14401.32
470.5	14044.97
470.705	14020.39
470.91	13764.4
471.115	13766.45
471.32	13926.19
471.525	13829.93
471.73	13442.87
471.935	13201.21
472.139	13223.73
472.344	13129.53
472.549	12885.82
472.754	12869.44
472.959	12541.76
473.164	12330.82
473.369	12121.93
473.574	12635.97
473.778	12605.25
473.983	12277.57
474.188	12474.18
474.393	11900.75
474.598	11800.4
474.802	11679.57
475.007	11579.22
475.212	11691.85
475.417	11384.66
475.621	11210.58
475.826	11290.45
476.031	11237.2
476.235	10784.6
476.44	10942.3
476.645	10753.88
476.849	10901.34
477.054	10706.78
477.259	10475.36
477.463	10542.94
477.668	10356.58
477.872	10577.76
478.077	10356.58
478.282	9949.03
478.486	10194.79
478.691	10006.38
478.895	9748.33
479.1	9721.71
479.304	9934.7
479.509	9467.76
479.713	9717.61
479.918	9248.63
480.122	9238.39
480.326	9459.57
480.531	9408.37
480.735	9338.74
480.94	9277.3
481.144	9631.6
481.348	9086.84
481.553	9117.56
481.757	8972.15
481.961	9242.48
482.166	9494.38
482.37	9209.72
482.574	8986.49
482.778	9029.49
482.983	9224.05
483.187	9121.65
483.391	9176.95
483.595	9019.25
483.8	8980.34
484.004	9080.69
484.208	9086.84
484.412	9269.11
484.616	9144.18
484.821	9082.74
485.025	8879.99
485.229	9078.65
485.433	9076.6
485.637	9158.52
485.841	8992.63
486.045	9060.21
486.249	8834.94
486.453	8855.42
486.657	8793.98
486.861	9164.66
487.065	8927.1
487.269	8918.9
487.473	8746.87
487.677	9025.4
487.881	9156.47
488.085	9033.59
488.289	8935.29
488.493	9121.65
488.697	9111.41
488.901	9021.3
489.105	9088.89
489.309	8990.58
489.512	9056.12
489.716	9187.19
489.92	9062.26
490.124	8994.68
490.328	9262.96
490.531	9228.15
490.735	9414.51
490.939	9369.46
491.143	9213.81
491.346	9199.48
491.55	9432.94
491.754	9387.89
491.958	9426.8
492.161	9244.53
492.365	9514.86
492.569	9312.11
492.772	9424.75
492.976	9561.97
493.18	9490.29
493.383	9666.41
493.587	9645.93
493.79	9899.88
493.994	9754.48
494.197	9897.83
494.401	9965.42
494.605	10139.49
494.808	10280.8
495.012	10055.53
495.215	10194.79
495.419	10428.26
495.622	10133.35
495.825	10411.87
496.029	10379.11
496.232	10776.41
496.436	10403.68
496.639	10852.19
496.843	10731.36
497.046	11013.98
497.249	11192.15
497.453	11190.1
497.656	11011.93
497.859	11259.73
498.063	11308.88
498.266	11644.75
498.469	11442
498.673	11806.54
498.876	11919.18
499.079	11779.92
499.282	11945.8
499.485	12166.98
499.689	12404.55
499.892	12386.11
500.095	12539.71
500.298	12726.08
500.501	12795.71
500.705	13006.65
500.908	13307.7
501.111	13410.1
501.314	13254.45
501.517	13846.32
501.72	13872.94
501.923	13578.03
502.126	13999.91
502.329	14284.58
502.532	14317.35
502.735	14382.88
502.938	14667.55
503.141	14624.54
503.344	14765.85
503.547	14716.7
503.75	15331.09
503.953	15451.92
504.156	15443.73
504.359	15519.51
504.562	15593.23
504.765	15861.52
504.968	16162.57
505.17	16312.07
505.373	16189.19
505.576	16684.8
505.779	16715.52
505.982	16754.43
506.185	17395.45
506.387	17301.24
506.59	17624.82
506.793	17819.38
506.996	17604.34
507.198	18224.87
507.401	18161.39
507.604	18290.41
507.807	18863.84
508.009	18632.42
508.212	18867.94
508.415	19031.77
508.617	19435.22
508.82	19490.52
509.022	19259.1
509.225	20082.38
509.428	19922.64
509.63	20068.05
509.833	20418.25
510.035	21036.73
510.238	20436.68
510.44	20942.53
510.643	21378.75
510.845	21034.69
511.048	21233.34
511.25	21774
511.453	21690.04
511.655	22394.54
511.858	22048.43
512.06	22116.01
512.262	22433.45
512.465	22671.01
512.667	23148.19
512.87	23309.98
513.072	23316.12
513.274	23686.81
513.477	23926.42
513.679	23891.6
513.881	24256.14
514.084	24682.12
514.286	24366.73
514.488	24753.8
514.69	25409.15
514.893	25273.98
515.095	25366.14
515.297	25781.88
515.499	25925.24
515.701	26064.5
515.904	26551.91
516.106	26455.66
516.308	26586.73
516.51	26967.65
516.712	26949.22
516.914	27305.57
517.116	27917.91
517.318	27889.24
517.52	27815.51
517.722	28087.89
517.925	28427.85
518.127	28649.03
518.329	28616.27
518.531	28776.01
518.733	29398.59
518.935	29406.78
519.136	29578.81
519.338	29994.55
519.54	29802.04
519.742	30322.23
519.944	30625.32
520.146	31315.49
520.348	30877.22
520.55	31028.77
520.752	31223.33
520.954	31684.12
521.155	31807
521.357	31714.84
521.559	32081.43
521.761	32503.31
521.963	32579.09
522.164	32933.39
522.366	32841.23
522.568	33078.79
522.77	32939.53
522.971	33660.41
523.173	33267.2
523.375	33539.58
523.576	33809.92
523.778	33940.99
523.98	34242.04
524.181	34452.98
524.383	34285.04
524.584	34776.56
524.786	34825.71
524.988	34977.26
525.189	35315.17
525.391	35323.36
525.592	35583.46
525.794	35788.25
525.995	35507.68
526.197	35735.01
526.398	35808.73
526.6	35827.17
526.801	36173.27
527.003	36181.46
527.204	36369.88
527.406	36660.69
527.607	36779.47
527.808	37101
528.01	36318.68
528.211	36738.51
528.412	37434.82
528.614	37240.26
528.815	37053.9
529.016	37594.56
529.218	37017.04
529.419	37283.27
529.62	37565.89
529.822	37336.52
530.023	37305.8
530.224	37400.01
530.425	37428.68
530.626	37115.34
530.828	37375.43
531.029	38221.24
531.23	37590.47
531.431	37864.89
531.632	38225.34
531.833	37877.18
532.035	38393.27
532.236	38090.17
532.437	38337.97
532.638	38180.28
532.839	38094.27
533.04	38378.93
533.241	37955
533.442	38688.18
533.643	38057.4
533.844	38057.4
534.045	38311.35
534.246	37836.22
534.447	38182.33
534.648	38403.51
534.849	38299.06
535.05	38122.94
535.251	37905.85
535.451	38106.55
535.652	38360.5
535.853	38098.36
536.054	38516.15
536.255	38684.08
536.456	38213.05
536.657	38577.59
536.857	38112.7
537.058	38186.43
537.259	38358.45
537.46	38346.17
537.66	38028.73
537.861	38442.42
538.062	38442.42
538.263	38436.28
538.463	38032.83
538.664	38104.51
538.865	38383.03
539.065	38335.93
539.266	37848.51
539.466	38745.52
539.667	37746.11
539.868	38536.63
540.068	38086.07
540.269	37690.82
540.469	38331.83
540.67	37893.57
540.87	38020.54
541.071	38055.36
541.271	38272.44
541.472	37809.6
541.672	37959.1
541.873	37815.74
542.073	37694.91
542.274	38260.15
542.474	37660.1
542.675	37776.83
542.875	38251.96
543.075	38090.17
543.276	37748.16
543.476	37957.05
543.676	37711.3
543.877	38034.88
544.077	37881.28
544.277	38170.04
544.478	37889.47
544.678	37799.36
544.878	38278.58
545.078	38014.4
545.279	37707.2
545.479	37965.24
545.679	37983.68
545.879	38073.79
546.079	37987.77
546.28	37789.12
546.48	37612.99
546.68	37967.29
546.88	38094.27
547.08	37850.56
547.28	37912
547.48	37299.65
547.68	38016.44
547.88	37426.63
548.081	37885.37
548.281	37551.55
548.481	37559.75
548.681	38303.16
548.881	37819.84
549.081	37912
549.28	37311.94
549.48	37946.81
549.68	37811.65
549.88	37920.19
550.08	37610.95
550.28	37926.33
550.48	37529.03
550.68	37995.96
550.88	37516.74
551.08	37187.02
551.279	37572.03
551.479	37205.45
551.679	37057.99
551.879	37221.83
552.079	37719.49
552.278	37346.76
552.478	37156.3
552.678	37426.63
552.878	37266.89
553.077	37436.87
553.277	37191.11
553.477	37742.02
553.676	37318.09
553.876	37338.57
554.076	37418.44
554.275	36990.41
554.475	36750.8
554.674	36984.27
554.874	37283.27
555.074	36677.07
555.273	37131.72
555.473	37549.51
555.672	36812.24
555.872	36990.41
556.071	37258.7
556.271	36922.83
556.47	36613.59
556.67	36644.3
556.869	36562.39
557.068	37062.09
557.268	36576.72
557.467	36543.95
557.667	36914.64
557.866	36869.58
558.065	36589.01
558.265	36349.4
558.464	36369.88
558.663	36584.91
558.863	36126.17
559.062	36873.68
559.261	36222.42
559.461	36519.38
559.66	36089.31
559.859	36247
560.058	36253.14
560.258	36507.09
560.457	35724.77
560.656	36455.89
560.855	35921.37
561.054	35948
561.253	35782.11
561.453	36189.66
561.652	36277.72
561.851	36292.05
562.05	35681.76
562.249	35667.42
562.448	35878.36
562.647	35681.76
562.846	35493.35
563.045	35751.39
563.244	35296.74
563.443	35945.95
563.642	35032.55
563.841	35354.08
564.04	35075.56
564.239	35304.93
564.438	35102.18
564.637	35638.75
564.836	35282.41
565.035	34864.62
565.234	35368.42
565.432	35100.14
565.631	34553.33
565.83	35071.46
566.029	34733.55
566.228	34704.88
566.427	34680.3
566.625	34452.98
566.824	34106.87
567.023	34612.72
567.222	33883.64
567.42	34680.3
567.619	34328.05
567.818	33932.79
568.016	34338.29
568.215	34553.33
568.414	34270.71
568.612	34508.27
568.811	33758.72
569.01	34309.62
569.208	33848.83
569.407	34070.01
569.605	33338.88
569.804	33779.2
570.002	33443.33
570.201	33641.98
570.4	33299.97
570.598	33428.99
570.797	32972.3
570.995	33588.74
571.193	33013.26
571.392	33660.41
571.59	32871.95
571.789	33220.1
571.987	32880.14
572.186	33013.26
572.384	32785.93
572.582	32980.49
572.781	32970.25
572.979	32284.18
573.177	32945.67
573.376	32839.18
573.574	32257.56
573.772	32749.07
573.971	31948.31
574.169	32280.08
574.367	31944.22
574.565	32484.88
574.763	31933.98
574.962	31651.36
575.16	32009.75
575.358	31847.96
575.556	31489.57
575.754	32071.19
575.952	31575.58
576.151	31768.09
576.349	31340.07
576.547	31405.6
576.745	31413.79
576.943	31473.18
577.141	31458.85
577.339	31217.19
577.537	30860.84
577.735	31231.52
577.933	31039.01
578.131	31206.95
578.329	30752.3
578.527	30596.65
578.725	30862.89
578.923	30740.01
579.121	30621.23
579.319	30537.26
579.516	30567.98
579.714	30373.42
579.912	30545.45
580.11	30291.51
580.308	30287.41
580.506	30047.8
580.704	29703.74
580.901	30289.46
581.099	30301.75
581.297	29808.19
581.495	29625.92
581.692	29814.33
581.89	29550.14
582.088	29845.05
582.285	29494.85
582.483	29566.52
582.681	29275.71
582.878	29302.34
583.076	29025.86
583.274	29570.62
583.471	28716.62
583.669	28991.05
583.866	28941.89
584.064	29148.74
584.262	28841.54
584.459	29140.55
584.657	28683.85
584.854	28884.55
585.052	28296.78
585.249	28464.72
585.447	28755.53
585.644	28243.54
585.841	28546.64
586.039	28880.46
586.236	28294.74
586.434	27975.25
586.631	28098.13
586.828	28153.43
587.026	28005.97
587.223	27924.05
587.42	27618.91
587.618	27981.4
587.815	27559.52
588.012	27201.12
588.21	27088.48
588.407	27453.02
588.604	27162.21
588.801	27141.73
588.999	27213.41
589.196	27125.35
589.393	27113.06
589.59	26836.58
589.787	26914.41
589.984	26893.93
590.182	26693.22
590.379	26848.87
590.576	26400.37
590.773	26599.02
590.97	26474.09
591.167	26742.38
591.364	26291.82
591.561	26486.38
591.758	26019.44
591.955	26013.3
592.152	26353.26
592.349	25906.8
592.546	25775.73
592.743	26035.83
592.94	25833.08
593.137	25409.15
593.334	25685.62
593.531	25407.1
593.727	25581.18
593.924	25366.14
594.121	25239.17
594.318	25257.6
594.515	25286.27
594.712	25325.18
594.908	25134.72
595.105	24999.55
595.302	24927.88
595.499	24757.89
595.696	24938.12
595.892	24561.29
596.089	24614.54
596.286	24745.61
596.482	24805
596.679	24161.94
596.876	24456.84
597.072	24546.95
597.269	24675.98
597.466	24178.32
597.662	24098.45
597.859	24231.57
598.055	23944.85
598.252	23606.94
598.448	23877.27
598.645	23756.44
598.841	23961.23
599.038	23805.59
599.234	23678.61
599.431	23389.85
599.627	23770.77
599.824	23334.56
600.02	23266.97
600.217	23496.35
600.413	23205.53
600.609	23355.04
600.806	22918.82
601.002	23142.05
601.198	22810.28
601.395	22845.09
601.591	22841
601.787	23056.03
601.984	22656.68
602.18	22597.29
602.376	22312.62
602.572	22503.08
602.769	22369.96
602.965	22085.29
603.161	22386.35
603.357	22073.01
603.553	21986.99
603.75	22032.05
603.946	21999.28
604.142	21892.79
604.338	21761.72
604.534	22007.47
604.73	21651.13
604.926	21501.62
605.122	21827.25
605.318	21384.89
605.514	21470.9
605.71	21585.59
605.906	21149.37
606.102	21266.11
606.298	21462.71
606.494	21030.59
606.69	21298.88
606.886	21550.78
607.082	20944.58
607.278	21069.5
607.474	20950.72
607.67	21040.83
607.866	20690.63
608.062	21067.45
608.257	20788.93
608.453	20860.61
608.649	20838.08
608.845	20563.65
609.041	20758.21
609.236	20807.36
609.432	20457.16
609.628	20639.43
609.824	20543.17
610.019	20491.98
610.215	20467.4
610.411	20444.87
610.606	20301.51
610.802	20412.1
610.998	20387.53
611.193	20532.93
611.389	19953.36
611.584	20131.53
611.78	20004.56
611.976	20082.38
612.171	20006.61
612.367	19865.3
612.562	19814.1
612.758	19826.39
612.953	19476.18
613.149	20049.61
613.344	19420.89
613.539	20117.2
613.735	19652.31
613.93	19799.76
614.126	19535.57
614.321	19566.29
614.517	19619.54
614.712	19459.8
614.907	19513.05
615.103	19367.64
615.298	19482.33
615.493	19310.3
615.688	19193.56
615.884	19562.2
616.079	18947.81
616.274	19289.82
616.47	19070.68
616.665	19013.34
616.86	19140.32
617.055	19199.71
617.25	18859.74
617.445	19054.3
617.641	18910.94
617.836	19007.2
618.031	18484.97
618.226	18869.98
618.421	19005.15
618.616	18861.79
618.811	18341.61
619.006	19021.53
619.201	18284.26
619.396	18376.42
619.591	18261.74
619.786	18474.73
619.981	18071.28
620.176	18112.24
620.371	17704.69
620.566	18214.63
620.761	17823.47
620.956	18054.89
621.151	17538.8
621.346	17778.42
621.541	17569.52
621.735	17846
621.93	17393.4
622.125	17176.31
622.32	16981.76
622.515	16994.04
622.709	17209.08
622.904	17063.68
623.099	16924.41
623.294	17026.81
623.488	16551.68
623.683	16871.17
623.878	16695.04
624.072	16566.02
624.267	16473.86
624.462	16537.35
624.656	16201.48
624.851	16187.15
625.046	15935.24
625.24	16252.68
625.435	16121.61
625.629	16035.6
625.824	15873.81
626.018	15851.28
626.213	15400.72
626.407	15771.41
626.602	15425.3
626.796	15419.16
626.991	15202.07
627.185	15101.72
627.38	15357.72
627.574	14952.22
627.768	15017.75
627.963	14788.38
628.157	15083.29
628.352	14694.18
628.546	14534.43
628.74	14720.8
628.935	14397.22
629.129	14380.84
629.323	14231.33
629.517	14335.78
629.712	14184.23
629.906	14327.59
630.1	14120.74
630.294	14194.47
630.489	13651.76
630.683	14087.98
630.877	13702.96
631.071	13838.12
631.265	13657.9
631.459	13481.78
631.653	13346.61
631.848	13707.05
632.042	13580.08
632.236	13346.61
632.43	13266.74
632.624	13221.69
632.818	13084.47
633.012	12855.1
633.206	12975.93
633.4	12943.16
633.594	12767.04
633.788	12982.07
633.982	12678.97
634.176	12633.92
634.369	12523.33
634.563	12568.38
634.757	12547.9
634.951	12552
635.145	12357.44
635.339	12265.28
635.533	12431.17
635.726	12060.49
635.92	12013.38
636.114	11888.46
636.308	11992.9
636.501	11999.05
636.695	12007.24
636.889	11818.83
637.083	11607.89
637.276	11779.92
637.47	11724.62
637.664	11530.06
637.857	11724.62
638.051	11493.2
638.244	11239.25
638.438	11247.44
638.632	11315.03
638.825	11020.12
639.019	11392.85
639.212	11278.16
639.406	11038.55
639.599	11126.61
639.793	11140.95
639.986	10780.51
640.18	10917.72
640.373	10854.23
640.567	10712.92
640.76	10690.4
640.954	10321.76
641.147	10442.59
641.34	10499.94
641.534	10643.29
641.727	10346.34
641.92	10366.82
642.114	10334.05
642.307	10123.11
642.5	10182.5
642.694	10065.77
642.887	10217.32
643.08	10143.59
643.273	9973.61
643.467	9944.94
643.66	9863.02
643.853	9766.76
644.046	9596.78
644.239	9762.67
644.432	9467.76
644.626	9551.73
644.819	9504.62
645.012	9613.17
645.205	9508.72
645.398	9668.46
645.591	9256.82
645.784	9285.49
645.977	9305.97
646.17	9156.47
646.363	9193.33
646.556	9262.96
646.749	9058.17
646.942	9185.14
647.135	8955.77
647.328	8898.42
647.521	8849.27
647.714	8630.14
647.907	8863.61
648.099	8734.59
648.292	8767.35
648.485	8796.03
648.678	8705.92
648.871	8619.9
649.064	8460.16
649.256	8621.95
649.449	8480.64
649.642	8404.86
649.835	8390.53
650.027	8339.33
650.22	8306.56
650.413	8273.79
650.605	8243.07
650.798	8101.76
650.991	7919.5
651.183	8275.84
651.376	7956.36
651.568	7915.4
651.761	7931.78
651.954	7876.49
652.146	8091.52
652.339	7921.54
652.531	7944.07
652.724	7935.88
652.916	7647.12
653.109	7757.71
653.301	7524.24
653.494	7557
653.686	7430.03
653.879	7407.5
654.071	7440.27
654.263	7483.28
654.456	7522.19
654.648	7520.14
654.84	7270.29
655.033	7292.82
655.225	7231.38
655.417	7206.8
655.61	7219.09
655.802	7133.08
655.994	7042.96
656.186	7233.43
656.379	7024.53
656.571	7051.16
656.763	6930.33
656.955	6881.17
657.148	6975.38
657.34	6956.95
657.532	6854.55
657.724	6856.6
657.916	6872.98
658.108	6819.74
658.3	6600.6
658.492	6764.44
658.684	6510.49
658.876	6645.66
659.068	6641.56
659.26	6447.01
659.452	6457.25
659.644	6467.49
659.836	6363.04
660.028	6404
660.22	6322.08
660.412	6438.81
660.604	6250.4
660.796	6371.23
660.988	6264.74
661.18	6188.96
661.372	6186.91
661.563	6164.39
661.755	6064.04
661.947	6229.92
662.139	6092.71
662.331	6082.47
662.522	6006.69
662.714	5906.34
662.906	5941.16
663.097	5863.33
663.289	5808.04
663.481	5658.54
663.673	5822.38
663.864	5672.87
664.056	5814.18
664.247	5861.29
664.439	5662.63
664.631	5664.68
664.822	5642.15
665.014	5648.3
665.205	5576.62
665.397	5586.86
665.588	5730.22
665.78	5459.88
665.971	5529.52
666.163	5498.8
666.354	5539.76
666.546	5197.74
666.737	5341.1
666.929	5398.45
667.12	5367.73
667.311	5226.42
667.503	5367.73
667.694	5388.21
667.885	5185.46
668.077	5380.01
668.268	5224.37
668.459	5285.81
668.651	5265.33
668.842	5257.14
669.033	5093.3
669.224	5009.33
669.416	5216.18
669.607	5011.38
669.798	4945.84
669.989	5154.74
670.18	5083.06
670.371	4906.93
670.563	4956.08
670.754	4886.45
670.945	4837.3
671.136	4804.53
671.327	4902.84
671.518	4810.68
671.709	4833.21
671.9	4796.34
672.091	4806.58
672.282	4857.78
672.473	4718.52
672.664	4728.76
672.855	4579.26
673.046	4716.47
673.237	4718.52
673.428	4685.75
673.619	4769.72
673.809	4614.07
674	4693.94
674.191	4564.92
674.382	4583.35
674.573	4681.66
674.764	4515.77
674.954	4540.35
675.145	4353.98
675.336	4485.05
675.527	4556.73
675.717	4517.82
675.908	4310.97
676.099	4544.44
676.289	4474.81
676.48	4331.45
676.671	4396.99
676.861	4386.75
677.052	4380.61
677.243	4288.45
677.433	4384.7
677.624	4270.01
677.814	4184
678.005	4378.56
678.195	4220.86
678.386	4284.35
678.576	4339.65
678.767	4325.31
678.957	4120.51
679.148	4278.21
679.338	4147.14
679.529	4294.59
679.719	4270.01
679.909	4257.73
680.1	4257.73
680.29	4171.71
680.481	4081.6
680.671	4210.62
680.861	4222.91
681.052	4097.99
681.242	4153.28
681.432	4159.42
681.622	4222.91
681.813	4067.27
682.003	4018.11
682.193	4003.78
682.383	4136.9
682.573	4083.65
682.764	4169.66
682.954	4034.5
683.144	4016.07
683.334	4046.79
683.524	3934.15
683.714	3880.9
683.904	3973.06
684.094	3981.25
684.284	4022.21
684.474	3940.29
684.664	4011.97
684.854	3923.91
685.044	3850.18
685.234	4016.07
685.424	3743.69
685.614	3895.24
685.804	3805.13
685.994	3844.04
686.184	3837.89
686.374	3831.75
686.564	3743.69
686.753	3819.46
686.943	3745.73
687.133	3694.54
687.323	3760.07
687.513	3651.53
687.702	3733.45
687.892	3688.39
688.082	3758.02
688.272	3688.39
688.461	3663.82
688.651	3760.07
688.841	3610.57
689.03	3555.27
689.22	3585.99
689.41	3598.28
689.599	3602.38
689.789	3510.22
689.979	3506.12
690.168	3522.51
690.358	3473.35
690.547	3471.31
690.737	3422.16
690.926	3403.72
691.116	3299.28
691.305	3403.72
691.495	3397.58
691.684	3286.99
691.874	3508.17
692.063	3403.72
692.252	3325.9
692.442	3125.2
692.631	3317.71
692.82	3268.56
693.01	3217.36
693.199	3278.8
693.388	3291.09
693.578	3336.14
693.767	3344.33
693.956	3172.3
694.146	3192.78
694.335	3164.11
694.524	3188.69
694.713	3069.91
694.902	3243.98
695.092	3182.54
695.281	3139.54
695.47	3162.06
695.659	3055.57
695.848	3147.73
696.037	3104.72
696.226	3016.66
696.415	3096.53
696.604	3160.02
696.793	2897.88
696.982	3006.42
697.171	3014.61
697.36	3055.57
697.549	2899.92
697.738	2963.41
697.927	3020.75
698.116	2957.27
698.305	2985.94
698.494	3026.9
698.683	2936.79
698.872	2955.22
699.061	2861.01
699.25	2899.92
699.438	2856.92
699.627	2834.39
699.816	2963.41
700.005	2873.3
700.193	2858.96
700.382	2922.45
700.571	2953.17
700.76	2822.1
700.948	2795.48
701.137	2854.87
701.326	2768.85
701.514	2889.68
701.703	2908.12
701.892	2705.37
702.08	2971.6
702.269	2770.9
702.457	2783.19
702.646	2828.24
702.834	2766.81
703.023	2791.38
703.212	2797.53
703.4	2699.22
703.589	2815.96
703.777	2748.37
703.965	2709.46
704.154	2815.96
704.342	2787.29
704.531	2764.76
704.719	2775
704.907	2699.22
705.096	2684.89
705.284	2731.99
705.472	2715.61
705.661	2684.89
705.849	2869.2
706.037	2717.65
706.226	2670.55
706.414	2807.77
706.602	2559.96
706.79	2721.75
706.979	2674.65
707.167	2697.17
707.355	2760.66
707.543	2858.96
707.731	2701.27
707.919	2721.75
708.107	2709.46
708.296	2742.23
708.484	2717.65
708.672	2592.73
708.86	2654.17
709.048	2719.7
709.236	2598.87
709.424	2662.36
709.612	2713.56
709.8	2551.77
709.988	2678.74
710.176	2736.09
710.364	2740.18
710.551	2664.41
710.739	2795.48
710.927	2682.84
711.115	2725.85
711.303	2670.55
711.491	2594.78
711.679	2682.84
711.866	2672.6
712.054	2721.75
712.242	2697.17
712.43	2715.61
712.617	2742.23
712.805	2695.13
712.993	2602.97
713.181	2553.82
713.368	2719.7
713.556	2717.65
713.744	2598.87
713.931	2750.42
714.119	2670.55
714.306	2750.42
714.494	2654.17
714.682	2713.56
714.869	2602.97
715.057	2674.65
715.244	2607.06
715.432	2605.02
715.619	2660.31
715.807	2611.16
715.994	2600.92
716.182	2682.84
716.369	2668.5
716.556	2715.61
716.744	2670.55
716.931	2684.89
717.119	2678.74
717.306	2643.93
717.493	2527.19
717.681	2713.56
717.868	2535.39
718.055	2672.6
718.242	2596.82
718.43	2713.56
718.617	2693.08
718.804	2731.99
718.991	2768.85
719.179	2822.1
719.366	2650.07
719.553	2717.65
719.74	2670.55
719.927	2744.28
720.114	2740.18
720.301	2691.03
720.488	2740.18
720.676	2707.41
720.863	2715.61
721.05	2705.37
721.237	2668.5
721.424	2633.69
721.611	2635.74
721.798	2648.02
721.985	2582.49
722.172	2744.28
722.358	2754.52
722.545	2754.52
722.732	2656.22
722.919	2754.52
723.106	2756.57
723.293	2795.48
723.48	2803.67
723.667	2756.57
723.853	2699.22
724.04	2779.09
724.227	2785.24
724.414	2750.42
724.6	2725.85
724.787	2813.91
724.974	2734.04
725.161	2740.18
725.347	2770.9
725.534	2797.53
725.72	2836.44
725.907	2756.57
726.094	2686.93
726.28	2807.77
726.467	2762.71
726.653	2723.8
726.84	2750.42
727.027	2731.99
727.213	2770.9
727.4	2762.71
727.586	2787.29
727.773	2758.61
727.959	2848.72
728.145	2764.76
728.332	2883.54
728.518	2836.44
728.705	2748.37
728.891	2791.38
729.077	2910.16
729.264	2791.38
729.45	2818
729.636	2811.86
729.823	2750.42
730.009	2807.77
730.195	2791.38
730.382	2858.96
730.568	2908.12
730.754	2906.07
730.94	2854.87
731.126	3014.61
731.313	2899.92
731.499	2940.88
731.685	2912.21
731.871	2824.15
732.057	3012.56
732.243	2885.59
732.429	2918.36
732.615	2897.88
732.801	3119.06
732.987	2836.44
733.173	2736.09
733.359	2895.83
733.545	2934.74
733.731	2889.68
733.917	2953.17
734.103	3008.47
734.289	3002.32
734.475	2910.16
734.661	2928.6
734.847	2871.25
735.033	2932.69
735.219	3012.56
735.404	3108.82
735.59	2971.6
735.776	2942.93
735.962	3049.43
736.148	3049.43
736.333	3090.38
736.519	2953.17
736.705	3047.38
736.89	2918.36
737.076	3008.47
737.262	3037.14
737.447	3069.91
737.633	3055.57
737.819	2985.94
738.004	2916.31
738.19	2990.03
738.375	3006.42
738.561	3090.38
738.747	2916.31
738.932	3012.56
739.118	2959.31
739.303	2846.68
739.489	2951.12
739.674	3082.19
739.859	3071.95
740.045	3022.8
740.23	3020.75
740.416	3006.42
740.601	3008.47
740.786	2951.12
740.972	2985.94
741.157	3076.05
741.342	2983.89
741.528	3000.27
741.713	3018.71
741.898	3014.61
742.084	2951.12
742.269	3030.99
742.454	2992.08
742.639	3043.28
742.824	2926.55
743.01	3057.62
743.195	3000.27
743.38	2877.4
743.565	2955.22
743.75	3061.71
743.935	2932.69
744.12	2955.22
744.305	2969.55
744.49	2844.63
744.675	2949.07
744.86	2938.84
745.045	2957.27
745.23	3037.14
745.415	2992.08
745.6	3018.71
745.785	2881.49
745.97	2932.69
746.155	2826.2
746.34	2883.54
746.525	2908.12
746.71	2836.44
746.895	2883.54
747.079	2779.09
747.264	2756.57
747.449	2789.33
747.634	2781.14
747.819	2787.29
748.003	2891.73
748.188	2770.9
748.373	2875.35
748.557	2682.84
748.742	2639.83
748.927	2707.41
749.111	2781.14
749.296	2684.89
749.481	2633.69
749.665	2695.13
749.85	2662.36
750.034	2627.54
750.219	2672.6
750.404	2535.39
750.588	2611.16
750.773	2529.24
750.957	2504.67
751.141	2539.48
751.326	2492.38
751.51	2572.25
751.695	2570.2
751.879	2459.61
752.064	2602.97
752.248	2480.09
752.432	2490.33
752.617	2381.79
752.801	2471.9
752.985	2480.09
753.17	2439.13
753.354	2287.58
753.538	2432.99
753.722	2408.41
753.907	2416.6
754.091	2367.45
754.275	2322.4
754.459	2312.16
754.643	2306.01
754.828	2240.48
755.012	2291.68
755.196	2238.43
755.38	2299.87
755.564	2291.68
755.748	2254.81
755.932	2250.72
756.116	2267.1
756.3	2199.52
756.484	2095.07
756.668	2209.76
756.852	2078.69
757.036	2176.99
757.22	2084.83
757.404	2105.31
757.588	2045.92
757.772	2090.98
757.956	2138.08
758.14	2220
758.323	2146.27
758.507	2027.49
758.691	1986.53
758.875	2101.22
759.059	2013.15
759.242	2021.35
759.426	1877.99
759.61	1888.23
759.794	1830.88
759.977	2097.12
760.161	1867.75
760.345	1867.75
760.528	1959.91
760.712	1875.94
760.895	1849.32
761.079	1843.17
761.263	1847.27
761.446	1869.8
761.63	1826.79
761.813	1890.28
761.997	1796.07
762.18	1906.66
762.364	1791.97
762.547	1757.16
762.731	1802.21
762.914	1716.2
763.098	1822.69
763.281	1748.97
763.464	1744.87
763.648	1716.2
763.831	1775.59
764.015	1730.53
764.198	1658.85
764.381	1730.53
764.564	1732.58
764.748	1697.77
764.931	1648.61
765.114	1732.58
765.297	1775.59
765.481	1574.89
765.664	1646.57
765.847	1660.9
766.03	1583.08
766.213	1677.29
766.397	1617.9
766.58	1650.66
766.763	1748.97
766.946	1591.27
767.129	1544.17
767.312	1677.29
767.495	1640.42
767.678	1570.79
767.861	1693.67
768.044	1538.02
768.227	1568.74
768.41	1669.09
768.593	1546.22
768.776	1585.13
768.959	1566.7
769.142	1558.5
769.324	1550.31
769.507	1576.94
769.69	1511.4
769.873	1452.01
770.056	1509.35
770.239	1447.91
770.421	1533.93
770.604	1447.91
770.787	1445.87
770.97	1505.26
771.152	1335.28
771.335	1466.35
771.518	1406.95
771.7	1411.05
771.883	1374.19
772.066	1409
772.248	1427.43
772.431	1441.77
772.613	1320.94
772.796	1341.42
772.978	1456.11
773.161	1279.98
773.343	1277.93
773.526	1263.6
773.708	1249.26
773.891	1296.36
774.073	1443.82
774.256	1228.78
774.438	1337.32
774.621	1322.99
774.803	1331.18
774.985	1239.02
775.168	1331.18
775.35	1286.12
775.532	1234.93
775.715	1269.74
775.897	1163.25
776.079	1181.68
776.261	1243.12
776.444	1175.53
776.626	1273.84
776.808	1183.73
776.99	1191.92
777.173	1173.49
777.355	1112.05
777.537	1142.77
777.719	1132.53
777.901	1103.86
778.083	1071.09
778.265	1140.72
778.447	1091.57
778.629	1103.86
778.811	1093.62
778.993	1206.25
779.175	1091.57
779.357	1032.18
779.539	1001.46
779.721	1054.7
779.903	1054.7
780.085	989.17
780.267	1046.51
780.449	1050.61
780.631	946.16
780.812	1032.18
780.994	978.93
781.176	942.07
781.358	935.92
781.54	1003.5
781.721	890.87
781.903	1032.18
782.085	872.43
782.267	954.35
782.448	849.91
782.63	948.21
782.812	835.57
782.993	962.55
783.175	880.63
783.357	776.18
783.538	823.28
783.72	798.71
783.901	804.85
784.083	849.91
784.264	790.52
784.446	731.12
784.627	802.8
784.809	843.76
784.99	753.65
785.172	845.81
785.353	784.37
785.535	847.86
785.716	702.45
785.897	681.97
786.079	770.04
786.26	710.65
786.441	696.31
786.623	698.36
786.804	745.46
786.985	743.41
787.167	747.51
787.348	692.21
787.529	743.41
787.71	745.46
787.891	690.17
788.073	626.68
788.254	638.97
788.435	790.52
788.616	667.64
788.797	677.88
788.978	638.97
789.159	522.23
789.34	661.49
789.522	663.54
789.703	645.11
789.884	604.15
790.065	575.48
790.246	561.14
790.427	567.29
790.607	720.88
790.788	628.73
790.969	636.92
791.15	622.58
791.331	624.63
791.512	643.06
791.693	561.14
791.874	651.25
792.054	632.82
792.235	606.2
792.416	571.38
792.597	595.96
792.778	524.28
792.958	530.42
793.139	546.81
793.32	571.38
793.5	530.42
793.681	546.81
793.862	538.62
794.042	643.06
794.223	507.9
794.404	475.13
794.584	491.51
794.765	507.9
794.945	487.42
795.126	466.94
795.306	587.77
795.487	475.13
795.667	487.42
795.848	448.51
796.028	511.99
796.209	421.88
796.389	534.52
796.57	507.9
796.75	475.13
796.93	485.37
797.111	419.83
797.291	399.35
797.471	440.31
797.652	460.79
797.832	432.12
798.012	550.9
798.192	409.59
798.373	419.83
798.553	405.5
798.733	532.47
798.913	372.73
799.093	421.88
799.274	481.27
799.454	446.46
799.634	423.93
799.814	450.55
799.994	393.21
800.174	403.45
800.354	382.97
800.534	391.16
800.714	450.55
800.894	487.42
801.074	368.63
801.254	385.02
801.434	456.7
801.614	425.98
801.794	456.7
801.974	1122.29
802.154	389.11
802.334	411.64
802.514	399.35
802.693	339.96
802.873	460.79
803.053	458.74
803.233	403.45
803.413	368.63
803.592	419.83
803.772	385.02
803.952	444.41
804.131	331.77
804.311	423.93
804.491	378.87
804.67	354.3
804.85	329.72
805.03	272.38
805.209	393.21
805.389	403.45
805.568	331.77
805.748	333.82
805.928	413.69
806.107	391.16
806.287	428.03
806.466	362.49
806.646	354.3
806.825	335.87
807.004	251.9
807.184	317.44
807.363	342.01
807.543	358.39
807.722	309.24
807.901	346.11
808.081	342.01
808.26	325.63
808.439	344.06
808.619	321.53
808.798	307.2
808.977	233.47
809.156	403.45
809.336	290.81
809.515	276.48
809.694	296.96
809.873	219.13
810.052	356.35
810.231	260.09
810.411	260.09
810.59	284.67
810.769	233.47
810.948	284.67
811.127	288.76
811.306	253.95
811.485	299
811.664	329.72
811.843	223.23
812.022	217.08
812.201	270.33
812.38	292.86
812.559	256
812.737	305.15
812.916	264.19
813.095	251.9
813.274	231.42
813.453	235.52
813.632	329.72
813.811	327.67
813.989	233.47
814.168	260.09
814.347	262.14
814.526	278.52
814.704	323.58
814.883	249.85
815.062	270.33
815.24	260.09
815.419	239.61
815.598	282.62
815.776	251.9
815.955	241.66
816.133	188.41
816.312	278.52
816.49	247.8
816.669	294.91
816.847	176.13
817.026	167.93
817.204	243.71
817.383	249.85
817.561	188.41
817.74	315.39
817.918	231.42
818.097	217.08
818.275	239.61
818.453	309.24
818.632	219.13
818.81	210.94
818.988	245.76
819.167	190.46
819.345	253.95
819.523	206.84
819.701	198.65
819.879	208.89
820.058	196.6
820.236	157.69
820.414	284.67
820.592	174.08
820.77	233.47
820.948	194.56
821.127	208.89
821.305	221.18
821.483	206.84
821.661	223.23
821.839	237.56
822.017	196.6
822.195	165.89
822.373	235.52
822.551	210.94
822.729	251.9
822.907	172.03
823.085	159.74
823.262	180.22
823.44	212.99
823.618	188.41
823.796	217.08
823.974	157.69
824.152	196.6
824.329	129.02
824.507	172.03
824.685	182.27
824.863	223.23
825.04	200.7
825.218	202.75
825.396	182.27
825.574	227.32
825.751	272.38
825.929	221.18
826.107	186.37
826.284	208.89
826.462	153.6
826.639	96.25
826.817	135.17
826.994	217.08
827.172	126.97
827.349	200.7
827.527	116.73
827.704	204.8
827.882	155.65
828.059	147.45
828.237	124.93
828.414	149.5
828.591	71.68
828.769	122.88
828.946	81.92
829.124	204.8
829.301	249.85
829.478	172.03
829.655	243.71
829.833	110.59
830.01	159.74
830.187	176.13
830.364	215.04
830.542	180.22
830.719	206.84
830.896	188.41
831.073	28.67
831.25	169.98
831.427	114.69
831.604	88.06
831.782	122.88
831.959	200.7
832.136	198.65
832.313	151.55
832.49	147.45
832.667	135.17
832.844	73.73
833.021	163.84
833.198	157.69
833.374	131.07
833.551	202.75
833.728	114.69
833.905	188.41
834.082	145.41
834.259	102.4
834.436	139.26
834.612	94.21
834.789	90.11
834.966	112.64
835.143	135.17
835.319	133.12
835.496	126.97
835.673	178.17
835.85	202.75
836.026	184.32
836.203	55.3
836.38	43.01
836.556	90.11
836.733	32.77
836.909	212.99
837.086	98.3
837.262	53.25
837.439	88.06
837.616	79.87
837.792	143.36
837.968	98.3
838.145	96.25
838.321	79.87
838.498	149.5
838.674	120.83
838.851	110.59
839.027	83.97
839.203	133.12
839.38	96.25
839.556	94.21
839.732	196.6
839.909	147.45
840.085	86.01
840.261	137.21
840.437	126.97
840.614	141.31
840.79	75.77
840.966	90.11
841.142	126.97
841.318	79.87
841.494	141.31
841.671	96.25
841.847	63.49
842.023	114.69
842.199	40.96
842.375	135.17
842.551	63.49
842.727	135.17
842.903	114.69
843.079	139.26
843.255	122.88
843.431	122.88
843.607	100.35
843.783	69.63
843.959	124.93
844.134	149.5
844.31	206.84
844.486	102.4
844.662	114.69
844.838	40.96
845.013	106.49
845.189	145.41
845.365	73.73
845.541	51.2
845.716	124.93
845.892	139.26
846.068	135.17
846.244	4.1
846.419	122.88
846.595	71.68
846.77	92.16
846.946	86.01
847.122	26.62
847.297	81.92
847.473	79.87
847.648	96.25
847.824	104.45
847.999	16.38
848.175	65.53
848.35	63.49
848.526	161.79
848.701	110.59
848.876	86.01
849.052	34.82
849.227	100.35
849.403	141.31
849.578	4.1
849.753	12.29
849.929	30.72
850.104	2.05
850.279	36.86
850.454	16.38
850.63	77.82
850.805	51.2
850.98	61.44
851.155	94.21
851.33	79.87
851.505	30.72
851.681	102.4
851.856	18.43
852.031	129.02
852.206	92.16
852.381	34.82
852.556	96.25
852.731	71.68
852.906	51.2
853.081	151.55
853.256	96.25
853.431	34.82
853.606	20.48
853.781	61.44
853.956	49.15
854.131	47.1
854.305	63.49
854.48	30.72
854.655	55.3
854.83	6.14
855.005	43.01
855.18	-4.1
855.354	28.67
855.529	96.25
855.704	59.39
855.879	81.92
856.053	-26.62
856.228	59.39
856.403	2.05
856.577	65.53
856.752	4.1
856.926	75.77
857.101	34.82
857.276	16.38
857.45	73.73
857.625	94.21
857.799	65.53
857.974	90.11
858.148	40.96
858.323	90.11
858.497	55.3
858.672	57.34
858.846	10.24
859.02	79.87
859.195	55.3
859.369	32.77
859.543	118.78
859.718	24.58
859.892	73.73
860.066	59.39
860.241	-0
860.415	12.29
860.589	45.06
860.763	57.34
860.938	43.01
861.112	110.59
861.286	34.82
861.46	83.97
861.634	34.82
861.808	98.3
861.982	38.91
862.157	83.97
862.331	40.96
862.505	4.1
862.679	28.67
862.853	157.69
863.027	139.26
863.201	88.06
863.375	55.3
863.549	47.1
863.722	28.67
863.896	161.79
864.07	43.01
864.244	38.91
864.418	53.25
864.592	163.84
864.766	43.01
864.939	10.24
865.113	10.24
865.287	102.4
865.461	-14.34
865.634	98.3
865.808	18.43
865.982	104.45
866.156	106.49
866.329	-24.58
866.503	36.86
866.676	51.2
866.85	4.1
867.024	-4.1
867.197	96.25
867.371	73.73
867.544	67.58
867.718	-24.58
867.891	36.86
868.065	6.14
868.238	26.62
868.412	88.06
868.585	-4.1
868.759	26.62
868.932	20.48
869.105	18.43
869.279	26.62
869.452	104.45
869.625	49.15
869.799	81.92
869.972	-8.19
870.145	14.34
870.319	65.53
870.492	-4.1
870.665	-36.86
870.838	-34.82
871.011	-8.19
871.185	55.3
871.358	8.19
871.531	59.39
871.704	-6.14
871.877	79.87
872.05	137.21
872.223	-0
872.396	18.43
872.569	61.44
872.742	8.19
872.915	69.63
873.088	-10.24
873.261	16.38
873.434	-34.82
873.607	-0
873.78	47.1
873.953	-20.48
874.126	71.68
874.299	79.87
874.471	-28.67
874.644	77.82
874.817	40.96
874.99	112.64
875.163	26.62
875.335	67.58
875.508	65.53
875.681	118.78
875.853	59.39
876.026	18.43
876.199	67.58
876.371	92.16
876.544	-14.34
876.717	63.49
876.889	-8.19
877.062	28.67
877.234	-45.06
877.407	36.86
877.579	22.53
877.752	34.82
877.924	73.73
878.097	36.86
878.269	73.73
878.442	69.63
878.614	86.01
878.786	26.62
878.959	16.38
879.131	40.96
879.303	6.14
879.476	45.06
879.648	88.06
879.82	116.73
879.993	30.72
880.165	-47.1
880.337	-10.24
880.509	81.92
880.681	36.86
880.854	18.43
881.026	104.45
881.198	67.58
881.37	20.48
881.542	6.14
881.714	51.2
881.886	49.15
882.058	-18.43
882.23	8.19
882.402	104.45
882.574	26.62
882.746	45.06
882.918	45.06
883.09	-49.15
883.262	-10.24
883.434	16.38
883.606	6.14
883.778	-20.48
883.95	79.87
884.122	8.19
884.293	83.97
884.465	79.87
884.637	22.53
884.809	40.96
884.98	51.2
885.152	116.73
885.324	12.29
885.496	-16.38
885.667	49.15
885.839	38.91
886.011	92.16
886.182	6.14
886.354	43.01
886.525	-36.86
886.697	16.38
886.869	-79.87
887.04	12.29
887.212	26.62
887.383	40.96
887.555	-14.34
887.726	8.19
887.897	10.24
888.069	-22.53
888.24	-8.19
888.412	43.01
888.583	-16.38
888.754	-0
888.926	-18.43
889.097	36.86
889.268	22.53
889.44	47.1
889.611	-65.54
889.782	59.39
889.953	10.24
890.125	65.53
890.296	47.1
890.467	40.96
890.638	65.53
890.809	55.3
890.98	14.34
891.151	-10.24
891.323	69.63
891.494	47.1
891.665	75.77
891.836	-2.05
892.007	16.38
892.178	2.05
892.349	57.34
892.52	36.86
892.691	45.06
892.862	16.38
893.032	-43.01
893.203	-6.14
893.374	61.44
893.545	59.39
893.716	24.58
893.887	86.01
894.057	2.05
894.228	-4.1
894.399	10.24
894.57	102.4
894.74	32.77
894.911	67.58
895.082	-16.38
895.253	26.62
895.423	43.01
895.594	59.39
895.764	38.91
895.935	-22.53
896.106	-14.34
896.276	65.53
896.447	-2.05
896.617	36.86
896.788	-59.39
896.958	28.67
897.129	20.48
897.299	2.05
897.47	65.53
897.64	10.24
897.81	24.58
897.981	86.01
898.151	36.86
898.322	-8.19
898.492	77.82
898.662	-38.91
898.832	-10.24
899.003	65.53
899.173	-0
899.343	69.63
899.513	40.96
