Data from USB4F104151__6__12-40-56-726.txt Node

Date: Fri Mar 14 12:40:56 EDT 2025
User: louis
Spectrometer: USB4F10415
Trigger mode: 4
Integration Time (sec): 3.000000E-2
Scans to average: 1
Electric dark correction enabled: true
Nonlinearity correction enabled: false
Boxcar width: 0
XAxis mode: Wavelengths
Number of Pixels in Spectrum: 3648
>>>>>Begin Spectral Data<<<<<
178.204	-133.29
178.424	-133.29
178.644	-133.29
178.864	-69.8
179.084	-104.62
179.304	36.69
179.524	5.97
179.744	-65.71
179.964	85.84
180.184	16.21
180.404	26.45
180.624	-18.6
180.844	87.89
181.064	-65.71
181.283	-41.13
181.503	-24.75
181.723	-43.18
181.943	-63.66
182.163	102.23
182.383	16.21
182.602	106.32
182.822	40.79
183.042	98.13
183.262	36.69
183.482	42.84
183.701	-16.55
183.921	22.36
184.141	28.5
184.361	51.03
184.58	110.42
184.8	81.75
185.02	-43.18
185.239	53.08
185.459	30.55
185.679	-49.32
185.898	14.17
186.118	81.75
186.338	32.6
186.557	14.17
186.777	65.36
186.997	32.6
187.216	38.74
187.436	48.98
187.655	75.6
187.875	108.37
188.095	-20.65
188.314	34.64
188.534	-4.27
188.753	20.31
188.973	55.12
189.192	22.36
189.412	42.84
189.631	18.26
189.851	36.69
190.07	12.12
190.29	18.26
190.509	12.12
190.729	48.98
190.948	44.88
191.168	126.8
191.387	102.23
191.607	34.64
191.826	57.17
192.045	59.22
192.265	65.36
192.484	40.79
192.704	-16.55
192.923	-32.94
193.142	98.13
193.362	20.31
193.581	63.32
193.8	16.21
194.02	77.65
194.239	85.84
194.458	51.03
194.678	12.12
194.897	126.8
195.116	28.5
195.335	10.07
195.555	65.36
195.774	51.03
195.993	77.65
196.212	63.32
196.432	8.02
196.651	67.41
196.87	73.56
197.089	169.81
197.308	30.55
197.528	75.6
197.747	-77.99
197.966	28.5
198.185	94.04
198.404	75.6
198.623	40.79
198.842	42.84
199.062	34.64
199.281	28.5
199.5	59.22
199.719	24.4
199.938	34.64
200.157	75.6
200.376	-0.17
200.595	73.56
200.814	81.75
201.033	-14.51
201.252	106.32
201.471	114.52
201.69	55.12
201.909	-51.37
202.128	1.88
202.347	85.84
202.566	1.88
202.785	51.03
203.004	38.74
203.223	135
203.442	53.08
203.661	8.02
203.879	124.76
204.098	14.17
204.317	-20.65
204.536	75.6
204.755	30.55
204.974	104.28
205.193	36.69
205.411	120.66
205.63	63.32
205.849	55.12
206.068	-37.03
206.287	24.4
206.505	36.69
206.724	14.17
206.943	81.75
207.162	-4.27
207.381	59.22
207.599	10.07
207.818	-10.41
208.037	44.88
208.255	63.32
208.474	87.89
208.693	30.55
208.911	12.12
209.13	24.4
209.349	55.12
209.567	83.8
209.786	22.36
210.005	55.12
210.223	110.42
210.442	-51.37
210.661	55.12
210.879	55.12
211.098	81.75
211.316	69.46
211.535	26.45
211.753	-18.6
211.972	-2.22
212.191	55.12
212.409	-18.6
212.628	-6.31
212.846	30.55
213.065	10.07
213.283	108.37
213.502	114.52
213.72	59.22
213.938	57.17
214.157	24.4
214.375	14.17
214.594	59.22
214.812	34.64
215.031	57.17
215.249	38.74
215.467	59.22
215.686	44.88
215.904	57.17
216.122	30.55
216.341	89.94
216.559	-0.17
216.778	30.55
216.996	71.51
217.214	36.69
217.432	16.21
217.651	57.17
217.869	-47.27
218.087	34.64
218.306	57.17
218.524	5.97
218.742	106.32
218.96	-30.89
219.179	46.93
219.397	16.21
219.615	87.89
219.833	63.32
220.051	53.08
220.27	130.9
220.488	75.6
220.706	96.08
220.924	32.6
221.142	-22.7
221.36	65.36
221.578	69.46
221.796	42.84
222.015	32.6
222.233	38.74
222.451	122.71
222.669	24.4
222.887	77.65
223.105	14.17
223.323	-2.22
223.541	-0.17
223.759	59.22
223.977	14.17
224.195	89.94
224.413	48.98
224.631	30.55
224.849	55.12
225.067	118.61
225.285	-12.46
225.503	8.02
225.721	-26.79
225.939	91.99
226.157	51.03
226.375	65.36
226.592	48.98
226.81	102.23
227.028	67.41
227.246	173.91
227.464	14.17
227.682	28.5
227.9	46.93
228.117	59.22
228.335	36.69
228.553	16.21
228.771	112.47
228.989	98.13
229.206	145.24
229.424	-34.99
229.642	-32.94
229.86	61.27
230.077	5.97
230.295	51.03
230.513	71.51
230.731	77.65
230.948	36.69
231.166	165.71
231.384	8.02
231.601	30.55
231.819	114.52
232.037	-4.27
232.254	8.02
232.472	34.64
232.689	55.12
232.907	63.32
233.125	24.4
233.342	42.84
233.56	-20.65
233.777	8.02
233.995	91.99
234.213	157.52
234.43	-4.27
234.648	81.75
234.865	34.64
235.083	1.88
235.3	112.47
235.518	-2.22
235.735	106.32
235.953	51.03
236.17	-45.23
236.388	79.7
236.605	-22.7
236.822	-0.17
237.04	89.94
237.257	3.93
237.475	3.93
237.692	28.5
237.909	75.6
238.127	44.88
238.344	26.45
238.562	114.52
238.779	20.31
238.996	69.46
239.214	44.88
239.431	116.56
239.648	61.27
239.865	-30.89
240.083	77.65
240.3	85.84
240.517	-12.46
240.735	38.74
240.952	53.08
241.169	116.56
241.386	12.12
241.603	-4.27
241.821	8.02
242.038	67.41
242.255	75.6
242.472	65.36
242.689	53.08
242.907	118.61
243.124	79.7
243.341	5.97
243.558	-10.41
243.775	38.74
243.992	-82.09
244.209	69.46
244.426	114.52
244.643	46.93
244.86	48.98
245.078	87.89
245.295	81.75
245.512	20.31
245.729	63.32
245.946	30.55
246.163	55.12
246.38	53.08
246.597	46.93
246.814	98.13
247.031	44.88
247.248	-0.17
247.464	132.95
247.681	36.69
247.898	-6.31
248.115	67.41
248.332	44.88
248.549	26.45
248.766	1.88
248.983	67.41
249.2	114.52
249.417	77.65
249.633	48.98
249.85	36.69
250.067	36.69
250.284	-6.31
250.501	75.6
250.717	12.12
250.934	-8.36
251.151	40.79
251.368	26.45
251.585	14.17
251.801	20.31
252.018	59.22
252.235	26.45
252.451	-37.03
252.668	-2.22
252.885	5.97
253.102	8.02
253.318	81.75
253.535	67.41
253.752	51.03
253.968	10.07
254.185	12.12
254.401	18.26
254.618	73.56
254.835	40.79
255.051	44.88
255.268	149.33
255.484	26.45
255.701	18.26
255.917	53.08
256.134	-18.6
256.351	53.08
256.567	16.21
256.784	104.28
257	-65.71
257.217	106.32
257.433	44.88
257.65	98.13
257.866	85.84
258.082	32.6
258.299	-12.46
258.515	87.89
258.732	-86.19
258.948	38.74
259.165	124.76
259.381	-4.27
259.597	42.84
259.814	53.08
260.03	44.88
260.246	108.37
260.463	75.6
260.679	59.22
260.895	18.26
261.112	63.32
261.328	40.79
261.544	-24.75
261.761	42.84
261.977	22.36
262.193	44.88
262.409	30.55
262.626	24.4
262.842	42.84
263.058	20.31
263.274	106.32
263.49	42.84
263.707	61.27
263.923	118.61
264.139	10.07
264.355	36.69
264.571	67.41
264.787	-0.17
265.004	20.31
265.22	-30.89
265.436	42.84
265.652	12.12
265.868	126.8
266.084	34.64
266.3	12.12
266.516	24.4
266.732	87.89
266.948	48.98
267.164	44.88
267.38	26.45
267.596	44.88
267.812	81.75
268.028	61.27
268.244	34.64
268.46	89.94
268.676	30.55
268.892	110.42
269.108	30.55
269.324	30.55
269.54	34.64
269.756	36.69
269.972	28.5
270.188	67.41
270.403	-10.41
270.619	42.84
270.835	24.4
271.051	-67.75
271.267	38.74
271.483	71.51
271.698	98.13
271.914	81.75
272.13	65.36
272.346	71.51
272.562	-18.6
272.777	126.8
272.993	18.26
273.209	100.18
273.425	36.69
273.64	22.36
273.856	20.31
274.072	-2.22
274.287	75.6
274.503	32.6
274.719	114.52
274.934	14.17
275.15	14.17
275.366	100.18
275.581	3.93
275.797	71.51
276.012	24.4
276.228	-14.51
276.444	83.8
276.659	89.94
276.875	55.12
277.09	59.22
277.306	59.22
277.521	71.51
277.737	81.75
277.952	24.4
278.168	-8.36
278.383	18.26
278.599	96.08
278.814	18.26
279.03	73.56
279.245	57.17
279.461	57.17
279.676	96.08
279.892	-20.65
280.107	83.8
280.322	96.08
280.538	67.41
280.753	69.46
280.969	42.84
281.184	30.55
281.399	81.75
281.615	46.93
281.83	87.89
282.045	-47.27
282.26	44.88
282.476	38.74
282.691	40.79
282.906	100.18
283.122	8.02
283.337	-34.99
283.552	-18.6
283.767	-2.22
283.983	26.45
284.198	20.31
284.413	-10.41
284.628	-37.03
284.843	83.8
285.058	71.51
285.274	-10.41
285.489	-22.7
285.704	67.41
285.919	77.65
286.134	42.84
286.349	26.45
286.564	30.55
286.779	44.88
286.995	26.45
287.21	-90.28
287.425	63.32
287.64	85.84
287.855	-41.13
288.07	-6.31
288.285	132.95
288.5	48.98
288.715	1.88
288.93	42.84
289.145	28.5
289.36	59.22
289.575	48.98
289.79	69.46
290.004	85.84
290.219	20.31
290.434	16.21
290.649	48.98
290.864	-49.32
291.079	-20.65
291.294	22.36
291.509	48.98
291.724	-92.33
291.938	1.88
292.153	-47.27
292.368	79.7
292.583	110.42
292.798	147.28
293.012	75.6
293.227	106.32
293.442	30.55
293.657	53.08
293.871	42.84
294.086	128.85
294.301	40.79
294.516	55.12
294.73	28.5
294.945	-22.7
295.16	48.98
295.374	71.51
295.589	122.71
295.804	18.26
296.018	12.12
296.233	79.7
296.447	34.64
296.662	98.13
296.877	108.37
297.091	145.24
297.306	5.97
297.52	65.36
297.735	40.79
297.949	38.74
298.164	51.03
298.378	57.17
298.593	26.45
298.807	-10.41
299.022	94.04
299.236	16.21
299.451	106.32
299.665	3.93
299.88	26.45
300.094	44.88
300.309	116.56
300.523	89.94
300.737	40.79
300.952	-8.36
301.166	30.55
301.381	53.08
301.595	81.75
301.809	89.94
302.024	3.93
302.238	83.8
302.452	63.32
302.667	51.03
302.881	3.93
303.095	59.22
303.309	26.45
303.524	40.79
303.738	46.93
303.952	16.21
304.166	61.27
304.381	8.02
304.595	114.52
304.809	48.98
305.023	73.56
305.237	26.45
305.452	36.69
305.666	59.22
305.88	34.64
306.094	89.94
306.308	30.55
306.522	-20.65
306.736	5.97
306.95	73.56
307.164	-32.94
307.379	14.17
307.593	132.95
307.807	118.61
308.021	75.6
308.235	30.55
308.449	-61.61
308.663	59.22
308.877	100.18
309.091	51.03
309.305	61.27
309.519	-18.6
309.733	106.32
309.947	-30.89
310.161	53.08
310.374	20.31
310.588	14.17
310.802	100.18
311.016	73.56
311.23	59.22
311.444	55.12
311.658	53.08
311.872	40.79
312.085	14.17
312.299	106.32
312.513	14.17
312.727	-20.65
312.941	44.88
313.154	34.64
313.368	87.89
313.582	12.12
313.796	10.07
314.009	53.08
314.223	44.88
314.437	65.36
314.651	51.03
314.864	28.5
315.078	48.98
315.292	34.64
315.505	81.75
315.719	24.4
315.933	-6.31
316.146	44.88
316.36	-39.08
316.573	135
316.787	81.75
317.001	26.45
317.214	-10.41
317.428	26.45
317.641	40.79
317.855	22.36
318.068	91.99
318.282	3.93
318.495	42.84
318.709	34.64
318.922	102.23
319.136	91.99
319.349	102.23
319.563	-22.7
319.776	81.75
319.99	61.27
320.203	104.28
320.417	36.69
320.63	98.13
320.843	91.99
321.057	28.5
321.27	-71.85
321.483	1.88
321.697	118.61
321.91	28.5
322.124	69.46
322.337	85.84
322.55	3.93
322.763	145.24
322.977	26.45
323.19	94.04
323.403	110.42
323.617	-8.36
323.83	102.23
324.043	3.93
324.256	83.8
324.469	38.74
324.683	34.64
324.896	12.12
325.109	14.17
325.322	46.93
325.535	75.6
325.748	3.93
325.962	53.08
326.175	59.22
326.388	94.04
326.601	122.71
326.814	46.93
327.027	89.94
327.24	124.76
327.453	42.84
327.666	30.55
327.879	73.56
328.092	104.28
328.305	51.03
328.518	46.93
328.731	61.27
328.944	38.74
329.157	79.7
329.37	20.31
329.583	130.9
329.796	61.27
330.009	8.02
330.222	71.51
330.435	32.6
330.648	59.22
330.861	-4.27
331.073	36.69
331.286	71.51
331.499	143.19
331.712	73.56
331.925	-10.41
332.138	32.6
332.35	81.75
332.563	48.98
332.776	79.7
332.989	-30.89
333.202	73.56
333.414	36.69
333.627	30.55
333.84	53.08
334.053	65.36
334.265	22.36
334.478	63.32
334.691	63.32
334.903	120.66
335.116	71.51
335.329	24.4
335.541	106.32
335.754	120.66
335.966	42.84
336.179	20.31
336.392	-12.46
336.604	28.5
336.817	16.21
337.029	18.26
337.242	42.84
337.454	42.84
337.667	57.17
337.88	130.9
338.092	8.02
338.305	89.94
338.517	53.08
338.729	96.08
338.942	40.79
339.154	-24.75
339.367	-0.17
339.579	40.79
339.792	-8.36
340.004	102.23
340.217	18.26
340.429	30.55
340.641	8.02
340.854	16.21
341.066	63.32
341.278	73.56
341.491	14.17
341.703	69.46
341.915	1.88
342.128	94.04
342.34	-0.17
342.552	108.37
342.764	-10.41
342.977	67.41
343.189	137.04
343.401	57.17
343.613	38.74
343.826	94.04
344.038	-16.55
344.25	-24.75
344.462	75.6
344.674	112.47
344.886	34.64
345.099	-37.03
345.311	51.03
345.523	44.88
345.735	10.07
345.947	108.37
346.159	81.75
346.371	-10.41
346.583	26.45
346.795	87.89
347.007	-0.17
347.219	44.88
347.431	44.88
347.643	51.03
347.855	-8.36
348.067	77.65
348.279	20.31
348.491	44.88
348.703	110.42
348.915	53.08
349.127	8.02
349.339	1.88
349.551	46.93
349.763	63.32
349.975	85.84
350.187	112.47
350.399	98.13
350.61	34.64
350.822	61.27
351.034	69.46
351.246	36.69
351.458	-2.22
351.669	89.94
351.881	30.55
352.093	112.47
352.305	132.95
352.517	77.65
352.728	71.51
352.94	61.27
353.152	106.32
353.363	42.84
353.575	94.04
353.787	126.8
353.999	114.52
354.21	71.51
354.422	-39.08
354.633	100.18
354.845	73.56
355.057	83.8
355.268	26.45
355.48	46.93
355.692	65.36
355.903	81.75
356.115	-4.27
356.326	46.93
356.538	151.38
356.749	51.03
356.961	98.13
357.172	69.46
357.384	32.6
357.595	106.32
357.807	57.17
358.018	100.18
358.23	36.69
358.441	104.28
358.653	102.23
358.864	38.74
359.075	73.56
359.287	61.27
359.498	73.56
359.709	-34.99
359.921	12.12
360.132	16.21
360.344	69.46
360.555	20.31
360.766	83.8
360.977	30.55
361.189	104.28
361.4	44.88
361.611	20.31
361.823	143.19
362.034	38.74
362.245	-26.79
362.456	53.08
362.667	149.33
362.879	57.17
363.09	44.88
363.301	48.98
363.512	16.21
363.723	114.52
363.935	-18.6
364.146	159.57
364.357	65.36
364.568	46.93
364.779	3.93
364.99	71.51
365.201	28.5
365.412	14.17
365.623	-53.42
365.834	81.75
366.045	24.4
366.256	79.7
366.467	5.97
366.678	48.98
366.889	38.74
367.1	14.17
367.311	91.99
367.522	57.17
367.733	48.98
367.944	57.17
368.155	-2.22
368.366	59.22
368.577	89.94
368.788	83.8
368.999	5.97
369.209	89.94
369.42	65.36
369.631	161.62
369.842	63.32
370.053	44.88
370.264	55.12
370.474	32.6
370.685	77.65
370.896	130.9
371.107	83.8
371.317	114.52
371.528	40.79
371.739	55.12
371.95	71.51
372.16	71.51
372.371	22.36
372.582	89.94
372.792	-12.46
373.003	91.99
373.214	87.89
373.424	89.94
373.635	18.26
373.846	147.28
374.056	118.61
374.267	120.66
374.477	120.66
374.688	53.08
374.898	126.8
375.109	96.08
375.319	69.46
375.53	67.41
375.74	28.5
375.951	8.02
376.161	42.84
376.372	75.6
376.582	85.84
376.793	83.8
377.003	44.88
377.214	46.93
377.424	51.03
377.635	14.17
377.845	44.88
378.055	73.56
378.266	51.03
378.476	-30.89
378.686	48.98
378.897	77.65
379.107	10.07
379.317	40.79
379.528	44.88
379.738	48.98
379.948	75.6
380.158	71.51
380.369	18.26
380.579	38.74
380.789	46.93
380.999	79.7
381.21	130.9
381.42	89.94
381.63	116.56
381.84	87.89
382.05	48.98
382.261	110.42
382.471	34.64
382.681	30.55
382.891	96.08
383.101	94.04
383.311	-10.41
383.521	24.4
383.731	118.61
383.941	44.88
384.151	30.55
384.361	53.08
384.571	57.17
384.781	26.45
384.991	132.95
385.201	184.15
385.411	135
385.621	42.84
385.831	100.18
386.041	61.27
386.251	71.51
386.461	118.61
386.671	126.8
386.881	128.85
387.091	81.75
387.301	51.03
387.511	85.84
387.72	38.74
387.93	120.66
388.14	30.55
388.35	44.88
388.56	114.52
388.769	98.13
388.979	87.89
389.189	8.02
389.399	69.46
389.609	98.13
389.818	112.47
390.028	89.94
390.238	75.6
390.447	18.26
390.657	61.27
390.867	71.51
391.076	16.21
391.286	73.56
391.496	89.94
391.705	34.64
391.915	118.61
392.125	173.91
392.334	79.7
392.544	61.27
392.753	36.69
392.963	48.98
393.172	77.65
393.382	65.36
393.591	126.8
393.801	36.69
394.01	116.56
394.22	126.8
394.429	65.36
394.639	108.37
394.848	161.62
395.058	8.02
395.267	65.36
395.477	102.23
395.686	149.33
395.895	137.04
396.105	190.29
396.314	124.76
396.524	55.12
396.733	137.04
396.942	116.56
397.152	30.55
397.361	102.23
397.57	122.71
397.78	155.47
397.989	73.56
398.198	194.39
398.407	57.17
398.617	65.36
398.826	114.52
399.035	77.65
399.244	104.28
399.453	124.76
399.663	38.74
399.872	100.18
400.081	71.51
400.29	126.8
400.499	59.22
400.708	192.34
400.917	102.23
401.127	171.86
401.336	83.8
401.545	167.76
401.754	114.52
401.963	141.14
402.172	65.36
402.381	65.36
402.59	91.99
402.799	75.6
403.008	89.94
403.217	118.61
403.426	108.37
403.635	143.19
403.844	130.9
404.053	89.94
404.262	69.46
404.471	192.34
404.68	190.29
404.888	157.52
405.097	126.8
405.306	114.52
405.515	139.09
405.724	124.76
405.933	132.95
406.142	157.52
406.35	118.61
406.559	188.24
406.768	182.1
406.977	266.07
407.185	157.52
407.394	167.76
407.603	171.86
407.812	155.47
408.02	182.1
408.229	261.97
408.438	198.48
408.646	124.76
408.855	175.95
409.064	210.77
409.272	190.29
409.481	202.58
409.69	264.02
409.898	227.15
410.107	300.88
410.315	325.46
410.524	323.41
410.733	259.92
410.941	374.61
411.15	341.84
411.358	296.78
411.567	413.52
411.775	333.65
411.984	350.03
412.192	417.61
412.401	368.46
412.609	436.05
412.818	417.61
413.026	470.86
413.234	436.05
413.443	376.66
413.651	472.91
413.86	456.53
414.068	481.1
414.276	560.97
414.485	450.38
414.693	542.54
414.901	603.98
415.11	556.88
415.318	511.82
415.526	591.69
415.734	642.89
415.943	745.29
416.151	632.65
416.359	710.47
416.567	761.67
416.776	747.34
416.984	810.82
417.192	792.39
417.4	755.53
417.608	769.87
417.817	841.54
418.025	874.31
418.233	935.75
418.441	1001.29
418.649	948.04
418.857	1044.29
419.065	1054.53
419.273	1077.06
419.481	1029.96
419.689	1075.01
419.897	1302.34
420.105	1288
420.313	1261.38
420.521	1310.53
420.729	1427.26
420.937	1472.32
421.145	1326.91
421.353	1488.7
421.561	1605.44
421.769	1658.68
421.977	1705.79
422.185	1646.4
422.393	1808.19
422.601	1984.31
422.809	1871.67
423.017	1820.47
423.224	2002.74
423.432	2027.32
423.64	1988.41
423.848	2311.99
424.056	2154.29
424.263	2350.9
424.471	2295.6
424.679	2527.02
424.887	2465.58
425.094	2654
425.302	2590.51
425.51	2793.26
425.718	2662.19
425.925	2813.74
426.133	2889.51
426.341	3073.83
426.548	3202.85
426.756	3272.48
426.964	3194.66
427.171	3456.8
427.379	3561.25
427.586	3675.93
427.794	3542.82
428.001	3919.64
428.209	3979.03
428.417	3954.46
428.624	4306.71
428.832	4155.16
429.039	4337.43
429.247	4083.48
429.454	4562.7
429.662	4943.63
429.869	4646.67
430.076	5011.21
430.284	4857.61
430.491	5103.37
430.699	5361.41
430.906	5271.3
431.114	5410.56
431.321	5594.88
431.528	5590.78
431.736	5936.89
431.943	6272.76
432.15	6283
432.358	6283
432.565	6612.72
432.772	6412.02
432.979	6893.29
433.187	7163.62
433.394	7167.72
433.601	7448.29
433.808	7618.27
434.016	7532.26
434.223	7786.21
434.43	8136.41
434.637	8173.27
434.844	8416.98
435.052	8822.48
435.259	8793.81
435.466	8683.22
435.673	8744.66
435.88	9139.91
436.087	9944.77
436.294	9735.87
436.501	9574.08
436.708	9748.16
436.915	10196.67
437.122	10641.07
437.329	10563.25
437.537	10886.83
437.743	11011.76
437.95	10895.02
438.157	11591.33
438.364	11871.9
438.571	11982.49
438.778	11982.49
438.985	13158.03
439.192	12564.12
439.399	13131.4
439.606	12535.45
439.813	13291.15
440.02	13999.74
440.227	14083.71
440.433	13553.29
440.64	14409.34
440.847	14212.73
441.054	14585.46
441.261	15586.92
441.467	15160.94
441.674	15627.88
441.881	15832.68
442.088	15926.88
442.294	15959.65
442.501	16285.28
442.708	16891.48
442.914	17417.8
443.121	18165.31
443.328	17600.07
443.534	18998.84
443.741	18474.56
443.948	18069.06
444.154	19668.52
444.361	19246.64
444.568	19525.16
444.774	19525.16
444.981	19811.88
445.187	20207.14
445.394	21087.76
445.6	21218.83
445.807	22816.25
446.013	22027.78
446.22	22208
446.426	22935.03
446.633	23279.09
446.839	24593.89
447.046	22980.09
447.252	24507.87
447.459	24376.8
447.665	24411.62
447.871	25447.89
448.078	26645.95
448.284	25443.79
448.491	25976.26
448.697	26971.58
448.903	27491.76
449.11	27397.56
449.316	27211.19
449.522	27669.94
449.728	28315.05
449.935	29021.59
450.141	28259.75
450.347	29367.7
450.553	28384.68
450.76	28603.81
450.966	29728.14
451.172	29234.58
451.378	30072.2
451.584	29490.58
451.791	30139.79
451.997	29928.84
452.203	30846.33
452.409	30735.74
452.615	30582.15
452.821	29336.98
453.027	29023.64
453.233	30526.85
453.44	29320.6
453.646	29539.73
453.852	29836.69
454.058	30158.22
454.264	29212.06
454.47	30250.38
454.676	29224.34
454.882	30139.79
455.088	27878.83
455.294	28390.82
455.5	28681.63
455.705	28925.34
455.911	28036.52
456.117	27104.7
456.323	27127.22
456.529	25501.14
456.735	26430.91
456.941	25849.29
457.147	25239
457.352	24557.02
457.558	24411.62
457.764	24286.69
457.97	23868.91
458.176	23313.91
458.381	23465.46
458.587	22289.92
458.793	22461.95
458.999	21034.52
459.204	22607.36
459.41	22007.3
459.616	20231.71
459.821	20495.9
460.027	20706.84
460.233	19867.17
460.438	19353.13
460.644	19174.96
460.85	18230.85
461.055	17913.41
461.261	18046.53
461.466	16838.23
461.672	16033.38
461.878	17307.21
462.083	16039.52
462.289	15826.53
462.494	15720.04
462.7	14935.67
462.905	14507.64
463.111	15093.36
463.316	15189.61
463.522	14761.59
463.727	15038.06
463.932	14714.48
464.138	14730.87
464.343	14648.95
464.549	14263.93
464.754	14898.8
464.959	14784.12
465.165	14610.04
465.37	14067.33
465.575	13432.46
465.781	14112.38
465.986	14102.14
466.191	13719.17
466.397	13600.39
466.602	12930.7
466.807	13162.12
467.012	13225.61
467.218	13119.12
467.423	13137.55
467.628	13342.35
467.833	13803.14
468.038	13346.44
468.244	12838.55
468.449	13231.76
468.654	12727.96
468.859	13153.93
469.064	12717.72
469.269	12273.31
469.474	12361.37
469.679	12400.28
469.885	12213.91
470.09	12445.34
470.295	12162.72
470.5	12035.74
470.705	12136.09
470.91	11873.95
471.115	11658.92
471.32	11898.53
471.525	11665.06
471.73	11407.02
471.935	11601.57
472.139	11136.68
472.344	11153.07
472.549	11144.88
472.754	11019.95
472.959	10938.03
473.164	10456.76
473.369	10292.92
473.574	11019.95
473.778	10587.83
473.983	10602.16
474.188	10583.73
474.393	9952.96
474.598	10241.72
474.802	10098.36
475.007	10016.44
475.212	9891.52
475.417	9502.4
475.621	9703.11
475.826	9643.71
476.031	9588.42
476.235	9260.74
476.44	9526.98
476.645	9223.88
476.849	9307.85
477.054	9058
477.259	8984.27
477.463	9039.56
477.668	8840.91
477.872	8845.01
478.077	8769.23
478.282	8453.84
478.486	8408.79
478.691	8378.07
478.895	8427.22
479.1	8421.08
479.304	8345.3
479.509	8103.64
479.713	8148.7
479.918	7931.61
480.122	7902.94
480.326	8077.02
480.531	8095.45
480.735	7884.51
480.94	7771.87
481.144	8283.86
481.348	7720.67
481.553	7900.89
481.757	7831.26
481.961	7878.37
482.166	7972.57
482.37	7792.35
482.574	7845.6
482.778	7651.04
482.983	7960.28
483.187	7624.42
483.391	7870.17
483.595	7763.68
483.8	7634.66
484.004	7696.1
484.208	7935.71
484.412	7876.32
484.616	7745.25
484.821	7849.69
485.025	7753.44
485.229	7878.37
485.433	7669.47
485.637	7778.01
485.841	7593.7
486.045	7696.1
486.249	7560.93
486.453	7796.45
486.657	7702.24
486.861	7726.82
487.065	7468.77
487.269	7614.18
487.473	7403.24
487.677	7685.86
487.881	7827.17
488.085	7556.83
488.289	7591.65
488.493	7827.17
488.697	7939.8
488.901	7567.07
489.105	7659.23
489.309	7907.04
489.512	7806.69
489.716	7675.62
489.92	7847.65
490.124	7808.73
490.328	8074.97
490.531	7714.53
490.735	7833.31
490.939	7927.52
491.143	7915.23
491.346	7923.42
491.55	8218.33
491.754	8070.87
491.958	8163.03
492.161	7960.28
492.365	8208.09
492.569	8093.4
492.772	8105.69
492.976	8144.6
493.18	8384.21
493.383	8324.82
493.587	8312.53
493.79	8449.75
493.994	8412.88
494.197	8365.78
494.401	8505.04
494.605	8388.31
494.808	8797.9
495.012	8718.03
495.215	8642.26
495.419	8687.31
495.622	8789.71
495.825	8812.24
496.029	9082.57
496.232	8943.31
496.436	9039.56
496.639	9135.82
496.843	8857.29
497.046	9275.08
497.249	9440.97
497.453	9500.36
497.656	9510.6
497.859	9926.33
498.063	9836.22
498.266	10198.71
498.469	9793.22
498.673	9967.29
498.876	10135.23
499.079	10172.09
499.282	10192.57
499.485	10450.61
499.689	10542.77
499.892	10612.4
500.095	10417.85
500.298	10929.84
500.501	10909.36
500.705	11288.23
500.908	11298.47
501.111	11527.85
501.314	11589.28
501.517	11642.53
501.72	11544.23
501.923	11669.16
502.126	12170.91
502.329	11947.68
502.532	12295.83
502.735	12293.79
502.938	12592.79
503.141	12441.24
503.344	12848.79
503.547	12711.57
503.75	12877.46
503.953	13289.1
504.156	13325.96
504.359	13317.77
504.562	13604.49
504.765	13557.38
504.968	13852.29
505.17	14100.09
505.373	14065.28
505.576	14265.98
505.779	14247.55
505.982	14648.95
506.185	14667.38
506.387	14950
506.59	14900.85
506.793	15396.46
506.996	15130.22
507.198	15568.49
507.401	15574.63
507.604	15806.05
507.807	16076.38
508.009	16070.24
508.212	16498.27
508.415	16334.43
508.617	16688.73
508.82	16522.84
509.022	16797.27
509.225	17008.21
509.428	16973.39
509.63	17376.84
509.833	17391.18
510.035	17808.97
510.238	17634.89
510.44	18105.92
510.643	18040.39
510.845	18361.92
511.048	18103.87
511.25	18505.27
511.453	18708.02
511.655	19412.53
511.858	19017.27
512.06	19529.26
512.262	19656.23
512.465	19361.33
512.667	19705.38
512.87	19901.99
513.072	20207.14
513.274	20438.56
513.477	20446.75
513.679	20680.22
513.881	21104.15
514.084	21161.49
514.286	21204.5
514.488	21382.67
514.69	21900.81
514.893	21743.11
515.095	21685.77
515.297	22081.03
515.499	22375.94
515.701	22498.81
515.904	22672.89
516.106	22812.15
516.308	22922.74
516.51	23260.66
516.712	23395.82
516.914	23860.71
517.116	24024.55
517.318	23911.91
517.52	23903.72
517.722	24030.69
517.925	24649.18
518.127	24864.22
518.329	25042.39
518.531	24896.99
518.733	25097.69
518.935	25828.81
519.136	25421.27
519.338	26119.62
519.54	26072.52
519.742	26418.63
519.944	26441.15
520.146	26465.73
520.348	26838.46
520.55	26787.26
520.752	26830.27
520.954	27379.12
521.155	27200.95
521.357	27960.75
521.559	27977.13
521.761	28108.2
521.963	28022.19
522.164	28585.38
522.366	28841.37
522.568	28769.69
522.77	29154.71
522.971	29445.52
523.173	29136.28
523.375	28960.16
523.576	29423
523.778	29595.03
523.98	29877.65
524.181	30012.81
524.383	30262.66
524.584	30408.07
524.786	30154.12
524.988	30201.22
525.189	30600.58
525.391	30852.48
525.592	30877.05
525.794	31075.71
525.995	31255.93
526.197	31245.69
526.398	31073.66
526.6	31743.34
526.801	31638.9
527.003	31933.81
527.204	31767.92
527.406	32320.87
527.607	32173.42
527.808	32640.36
528.01	31343.99
528.211	32052.59
528.412	32716.13
528.614	32554.34
528.815	32675.17
529.016	33080.67
529.218	32529.76
529.419	32478.57
529.62	32736.61
529.822	33072.48
530.023	32580.96
530.224	32777.57
530.425	32789.86
530.626	32687.46
530.828	32384.36
531.029	33439.06
531.23	32906.59
531.431	33201.5
531.632	33199.45
531.833	33156.44
532.035	33256.79
532.236	33191.26
532.437	33514.84
532.638	33230.17
532.839	33477.97
533.04	33527.13
533.241	33131.87
533.442	33656.15
533.643	33328.47
533.844	33650
534.045	33602.9
534.246	33221.98
534.447	33928.53
534.648	33402.2
534.849	33641.81
535.05	33052
535.251	33477.97
535.451	33473.88
535.652	33428.82
535.853	33514.84
536.054	33602.9
536.255	34030.93
536.456	33160.54
536.657	34010.45
536.857	33625.43
537.058	33471.83
537.259	33879.38
537.46	33518.93
537.66	33437.02
537.861	33383.77
538.062	33252.7
538.263	33627.48
538.463	33119.58
538.664	33332.57
538.865	33779.03
539.065	33922.38
539.266	33293.66
539.466	33750.35
539.667	33152.35
539.868	33645.91
540.068	33492.31
540.269	33117.53
540.469	33596.76
540.67	33365.34
540.87	33154.4
541.071	33015.13
541.271	33721.68
541.472	33582.42
541.672	33416.54
541.873	33254.75
542.073	33172.83
542.274	33566.04
542.474	32939.36
542.675	33221.98
542.875	33715.54
543.075	33518.93
543.276	33064.28
543.476	33330.52
543.676	33240.41
543.877	33129.82
544.077	33238.36
544.277	33293.66
544.478	33330.52
544.678	33604.95
544.878	33467.73
545.078	32851.3
545.279	33305.95
545.479	33207.64
545.679	33142.11
545.879	33256.79
546.079	33097.05
546.28	33172.83
546.48	32896.35
546.68	33326.42
546.88	33101.15
547.08	32925.02
547.28	33334.62
547.48	32675.17
547.68	32892.26
547.88	32910.69
548.081	33273.18
548.281	32947.55
548.481	33119.58
548.681	33428.82
548.881	32804.19
549.081	33133.92
549.28	32695.65
549.48	33181.02
549.68	32705.89
549.88	33480.02
550.08	32703.84
550.28	32654.69
550.48	32806.24
550.68	33412.44
550.88	32769.38
551.08	32863.58
551.279	33002.85
551.479	32808.29
551.679	32859.49
551.879	33078.62
552.079	32822.62
552.278	32583.01
552.478	32990.56
552.678	32791.9
552.878	32568.68
553.077	32537.96
553.277	32150.89
553.477	32890.21
553.676	32761.19
553.876	32896.35
554.076	32431.46
554.275	32382.31
554.475	32171.37
554.674	32519.53
554.874	32537.96
555.074	32406.89
555.273	32687.46
555.473	32861.54
555.672	32138.6
555.872	32228.71
556.071	32642.4
556.271	32343.4
556.47	32279.91
556.67	32009.58
556.869	31954.29
557.068	32341.35
557.268	32187.75
557.467	32214.38
557.667	32122.22
557.866	32097.64
558.065	31917.42
558.265	31573.36
558.464	31577.46
558.663	32519.53
558.863	31712.63
559.062	32101.74
559.261	32060.78
559.461	32169.32
559.66	31497.59
559.859	31612.27
560.058	31430.01
560.258	31745.39
560.457	31495.54
560.656	31731.06
560.855	31571.32
561.054	31602.04
561.253	31393.14
561.453	31567.22
561.652	31683.95
561.851	32097.64
562.05	31266.17
562.249	31335.8
562.448	31669.62
562.647	31366.52
562.846	31192.44
563.045	31122.81
563.244	31114.62
563.443	31278.46
563.642	30631.3
563.841	31135.1
564.04	31020.41
564.239	31284.6
564.438	30764.42
564.637	30911.87
564.836	30987.64
565.035	30502.28
565.234	30655.87
565.432	30453.12
565.631	30754.18
565.83	30303.62
566.029	30559.62
566.228	30381.45
566.427	30307.72
566.625	30242.18
566.824	30283.14
567.023	30326.15
567.222	29625.75
567.42	30301.57
567.619	29922.7
567.818	29910.41
568.016	29674.9
568.215	30090.63
568.414	29801.87
568.612	29799.82
568.811	29654.42
569.01	29691.28
569.208	29095.32
569.407	29650.32
569.605	29279.64
569.804	29314.45
570.002	29203.86
570.201	29357.46
570.4	28964.25
570.598	29291.93
570.797	28827.04
570.995	29048.22
571.193	28728.73
571.392	29361.56
571.59	28818.85
571.789	28880.28
571.987	29029.79
572.186	28450.21
572.384	28556.71
572.582	28599.71
572.781	28698.02
572.979	28050.86
573.177	28300.71
573.376	28480.93
573.574	28108.2
573.772	28423.59
573.971	28196.26
574.169	27805.1
574.367	28034.47
574.565	27952.55
574.763	27846.06
574.962	27897.26
575.16	27463.09
575.358	27778.48
575.556	27508.15
575.754	27667.89
575.952	27172.28
576.151	27983.27
576.349	27395.51
576.547	27497.91
576.745	27258.29
576.943	27182.52
577.141	26990.01
577.339	27540.91
577.537	27073.98
577.735	26854.84
577.933	26443.2
578.131	26629.57
578.329	26854.84
578.527	26652.09
578.725	26951.1
578.923	26867.13
579.121	26158.53
579.319	26416.58
579.516	26668.48
579.714	26516.93
579.912	26543.55
580.11	26334.66
580.308	26359.24
580.506	26072.52
580.704	25828.81
580.901	25890.25
581.099	26195.4
581.297	26297.8
581.495	25794
581.692	25691.6
581.89	25566.67
582.088	25892.3
582.285	25669.07
582.483	25474.51
582.681	25494.99
582.878	25439.7
583.076	25314.77
583.274	25419.22
583.471	24958.42
583.669	25007.58
583.866	24991.19
584.064	25290.2
584.262	24610.27
584.459	25085.4
584.657	25034.2
584.854	25093.59
585.052	24212.96
585.249	24628.7
585.447	24845.79
585.644	24317.41
585.841	24696.28
586.039	25017.82
586.236	24493.54
586.434	24196.58
586.631	24096.23
586.828	24286.69
587.026	24163.81
587.223	24143.33
587.42	23967.21
587.618	24063.46
587.815	23723.5
588.012	23903.72
588.21	23799.27
588.407	23766.51
588.604	23537.13
588.801	23422.45
588.999	23457.26
589.196	23117.3
589.393	23395.82
589.59	23156.21
589.787	23156.21
589.984	23389.68
590.182	22945.27
590.379	23487.98
590.576	23119.35
590.773	22930.94
590.97	22824.44
591.167	23086.58
591.364	22550.01
591.561	22656.51
591.758	22402.56
591.955	22527.49
592.152	22660.6
592.349	22429.18
592.546	22416.9
592.743	22160.9
592.94	22019.59
593.137	22191.62
593.334	22224.39
593.531	21863.94
593.727	22111.75
593.924	21724.68
594.121	21954.05
594.318	21861.9
594.515	21399.05
594.712	21917.19
594.908	21607.95
595.105	21896.71
595.302	21444.11
595.499	21435.92
595.696	21321.23
595.892	21487.12
596.089	21435.92
596.286	21306.9
596.482	20983.32
596.679	20936.21
596.876	21069.33
597.072	20852.25
597.269	21024.28
597.466	20565.53
597.662	20688.41
597.859	20753.94
598.055	20608.54
598.252	20653.59
598.448	20600.35
598.645	20741.66
598.841	20246.05
599.038	20684.31
599.234	20432.41
599.431	20153.89
599.627	20256.29
599.824	20162.08
600.02	20002.34
600.217	20127.27
600.413	20108.83
600.609	19695.14
600.806	19670.57
601.002	19947.04
601.198	19498.54
601.395	19537.45
601.591	19390
601.787	19498.54
601.984	19213.87
602.18	19643.95
602.376	19258.93
602.572	19134
602.769	19228.21
602.965	19019.32
603.161	19396.14
603.357	19125.81
603.553	19142.19
603.75	19107.38
603.946	18861.62
604.142	18861.62
604.338	18759.22
604.534	18880.05
604.73	18478.65
604.926	18484.8
605.122	18642.49
605.318	18400.83
605.514	18441.79
605.71	18286.14
605.906	18259.52
606.102	18171.46
606.298	18423.36
606.494	18353.73
606.69	17983.04
606.886	18468.41
607.082	17737.29
607.278	18310.72
607.474	17903.17
607.67	18185.79
607.866	17737.29
608.062	18232.9
608.257	17905.22
608.453	17882.69
608.649	18193.98
608.845	17620.55
609.041	17604.17
609.236	18148.93
609.432	17696.33
609.628	17851.97
609.824	17450.57
610.019	17729.09
610.215	17325.64
610.411	17409.61
610.606	17239.63
610.802	17581.64
610.998	17364.56
611.193	17292.88
611.389	17213.01
611.584	17102.42
611.78	17124.94
611.976	17243.73
612.171	16995.92
612.367	17098.32
612.562	17010.26
612.758	17002.07
612.953	16809.56
613.149	16897.62
613.344	16719.45
613.539	17137.23
613.735	16821.84
613.93	17030.74
614.126	16815.7
614.321	16997.97
614.517	17102.42
614.712	16737.88
614.907	16555.61
615.103	16545.37
615.298	16533.08
615.493	16725.59
615.688	16571.99
615.884	16557.66
616.079	16496.22
616.274	16504.41
616.47	16649.82
616.665	16578.14
616.86	16434.78
617.055	16338.52
617.25	16215.65
617.445	16612.95
617.641	15922.79
617.836	16160.35
618.031	16160.35
618.226	16391.77
618.421	15900.26
618.616	16268.89
618.811	15818.34
619.006	16248.41
619.201	15699.56
619.396	15691.37
619.591	15470.19
619.786	15756.9
619.981	15359.59
620.176	15562.34
620.371	15341.16
620.566	15384.17
620.761	15316.59
620.956	15582.82
621.151	15087.22
621.346	15406.7
621.541	15042.16
621.735	15132.27
621.93	14579.32
622.125	14933.62
622.32	14657.14
622.515	14524.02
622.709	14534.26
622.904	14579.32
623.099	14409.34
623.294	14468.73
623.488	14354.04
623.683	14311.03
623.878	14323.32
624.072	14247.55
624.267	13944.45
624.462	13891.2
624.656	13790.85
624.851	14069.37
625.046	13854.34
625.24	13860.48
625.435	13557.38
625.629	13766.28
625.824	13612.68
626.018	13459.08
626.213	13096.59
626.407	13381.26
626.602	12889.74
626.796	13188.75
626.991	13379.21
627.185	13020.81
627.38	12820.11
627.574	13020.81
627.768	12566.17
627.963	12512.92
628.157	12588.69
628.352	12699.28
628.546	12191.39
628.74	12498.58
628.935	12226.2
629.129	12283.55
629.323	12205.72
629.517	11968.16
629.712	12193.44
629.906	12074.65
630.1	11882.14
630.294	11947.68
630.489	11689.63
630.683	11880.1
630.877	11718.31
631.071	11624.1
631.265	11689.63
631.459	11620
631.653	11603.62
631.848	11478.69
632.042	11331.24
632.236	11613.86
632.43	11245.23
632.624	11124.4
632.818	11321
633.012	11036.33
633.206	10923.69
633.4	11105.96
633.594	10944.17
633.788	11034.28
633.982	10856.11
634.176	10956.46
634.369	10903.21
634.563	10725.04
634.757	10796.72
634.951	10641.07
635.145	10772.14
635.339	10630.84
635.533	10315.45
635.726	10489.53
635.92	10251.96
636.114	10354.36
636.308	10198.71
636.501	10186.43
636.695	10231.48
636.889	10030.78
637.083	10063.55
637.276	10036.92
637.47	9899.71
637.664	9780.93
637.857	9883.33
638.051	9852.61
638.244	9950.91
638.438	9696.96
638.632	9627.33
638.825	9539.27
639.019	9674.43
639.212	9275.08
639.406	9432.77
639.599	9289.42
639.793	9395.91
639.986	9289.42
640.18	9178.83
640.373	9242.31
640.567	9014.99
640.76	8955.6
640.954	8918.73
641.147	9010.89
641.34	8896.21
641.534	8931.02
641.727	8928.97
641.92	9037.52
642.114	8648.4
642.307	8824.53
642.5	8734.42
642.694	8627.92
642.887	8257.24
643.08	8572.63
643.273	8578.77
643.467	8500.95
643.66	8388.31
643.853	8281.81
644.046	8212.18
644.239	8335.06
644.432	8236.76
644.626	7874.27
644.819	8046.3
645.012	8226.52
645.205	8091.35
645.398	8025.82
645.591	7790.3
645.784	7900.89
645.977	7677.66
646.17	8046.3
646.363	7827.17
646.556	7683.81
646.749	7788.25
646.942	7677.66
647.135	7642.85
647.328	7665.38
647.521	7540.45
647.714	7622.37
647.907	7530.21
648.099	7433.96
648.292	7544.55
648.485	7581.41
648.678	7321.32
648.871	7462.63
649.064	7479.01
649.256	7083.75
649.449	7196.39
649.642	6950.64
649.835	7124.71
650.027	7128.81
650.22	7053.03
650.413	7175.91
650.605	6768.37
650.798	6883.05
650.991	6917.87
651.183	6805.23
651.376	6758.13
651.568	6958.83
651.761	6778.61
651.954	6661.87
652.146	6610.67
652.339	6733.55
652.531	6543.09
652.724	6502.13
652.916	6500.08
653.109	6510.32
653.301	6602.48
653.494	6536.95
653.686	6371.06
653.879	6330.1
654.071	6270.71
654.263	6194.93
654.456	6313.72
654.648	6262.52
654.84	6207.22
655.033	6121.21
655.225	6244.09
655.417	5998.33
655.61	6063.86
655.802	6149.88
655.994	5928.7
656.186	5928.7
656.379	6039.29
656.571	5871.36
656.763	5852.92
656.955	5918.46
657.148	5699.33
657.34	5840.64
657.532	5840.64
657.724	5725.95
657.916	5637.89
658.108	5814.01
658.3	5586.69
658.492	5619.46
658.684	5674.75
658.876	5715.71
659.068	5594.88
659.26	5486.34
659.452	5586.69
659.644	5609.22
659.836	5394.18
660.028	5500.67
660.22	5334.79
660.412	5463.81
660.604	5322.5
660.796	5345.03
660.988	5275.4
661.18	5316.36
661.372	5179.14
661.563	5281.54
661.755	5082.89
661.947	5164.81
662.139	5242.63
662.331	5074.7
662.522	5025.54
662.714	4976.39
662.906	5013.26
663.097	4968.2
663.289	4941.58
663.481	4949.77
663.673	4810.51
663.864	4759.31
664.056	4947.72
664.247	4949.77
664.439	4732.69
664.631	4749.07
664.822	4878.09
665.014	4808.46
665.205	4886.28
665.397	4714.25
665.588	4607.76
665.78	4693.77
665.971	4755.21
666.163	4640.53
666.354	4552.46
666.546	4448.02
666.737	4607.76
666.929	4579.09
667.12	4560.66
667.311	4531.98
667.503	4572.94
667.694	4529.94
667.885	4407.06
668.077	4419.35
668.268	4261.65
668.459	4243.22
668.651	4488.98
668.842	4425.49
669.033	4355.86
669.224	4290.32
669.416	4275.99
669.607	4202.26
669.798	4347.67
669.989	4259.6
670.18	4355.86
670.371	4181.78
670.563	4204.31
670.754	4167.45
670.945	4167.45
671.136	4075.29
671.327	3997.46
671.518	4060.95
671.709	4099.86
671.9	4079.38
672.091	4019.99
672.282	4054.81
672.473	4091.67
672.664	3999.51
672.855	3872.54
673.046	4050.71
673.237	4157.21
673.428	3970.84
673.619	3835.67
673.809	3979.03
674	3968.79
674.191	3970.84
674.382	3903.26
674.573	3909.4
674.764	3884.83
674.954	3800.86
675.145	3776.28
675.336	3831.58
675.527	3761.95
675.717	3852.06
675.908	3784.48
676.099	3813.15
676.289	3780.38
676.48	3575.58
676.671	3729.18
676.861	3798.81
677.052	3634.97
677.243	3675.93
677.433	3700.51
677.624	3837.72
677.814	3675.93
678.005	3723.04
678.195	3735.32
678.386	3591.97
678.576	3581.73
678.767	3575.58
678.957	3559.2
679.148	3663.65
679.338	3698.46
679.529	3532.58
679.719	3591.97
679.909	3712.8
680.1	3551.01
680.29	3532.58
680.481	3503.9
680.671	3489.57
680.861	3473.18
681.052	3471.14
681.242	3587.87
681.432	3528.48
681.622	3467.04
681.813	3460.9
682.003	3426.08
682.193	3421.99
682.383	3358.5
682.573	3415.84
682.764	3464.99
682.954	3471.14
683.144	3413.79
683.334	3438.37
683.524	3458.85
683.714	3428.13
683.904	3467.04
684.094	3548.96
684.284	3522.34
684.474	3467.04
684.664	3399.46
684.854	3305.25
685.044	3356.45
685.234	3366.69
685.424	3311.39
685.614	3417.89
685.804	3338.02
685.994	3270.44
686.184	3346.21
686.374	3309.35
686.564	3221.28
686.753	3299.11
686.943	3270.44
687.133	3211.04
687.323	3301.15
687.513	3254.05
687.702	3188.52
687.892	3153.7
688.082	3131.17
688.272	3082.02
688.461	3100.45
688.651	3137.32
688.841	3034.92
689.03	3165.99
689.22	3032.87
689.41	3073.83
689.599	2963.24
689.789	2938.66
689.979	3016.49
690.168	2967.34
690.358	3014.44
690.547	2983.72
690.737	2998.06
690.926	3102.5
691.116	2934.57
691.305	2940.71
691.495	2944.81
691.684	2852.65
691.874	2840.36
692.063	2971.43
692.252	2922.28
692.442	2770.73
692.631	2668.33
692.82	2920.23
693.01	2705.2
693.199	2789.16
693.388	2686.76
693.578	2701.1
693.767	2656.04
693.956	2768.68
694.146	2893.61
694.335	2639.66
694.524	2737.96
694.713	2774.83
694.902	2590.51
695.092	2684.72
695.281	2699.05
695.47	2576.17
695.659	2643.76
695.848	2512.69
696.037	2588.46
696.226	2682.67
696.415	2584.37
696.604	2723.63
696.793	2649.9
696.982	2516.78
697.171	2492.21
697.36	2588.46
697.549	2547.5
697.738	2457.39
697.927	2539.31
698.116	2613.04
698.305	2520.88
698.494	2445.1
698.683	2551.6
698.872	2359.09
699.061	2463.54
699.25	2475.82
699.438	2535.21
699.627	2371.38
699.816	2588.46
700.005	2492.21
700.193	2486.06
700.382	2447.15
700.571	2504.5
700.76	2377.52
700.948	2508.59
701.137	2484.02
701.326	2432.82
701.514	2457.39
701.703	2543.41
701.892	2375.47
702.08	2541.36
702.269	2373.43
702.457	2361.14
702.646	2357.04
702.834	2305.84
703.023	2402.1
703.212	2277.17
703.4	2479.92
703.589	2338.61
703.777	2385.71
703.965	2387.76
704.154	2342.71
704.342	2326.32
704.531	2402.1
704.719	2328.37
704.907	2514.73
705.096	2385.71
705.284	2428.72
705.472	2383.66
705.661	2299.7
705.849	2330.42
706.037	2381.62
706.226	2330.42
706.414	2318.13
706.602	2311.99
706.79	2264.88
706.979	2320.18
707.167	2324.27
707.355	2234.16
707.543	2166.58
707.731	2277.17
707.919	2240.31
708.107	2275.12
708.296	2301.75
708.484	2326.32
708.672	2309.94
708.86	2295.6
709.048	2320.18
709.236	2322.23
709.424	2156.34
709.612	2287.41
709.8	2142
709.988	2215.73
710.176	2244.4
710.364	2223.92
710.551	2240.31
710.739	2402.1
710.927	2273.07
711.115	2236.21
711.303	2273.07
711.491	2354.99
711.679	2162.48
711.866	2201.4
712.054	2268.98
712.242	2250.55
712.43	2320.18
712.617	2293.55
712.805	2369.33
712.993	2330.42
713.181	2127.67
713.368	2295.6
713.556	2266.93
713.744	2215.73
713.931	2287.41
714.119	2328.37
714.306	2197.3
714.494	2238.26
714.682	2228.02
714.869	2213.68
715.057	2283.31
715.244	2254.64
715.432	2283.31
715.619	2195.25
715.807	2332.47
715.994	2174.77
716.182	2281.27
716.369	2264.88
716.556	2201.4
716.744	2223.92
716.931	2191.16
717.119	2185.01
717.306	2129.72
717.493	2209.59
717.681	2338.61
717.868	2199.35
718.055	2099
718.242	2217.78
718.43	2283.31
718.617	2185.01
718.804	2332.47
718.991	2242.36
719.179	2281.27
719.366	2166.58
719.553	2238.26
719.74	2228.02
719.927	2250.55
720.114	2236.21
720.301	2203.44
720.488	2107.19
720.676	2258.74
720.863	2152.24
721.05	2336.56
721.237	2064.18
721.424	2137.91
721.611	2172.72
721.798	2090.81
721.985	2139.96
722.172	2264.88
722.358	2180.92
722.545	2348.85
722.732	2096.95
722.919	2182.96
723.106	2271.03
723.293	2109.24
723.48	2105.14
723.667	2232.12
723.853	2207.54
724.04	2185.01
724.227	2199.35
724.414	2244.4
724.6	2266.93
724.787	2301.75
724.974	2178.87
725.161	2244.4
725.347	2078.52
725.534	2064.18
725.72	2164.53
725.907	2172.72
726.094	2240.31
726.28	2195.25
726.467	2176.82
726.653	2139.96
726.84	2139.96
727.027	2230.07
727.213	2168.63
727.4	2115.38
727.586	2170.68
727.773	2291.51
727.959	2258.74
728.145	2236.21
728.332	2180.92
728.518	2172.72
728.705	2172.72
728.891	2125.62
729.077	2246.45
729.264	2213.68
729.45	2246.45
729.636	2293.55
729.823	2113.33
730.009	2137.91
730.195	2225.97
730.382	2217.78
730.568	2287.41
730.754	2248.5
730.94	2264.88
731.126	2152.24
731.313	2232.12
731.499	2219.83
731.685	2264.88
731.871	2189.11
732.057	2144.05
732.243	2273.07
732.429	2234.16
732.615	2363.19
732.801	2266.93
732.987	2211.64
733.173	2225.97
733.359	2256.69
733.545	2228.02
733.731	2260.79
733.917	2330.42
734.103	2371.38
734.289	2279.22
734.475	2244.4
734.661	2453.3
734.847	2221.88
735.033	2203.44
735.219	2260.79
735.404	2271.03
735.59	2266.93
735.776	2281.27
735.962	2260.79
736.148	2354.99
736.333	2289.46
736.519	2205.49
736.705	2187.06
736.89	2316.08
737.076	2189.11
737.262	2185.01
737.447	2228.02
737.633	2354.99
737.819	2203.44
738.004	2303.79
738.19	2262.83
738.375	2318.13
738.561	2242.36
738.747	2189.11
738.932	2174.77
739.118	2289.46
739.303	2322.23
739.489	2324.27
739.674	2217.78
739.859	2203.44
740.045	2219.83
740.23	2303.79
740.416	2193.2
740.601	2180.92
740.786	2142
740.972	2195.25
741.157	2248.5
741.342	2248.5
741.528	2205.49
741.713	2217.78
741.898	2240.31
742.084	2252.59
742.269	2105.14
742.454	2203.44
742.639	2201.4
742.824	2293.55
743.01	2195.25
743.195	2309.94
743.38	2182.96
743.565	2258.74
743.75	2203.44
743.935	2250.55
744.12	2164.53
744.305	2029.37
744.49	2105.14
744.675	2264.88
744.86	2115.38
745.045	2101.05
745.23	2076.47
745.415	2068.28
745.6	2219.83
745.785	2133.81
745.97	2207.54
746.155	2062.13
746.34	2109.24
746.525	2025.27
746.71	2139.96
746.895	1994.55
747.079	1955.64
747.264	2031.41
747.449	1974.07
747.634	2139.96
747.819	2133.81
748.003	2006.84
748.188	2043.7
748.373	1976.12
748.557	1988.41
748.742	1994.55
748.927	1933.11
749.111	1963.83
749.296	1894.2
749.481	2002.74
749.665	1888.06
749.85	1845.05
750.034	1883.96
750.219	1904.44
750.404	1806.14
750.588	1795.9
750.773	1804.09
750.957	1877.82
751.141	1867.58
751.326	1818.43
751.51	1845.05
751.695	1799.99
751.879	1795.9
752.064	1847.1
752.248	1843
752.432	1836.86
752.617	1713.98
752.801	1820.47
752.985	1711.93
753.17	1695.55
753.354	1722.17
753.538	1779.51
753.722	1806.14
753.907	1638.2
754.091	1783.61
754.275	1734.46
754.459	1619.77
754.643	1691.45
754.828	1535.81
755.012	1636.16
755.196	1670.97
755.38	1630.01
755.564	1621.82
755.748	1525.57
755.932	1607.48
756.116	1517.37
756.3	1558.33
756.484	1470.27
756.668	1500.99
756.852	1437.5
757.036	1521.47
757.22	1490.75
757.404	1529.66
757.588	1480.51
757.772	1445.7
757.956	1462.08
758.14	1419.07
758.323	1472.32
758.507	1539.9
758.691	1361.73
758.875	1406.78
759.059	1380.16
759.242	1468.22
759.426	1322.82
759.61	1341.25
759.794	1367.87
759.977	1384.26
760.161	1410.88
760.345	1404.74
760.528	1308.48
760.712	1408.83
760.895	1326.91
761.079	1331.01
761.263	1281.86
761.446	1335.1
761.63	1419.07
761.813	1318.72
761.997	1275.71
762.18	1208.13
762.364	1285.95
762.547	1163.08
762.731	1390.4
762.914	1306.43
763.098	1206.08
763.281	1320.77
763.464	1326.91
763.648	1259.33
763.831	1265.47
764.015	1214.27
764.198	1331.01
764.381	1167.17
764.564	1257.28
764.748	1255.23
764.931	1199.94
765.114	1161.03
765.297	1261.38
765.481	1187.65
765.664	1124.16
765.847	1249.09
766.03	1232.71
766.213	1111.88
766.397	1226.56
766.58	1132.36
766.763	1058.63
766.946	1130.31
767.129	1175.36
767.312	1083.2
767.495	1109.83
767.678	1070.92
767.861	1240.9
768.044	1175.36
768.227	1107.78
768.41	1040.2
768.593	1216.32
768.776	1144.64
768.959	1140.55
769.142	1165.12
769.324	1077.06
769.507	1040.2
769.69	1062.73
769.873	1115.97
770.056	1009.48
770.239	1068.87
770.421	1105.73
770.604	1058.63
770.787	970.57
770.97	1015.62
771.152	1027.91
771.335	1048.39
771.518	984.9
771.7	1032.01
771.883	1105.73
772.066	948.04
772.248	1019.72
772.431	1046.34
772.613	989
772.796	915.27
772.978	1036.1
773.161	923.46
773.343	966.47
773.526	974.66
773.708	954.18
773.891	882.5
774.073	1029.96
774.256	960.33
774.438	970.57
774.621	909.13
774.803	986.95
774.985	823.11
775.168	921.42
775.35	874.31
775.532	907.08
775.715	802.63
775.897	855.88
776.079	819.02
776.261	978.76
776.444	819.02
776.626	837.45
776.808	923.46
776.99	763.72
777.173	847.69
777.355	829.26
777.537	837.45
777.719	886.6
777.901	796.49
778.083	745.29
778.265	786.25
778.447	796.49
778.629	687.95
778.811	800.59
778.993	794.44
779.175	759.63
779.357	763.72
779.539	749.39
779.721	702.28
779.903	778.06
780.085	759.63
780.267	673.61
780.449	679.75
780.631	759.63
780.812	759.63
780.994	720.71
781.176	683.85
781.358	646.99
781.54	694.09
781.721	763.72
781.903	716.62
782.085	663.37
782.267	692.04
782.448	651.08
782.63	649.04
782.812	673.61
782.993	649.04
783.175	653.13
783.357	655.18
783.538	653.13
783.72	657.23
783.901	663.37
784.083	581.45
784.264	575.31
784.446	573.26
784.627	526.16
784.809	595.79
784.99	532.3
785.172	667.47
785.353	528.21
785.535	593.74
785.716	575.31
785.897	536.4
786.079	593.74
786.26	624.46
786.441	544.59
786.623	520.01
786.804	565.07
786.985	558.92
787.167	554.83
787.348	538.45
787.529	571.21
787.71	448.33
787.891	485.2
788.073	536.4
788.254	438.09
788.435	505.68
788.616	542.54
788.797	501.58
788.978	491.34
789.159	399.18
789.34	493.39
789.522	474.96
789.703	450.38
789.884	472.91
790.065	440.14
790.246	558.92
790.427	397.14
790.607	479.05
790.788	417.61
790.969	483.15
791.15	462.67
791.331	431.95
791.512	460.62
791.693	347.98
791.874	388.94
792.054	464.72
792.235	495.44
792.416	446.29
792.597	434
792.778	380.75
792.958	429.9
793.139	419.66
793.32	382.8
793.5	438.09
793.681	448.33
793.862	405.33
794.042	378.7
794.223	317.26
794.404	409.42
794.584	317.26
794.765	440.14
794.945	427.85
795.126	477.01
795.306	413.52
795.487	362.32
795.667	327.5
795.848	423.76
796.028	300.88
796.209	329.55
796.389	382.8
796.57	370.51
796.75	368.46
796.93	405.33
797.111	325.46
797.291	442.19
797.471	298.83
797.652	397.14
797.832	339.79
798.012	327.5
798.192	309.07
798.373	276.31
798.553	358.22
798.733	325.46
798.913	268.11
799.093	294.74
799.274	347.98
799.454	304.98
799.634	282.45
799.814	360.27
799.994	307.02
800.174	380.75
800.354	313.17
800.534	317.26
800.714	354.13
800.894	294.74
801.074	309.07
801.254	253.78
801.434	354.13
801.614	311.12
801.794	333.65
801.974	886.6
802.154	253.78
802.334	249.68
802.514	216.91
802.693	261.97
802.873	304.98
803.053	411.47
803.233	272.21
803.413	173.91
803.592	296.78
803.772	229.2
803.952	292.69
804.131	317.26
804.311	270.16
804.491	345.94
804.67	241.49
804.85	223.06
805.03	286.54
805.209	270.16
805.389	294.74
805.568	284.5
805.748	206.67
805.928	210.77
806.107	241.49
806.287	286.54
806.466	225.11
806.646	241.49
806.825	290.64
807.004	118.61
807.184	241.49
807.363	241.49
807.543	188.24
807.722	266.07
807.901	329.55
808.081	206.67
808.26	198.48
808.439	221.01
808.619	202.58
808.798	243.54
808.977	208.72
809.156	274.26
809.336	257.87
809.515	274.26
809.694	223.06
809.873	184.15
810.052	245.59
810.231	161.62
810.411	249.68
810.59	229.2
810.769	180.05
810.948	255.83
811.127	165.71
811.306	216.91
811.485	245.59
811.664	276.31
811.843	208.72
812.022	286.54
812.201	196.43
812.38	208.72
812.559	184.15
812.737	192.34
812.916	145.24
813.095	184.15
813.274	216.91
813.453	173.91
813.632	175.95
813.811	194.39
813.989	204.63
814.168	135
814.347	186.19
814.526	227.15
814.704	208.72
814.883	202.58
815.062	124.76
815.24	157.52
815.419	180.05
815.598	225.11
815.776	149.33
815.955	208.72
816.133	180.05
816.312	227.15
816.49	124.76
816.669	141.14
816.847	194.39
817.026	255.83
817.204	173.91
817.383	212.82
817.561	180.05
817.74	194.39
817.918	182.1
818.097	194.39
818.275	71.51
818.453	247.63
818.632	128.85
818.81	184.15
818.988	108.37
819.167	79.7
819.345	194.39
819.523	169.81
819.701	151.38
819.879	198.48
820.058	190.29
820.236	161.62
820.414	210.77
820.592	180.05
820.77	120.66
820.948	118.61
821.127	94.04
821.305	132.95
821.483	167.76
821.661	159.57
821.839	139.09
822.017	167.76
822.195	163.67
822.373	69.46
822.551	194.39
822.729	192.34
822.907	98.13
823.085	198.48
823.262	102.23
823.44	141.14
823.618	122.71
823.796	231.25
823.974	124.76
824.152	137.04
824.329	135
824.507	145.24
824.685	128.85
824.863	118.61
825.04	98.13
825.218	118.61
825.396	130.9
825.574	135
825.751	227.15
825.929	204.63
826.107	167.76
826.284	98.13
826.462	192.34
826.639	116.56
826.817	63.32
826.994	120.66
827.172	186.19
827.349	165.71
827.527	122.71
827.704	112.47
827.882	165.71
828.059	36.69
828.237	87.89
828.414	167.76
828.591	106.32
828.769	126.8
828.946	169.81
829.124	106.32
829.301	141.14
829.478	94.04
829.655	96.08
829.833	124.76
830.01	36.69
830.187	110.42
830.364	145.24
830.542	89.94
830.719	169.81
830.896	128.85
831.073	139.09
831.25	120.66
831.427	96.08
831.604	132.95
831.782	104.28
831.959	163.67
832.136	110.42
832.313	163.67
832.49	53.08
832.667	69.46
832.844	96.08
833.021	182.1
833.198	102.23
833.374	143.19
833.551	190.29
833.728	128.85
833.905	157.52
834.082	20.31
834.259	200.53
834.436	87.89
834.612	83.8
834.789	42.84
834.966	-8.36
835.143	147.28
835.319	-4.27
835.496	161.62
835.673	89.94
835.85	73.56
836.026	42.84
836.203	139.09
836.38	104.28
836.556	65.36
836.733	59.22
836.909	182.1
837.086	38.74
837.262	114.52
837.439	42.84
837.616	110.42
837.792	108.37
837.968	126.8
838.145	137.04
838.321	169.81
838.498	130.9
838.674	89.94
838.851	79.7
839.027	53.08
839.203	83.8
839.38	130.9
839.556	65.36
839.732	55.12
839.909	73.56
840.085	104.28
840.261	75.6
840.437	26.45
840.614	55.12
840.79	116.56
840.966	85.84
841.142	83.8
841.318	81.75
841.494	135
841.671	94.04
841.847	51.03
842.023	108.37
842.199	124.76
842.375	135
842.551	83.8
842.727	16.21
842.903	173.91
843.079	51.03
843.255	69.46
843.431	116.56
843.607	71.51
843.783	10.07
843.959	124.76
844.134	65.36
844.31	38.74
844.486	147.28
844.662	63.32
844.838	22.36
845.013	77.65
845.189	108.37
845.365	75.6
845.541	87.89
845.716	71.51
845.892	81.75
846.068	85.84
846.244	71.51
846.419	75.6
846.595	3.93
846.77	79.7
846.946	8.02
847.122	55.12
847.297	-37.03
847.473	106.32
847.648	-6.31
847.824	30.55
847.999	-6.31
848.175	96.08
848.35	51.03
848.526	83.8
848.701	75.6
848.876	118.61
849.052	85.84
849.227	85.84
849.403	100.18
849.578	-24.75
849.753	55.12
849.929	40.79
850.104	59.22
850.279	135
850.454	171.86
850.63	87.89
850.805	40.79
850.98	81.75
851.155	-12.46
851.33	34.64
851.505	16.21
851.681	98.13
851.856	30.55
852.031	100.18
852.206	100.18
852.381	-2.22
852.556	85.84
852.731	83.8
852.906	114.52
853.081	71.51
853.256	55.12
853.431	20.31
853.606	69.46
853.781	48.98
853.956	8.02
854.131	22.36
854.305	1.88
854.48	69.46
854.655	59.22
854.83	126.8
855.005	57.17
855.18	59.22
855.354	71.51
855.529	104.28
855.704	53.08
855.879	65.36
856.053	73.56
856.228	48.98
856.403	46.93
856.577	51.03
856.752	-6.31
856.926	81.75
857.101	38.74
857.276	48.98
857.45	22.36
857.625	118.61
857.799	57.17
857.974	48.98
858.148	53.08
858.323	55.12
858.497	-20.65
858.672	40.79
858.846	32.6
859.02	-4.27
859.195	24.4
859.369	12.12
859.543	48.98
859.718	67.41
859.892	42.84
860.066	10.07
860.241	-18.6
860.415	61.27
860.589	-37.03
860.763	30.55
860.938	-2.22
861.112	83.8
861.286	16.21
861.46	126.8
861.634	44.88
861.808	114.52
861.982	32.6
862.157	85.84
862.331	32.6
862.505	-6.31
862.679	36.69
862.853	118.61
863.027	83.8
863.201	87.89
863.375	77.65
863.549	77.65
863.722	30.55
863.896	3.93
864.07	34.64
864.244	59.22
864.418	67.41
864.592	34.64
864.766	61.27
864.939	34.64
865.113	26.45
865.287	44.88
865.461	46.93
865.634	126.8
865.808	40.79
865.982	10.07
866.156	-37.03
866.329	38.74
866.503	65.36
866.676	18.26
866.85	40.79
867.024	-18.6
867.197	81.75
867.371	44.88
867.544	-63.66
867.718	51.03
867.891	22.36
868.065	22.36
868.238	-0.17
868.412	42.84
868.585	20.31
868.759	12.12
868.932	44.88
869.105	8.02
869.279	57.17
869.452	87.89
869.625	59.22
869.799	89.94
869.972	48.98
870.145	36.69
870.319	59.22
870.492	102.23
870.665	22.36
870.838	18.26
871.011	-20.65
871.185	26.45
871.358	5.97
871.531	77.65
871.704	16.21
871.877	77.65
872.05	69.46
872.223	24.4
872.396	48.98
872.569	63.32
872.742	-45.23
872.915	46.93
873.088	36.69
873.261	-47.27
873.434	124.76
873.607	30.55
873.78	40.79
873.953	-18.6
874.126	46.93
874.299	42.84
874.471	42.84
874.644	12.12
874.817	36.69
874.99	75.6
875.163	3.93
875.335	46.93
875.508	-8.36
875.681	59.22
875.853	85.84
876.026	1.88
876.199	-0.17
876.371	83.8
876.544	48.98
876.717	139.09
876.889	-6.31
877.062	69.46
877.234	-24.75
877.407	30.55
877.579	32.6
877.752	98.13
877.924	18.26
878.097	91.99
878.269	-34.99
878.442	79.7
878.614	40.79
878.786	87.89
878.959	18.26
879.131	24.4
879.303	51.03
879.476	89.94
879.648	63.32
879.82	71.51
879.993	32.6
880.165	-6.31
880.337	3.93
880.509	87.89
880.681	-8.36
880.854	-4.27
881.026	8.02
881.198	137.04
881.37	77.65
881.542	40.79
881.714	63.32
881.886	-55.47
882.058	-24.75
882.23	61.27
882.402	65.36
882.574	85.84
882.746	12.12
882.918	42.84
883.09	3.93
883.262	-20.65
883.434	46.93
883.606	73.56
883.778	-6.31
883.95	126.8
884.122	26.45
884.293	14.17
884.465	26.45
884.637	44.88
884.809	-28.84
884.98	-0.17
885.152	24.4
885.324	51.03
885.496	46.93
885.667	38.74
885.839	-14.51
886.011	137.04
886.182	69.46
886.354	73.56
886.525	77.65
886.697	38.74
886.869	-16.55
887.04	71.51
887.212	-2.22
887.383	51.03
887.555	85.84
887.726	-30.89
887.897	-16.55
888.069	40.79
888.24	61.27
888.412	38.74
888.583	65.36
888.754	18.26
888.926	-67.75
889.097	71.51
889.268	-6.31
889.44	-30.89
889.611	38.74
889.782	28.5
889.953	14.17
890.125	79.7
890.296	-28.84
890.467	-28.84
890.638	-12.46
890.809	61.27
890.98	-8.36
891.151	24.4
891.323	42.84
891.494	85.84
891.665	-0.17
891.836	26.45
892.007	26.45
892.178	71.51
892.349	18.26
892.52	94.04
892.691	42.84
892.862	46.93
893.032	-32.94
893.203	-65.71
893.374	53.08
893.545	34.64
893.716	-14.51
893.887	51.03
894.057	67.41
894.228	30.55
894.399	14.17
894.57	-18.6
894.74	12.12
894.911	10.07
895.082	34.64
895.253	-2.22
895.423	12.12
895.594	53.08
895.764	5.97
895.935	28.5
896.106	24.4
896.276	59.22
896.447	57.17
896.617	53.08
896.788	-37.03
896.958	-2.22
897.129	24.4
897.299	-32.94
897.47	40.79
897.64	71.51
897.81	22.36
897.981	44.88
898.151	10.07
898.322	-10.41
898.492	73.56
898.662	-12.46
898.832	34.64
899.003	22.36
899.173	16.21
899.343	-2.22
899.513	-20.65
