Data from USB4F104151__40__12-41-23-483.txt Node

Date: Fri Mar 14 12:41:23 EDT 2025
User: louis
Spectrometer: USB4F10415
Trigger mode: 4
Integration Time (sec): 3.000000E-2
Scans to average: 1
Electric dark correction enabled: true
Nonlinearity correction enabled: false
Boxcar width: 0
XAxis mode: Wavelengths
Number of Pixels in Spectrum: 3648
>>>>>Begin Spectral Data<<<<<
178.204	-120.83
178.424	-120.83
178.644	-120.83
178.864	-204.8
179.084	-108.54
179.304	6.14
179.524	26.62
179.744	-61.44
179.964	14.34
180.184	6.14
180.404	67.58
180.624	-28.67
180.844	22.53
181.064	-18.43
181.283	10.24
181.503	16.38
181.723	-61.44
181.943	-75.77
182.163	36.86
182.383	24.58
182.602	34.82
182.822	36.86
183.042	49.15
183.262	16.38
183.482	45.06
183.701	-14.34
183.921	-8.19
184.141	22.53
184.361	28.67
184.58	6.14
184.8	-22.53
185.02	24.58
185.239	47.1
185.459	20.48
185.679	98.3
185.898	8.19
186.118	57.34
186.338	38.91
186.557	57.34
186.777	-61.44
186.997	57.34
187.216	10.24
187.436	49.15
187.655	77.82
187.875	77.82
188.095	12.29
188.314	90.11
188.534	30.72
188.753	43.01
188.973	-8.19
189.192	8.19
189.412	-0
189.631	100.35
189.851	90.11
190.07	55.3
190.29	67.58
190.509	16.38
190.729	-45.06
190.948	51.2
191.168	180.22
191.387	49.15
191.607	8.19
191.826	26.62
192.045	55.3
192.265	100.35
192.484	49.15
192.704	40.96
192.923	45.06
193.142	36.86
193.362	-12.29
193.581	79.87
193.8	94.21
194.02	92.16
194.239	20.48
194.458	32.77
194.678	67.58
194.897	53.25
195.116	2.05
195.335	6.14
195.555	79.87
195.774	-14.34
195.993	24.58
196.212	34.82
196.432	-10.24
196.651	14.34
196.87	55.3
197.089	94.21
197.308	75.77
197.528	6.14
197.747	24.58
197.966	-4.1
198.185	61.44
198.404	10.24
198.623	26.62
198.842	90.11
199.062	30.72
199.281	75.77
199.5	20.48
199.719	-6.14
199.938	16.38
200.157	2.05
200.376	-0
200.595	49.15
200.814	6.14
201.033	55.3
201.252	-12.29
201.471	36.86
201.69	59.39
201.909	-22.53
202.128	73.73
202.347	71.68
202.566	40.96
202.785	45.06
203.004	24.58
203.223	75.77
203.442	32.77
203.661	2.05
203.879	-6.14
204.098	65.53
204.317	-65.54
204.536	43.01
204.755	8.19
204.974	108.54
205.193	43.01
205.411	88.06
205.63	69.63
205.849	71.68
206.068	75.77
206.287	45.06
206.505	81.92
206.724	-12.29
206.943	71.68
207.162	-14.34
207.381	92.16
207.599	-32.77
207.818	51.2
208.037	43.01
208.255	-16.38
208.474	55.3
208.693	94.21
208.911	-6.14
209.13	2.05
209.349	63.49
209.567	59.39
209.786	45.06
210.005	20.48
210.223	36.86
210.442	-30.72
210.661	26.62
210.879	30.72
211.098	43.01
211.316	-40.96
211.535	100.35
211.753	-6.14
211.972	30.72
212.191	59.39
212.409	12.29
212.628	124.93
212.846	22.53
213.065	14.34
213.283	81.92
213.502	94.21
213.72	38.91
213.938	59.39
214.157	40.96
214.375	71.68
214.594	10.24
214.812	24.58
215.031	-12.29
215.249	38.91
215.467	-2.05
215.686	6.14
215.904	38.91
216.122	-0
216.341	90.11
216.559	30.72
216.778	57.34
216.996	90.11
217.214	61.44
217.432	-0
217.651	36.86
217.869	26.62
218.087	32.77
218.306	47.1
218.524	61.44
218.742	-71.68
218.96	135.17
219.179	4.1
219.397	4.1
219.615	22.53
219.833	135.17
220.051	28.67
220.27	36.86
220.488	38.91
220.706	57.34
220.924	69.63
221.142	-6.14
221.36	34.82
221.578	34.82
221.796	51.2
222.015	43.01
222.233	28.67
222.451	86.01
222.669	-6.14
222.887	-34.82
223.105	-22.53
223.323	45.06
223.541	-4.1
223.759	43.01
223.977	88.06
224.195	104.45
224.413	65.53
224.631	36.86
224.849	26.62
225.067	88.06
225.285	57.34
225.503	-12.29
225.721	-34.82
225.939	16.38
226.157	65.53
226.375	96.25
226.592	6.14
226.81	61.44
227.028	77.82
227.246	135.17
227.464	-6.14
227.682	-8.19
227.9	57.34
228.117	73.73
228.335	30.72
228.553	-61.44
228.771	34.82
228.989	36.86
229.206	16.38
229.424	38.91
229.642	100.35
229.86	36.86
230.077	129.02
230.295	18.43
230.513	157.69
230.731	94.21
230.948	110.59
231.166	90.11
231.384	14.34
231.601	47.1
231.819	73.73
232.037	4.1
232.254	10.24
232.472	10.24
232.689	40.96
232.907	51.2
233.125	83.97
233.342	24.58
233.56	16.38
233.777	-0
233.995	47.1
234.213	55.3
234.43	102.4
234.648	10.24
234.865	114.69
235.083	2.05
235.3	-4.1
235.518	20.48
235.735	67.58
235.953	49.15
236.17	-10.24
236.388	-2.05
236.605	118.78
236.822	108.54
237.04	26.62
237.257	34.82
237.475	6.14
237.692	90.11
237.909	49.15
238.127	12.29
238.344	-63.49
238.562	112.64
238.779	-0
238.996	-16.38
239.214	-4.1
239.431	61.44
239.648	38.91
239.865	8.19
240.083	10.24
240.3	69.63
240.517	-30.72
240.735	32.77
240.952	36.86
241.169	16.38
241.386	83.97
241.603	59.39
241.821	2.05
242.038	53.25
242.255	51.2
242.472	24.58
242.689	-24.58
242.907	57.34
243.124	43.01
243.341	14.34
243.558	-8.19
243.775	20.48
243.992	-12.29
244.209	75.77
244.426	94.21
244.643	30.72
244.86	63.49
245.078	51.2
245.295	71.68
245.512	53.25
245.729	12.29
245.946	75.77
246.163	-2.05
246.38	69.63
246.597	-24.58
246.814	22.53
247.031	24.58
247.248	57.34
247.464	53.25
247.681	10.24
247.898	24.58
248.115	67.58
248.332	-45.06
248.549	18.43
248.766	71.68
248.983	81.92
249.2	65.53
249.417	57.34
249.633	-8.19
249.85	55.3
250.067	53.25
250.284	102.4
250.501	96.25
250.717	71.68
250.934	-22.53
251.151	61.44
251.368	59.39
251.585	86.01
251.801	-18.43
252.018	53.25
252.235	63.49
252.451	-75.77
252.668	6.14
252.885	71.68
253.102	83.97
253.318	-2.05
253.535	94.21
253.752	-28.67
253.968	22.53
254.185	57.34
254.401	-6.14
254.618	36.86
254.835	24.58
255.051	59.39
255.268	32.77
255.484	28.67
255.701	51.2
255.917	14.34
256.134	-30.72
256.351	49.15
256.567	-14.34
256.784	-61.44
257	-4.1
257.217	102.4
257.433	94.21
257.65	79.87
257.866	-8.19
258.082	20.48
258.299	20.48
258.515	92.16
258.732	32.77
258.948	47.1
259.165	-18.43
259.381	104.45
259.597	-32.77
259.814	-47.1
260.03	67.58
260.246	10.24
260.463	71.68
260.679	34.82
260.895	32.77
261.112	40.96
261.328	24.58
261.544	51.2
261.761	155.65
261.977	12.29
262.193	38.91
262.409	38.91
262.626	51.2
262.842	6.14
263.058	38.91
263.274	36.86
263.49	2.05
263.707	98.3
263.923	75.77
264.139	26.62
264.355	38.91
264.571	100.35
264.787	30.72
265.004	45.06
265.22	32.77
265.436	73.73
265.652	43.01
265.868	6.14
266.084	-55.3
266.3	45.06
266.516	36.86
266.732	116.73
266.948	51.2
267.164	34.82
267.38	18.43
267.596	43.01
267.812	51.2
268.028	92.16
268.244	-22.53
268.46	79.87
268.676	71.68
268.892	116.73
269.108	-98.3
269.324	59.39
269.54	-16.38
269.756	75.77
269.972	28.67
270.188	32.77
270.403	-4.1
270.619	55.3
270.835	34.82
271.051	57.34
271.267	61.44
271.483	10.24
271.698	61.44
271.914	45.06
272.13	98.3
272.346	-16.38
272.562	20.48
272.777	45.06
272.993	-10.24
273.209	47.1
273.425	49.15
273.64	-8.19
273.856	69.63
274.072	2.05
274.287	10.24
274.503	86.01
274.719	4.1
274.934	83.97
275.15	22.53
275.366	-20.48
275.581	40.96
275.797	30.72
276.012	22.53
276.228	43.01
276.444	-36.86
276.659	8.19
276.875	-22.53
277.09	-12.29
277.306	34.82
277.521	75.77
277.737	57.34
277.952	16.38
278.168	71.68
278.383	63.49
278.599	-43.01
278.814	8.19
279.03	-16.38
279.245	24.58
279.461	12.29
279.676	36.86
279.892	22.53
280.107	-6.14
280.322	-6.14
280.538	-4.1
280.753	57.34
280.969	75.77
281.184	45.06
281.399	71.68
281.615	36.86
281.83	100.35
282.045	47.1
282.26	-30.72
282.476	73.73
282.691	30.72
282.906	40.96
283.122	4.1
283.337	8.19
283.552	38.91
283.767	14.34
283.983	53.25
284.198	8.19
284.413	163.84
284.628	40.96
284.843	22.53
285.058	75.77
285.274	28.67
285.489	-51.2
285.704	61.44
285.919	88.06
286.134	22.53
286.349	65.53
286.564	10.24
286.779	43.01
286.995	38.91
287.21	-92.16
287.425	90.11
287.64	14.34
287.855	38.91
288.07	2.05
288.285	141.31
288.5	34.82
288.715	73.73
288.93	-8.19
289.145	90.11
289.36	81.92
289.575	-40.96
289.79	69.63
290.004	-4.1
290.219	69.63
290.434	8.19
290.649	98.3
290.864	49.15
291.079	59.39
291.294	22.53
291.509	38.91
291.724	81.92
291.938	96.25
292.153	75.77
292.368	71.68
292.583	38.91
292.798	43.01
293.012	96.25
293.227	104.45
293.442	14.34
293.657	-0
293.871	79.87
294.086	49.15
294.301	51.2
294.516	86.01
294.73	108.54
294.945	-10.24
295.16	-43.01
295.374	24.58
295.589	53.25
295.804	-4.1
296.018	-20.48
296.233	18.43
296.447	38.91
296.662	4.1
296.877	61.44
297.091	36.86
297.306	69.63
297.52	6.14
297.735	63.49
297.949	22.53
298.164	75.77
298.378	81.92
298.593	2.05
298.807	71.68
299.022	10.24
299.236	73.73
299.451	-75.77
299.665	-30.72
299.88	8.19
300.094	104.45
300.309	108.54
300.523	69.63
300.737	22.53
300.952	69.63
301.166	36.86
301.381	34.82
301.595	-18.43
301.809	18.43
302.024	96.25
302.238	4.1
302.452	49.15
302.667	-6.14
302.881	71.68
303.095	22.53
303.309	-22.53
303.524	26.62
303.738	-8.19
303.952	10.24
304.166	106.49
304.381	-20.48
304.595	90.11
304.809	34.82
305.023	24.58
305.237	61.44
305.452	2.05
305.666	49.15
305.88	49.15
306.094	-18.43
306.308	16.38
306.522	71.68
306.736	16.38
306.95	-22.53
307.164	43.01
307.379	-4.1
307.593	83.97
307.807	86.01
308.021	51.2
308.235	61.44
308.449	4.1
308.663	34.82
308.877	63.49
309.091	30.72
309.305	43.01
309.519	-8.19
309.733	38.91
309.947	-14.34
310.161	61.44
310.374	30.72
310.588	79.87
310.802	-73.73
311.016	59.39
311.23	40.96
311.444	22.53
311.658	34.82
311.872	34.82
312.085	112.64
312.299	104.45
312.513	120.83
312.727	22.53
312.941	43.01
313.154	10.24
313.368	-6.14
313.582	55.3
313.796	75.77
314.009	47.1
314.223	24.58
314.437	22.53
314.651	30.72
314.864	86.01
315.078	28.67
315.292	104.45
315.505	86.01
315.719	43.01
315.933	34.82
316.146	81.92
316.36	40.96
316.573	75.77
316.787	10.24
317.001	28.67
317.214	71.68
317.428	51.2
317.641	-22.53
317.855	-10.24
318.068	59.39
318.282	75.77
318.495	75.77
318.709	-2.05
318.922	-0
319.136	47.1
319.349	90.11
319.563	108.54
319.776	-4.1
319.99	43.01
320.203	96.25
320.417	22.53
320.63	79.87
320.843	90.11
321.057	53.25
321.27	-24.58
321.483	26.62
321.697	75.77
321.91	20.48
322.124	75.77
322.337	-28.67
322.55	112.64
322.763	65.53
322.977	79.87
323.19	51.2
323.403	90.11
323.617	-28.67
323.83	94.21
324.043	-6.14
324.256	83.97
324.469	-47.1
324.683	59.39
324.896	14.34
325.109	61.44
325.322	8.19
325.535	94.21
325.748	59.39
325.962	61.44
326.175	55.3
326.388	67.58
326.601	47.1
326.814	20.48
327.027	63.49
327.24	77.82
327.453	-8.19
327.666	8.19
327.879	112.64
328.092	96.25
328.305	61.44
328.518	-20.48
328.731	53.25
328.944	-45.06
329.157	71.68
329.37	53.25
329.583	38.91
329.796	47.1
330.009	-14.34
330.222	96.25
330.435	100.35
330.648	75.77
330.861	18.43
331.073	73.73
331.286	34.82
331.499	110.59
331.712	51.2
331.925	77.82
332.138	73.73
332.35	88.06
332.563	43.01
332.776	100.35
332.989	32.77
333.202	22.53
333.414	108.54
333.627	122.88
333.84	71.68
334.053	129.02
334.265	45.06
334.478	34.82
334.691	59.39
334.903	-8.19
335.116	28.67
335.329	2.05
335.541	10.24
335.754	57.34
335.966	-4.1
336.179	22.53
336.392	-57.34
336.604	73.73
336.817	36.86
337.029	98.3
337.242	106.49
337.454	106.49
337.667	133.12
337.88	-4.1
338.092	75.77
338.305	120.83
338.517	-4.1
338.729	34.82
338.942	43.01
339.154	24.58
339.367	77.82
339.579	92.16
339.792	18.43
340.004	24.58
340.217	61.44
340.429	36.86
340.641	6.14
340.854	73.73
341.066	30.72
341.278	65.53
341.491	92.16
341.703	81.92
341.915	-47.1
342.128	67.58
342.34	45.06
342.552	51.2
342.764	59.39
342.977	73.73
343.189	43.01
343.401	26.62
343.613	83.97
343.826	43.01
344.038	53.25
344.25	38.91
344.462	24.58
344.674	122.88
344.886	26.62
345.099	-0
345.311	83.97
345.523	83.97
345.735	63.49
345.947	45.06
346.159	53.25
346.371	110.59
346.583	38.91
346.795	-0
347.007	14.34
347.219	18.43
347.431	40.96
347.643	67.58
347.855	55.3
348.067	77.82
348.279	-2.05
348.491	2.05
348.703	112.64
348.915	24.58
349.127	-2.05
349.339	98.3
349.551	-40.96
349.763	65.53
349.975	38.91
350.187	75.77
350.399	131.07
350.61	65.53
350.822	8.19
351.034	20.48
351.246	36.86
351.458	124.93
351.669	92.16
351.881	65.53
352.093	90.11
352.305	-8.19
352.517	47.1
352.728	67.58
352.94	40.96
353.152	69.63
353.363	-12.29
353.575	-10.24
353.787	26.62
353.999	73.73
354.21	120.83
354.422	45.06
354.633	-0
354.845	-69.63
355.057	22.53
355.268	116.73
355.48	73.73
355.692	-28.67
355.903	73.73
356.115	71.68
356.326	-47.1
356.538	28.67
356.749	26.62
356.961	112.64
357.172	12.29
357.384	12.29
357.595	98.3
357.807	57.34
358.018	14.34
358.23	63.49
358.441	73.73
358.653	108.54
358.864	34.82
359.075	-34.82
359.287	51.2
359.498	81.92
359.709	24.58
359.921	77.82
360.132	34.82
360.344	98.3
360.555	38.91
360.766	49.15
360.977	-32.77
361.189	73.73
361.4	45.06
361.611	92.16
361.823	63.49
362.034	73.73
362.245	-43.01
362.456	77.82
362.667	65.53
362.879	69.63
363.09	55.3
363.301	34.82
363.512	69.63
363.723	45.06
363.935	86.01
364.146	47.1
364.357	32.77
364.568	45.06
364.779	14.34
364.99	112.64
365.201	-0
365.412	79.87
365.623	-6.14
365.834	43.01
366.045	100.35
366.256	71.68
366.467	24.58
366.678	45.06
366.889	43.01
367.1	81.92
367.311	116.73
367.522	43.01
367.733	49.15
367.944	28.67
368.155	40.96
368.366	75.77
368.577	104.45
368.788	77.82
368.999	55.3
369.209	69.63
369.42	67.58
369.631	88.06
369.842	106.49
370.053	98.3
370.264	71.68
370.474	22.53
370.685	92.16
370.896	79.87
371.107	61.44
371.317	139.26
371.528	102.4
371.739	30.72
371.95	98.3
372.16	81.92
372.371	90.11
372.582	-0
372.792	67.58
373.003	110.59
373.214	86.01
373.424	36.86
373.635	12.29
373.846	55.3
374.056	40.96
374.267	61.44
374.477	-6.14
374.688	30.72
374.898	73.73
375.109	36.86
375.319	90.11
375.53	81.92
375.74	81.92
375.951	108.54
376.161	94.21
376.372	116.73
376.582	45.06
376.793	83.97
377.003	55.3
377.214	18.43
377.424	22.53
377.635	45.06
377.845	32.77
378.055	81.92
378.266	59.39
378.476	36.86
378.686	86.01
378.897	102.4
379.107	30.72
379.317	81.92
379.528	77.82
379.738	129.02
379.948	-36.86
380.158	55.3
380.369	94.21
380.579	96.25
380.789	-0
380.999	120.83
381.21	53.25
381.42	178.17
381.63	-4.1
381.84	55.3
382.05	40.96
382.261	108.54
382.471	90.11
382.681	55.3
382.891	94.21
383.101	124.93
383.311	59.39
383.521	-12.29
383.731	92.16
383.941	67.58
384.151	67.58
384.361	104.45
384.571	126.97
384.781	71.68
384.991	122.88
385.201	112.64
385.411	90.11
385.621	143.36
385.831	45.06
386.041	61.44
386.251	43.01
386.461	141.31
386.671	124.93
386.881	86.01
387.091	67.58
387.301	51.2
387.511	114.69
387.72	106.49
387.93	63.49
388.14	102.4
388.35	61.44
388.56	145.41
388.769	133.12
388.979	34.82
389.189	81.92
389.399	149.5
389.609	143.36
389.818	104.45
390.028	92.16
390.238	124.93
390.447	106.49
390.657	83.97
390.867	57.34
391.076	116.73
391.286	145.41
391.496	59.39
391.705	69.63
391.915	124.93
392.125	165.89
392.334	94.21
392.544	133.12
392.753	114.69
392.963	100.35
393.172	88.06
393.382	59.39
393.591	75.77
393.801	63.49
394.01	112.64
394.22	26.62
394.429	75.77
394.639	124.93
394.848	75.77
395.058	108.54
395.267	47.1
395.477	75.77
395.686	83.97
395.895	153.6
396.105	194.56
396.314	71.68
396.524	88.06
396.733	145.41
396.942	106.49
397.152	112.64
397.361	116.73
397.57	159.74
397.78	143.36
397.989	122.88
398.198	192.51
398.407	108.54
398.617	202.75
398.826	157.69
399.035	106.49
399.244	239.61
399.453	122.88
399.663	157.69
399.872	139.26
400.081	210.94
400.29	200.7
400.499	212.99
400.708	157.69
400.917	151.55
401.127	147.45
401.336	126.97
401.545	192.51
401.754	200.7
401.963	204.8
402.172	206.84
402.381	110.59
402.59	169.98
402.799	256
403.008	208.89
403.217	153.6
403.426	131.07
403.635	133.12
403.844	198.65
404.053	192.51
404.262	102.4
404.471	241.66
404.68	206.84
404.888	253.95
405.097	245.76
405.306	243.71
405.515	241.66
405.724	229.37
405.933	301.05
406.142	321.53
406.35	305.15
406.559	264.19
406.768	274.43
406.977	333.82
407.185	303.1
407.394	292.86
407.603	362.49
407.812	329.72
408.02	423.93
408.229	350.2
408.438	350.2
408.646	387.07
408.855	307.2
409.064	399.35
409.272	440.31
409.481	399.35
409.69	387.07
409.898	499.7
410.107	505.85
410.315	438.27
410.524	471.03
410.733	495.61
410.941	532.47
411.15	622.58
411.358	559.1
411.567	675.83
411.775	573.43
411.984	641.01
412.192	745.46
412.401	585.72
412.609	765.94
412.818	763.89
413.026	763.89
413.234	727.03
413.443	706.55
413.651	815.09
413.86	827.38
414.068	888.82
414.276	1026.03
414.485	933.87
414.693	1034.22
414.901	1071.09
415.11	1058.8
415.318	1042.42
415.526	1161.2
415.734	1191.92
415.943	1189.87
416.151	1267.69
416.359	1277.93
416.567	1279.98
416.776	1427.43
416.984	1550.31
417.192	1558.5
417.4	1521.64
417.608	1413.1
417.817	1626.09
418.025	1716.2
418.233	1888.23
418.441	1775.59
418.649	1865.7
418.857	1986.53
419.065	1992.67
419.273	2054.11
419.481	2099.17
419.689	2174.94
419.897	2211.81
420.105	2328.54
420.313	2437.08
420.521	2531.29
420.729	2582.49
420.937	2629.59
421.145	2746.33
421.353	2813.91
421.561	3147.73
421.769	3006.42
421.977	3123.15
422.185	3166.16
422.393	3393.48
422.601	3557.32
422.809	3592.14
423.017	3590.09
423.224	3784.65
423.432	4124.61
423.64	3889.09
423.848	4229.06
424.056	4231.1
424.263	4435.9
424.471	4521.91
424.679	4589.5
424.887	4863.93
425.094	4851.64
425.302	4913.08
425.51	5302.19
425.718	5435.31
425.925	5416.88
426.133	5623.72
426.341	5916.58
426.548	6178.72
426.756	6162.34
426.964	6258.59
427.171	6647.71
427.379	6754.2
427.586	6911.89
427.794	7104.4
428.001	7604.11
428.209	7813
428.417	7608.2
428.624	8210.31
428.832	8314.75
429.039	8040.33
429.247	8351.62
429.454	8888.18
429.662	9527.15
429.869	9011.06
430.076	9502.58
430.284	9222
430.491	9670.51
430.699	10184.55
430.906	10110.82
431.114	10305.38
431.321	10608.48
431.528	10749.79
431.736	11523.92
431.943	12150.6
432.15	11771.72
432.358	11839.31
432.565	12590.91
432.772	12570.43
432.979	13557.55
433.187	13422.39
433.394	13616.94
433.601	14376.74
433.808	14456.61
434.016	14196.52
434.223	14849.82
434.43	16015.12
434.637	15697.68
434.844	16609.03
435.052	17176.31
435.259	16901.89
435.466	17192.7
435.673	17051.39
435.88	17813.23
436.087	18820.83
436.294	18956
436.501	18314.98
436.708	18841.31
436.915	19152.6
437.122	20420.3
437.329	20266.7
437.537	20893.38
437.743	21497.53
437.95	21151.42
438.157	22433.45
438.364	22982.31
438.571	22617.77
438.778	23154.33
438.985	25091.71
439.192	24250
439.399	25048.71
439.606	24319.63
439.813	25677.43
440.02	27580
440.227	26885.73
440.433	26799.72
440.64	27573.85
440.847	27348.57
441.054	27989.59
441.261	29720.12
441.467	29533.76
441.674	29793.85
441.881	30920.23
442.088	31233.57
442.294	30506.54
442.501	31958.55
442.708	32288.28
442.914	33465.86
443.121	34858.48
443.328	34076.15
443.534	36361.69
443.741	35212.77
443.948	34899.44
444.154	37125.58
444.361	37187.02
444.568	37451.2
444.774	37436.87
444.981	37901.76
445.187	39259.56
445.394	40643.99
445.6	40068.51
445.807	44338.52
446.013	41739.65
446.22	43103.6
446.426	44750.17
446.633	44756.31
446.839	46312.77
447.046	44438.87
447.252	46892.34
447.459	46773.56
447.665	46474.55
447.871	48672.03
448.078	50619.64
448.284	48244
448.491	49337.62
448.697	51643.63
448.903	52675.8
449.11	52640.99
449.316	51887.34
449.522	52710.62
449.728	54013.13
449.935	54340.8
450.141	54070.47
450.347	54928.57
450.553	54095.05
450.76	54424.77
450.966	56198.31
451.172	55585.97
451.378	57068.7
451.584	55735.47
451.791	57549.97
451.997	56949.92
452.203	57910.41
452.409	58145.93
452.615	57531.54
452.821	55755.95
453.027	55309.49
453.233	57728.14
453.44	55643.31
453.646	56284.33
453.852	56456.35
454.058	57169.05
454.264	55854.25
454.47	56769.69
454.676	55940.27
454.882	57410.71
455.088	52706.52
455.294	53494.99
455.5	54154.44
455.705	54951.1
455.911	52499.68
456.117	51930.34
456.323	50789.62
456.529	48669.98
456.735	50322.69
456.941	49204.5
457.147	48031.01
457.352	46732.6
457.558	46630.2
457.764	46239.04
457.97	45462.86
458.176	44901.71
458.381	44813.65
458.587	42382.71
458.793	42564.98
458.999	40625.56
459.204	43197.8
459.41	42020.22
459.616	39265.7
459.821	39632.29
460.027	39277.99
460.233	38446.52
460.438	36679.12
460.644	37244.36
460.85	35118.57
461.055	34792.94
461.261	35106.28
461.466	32566.8
461.672	31159.84
461.878	33525.25
462.083	31417.89
462.289	30488.11
462.494	30404.14
462.7	28952.13
462.905	28165.71
463.111	29218.37
463.316	28884.55
463.522	28792.39
463.727	28663.37
463.932	28925.51
464.138	28479.05
464.343	28399.18
464.549	27713.11
464.754	28673.61
464.959	28186.19
465.165	28429.9
465.37	27246.18
465.575	26392.17
465.781	27659.87
465.986	27522.65
466.191	26494.57
466.397	25753.21
466.602	24778.37
466.807	25675.38
467.012	25538.17
467.218	25597.56
467.423	25175.68
467.628	25740.92
467.833	26611.31
468.038	25437.82
468.244	24860.29
468.449	25646.71
468.654	24819.33
468.859	24862.34
469.064	24635.02
469.269	23500.44
469.474	23729.81
469.679	24336.01
469.885	23527.06
470.09	23944.85
470.295	23807.64
470.5	23070.37
470.705	23008.93
470.91	22986.4
471.115	22847.14
471.32	22955.68
471.525	22525.61
471.73	22255.28
471.935	22263.47
472.139	21505.72
472.344	21640.89
472.549	21540.54
472.754	21245.63
472.959	21061.31
473.164	20520.65
473.369	20233.93
473.574	20913.86
473.778	20780.74
473.983	20494.02
474.188	20317.9
474.393	19549.91
474.598	19603.16
474.802	19332.83
475.007	19130.08
475.212	19341.02
475.417	18458.34
475.621	18532.07
475.826	18728.67
476.031	18097.9
476.235	18032.36
476.44	18405.1
476.645	17886.96
476.849	17876.72
477.054	17735.41
477.259	17432.31
477.463	17368.82
477.668	17012.48
477.872	17268.47
478.077	16785.15
478.282	16502.53
478.486	16355.08
478.691	16367.37
478.895	16037.64
479.1	16353.03
479.304	16246.54
479.509	15531.79
479.713	15980.3
479.918	15546.13
480.122	15279.89
480.326	15714.06
480.531	15492.88
480.735	15310.61
480.94	15197.98
481.144	15765.26
481.348	14931.74
481.553	15175.45
481.757	14882.59
481.961	15038.23
482.166	15234.84
482.37	14982.94
482.574	14808.86
482.778	14784.29
482.983	15062.81
483.187	14956.32
483.391	15011.61
483.595	14653.22
483.8	14745.38
484.004	14855.97
484.208	15062.81
484.412	14860.06
484.616	14839.58
484.821	14841.63
485.025	14835.49
485.229	14882.59
485.433	14774.05
485.637	14923.55
485.841	14790.43
486.045	14935.84
486.249	14933.79
486.453	14540.58
486.657	14837.53
486.861	14968.6
487.065	14495.52
487.269	15007.51
487.473	14520.1
487.677	14933.79
487.881	14667.55
488.085	14843.68
488.289	14763.81
488.493	14939.93
488.697	15023.9
488.901	14741.28
489.105	14755.61
489.309	15011.61
489.512	14984.99
489.716	15007.51
489.92	15150.87
490.124	14757.66
490.328	15271.7
490.531	14872.35
490.735	15380.25
490.939	15308.57
491.143	15222.55
491.346	15044.38
491.55	15523.6
491.754	15501.08
491.958	15460.12
492.161	15363.86
492.365	15601.43
492.569	15632.15
492.772	15458.07
492.976	15582.99
493.18	15628.05
493.383	15777.55
493.587	16113.42
493.79	16363.27
493.994	15806.22
494.197	16234.25
494.401	16785.15
494.605	16709.38
494.808	16709.38
495.012	16709.38
495.215	16467.72
495.419	17037.05
495.622	16682.75
495.825	17110.78
496.029	16983.8
496.232	17297.14
496.436	17063.68
496.639	17493.75
496.843	17628.92
497.046	18269.93
497.249	18419.43
497.453	18345.7
497.656	18417.38
497.859	18220.78
498.063	19021.53
498.266	19087.07
498.469	19142.36
498.673	19211.99
498.876	19353.3
499.079	19611.35
499.282	19699.41
499.485	20068.05
499.689	20098.77
499.892	20516.55
500.095	20721.35
500.298	21212.86
500.501	21001.92
500.705	21597.88
500.908	21767.86
501.111	21819.06
501.314	21900.98
501.517	22234.8
501.72	22607.53
501.923	22208.17
502.126	23168.67
502.329	23140
502.532	23189.15
502.735	23295.64
502.938	23975.57
503.141	24032.91
503.344	24186.51
503.547	24286.86
503.75	24786.57
503.953	25020.03
504.156	25241.21
504.359	25529.98
504.562	25765.49
504.765	26152.56
504.968	26453.61
505.17	26484.33
505.373	26852.97
505.576	27182.69
505.779	27530.84
505.982	27942.49
506.185	28286.54
506.387	27985.49
506.59	28321.36
506.793	28939.85
506.996	28788.3
507.198	29707.83
507.401	29566.52
507.604	29914.68
507.807	30191.16
508.009	30350.9
508.212	30613.04
508.415	31049.25
508.617	31569.44
508.82	31800.86
509.022	31671.84
509.225	32374.29
509.428	32519.7
509.63	32773.64
509.833	32990.73
510.035	33613.31
510.238	33699.33
510.44	33732.09
510.643	34448.88
510.845	34395.64
511.048	34330.1
511.25	35196.39
511.453	35128.81
511.655	36380.12
511.858	35864.03
512.06	35882.46
512.262	36777.42
512.465	36996.56
512.667	37074.38
512.87	37592.51
513.072	37488.07
513.274	38092.22
513.477	38516.15
513.679	38671.79
513.881	38806.96
514.084	39054.76
514.286	39859.62
514.488	39851.42
514.69	40684.95
514.893	40670.61
515.095	40867.22
515.297	41354.63
515.499	41481.61
515.701	41772.42
515.904	42366.33
516.106	42308.99
516.308	42575.22
516.51	43095.41
516.712	43492.71
516.914	43728.23
517.116	44060
517.318	44537.18
517.52	44721.49
517.722	44604.76
517.925	45501.77
518.127	45446.47
518.329	46110.02
518.531	45704.52
518.733	46531.9
518.935	47011.12
519.136	46843.19
519.338	47502.64
519.54	47584.55
519.742	48239.9
519.944	48006.44
520.146	49194.26
520.348	49005.84
520.55	49212.69
520.752	49319.18
520.954	50345.22
521.155	49831.18
521.357	50742.52
521.559	50773.24
521.761	51139.83
521.963	51105.01
522.164	51381.49
522.366	51942.63
522.568	52172
522.77	52282.59
522.971	53042.39
523.173	52466.91
523.375	53152.98
523.576	52888.79
523.778	53097.69
523.98	53837
524.181	53937.35
524.383	53667.02
524.584	54590.65
524.786	54289.6
524.988	54070.47
525.189	55362.74
525.391	55452.85
525.592	55557.3
525.794	55284.92
525.995	56032.42
526.197	55727.28
526.398	55780.52
526.6	56093.86
526.801	56265.89
527.003	56140.97
527.204	56548.51
527.406	56812.7
527.607	56851.61
527.808	57283.73
528.01	56128.68
528.211	56523.94
528.412	57844.88
528.614	57087.13
528.815	57490.58
529.016	57601.17
529.218	57799.82
529.419	57443.48
529.62	57519.25
529.822	57828.49
530.023	57666.7
530.224	58033.29
530.425	57941.13
530.626	57584.79
530.828	57625.74
531.029	58578.05
531.23	57746.57
531.431	58037.39
531.632	58162.31
531.833	58614.91
532.035	58371.21
532.236	58823.81
532.437	58629.25
532.638	58051.72
532.839	58229.9
533.04	58547.33
533.241	57883.79
533.442	58926.2
533.643	58111.11
533.844	58817.66
534.045	58614.91
534.246	58049.67
534.447	58694.78
534.648	58293.38
534.849	58250.38
535.05	58119.31
535.251	58778.75
535.451	58152.07
535.652	58381.45
535.853	57762.96
536.054	58651.78
536.255	58369.16
536.456	57961.61
536.657	58827.9
536.857	58260.61
537.058	58018.95
537.259	58815.61
537.46	58434.69
537.66	57984.14
537.861	58463.36
538.062	58027.15
538.263	58821.76
538.463	58094.73
538.664	58074.25
538.865	57857.17
539.065	58410.12
539.266	57623.7
539.466	58508.42
539.667	57556.11
539.868	58582.15
540.068	57738.38
540.269	57699.47
540.469	58602.63
540.67	57746.57
540.87	58111.11
541.071	57795.73
541.271	58178.7
541.472	57914.51
541.672	58166.41
541.873	57668.75
542.073	57603.22
542.274	58080.39
542.474	57439.38
542.675	57439.38
542.875	58369.16
543.075	57740.43
543.276	57545.87
543.476	58023.05
543.676	57644.18
543.877	57812.11
544.077	57820.3
544.277	57556.11
544.478	57537.68
544.678	57623.7
544.878	57783.44
545.078	57580.69
545.279	57535.63
545.479	57547.92
545.679	57760.91
545.879	57398.42
546.079	57142.42
546.28	56984.73
546.48	56814.75
546.68	57128.09
546.88	57390.23
547.08	57175.19
547.28	57300.12
547.48	56726.69
547.68	57449.62
547.88	56779.93
548.081	57212.06
548.281	57566.35
548.481	57152.66
548.681	57799.82
548.881	56857.76
549.081	56894.62
549.28	56722.59
549.48	57607.31
549.68	56878.24
549.88	57199.77
550.08	56618.14
550.28	57054.36
550.48	56792.22
550.68	57351.32
550.88	56730.78
551.08	56747.17
551.279	56728.73
551.479	56738.97
551.679	56833.18
551.879	56779.93
552.079	57240.73
552.278	56335.52
552.478	56689.82
552.678	56843.42
552.878	56831.13
553.077	56464.55
553.277	56265.89
553.477	57080.99
553.676	56454.31
553.876	56824.99
554.076	56589.47
554.275	56069.29
554.475	55850.16
554.674	56538.27
554.874	56718.49
555.074	56265.89
555.273	56376.48
555.473	56745.12
555.672	56202.41
555.872	55878.83
556.071	56431.78
556.271	56695.97
556.47	56011.95
556.67	55215.29
556.869	56163.49
557.068	55944.36
557.268	55534.77
557.467	55667.89
557.667	55827.63
557.866	55794.86
558.065	55299.25
558.265	55592.11
558.464	55309.49
558.663	55854.25
558.863	54903.99
559.062	55352.5
559.261	55198.9
559.461	55887.02
559.66	54766.78
559.859	55688.37
560.058	55137.46
560.258	55440.56
560.457	54678.72
560.656	55282.87
560.855	54865.08
561.054	55020.73
561.253	54766.78
561.453	54977.72
561.652	55227.57
561.851	55063.74
562.05	54617.28
562.249	54322.37
562.448	55356.6
562.647	54541.5
562.846	54594.75
563.045	54445.25
563.244	54355.14
563.443	54637.76
563.642	53781.71
563.841	54428.87
564.04	54187.21
564.239	54609.09
564.438	53845.19
564.637	53910.73
564.836	54248.64
565.035	53525.71
565.234	54095.05
565.432	53746.89
565.631	53613.77
565.83	54066.38
566.029	53497.04
566.228	53152.98
566.427	53388.5
566.625	53333.2
566.824	52688.09
567.023	53587.15
567.222	52872.41
567.42	53159.12
567.619	52808.92
567.818	52767.96
568.016	52577.5
568.215	53005.53
568.414	52729.05
568.612	53081.3
568.811	52640.99
569.01	52389.09
569.208	52573.41
569.407	52397.28
569.605	51805.42
569.804	51997.93
570.002	51838.18
570.201	52241.63
570.4	51586.28
570.598	51840.23
570.797	51899.62
570.995	51922.15
571.193	51182.83
571.392	51834.09
571.59	51414.26
571.789	51522.8
571.987	51408.11
572.186	51182.83
572.384	50734.33
572.582	51225.84
572.781	51127.54
572.979	50527.49
573.177	51086.58
573.376	51119.35
573.574	50554.11
573.772	50707.71
573.971	50605.31
574.169	50283.78
574.367	50144.51
574.565	50631.93
574.763	50191.62
574.962	49868.04
575.16	49886.47
575.358	50257.15
575.556	49573.13
575.754	49995.01
575.952	49282.32
576.151	49661.19
576.349	49296.66
576.547	49542.41
576.745	48907.54
576.943	49270.03
577.141	49315.09
577.339	49378.57
577.537	48983.32
577.735	48915.73
577.933	48600.35
578.131	48768.28
578.329	48215.33
578.527	48260.38
578.725	48235.81
578.923	48577.82
579.121	48174.37
579.319	48211.23
579.516	47889.7
579.714	47629.61
579.912	47797.54
580.11	47834.41
580.308	48280.86
580.506	47314.22
580.704	47127.86
580.901	47301.93
581.099	47650.09
581.297	47154.48
581.495	46898.48
581.692	47136.05
581.89	46906.68
582.088	46949.68
582.285	46464.31
582.483	46533.95
582.681	46767.41
582.878	46071.1
583.076	45980.99
583.274	46636.34
583.471	45595.98
583.669	46007.62
583.866	45696.33
584.064	46251.33
584.262	45180.24
584.459	45919.56
584.657	45217.1
584.854	45591.88
585.052	45034.83
585.249	45643.08
585.447	45024.59
585.644	44447.07
585.841	44823.89
586.039	45143.38
586.236	44475.74
586.434	44631.38
586.631	44260.7
586.828	44707.16
587.026	44320.09
587.223	44471.64
587.42	44316
587.618	44027.23
587.815	43482.47
588.012	43640.17
588.21	43418.99
588.407	43892.07
588.604	43566.44
588.801	43251.05
588.999	43119.98
589.196	43175.28
589.393	42997.1
589.59	43197.8
589.787	42538.36
589.984	42550.65
590.182	42423.67
590.379	42712.44
590.576	42388.86
590.773	42128.77
590.97	42055.04
591.167	42272.12
591.364	41690.5
591.561	41569.67
591.758	41346.44
591.955	41422.22
592.152	41739.65
592.349	41129.36
592.546	41076.11
592.743	41639.3
592.94	41108.88
593.137	40770.96
593.334	41448.84
593.531	40263.07
593.727	40994.19
593.924	40605.08
594.121	40170.91
594.318	40506.77
594.515	39505.32
594.712	40152.48
594.908	39835.04
595.105	40181.15
595.302	39476.65
595.499	40072.6
595.696	39734.69
595.892	39462.31
596.089	39341.48
596.286	39636.39
596.482	38913.45
596.679	39077.29
596.876	39257.51
597.072	38772.14
597.269	38925.74
597.466	38471.09
597.662	38374.84
597.859	38460.85
598.055	38221.24
598.252	38167.99
598.448	38227.38
598.645	37866.94
598.841	37696.96
599.038	37656
599.234	37739.97
599.431	37098.95
599.627	37191.11
599.824	37563.84
600.02	37121.48
600.217	37490.12
600.413	37158.35
600.609	36855.25
600.806	36683.22
601.002	37127.63
601.198	36576.72
601.395	36062.68
601.591	36754.9
601.787	36603.35
601.984	35896.8
602.18	36318.68
602.376	35771.87
602.572	35775.97
602.769	35991
602.965	35651.04
603.161	35454.43
603.357	35255.78
603.553	35362.28
603.75	35507.68
603.946	35077.61
604.142	35128.81
604.338	34715.12
604.534	35268.07
604.73	34495.99
604.926	35016.17
605.122	34620.91
605.318	34731.5
605.514	34237.94
605.71	34354.68
605.906	34125.3
606.102	34227.7
606.298	34438.64
606.494	34164.21
606.69	34037.24
606.886	33893.88
607.082	33625.6
607.278	34059.77
607.474	33109.51
607.67	33857.02
607.866	32939.53
608.062	33519.1
608.257	33428.99
608.453	33146.37
608.649	33312.26
608.845	33025.54
609.041	32976.39
609.236	33193.48
609.432	32900.62
609.628	33089.03
609.824	32736.78
610.019	33072.65
610.215	32683.53
610.411	32671.25
610.606	32488.98
610.802	32761.36
610.998	32550.42
611.193	32437.78
611.389	32460.3
611.584	32171.54
611.78	32142.87
611.976	32448.02
612.171	32282.13
612.367	32024.09
612.562	32206.36
612.758	31327.78
612.953	31647.26
613.149	32198.16
613.344	31901.21
613.539	32196.12
613.735	31772.19
613.93	31907.35
614.126	31376.93
614.321	31952.41
614.517	31426.08
614.712	31604.25
614.907	31000.1
615.103	31807
615.298	31344.16
615.493	31505.95
615.688	30840.36
615.884	31231.52
616.079	30832.17
616.274	31286.82
616.47	30678.57
616.665	30772.78
616.86	30658.09
617.055	30649.9
617.25	30434.86
617.445	30684.72
617.641	30383.66
617.836	30930.47
618.031	29943.35
618.226	30451.25
618.421	30160.44
618.616	30651.95
618.811	29689.4
619.006	30338.61
619.201	29396.54
619.396	29830.71
619.591	29257.28
619.786	29632.06
619.981	29189.7
620.176	29605.44
620.371	28642.89
620.566	29081.16
620.761	29015.62
620.956	28767.82
621.151	28646.99
621.346	28773.96
621.541	28431.95
621.735	28642.89
621.93	27835.99
622.125	28053.08
622.32	27663.96
622.515	27854.42
622.709	27709.02
622.904	27438.69
623.099	27106.91
623.294	27403.87
623.488	27162.21
623.683	26951.27
623.878	26947.17
624.072	26842.73
624.267	26719.85
624.462	26416.75
624.656	26177.14
624.851	26136.18
625.046	25679.48
625.24	25919.09
625.435	25337.47
625.629	25775.73
625.824	25366.14
626.018	25386.62
626.213	25155.2
626.407	24964.74
626.602	24655.5
626.796	25271.93
626.991	24835.72
627.185	24530.57
627.38	24161.94
627.574	24295.05
627.768	24106.64
627.963	24053.39
628.157	23922.32
628.352	23940.75
628.546	23606.94
628.74	23666.33
628.935	23410.33
629.129	23469.72
629.323	23078.56
629.517	23013.02
629.712	22990.5
629.906	22736.55
630.1	22398.63
630.294	22890.15
630.489	22316.72
630.683	22496.94
630.877	22144.69
631.071	21935.79
631.265	22105.77
631.459	21595.83
631.653	21690.04
631.848	21794.48
632.042	21448.38
632.236	21569.21
632.43	21341.88
632.624	21360.31
632.818	20979.39
633.012	20973.25
633.206	20840.13
633.4	20823.75
633.594	20725.44
633.788	20795.07
633.982	20696.77
634.176	20612.81
634.369	20369.1
634.563	20387.53
634.757	20266.7
634.951	20121.29
635.145	19859.15
635.339	20027.09
635.533	19607.25
635.726	19517.14
635.92	19523.29
636.114	19228.38
636.308	19238.62
636.501	19410.65
636.695	18927.33
636.889	18869.98
637.083	18876.13
637.276	18857.7
637.47	18652.9
637.664	18439.91
637.857	18499.3
638.051	18280.17
638.244	18441.96
638.438	18194.15
638.632	17993.45
638.825	18024.17
639.019	18185.96
639.212	17942.25
639.406	17934.06
639.599	17508.08
639.793	17665.78
639.986	17620.72
640.18	17618.68
640.373	17411.83
640.567	16926.46
640.76	17399.54
640.954	16828.16
641.147	16901.89
641.34	16901.89
641.534	16725.76
641.727	16738.05
641.92	16852.73
642.114	16590.59
642.307	16588.55
642.5	16381.7
642.694	16056.08
642.887	16115.47
643.08	16396.04
643.273	16234.25
643.467	16183.05
643.66	15828.75
643.853	15982.35
644.046	15660.82
644.239	15564.56
644.432	15537.94
644.626	15456.02
644.819	15466.26
645.012	15521.56
645.205	15474.45
645.398	15228.7
645.591	15208.22
645.784	15068.95
645.977	15023.9
646.17	15109.91
646.363	14950.17
646.556	14473
646.749	14706.46
646.942	14810.91
647.135	14585.63
647.328	14180.14
647.521	14362.4
647.714	14135.08
647.907	14241.57
648.099	14153.51
648.292	14077.74
648.485	14049.07
648.678	13821.74
648.871	13815.6
649.064	13643.57
649.256	13680.43
649.449	13813.55
649.642	13463.35
649.835	13608.75
650.027	13424.44
650.22	13383.48
650.413	13303.6
650.605	13416.24
650.798	13240.12
650.991	13100.86
651.183	13117.24
651.376	13004.6
651.568	12951.35
651.761	12889.92
651.954	12977.98
652.146	12662.59
652.339	12623.68
652.531	12668.73
652.724	12527.42
652.916	12406.59
653.109	12382.02
653.301	12437.31
653.494	12289.86
653.686	12062.54
653.879	12068.68
654.071	11999.05
654.263	11829.07
654.456	12060.49
654.648	11994.95
654.84	11583.31
655.033	11652.94
655.225	11652.94
655.417	11427.67
655.61	11675.47
655.802	11413.33
655.994	11417.43
656.186	11333.46
656.379	11417.43
656.571	11200.34
656.763	11255.64
656.955	11063.13
657.148	11179.86
657.34	11179.86
657.532	10768.22
657.724	10882.91
657.916	11018.07
658.108	10786.65
658.3	10850.14
658.492	10651.49
658.684	10477.41
658.876	10696.54
659.068	10686.3
659.26	10383.2
659.452	10409.83
659.644	10360.67
659.836	10178.4
660.028	10375.01
660.22	10237.8
660.412	10108.77
660.604	9992.04
660.796	10155.88
660.988	10041.19
661.18	9957.22
661.372	9908.07
661.563	9740.14
661.755	9684.84
661.947	9738.09
662.139	9744.24
662.331	9607.02
662.522	9561.97
662.714	9486.19
662.906	9518.96
663.097	9559.92
663.289	9291.63
663.481	9115.51
663.673	9367.41
663.864	9312.11
664.056	9303.92
664.247	9105.27
664.439	8992.63
664.631	9035.64
664.822	8994.68
665.014	8959.86
665.205	8753.02
665.397	8781.69
665.588	8863.61
665.78	8986.49
665.971	8810.36
666.163	8808.31
666.354	8691.58
666.546	8679.29
666.737	8511.36
666.929	8523.65
667.12	8337.28
667.311	8382.34
667.503	8357.76
667.694	8515.45
667.885	8357.76
668.077	8243.07
668.268	8126.34
668.459	8023.94
668.651	8314.75
668.842	8263.55
669.033	8169.35
669.224	8087.43
669.416	8062.85
669.607	7929.73
669.798	7833.48
669.989	8140.68
670.18	7831.43
670.371	7995.27
670.563	7729.03
670.754	7788.43
670.945	7722.89
671.136	7690.12
671.327	7702.41
671.518	7534.48
671.709	7561.1
671.9	7434.13
672.091	7475.09
672.282	7577.48
672.473	7501.71
672.664	7380.88
672.855	7344.02
673.046	7473.04
673.237	7470.99
673.428	7161.75
673.619	7399.31
673.809	7182.23
674	7151.51
674.191	7167.89
674.382	7169.94
674.573	7079.83
674.764	6979.48
674.954	7178.13
675.145	6948.76
675.336	7102.36
675.527	6940.57
675.717	6918.04
675.908	6819.74
676.099	6954.9
676.289	6772.63
676.48	6977.43
676.671	6717.34
676.861	6801.3
677.052	6846.36
677.243	6637.47
677.433	6655.9
677.624	6592.41
677.814	6391.71
678.005	6672.28
678.195	6616.99
678.386	6598.56
678.576	6383.52
678.767	6473.63
678.957	6385.57
679.148	6643.61
679.338	6428.57
679.529	6465.44
679.719	6346.66
679.909	6533.02
680.1	6231.97
680.29	6334.37
680.481	6336.42
680.671	6260.64
680.861	6215.59
681.052	6320.03
681.242	6170.53
681.432	6387.61
681.622	6143.91
681.813	6191.01
682.003	6043.56
682.193	6014.88
682.383	6174.63
682.573	5910.44
682.764	6041.51
682.954	6027.17
683.144	6143.91
683.334	6000.55
683.524	5871.53
683.714	5869.48
683.904	5846.95
684.094	5951.4
684.284	5900.2
684.474	5998.5
684.664	5722.02
684.854	5791.66
685.044	5816.23
685.234	5779.37
685.424	5859.24
685.614	5562.28
685.804	5615.53
685.994	5687.21
686.184	5527.47
686.374	5601.19
686.564	5631.91
686.753	5658.54
686.943	5506.99
687.133	5726.12
687.323	5490.6
687.513	5597.1
687.702	5511.08
687.892	5480.36
688.082	5341.1
688.272	5279.66
688.461	5261.23
688.651	5279.66
688.841	5207.98
689.03	5267.38
689.22	5134.26
689.41	5265.33
689.599	5334.96
689.789	5064.63
689.979	5107.63
690.168	5152.69
690.358	5083.06
690.547	5038
690.737	5093.3
690.926	4931.51
691.116	4935.6
691.305	4933.56
691.495	4976.56
691.684	4841.4
691.874	4882.36
692.063	4917.17
692.252	4913.08
692.442	4876.21
692.631	4720.57
692.82	4790.2
693.01	4716.47
693.199	4622.27
693.388	4708.28
693.578	4663.22
693.767	4485.05
693.956	4478.91
694.146	4511.68
694.335	4603.83
694.524	4569.02
694.713	4353.98
694.902	4442.04
695.092	4491.2
695.281	4294.59
695.47	4319.17
695.659	4288.45
695.848	4456.38
696.037	4253.63
696.226	4421.56
696.415	4319.17
696.604	4337.6
696.793	4247.49
696.982	4032.45
697.171	4292.54
697.36	4130.75
697.549	4102.08
697.738	4108.23
697.927	4124.61
698.116	4126.66
698.305	4132.8
698.494	4102.08
698.683	4116.42
698.872	4130.75
699.061	3936.2
699.25	4151.23
699.438	3983.3
699.627	3997.63
699.816	4057.03
700.005	3819.46
700.193	3899.33
700.382	3776.45
700.571	3858.37
700.76	3854.28
700.948	3936.2
701.137	3817.41
701.326	3794.89
701.514	3885
701.703	3885
701.892	3721.16
702.08	3901.38
702.269	3805.13
702.457	3796.93
702.646	3753.93
702.834	3794.89
703.023	3700.68
703.212	3682.25
703.4	3676.1
703.589	3622.86
703.777	3557.32
703.965	3770.31
704.154	3635.14
704.342	3555.27
704.531	3631.05
704.719	3571.66
704.907	3508.17
705.096	3444.68
705.284	3641.29
705.472	3487.69
705.661	3524.55
705.849	3555.27
706.037	3448.78
706.226	3471.31
706.414	3430.35
706.602	3479.5
706.79	3387.34
706.979	3409.87
707.167	3409.87
707.355	3368.91
707.543	3405.77
707.731	3418.06
707.919	3413.96
708.107	3377.1
708.296	3469.26
708.484	3407.82
708.672	3356.62
708.86	3284.94
709.048	3221.45
709.236	3268.56
709.424	3383.24
709.612	3373
709.8	3291.09
709.988	3344.33
710.176	3268.56
710.364	3309.52
710.551	3209.17
710.739	3235.79
710.927	3266.51
711.115	3205.07
711.303	3149.78
711.491	3291.09
711.679	3221.45
711.866	3241.93
712.054	3330
712.242	3043.28
712.43	3217.36
712.617	3162.06
712.805	3147.73
712.993	3282.89
713.181	3149.78
713.368	3196.88
713.556	3076.05
713.744	3088.34
713.931	3143.63
714.119	3190.74
714.306	3162.06
714.494	3094.48
714.682	3213.26
714.869	3110.86
715.057	3065.81
715.244	2963.41
715.432	3069.91
715.619	3207.12
715.807	3069.91
715.994	3225.55
716.182	3121.1
716.369	3074
716.556	3207.12
716.744	3133.39
716.931	3024.85
717.119	3145.68
717.306	2990.03
717.493	3026.9
717.681	3033.04
717.868	3026.9
718.055	3086.29
718.242	3030.99
718.43	2944.98
718.617	3020.75
718.804	3112.91
718.991	3069.91
719.179	3022.8
719.366	3014.61
719.553	3074
719.74	2987.99
719.927	2969.55
720.114	2949.07
720.301	2975.7
720.488	3039.19
720.676	2953.17
720.863	2983.89
721.05	2947.03
721.237	2850.77
721.424	2994.13
721.611	2994.13
721.798	2926.55
721.985	2965.46
722.172	2871.25
722.358	2942.93
722.545	2938.84
722.732	2865.11
722.919	3074
723.106	3016.66
723.293	3035.09
723.48	3004.37
723.667	2963.41
723.853	2906.07
724.04	2985.94
724.227	3012.56
724.414	3010.51
724.6	2940.88
724.787	3014.61
724.974	2838.48
725.161	2842.58
725.347	2854.87
725.534	3030.99
725.72	2895.83
725.907	3016.66
726.094	3033.04
726.28	2883.54
726.467	2947.03
726.653	2879.44
726.84	2983.89
727.027	2926.55
727.213	2947.03
727.4	2924.5
727.586	2971.6
727.773	2959.31
727.959	3010.51
728.145	2994.13
728.332	2842.58
728.518	2863.06
728.705	2856.92
728.891	2981.84
729.077	3000.27
729.264	2891.73
729.45	2932.69
729.636	3039.19
729.823	3057.62
730.009	2926.55
730.195	2981.84
730.382	2940.88
730.568	2938.84
730.754	2975.7
730.94	2928.6
731.126	2953.17
731.313	3065.81
731.499	3002.32
731.685	3051.47
731.871	3006.42
732.057	3100.62
732.243	3049.43
732.429	2932.69
732.615	3016.66
732.801	2992.08
732.987	3213.26
733.173	3063.76
733.359	3090.38
733.545	3010.51
733.731	2914.26
733.917	2983.89
734.103	3084.24
734.289	2959.31
734.475	3035.09
734.661	3149.78
734.847	3024.85
735.033	2992.08
735.219	2961.36
735.404	3104.72
735.59	3098.58
735.776	2985.94
735.962	3117.01
736.148	3020.75
736.333	3051.47
736.519	3147.73
736.705	3020.75
736.89	3117.01
737.076	3100.62
737.262	3110.86
737.447	2942.93
737.633	3051.47
737.819	3147.73
738.004	3047.38
738.19	3014.61
738.375	2990.03
738.561	2987.99
738.747	3147.73
738.932	3088.34
739.118	2996.18
739.303	3006.42
739.489	3098.58
739.674	3053.52
739.859	2897.88
740.045	2973.65
740.23	3074
740.416	2867.16
740.601	2983.89
740.786	2985.94
740.972	3028.95
741.157	3106.77
741.342	2944.98
741.528	2963.41
741.713	3010.51
741.898	2944.98
742.084	2967.51
742.269	2971.6
742.454	2928.6
742.639	3071.95
742.824	2965.46
743.01	3020.75
743.195	2977.75
743.38	3047.38
743.565	2920.4
743.75	2889.68
743.935	3008.47
744.12	3037.14
744.305	2783.19
744.49	2953.17
744.675	3121.1
744.86	2918.36
745.045	2973.65
745.23	2975.7
745.415	2914.26
745.6	2883.54
745.785	2846.68
745.97	2770.9
746.155	2867.16
746.34	2811.86
746.525	2848.72
746.71	2873.3
746.895	2793.43
747.079	2783.19
747.264	2846.68
747.449	2836.44
747.634	2863.06
747.819	2688.98
748.003	2641.88
748.188	2607.06
748.373	2666.46
748.557	2781.14
748.742	2670.55
748.927	2680.79
749.111	2643.93
749.296	2645.98
749.481	2766.81
749.665	2713.56
749.85	2719.7
750.034	2680.79
750.219	2523.1
750.404	2639.83
750.588	2615.26
750.773	2443.23
750.957	2664.41
751.141	2568.15
751.326	2539.48
751.51	2519
751.695	2535.39
751.879	2465.75
752.064	2459.61
752.248	2490.33
752.432	2506.71
752.617	2439.13
752.801	2525.15
752.985	2471.9
753.17	2326.49
753.354	2430.94
753.538	2375.64
753.722	2357.21
753.907	2330.59
754.091	2445.27
754.275	2283.49
754.459	2365.4
754.643	2316.25
754.828	2277.34
755.012	2271.2
755.196	2205.66
755.38	2179.04
755.564	2308.06
755.748	2111.46
755.932	2246.62
756.116	2129.89
756.3	2301.92
756.484	2142.18
756.668	2258.91
756.852	2160.61
757.036	2170.85
757.22	2041.82
757.404	2160.61
757.588	2207.71
757.772	2154.46
757.956	2054.11
758.14	2074.59
758.323	1910.75
758.507	2123.74
758.691	2056.16
758.875	1941.47
759.059	1968.1
759.242	2054.11
759.426	1884.13
759.61	1992.67
759.794	1988.58
759.977	1980.39
760.161	1890.28
760.345	1861.6
760.528	1861.6
760.712	1939.43
760.895	1896.42
761.079	1890.28
761.263	1845.22
761.446	1861.6
761.63	1988.58
761.813	1865.7
761.997	1816.55
762.18	1882.08
762.364	1853.41
762.547	1796.07
762.731	1767.4
762.914	1820.64
763.098	1857.51
763.281	1798.12
763.464	1757.16
763.648	1802.21
763.831	1816.55
764.015	1710.05
764.198	1832.93
764.381	1845.22
764.564	1722.34
764.748	1765.35
764.931	1685.48
765.114	1830.88
765.297	1697.77
765.481	1691.62
765.664	1689.57
765.847	1742.82
766.03	1687.53
766.213	1642.47
766.397	1718.25
766.58	1667.05
766.763	1648.61
766.946	1615.85
767.129	1613.8
767.312	1630.18
767.495	1642.47
767.678	1533.93
767.861	1503.21
768.044	1591.27
768.227	1640.42
768.41	1585.13
768.593	1574.89
768.776	1621.99
768.959	1519.59
769.142	1570.79
769.324	1628.14
769.507	1589.22
769.69	1542.12
769.873	1478.63
770.056	1509.35
770.239	1589.22
770.421	1611.75
770.604	1503.21
770.787	1511.4
770.97	1482.73
771.152	1413.1
771.335	1503.21
771.518	1378.28
771.7	1492.97
771.883	1499.11
772.066	1423.34
772.248	1404.91
772.431	1464.3
772.613	1429.48
772.796	1435.63
772.978	1361.9
773.161	1474.54
773.343	1398.76
773.526	1492.97
773.708	1382.38
773.891	1271.79
774.073	1384.43
774.256	1296.36
774.438	1347.56
774.621	1361.9
774.803	1329.13
774.985	1318.89
775.168	1337.32
775.35	1406.95
775.532	1308.65
775.715	1228.78
775.897	1263.6
776.079	1224.69
776.261	1378.28
776.444	1304.56
776.626	1263.6
776.808	1120.24
776.99	1206.25
777.173	1142.77
777.355	1183.73
777.537	1253.36
777.719	1239.02
777.901	1101.81
778.083	1144.81
778.265	1118.19
778.447	1175.53
778.629	1081.33
778.811	1140.72
778.993	1159.15
779.175	1142.77
779.357	1081.33
779.539	989.17
779.721	1042.42
779.903	1153.01
780.085	1069.04
780.267	989.17
780.449	1034.22
780.631	1015.79
780.812	976.88
780.994	1075.18
781.176	950.26
781.358	1060.85
781.54	1118.19
781.721	995.31
781.903	1015.79
782.085	821.24
782.267	980.98
782.448	870.39
782.63	948.21
782.812	880.63
782.993	976.88
783.175	888.82
783.357	798.71
783.538	901.11
783.72	888.82
783.901	739.32
784.083	755.7
784.264	866.29
784.446	872.43
784.627	784.37
784.809	811
784.99	811
785.172	796.66
785.353	794.61
785.535	714.74
785.716	815.09
785.897	704.5
786.079	794.61
786.26	688.12
786.441	808.95
786.623	845.81
786.804	772.08
786.985	608.25
787.167	794.61
787.348	774.13
787.529	735.22
787.71	708.6
787.891	788.47
788.073	735.22
788.254	686.07
788.435	663.54
788.616	673.78
788.797	753.65
788.978	694.26
789.159	661.49
789.34	673.78
789.522	657.4
789.703	647.16
789.884	675.83
790.065	690.17
790.246	657.4
790.427	667.64
790.607	694.26
790.788	561.14
790.969	602.1
791.15	628.73
791.331	604.15
791.512	604.15
791.693	591.86
791.874	522.23
792.054	671.73
792.235	571.38
792.416	643.06
792.597	567.29
792.778	649.21
792.958	559.1
793.139	653.3
793.32	632.82
793.5	538.62
793.681	630.77
793.862	540.66
794.042	573.43
794.223	518.14
794.404	598.01
794.584	552.95
794.765	509.94
794.945	569.34
795.126	563.19
795.306	612.34
795.487	485.37
795.667	579.58
795.848	516.09
796.028	466.94
796.209	516.09
796.389	514.04
796.57	557.05
796.75	479.22
796.93	509.94
797.111	468.98
797.291	491.51
797.471	475.13
797.652	438.27
797.832	489.46
798.012	540.66
798.192	421.88
798.373	444.41
798.553	454.65
798.733	606.2
798.913	419.83
799.093	382.97
799.274	403.45
799.454	440.31
799.634	516.09
799.814	466.94
799.994	446.46
800.174	391.16
800.354	378.87
800.534	475.13
800.714	489.46
800.894	462.84
801.074	358.39
801.254	389.11
801.434	432.12
801.614	430.07
801.794	448.51
801.974	1058.8
802.154	393.21
802.334	362.49
802.514	315.39
802.693	385.02
802.873	366.59
803.053	425.98
803.233	385.02
803.413	360.44
803.592	335.87
803.772	313.34
803.952	329.72
804.131	372.73
804.311	460.79
804.491	354.3
804.67	342.01
804.85	292.86
805.03	337.91
805.209	432.12
805.389	305.15
805.568	419.83
805.748	342.01
805.928	346.11
806.107	311.29
806.287	307.2
806.466	374.78
806.646	350.2
806.825	372.73
807.004	286.72
807.184	301.05
807.363	329.72
807.543	303.1
807.722	313.34
807.901	286.72
808.081	323.58
808.26	247.8
808.439	344.06
808.619	276.48
808.798	303.1
808.977	282.62
809.156	286.72
809.336	251.9
809.515	315.39
809.694	235.52
809.873	296.96
810.052	342.01
810.231	337.91
810.411	278.52
810.59	407.55
810.769	352.25
810.948	264.19
811.127	256
811.306	333.82
811.485	282.62
811.664	323.58
811.843	311.29
812.022	268.28
812.201	141.31
812.38	282.62
812.559	290.81
812.737	262.14
812.916	266.24
813.095	260.09
813.274	159.74
813.453	268.28
813.632	305.15
813.811	241.66
813.989	284.67
814.168	202.75
814.347	299
814.526	268.28
814.704	290.81
814.883	344.06
815.062	323.58
815.24	284.67
815.419	225.28
815.598	229.37
815.776	155.65
815.955	229.37
816.133	174.08
816.312	288.76
816.49	237.56
816.669	243.71
816.847	262.14
817.026	311.29
817.204	194.56
817.383	180.22
817.561	114.69
817.74	296.96
817.918	165.89
818.097	231.42
818.275	245.76
818.453	258.04
818.632	184.32
818.81	180.22
818.988	124.93
819.167	270.33
819.345	227.32
819.523	223.23
819.701	245.76
819.879	239.61
820.058	225.28
820.236	266.24
820.414	239.61
820.592	217.08
820.77	155.65
820.948	196.6
821.127	198.65
821.305	278.52
821.483	165.89
821.661	233.47
821.839	225.28
822.017	124.93
822.195	124.93
822.373	249.85
822.551	180.22
822.729	239.61
822.907	202.75
823.085	184.32
823.262	219.13
823.44	145.41
823.618	182.27
823.796	137.21
823.974	124.93
824.152	176.13
824.329	176.13
824.507	180.22
824.685	202.75
824.863	92.16
825.04	172.03
825.218	176.13
825.396	200.7
825.574	172.03
825.751	178.17
825.929	208.89
826.107	178.17
826.284	153.6
826.462	194.56
826.639	53.25
826.817	94.21
826.994	137.21
827.172	116.73
827.349	200.7
827.527	169.98
827.704	167.93
827.882	108.54
828.059	143.36
828.237	157.69
828.414	204.8
828.591	120.83
828.769	194.56
828.946	118.78
829.124	186.37
829.301	96.25
829.478	245.76
829.655	65.53
829.833	139.26
830.01	163.84
830.187	169.98
830.364	114.69
830.542	227.32
830.719	206.84
830.896	94.21
831.073	149.5
831.25	169.98
831.427	135.17
831.604	110.59
831.782	102.4
831.959	108.54
832.136	75.77
832.313	98.3
832.49	143.36
832.667	112.64
832.844	118.78
833.021	174.08
833.198	116.73
833.374	67.58
833.551	124.93
833.728	116.73
833.905	110.59
834.082	51.2
834.259	163.84
834.436	153.6
834.612	153.6
834.789	139.26
834.966	98.3
835.143	153.6
835.319	126.97
835.496	75.77
835.673	104.45
835.85	135.17
836.026	120.83
836.203	79.87
836.38	112.64
836.556	106.49
836.733	67.58
836.909	176.13
837.086	75.77
837.262	157.69
837.439	51.2
837.616	34.82
837.792	81.92
837.968	139.26
838.145	96.25
838.321	143.36
838.498	96.25
838.674	102.4
838.851	73.73
839.027	122.88
839.203	77.82
839.38	112.64
839.556	88.06
839.732	124.93
839.909	71.68
840.085	73.73
840.261	-4.1
840.437	110.59
840.614	92.16
840.79	104.45
840.966	188.41
841.142	176.13
841.318	61.44
841.494	122.88
841.671	149.5
841.847	83.97
842.023	75.77
842.199	118.78
842.375	172.03
842.551	45.06
842.727	12.29
842.903	169.98
843.079	40.96
843.255	90.11
843.431	118.78
843.607	124.93
843.783	69.63
843.959	102.4
844.134	55.3
844.31	151.55
844.486	8.19
844.662	26.62
844.838	71.68
845.013	69.63
845.189	98.3
845.365	-2.05
845.541	59.39
845.716	126.97
845.892	77.82
846.068	112.64
846.244	-16.38
846.419	88.06
846.595	83.97
846.77	26.62
846.946	71.68
847.122	90.11
847.297	110.59
847.473	135.17
847.648	-0
847.824	24.58
847.999	47.1
848.175	116.73
848.35	65.53
848.526	90.11
848.701	83.97
848.876	55.3
849.052	114.69
849.227	51.2
849.403	79.87
849.578	51.2
849.753	40.96
849.929	114.69
850.104	-18.43
850.279	45.06
850.454	141.31
850.63	114.69
850.805	69.63
850.98	10.24
851.155	94.21
851.33	-0
851.505	38.91
851.681	92.16
851.856	-32.77
852.031	192.51
852.206	118.78
852.381	10.24
852.556	-2.05
852.731	100.35
852.906	88.06
853.081	139.26
853.256	47.1
853.431	12.29
853.606	71.68
853.781	36.86
853.956	26.62
854.131	59.39
854.305	-0
854.48	43.01
854.655	12.29
854.83	63.49
855.005	-6.14
855.18	49.15
855.354	8.19
855.529	100.35
855.704	92.16
855.879	153.6
856.053	51.2
856.228	81.92
856.403	-32.77
856.577	112.64
856.752	38.91
856.926	43.01
857.101	47.1
857.276	-40.96
857.45	36.86
857.625	4.1
857.799	81.92
857.974	75.77
858.148	34.82
858.323	77.82
858.497	28.67
858.672	34.82
858.846	2.05
859.02	79.87
859.195	-12.29
859.369	2.05
859.543	139.26
859.718	92.16
859.892	73.73
860.066	118.78
860.241	-12.29
860.415	34.82
860.589	20.48
860.763	-26.62
860.938	34.82
861.112	51.2
861.286	6.14
861.46	32.77
861.634	49.15
861.808	98.3
861.982	-16.38
862.157	12.29
862.331	24.58
862.505	-32.77
862.679	-24.58
862.853	40.96
863.027	4.1
863.201	12.29
863.375	51.2
863.549	-18.43
863.722	67.58
863.896	43.01
864.07	-6.14
864.244	24.58
864.418	22.53
864.592	65.53
864.766	-4.1
864.939	34.82
865.113	67.58
865.287	79.87
865.461	30.72
865.634	43.01
865.808	12.29
865.982	20.48
866.156	61.44
866.329	4.1
866.503	24.58
866.676	77.82
866.85	4.1
867.024	-67.58
867.197	22.53
867.371	69.63
867.544	45.06
867.718	40.96
867.891	-12.29
868.065	12.29
868.238	-10.24
868.412	110.59
868.585	-10.24
868.759	22.53
868.932	18.43
869.105	-18.43
869.279	49.15
869.452	45.06
869.625	16.38
869.799	22.53
869.972	-45.06
870.145	4.1
870.319	22.53
870.492	2.05
870.665	14.34
870.838	63.49
871.011	61.44
871.185	36.86
871.358	40.96
871.531	45.06
871.704	40.96
871.877	73.73
872.05	-10.24
872.223	77.82
872.396	-4.1
872.569	16.38
872.742	-43.01
872.915	40.96
873.088	18.43
873.261	-20.48
873.434	-6.14
873.607	-24.58
873.78	-20.48
873.953	-63.49
874.126	26.62
874.299	-28.67
874.471	-4.1
874.644	-12.29
874.817	40.96
874.99	57.34
875.163	28.67
875.335	61.44
875.508	71.68
875.681	-28.67
875.853	-18.43
876.026	-6.14
876.199	73.73
876.371	22.53
876.544	55.3
876.717	-28.67
876.889	-34.82
877.062	71.68
877.234	-36.86
877.407	18.43
877.579	65.53
877.752	-20.48
877.924	65.53
878.097	40.96
878.269	57.34
878.442	38.91
878.614	112.64
878.786	2.05
878.959	53.25
879.131	55.3
879.303	-57.34
879.476	47.1
879.648	34.82
879.82	77.82
879.993	-26.62
880.165	-24.58
880.337	-77.82
880.509	18.43
880.681	-0
880.854	-4.1
881.026	10.24
881.198	71.68
881.37	-8.19
881.542	77.82
881.714	6.14
881.886	26.62
882.058	14.34
882.23	61.44
882.402	-47.1
882.574	73.73
882.746	6.14
882.918	61.44
883.09	-0
883.262	45.06
883.434	-55.3
883.606	14.34
883.778	-8.19
883.95	10.24
884.122	12.29
884.293	26.62
884.465	6.14
884.637	6.14
884.809	-12.29
884.98	28.67
885.152	-20.48
885.324	53.25
885.496	-57.34
885.667	-16.38
885.839	-16.38
886.011	141.31
886.182	69.63
886.354	49.15
886.525	-16.38
886.697	14.34
886.869	-4.1
887.04	-4.1
887.212	36.86
887.383	79.87
887.555	26.62
887.726	-22.53
887.897	4.1
888.069	92.16
888.24	-57.34
888.412	-8.19
888.583	-18.43
888.754	-32.77
888.926	14.34
889.097	-38.91
889.268	-40.96
889.44	55.3
889.611	-51.2
889.782	-8.19
889.953	-30.72
890.125	43.01
890.296	40.96
890.467	-36.86
890.638	-8.19
890.809	-14.34
890.98	-28.67
891.151	14.34
891.323	32.77
891.494	-24.58
891.665	-14.34
891.836	-12.29
892.007	53.25
892.178	-28.67
892.349	61.44
892.52	10.24
892.691	-10.24
892.862	8.19
893.032	18.43
893.203	18.43
893.374	-12.29
893.545	40.96
893.716	2.05
893.887	-10.24
894.057	-20.48
894.228	-14.34
894.399	-14.34
894.57	67.58
894.74	-65.54
894.911	38.91
895.082	-20.48
895.253	-34.82
895.423	-43.01
895.594	43.01
895.764	-0
895.935	-30.72
896.106	67.58
896.276	75.77
896.447	83.97
896.617	-6.14
896.788	-45.06
896.958	-59.39
897.129	-2.05
897.299	-10.24
897.47	65.53
897.64	65.53
897.81	-12.29
897.981	-16.38
898.151	-51.2
898.322	-6.14
898.492	34.82
898.662	-6.14
898.832	-40.96
899.003	65.53
899.173	47.1
899.343	-61.44
899.513	-26.62
