Data from USB4F104151__3__12-40-52-168.txt Node

Date: Fri Mar 14 12:40:52 EDT 2025
User: louis
Spectrometer: USB4F10415
Trigger mode: 4
Integration Time (sec): 3.000000E-2
Scans to average: 1
Electric dark correction enabled: true
Nonlinearity correction enabled: false
Boxcar width: 0
XAxis mode: Wavelengths
Number of Pixels in Spectrum: 3648
>>>>>Begin Spectral Data<<<<<
178.204	-86.7
178.424	-86.7
178.644	-86.7
178.864	-58.03
179.084	-51.88
179.304	13.65
179.524	95.57
179.744	-33.45
179.964	-23.21
180.184	-10.92
180.404	17.75
180.624	-39.59
180.844	46.42
181.064	-58.03
181.283	52.56
181.503	-80.55
181.723	19.8
181.943	3.41
182.163	-6.83
182.383	30.04
182.602	120.15
182.822	95.57
183.042	-33.45
183.262	-15.02
183.482	60.76
183.701	1.37
183.921	27.99
184.141	81.24
184.361	99.67
184.58	23.89
184.8	56.66
185.02	54.61
185.239	48.47
185.459	64.85
185.679	50.52
185.898	-21.16
186.118	97.62
186.338	109.91
186.557	50.52
186.777	62.8
186.997	15.7
187.216	46.42
187.436	73.04
187.655	124.24
187.875	73.04
188.095	7.51
188.314	50.52
188.534	54.61
188.753	15.7
188.973	142.68
189.192	54.61
189.412	44.37
189.631	15.7
189.851	25.94
190.07	81.24
190.29	-0.68
190.509	32.08
190.729	-4.78
190.948	60.76
191.168	111.96
191.387	42.32
191.607	-51.88
191.826	11.61
192.045	95.57
192.265	99.67
192.484	-4.78
192.704	30.04
192.923	52.56
193.142	87.38
193.362	38.23
193.581	163.15
193.8	40.28
194.02	38.23
194.239	1.37
194.458	44.37
194.678	38.23
194.897	3.41
195.116	54.61
195.335	62.8
195.555	48.47
195.774	-88.75
195.993	60.76
196.212	13.65
196.432	25.94
196.651	-4.78
196.87	60.76
197.089	79.19
197.308	75.09
197.528	-4.78
197.747	17.75
197.966	3.41
198.185	83.28
198.404	44.37
198.623	46.42
198.842	48.47
199.062	32.08
199.281	103.76
199.5	48.47
199.719	64.85
199.938	66.9
200.157	48.47
200.376	87.38
200.595	44.37
200.814	11.61
201.033	-74.41
201.252	44.37
201.471	21.85
201.69	66.9
201.909	36.18
202.128	25.94
202.347	103.76
202.566	73.04
202.785	34.13
203.004	146.77
203.223	93.52
203.442	7.51
203.661	-15.02
203.879	-53.93
204.098	124.24
204.317	3.41
204.536	109.91
204.755	134.48
204.974	77.14
205.193	109.91
205.411	148.82
205.63	132.44
205.849	48.47
206.068	1.37
206.287	1.37
206.505	46.42
206.724	-2.73
206.943	27.99
207.162	46.42
207.381	23.89
207.599	124.24
207.818	34.13
208.037	93.52
208.255	60.76
208.474	52.56
208.693	19.8
208.911	1.37
209.13	75.09
209.349	34.13
209.567	56.66
209.786	77.14
210.005	73.04
210.223	50.52
210.442	52.56
210.661	-2.73
210.879	-12.97
211.098	30.04
211.316	42.32
211.535	32.08
211.753	75.09
211.972	83.28
212.191	34.13
212.409	64.85
212.628	52.56
212.846	-39.59
213.065	140.63
213.283	34.13
213.502	30.04
213.72	30.04
213.938	-17.07
214.157	50.52
214.375	-10.92
214.594	17.75
214.812	87.38
215.031	52.56
215.249	50.52
215.467	91.48
215.686	85.33
215.904	103.76
216.122	79.19
216.341	34.13
216.559	126.29
216.778	64.85
216.996	93.52
217.214	99.67
217.432	77.14
217.651	13.65
217.869	21.85
218.087	101.72
218.306	-31.4
218.524	50.52
218.742	109.91
218.96	66.9
219.179	-21.16
219.397	13.65
219.615	52.56
219.833	81.24
220.051	-4.78
220.27	99.67
220.488	21.85
220.706	68.95
220.924	38.23
221.142	66.9
221.36	81.24
221.578	64.85
221.796	48.47
222.015	73.04
222.233	54.61
222.451	36.18
222.669	3.41
222.887	52.56
223.105	116.05
223.323	32.08
223.541	-4.78
223.759	-74.41
223.977	58.71
224.195	111.96
224.413	58.71
224.631	32.08
224.849	7.51
225.067	126.29
225.285	36.18
225.503	44.37
225.721	-31.4
225.939	15.7
226.157	34.13
226.375	130.39
226.592	36.18
226.81	56.66
227.028	130.39
227.246	103.76
227.464	5.46
227.682	89.43
227.9	25.94
228.117	66.9
228.335	62.8
228.553	9.56
228.771	7.51
228.989	101.72
229.206	64.85
229.424	-21.16
229.642	9.56
229.86	36.18
230.077	36.18
230.295	83.28
230.513	77.14
230.731	111.96
230.948	-21.16
231.166	-43.69
231.384	15.7
231.601	1.37
231.819	136.53
232.037	21.85
232.254	-15.02
232.472	30.04
232.689	9.56
232.907	54.61
233.125	42.32
233.342	15.7
233.56	64.85
233.777	5.46
233.995	36.18
234.213	54.61
234.43	114
234.648	25.94
234.865	30.04
235.083	34.13
235.3	56.66
235.518	52.56
235.735	-4.78
235.953	44.37
236.17	54.61
236.388	44.37
236.605	64.85
236.822	27.99
237.04	34.13
237.257	11.61
237.475	-45.74
237.692	-43.69
237.909	75.09
238.127	52.56
238.344	30.04
238.562	60.76
238.779	30.04
238.996	77.14
239.214	56.66
239.431	62.8
239.648	-45.74
239.865	83.28
240.083	32.08
240.3	71
240.517	34.13
240.735	64.85
240.952	97.62
241.169	15.7
241.386	68.95
241.603	17.75
241.821	-12.97
242.038	77.14
242.255	3.41
242.472	109.91
242.689	107.86
242.907	81.24
243.124	44.37
243.341	66.9
243.558	54.61
243.775	11.61
243.992	48.47
244.209	23.89
244.426	81.24
244.643	83.28
244.86	87.38
245.078	1.37
245.295	36.18
245.512	15.7
245.729	-17.07
245.946	34.13
246.163	73.04
246.38	99.67
246.597	1.37
246.814	107.86
247.031	81.24
247.248	68.95
247.464	66.9
247.681	17.75
247.898	25.94
248.115	17.75
248.332	-6.83
248.549	111.96
248.766	109.91
248.983	118.1
249.2	68.95
249.417	68.95
249.633	17.75
249.85	73.04
250.067	60.76
250.284	58.71
250.501	118.1
250.717	34.13
250.934	-29.35
251.151	52.56
251.368	-12.97
251.585	21.85
251.801	101.72
252.018	44.37
252.235	60.76
252.451	44.37
252.668	-17.07
252.885	38.23
253.102	83.28
253.318	60.76
253.535	11.61
253.752	17.75
253.968	46.42
254.185	-80.55
254.401	-10.92
254.618	91.48
254.835	62.8
255.051	132.44
255.268	122.2
255.484	81.24
255.701	32.08
255.917	124.24
256.134	13.65
256.351	34.13
256.567	-4.78
256.784	7.51
257	-49.83
257.217	107.86
257.433	52.56
257.65	38.23
257.866	25.94
258.082	19.8
258.299	50.52
258.515	126.29
258.732	23.89
258.948	48.47
259.165	-4.78
259.381	38.23
259.597	83.28
259.814	56.66
260.03	87.38
260.246	77.14
260.463	58.71
260.679	36.18
260.895	103.76
261.112	99.67
261.328	-41.64
261.544	11.61
261.761	128.34
261.977	56.66
262.193	30.04
262.409	148.82
262.626	71
262.842	66.9
263.058	-27.31
263.274	1.37
263.49	89.43
263.707	140.63
263.923	91.48
264.139	44.37
264.355	15.7
264.571	52.56
264.787	-15.02
265.004	27.99
265.22	44.37
265.436	107.86
265.652	23.89
265.868	50.52
266.084	17.75
266.3	85.33
266.516	32.08
266.732	91.48
266.948	27.99
267.164	-4.78
267.38	-2.73
267.596	54.61
267.812	7.51
268.028	-0.68
268.244	54.61
268.46	-4.78
268.676	75.09
268.892	93.52
269.108	1.37
269.324	-2.73
269.54	44.37
269.756	50.52
269.972	-37.55
270.188	-2.73
270.403	15.7
270.619	25.94
270.835	134.48
271.051	77.14
271.267	23.89
271.483	60.76
271.698	25.94
271.914	11.61
272.13	107.86
272.346	-55.98
272.562	-31.4
272.777	60.76
272.993	-19.11
273.209	34.13
273.425	81.24
273.64	36.18
273.856	9.56
274.072	79.19
274.287	27.99
274.503	97.62
274.719	15.7
274.934	44.37
275.15	-35.5
275.366	62.8
275.581	9.56
275.797	11.61
276.012	27.99
276.228	66.9
276.444	48.47
276.659	34.13
276.875	95.57
277.09	-2.73
277.306	52.56
277.521	159.06
277.737	71
277.952	134.48
278.168	52.56
278.383	107.86
278.599	50.52
278.814	50.52
279.03	73.04
279.245	73.04
279.461	99.67
279.676	68.95
279.892	73.04
280.107	48.47
280.322	27.99
280.538	109.91
280.753	44.37
280.969	17.75
281.184	54.61
281.399	83.28
281.615	58.71
281.83	77.14
282.045	27.99
282.26	27.99
282.476	42.32
282.691	130.39
282.906	27.99
283.122	-2.73
283.337	19.8
283.552	34.13
283.767	54.61
283.983	48.47
284.198	1.37
284.413	79.19
284.628	-12.97
284.843	34.13
285.058	130.39
285.274	9.56
285.489	44.37
285.704	68.95
285.919	21.85
286.134	77.14
286.349	56.66
286.564	95.57
286.779	79.19
286.995	54.61
287.21	-66.22
287.425	118.1
287.64	58.71
287.855	38.23
288.07	-0.68
288.285	93.52
288.5	171.35
288.715	68.95
288.93	81.24
289.145	42.32
289.36	130.39
289.575	75.09
289.79	58.71
290.004	34.13
290.219	138.58
290.434	44.37
290.649	62.8
290.864	1.37
291.079	19.8
291.294	38.23
291.509	44.37
291.724	116.05
291.938	3.41
292.153	97.62
292.368	85.33
292.583	-0.68
292.798	66.9
293.012	13.65
293.227	42.32
293.442	130.39
293.657	111.96
293.871	58.71
294.086	75.09
294.301	15.7
294.516	103.76
294.73	79.19
294.945	-2.73
295.16	21.85
295.374	50.52
295.589	56.66
295.804	77.14
296.018	30.04
296.233	111.96
296.447	87.38
296.662	27.99
296.877	140.63
297.091	107.86
297.306	60.76
297.52	81.24
297.735	40.28
297.949	68.95
298.164	66.9
298.378	64.85
298.593	5.46
298.807	83.28
299.022	54.61
299.236	68.95
299.451	62.8
299.665	79.19
299.88	11.61
300.094	52.56
300.309	46.42
300.523	152.92
300.737	124.24
300.952	118.1
301.166	52.56
301.381	34.13
301.595	27.99
301.809	-4.78
302.024	9.56
302.238	23.89
302.452	58.71
302.667	38.23
302.881	62.8
303.095	144.72
303.309	36.18
303.524	-2.73
303.738	11.61
303.952	-17.07
304.166	103.76
304.381	38.23
304.595	83.28
304.809	23.89
305.023	93.52
305.237	79.19
305.452	105.81
305.666	32.08
305.88	83.28
306.094	46.42
306.308	103.76
306.522	81.24
306.736	42.32
306.95	81.24
307.164	142.68
307.379	17.75
307.593	-10.92
307.807	89.43
308.021	85.33
308.235	52.56
308.449	56.66
308.663	122.2
308.877	50.52
309.091	101.72
309.305	48.47
309.519	5.46
309.733	83.28
309.947	27.99
310.161	122.2
310.374	-4.78
310.588	81.24
310.802	-0.68
311.016	142.68
311.23	124.24
311.444	36.18
311.658	50.52
311.872	48.47
312.085	128.34
312.299	52.56
312.513	48.47
312.727	21.85
312.941	15.7
313.154	25.94
313.368	66.9
313.582	120.15
313.796	66.9
314.009	71
314.223	23.89
314.437	101.72
314.651	3.41
314.864	66.9
315.078	-15.02
315.292	25.94
315.505	11.61
315.719	25.94
315.933	109.91
316.146	68.95
316.36	38.23
316.573	159.06
316.787	9.56
317.001	34.13
317.214	-23.21
317.428	107.86
317.641	-15.02
317.855	58.71
318.068	87.38
318.282	130.39
318.495	40.28
318.709	42.32
318.922	32.08
319.136	77.14
319.349	71
319.563	9.56
319.776	-29.35
319.99	21.85
320.203	75.09
320.417	64.85
320.63	62.8
320.843	83.28
321.057	56.66
321.27	11.61
321.483	101.72
321.697	73.04
321.91	46.42
322.124	64.85
322.337	40.28
322.55	107.86
322.763	36.18
322.977	58.71
323.19	36.18
323.403	32.08
323.617	1.37
323.83	68.95
324.043	54.61
324.256	73.04
324.469	27.99
324.683	87.38
324.896	-29.35
325.109	23.89
325.322	9.56
325.535	107.86
325.748	17.75
325.962	107.86
326.175	56.66
326.388	68.95
326.601	-6.83
326.814	32.08
327.027	46.42
327.24	148.82
327.453	60.76
327.666	23.89
327.879	25.94
328.092	114
328.305	1.37
328.518	111.96
328.731	-0.68
328.944	56.66
329.157	38.23
329.37	91.48
329.583	154.96
329.796	17.75
330.009	38.23
330.222	-2.73
330.435	11.61
330.648	75.09
330.861	68.95
331.073	66.9
331.286	83.28
331.499	75.09
331.712	50.52
331.925	89.43
332.138	85.33
332.35	52.56
332.563	-6.83
332.776	77.14
332.989	38.23
333.202	13.65
333.414	83.28
333.627	-0.68
333.84	64.85
334.053	25.94
334.265	60.76
334.478	15.7
334.691	85.33
334.903	58.71
335.116	56.66
335.329	68.95
335.541	91.48
335.754	68.95
335.966	83.28
336.179	66.9
336.392	83.28
336.604	44.37
336.817	32.08
337.029	-6.83
337.242	124.24
337.454	52.56
337.667	77.14
337.88	97.62
338.092	36.18
338.305	93.52
338.517	27.99
338.729	15.7
338.942	56.66
339.154	19.8
339.367	97.62
339.579	75.09
339.792	60.76
340.004	73.04
340.217	25.94
340.429	58.71
340.641	-19.11
340.854	38.23
341.066	62.8
341.278	136.53
341.491	97.62
341.703	97.62
341.915	-23.21
342.128	71
342.34	-12.97
342.552	25.94
342.764	128.34
342.977	107.86
343.189	77.14
343.401	60.76
343.613	7.51
343.826	62.8
344.038	36.18
344.25	-0.68
344.462	34.13
344.674	107.86
344.886	109.91
345.099	42.32
345.311	71
345.523	91.48
345.735	87.38
345.947	99.67
346.159	44.37
346.371	54.61
346.583	109.91
346.795	54.61
347.007	60.76
347.219	87.38
347.431	-12.97
347.643	52.56
347.855	25.94
348.067	73.04
348.279	83.28
348.491	93.52
348.703	23.89
348.915	11.61
349.127	85.33
349.339	93.52
349.551	68.95
349.763	83.28
349.975	60.76
350.187	101.72
350.399	116.05
350.61	-4.78
350.822	38.23
351.034	73.04
351.246	99.67
351.458	46.42
351.669	93.52
351.881	97.62
352.093	107.86
352.305	101.72
352.517	7.51
352.728	130.39
352.94	105.81
353.152	73.04
353.363	95.57
353.575	40.28
353.787	120.15
353.999	101.72
354.21	99.67
354.422	25.94
354.633	126.29
354.845	60.76
355.057	7.51
355.268	48.47
355.48	89.43
355.692	107.86
355.903	189.78
356.115	87.38
356.326	44.37
356.538	122.2
356.749	42.32
356.961	120.15
357.172	5.46
357.384	7.51
357.595	134.48
357.807	42.32
358.018	120.15
358.23	75.09
358.441	95.57
358.653	42.32
358.864	97.62
359.075	116.05
359.287	34.13
359.498	124.24
359.709	66.9
359.921	23.89
360.132	75.09
360.344	46.42
360.555	32.08
360.766	-4.78
360.977	107.86
361.189	62.8
361.4	99.67
361.611	75.09
361.823	148.82
362.034	75.09
362.245	60.76
362.456	50.52
362.667	50.52
362.879	54.61
363.09	142.68
363.301	91.48
363.512	77.14
363.723	54.61
363.935	32.08
364.146	134.48
364.357	-2.73
364.568	97.62
364.779	91.48
364.99	81.24
365.201	89.43
365.412	48.47
365.623	75.09
365.834	89.43
366.045	146.77
366.256	54.61
366.467	73.04
366.678	56.66
366.889	85.33
367.1	66.9
367.311	97.62
367.522	77.14
367.733	157.01
367.944	97.62
368.155	30.04
368.366	58.71
368.577	140.63
368.788	30.04
368.999	44.37
369.209	101.72
369.42	54.61
369.631	136.53
369.842	56.66
370.053	132.44
370.264	122.2
370.474	5.46
370.685	167.25
370.896	54.61
371.107	54.61
371.317	107.86
371.528	64.85
371.739	93.52
371.95	111.96
372.16	103.76
372.371	81.24
372.582	91.48
372.792	95.57
373.003	89.43
373.214	97.62
373.424	116.05
373.635	56.66
373.846	38.23
374.056	75.09
374.267	-0.68
374.477	52.56
374.688	81.24
374.898	87.38
375.109	27.99
375.319	73.04
375.53	79.19
375.74	25.94
375.951	34.13
376.161	101.72
376.372	46.42
376.582	60.76
376.793	124.24
377.003	83.28
377.214	101.72
377.424	56.66
377.635	56.66
377.845	56.66
378.055	111.96
378.266	107.86
378.476	68.95
378.686	68.95
378.897	93.52
379.107	87.38
379.317	87.38
379.528	60.76
379.738	66.9
379.948	50.52
380.158	27.99
380.369	89.43
380.579	150.87
380.789	21.85
380.999	79.19
381.21	116.05
381.42	91.48
381.63	-19.11
381.84	3.41
382.05	87.38
382.261	140.63
382.471	107.86
382.681	103.76
382.891	66.9
383.101	109.91
383.311	-2.73
383.521	136.53
383.731	132.44
383.941	107.86
384.151	62.8
384.361	62.8
384.571	93.52
384.781	79.19
384.991	89.43
385.201	114
385.411	85.33
385.621	132.44
385.831	77.14
386.041	56.66
386.251	89.43
386.461	83.28
386.671	128.34
386.881	54.61
387.091	81.24
387.301	93.52
387.511	91.48
387.72	97.62
387.93	42.32
388.14	40.28
388.35	128.34
388.56	130.39
388.769	73.04
388.979	91.48
389.189	75.09
389.399	93.52
389.609	95.57
389.818	77.14
390.028	116.05
390.238	142.68
390.447	99.67
390.657	159.06
390.867	52.56
391.076	34.13
391.286	101.72
391.496	144.72
391.705	154.96
391.915	144.72
392.125	95.57
392.334	52.56
392.544	120.15
392.753	116.05
392.963	19.8
393.172	124.24
393.382	79.19
393.591	116.05
393.801	165.2
394.01	128.34
394.22	83.28
394.429	58.71
394.639	120.15
394.848	138.58
395.058	50.52
395.267	25.94
395.477	101.72
395.686	173.39
395.895	136.53
396.105	191.83
396.314	148.82
396.524	114
396.733	173.39
396.942	157.01
397.152	140.63
397.361	146.77
397.57	81.24
397.78	130.39
397.989	152.92
398.198	124.24
398.407	116.05
398.617	177.49
398.826	79.19
399.035	132.44
399.244	124.24
399.453	142.68
399.663	161.11
399.872	175.44
400.081	99.67
400.29	177.49
400.499	124.24
400.708	114
400.917	114
401.127	150.87
401.336	114
401.545	279.89
401.754	152.92
401.963	165.2
402.172	85.33
402.381	169.3
402.59	140.63
402.799	226.64
403.008	200.02
403.217	161.11
403.426	197.97
403.635	122.2
403.844	189.78
404.053	157.01
404.262	183.63
404.471	202.07
404.68	212.31
404.888	146.77
405.097	159.06
405.306	267.6
405.515	157.01
405.724	187.73
405.933	216.4
406.142	277.84
406.35	210.26
406.559	275.79
406.768	251.22
406.977	296.27
407.185	243.03
407.394	257.36
407.603	245.07
407.812	243.03
408.02	324.94
408.229	216.4
408.438	283.99
408.646	226.64
408.855	251.22
409.064	468.3
409.272	408.91
409.481	353.62
409.69	367.95
409.898	361.81
410.107	441.68
410.315	398.67
410.524	470.35
410.733	468.3
410.941	451.92
411.15	413.01
411.358	492.88
411.567	585.04
411.775	597.32
411.984	539.98
412.192	574.8
412.401	609.61
412.609	529.74
412.818	650.57
413.026	666.96
413.234	722.25
413.443	669
413.651	609.61
413.86	675.15
414.068	861.51
414.276	836.94
414.485	777.55
414.693	869.7
414.901	968.01
415.11	941.38
415.318	914.76
415.526	1021.25
415.734	1011.01
415.943	1099.08
416.151	1049.93
416.359	1142.08
416.567	1168.71
416.776	1244.48
416.984	1260.87
417.192	1328.45
417.4	1318.21
417.608	1391.94
417.817	1312.07
418.025	1400.13
418.233	1572.16
418.441	1447.23
418.649	1523.01
418.857	1727.8
419.065	1623.36
419.273	1678.65
419.481	1830.2
419.689	1840.44
419.897	2051.38
420.105	2043.19
420.313	2061.62
420.521	2161.97
420.729	2186.55
420.937	2217.27
421.145	2387.25
421.353	2448.69
421.561	2563.37
421.769	2542.89
421.977	2792.75
422.185	2549.04
422.393	2800.94
422.601	3065.13
422.809	3022.12
423.017	3069.22
423.224	3128.61
423.432	3335.46
423.64	3351.84
423.848	3446.05
424.056	3345.7
424.263	3687.71
424.471	3697.95
424.679	3814.68
424.887	3982.62
425.094	4158.74
425.302	4095.25
425.51	4222.23
425.718	4398.35
425.925	4537.62
426.133	4721.93
426.341	5027.08
426.548	5102.86
426.756	5205.25
426.964	5262.6
427.171	5604.61
427.379	5825.79
427.586	5762.3
427.794	6022.39
428.001	6366.45
428.209	6593.78
428.417	6425.84
428.624	6882.54
428.832	6862.06
429.039	6823.15
429.247	6814.96
429.454	7572.71
429.662	8107.23
429.869	7466.21
430.076	8211.67
430.284	7802.08
430.491	8277.21
430.699	8619.22
430.906	8641.75
431.114	8723.66
431.321	9094.35
431.528	9315.53
431.736	9987.26
431.943	10355.9
432.15	9954.49
432.358	10212.54
432.565	10482.87
432.772	10396.85
432.979	11125.93
433.187	11226.28
433.394	11205.8
433.601	12332.19
433.808	12160.16
434.016	11973.79
434.223	12579.99
434.43	13368.46
434.637	12797.07
434.844	13812.87
435.052	14374.01
435.259	14240.89
435.466	14255.23
435.673	13950.08
435.88	15150.19
436.087	15879.27
436.294	15973.47
436.501	15752.29
436.708	16143.45
436.915	16385.12
437.122	17128.53
437.329	16856.15
437.537	17546.31
437.743	17790.02
437.95	17632.33
438.157	18789.43
438.364	19389.49
438.571	19246.13
438.778	19364.91
438.985	21238.8
439.192	20290.59
439.399	20952.09
439.606	20415.52
439.813	21595.15
440.02	23090.16
440.227	22627.32
440.433	22260.74
440.64	23081.97
440.847	22973.43
441.054	23684.08
441.261	24855.51
441.467	24675.29
441.674	25140.18
441.881	26356.68
442.088	25879.5
442.294	25818.06
442.501	26497.98
442.708	27192.25
442.914	28140.46
443.121	29250.45
443.328	29027.23
443.534	30778.24
443.741	29854.61
443.948	29457.3
444.154	31490.93
444.361	31140.73
444.568	31572.85
444.774	31654.77
444.981	31869.81
445.187	32633.7
445.394	34169.68
445.6	33727.31
445.807	37143.33
446.013	35412.79
446.22	35943.22
446.426	37557.02
446.633	37442.33
446.839	39084.8
447.046	37274.4
447.252	39906.04
447.459	39764.73
447.665	39506.68
447.871	41394.91
448.078	43078.34
448.284	40915.68
448.491	41833.18
448.697	43530.94
448.903	44405.42
449.11	44516.01
449.316	43676.35
449.522	44399.28
449.728	45757.08
449.935	46025.37
450.141	45759.13
450.347	47067.78
450.553	45697.69
450.76	46312.08
450.966	47805.05
451.172	46949
451.378	48398.96
451.584	47352.45
451.791	48740.97
451.997	48294.52
452.203	49379.94
452.409	49369.7
452.615	49138.28
452.821	47665.79
453.027	46772.88
453.233	49267.3
453.44	47108.74
453.646	48093.82
453.852	47782.52
454.058	49261.16
454.264	47403.65
454.47	48429.68
454.676	47245.96
454.882	48900.72
455.088	44530.35
455.294	45279.91
455.5	45867.67
455.705	46416.53
455.911	44989.09
456.117	44161.72
456.323	43070.15
456.529	41319.13
456.735	42595.02
456.941	41867.99
457.147	41276.13
457.352	39940.85
457.558	39521.02
457.764	39445.24
457.97	38705.93
458.176	38044.43
458.381	37899.03
458.587	36451.11
458.793	36305.71
458.999	34411.34
459.204	36490.02
459.41	35345.21
459.616	33538.9
459.821	33407.83
460.027	33385.3
460.233	32648.04
460.438	30925.69
460.644	31361.91
460.85	29787.02
461.055	29459.35
461.261	29424.53
461.466	27374.52
461.672	26428.35
461.878	28091.3
462.083	26538.94
462.289	25777.1
462.494	25623.5
462.7	24462.3
462.905	24054.76
463.111	24656.86
463.316	24886.23
463.522	24083.43
463.727	24171.49
463.932	24288.23
464.138	23991.27
464.343	24241.12
464.549	23477.23
464.754	24245.22
464.959	23958.5
465.165	23745.51
465.37	22807.55
465.575	22178.82
465.781	23139.32
465.986	23393.26
466.191	22318.08
466.397	22027.27
466.602	20798.49
466.807	21976.07
467.012	21654.54
467.218	21619.72
467.423	21404.69
467.628	21502.99
467.833	22338.56
468.038	21550.09
468.244	20986.9
468.449	22008.84
468.654	21072.92
468.859	21212.18
469.064	21093.4
469.269	20030.5
469.474	20233.25
469.679	20526.11
469.885	20157.47
470.09	20233.25
470.295	20241.44
470.5	19575.85
470.705	19440.68
470.91	19405.87
471.115	18967.6
471.32	19555.37
471.525	19282.99
471.73	18973.75
471.935	18830.39
472.139	18070.59
472.344	18265.15
472.549	18265.15
472.754	18062.4
472.959	17642.57
473.164	17345.61
473.369	17333.32
473.574	17699.91
473.778	17781.83
473.983	17341.52
474.188	17247.31
474.393	16280.67
474.598	16602.2
474.802	16292.96
475.007	16491.61
475.212	16522.33
475.417	15895.65
475.621	15768.68
475.826	15715.43
476.031	15258.73
476.235	15658.09
476.44	15346.8
476.645	15058.03
476.849	15213.68
477.054	15066.22
477.259	14670.97
477.463	14943.35
477.668	14445.69
477.872	14554.23
478.077	14320.76
478.282	14144.64
478.486	14003.33
478.691	13907.07
478.895	13569.16
479.1	13694.08
479.304	13722.76
479.509	13243.53
479.713	13573.25
479.918	13356.17
480.122	13089.93
480.326	13163.66
480.531	12989.58
480.735	13091.98
480.94	12860.56
481.144	13184.14
481.348	12758.16
481.553	12733.59
481.757	12704.92
481.961	12696.72
482.166	12924.05
482.37	12889.23
482.574	12569.75
482.778	12489.88
482.983	12825.75
483.187	12819.6
483.391	12768.4
483.595	12719.25
483.8	12741.78
484.004	12788.88
484.208	12862.61
484.412	12639.38
484.616	12731.54
484.821	12713.11
485.025	12625.04
485.229	12680.34
485.433	12346.52
485.637	12610.71
485.841	12608.66
486.045	12670.1
486.249	12559.51
486.453	12496.02
486.657	12610.71
486.861	12752.02
487.065	12432.54
487.269	12586.13
487.473	12465.3
487.677	12663.96
487.881	12690.58
488.085	12788.88
488.289	12993.68
488.493	12647.57
488.697	12604.57
488.901	12735.64
489.105	12711.06
489.309	12641.43
489.512	12782.74
489.716	12676.24
489.92	12805.27
490.124	12690.58
490.328	13094.03
490.531	12737.68
490.735	12924.05
490.939	13053.07
491.143	12809.36
491.346	12987.54
491.55	13425.8
491.754	13200.52
491.958	13282.44
492.161	13079.69
492.365	13268.11
492.569	13077.65
492.772	13218.96
492.976	13528.2
493.18	13735.04
493.383	13706.37
493.587	13759.62
493.79	13812.87
493.994	13606.02
494.197	13857.92
494.401	13823.11
494.605	14025.86
494.808	14199.93
495.012	14261.37
495.215	14339.19
495.419	14556.28
495.622	14554.23
495.825	14763.12
496.029	14732.4
496.232	15117.42
496.436	14972.02
496.639	15207.53
496.843	15346.8
497.046	15318.12
497.249	15660.13
497.453	15662.18
497.656	15881.32
497.859	15967.33
498.063	16039.01
498.266	16342.11
498.469	16254.05
498.673	16407.64
498.876	16600.15
499.079	16862.29
499.282	16661.59
499.485	17282.13
499.689	17339.47
499.892	17640.52
500.095	17603.66
500.298	18330.69
500.501	18103.36
500.705	18375.74
500.908	18363.45
501.111	19008.56
501.314	18910.26
501.517	19188.78
501.72	19321.9
501.923	19575.85
502.126	19588.14
502.329	20012.07
502.532	20358.17
502.735	20378.65
502.938	20679.71
503.141	20909.08
503.344	21087.25
503.547	21122.07
503.75	21457.93
503.953	21672.97
504.156	21951.49
504.359	21754.89
504.562	22000.65
504.765	22598.65
504.968	22858.74
505.17	22936.57
505.373	23075.83
505.576	23581.68
505.779	23796.71
505.982	23983.08
506.185	24550.37
506.387	24294.37
506.59	24507.36
506.793	25326.55
506.996	25064.41
507.198	25953.23
507.401	25517.01
507.604	26020.81
507.807	26434.5
508.009	26667.97
508.212	26637.25
508.415	27057.08
508.617	27206.58
508.82	27202.49
509.022	27386.8
509.225	28175.27
509.428	28148.65
509.63	28048.3
509.833	28396.45
510.035	29440.92
510.238	29201.3
510.44	29438.87
510.643	29944.72
510.845	30079.88
511.048	29909.9
511.25	30430.08
511.453	30786.43
511.655	31462.26
511.858	31648.63
512.06	32052.08
512.262	32213.87
512.465	31796.08
512.667	32457.57
512.87	32858.98
513.072	32754.53
513.274	33235.8
513.477	33680.21
513.679	33553.24
513.881	34392.9
514.084	34632.52
514.286	34523.97
514.488	34845.51
514.69	35693.36
514.893	36082.48
515.095	36031.28
515.297	36363.05
515.499	36430.63
515.701	36811.56
515.904	37180.19
516.106	37237.53
516.308	38134.54
516.51	38339.34
516.712	38259.47
516.914	38562.57
517.116	39105.28
517.318	39222.01
517.52	39545.59
517.722	39658.23
517.925	40219.38
518.127	40540.91
518.329	40895.21
518.531	40794.85
518.733	41315.04
518.935	41820.89
519.136	41698.01
519.338	42214.1
519.54	42621.64
519.742	42875.59
519.944	42549.96
520.146	43268.8
520.348	43842.23
520.55	43819.7
520.752	43901.62
520.954	44681.9
521.155	44430
521.357	44931.75
521.559	45511.33
521.761	45884.06
521.963	45728.41
522.164	46113.43
522.366	46090.9
522.568	46594.7
522.77	46619.28
522.971	47370.88
523.173	46897.8
523.375	47757.95
523.576	47979.13
523.778	47735.42
523.98	48171.64
524.181	48480.88
524.383	48382.58
524.584	49025.64
524.786	48777.84
524.988	48812.65
525.189	49652.32
525.391	49941.08
525.592	49812.06
525.794	50418.26
525.995	50164.31
526.197	50508.37
526.398	50352.72
526.6	50831.95
526.801	51098.19
527.003	50840.14
527.204	51180.1
527.406	51737.15
527.607	51518.02
527.808	52159.03
528.01	50983.5
528.211	51520.07
528.412	52197.94
528.614	52134.46
528.815	52466.23
529.016	52777.52
529.218	52240.95
529.419	52435.51
529.62	52609.59
529.822	52052.54
530.023	53109.29
530.224	52740.66
530.425	53027.37
530.626	52763.18
530.828	52263.48
531.029	53289.51
531.23	52974.12
531.431	53246.5
531.632	53228.07
531.833	53285.42
532.035	52824.62
532.236	53330.47
532.437	53449.25
532.638	52951.6
532.839	53211.69
533.04	53676.58
533.241	53129.77
533.442	54178.33
533.643	53158.44
533.844	53494.31
534.045	53727.78
534.246	53387.81
534.447	53908
534.648	53135.91
534.849	53742.11
535.05	53049.9
535.251	54184.47
535.451	53162.54
535.652	54137.37
535.853	53547.56
536.054	54016.54
536.255	53772.83
536.456	53021.23
536.657	53729.83
536.857	53604.9
537.058	53174.83
537.259	53979.68
537.46	53776.93
537.66	53719.59
537.861	53598.76
538.062	53789.22
538.263	53977.63
538.463	53332.52
538.664	53658.15
538.865	53561.89
539.065	53789.22
539.266	53207.59
539.466	54166.04
539.667	53367.33
539.868	53658.15
540.068	53486.12
540.269	53285.42
540.469	54092.32
540.67	53135.91
540.87	53471.78
541.071	53713.44
541.271	53699.11
541.472	53240.36
541.672	53609
541.873	53240.36
542.073	53215.79
542.274	54030.88
542.474	53213.74
542.675	53133.87
542.875	54309.4
543.075	53303.85
543.276	53121.58
543.476	53615.14
543.676	53525.03
543.877	53535.27
544.077	53348.9
544.277	53086.76
544.478	53649.95
544.678	53758.5
544.878	53541.41
545.078	53441.06
545.279	53129.77
545.479	53078.57
545.679	53944.86
545.879	53178.92
546.079	53490.21
546.28	53617.19
546.48	53584.42
546.68	53420.58
546.88	52959.79
547.08	53248.55
547.28	53309.99
547.48	53000.75
547.68	53598.76
547.88	52974.12
548.081	53371.43
548.281	53449.25
548.481	53264.94
548.681	53711.39
548.881	53572.13
549.081	53129.77
549.28	53113.39
549.48	53281.32
549.68	53273.13
549.88	54082.08
550.08	53045.8
550.28	52978.22
550.48	53176.87
550.68	53557.8
550.88	52730.42
551.08	53199.4
551.279	52779.57
551.479	52580.92
551.679	53111.34
551.879	53004.84
552.079	53338.66
552.278	52804.14
552.478	52824.62
552.678	52806.19
552.878	53314.09
553.077	52824.62
553.277	52312.63
553.477	53596.71
553.676	52609.59
553.876	53019.18
554.076	52822.58
554.275	53010.99
554.475	52568.63
554.674	52517.43
554.874	52918.83
555.074	52740.66
555.273	52879.92
555.473	53195.31
555.672	52531.76
555.872	52699.7
556.071	52499
556.271	52861.49
556.47	52511.28
556.67	52165.18
556.869	52406.84
557.068	52726.32
557.268	52208.18
557.467	52464.18
557.667	52560.44
557.866	52376.12
558.065	52273.72
558.265	52146.75
558.464	51747.39
558.663	52699.7
558.863	52060.73
559.062	52337.21
559.261	51882.56
559.461	52587.06
559.66	51817.02
559.859	51960.38
560.058	51509.83
560.258	51696.19
560.457	51462.72
560.656	51819.07
560.855	51470.92
561.054	51733.06
561.253	51190.34
561.453	51333.7
561.652	51751.49
561.851	51679.81
562.05	51386.95
562.249	51155.53
562.448	51831.36
562.647	51343.94
562.846	51741.25
563.045	51487.3
563.244	51038.79
563.443	51659.33
563.642	50788.94
563.841	51012.17
564.04	51008.07
564.239	51315.27
564.438	50455.12
564.637	50731.6
564.836	51159.62
565.035	50326.1
565.234	51225.16
565.432	50397.78
565.631	50182.74
565.83	50293.33
566.029	50008.67
566.228	50115.16
566.427	50285.14
566.625	49691.23
566.824	49932.89
567.023	50072.15
567.222	49500.77
567.42	49963.61
567.619	49846.88
567.818	49300.07
568.016	49433.19
568.215	50047.58
568.414	49672.8
568.612	49922.65
568.811	49531.49
569.01	49498.72
569.208	49355.36
569.407	49488.48
569.605	48786.03
569.804	49183.33
570.002	49283.69
570.201	49013.35
570.4	48517.75
570.598	48816.75
570.797	48876.14
570.995	48697.97
571.193	48487.03
571.392	49064.55
571.59	48235.13
571.789	48536.18
571.987	48353.91
572.186	48001.66
572.384	48011.9
572.582	48169.59
572.781	48605.81
572.979	47585.92
573.177	48128.63
573.376	47708.8
573.574	47305.35
573.772	48134.77
573.971	47446.66
574.169	47356.55
574.367	47303.3
574.565	47516.29
574.763	47102.6
574.962	47088.26
575.16	46834.31
575.358	46846.6
575.556	46367.38
575.754	47174.28
575.952	46408.34
576.151	46891.66
576.349	46252.69
576.547	46529.17
576.745	46600.85
576.943	46699.15
577.141	46451.34
577.339	46465.68
577.537	46314.13
577.735	45798.04
577.933	45863.58
578.131	45925.02
578.329	45785.75
578.527	45613.73
578.725	45771.42
578.923	45836.95
579.121	45044.39
579.319	45320.87
579.516	45683.36
579.714	45263.52
579.912	45013.67
580.11	44745.39
580.308	44896.94
580.506	44520.11
580.704	44511.92
580.901	44952.23
581.099	45019.81
581.297	44298.93
581.495	44368.56
581.692	44675.76
581.89	43993.78
582.088	44571.31
582.285	44350.13
582.483	44821.16
582.681	43915.96
582.878	43754.17
583.076	43647.68
583.274	43817.66
583.471	43414.21
583.669	43301.57
583.866	43031.24
584.064	43369.15
584.262	42633.93
584.459	43242.18
584.657	42715.85
584.854	42998.47
585.052	42232.53
585.249	42705.61
585.447	43027.14
585.644	42459.85
585.841	42619.6
586.039	42703.56
586.236	42076.88
586.434	41898.71
586.631	41781.98
586.828	41935.57
587.026	42070.74
587.223	41939.67
587.42	41902.81
587.618	41687.77
587.815	41448.16
588.012	41442.01
588.21	41110.24
588.407	41755.35
588.604	40973.03
588.801	40698.6
588.999	40657.64
589.196	40698.6
589.393	40522.47
589.59	40710.89
589.787	40151.79
589.984	40284.91
590.182	40002.29
590.379	40346.35
590.576	39885.56
590.773	40233.71
590.97	39785.21
591.167	40026.87
591.364	39267.07
591.561	39947
591.758	39330.56
591.955	39394.04
592.152	39508.73
592.349	38750.98
592.546	39047.94
592.743	39105.28
592.94	38828.8
593.137	38996.74
593.334	39023.36
593.531	38634.25
593.727	38812.42
593.924	38413.07
594.121	38263.57
594.318	38593.29
594.515	37661.46
594.712	38374.16
594.908	37712.66
595.105	38265.61
595.302	37784.34
595.499	37976.85
595.696	37927.7
595.892	37473.05
596.089	37802.77
596.286	37471
596.482	37120.8
596.679	37139.23
596.876	37364.51
597.072	36881.19
597.269	37057.31
597.466	36602.66
597.662	36703.01
597.859	36522.79
598.055	36393.77
598.252	36487.98
598.448	36723.49
598.645	36358.95
598.841	35707.7
599.038	36406.06
599.234	35945.26
599.431	35668.79
599.627	35427.13
599.824	36016.94
600.02	35494.71
600.217	35676.98
600.413	35105.6
600.609	35314.49
600.806	34980.67
601.002	35472.18
601.198	35447.61
601.395	35003.2
601.591	34966.34
601.787	34908.99
601.984	34470.73
602.18	34784.07
602.376	34618.18
602.572	34329.42
602.769	34505.54
602.965	34167.63
603.161	34564.93
603.357	34179.92
603.553	33821.52
603.75	33459.03
603.946	33553.24
604.142	33700.69
604.338	33151.84
604.534	33618.77
604.73	33403.74
604.926	33200.99
605.122	33547.09
605.318	33352.54
605.514	32904.03
605.71	32815.97
605.906	32940.89
606.102	33272.67
606.298	32873.31
606.494	32387.94
606.69	32514.92
606.886	32697.19
607.082	32254.83
607.278	32545.64
607.474	32017.26
607.67	32394.09
607.866	31978.35
608.062	32643.94
608.257	31970.16
608.453	31796.08
608.649	32156.52
608.845	31849.33
609.041	31959.92
609.236	31812.46
609.432	31552.37
609.628	31800.18
609.824	31642.48
610.019	31513.46
610.215	31589.24
610.411	31671.15
610.606	31468.41
610.802	31519.6
610.998	31390.58
611.193	31294.33
611.389	31013.76
611.584	30978.94
611.78	31105.91
611.976	30995.32
612.171	31200.12
612.367	31251.32
612.562	30763.9
612.758	30282.63
612.953	30610.31
613.149	30950.27
613.344	30563.2
613.539	31077.24
613.735	30536.58
613.93	30579.59
614.126	30131.08
614.321	30817.15
614.517	30438.28
614.712	30350.21
614.907	30069.64
615.103	30759.81
615.298	29936.52
615.493	30079.88
615.688	30094.22
615.884	30004.11
616.079	29987.72
616.274	29942.67
616.47	30016.4
616.665	30079.88
616.86	29748.11
617.055	29940.62
617.25	29782.93
617.445	29760.4
617.641	29103
617.836	29789.07
618.031	29002.65
618.226	29410.2
618.421	28998.55
618.616	29340.57
618.811	28591.01
619.006	29062.04
619.201	28816.29
619.396	28859.29
619.591	28742.56
619.786	28580.77
619.981	28261.29
620.176	28750.75
620.371	27859.88
620.566	28244.9
620.761	28042.15
620.956	28115.88
621.151	27634.61
621.346	27665.33
621.541	27272.12
621.735	27730.86
621.93	26725.31
622.125	26796.99
622.32	26915.77
622.515	26907.58
622.709	26733.5
622.904	26602.43
623.099	26672.06
623.294	26655.68
623.488	26258.37
623.683	26125.25
623.878	25932.75
624.072	26147.78
624.267	25723.85
624.462	25717.71
624.656	25461.71
624.851	25459.66
625.046	25027.54
625.24	25361.36
625.435	25105.37
625.629	24943.58
625.824	24628.19
626.018	24789.98
626.213	24273.89
626.407	24536.03
626.602	24212.45
626.796	24282.08
626.991	24261.6
627.185	23800.81
627.38	23602.16
627.574	23790.57
627.768	23614.44
627.963	23407.6
628.157	23194.61
628.352	23405.55
628.546	22785.02
628.74	23280.63
628.935	22694.91
629.129	22606.84
629.323	22285.31
629.517	22227.97
629.712	22285.31
629.906	22420.48
630.1	21763.08
630.294	22092.8
630.489	21918.73
630.683	22101
630.877	21822.47
631.071	21429.26
631.265	21156.88
631.459	21664.78
631.653	21285.9
631.848	21279.76
632.042	21292.05
632.236	20878.36
632.43	21128.21
632.624	20999.19
632.818	20616.22
633.012	20671.51
633.206	20542.49
633.4	20474.91
633.594	20169.76
633.788	20100.13
633.982	19969.06
634.176	19889.19
634.369	19964.96
634.563	19536.94
634.757	19702.82
634.951	19467.31
635.145	19575.85
635.339	19506.22
635.533	19201.07
635.726	19276.85
635.92	19362.86
636.114	19184.69
636.308	19063.86
636.501	18783.29
636.695	18889.78
636.889	18629.69
637.083	18529.34
637.276	18474.04
637.47	18623.55
637.664	18240.57
637.857	18211.9
638.051	18408.51
638.244	18058.31
638.438	17837.13
638.632	17861.7
638.825	17798.21
639.019	17790.02
639.212	17366.09
639.406	17601.61
639.599	17202.25
639.793	17474.63
639.986	17130.58
640.18	17259.6
640.373	17048.66
640.567	17056.85
640.76	17032.27
640.954	16860.24
641.147	16694.36
641.34	16845.91
641.534	16612.44
641.727	16407.64
641.92	16335.96
642.114	16424.03
642.307	16106.59
642.5	16313.44
642.694	15846.5
642.887	15826.02
643.08	15905.89
643.273	15996
643.467	15928.42
643.66	15713.38
643.853	15637.61
644.046	15299.69
644.239	15395.95
644.432	15080.56
644.626	15367.27
644.819	14896.24
645.012	14963.82
645.205	15203.44
645.398	14931.06
645.591	14785.65
645.784	14861.43
645.977	14836.85
646.17	14783.6
646.363	14525.56
646.556	14408.83
646.749	14341.24
646.942	14486.65
647.135	14171.26
647.328	14134.4
647.521	14285.95
647.714	14038.14
647.907	13950.08
648.099	13855.87
648.292	13988.99
648.485	14003.33
648.678	13530.25
648.871	13620.36
649.064	13702.28
649.256	13726.85
649.449	13661.32
649.642	13446.28
649.835	13196.43
650.027	13231.24
650.22	13208.72
650.413	13261.96
650.605	13065.36
650.798	13094.03
650.991	12881.04
651.183	13151.37
651.376	12631.19
651.568	12905.62
651.761	12524.69
651.954	12745.87
652.146	12440.73
652.339	12395.67
652.531	12405.91
652.724	12463.26
652.916	12278.94
653.109	12244.12
653.301	12033.18
653.494	12211.35
653.686	12031.13
653.879	12192.92
654.071	11775.14
654.263	11766.95
654.456	11955.36
654.648	11789.47
654.84	11619.49
655.033	11658.4
655.225	11463.85
655.417	11463.85
655.61	11472.04
655.802	11431.08
655.994	11357.35
656.186	11252.91
656.379	11021.49
656.571	11041.96
656.763	11146.41
656.955	11150.51
657.148	11064.49
657.34	11162.8
657.532	10931.37
657.724	10890.42
657.916	10816.69
658.108	10847.41
658.3	10521.78
658.492	10497.21
658.684	10357.94
658.876	10556.6
659.068	10421.43
659.26	10581.17
659.452	10409.14
659.644	10302.65
659.836	10144.95
660.028	10149.05
660.22	9919.68
660.412	10036.41
660.604	9745.6
660.796	10276.02
660.988	10058.94
661.18	9708.74
661.372	9888.96
661.563	9829.57
661.755	9612.48
661.947	9628.87
662.139	9606.34
662.331	9534.66
662.522	9397.45
662.714	9409.73
662.906	9313.48
663.097	9333.96
663.289	9204.94
663.481	9282.76
663.673	9221.32
663.864	9346.25
664.056	9129.16
664.247	9163.98
664.439	8891.6
664.631	9061.58
664.822	8948.94
665.014	8879.31
665.205	8834.25
665.397	8942.8
665.588	8942.8
665.78	8774.86
665.971	8834.25
666.163	8692.94
666.354	8758.48
666.546	8484.05
666.737	8426.71
666.929	8692.94
667.12	8557.78
667.311	8590.55
667.503	8406.23
667.694	8264.92
667.885	8299.73
668.077	8391.89
668.268	8375.51
668.459	8166.62
668.651	8277.21
668.842	8113.37
669.033	8023.26
669.224	7984.35
669.416	7904.48
669.607	7931.1
669.798	8000.73
669.989	8004.83
670.18	7818.46
670.371	7918.81
670.563	7822.56
670.754	7691.49
670.945	7777.5
671.136	7640.29
671.327	7593.19
671.518	7638.24
671.709	7812.32
671.9	7458.02
672.091	7531.75
672.282	7421.16
672.473	7353.57
672.664	7552.23
672.855	7382.24
673.046	7505.12
673.237	7443.68
673.428	7251.17
673.619	7216.36
673.809	7372
674	7300.33
674.191	7267.56
674.382	7324.9
674.573	7265.51
674.764	7044.33
674.954	7081.19
675.145	7027.95
675.336	7150.82
675.527	6810.86
675.717	7050.47
675.908	6982.89
676.099	6890.73
676.289	6827.25
676.48	7027.95
676.671	6917.36
676.861	6845.68
677.052	6681.84
677.243	6573.3
677.433	6831.34
677.624	6868.2
677.814	6833.39
678.005	6718.7
678.195	6679.79
678.386	6720.75
678.576	6628.59
678.767	6657.26
678.957	6612.21
679.148	6622.45
679.338	6546.67
679.529	6431.99
679.719	6692.08
679.909	6524.15
680.1	6393.08
680.29	6640.88
680.481	6431.99
680.671	6436.08
680.861	6327.54
681.052	6509.81
681.242	6249.72
681.432	6518
681.622	6188.28
681.813	6284.53
682.003	6274.29
682.193	6227.19
682.383	6276.34
682.573	6132.98
682.764	6020.35
682.954	6192.37
683.144	6186.23
683.334	6241.53
683.524	6063.35
683.714	6192.37
683.904	6194.42
684.094	6157.56
684.284	6126.84
684.474	6092.02
684.664	6130.94
684.854	5946.62
685.044	6055.16
685.234	5967.1
685.424	5833.98
685.614	5852.41
685.804	5936.38
685.994	5838.08
686.184	5946.62
686.374	5905.66
686.564	5747.97
686.753	5782.78
686.943	5807.36
687.133	5657.86
687.323	5645.57
687.513	5739.77
687.702	5502.21
687.892	5520.64
688.082	5565.7
688.272	5707.01
688.461	5508.35
688.651	5428.48
688.841	5338.37
689.03	5442.82
689.22	5281.03
689.41	5453.06
689.599	5358.85
689.789	5434.63
689.979	5336.32
690.168	5272.84
690.358	5098.76
690.547	5211.4
690.737	5287.17
690.926	5369.09
691.116	5123.34
691.305	5164.29
691.495	5133.57
691.684	5012.74
691.874	5131.53
692.063	5102.86
692.252	5123.34
692.442	5109
692.631	4896.01
692.82	5098.76
693.01	4975.88
693.199	4904.2
693.388	4734.22
693.578	4775.18
693.767	4918.54
693.956	4885.77
694.146	4936.97
694.335	4758.8
694.524	4640.01
694.713	4699.41
694.902	4867.34
695.092	4670.73
695.281	4799.76
695.47	4691.21
695.659	4697.36
695.848	4705.55
696.037	4599.06
696.226	4562.19
696.415	4568.34
696.604	4646.16
696.793	4572.43
696.982	4574.48
697.171	4402.45
697.36	4570.38
697.549	4539.66
697.738	4367.63
697.927	4429.07
698.116	4394.26
698.305	4351.25
698.494	4422.93
698.683	4209.94
698.872	4338.96
699.061	4328.72
699.25	4287.76
699.438	4298
699.627	4302.1
699.816	4252.95
700.005	4207.89
700.193	4359.44
700.382	4232.47
700.571	4271.38
700.76	4361.49
700.948	4394.26
701.137	4255
701.326	4320.53
701.514	4195.61
701.703	4199.7
701.892	4089.11
702.08	4318.48
702.269	4021.53
702.457	4111.64
702.646	4046.1
702.834	4125.97
703.023	4062.49
703.212	4019.48
703.4	4048.15
703.589	4013.34
703.777	3906.84
703.965	3962.14
704.154	3990.81
704.342	4226.32
704.531	4150.55
704.719	3976.47
704.907	4058.39
705.096	3943.71
705.284	4003.1
705.472	3929.37
705.661	3919.13
705.849	4005.14
706.037	4025.62
706.226	3788.06
706.414	3898.65
706.602	3814.68
706.79	3802.4
706.979	3898.65
707.167	3829.02
707.355	3714.33
707.543	3790.11
707.731	3888.41
707.919	3992.86
708.107	3820.83
708.296	3790.11
708.484	3710.24
708.672	3763.48
708.86	3706.14
709.048	3777.82
709.236	3745.05
709.424	3790.11
709.612	3882.27
709.8	3718.43
709.988	3849.5
710.176	3835.16
710.364	3818.78
710.551	3575.07
710.739	3681.57
710.927	3648.8
711.115	3652.89
711.303	3693.85
711.491	3702.04
711.679	3659.04
711.866	3695.9
712.054	3681.57
712.242	3648.8
712.43	3743
712.617	3628.32
712.805	3585.31
712.993	3697.95
713.181	3487.01
713.368	3589.41
713.556	3636.51
713.744	3636.51
713.931	3577.12
714.119	3556.64
714.306	3581.21
714.494	3577.12
714.682	3579.17
714.869	3585.31
715.057	3583.26
715.244	3474.72
715.432	3630.37
715.619	3452.19
715.807	3579.17
715.994	3622.17
716.182	3421.47
716.369	3587.36
716.556	3542.3
716.744	3429.66
716.931	3470.62
717.119	3558.69
717.306	3556.64
717.493	3466.53
717.681	3530.02
717.868	3472.67
718.055	3458.34
718.242	3429.66
718.43	3386.66
718.617	3437.86
718.804	3405.09
718.991	3425.57
719.179	3499.3
719.366	3409.19
719.553	3372.32
719.74	3458.34
719.927	3446.05
720.114	3400.99
720.301	3509.54
720.488	3372.32
720.676	3429.66
720.863	3368.23
721.05	3337.51
721.237	3263.78
721.424	3444
721.611	3448.1
721.798	3314.98
721.985	3415.33
722.172	3308.83
722.358	3398.95
722.545	3421.47
722.732	3347.75
722.919	3345.7
723.106	3353.89
723.293	3448.1
723.48	3474.72
723.667	3314.98
723.853	3302.69
724.04	3345.7
724.227	3306.79
724.414	3267.88
724.6	3304.74
724.787	3290.4
724.974	3380.51
725.161	3386.66
725.347	3323.17
725.534	3241.25
725.72	3339.55
725.907	3339.55
726.094	3347.75
726.28	3304.74
726.467	3310.88
726.653	3198.24
726.84	3243.3
727.027	3321.12
727.213	3243.3
727.4	3282.21
727.586	3339.55
727.773	3319.07
727.959	3257.64
728.145	3380.51
728.332	3317.03
728.518	3222.82
728.705	3345.7
728.891	3233.06
729.077	3325.22
729.264	3314.98
729.45	3241.25
729.636	3274.02
729.823	3235.11
730.009	3294.5
730.195	3327.27
730.382	3290.4
730.568	3282.21
730.754	3214.63
730.94	3271.97
731.126	3310.88
731.313	3319.07
731.499	3261.73
731.685	3276.07
731.871	3265.83
732.057	3331.36
732.243	3136.81
732.429	3310.88
732.615	3325.22
732.801	3290.4
732.987	3292.45
733.173	3253.54
733.359	3196.2
733.545	3360.03
733.731	3251.49
733.917	3245.35
734.103	3317.03
734.289	3339.55
734.475	3171.62
734.661	3417.38
734.847	3259.68
735.033	3269.92
735.219	3368.23
735.404	3261.73
735.59	3239.2
735.776	3231.01
735.962	3200.29
736.148	3239.2
736.333	3269.92
736.519	3183.91
736.705	3292.45
736.89	3208.48
737.076	3269.92
737.262	3282.21
737.447	3202.34
737.633	3253.54
737.819	3165.48
738.004	3255.59
738.19	3339.55
738.375	3314.98
738.561	3228.96
738.747	3265.83
738.932	3214.63
739.118	3251.49
739.303	3409.19
739.489	3327.27
739.674	3110.18
739.859	3106.09
740.045	3280.16
740.23	3308.83
740.416	3190.05
740.601	3298.6
740.786	3185.96
740.972	3196.2
741.157	3286.31
741.342	3226.92
741.528	3058.98
741.713	3249.44
741.898	3069.22
742.084	3122.47
742.269	3149.09
742.454	3142.95
742.639	3106.09
742.824	3167.53
743.01	3247.4
743.195	3200.29
743.38	3149.09
743.565	3124.52
743.75	3175.72
743.935	3087.65
744.12	3165.48
744.305	2995.5
744.49	3030.31
744.675	3052.84
744.86	2915.62
745.045	2995.5
745.23	3058.98
745.415	3079.46
745.6	3161.38
745.785	2874.67
745.97	2958.63
746.155	2884.91
746.34	2889
746.525	2925.86
746.71	2929.96
746.895	2874.67
747.079	3011.88
747.264	2903.34
747.449	2835.75
747.634	2864.43
747.819	2950.44
748.003	2821.42
748.188	2743.6
748.373	2827.56
748.557	2696.49
748.742	2723.12
748.927	2710.83
749.111	2680.11
749.296	2739.5
749.481	2669.87
749.665	2784.55
749.85	2637.1
750.034	2706.73
750.219	2647.34
750.404	2663.72
750.588	2770.22
750.773	2557.23
750.957	2512.18
751.141	2579.76
751.326	2551.09
751.51	2622.77
751.695	2555.18
751.879	2600.24
752.064	2573.61
752.248	2475.31
752.432	2524.46
752.617	2481.46
752.801	2473.26
752.985	2471.22
753.17	2442.54
753.354	2485.55
753.538	2348.34
753.722	2397.49
753.907	2399.54
754.091	2336.05
754.275	2344.24
754.459	2444.59
754.643	2352.43
754.828	2297.14
755.012	2252.08
755.196	2245.94
755.38	2297.14
755.564	2393.39
755.748	2288.95
755.932	2182.45
756.116	2213.17
756.3	2145.59
756.484	2153.78
756.668	2153.78
756.852	2161.97
757.036	2172.21
757.22	2168.12
757.404	2186.55
757.588	2129.2
757.772	2157.88
757.956	2043.19
758.14	2045.24
758.323	2016.57
758.507	2063.67
758.691	1967.42
758.875	2149.68
759.059	1965.37
759.242	1989.94
759.426	2055.48
759.61	2063.67
759.794	1994.04
759.977	1989.94
760.161	2012.47
760.345	1977.66
760.528	2057.53
760.712	1922.36
760.895	1891.64
761.079	1938.74
761.263	1828.15
761.446	1903.93
761.63	1791.29
761.813	1811.77
761.997	1830.2
762.18	1828.15
762.364	1977.66
762.547	1797.43
762.731	1897.78
762.914	1748.28
763.098	1781.05
763.281	1918.26
763.464	1840.44
763.648	1801.53
763.831	1703.23
764.015	1723.71
764.198	1731.9
764.381	1797.43
764.564	1729.85
764.748	1588.54
764.931	1770.81
765.114	1699.13
765.297	1789.24
765.481	1684.8
765.664	1682.75
765.847	1725.76
766.03	1735.99
766.213	1676.6
766.397	1645.88
766.58	1635.64
766.763	1596.73
766.946	1561.92
767.129	1627.45
767.312	1670.46
767.495	1654.08
767.678	1480
767.861	1656.12
768.044	1672.51
768.227	1633.6
768.41	1566.01
768.593	1539.39
768.776	1656.12
768.959	1611.07
769.142	1604.92
769.324	1615.16
769.507	1486.14
769.69	1459.52
769.873	1586.49
770.056	1582.4
770.239	1389.89
770.421	1500.48
770.604	1525.05
770.787	1441.09
770.97	1584.45
771.152	1412.42
771.335	1539.39
771.518	1516.86
771.7	1355.07
771.883	1494.33
772.066	1389.89
772.248	1363.26
772.431	1525.05
772.613	1420.61
772.796	1385.79
772.978	1348.93
773.161	1461.57
773.343	1348.93
773.526	1316.16
773.708	1361.22
773.891	1252.67
774.073	1350.98
774.256	1342.78
774.438	1363.26
774.621	1295.68
774.803	1328.45
774.985	1256.77
775.168	1346.88
775.35	1248.58
775.532	1332.55
775.715	1367.36
775.897	1316.16
776.079	1267.01
776.261	1269.06
776.444	1277.25
776.626	1172.8
776.808	1221.95
776.99	1172.8
777.173	1232.19
777.355	1185.09
777.537	1197.38
777.719	1166.66
777.901	1111.36
778.083	1174.85
778.265	1117.51
778.447	1224
778.629	1086.79
778.811	1115.46
778.993	1060.17
779.175	1097.03
779.357	1146.18
779.539	1045.83
779.721	1056.07
779.903	1082.69
780.085	965.96
780.267	996.68
780.449	1123.65
780.631	1035.59
780.812	1019.21
780.994	1019.21
781.176	994.63
781.358	1029.45
781.54	918.86
781.721	1029.45
781.903	1045.83
782.085	943.43
782.267	992.58
782.448	888.14
782.63	898.38
782.812	1033.54
782.993	939.34
783.175	912.71
783.357	808.27
783.538	851.27
783.72	853.32
783.901	922.95
784.083	824.65
784.264	828.74
784.446	906.57
784.627	867.66
784.809	875.85
784.99	879.94
785.172	857.42
785.353	832.84
785.535	781.64
785.716	769.35
785.897	703.82
786.079	767.31
786.26	800.07
786.441	795.98
786.623	732.49
786.804	757.07
786.985	720.2
787.167	697.67
787.348	810.31
787.529	834.89
787.71	750.92
787.891	824.65
788.073	658.76
788.254	726.35
788.435	771.4
788.616	722.25
788.797	619.85
788.978	720.2
789.159	722.25
789.34	697.67
789.522	654.67
789.703	662.86
789.884	681.29
790.065	607.56
790.246	724.3
790.427	677.2
790.607	734.54
790.788	621.9
790.969	621.9
791.15	585.04
791.331	576.84
791.512	683.34
791.693	529.74
791.874	613.71
792.054	617.8
792.235	619.85
792.416	580.94
792.597	591.18
792.778	679.24
792.958	726.35
793.139	648.52
793.32	503.12
793.5	595.28
793.681	556.36
793.862	519.5
794.042	552.27
794.223	503.12
794.404	521.55
794.584	492.88
794.765	499.02
794.945	496.97
795.126	652.62
795.306	462.16
795.487	550.22
795.667	460.11
795.848	585.04
796.028	476.49
796.209	597.32
796.389	634.19
796.57	492.88
796.75	490.83
796.93	472.4
797.111	396.62
797.291	464.21
797.471	490.83
797.652	476.49
797.832	433.49
798.012	488.78
798.192	417.1
798.373	406.86
798.553	468.3
798.733	408.91
798.913	451.92
799.093	453.97
799.274	488.78
799.454	509.26
799.634	443.73
799.814	488.78
799.994	427.34
800.174	505.17
800.354	376.14
800.534	431.44
800.714	404.82
800.894	384.34
801.074	464.21
801.254	427.34
801.434	480.59
801.614	361.81
801.794	382.29
801.974	1025.35
802.154	437.58
802.334	324.94
802.514	408.91
802.693	415.06
802.873	312.66
803.053	542.03
803.233	439.63
803.413	343.38
803.592	384.34
803.772	415.06
803.952	365.9
804.131	402.77
804.311	355.66
804.491	388.43
804.67	451.92
804.85	351.57
805.03	374.1
805.209	355.66
805.389	343.38
805.568	306.51
805.748	361.81
805.928	392.53
806.107	400.72
806.287	335.18
806.466	447.82
806.646	339.28
806.825	380.24
807.004	306.51
807.184	359.76
807.363	382.29
807.543	283.99
807.722	337.23
807.901	400.72
808.081	310.61
808.26	308.56
808.439	277.84
808.619	296.27
808.798	245.07
808.977	316.75
809.156	300.37
809.336	326.99
809.515	296.27
809.694	283.99
809.873	339.28
810.052	310.61
810.231	331.09
810.411	318.8
810.59	333.14
810.769	308.56
810.948	378.19
811.127	240.98
811.306	322.9
811.485	333.14
811.664	343.38
811.843	292.18
812.022	341.33
812.201	324.94
812.38	222.55
812.559	283.99
812.737	359.76
812.916	257.36
813.095	249.17
813.274	228.69
813.453	290.13
813.632	304.46
813.811	263.51
813.989	275.79
814.168	335.18
814.347	257.36
814.526	249.17
814.704	308.56
814.883	265.55
815.062	222.55
815.24	314.7
815.419	236.88
815.598	275.79
815.776	267.6
815.955	247.12
816.133	269.65
816.312	288.08
816.49	200.02
816.669	331.09
816.847	173.39
817.026	267.6
817.204	226.64
817.383	302.42
817.561	204.11
817.74	169.3
817.918	265.55
818.097	210.26
818.275	204.11
818.453	283.99
818.632	236.88
818.81	294.22
818.988	208.21
819.167	218.45
819.345	249.17
819.523	134.48
819.701	179.54
819.879	173.39
820.058	300.37
820.236	312.66
820.414	236.88
820.592	288.08
820.77	175.44
820.948	202.07
821.127	247.12
821.305	204.11
821.483	130.39
821.661	195.92
821.839	253.27
822.017	243.03
822.195	169.3
822.373	222.55
822.551	179.54
822.729	236.88
822.907	177.49
823.085	191.83
823.262	251.22
823.44	216.4
823.618	247.12
823.796	165.2
823.974	251.22
824.152	179.54
824.329	222.55
824.507	275.79
824.685	214.35
824.863	185.68
825.04	171.35
825.218	195.92
825.396	161.11
825.574	200.02
825.751	140.63
825.929	167.25
826.107	165.2
826.284	189.78
826.462	222.55
826.639	220.5
826.817	169.3
826.994	261.46
827.172	206.16
827.349	220.5
827.527	179.54
827.704	132.44
827.882	152.92
828.059	165.2
828.237	165.2
828.414	189.78
828.591	140.63
828.769	171.35
828.946	173.39
829.124	120.15
829.301	208.21
829.478	159.06
829.655	87.38
829.833	161.11
830.01	130.39
830.187	150.87
830.364	140.63
830.542	171.35
830.719	103.76
830.896	132.44
831.073	189.78
831.25	210.26
831.427	159.06
831.604	62.8
831.782	118.1
831.959	146.77
832.136	134.48
832.313	165.2
832.49	128.34
832.667	189.78
832.844	200.02
833.021	177.49
833.198	161.11
833.374	148.82
833.551	161.11
833.728	183.63
833.905	118.1
834.082	134.48
834.259	120.15
834.436	200.02
834.612	140.63
834.789	157.01
834.966	58.71
835.143	148.82
835.319	60.76
835.496	132.44
835.673	116.05
835.85	204.11
836.026	189.78
836.203	202.07
836.38	109.91
836.556	66.9
836.733	107.86
836.909	138.58
837.086	202.07
837.262	71
837.439	111.96
837.616	124.24
837.792	64.85
837.968	134.48
838.145	42.32
838.321	167.25
838.498	128.34
838.674	189.78
838.851	185.68
839.027	171.35
839.203	62.8
839.38	130.39
839.556	152.92
839.732	163.15
839.909	134.48
840.085	103.76
840.261	146.77
840.437	50.52
840.614	126.29
840.79	195.92
840.966	103.76
841.142	148.82
841.318	163.15
841.494	105.81
841.671	152.92
841.847	132.44
842.023	87.38
842.199	68.95
842.375	159.06
842.551	103.76
842.727	48.47
842.903	159.06
843.079	7.51
843.255	122.2
843.431	5.46
843.607	99.67
843.783	56.66
843.959	130.39
844.134	163.15
844.31	148.82
844.486	50.52
844.662	105.81
844.838	56.66
845.013	50.52
845.189	136.53
845.365	140.63
845.541	79.19
845.716	118.1
845.892	107.86
846.068	9.56
846.244	128.34
846.419	111.96
846.595	75.09
846.77	46.42
846.946	116.05
847.122	99.67
847.297	46.42
847.473	118.1
847.648	85.33
847.824	75.09
847.999	23.89
848.175	23.89
848.35	79.19
848.526	152.92
848.701	77.14
848.876	126.29
849.052	122.2
849.227	64.85
849.403	58.71
849.578	60.76
849.753	64.85
849.929	99.67
850.104	75.09
850.279	9.56
850.454	60.76
850.63	89.43
850.805	81.24
850.98	44.37
851.155	7.51
851.33	107.86
851.505	32.08
851.681	142.68
851.856	50.52
852.031	111.96
852.206	157.01
852.381	42.32
852.556	64.85
852.731	52.56
852.906	122.2
853.081	5.46
853.256	114
853.431	62.8
853.606	13.65
853.781	50.52
853.956	46.42
854.131	126.29
854.305	68.95
854.48	11.61
854.655	62.8
854.83	73.04
855.005	-10.92
855.18	27.99
855.354	81.24
855.529	42.32
855.704	97.62
855.879	87.38
856.053	58.71
856.228	48.47
856.403	44.37
856.577	83.28
856.752	-12.97
856.926	130.39
857.101	75.09
857.276	71
857.45	23.89
857.625	66.9
857.799	89.43
857.974	118.1
858.148	30.04
858.323	38.23
858.497	62.8
858.672	3.41
858.846	60.76
859.02	38.23
859.195	44.37
859.369	38.23
859.543	54.61
859.718	13.65
859.892	42.32
860.066	124.24
860.241	81.24
860.415	60.76
860.589	7.51
860.763	71
860.938	-12.97
861.112	-10.92
861.286	-15.02
861.46	81.24
861.634	50.52
861.808	62.8
861.982	73.04
862.157	62.8
862.331	52.56
862.505	21.85
862.679	23.89
862.853	142.68
863.027	21.85
863.201	81.24
863.375	85.33
863.549	38.23
863.722	64.85
863.896	44.37
864.07	60.76
864.244	46.42
864.418	-4.78
864.592	85.33
864.766	32.08
864.939	68.95
865.113	32.08
865.287	64.85
865.461	64.85
865.634	42.32
865.808	23.89
865.982	38.23
866.156	-31.4
866.329	-25.26
866.503	11.61
866.676	58.71
866.85	50.52
867.024	77.14
867.197	36.18
867.371	87.38
867.544	30.04
867.718	9.56
867.891	11.61
868.065	64.85
868.238	-4.78
868.412	7.51
868.585	62.8
868.759	50.52
868.932	-29.35
869.105	-2.73
869.279	48.47
869.452	27.99
869.625	46.42
869.799	21.85
869.972	11.61
870.145	13.65
870.319	142.68
870.492	-49.83
870.665	42.32
870.838	73.04
871.011	5.46
871.185	9.56
871.358	40.28
871.531	42.32
871.704	-29.35
871.877	103.76
872.05	38.23
872.223	-31.4
872.396	56.66
872.569	60.76
872.742	-10.92
872.915	38.23
873.088	5.46
873.261	101.72
873.434	58.71
873.607	89.43
873.78	30.04
873.953	60.76
874.126	13.65
874.299	99.67
874.471	25.94
874.644	66.9
874.817	-17.07
874.99	103.76
875.163	17.75
875.335	-27.31
875.508	-12.97
875.681	58.71
875.853	42.32
876.026	130.39
876.199	25.94
876.371	32.08
876.544	-23.21
876.717	25.94
876.889	-25.26
877.062	1.37
877.234	-51.88
877.407	89.43
877.579	-21.16
877.752	107.86
877.924	27.99
878.097	34.13
878.269	36.18
878.442	11.61
878.614	97.62
878.786	97.62
878.959	73.04
879.131	7.51
879.303	44.37
879.476	44.37
879.648	62.8
879.82	71
879.993	13.65
880.165	30.04
880.337	-6.83
880.509	-17.07
880.681	-12.97
880.854	75.09
881.026	-12.97
881.198	50.52
881.37	21.85
881.542	-37.55
881.714	68.95
881.886	32.08
882.058	25.94
882.23	-15.02
882.402	54.61
882.574	19.8
882.746	27.99
882.918	52.56
883.09	27.99
883.262	-12.97
883.434	46.42
883.606	-19.11
883.778	-6.83
883.95	71
884.122	64.85
884.293	30.04
884.465	46.42
884.637	30.04
884.809	-0.68
884.98	46.42
885.152	48.47
885.324	87.38
885.496	19.8
885.667	46.42
885.839	30.04
886.011	58.71
886.182	1.37
886.354	25.94
886.525	25.94
886.697	40.28
886.869	27.99
887.04	64.85
887.212	75.09
887.383	95.57
887.555	32.08
887.726	-19.11
887.897	-27.31
888.069	42.32
888.24	136.53
888.412	40.28
888.583	5.46
888.754	25.94
888.926	1.37
889.097	30.04
889.268	-58.03
889.44	32.08
889.611	3.41
889.782	-21.16
889.953	58.71
890.125	-15.02
890.296	-8.87
890.467	36.18
890.638	-0.68
890.809	46.42
890.98	15.7
891.151	23.89
891.323	91.48
891.494	32.08
891.665	87.38
891.836	99.67
892.007	-25.26
892.178	42.32
892.349	-10.92
892.52	3.41
892.691	1.37
892.862	-12.97
893.032	-12.97
893.203	-4.78
893.374	-53.93
893.545	66.9
893.716	-53.93
893.887	91.48
894.057	-2.73
894.228	-6.83
894.399	91.48
894.57	52.56
894.74	-37.55
894.911	64.85
895.082	7.51
895.253	11.61
895.423	-43.69
895.594	64.85
895.764	36.18
895.935	21.85
896.106	-12.97
896.276	-21.16
896.447	-41.64
896.617	-49.83
896.788	-27.31
896.958	71
897.129	-31.4
897.299	46.42
897.47	60.76
897.64	25.94
897.81	68.95
897.981	40.28
898.151	21.85
898.322	79.19
898.492	73.04
898.662	3.41
898.832	-0.68
899.003	23.89
899.173	25.94
899.343	-15.02
899.513	3.41
