Data from USB4F104151__85__12-42-31-846.txt Node

Date: Fri Mar 14 12:42:31 EDT 2025
User: louis
Spectrometer: USB4F10415
Trigger mode: 4
Integration Time (sec): 3.000000E-2
Scans to average: 1
Electric dark correction enabled: true
Nonlinearity correction enabled: false
Boxcar width: 0
XAxis mode: Wavelengths
Number of Pixels in Spectrum: 3648
>>>>>Begin Spectral Data<<<<<
178.204	-130.56
178.424	-130.56
178.644	-130.56
178.864	-148.99
179.084	-71.17
179.304	-1.54
179.524	-34.3
179.744	29.18
179.964	8.7
180.184	-1.54
180.404	31.23
180.624	-5.63
180.844	-38.4
181.064	-1.54
181.283	39.42
181.503	-17.92
181.723	-7.68
181.943	23.04
182.163	55.81
182.383	45.57
182.602	14.85
182.822	-44.54
183.042	18.94
183.262	-3.58
183.482	-13.82
183.701	2.56
183.921	-34.3
184.141	14.85
184.361	90.62
184.58	-3.58
184.8	-38.4
185.02	57.86
185.239	55.81
185.459	49.66
185.679	18.94
185.898	29.18
186.118	39.42
186.338	25.09
186.557	33.28
186.777	4.61
186.997	31.23
187.216	51.71
187.436	49.66
187.655	61.95
187.875	96.77
188.095	14.85
188.314	10.75
188.534	27.14
188.753	-7.68
188.973	23.04
189.192	68.09
189.412	74.24
189.631	47.62
189.851	27.14
190.07	29.18
190.29	-7.68
190.509	18.94
190.729	6.66
190.948	31.23
191.168	168.45
191.387	-9.73
191.607	10.75
191.826	115.2
192.045	43.52
192.265	109.05
192.484	82.43
192.704	33.28
192.923	-15.87
193.142	41.47
193.362	37.38
193.581	129.53
193.8	39.42
194.02	82.43
194.239	49.66
194.458	35.33
194.678	43.52
194.897	84.48
195.116	123.39
195.335	70.14
195.555	8.7
195.774	8.7
195.993	76.29
196.212	-62.98
196.432	55.81
196.651	-24.06
196.87	-42.5
197.089	107.01
197.308	84.48
197.528	14.85
197.747	-11.78
197.966	53.76
198.185	170.49
198.404	78.33
198.623	33.28
198.842	84.48
199.062	55.81
199.281	86.53
199.5	29.18
199.719	2.56
199.938	76.29
200.157	64
200.376	66.05
200.595	53.76
200.814	23.04
201.033	66.05
201.252	41.47
201.471	107.01
201.69	107.01
201.909	-7.68
202.128	-7.68
202.347	57.86
202.566	-3.58
202.785	4.61
203.004	-36.35
203.223	78.33
203.442	16.9
203.661	-34.3
203.879	68.09
204.098	84.48
204.317	84.48
204.536	43.52
204.755	-5.63
204.974	84.48
205.193	94.72
205.411	92.67
205.63	10.75
205.849	66.05
206.068	6.66
206.287	-19.97
206.505	90.62
206.724	-38.4
206.943	47.62
207.162	-36.35
207.381	109.05
207.599	-36.35
207.818	55.81
208.037	14.85
208.255	12.8
208.474	-54.78
208.693	47.62
208.911	43.52
209.13	35.33
209.349	-15.87
209.567	115.2
209.786	20.99
210.005	76.29
210.223	55.81
210.442	-11.78
210.661	61.95
210.879	8.7
211.098	66.05
211.316	96.77
211.535	10.75
211.753	82.43
211.972	111.1
212.191	45.57
212.409	-5.63
212.628	-9.73
212.846	16.9
213.065	23.04
213.283	88.57
213.502	20.99
213.72	16.9
213.938	-24.06
214.157	-11.78
214.375	61.95
214.594	-24.06
214.812	45.57
215.031	61.95
215.249	-40.45
215.467	-28.16
215.686	-15.87
215.904	64
216.122	-3.58
216.341	80.38
216.559	-11.78
216.778	-5.63
216.996	-24.06
217.214	18.94
217.432	33.28
217.651	-28.16
217.869	-3.58
218.087	14.85
218.306	-19.97
218.524	74.24
218.742	47.62
218.96	37.38
219.179	14.85
219.397	-7.68
219.615	137.73
219.833	10.75
220.051	-46.59
220.27	102.91
220.488	-46.59
220.706	-42.5
220.924	55.81
221.142	29.18
221.36	-11.78
221.578	84.48
221.796	29.18
222.015	64
222.233	64
222.451	107.01
222.669	-24.06
222.887	6.66
223.105	-77.31
223.323	25.09
223.541	-17.92
223.759	0.51
223.977	-40.45
224.195	88.57
224.413	123.39
224.631	74.24
224.849	98.81
225.067	55.81
225.285	27.14
225.503	61.95
225.721	-48.64
225.939	33.28
226.157	72.19
226.375	154.11
226.592	-22.02
226.81	-24.06
227.028	115.2
227.246	4.61
227.464	-22.02
227.682	119.29
227.9	2.56
228.117	14.85
228.335	6.66
228.553	70.14
228.771	49.66
228.989	41.47
229.206	-42.5
229.424	31.23
229.642	37.38
229.86	-11.78
230.077	109.05
230.295	45.57
230.513	-71.17
230.731	90.62
230.948	86.53
231.166	72.19
231.384	35.33
231.601	29.18
231.819	57.86
232.037	-26.11
232.254	39.42
232.472	57.86
232.689	78.33
232.907	70.14
233.125	27.14
233.342	29.18
233.56	14.85
233.777	72.19
233.995	25.09
234.213	45.57
234.43	113.15
234.648	39.42
234.865	76.29
235.083	45.57
235.3	-5.63
235.518	70.14
235.735	137.73
235.953	104.96
236.17	-3.58
236.388	47.62
236.605	61.95
236.822	49.66
237.04	82.43
237.257	90.62
237.475	35.33
237.692	6.66
237.909	-26.11
238.127	45.57
238.344	-32.26
238.562	70.14
238.779	-5.63
238.996	-22.02
239.214	12.8
239.431	49.66
239.648	88.57
239.865	66.05
240.083	16.9
240.3	-1.54
240.517	0.51
240.735	43.52
240.952	66.05
241.169	135.68
241.386	8.7
241.603	8.7
241.821	4.61
242.038	27.14
242.255	74.24
242.472	107.01
242.689	45.57
242.907	113.15
243.124	55.81
243.341	25.09
243.558	72.19
243.775	4.61
243.992	-24.06
244.209	8.7
244.426	20.99
244.643	64
244.86	20.99
245.078	121.34
245.295	84.48
245.512	68.09
245.729	-40.45
245.946	55.81
246.163	14.85
246.38	84.48
246.597	-17.92
246.814	59.9
247.031	20.99
247.248	-3.58
247.464	82.43
247.681	18.94
247.898	12.8
248.115	10.75
248.332	-32.26
248.549	55.81
248.766	127.49
248.983	96.77
249.2	39.42
249.417	82.43
249.633	10.75
249.85	33.28
250.067	25.09
250.284	20.99
250.501	23.04
250.717	37.38
250.934	-24.06
251.151	0.51
251.368	4.61
251.585	70.14
251.801	72.19
252.018	61.95
252.235	45.57
252.451	61.95
252.668	-3.58
252.885	82.43
253.102	74.24
253.318	43.52
253.535	-56.83
253.752	96.77
253.968	31.23
254.185	-1.54
254.401	29.18
254.618	25.09
254.835	45.57
255.051	147.97
255.268	74.24
255.484	53.76
255.701	2.56
255.917	55.81
256.134	76.29
256.351	20.99
256.567	43.52
256.784	12.8
257	-11.78
257.217	55.81
257.433	80.38
257.65	88.57
257.866	43.52
258.082	27.14
258.299	-19.97
258.515	94.72
258.732	16.9
258.948	82.43
259.165	76.29
259.381	0.51
259.597	59.9
259.814	37.38
260.03	35.33
260.246	27.14
260.463	123.39
260.679	119.29
260.895	66.05
261.112	39.42
261.328	96.77
261.544	8.7
261.761	78.33
261.977	90.62
262.193	-15.87
262.409	-1.54
262.626	-3.58
262.842	29.18
263.058	76.29
263.274	76.29
263.49	80.38
263.707	27.14
263.923	29.18
264.139	-58.88
264.355	100.86
264.571	76.29
264.787	64
265.004	57.86
265.22	66.05
265.436	57.86
265.652	-9.73
265.868	86.53
266.084	29.18
266.3	102.91
266.516	29.18
266.732	12.8
266.948	51.71
267.164	100.86
267.38	66.05
267.596	72.19
267.812	37.38
268.028	86.53
268.244	53.76
268.46	64
268.676	23.04
268.892	66.05
269.108	20.99
269.324	35.33
269.54	43.52
269.756	121.34
269.972	49.66
270.188	64
270.403	29.18
270.619	66.05
270.835	49.66
271.051	31.23
271.267	86.53
271.483	39.42
271.698	82.43
271.914	53.76
272.13	64
272.346	109.05
272.562	74.24
272.777	53.76
272.993	53.76
273.209	39.42
273.425	141.82
273.64	-13.82
273.856	51.71
274.072	2.56
274.287	31.23
274.503	76.29
274.719	94.72
274.934	-71.17
275.15	51.71
275.366	41.47
275.581	2.56
275.797	47.62
276.012	49.66
276.228	25.09
276.444	39.42
276.659	0.51
276.875	-22.02
277.09	45.57
277.306	57.86
277.521	47.62
277.737	47.62
277.952	14.85
278.168	29.18
278.383	18.94
278.599	64
278.814	2.56
279.03	76.29
279.245	92.67
279.461	57.86
279.676	4.61
279.892	-13.82
280.107	35.33
280.322	2.56
280.538	33.28
280.753	-17.92
280.969	6.66
281.184	76.29
281.399	74.24
281.615	0.51
281.83	39.42
282.045	2.56
282.26	14.85
282.476	2.56
282.691	66.05
282.906	47.62
283.122	39.42
283.337	53.76
283.552	61.95
283.767	61.95
283.983	18.94
284.198	20.99
284.413	35.33
284.628	27.14
284.843	-5.63
285.058	6.66
285.274	-30.21
285.489	18.94
285.704	94.72
285.919	84.48
286.134	53.76
286.349	16.9
286.564	102.91
286.779	59.9
286.995	102.91
287.21	-26.11
287.425	150.01
287.64	84.48
287.855	37.38
288.07	-26.11
288.285	41.47
288.5	35.33
288.715	86.53
288.93	20.99
289.145	45.57
289.36	131.58
289.575	74.24
289.79	-1.54
290.004	39.42
290.219	64
290.434	-9.73
290.649	-9.73
290.864	72.19
291.079	113.15
291.294	64
291.509	35.33
291.724	61.95
291.938	-56.83
292.153	117.25
292.368	-13.82
292.583	72.19
292.798	70.14
293.012	57.86
293.227	37.38
293.442	76.29
293.657	76.29
293.871	100.86
294.086	-26.11
294.301	78.33
294.516	61.95
294.73	27.14
294.945	84.48
295.16	33.28
295.374	96.77
295.589	102.91
295.804	31.23
296.018	123.39
296.233	107.01
296.447	-42.5
296.662	33.28
296.877	53.76
297.091	45.57
297.306	16.9
297.52	51.71
297.735	51.71
297.949	49.66
298.164	33.28
298.378	80.38
298.593	8.7
298.807	2.56
299.022	41.47
299.236	64
299.451	23.04
299.665	66.05
299.88	31.23
300.094	70.14
300.309	59.9
300.523	123.39
300.737	68.09
300.952	8.7
301.166	47.62
301.381	31.23
301.595	8.7
301.809	2.56
302.024	94.72
302.238	-1.54
302.452	64
302.667	66.05
302.881	66.05
303.095	100.86
303.309	55.81
303.524	33.28
303.738	174.59
303.952	49.66
304.166	94.72
304.381	39.42
304.595	31.23
304.809	-3.58
305.023	100.86
305.237	74.24
305.452	39.42
305.666	61.95
305.88	66.05
306.094	64
306.308	27.14
306.522	23.04
306.736	64
306.95	76.29
307.164	86.53
307.379	0.51
307.593	100.86
307.807	27.14
308.021	76.29
308.235	78.33
308.449	27.14
308.663	33.28
308.877	96.77
309.091	55.81
309.305	70.14
309.519	-17.92
309.733	90.62
309.947	-7.68
310.161	137.73
310.374	16.9
310.588	72.19
310.802	29.18
311.016	55.81
311.23	-3.58
311.444	-32.26
311.658	92.67
311.872	88.57
312.085	66.05
312.299	66.05
312.513	92.67
312.727	53.76
312.941	29.18
313.154	64
313.368	33.28
313.582	43.52
313.796	27.14
314.009	31.23
314.223	117.25
314.437	49.66
314.651	12.8
314.864	68.09
315.078	78.33
315.292	-17.92
315.505	64
315.719	119.29
315.933	10.75
316.146	-17.92
316.36	-7.68
316.573	51.71
316.787	23.04
317.001	20.99
317.214	-22.02
317.428	27.14
317.641	-5.63
317.855	33.28
318.068	59.9
318.282	61.95
318.495	135.68
318.709	76.29
318.922	8.7
319.136	78.33
319.349	39.42
319.563	55.81
319.776	115.2
319.99	70.14
320.203	51.71
320.417	104.96
320.63	47.62
320.843	90.62
321.057	12.8
321.27	18.94
321.483	88.57
321.697	61.95
321.91	133.63
322.124	61.95
322.337	98.81
322.55	10.75
322.763	121.34
322.977	4.61
323.19	25.09
323.403	-17.92
323.617	16.9
323.83	51.71
324.043	33.28
324.256	45.57
324.469	45.57
324.683	23.04
324.896	27.14
325.109	41.47
325.322	-22.02
325.535	111.1
325.748	43.52
325.962	6.66
326.175	121.34
326.388	-54.78
326.601	35.33
326.814	10.75
327.027	53.76
327.24	86.53
327.453	14.85
327.666	25.09
327.879	98.81
328.092	111.1
328.305	125.44
328.518	45.57
328.731	49.66
328.944	2.56
329.157	129.53
329.37	4.61
329.583	70.14
329.796	107.01
330.009	59.9
330.222	76.29
330.435	109.05
330.648	90.62
330.861	47.62
331.073	64
331.286	111.1
331.499	94.72
331.712	16.9
331.925	78.33
332.138	72.19
332.35	49.66
332.563	82.43
332.776	98.81
332.989	57.86
333.202	25.09
333.414	74.24
333.627	10.75
333.84	35.33
334.053	68.09
334.265	51.71
334.478	25.09
334.691	59.9
334.903	61.95
335.116	-7.68
335.329	8.7
335.541	98.81
335.754	113.15
335.966	59.9
336.179	31.23
336.392	86.53
336.604	27.14
336.817	72.19
337.029	45.57
337.242	-3.58
337.454	86.53
337.667	125.44
337.88	143.87
338.092	-17.92
338.305	64
338.517	31.23
338.729	80.38
338.942	119.29
339.154	111.1
339.367	53.76
339.579	31.23
339.792	68.09
340.004	70.14
340.217	2.56
340.429	82.43
340.641	133.63
340.854	82.43
341.066	51.71
341.278	80.38
341.491	135.68
341.703	74.24
341.915	33.28
342.128	92.67
342.34	98.81
342.552	49.66
342.764	14.85
342.977	55.81
343.189	88.57
343.401	80.38
343.613	18.94
343.826	29.18
344.038	98.81
344.25	90.62
344.462	96.77
344.674	61.95
344.886	-13.82
345.099	70.14
345.311	115.2
345.523	117.25
345.735	49.66
345.947	43.52
346.159	107.01
346.371	92.67
346.583	53.76
346.795	135.68
347.007	16.9
347.219	94.72
347.431	12.8
347.643	104.96
347.855	76.29
348.067	39.42
348.279	41.47
348.491	86.53
348.703	35.33
348.915	96.77
349.127	47.62
349.339	68.09
349.551	25.09
349.763	57.86
349.975	74.24
350.187	129.53
350.399	43.52
350.61	59.9
350.822	-1.54
351.034	57.86
351.246	72.19
351.458	68.09
351.669	6.66
351.881	82.43
352.093	70.14
352.305	96.77
352.517	64
352.728	86.53
352.94	94.72
353.152	55.81
353.363	45.57
353.575	74.24
353.787	84.48
353.999	64
354.21	94.72
354.422	-24.06
354.633	59.9
354.845	51.71
355.057	84.48
355.268	16.9
355.48	39.42
355.692	-26.11
355.903	111.1
356.115	-7.68
356.326	18.94
356.538	86.53
356.749	104.96
356.961	115.2
357.172	70.14
357.384	31.23
357.595	150.01
357.807	23.04
358.018	86.53
358.23	59.9
358.441	107.01
358.653	100.86
358.864	86.53
359.075	33.28
359.287	49.66
359.498	98.81
359.709	98.81
359.921	35.33
360.132	10.75
360.344	37.38
360.555	117.25
360.766	115.2
360.977	74.24
361.189	80.38
361.4	57.86
361.611	104.96
361.823	96.77
362.034	117.25
362.245	16.9
362.456	41.47
362.667	80.38
362.879	-9.73
363.09	64
363.301	23.04
363.512	57.86
363.723	78.33
363.935	-17.92
364.146	80.38
364.357	59.9
364.568	16.9
364.779	47.62
364.99	90.62
365.201	51.71
365.412	92.67
365.623	10.75
365.834	53.76
366.045	31.23
366.256	109.05
366.467	109.05
366.678	78.33
366.889	53.76
367.1	88.57
367.311	90.62
367.522	39.42
367.733	86.53
367.944	201.21
368.155	109.05
368.366	123.39
368.577	41.47
368.788	102.91
368.999	43.52
369.209	37.38
369.42	221.69
369.631	113.15
369.842	88.57
370.053	25.09
370.264	184.83
370.474	39.42
370.685	133.63
370.896	109.05
371.107	115.2
371.317	119.29
371.528	-30.21
371.739	92.67
371.95	158.21
372.16	127.49
372.371	18.94
372.582	41.47
372.792	47.62
373.003	-1.54
373.214	51.71
373.424	57.86
373.635	47.62
373.846	84.48
374.056	27.14
374.267	125.44
374.477	61.95
374.688	98.81
374.898	51.71
375.109	84.48
375.319	66.05
375.53	86.53
375.74	125.44
375.951	41.47
376.161	47.62
376.372	74.24
376.582	66.05
376.793	76.29
377.003	61.95
377.214	16.9
377.424	33.28
377.635	29.18
377.845	61.95
378.055	64
378.266	51.71
378.476	82.43
378.686	117.25
378.897	53.76
379.107	78.33
379.317	70.14
379.528	111.1
379.738	166.4
379.948	39.42
380.158	109.05
380.369	43.52
380.579	39.42
380.789	74.24
380.999	162.3
381.21	100.86
381.42	86.53
381.63	68.09
381.84	107.01
382.05	113.15
382.261	47.62
382.471	111.1
382.681	39.42
382.891	59.9
383.101	117.25
383.311	10.75
383.521	100.86
383.731	96.77
383.941	162.3
384.151	86.53
384.361	123.39
384.571	78.33
384.781	111.1
384.991	162.3
385.201	180.73
385.411	37.38
385.621	14.85
385.831	119.29
386.041	131.58
386.251	51.71
386.461	86.53
386.671	55.81
386.881	115.2
387.091	70.14
387.301	100.86
387.511	102.91
387.72	139.77
387.93	143.87
388.14	72.19
388.35	92.67
388.56	160.25
388.769	109.05
388.979	55.81
389.189	68.09
389.399	57.86
389.609	41.47
389.818	107.01
390.028	80.38
390.238	143.87
390.447	70.14
390.657	107.01
390.867	78.33
391.076	125.44
391.286	115.2
391.496	76.29
391.705	111.1
391.915	186.88
392.125	113.15
392.334	107.01
392.544	143.87
392.753	76.29
392.963	49.66
393.172	25.09
393.382	92.67
393.591	121.34
393.801	133.63
394.01	162.3
394.22	96.77
394.429	184.83
394.639	111.1
394.848	109.05
395.058	96.77
395.267	86.53
395.477	139.77
395.686	98.81
395.895	139.77
396.105	174.59
396.314	139.77
396.524	178.69
396.733	127.49
396.942	150.01
397.152	156.16
397.361	164.35
397.57	51.71
397.78	156.16
397.989	72.19
398.198	236.03
398.407	88.57
398.617	170.49
398.826	178.69
399.035	111.1
399.244	166.4
399.453	127.49
399.663	133.63
399.872	172.54
400.081	172.54
400.29	182.78
400.499	145.92
400.708	162.3
400.917	129.53
401.127	217.6
401.336	150.01
401.545	199.16
401.754	221.69
401.963	211.45
402.172	164.35
402.381	96.77
402.59	195.07
402.799	190.97
403.008	248.32
403.217	156.16
403.426	256.51
403.635	190.97
403.844	166.4
404.053	287.23
404.262	135.68
404.471	248.32
404.68	182.78
404.888	266.75
405.097	246.27
405.306	250.36
405.515	248.32
405.724	225.79
405.933	223.74
406.142	211.45
406.35	240.12
406.559	334.33
406.768	369.15
406.977	313.85
407.185	338.43
407.394	336.38
407.603	270.84
407.812	307.71
408.02	387.58
408.229	399.87
408.438	322.04
408.646	399.87
408.855	375.29
409.064	369.15
409.272	442.87
409.481	475.64
409.69	430.59
409.898	426.49
410.107	469.5
410.315	530.94
410.524	506.36
410.733	602.61
410.941	551.42
411.15	594.42
411.358	537.08
411.567	653.81
411.775	616.95
411.984	604.66
412.192	684.53
412.401	731.64
412.609	657.91
412.818	770.55
413.026	797.17
413.234	821.75
413.443	797.17
413.651	813.56
413.86	836.08
414.068	1032.69
414.276	1020.4
414.485	1036.78
414.693	1040.88
414.901	1065.46
415.11	1081.84
415.318	983.54
415.526	1165.81
415.734	1245.68
415.943	1260.01
416.151	1337.84
416.359	1249.77
416.567	1364.46
416.776	1466.86
416.984	1622.5
417.192	1499.63
417.4	1552.87
417.608	1581.54
417.817	1708.52
418.025	1720.81
418.233	1849.83
418.441	1829.35
418.649	1896.93
418.857	2038.24
419.065	2118.11
419.273	2099.68
419.481	2144.74
419.689	2175.45
419.897	2507.23
420.105	2417.12
420.313	2484.7
420.521	2476.51
420.729	2779.61
420.937	2730.45
421.145	2800.09
421.353	2916.82
421.561	3138
421.769	3226.06
421.977	3410.38
422.185	3197.39
422.393	3508.68
422.601	3631.56
422.809	3711.43
423.017	3680.71
423.224	3832.26
423.432	4088.26
423.64	4082.11
423.848	4360.64
424.056	4243.9
424.263	4547
424.471	4532.67
424.679	4721.08
424.887	4952.5
425.094	5061.04
425.302	5261.74
425.51	5333.42
425.718	5396.91
425.925	5493.16
426.133	5872.04
426.341	6072.74
426.548	6502.81
426.756	6355.36
426.964	6414.75
427.171	6875.54
427.379	7162.26
427.586	7053.72
427.794	7491.98
428.001	7616.91
428.209	7842.18
428.417	7942.53
428.624	8458.62
428.832	8470.91
429.039	8270.21
429.247	8470.91
429.454	9255.28
429.662	9824.62
429.869	9236.85
430.076	9910.63
430.284	9415.02
430.491	10221.92
430.699	10400.1
430.906	10514.78
431.114	10615.13
431.321	11213.14
431.528	11381.07
431.736	11907.4
431.943	12687.68
432.15	12265.8
432.358	12237.13
432.565	13078.84
432.772	12933.43
432.979	13529.39
433.187	13846.83
433.394	13961.51
433.601	14680.35
433.808	15059.23
434.016	14807.33
434.223	15456.53
434.43	16519.43
434.637	16021.77
434.844	17002.75
435.052	17508.6
435.259	17400.05
435.466	17414.39
435.673	17471.73
435.88	18518.25
436.087	19480.79
436.294	19460.31
436.501	19071.2
436.708	19445.98
436.915	20095.18
437.122	21127.36
437.329	20666.56
437.537	21723.32
437.743	21711.03
437.95	21405.88
438.157	22814.88
438.364	23488.67
438.571	23433.37
438.778	23806.1
438.985	25938.04
439.192	24981.63
439.399	25790.58
439.606	25110.66
439.813	26691.69
440.02	28059.73
440.227	27656.28
440.433	27447.39
440.64	28266.58
440.847	28373.07
441.054	28604.49
441.261	30496.81
441.467	30289.97
441.674	31209.51
441.881	31852.57
442.088	31969.3
442.294	31737.88
442.501	32311.31
442.708	33329.16
442.914	34396.15
443.121	35872.73
443.328	35278.82
443.534	37838.78
443.741	36446.16
443.948	35956.7
444.154	38551.48
444.361	38416.31
444.568	38666.16
444.774	38846.38
444.981	38651.83
445.187	40021.92
445.394	41465.74
445.6	41277.32
445.807	45049.68
446.013	43188.08
446.22	44062.56
446.426	45870.92
446.633	45735.75
446.839	47200.05
447.046	45653.83
447.252	48453.4
447.459	47877.93
447.665	48152.35
447.871	50251.52
448.078	52199.14
448.284	49569.55
448.491	50837.24
448.697	52946.65
448.903	53853.9
449.11	53505.74
449.316	53003.99
449.522	54105.8
449.728	55420.59
449.935	56184.49
450.141	55813.8
450.347	56690.33
450.553	55344.82
450.76	56123.05
450.966	57665.17
451.172	57091.74
451.378	58568.32
451.584	57642.64
451.791	58621.57
451.997	58564.23
452.203	59651.7
452.409	59596.4
452.615	59223.67
452.821	57749.13
453.027	57022.11
453.233	59547.25
453.44	57249.43
453.646	57835.15
453.852	57849.49
454.058	59213.43
454.264	57335.45
454.47	58404.48
454.676	57003.67
454.882	59059.83
455.088	54070.98
455.294	54920.89
455.5	55658.16
455.705	56172.2
455.911	54267.59
456.117	53190.36
456.323	52154.08
456.529	49897.22
456.735	52156.13
456.941	50470.65
457.147	49772.3
457.352	48699.16
457.558	48412.45
457.764	48039.71
457.97	46989.11
458.176	46038.85
458.381	45969.22
458.587	43868
458.793	44271.45
458.999	41545.61
459.204	44488.54
459.41	43401.07
459.616	40857.49
459.821	40908.69
460.027	40464.28
460.233	39575.46
460.438	37988.28
460.644	38248.38
460.85	36429.78
461.055	35952.6
461.261	35913.69
461.466	33140.74
461.672	32165.91
461.878	34605.04
462.083	32137.24
462.289	31547.42
462.494	31289.38
462.7	29802.55
462.905	28889.16
463.111	30144.56
463.316	30259.25
463.522	29556.8
463.727	29591.61
463.932	29720.63
464.138	29198.4
464.343	29497.41
464.549	28575.82
464.754	29569.08
464.959	29302.85
465.165	29257.79
465.37	27883.61
465.575	27027.56
465.781	28090.45
465.986	28334.16
466.191	27246.69
466.397	26871.91
466.602	25149.57
466.807	26531.95
467.012	26484.84
467.218	25938.04
467.423	26013.81
467.628	26009.72
467.833	27291.74
468.038	26175.6
468.244	25639.03
468.449	26538.09
468.654	25475.2
468.859	25503.87
469.064	25411.71
469.269	24514.7
469.474	24455.31
469.679	24979.59
469.885	24316.04
470.09	24967.3
470.295	24518.79
470.5	23890.07
470.705	24195.21
470.91	23484.57
471.115	23171.23
471.32	23605.4
471.525	23517.34
471.73	23015.58
471.935	22595.75
472.139	21926.07
472.344	22263.98
472.549	22040.75
472.754	21864.63
472.959	21237.95
473.164	21008.58
473.369	20728
473.574	21391.55
473.778	21311.67
473.983	21164.22
474.188	21059.77
474.393	20041.93
474.598	20160.72
474.802	20029.65
475.007	19800.27
475.212	20074.7
475.417	19056.86
475.621	18874.59
475.826	19124.44
476.031	18823.39
476.235	18512.1
476.44	18481.38
476.645	18284.78
476.849	18231.53
477.054	18186.47
477.259	17797.36
477.463	18022.64
477.668	17305.85
477.872	17549.56
478.077	17426.68
478.282	16759.04
478.486	16883.97
478.691	16738.56
478.895	16679.17
479.1	16439.56
479.304	16464.13
479.509	16230.66
479.713	16302.34
479.918	16003.34
480.122	15976.72
480.326	16068.87
480.531	16021.77
480.735	15788.3
480.94	15974.67
481.144	16173.32
481.348	15214.87
481.553	15499.54
481.757	15374.61
481.961	15548.69
482.166	15624.47
482.37	15417.62
482.574	15069.47
482.778	15210.78
482.983	15620.37
483.187	15413.52
483.391	15489.3
483.595	15124.76
483.8	15163.67
484.004	15276.31
484.208	15524.12
484.412	15413.52
484.616	15470.87
484.821	15157.53
485.025	15059.23
485.229	15524.12
485.433	15157.53
485.637	15192.34
485.841	15159.58
486.045	15190.3
486.249	15462.68
486.453	15034.65
486.657	15374.61
486.861	15327.51
487.065	14698.78
487.269	14985.5
487.473	14721.31
487.677	15221.02
487.881	15184.15
488.085	15169.82
488.289	15513.88
488.493	15274.26
488.697	15431.96
488.901	15192.34
489.105	15257.88
489.309	15286.55
489.512	15479.06
489.716	15304.98
489.92	15603.99
490.124	15513.88
490.328	15925.52
490.531	15434
490.735	15634.71
490.939	15737.1
491.143	15614.23
491.346	15806.73
491.55	16007.44
491.754	15657.23
491.958	15982.86
492.161	16040.2
492.365	15759.63
492.569	15943.95
492.772	16142.6
492.976	16238.86
493.18	16353.54
493.383	16275.72
493.587	16470.28
493.79	16724.22
493.994	16374.02
494.197	16861.44
494.401	16863.49
494.605	16705.79
494.808	17203.45
495.012	17000.7
495.215	17365.24
495.419	17547.51
495.622	17223.93
495.825	17438.97
496.029	17557.75
496.232	18063.6
496.436	18030.83
496.639	18354.41
496.843	18043.12
497.046	18665.7
497.249	18432.23
497.453	18518.25
497.656	19198.17
497.859	19316.95
498.063	19054.81
498.266	19704.02
498.469	19419.35
498.673	19663.06
498.876	19763.41
499.079	20306.12
499.282	20054.22
499.485	20693.19
499.689	20685
499.892	21268.67
500.095	21115.07
500.298	21541.05
500.501	21229.76
500.705	21903.54
500.908	22184.11
501.111	22397.1
501.314	22503.59
501.517	22810.79
501.72	23195.81
501.923	23029.92
502.126	23742.61
502.329	23718.04
502.532	24031.38
502.735	23804.05
502.938	24471.69
503.141	24529.03
503.344	25014.4
503.547	25235.58
503.75	25518.2
503.953	26095.73
504.156	26251.38
504.359	26441.84
504.562	26284.14
504.765	26982.5
504.968	27066.47
505.17	27465.82
505.373	27461.72
505.576	28235.86
505.779	28407.89
505.982	28332.11
506.185	28633.16
506.387	28880.97
506.59	29333.57
506.793	29728.83
506.996	29671.48
507.198	30582.83
507.401	30218.29
507.604	30793.77
507.807	31424.54
508.009	31701.02
508.212	31655.96
508.415	32079.89
508.617	32595.98
508.82	32403.47
509.022	32151.57
509.225	33198.09
509.428	33441.79
509.63	33568.77
509.833	33957.88
510.035	34660.34
510.238	34347
510.44	34652.14
510.643	35799.01
510.845	35540.96
511.048	35418.08
511.25	36026.33
511.453	36204.5
511.655	37371.85
511.858	36898.76
512.06	37580.74
512.262	37990.33
512.465	37826.49
512.667	38301.62
512.87	38600.63
513.072	38815.66
513.274	39307.18
513.477	39698.34
513.679	40075.16
513.881	40398.74
514.084	40863.63
514.286	40953.74
514.488	40882.06
514.69	41957.25
514.893	42211.2
515.095	41934.72
515.297	42692.47
515.499	42690.42
515.701	43265.9
515.904	43585.38
516.106	43620.2
516.308	44476.25
516.51	44771.16
516.712	44459.87
516.914	45158.22
517.116	46262.08
517.318	45901.64
517.52	46044.99
517.722	46075.71
517.925	46849.85
518.127	47609.64
518.329	47519.53
518.531	47423.28
518.733	48506.65
518.935	48428.83
519.136	48570.14
519.338	49194.77
519.54	49669.9
519.742	49864.46
519.944	50226.95
520.146	50525.95
520.348	50474.75
520.55	51048.18
520.752	51173.11
520.954	51980.01
521.155	51418.86
521.357	52076.26
521.559	52555.49
521.761	53032.66
521.963	52958.94
522.164	53438.16
522.366	53538.51
522.568	53673.68
522.77	54275.78
522.971	54955.71
523.173	54613.69
523.375	55461.55
523.576	55219.89
523.778	55101.11
523.98	55613.1
524.181	56024.75
524.383	56100.52
524.584	56614.56
524.786	56743.58
524.988	56313.51
525.189	56880.8
525.391	57167.51
525.592	57519.76
525.794	57626.26
525.995	57880.2
526.197	57431.7
526.398	57732.75
526.6	58289.8
526.801	58347.14
527.003	58623.62
527.204	58517.12
527.406	58896
527.607	59041.4
527.808	59461.24
528.01	58549.89
528.211	59100.79
528.412	60049
528.614	59555.44
528.815	59657.84
529.016	60175.98
529.218	59838.06
529.419	59948.65
529.62	60042.86
529.822	60079.72
530.023	60294.76
530.224	60601.96
530.425	60102.25
530.626	59582.07
530.828	60071.53
531.029	60735.07
531.23	60407.4
531.431	60460.65
531.632	60403.3
531.833	60796.51
532.035	60694.11
532.236	60634.72
532.437	60931.68
532.638	60675.68
532.839	61113.95
533.04	60804.7
533.241	60503.65
533.442	61521.49
533.643	61298.26
533.844	61072.99
534.045	61435.48
534.246	60589.67
534.447	61247.07
534.648	60745.31
534.849	60964.45
535.05	60794.46
535.251	60974.69
535.451	60999.26
535.652	61431.38
535.853	61099.61
536.054	61292.12
536.255	61075.04
536.456	60503.65
536.657	61339.22
536.857	60960.35
537.058	60720.74
537.259	61341.27
537.46	60929.63
537.66	60948.06
537.861	61060.7
538.062	60718.69
538.263	61261.4
538.463	60880.48
538.664	60812.9
538.865	61193.82
539.065	60843.62
539.266	60616.29
539.466	61118.04
539.667	60399.21
539.868	61152.86
540.068	60630.63
540.269	61087.32
540.469	61029.98
540.67	60417.64
540.87	60868.19
541.071	60436.07
541.271	60761.7
541.472	60499.56
541.672	60419.69
541.873	60159.59
542.073	59895.41
542.274	61054.56
542.474	60264.04
542.675	60354.15
542.875	60755.55
543.075	60419.69
543.276	60028.52
543.476	60415.59
543.676	60137.07
543.877	60458.6
544.077	60227.18
544.277	60245.61
544.478	60075.63
544.678	60509.8
544.878	60010.09
545.078	60341.86
545.279	59522.68
545.479	59795.06
545.679	60202.6
545.879	60020.33
546.079	60071.53
546.28	59809.39
546.48	59844.21
546.68	60098.15
546.88	60118.63
547.08	60272.23
547.28	59774.58
547.48	59326.07
547.68	59805.3
547.88	59453.04
548.081	59965.04
548.281	59690.61
548.481	59571.83
548.681	60317.29
548.881	59666.03
549.081	59907.69
549.28	59571.83
549.48	60006
549.68	59156.09
549.88	60337.77
550.08	59623.03
550.28	60073.58
550.48	59698.8
550.68	60143.21
550.88	59455.09
551.08	59602.55
551.279	59715.18
551.479	59512.44
551.679	59141.75
551.879	59334.26
552.079	59649.65
552.278	58957.44
552.478	59338.36
552.678	59706.99
552.878	59584.11
553.077	59192.95
553.277	59172.47
553.477	59510.39
553.676	59319.93
553.876	59432.57
554.076	58947.2
554.275	58951.29
554.475	58826.37
554.674	59180.66
554.874	59020.92
555.074	59258.49
555.273	58988.16
555.473	59211.38
555.672	58558.08
555.872	58830.46
556.071	59154.04
556.271	58957.44
556.47	58560.13
556.67	58269.32
556.869	58777.22
557.068	58670.72
557.268	58162.82
557.467	58431.11
557.667	58121.87
557.866	58560.13
558.065	58470.02
558.265	58066.57
558.464	58013.32
558.663	58615.43
558.863	57982.6
559.062	58365.57
559.261	57726.61
559.461	58246.79
559.66	57192.09
559.859	57718.42
560.058	57446.04
560.258	57904.78
560.457	57325.21
560.656	57759.37
560.855	57306.77
561.054	57697.94
561.253	56802.97
561.453	57126.55
561.652	57284.25
561.851	57573.01
562.05	57169.56
562.249	57218.71
562.448	57319.06
562.647	57257.62
562.846	57179.8
563.045	57200.28
563.244	56393.38
563.443	57384.6
563.642	56198.82
563.841	56811.17
564.04	56049.32
564.239	56858.27
564.438	56164.01
564.637	56424.1
564.836	56399.52
565.035	55717.55
565.234	56219.3
565.432	55336.63
565.631	55910.06
565.83	56051.37
566.029	55783.08
566.228	55291.57
566.427	55664.3
566.625	55189.17
566.824	55244.47
567.023	55492.27
567.222	54578.88
567.42	55760.56
567.619	55291.57
567.818	55060.15
568.016	55000.76
568.215	55201.46
568.414	54816.44
568.612	55398.07
568.811	54652.61
569.01	54595.26
569.208	53921.48
569.407	54949.56
569.605	54167.24
569.804	54578.88
570.002	53771.98
570.201	54386.37
570.4	53833.42
570.598	53853.9
570.797	53472.98
570.995	54087.37
571.193	53565.13
571.392	54030.02
571.59	53294.8
571.789	53266.13
571.987	53300.95
572.186	52829.91
572.384	52883.16
572.582	52823.77
572.781	53339.86
572.979	52399.84
573.177	53051.09
573.376	53466.83
573.574	52428.51
573.772	52670.17
573.971	52416.22
574.169	52115.17
574.367	51789.55
574.565	52270.82
574.763	52184.8
574.962	51810.03
575.16	51529.45
575.358	51775.21
575.556	51203.83
575.754	52014.82
575.952	51128.05
576.151	51638
576.349	50618.11
576.547	50849.53
576.745	51302.13
576.943	51109.62
577.141	51191.54
577.339	51543.79
577.537	50798.33
577.735	50974.45
577.933	50212.61
578.131	50364.16
578.329	49893.13
578.527	49856.26
578.725	50175.75
578.923	50519.81
579.121	49641.23
579.319	49540.88
579.516	49391.37
579.714	49745.67
579.912	49860.36
580.11	49733.39
580.308	49180.43
580.506	49147.67
580.704	48529.18
580.901	49237.78
581.099	49014.55
581.297	48774.94
581.495	48443.16
581.692	48967.44
581.89	48221.98
582.088	48496.41
582.285	48191.26
582.483	48359.2
582.681	48297.76
582.878	48095.01
583.076	47855.4
583.274	48111.39
583.471	47173.42
583.669	47654.7
583.866	47167.28
584.064	47537.96
584.262	46970.68
584.459	47140.66
584.657	46735.16
584.854	47191.86
585.052	46389.05
585.249	46651.19
585.447	46677.82
585.644	46335.8
585.841	46436.16
586.039	46903.09
586.236	45829.96
586.434	45928.26
586.631	45578.06
586.828	45854.53
587.026	45690.69
587.223	45784.9
587.42	45125.46
587.618	45338.44
587.815	44875.6
588.012	44879.7
588.21	44980.05
588.407	45219.66
588.604	44638.04
588.801	44158.81
588.999	44429.15
589.196	43958.11
589.393	44580.7
589.59	44056.42
589.787	44330.84
589.984	43732.84
590.182	43564.9
590.379	43960.16
590.576	43763.56
590.773	43220.84
590.97	43296.62
591.167	43179.89
591.364	42731.38
591.561	43276.14
591.758	42913.65
591.955	42659.7
592.152	43200.36
592.349	42807.15
592.546	42923.89
592.743	42684.28
592.94	42119.04
593.137	42065.79
593.334	42172.28
593.531	41619.33
593.727	42078.08
593.924	41774.98
594.121	41658.24
594.318	41912.19
594.515	41004.94
594.712	41758.59
594.908	41305.99
595.105	41252.75
595.302	40923.02
595.499	41025.42
595.696	40695.7
595.892	40468.37
596.089	40710.03
596.286	40642.45
596.482	40431.51
596.679	40642.45
596.876	40566.68
597.072	40021.92
597.269	39735.2
597.466	39653.28
597.662	39679.91
597.859	39602.08
598.055	39827.36
598.252	39399.33
598.448	39212.97
598.645	38987.69
598.841	38940.59
599.038	38832.05
599.234	38965.17
599.431	38582.2
599.627	38559.67
599.824	38817.71
600.02	37875.65
600.217	38711.22
600.413	38004.67
600.609	38049.72
600.806	37736.38
601.002	38035.39
601.198	37828.54
601.395	37760.96
601.591	37597.12
601.787	37492.68
601.984	37089.23
602.18	37441.48
602.376	36978.64
602.572	36818.89
602.769	36763.6
602.965	37015.5
603.161	37099.47
603.357	36499.41
603.553	36331.48
603.75	36659.15
603.946	36071.39
604.142	36003.8
604.338	35817.44
604.534	35872.73
604.73	35536.87
604.926	35813.34
605.122	35643.36
605.318	35573.73
605.514	35364.84
605.71	35131.37
605.906	35403.75
606.102	35166.18
606.298	34938.86
606.494	35391.46
606.69	34996.2
606.886	35098.6
607.082	34283.51
607.278	34701.29
607.474	34551.79
607.67	34680.81
607.866	34189.3
608.062	34684.91
608.257	34234.36
608.453	34367.48
608.649	34228.21
608.845	33695.74
609.041	33837.05
609.236	34181.11
609.432	33648.64
609.628	33910.78
609.824	33789.95
610.019	33691.65
610.215	33910.78
610.411	33955.83
610.606	33576.96
610.802	33798.14
610.998	33681.41
611.193	33378.31
611.389	32815.12
611.584	33460.23
611.78	32751.63
611.976	33110.02
612.171	32976.9
612.367	33085.45
612.562	32782.35
612.758	32638.99
612.953	32733.2
613.149	32682
613.344	32514.06
613.539	32772.11
613.735	32626.7
613.93	33159.17
614.126	32546.83
614.321	32589.84
614.517	32325.65
614.712	32462.86
614.907	31971.35
615.103	32321.55
615.298	32114.71
615.493	32579.6
615.688	31815.71
615.884	32272.4
616.079	31756.32
616.274	32219.16
616.47	31539.23
616.665	31752.22
616.86	31461.41
617.055	31494.18
617.25	31565.85
617.445	31641.63
617.641	31137.83
617.836	31289.38
618.031	30945.32
618.226	31170.6
618.421	31027.24
618.616	31287.33
618.811	30720.04
619.006	31088.68
619.201	30445.62
619.396	30308.4
619.591	30249.01
619.786	30122.04
619.981	29759.55
620.176	30267.44
620.371	29360.19
620.566	29870.14
620.761	29745.21
620.956	29808.7
621.151	29120.58
621.346	29495.36
621.541	29270.08
621.735	29286.47
621.93	28790.86
622.125	28692.55
622.32	28248.14
622.515	28821.58
622.709	28348.5
622.904	28299.34
623.099	28033.11
623.294	28166.23
623.488	27727.96
623.683	27887.7
623.878	27406.43
624.072	27695.19
624.267	27261.02
624.462	27168.87
624.656	27033.7
624.851	27181.15
625.046	26947.68
625.24	26720.36
625.435	26454.12
625.629	26343.53
625.824	26118.26
626.018	26042.48
626.213	25510.01
626.407	25856.12
626.602	25417.85
626.796	25290.88
626.991	25448.57
627.185	25182.34
627.38	25159.81
627.574	24836.23
627.768	24807.56
627.963	24565.9
628.157	24357
628.352	24617.1
628.546	24115.34
628.74	24227.98
628.935	23675.03
629.129	23791.76
629.323	23900.31
629.517	23568.54
629.712	23253.15
629.906	23517.34
630.1	22839.46
630.294	23189.66
630.489	22775.97
630.683	23095.46
630.877	22653.09
631.071	22812.84
631.265	22673.57
631.459	22476.97
631.653	22446.25
631.848	22200.49
632.042	22317.23
632.236	22159.53
632.43	21885.11
632.624	21917.87
632.818	21647.54
633.012	21403.83
633.206	21532.86
633.4	21479.61
633.594	21051.58
633.788	21104.83
633.982	20795.59
634.176	21094.59
634.369	21078.21
634.563	20695.24
634.757	20605.13
634.951	20324.55
635.145	20238.54
635.339	20525.25
635.533	20199.63
635.726	20123.85
635.92	19771.6
636.114	19783.89
636.308	19792.08
636.501	19839.19
636.695	19525.85
636.889	19642.58
637.083	19417.3
637.276	19220.7
637.47	19302.62
637.664	19108.06
637.857	19384.54
638.051	18749.67
638.244	18653.41
638.438	18637.03
638.632	18598.12
638.825	18495.72
639.019	18602.21
639.212	18487.53
639.406	18231.53
639.599	18145.52
639.793	18002.16
639.986	17916.14
640.18	17844.46
640.373	17795.31
640.567	17572.08
640.76	17586.42
640.954	17477.88
641.147	17330.42
641.34	17453.3
641.534	17389.81
641.727	17082.62
641.92	17197.31
642.114	16906.49
642.307	16929.02
642.5	16873.73
642.694	16529.67
642.887	16580.87
643.08	16859.39
643.273	16781.57
643.467	16353.54
643.66	16371.97
643.853	16156.94
644.046	16148.75
644.239	16105.74
644.432	15864.08
644.626	16042.25
644.819	15956.24
645.012	16023.82
645.205	15698.19
645.398	15634.71
645.591	15735.06
645.784	15638.8
645.977	15315.22
646.17	15270.17
646.363	15186.2
646.556	14993.69
646.749	15046.94
646.942	15044.89
647.135	14866.72
647.328	14758.17
647.521	14612.77
647.714	14678.3
647.907	14686.5
648.099	14516.51
648.292	14692.64
648.485	14326.05
648.678	14260.52
648.871	14160.17
649.064	14022.95
649.256	14156.07
649.449	14151.98
649.642	14008.62
649.835	13639.98
650.027	13787.44
650.22	13664.56
650.413	13678.9
650.605	13801.77
650.798	13508.91
650.991	13257.01
651.183	13416.76
651.376	13091.13
651.568	13320.5
651.761	13150.52
651.954	13005.11
652.146	13091.13
652.339	12945.72
652.531	12794.17
652.724	12839.23
652.916	12593.47
653.109	12667.2
653.301	12714.3
653.494	12740.93
653.686	12314.95
653.879	12499.27
654.071	12392.77
654.263	12327.24
654.456	12267.84
654.648	12226.89
654.84	11909.45
655.033	12069.19
655.225	12067.14
655.417	11893.07
655.61	11790.67
655.802	11858.25
655.994	11690.32
656.186	11716.94
656.379	11567.44
656.571	11526.48
656.763	11612.49
656.955	11442.51
657.148	11477.33
657.34	11563.34
657.532	11098.45
657.724	11241.81
657.916	11344.21
658.108	11049.3
658.3	10987.86
658.492	10885.47
658.684	10916.19
658.876	10940.76
659.068	10842.46
659.26	10760.54
659.452	10869.08
659.644	10619.23
659.836	10504.54
660.028	10420.58
660.22	10494.3
660.412	10406.24
660.604	10236.26
660.796	10385.76
660.988	10361.19
661.18	10185.06
661.372	9998.7
661.563	10203.49
661.755	10125.67
661.947	10066.28
662.139	10017.13
662.331	9990.5
662.522	9892.2
662.714	10002.79
662.906	9535.85
663.097	9787.75
663.289	9697.64
663.481	9402.74
663.673	9476.46
663.864	9570.67
664.056	9355.63
664.247	9419.12
664.439	9359.73
664.631	9443.7
664.822	9386.35
665.014	9208.18
665.205	9245.04
665.397	9167.22
665.588	9165.17
665.78	9064.82
665.971	9011.57
666.163	9044.34
666.354	8890.74
666.546	8698.24
666.737	8743.29
666.929	8806.78
667.12	8591.74
667.311	8659.32
667.503	8632.7
667.694	8593.79
667.885	8599.93
668.077	8589.69
668.268	8393.09
668.459	8442.24
668.651	8679.8
668.842	8540.54
669.033	8305.03
669.224	8268.16
669.416	8384.9
669.607	8202.63
669.798	8096.13
669.989	8118.66
670.18	8227.2
670.371	8124.8
670.563	7889.29
670.754	7842.18
670.945	7877
671.136	7920.01
671.327	7874.95
671.518	7788.94
671.709	7877
671.9	7805.32
672.091	7803.27
672.282	7637.39
672.473	7793.03
672.664	7567.76
672.855	7639.44
673.046	7588.24
673.237	7655.82
673.428	7598.48
673.619	7459.21
673.809	7481.74
674	7436.69
674.191	7326.1
674.382	7506.32
674.573	7381.39
674.764	7485.84
674.954	7354.77
675.145	7205.27
675.336	7121.3
675.527	7141.78
675.717	7268.75
675.908	7076.24
676.099	7168.4
676.289	7086.48
676.48	7000.47
676.671	6853.02
676.861	7043.48
677.052	7016.85
677.243	6975.89
677.433	7027.09
677.624	7051.67
677.814	7002.52
678.005	7012.76
678.195	6867.35
678.386	6998.42
678.576	6754.71
678.767	6762.9
678.957	6678.94
679.148	6814.1
679.338	6785.43
679.529	6754.71
679.719	6758.81
679.909	6830.49
680.1	6588.83
680.29	6705.56
680.481	6599.07
680.671	6801.82
680.861	6599.07
681.052	6664.6
681.242	6472.09
681.432	6629.79
681.622	6517.15
681.813	6453.66
682.003	6601.12
682.193	6455.71
682.383	6496.67
682.573	6369.69
682.764	6416.8
682.954	6365.6
683.144	6207.91
683.334	6314.4
683.524	6320.54
683.714	6422.94
683.904	6320.54
684.094	6148.51
684.284	6265.25
684.474	6273.44
684.664	6146.47
684.854	6101.41
685.044	5994.92
685.234	6078.88
685.424	6140.32
685.614	6058.4
685.804	6013.35
685.994	6111.65
686.184	6128.03
686.374	5937.57
686.564	5982.63
686.753	5894.57
686.943	5951.91
687.133	5878.18
687.323	5847.46
687.513	5980.58
687.702	5759.4
687.892	5704.1
688.082	5857.7
688.272	5820.84
688.461	5773.74
688.651	5648.81
688.841	5624.23
689.03	5720.49
689.22	5671.34
689.41	5525.93
689.599	5534.12
689.789	5564.84
689.979	5444.01
690.168	5427.63
690.358	5597.61
690.547	5421.49
690.737	5386.67
690.926	5435.82
691.116	5368.24
691.305	5495.21
691.495	5233.07
691.684	5128.63
691.874	5300.66
692.063	5124.53
692.252	5202.35
692.442	5317.04
692.631	5089.71
692.82	5099.95
693.01	5099.95
693.199	4975.03
693.388	4917.68
693.578	5065.14
693.767	5020.08
693.956	4878.77
694.146	4757.94
694.335	4915.64
694.524	4882.87
694.713	4899.25
694.902	4837.81
695.092	4811.19
695.281	4803
695.47	4764.09
695.659	4665.78
695.848	4614.59
696.037	4594.11
696.226	4686.26
696.415	4614.59
696.604	4501.95
696.793	4544.95
696.982	4600.25
697.171	4702.65
697.36	4532.67
697.549	4403.64
697.738	4549.05
697.927	4465.08
698.116	4489.66
698.305	4387.26
698.494	4377.02
698.683	4364.73
698.872	4422.08
699.061	4297.15
699.25	4436.41
699.438	4374.97
699.627	4295.1
699.816	4364.73
700.005	4235.71
700.193	4327.87
700.382	4340.16
700.571	4274.62
700.76	4342.21
700.948	4196.8
701.137	4153.79
701.326	4149.7
701.514	4258.24
701.703	4207.04
701.892	4258.24
702.08	4153.79
702.269	4041.15
702.457	4151.74
702.646	4118.98
702.834	4114.88
703.023	4041.15
703.212	4176.32
703.4	4063.68
703.589	3998.15
703.777	4055.49
703.965	3949
704.154	3996.1
704.342	4065.73
704.531	3965.38
704.719	4045.25
704.907	3992
705.096	3899.84
705.284	3969.48
705.472	3934.66
705.661	4012.48
705.849	3910.08
706.037	3965.38
706.226	3936.71
706.414	3957.19
706.602	3828.17
706.79	4016.58
706.979	4043.2
707.167	3942.85
707.355	3942.85
707.543	3793.35
707.731	3852.74
707.919	3852.74
708.107	3895.75
708.296	3934.66
708.484	3770.82
708.672	3912.13
708.86	3930.56
709.048	3746.25
709.236	3752.39
709.424	3901.89
709.612	3797.45
709.8	3768.77
709.988	3830.21
710.176	3678.66
710.364	3822.02
710.551	3748.29
710.739	3807.69
710.927	3721.67
711.115	3869.12
711.303	3946.95
711.491	3668.42
711.679	3793.35
711.866	3623.37
712.054	3840.45
712.242	3660.23
712.43	3738.05
712.617	3625.42
712.805	3619.27
712.993	3656.14
713.181	3535.31
713.368	3617.22
713.556	3668.42
713.744	3658.18
713.931	3736.01
714.119	3652.04
714.306	3594.7
714.494	3721.67
714.682	3473.87
714.869	3494.35
715.057	3672.52
715.244	3690.95
715.432	3621.32
715.619	3611.08
715.807	3512.78
715.994	3690.95
716.182	3617.22
716.369	3699.14
716.556	3699.14
716.744	3600.84
716.931	3508.68
717.119	3625.42
717.306	3662.28
717.493	3492.3
717.681	3619.27
717.868	3596.75
718.055	3541.45
718.242	3553.74
718.43	3572.17
718.617	3604.94
718.804	3504.59
718.991	3545.55
719.179	3600.84
719.366	3574.22
719.553	3631.56
719.74	3656.14
719.927	3609.03
720.114	3715.53
720.301	3566.03
720.488	3570.12
720.676	3631.56
720.863	3494.35
721.05	3695.05
721.237	3602.89
721.424	3510.73
721.611	3600.84
721.798	3566.03
721.985	3533.26
722.172	3480.01
722.358	3678.66
722.545	3652.04
722.732	3520.97
722.919	3541.45
723.106	3547.59
723.293	3533.26
723.48	3533.26
723.667	3549.64
723.853	3609.03
724.04	3602.89
724.227	3557.83
724.414	3547.59
724.6	3539.4
724.787	3551.69
724.974	3529.16
725.161	3471.82
725.347	3414.48
725.534	3496.39
725.72	3455.44
725.907	3606.98
726.094	3592.65
726.28	3482.06
726.467	3414.48
726.653	3602.89
726.84	3590.6
727.027	3693
727.213	3467.72
727.4	3598.79
727.586	3492.3
727.773	3617.22
727.959	3420.62
728.145	3631.56
728.332	3541.45
728.518	3617.22
728.705	3580.36
728.891	3604.94
729.077	3664.33
729.264	3619.27
729.45	3574.22
729.636	3647.94
729.823	3580.36
730.009	3598.79
730.195	3690.95
730.382	3539.4
730.568	3639.75
730.754	3596.75
730.94	3596.75
731.126	3709.38
731.313	3543.5
731.499	3547.59
731.685	3641.8
731.871	3514.83
732.057	3619.27
732.243	3631.56
732.429	3649.99
732.615	3686.86
732.801	3701.19
732.987	3617.22
733.173	3598.79
733.359	3719.62
733.545	3518.92
733.731	3641.8
733.917	3654.09
734.103	3604.94
734.289	3770.82
734.475	3660.23
734.661	3668.42
734.847	3729.86
735.033	3488.2
735.219	3535.31
735.404	3750.34
735.59	3621.32
735.776	3699.14
735.962	3621.32
736.148	3652.04
736.333	3699.14
736.519	3779.01
736.705	3738.05
736.89	3643.85
737.076	3686.86
737.262	3629.51
737.447	3772.87
737.633	3639.75
737.819	3715.53
738.004	3588.55
738.19	3836.36
738.375	3652.04
738.561	3860.93
738.747	3791.3
738.932	3690.95
739.118	3799.49
739.303	3682.76
739.489	3705.29
739.674	3693
739.859	3561.93
740.045	3598.79
740.23	3693
740.416	3719.62
740.601	3633.61
740.786	3766.73
740.972	3686.86
741.157	3537.35
741.342	3533.26
741.528	3654.09
741.713	3566.03
741.898	3576.27
742.084	3553.74
742.269	3680.71
742.454	3537.35
742.639	3645.9
742.824	3549.64
743.01	3592.65
743.195	3619.27
743.38	3615.18
743.565	3678.66
743.75	3531.21
743.935	3652.04
744.12	3486.15
744.305	3477.96
744.49	3420.62
744.675	3596.75
744.86	3488.2
745.045	3525.07
745.23	3555.79
745.415	3377.61
745.6	3418.57
745.785	3426.76
745.97	3643.85
746.155	3381.71
746.34	3391.95
746.525	3353.04
746.71	3480.01
746.895	3207.63
747.079	3295.69
747.264	3377.61
747.449	3494.35
747.634	3297.74
747.819	3471.82
748.003	3258.83
748.188	3277.26
748.373	3357.13
748.557	3402.19
748.742	3203.54
748.927	3150.29
749.111	3191.25
749.296	3289.55
749.481	3097.04
749.665	3150.29
749.85	2970.07
750.034	3154.38
750.219	3152.34
750.404	3140.05
750.588	3240.4
750.773	2994.64
750.957	3119.57
751.141	3019.22
751.326	3070.42
751.51	3056.08
751.695	2968.02
751.879	3062.23
752.064	3074.51
752.248	2900.44
752.432	2968.02
752.617	2900.44
752.801	3031.51
752.985	2914.77
753.17	2925.01
753.354	2863.57
753.538	2787.8
753.722	2843.09
753.907	2707.93
754.091	2716.12
754.275	2732.5
754.459	2716.12
754.643	2726.36
754.828	2839
755.012	2769.37
755.196	2585.05
755.38	2720.21
755.564	2560.47
755.748	2609.62
755.932	2724.31
756.116	2576.86
756.3	2449.88
756.484	2525.66
756.668	2623.96
756.852	2544.09
757.036	2626.01
757.22	2511.32
757.404	2486.75
757.588	2560.47
757.772	2513.37
757.956	2425.31
758.14	2505.18
758.323	2372.06
758.507	2478.55
758.691	2443.74
758.875	2478.55
759.059	2431.45
759.242	2310.62
759.426	2263.52
759.61	2288.09
759.794	2224.61
759.977	2322.91
760.161	2425.31
760.345	2394.59
760.528	2296.28
760.712	2318.81
760.895	2279.9
761.079	2337.24
761.263	2177.5
761.446	2173.41
761.63	2183.65
761.813	2159.07
761.997	2159.07
762.18	2144.74
762.364	2171.36
762.547	2124.26
762.731	2240.99
762.914	2077.15
763.098	2099.68
763.281	2222.56
763.464	2062.82
763.648	2025.95
763.831	2005.47
764.015	2087.39
764.198	2044.38
764.381	2089.44
764.564	2079.2
764.748	2003.43
764.931	2089.44
765.114	1946.08
765.297	2118.11
765.481	2071.01
765.664	2046.43
765.847	1956.32
766.03	1993.19
766.213	1956.32
766.397	1972.71
766.58	1970.66
766.763	1935.84
766.946	1862.12
767.129	1872.36
767.312	1864.16
767.495	1833.44
767.678	1845.73
767.861	2001.38
768.044	1911.27
768.227	1778.15
768.41	1858.02
768.593	1794.53
768.776	1974.75
768.959	1905.12
769.142	1886.69
769.324	1802.72
769.507	1772
769.69	1714.66
769.873	1796.58
770.056	1755.62
770.239	1772
770.421	1815.01
770.604	1817.06
770.787	1710.57
770.97	1702.37
771.152	1667.56
771.335	1786.34
771.518	1657.32
771.7	1778.15
771.883	1761.77
772.066	1673.7
772.248	1722.85
772.431	1735.14
772.613	1616.36
772.796	1640.93
772.978	1683.94
773.161	1729
773.343	1587.69
773.526	1589.74
773.708	1507.82
773.891	1434.09
774.073	1567.21
774.256	1550.82
774.438	1612.26
774.621	1505.77
774.803	1565.16
774.985	1495.53
775.168	1561.06
775.35	1495.53
775.532	1538.54
775.715	1499.63
775.897	1458.67
776.079	1397.23
776.261	1536.49
776.444	1393.13
776.626	1380.84
776.808	1391.08
776.99	1468.91
777.173	1370.6
777.355	1421.8
777.537	1321.45
777.719	1446.38
777.901	1292.78
778.083	1303.02
778.265	1434.09
778.447	1360.36
778.629	1233.39
778.811	1331.69
778.993	1231.34
779.175	1292.78
779.357	1210.86
779.539	1286.64
779.721	1178.09
779.903	1229.29
780.085	1290.73
780.267	1260.01
780.449	1241.58
780.631	1055.22
780.812	1047.02
780.994	1190.38
781.176	1118.7
781.358	1178.09
781.54	1067.5
781.721	1190.38
781.903	1135.09
782.085	1055.22
782.267	1042.93
782.448	1112.56
782.63	1024.5
782.812	1087.98
782.993	1114.61
783.175	1055.22
783.357	1028.59
783.538	975.35
783.72	1030.64
783.901	1006.06
784.083	1053.17
784.264	930.29
784.446	936.43
784.627	891.38
784.809	950.77
784.99	913.91
785.172	911.86
785.353	905.71
785.535	950.77
785.716	893.43
785.897	891.38
786.079	956.91
786.26	805.36
786.441	881.14
786.623	827.89
786.804	870.9
786.985	905.71
787.167	942.58
787.348	899.57
787.529	963.06
787.71	901.62
787.891	774.64
788.073	799.22
788.254	788.98
788.435	838.13
788.616	815.6
788.797	813.56
788.978	805.36
789.159	684.53
789.34	823.8
789.522	797.17
789.703	803.32
789.884	811.51
790.065	741.88
790.246	838.13
790.427	737.78
790.607	813.56
790.788	733.68
790.969	688.63
791.15	729.59
791.331	715.25
791.512	688.63
791.693	702.97
791.874	653.81
792.054	770.55
792.235	692.73
792.416	688.63
792.597	682.49
792.778	741.88
792.958	692.73
793.139	676.34
793.32	641.53
793.5	616.95
793.681	569.85
793.862	594.42
794.042	596.47
794.223	604.66
794.404	631.29
794.584	586.23
794.765	526.84
794.945	582.14
795.126	606.71
795.306	555.51
795.487	557.56
795.667	508.41
795.848	653.81
796.028	639.48
796.209	584.18
796.389	619
796.57	606.71
796.75	483.83
796.93	586.23
797.111	514.55
797.291	516.6
797.471	514.55
797.652	498.17
797.832	633.33
798.012	580.09
798.192	561.66
798.373	471.54
798.553	457.21
798.733	516.6
798.913	487.93
799.093	524.79
799.274	616.95
799.454	457.21
799.634	459.26
799.814	522.74
799.994	481.78
800.174	567.8
800.354	584.18
800.534	467.45
800.714	520.7
800.894	510.46
801.074	489.98
801.254	483.83
801.434	485.88
801.614	508.41
801.794	451.07
801.974	1124.85
802.154	438.78
802.334	483.83
802.514	416.25
802.693	485.88
802.873	461.3
803.053	444.92
803.233	414.2
803.413	446.97
803.592	457.21
803.772	397.82
803.952	471.54
804.131	408.06
804.311	473.59
804.491	477.69
804.67	342.52
804.85	430.59
805.03	373.24
805.209	365.05
805.389	449.02
805.568	371.19
805.748	340.47
805.928	373.24
806.107	416.25
806.287	420.35
806.466	393.72
806.646	414.2
806.825	336.38
807.004	338.43
807.184	406.01
807.363	463.35
807.543	352.76
807.722	356.86
807.901	371.19
808.081	408.06
808.26	326.14
808.439	324.09
808.619	352.76
808.798	397.82
808.977	444.92
809.156	459.26
809.336	354.81
809.515	393.72
809.694	301.56
809.873	274.94
810.052	416.25
810.231	377.34
810.411	293.37
810.59	315.9
810.769	307.71
810.948	299.52
811.127	262.65
811.306	266.75
811.485	324.09
811.664	320
811.843	332.28
812.022	252.41
812.201	291.32
812.38	356.86
812.559	250.36
812.737	336.38
812.916	295.42
813.095	332.28
813.274	293.37
813.453	285.18
813.632	311.8
813.811	373.24
813.989	301.56
814.168	348.67
814.347	233.98
814.526	274.94
814.704	317.95
814.883	367.1
815.062	266.75
815.24	375.29
815.419	274.94
815.598	307.71
815.776	225.79
815.955	326.14
816.133	250.36
816.312	244.22
816.49	285.18
816.669	301.56
816.847	221.69
817.026	272.89
817.204	233.98
817.383	274.94
817.561	229.88
817.74	311.8
817.918	240.12
818.097	201.21
818.275	236.03
818.453	233.98
818.632	246.27
818.81	236.03
818.988	274.94
819.167	281.08
819.345	268.8
819.523	217.6
819.701	229.88
819.879	258.56
820.058	305.66
820.236	307.71
820.414	272.89
820.592	213.5
820.77	170.49
820.948	170.49
821.127	229.88
821.305	215.55
821.483	188.93
821.661	240.12
821.839	250.36
822.017	240.12
822.195	186.88
822.373	139.77
822.551	221.69
822.729	205.31
822.907	217.6
823.085	268.8
823.262	211.45
823.44	141.82
823.618	166.4
823.796	86.53
823.974	178.69
824.152	242.17
824.329	227.84
824.507	217.6
824.685	264.7
824.863	195.07
825.04	178.69
825.218	213.5
825.396	250.36
825.574	184.83
825.751	223.74
825.929	242.17
826.107	172.54
826.284	203.26
826.462	252.41
826.639	250.36
826.817	207.36
826.994	188.93
827.172	186.88
827.349	233.98
827.527	182.78
827.704	250.36
827.882	258.56
828.059	180.73
828.237	121.34
828.414	276.99
828.591	100.86
828.769	166.4
828.946	231.93
829.124	154.11
829.301	184.83
829.478	188.93
829.655	119.29
829.833	178.69
830.01	121.34
830.187	168.45
830.364	221.69
830.542	201.21
830.719	215.55
830.896	121.34
831.073	86.53
831.25	217.6
831.427	139.77
831.604	158.21
831.782	150.01
831.959	188.93
832.136	121.34
832.313	152.06
832.49	143.87
832.667	104.96
832.844	182.78
833.021	207.36
833.198	115.2
833.374	188.93
833.551	188.93
833.728	162.3
833.905	143.87
834.082	137.73
834.259	84.48
834.436	156.16
834.612	160.25
834.789	166.4
834.966	104.96
835.143	152.06
835.319	104.96
835.496	193.02
835.673	229.88
835.85	188.93
836.026	207.36
836.203	170.49
836.38	115.2
836.556	170.49
836.733	119.29
836.909	201.21
837.086	135.68
837.262	109.05
837.439	66.05
837.616	111.1
837.792	147.97
837.968	131.58
838.145	123.39
838.321	168.45
838.498	133.63
838.674	170.49
838.851	127.49
839.027	143.87
839.203	188.93
839.38	92.67
839.556	102.91
839.732	86.53
839.909	150.01
840.085	176.64
840.261	86.53
840.437	70.14
840.614	162.3
840.79	115.2
840.966	70.14
841.142	100.86
841.318	90.62
841.494	152.06
841.671	125.44
841.847	127.49
842.023	70.14
842.199	156.16
842.375	123.39
842.551	125.44
842.727	74.24
842.903	174.59
843.079	57.86
843.255	217.6
843.431	121.34
843.607	111.1
843.783	70.14
843.959	74.24
844.134	59.9
844.31	70.14
844.486	57.86
844.662	59.9
844.838	74.24
845.013	137.73
845.189	129.53
845.365	168.45
845.541	137.73
845.716	47.62
845.892	145.92
846.068	76.29
846.244	92.67
846.419	43.52
846.595	23.04
846.77	53.76
846.946	111.1
847.122	111.1
847.297	47.62
847.473	66.05
847.648	107.01
847.824	90.62
847.999	20.99
848.175	86.53
848.35	14.85
848.526	104.96
848.701	98.81
848.876	78.33
849.052	0.51
849.227	111.1
849.403	74.24
849.578	35.33
849.753	47.62
849.929	156.16
850.104	98.81
850.279	72.19
850.454	94.72
850.63	82.43
850.805	55.81
850.98	104.96
851.155	150.01
851.33	113.15
851.505	57.86
851.681	98.81
851.856	33.28
852.031	102.91
852.206	45.57
852.381	55.81
852.556	-15.87
852.731	59.9
852.906	111.1
853.081	66.05
853.256	158.21
853.431	80.38
853.606	92.67
853.781	94.72
853.956	-42.5
854.131	109.05
854.305	37.38
854.48	47.62
854.655	-3.58
854.83	70.14
855.005	72.19
855.18	74.24
855.354	74.24
855.529	72.19
855.704	20.99
855.879	84.48
856.053	29.18
856.228	78.33
856.403	14.85
856.577	70.14
856.752	-11.78
856.926	43.52
857.101	135.68
857.276	61.95
857.45	6.66
857.625	147.97
857.799	49.66
857.974	20.99
858.148	43.52
858.323	35.33
858.497	78.33
858.672	31.23
858.846	90.62
859.02	90.62
859.195	88.57
859.369	29.18
859.543	78.33
859.718	90.62
859.892	20.99
860.066	70.14
860.241	29.18
860.415	-1.54
860.589	102.91
860.763	66.05
860.938	104.96
861.112	133.63
861.286	12.8
861.46	-5.63
861.634	8.7
861.808	174.59
861.982	55.81
862.157	6.66
862.331	53.76
862.505	-32.26
862.679	20.99
862.853	20.99
863.027	35.33
863.201	80.38
863.375	39.42
863.549	80.38
863.722	53.76
863.896	68.09
864.07	25.09
864.244	12.8
864.418	-11.78
864.592	88.57
864.766	-1.54
864.939	49.66
865.113	53.76
865.287	82.43
865.461	14.85
865.634	14.85
865.808	12.8
865.982	41.47
866.156	37.38
866.329	-54.78
866.503	53.76
866.676	104.96
866.85	80.38
867.024	25.09
867.197	115.2
867.371	102.91
867.544	29.18
867.718	-17.92
867.891	47.62
868.065	41.47
868.238	53.76
868.412	-3.58
868.585	66.05
868.759	14.85
868.932	-1.54
869.105	18.94
869.279	-36.35
869.452	76.29
869.625	84.48
869.799	-26.11
869.972	6.66
870.145	-3.58
870.319	80.38
870.492	51.71
870.665	31.23
870.838	6.66
871.011	-54.78
871.185	-3.58
871.358	-24.06
871.531	39.42
871.704	-7.68
871.877	29.18
872.05	-17.92
872.223	41.47
872.396	121.34
872.569	57.86
872.742	6.66
872.915	55.81
873.088	-7.68
873.261	82.43
873.434	23.04
873.607	-28.16
873.78	78.33
873.953	12.8
874.126	66.05
874.299	25.09
874.471	35.33
874.644	-5.63
874.817	74.24
874.99	68.09
875.163	-19.97
875.335	14.85
875.508	25.09
875.681	4.61
875.853	-44.54
876.026	-11.78
876.199	92.67
876.371	-9.73
876.544	111.1
876.717	59.9
876.889	6.66
877.062	53.76
877.234	2.56
877.407	23.04
877.579	57.86
877.752	74.24
877.924	14.85
878.097	64
878.269	-3.58
878.442	70.14
878.614	23.04
878.786	64
878.959	78.33
879.131	51.71
879.303	-28.16
879.476	47.62
879.648	-1.54
879.82	29.18
879.993	-5.63
880.165	68.09
880.337	-13.82
880.509	6.66
880.681	55.81
880.854	-28.16
881.026	-11.78
881.198	68.09
881.37	80.38
881.542	43.52
881.714	14.85
881.886	25.09
882.058	45.57
882.23	53.76
882.402	-9.73
882.574	-1.54
882.746	2.56
882.918	64
883.09	-1.54
883.262	-17.92
883.434	-3.58
883.606	29.18
883.778	53.76
883.95	55.81
884.122	-17.92
884.293	27.14
884.465	29.18
884.637	39.42
884.809	59.9
884.98	88.57
885.152	31.23
885.324	41.47
885.496	18.94
885.667	-22.02
885.839	68.09
886.011	41.47
886.182	14.85
886.354	41.47
886.525	16.9
886.697	31.23
886.869	-7.68
887.04	-38.4
887.212	25.09
887.383	70.14
887.555	-34.3
887.726	12.8
887.897	39.42
888.069	-24.06
888.24	107.01
888.412	61.95
888.583	0.51
888.754	23.04
888.926	-62.98
889.097	39.42
889.268	-34.3
889.44	12.8
889.611	31.23
889.782	2.56
889.953	-67.07
890.125	41.47
890.296	-17.92
890.467	-40.45
890.638	-1.54
890.809	-1.54
890.98	16.9
891.151	61.95
891.323	59.9
891.494	-46.59
891.665	2.56
891.836	10.75
892.007	-15.87
892.178	14.85
892.349	59.9
892.52	53.76
892.691	29.18
892.862	-22.02
893.032	-50.69
893.203	-60.93
893.374	37.38
893.545	39.42
893.716	23.04
893.887	53.76
894.057	-9.73
894.228	-32.26
894.399	23.04
894.57	70.14
894.74	35.33
894.911	53.76
895.082	51.71
895.253	39.42
895.423	-52.74
895.594	49.66
895.764	35.33
895.935	-73.21
896.106	-42.5
896.276	0.51
896.447	4.61
896.617	-22.02
896.788	68.09
896.958	-32.26
897.129	-28.16
897.299	33.28
897.47	-28.16
897.64	53.76
897.81	37.38
897.981	0.51
898.151	55.81
898.322	12.8
898.492	72.19
898.662	18.94
898.832	-19.97
899.003	-38.4
899.173	10.75
899.343	-9.73
899.513	-22.02
