Data from USB4F104151__14__12-41-01-346.txt Node

Date: Fri Mar 14 12:41:01 EDT 2025
User: louis
Spectrometer: USB4F10415
Trigger mode: 4
Integration Time (sec): 3.000000E-2
Scans to average: 1
Electric dark correction enabled: true
Nonlinearity correction enabled: false
Boxcar width: 0
XAxis mode: Wavelengths
Number of Pixels in Spectrum: 3648
>>>>>Begin Spectral Data<<<<<
178.204	-145.41
178.424	-145.41
178.644	-145.41
178.864	-94.21
179.084	-124.93
179.304	16.38
179.524	-6.14
179.744	-6.14
179.964	2.05
180.184	4.1
180.404	-8.19
180.624	40.96
180.844	26.62
181.064	-65.54
181.283	-22.53
181.503	-45.06
181.723	63.49
181.943	-4.1
182.163	71.68
182.383	-22.53
182.602	2.05
182.822	59.39
183.042	30.72
183.262	32.77
183.482	6.14
183.701	40.96
183.921	14.34
184.141	-53.25
184.361	92.16
184.58	55.3
184.8	94.21
185.02	-51.2
185.239	88.06
185.459	40.96
185.679	45.06
185.898	-45.06
186.118	163.84
186.338	4.1
186.557	45.06
186.777	-55.3
186.997	43.01
187.216	59.39
187.436	71.68
187.655	45.06
187.875	63.49
188.095	36.86
188.314	69.63
188.534	114.69
188.753	4.1
188.973	71.68
189.192	81.92
189.412	34.82
189.631	-14.34
189.851	-65.54
190.07	14.34
190.29	-30.72
190.509	-40.96
190.729	45.06
190.948	81.92
191.168	141.31
191.387	67.58
191.607	-30.72
191.826	-10.24
192.045	36.86
192.265	30.72
192.484	-0
192.704	-34.82
192.923	-10.24
193.142	92.16
193.362	96.25
193.581	108.54
193.8	94.21
194.02	90.11
194.239	28.67
194.458	-4.1
194.678	-30.72
194.897	67.58
195.116	30.72
195.335	30.72
195.555	43.01
195.774	75.77
195.993	73.73
196.212	22.53
196.432	-4.1
196.651	61.44
196.87	28.67
197.089	10.24
197.308	-12.29
197.528	79.87
197.747	79.87
197.966	-59.39
198.185	122.88
198.404	96.25
198.623	36.86
198.842	-59.39
199.062	49.15
199.281	147.45
199.5	75.77
199.719	-40.96
199.938	34.82
200.157	18.43
200.376	-2.05
200.595	88.06
200.814	-12.29
201.033	32.77
201.252	6.14
201.471	16.38
201.69	92.16
201.909	-16.38
202.128	2.05
202.347	8.19
202.566	-20.48
202.785	45.06
203.004	24.58
203.223	79.87
203.442	28.67
203.661	34.82
203.879	106.49
204.098	45.06
204.317	-10.24
204.536	75.77
204.755	47.1
204.974	104.45
205.193	28.67
205.411	94.21
205.63	45.06
205.849	61.44
206.068	-49.15
206.287	83.97
206.505	73.73
206.724	-30.72
206.943	6.14
207.162	34.82
207.381	14.34
207.599	55.3
207.818	71.68
208.037	73.73
208.255	61.44
208.474	49.15
208.693	12.29
208.911	61.44
209.13	-34.82
209.349	-24.58
209.567	26.62
209.786	40.96
210.005	81.92
210.223	67.58
210.442	-53.25
210.661	26.62
210.879	55.3
211.098	51.2
211.316	34.82
211.535	65.53
211.753	-12.29
211.972	12.29
212.191	69.63
212.409	16.38
212.628	8.19
212.846	106.49
213.065	75.77
213.283	43.01
213.502	2.05
213.72	-45.06
213.938	40.96
214.157	53.25
214.375	28.67
214.594	28.67
214.812	69.63
215.031	40.96
215.249	40.96
215.467	-32.77
215.686	-20.48
215.904	30.72
216.122	65.53
216.341	28.67
216.559	43.01
216.778	96.25
216.996	30.72
217.214	20.48
217.432	-30.72
217.651	10.24
217.869	16.38
218.087	34.82
218.306	-28.67
218.524	24.58
218.742	12.29
218.96	51.2
219.179	36.86
219.397	4.1
219.615	53.25
219.833	34.82
220.051	24.58
220.27	49.15
220.488	61.44
220.706	100.35
220.924	94.21
221.142	67.58
221.36	4.1
221.578	71.68
221.796	75.77
222.015	108.54
222.233	-61.44
222.451	79.87
222.669	16.38
222.887	-12.29
223.105	88.06
223.323	16.38
223.541	-22.53
223.759	47.1
223.977	38.91
224.195	112.64
224.413	59.39
224.631	28.67
224.849	96.25
225.067	159.74
225.285	51.2
225.503	8.19
225.721	-40.96
225.939	32.77
226.157	-20.48
226.375	92.16
226.592	40.96
226.81	57.34
227.028	40.96
227.246	116.73
227.464	8.19
227.682	57.34
227.9	102.4
228.117	40.96
228.335	40.96
228.553	8.19
228.771	98.3
228.989	-16.38
229.206	55.3
229.424	16.38
229.642	-61.44
229.86	-18.43
230.077	73.73
230.295	45.06
230.513	147.45
230.731	116.73
230.948	34.82
231.166	108.54
231.384	16.38
231.601	-26.62
231.819	126.97
232.037	12.29
232.254	-59.39
232.472	4.1
232.689	-18.43
232.907	141.31
233.125	47.1
233.342	57.34
233.56	-10.24
233.777	47.1
233.995	-12.29
234.213	38.91
234.43	40.96
234.648	51.2
234.865	75.77
235.083	40.96
235.3	28.67
235.518	34.82
235.735	59.39
235.953	28.67
236.17	-6.14
236.388	45.06
236.605	-0
236.822	43.01
237.04	110.59
237.257	30.72
237.475	-26.62
237.692	55.3
237.909	6.14
238.127	22.53
238.344	-16.38
238.562	-0
238.779	-16.38
238.996	22.53
239.214	32.77
239.431	90.11
239.648	-24.58
239.865	83.97
240.083	49.15
240.3	67.58
240.517	-22.53
240.735	77.82
240.952	86.01
241.169	126.97
241.386	12.29
241.603	47.1
241.821	-12.29
242.038	53.25
242.255	-6.14
242.472	59.39
242.689	-2.05
242.907	81.92
243.124	-0
243.341	34.82
243.558	45.06
243.775	-24.58
243.992	14.34
244.209	18.43
244.426	129.02
244.643	90.11
244.86	16.38
245.078	34.82
245.295	96.25
245.512	38.91
245.729	-10.24
245.946	-22.53
246.163	77.82
246.38	-30.72
246.597	116.73
246.814	-40.96
247.031	40.96
247.248	81.92
247.464	-26.62
247.681	20.48
247.898	71.68
248.115	32.77
248.332	45.06
248.549	-20.48
248.766	43.01
248.983	53.25
249.2	75.77
249.417	-10.24
249.633	8.19
249.85	73.73
250.067	6.14
250.284	106.49
250.501	57.34
250.717	45.06
250.934	38.91
251.151	55.3
251.368	22.53
251.585	88.06
251.801	8.19
252.018	-22.53
252.235	102.4
252.451	-47.1
252.668	-10.24
252.885	26.62
253.102	51.2
253.318	18.43
253.535	-24.58
253.752	-4.1
253.968	26.62
254.185	65.53
254.401	40.96
254.618	38.91
254.835	92.16
255.051	65.53
255.268	71.68
255.484	28.67
255.701	55.3
255.917	77.82
256.134	51.2
256.351	102.4
256.567	-22.53
256.784	49.15
257	-18.43
257.217	100.35
257.433	112.64
257.65	63.49
257.866	145.41
258.082	-10.24
258.299	-47.1
258.515	-36.86
258.732	-16.38
258.948	-20.48
259.165	-24.58
259.381	-55.3
259.597	4.1
259.814	81.92
260.03	36.86
260.246	55.3
260.463	22.53
260.679	81.92
260.895	-10.24
261.112	6.14
261.328	-0
261.544	34.82
261.761	112.64
261.977	-14.34
262.193	-14.34
262.409	28.67
262.626	92.16
262.842	-18.43
263.058	49.15
263.274	-4.1
263.49	34.82
263.707	28.67
263.923	77.82
264.139	-36.86
264.355	73.73
264.571	30.72
264.787	77.82
265.004	71.68
265.22	-36.86
265.436	36.86
265.652	75.77
265.868	-2.05
266.084	53.25
266.3	30.72
266.516	38.91
266.732	4.1
266.948	45.06
267.164	45.06
267.38	106.49
267.596	18.43
267.812	53.25
268.028	53.25
268.244	-30.72
268.46	129.02
268.676	6.14
268.892	43.01
269.108	28.67
269.324	18.43
269.54	-55.3
269.756	43.01
269.972	10.24
270.188	34.82
270.403	-16.38
270.619	12.29
270.835	51.2
271.051	24.58
271.267	-24.58
271.483	2.05
271.698	69.63
271.914	30.72
272.13	-26.62
272.346	79.87
272.562	49.15
272.777	108.54
272.993	-4.1
273.209	59.39
273.425	67.58
273.64	40.96
273.856	75.77
274.072	-4.1
274.287	-22.53
274.503	38.91
274.719	34.82
274.934	34.82
275.15	10.24
275.366	61.44
275.581	75.77
275.797	94.21
276.012	-57.34
276.228	57.34
276.444	4.1
276.659	53.25
276.875	61.44
277.09	79.87
277.306	22.53
277.521	12.29
277.737	6.14
277.952	124.93
278.168	-38.91
278.383	20.48
278.599	38.91
278.814	53.25
279.03	2.05
279.245	51.2
279.461	53.25
279.676	32.77
279.892	36.86
280.107	12.29
280.322	28.67
280.538	112.64
280.753	14.34
280.969	63.49
281.184	88.06
281.399	96.25
281.615	100.35
281.83	104.45
282.045	30.72
282.26	26.62
282.476	6.14
282.691	100.35
282.906	36.86
283.122	96.25
283.337	8.19
283.552	30.72
283.767	65.53
283.983	-32.77
284.198	28.67
284.413	104.45
284.628	43.01
284.843	26.62
285.058	53.25
285.274	26.62
285.489	71.68
285.704	10.24
285.919	102.4
286.134	10.24
286.349	-55.3
286.564	14.34
286.779	49.15
286.995	45.06
287.21	-2.05
287.425	98.3
287.64	43.01
287.855	-20.48
288.07	4.1
288.285	65.53
288.5	20.48
288.715	57.34
288.93	26.62
289.145	75.77
289.36	159.74
289.575	-75.77
289.79	102.4
290.004	-34.82
290.219	24.58
290.434	2.05
290.649	57.34
290.864	59.39
291.079	34.82
291.294	-14.34
291.509	36.86
291.724	22.53
291.938	47.1
292.153	8.19
292.368	-38.91
292.583	69.63
292.798	61.44
293.012	55.3
293.227	51.2
293.442	24.58
293.657	59.39
293.871	59.39
294.086	75.77
294.301	90.11
294.516	59.39
294.73	18.43
294.945	10.24
295.16	98.3
295.374	86.01
295.589	43.01
295.804	18.43
296.018	77.82
296.233	55.3
296.447	67.58
296.662	4.1
296.877	14.34
297.091	57.34
297.306	96.25
297.52	28.67
297.735	-0
297.949	53.25
298.164	47.1
298.378	18.43
298.593	24.58
298.807	126.97
299.022	102.4
299.236	36.86
299.451	47.1
299.665	43.01
299.88	47.1
300.094	36.86
300.309	-36.86
300.523	45.06
300.737	-40.96
300.952	114.69
301.166	18.43
301.381	65.53
301.595	-16.38
301.809	-8.19
302.024	47.1
302.238	36.86
302.452	38.91
302.667	10.24
302.881	18.43
303.095	47.1
303.309	-0
303.524	49.15
303.738	-8.19
303.952	22.53
304.166	88.06
304.381	-81.92
304.595	47.1
304.809	-8.19
305.023	102.4
305.237	40.96
305.452	-4.1
305.666	47.1
305.88	26.62
306.094	57.34
306.308	-51.2
306.522	98.3
306.736	112.64
306.95	106.49
307.164	57.34
307.379	2.05
307.593	34.82
307.807	83.97
308.021	92.16
308.235	51.2
308.449	8.19
308.663	63.49
308.877	124.93
309.091	53.25
309.305	53.25
309.519	-38.91
309.733	28.67
309.947	6.14
310.161	61.44
310.374	63.49
310.588	92.16
310.802	34.82
311.016	88.06
311.23	47.1
311.444	-53.25
311.658	28.67
311.872	67.58
312.085	-0
312.299	73.73
312.513	100.35
312.727	30.72
312.941	12.29
313.154	59.39
313.368	77.82
313.582	135.17
313.796	-12.29
314.009	28.67
314.223	49.15
314.437	69.63
314.651	26.62
314.864	12.29
315.078	28.67
315.292	-12.29
315.505	26.62
315.719	100.35
315.933	18.43
316.146	-10.24
316.36	18.43
316.573	63.49
316.787	61.44
317.001	79.87
317.214	12.29
317.428	108.54
317.641	22.53
317.855	63.49
318.068	36.86
318.282	40.96
318.495	61.44
318.709	90.11
318.922	40.96
319.136	69.63
319.349	106.49
319.563	61.44
319.776	67.58
319.99	-0
320.203	38.91
320.417	-38.91
320.63	59.39
320.843	100.35
321.057	-14.34
321.27	59.39
321.483	16.38
321.697	126.97
321.91	71.68
322.124	120.83
322.337	40.96
322.55	-6.14
322.763	18.43
322.977	53.25
323.19	8.19
323.403	24.58
323.617	34.82
323.83	65.53
324.043	59.39
324.256	163.84
324.469	8.19
324.683	16.38
324.896	-28.67
325.109	40.96
325.322	2.05
325.535	67.58
325.748	102.4
325.962	30.72
326.175	12.29
326.388	65.53
326.601	12.29
326.814	-40.96
327.027	38.91
327.24	122.88
327.453	40.96
327.666	53.25
327.879	47.1
328.092	34.82
328.305	2.05
328.518	36.86
328.731	16.38
328.944	65.53
329.157	61.44
329.37	61.44
329.583	94.21
329.796	12.29
330.009	6.14
330.222	51.2
330.435	63.49
330.648	-2.05
330.861	-32.77
331.073	67.58
331.286	65.53
331.499	114.69
331.712	43.01
331.925	59.39
332.138	67.58
332.35	-10.24
332.563	92.16
332.776	45.06
332.989	59.39
333.202	47.1
333.414	8.19
333.627	16.38
333.84	96.25
334.053	124.93
334.265	59.39
334.478	-4.1
334.691	77.82
334.903	20.48
335.116	-32.77
335.329	38.91
335.541	77.82
335.754	20.48
335.966	61.44
336.179	73.73
336.392	71.68
336.604	-0
336.817	61.44
337.029	-4.1
337.242	98.3
337.454	90.11
337.667	14.34
337.88	83.97
338.092	94.21
338.305	61.44
338.517	100.35
338.729	96.25
338.942	49.15
339.154	81.92
339.367	2.05
339.579	24.58
339.792	57.34
340.004	30.72
340.217	75.77
340.429	77.82
340.641	83.97
340.854	61.44
341.066	-14.34
341.278	51.2
341.491	61.44
341.703	108.54
341.915	-10.24
342.128	28.67
342.34	63.49
342.552	38.91
342.764	45.06
342.977	-24.58
343.189	100.35
343.401	22.53
343.613	34.82
343.826	90.11
344.038	45.06
344.25	18.43
344.462	8.19
344.674	43.01
344.886	63.49
345.099	79.87
345.311	73.73
345.523	36.86
345.735	-0
345.947	36.86
346.159	-40.96
346.371	34.82
346.583	22.53
346.795	38.91
347.007	65.53
347.219	28.67
347.431	34.82
347.643	100.35
347.855	51.2
348.067	51.2
348.279	-4.1
348.491	53.25
348.703	69.63
348.915	38.91
349.127	45.06
349.339	-14.34
349.551	40.96
349.763	59.39
349.975	73.73
350.187	94.21
350.399	73.73
350.61	65.53
350.822	40.96
351.034	96.25
351.246	38.91
351.458	45.06
351.669	77.82
351.881	114.69
352.093	59.39
352.305	94.21
352.517	126.97
352.728	129.02
352.94	88.06
353.152	61.44
353.363	12.29
353.575	12.29
353.787	-20.48
353.999	90.11
354.21	73.73
354.422	63.49
354.633	59.39
354.845	47.1
355.057	6.14
355.268	36.86
355.48	55.3
355.692	-12.29
355.903	14.34
356.115	69.63
356.326	-65.54
356.538	96.25
356.749	40.96
356.961	100.35
357.172	40.96
357.384	102.4
357.595	100.35
357.807	73.73
358.018	47.1
358.23	53.25
358.441	151.55
358.653	77.82
358.864	10.24
359.075	75.77
359.287	-30.72
359.498	55.3
359.709	92.16
359.921	47.1
360.132	55.3
360.344	20.48
360.555	83.97
360.766	90.11
360.977	94.21
361.189	-4.1
361.4	112.64
361.611	59.39
361.823	79.87
362.034	55.3
362.245	-14.34
362.456	57.34
362.667	75.77
362.879	88.06
363.09	36.86
363.301	34.82
363.512	69.63
363.723	10.24
363.935	26.62
364.146	28.67
364.357	43.01
364.568	24.58
364.779	26.62
364.99	67.58
365.201	2.05
365.412	40.96
365.623	45.06
365.834	88.06
366.045	65.53
366.256	92.16
366.467	126.97
366.678	-30.72
366.889	24.58
367.1	79.87
367.311	-4.1
367.522	14.34
367.733	88.06
367.944	83.97
368.155	8.19
368.366	98.3
368.577	98.3
368.788	112.64
368.999	10.24
369.209	69.63
369.42	69.63
369.631	159.74
369.842	69.63
370.053	69.63
370.264	106.49
370.474	96.25
370.685	71.68
370.896	24.58
371.107	139.26
371.317	30.72
371.528	32.77
371.739	137.21
371.95	145.41
372.16	36.86
372.371	-6.14
372.582	18.43
372.792	129.02
373.003	57.34
373.214	36.86
373.424	45.06
373.635	6.14
373.846	145.41
374.056	53.25
374.267	100.35
374.477	94.21
374.688	151.55
374.898	38.91
375.109	110.59
375.319	30.72
375.53	38.91
375.74	24.58
375.951	20.48
376.161	112.64
376.372	116.73
376.582	53.25
376.793	75.77
377.003	-2.05
377.214	77.82
377.424	65.53
377.635	69.63
377.845	40.96
378.055	49.15
378.266	12.29
378.476	61.44
378.686	77.82
378.897	122.88
379.107	135.17
379.317	79.87
379.528	63.49
379.738	131.07
379.948	-4.1
380.158	8.19
380.369	94.21
380.579	118.78
380.789	45.06
380.999	34.82
381.21	96.25
381.42	141.31
381.63	8.19
381.84	53.25
382.05	86.01
382.261	14.34
382.471	26.62
382.681	71.68
382.891	126.97
383.101	96.25
383.311	6.14
383.521	71.68
383.731	135.17
383.941	10.24
384.151	77.82
384.361	106.49
384.571	98.3
384.781	92.16
384.991	147.45
385.201	90.11
385.411	61.44
385.621	88.06
385.831	20.48
386.041	34.82
386.251	53.25
386.461	167.93
386.671	55.3
386.881	86.01
387.091	81.92
387.301	59.39
387.511	59.39
387.72	163.84
387.93	79.87
388.14	98.3
388.35	88.06
388.56	155.65
388.769	108.54
388.979	122.88
389.189	155.65
389.399	88.06
389.609	139.26
389.818	129.02
390.028	102.4
390.238	40.96
390.447	86.01
390.657	67.58
390.867	63.49
391.076	45.06
391.286	79.87
391.496	63.49
391.705	24.58
391.915	116.73
392.125	88.06
392.334	100.35
392.544	129.02
392.753	20.48
392.963	53.25
393.172	118.78
393.382	88.06
393.591	86.01
393.801	45.06
394.01	83.97
394.22	96.25
394.429	67.58
394.639	61.44
394.848	92.16
395.058	43.01
395.267	143.36
395.477	114.69
395.686	167.93
395.895	133.12
396.105	108.54
396.314	161.79
396.524	104.45
396.733	124.93
396.942	129.02
397.152	131.07
397.361	98.3
397.57	75.77
397.78	49.15
397.989	102.4
398.198	206.84
398.407	79.87
398.617	108.54
398.826	131.07
399.035	71.68
399.244	106.49
399.453	155.65
399.663	149.5
399.872	124.93
400.081	100.35
400.29	157.69
400.499	126.97
400.708	135.17
400.917	157.69
401.127	96.25
401.336	190.46
401.545	86.01
401.754	169.98
401.963	155.65
402.172	81.92
402.381	126.97
402.59	223.23
402.799	151.55
403.008	129.02
403.217	200.7
403.426	192.51
403.635	190.46
403.844	208.89
404.053	126.97
404.262	186.37
404.471	227.32
404.68	174.08
404.888	149.5
405.097	165.89
405.306	190.46
405.515	182.27
405.724	190.46
405.933	223.23
406.142	227.32
406.35	208.89
406.559	288.76
406.768	251.9
406.977	280.57
407.185	194.56
407.394	260.09
407.603	272.38
407.812	274.43
408.02	366.59
408.229	337.91
408.438	303.1
408.646	233.47
408.855	276.48
409.064	333.82
409.272	317.44
409.481	419.83
409.69	317.44
409.898	342.01
410.107	329.72
410.315	385.02
410.524	374.78
410.733	458.74
410.941	397.31
411.15	458.74
411.358	552.95
411.567	501.75
411.775	479.22
411.984	544.76
412.192	503.8
412.401	501.75
412.609	618.49
412.818	628.73
413.026	636.92
413.234	634.87
413.443	718.84
413.651	692.21
413.86	735.22
414.068	774.13
414.276	806.9
414.485	706.55
414.693	817.14
414.901	890.87
415.11	888.82
415.318	856.05
415.526	944.11
415.734	1110
415.943	919.54
416.151	1021.94
416.359	1048.56
416.567	1112.05
416.776	1200.11
416.984	1243.12
417.192	1210.35
417.4	1220.59
417.608	1257.45
417.817	1249.26
418.025	1376.23
418.233	1511.4
418.441	1437.67
418.649	1554.41
418.857	1609.7
419.065	1714.15
419.273	1658.85
419.481	1718.25
419.689	1818.6
419.897	1986.53
420.105	1849.32
420.313	1974.24
420.521	2140.13
420.729	1996.77
420.937	2103.26
421.145	2279.39
421.353	2392.03
421.561	2541.53
421.769	2441.18
421.977	2519
422.185	2594.78
422.393	2758.61
422.601	2918.36
422.809	2969.55
423.017	2922.45
423.224	3076.05
423.432	3102.67
423.64	3231.69
423.848	3391.44
424.056	3389.39
424.263	3588.04
424.471	3532.75
424.679	3778.5
424.887	3995.59
425.094	4095.94
425.302	4046.79
425.51	4341.69
425.718	4282.3
425.925	4396.99
426.133	4413.37
426.341	4831.16
426.548	5099.44
426.756	4980.66
426.964	5132.21
427.171	5414.83
427.379	5431.21
427.586	5457.84
427.794	5765.03
428.001	6066.08
428.209	6340.51
428.417	6178.72
428.624	6612.89
428.832	6825.88
429.039	6447.01
429.247	6555.55
429.454	7327.63
429.662	7798.66
429.869	7270.29
430.076	7776.14
430.284	7425.93
430.491	7925.64
430.699	8191.87
430.906	8306.56
431.114	8609.66
431.321	8664.96
431.528	9047.93
431.736	9430.9
431.943	9768.81
432.15	9738.09
432.358	9752.43
432.565	10233.7
432.772	10153.83
432.979	10561.37
433.187	10960.73
433.394	11011.93
433.601	11667.28
433.808	12015.43
434.016	11652.94
434.223	12046.15
434.43	13023.03
434.637	12818.24
434.844	13385.52
435.052	13780.78
435.259	13498.16
435.466	13903.66
435.673	13788.97
435.88	14540.58
436.087	15306.52
436.294	15724.3
436.501	14958.36
436.708	15361.81
436.915	15683.34
437.122	16414.47
437.329	16326.41
437.537	17022.72
437.743	17245.94
437.95	17002.24
438.157	18089.71
438.364	18599.65
438.571	18769.63
438.778	18736.87
438.985	20598.47
439.192	19666.64
439.399	20508.36
439.606	19810
439.813	20975.3
440.02	22224.56
440.227	21966.51
440.433	21546.68
440.64	22589.1
440.847	22079.15
441.054	23015.07
441.261	24172.18
441.467	23948.95
441.674	24534.67
441.881	25245.31
442.088	25579.13
442.294	25063.04
442.501	25722.49
442.708	26392.17
442.914	27424.35
443.121	28374.61
443.328	27930.2
443.534	29556.28
443.741	28661.32
443.948	28112.47
444.154	30588.46
444.361	30043.7
444.568	30557.74
444.774	30549.55
444.981	30729.77
445.187	31675.93
445.394	33127.94
445.6	32607.76
445.807	35900.89
446.013	34131.45
446.22	34641.39
446.426	36269.53
446.633	37035.47
446.839	37942.72
447.046	36255.19
447.252	38413.75
447.459	38198.71
447.665	37957.05
447.871	39742.88
448.078	41344.39
448.284	39681.44
448.491	40498.58
448.697	42507.64
448.903	42913.14
449.11	43212.14
449.316	42450.3
449.522	43025.78
449.728	44227.93
449.935	44832.08
450.141	44205.41
450.347	45575.5
450.553	43834.72
450.76	44752.21
450.966	46130.5
451.172	45516.11
451.378	46726.45
451.584	45632.84
451.791	46677.3
451.997	46890.29
452.203	47572.27
452.409	47506.73
452.615	46916.92
452.821	45712.71
453.027	45014.35
453.233	47392.04
453.44	45729.09
453.646	46503.23
453.852	46417.21
454.058	47142.19
454.264	45538.63
454.47	46779.7
454.676	45507.91
454.882	46935.35
455.088	43257.2
455.294	43758.95
455.5	44232.03
455.705	44615
455.911	43103.6
456.117	42282.36
456.323	41719.17
456.529	39781.79
456.735	40994.19
456.941	40144.28
457.147	39546.28
457.352	38557.11
457.558	37623.23
457.764	38034.88
457.97	37012.94
458.176	36900.3
458.381	36423.12
458.587	34672.11
458.793	34635.25
458.999	33132.04
459.204	35151.34
459.41	34070.01
459.616	32022.04
459.821	31987.22
460.027	32251.41
460.233	31340.07
460.438	29558.33
460.644	29871.67
460.85	28642.89
461.055	28270.16
461.261	28249.68
461.466	26443.37
461.672	25163.39
461.878	26971.75
462.083	25288.32
462.289	24864.39
462.494	24610.44
462.7	23596.7
462.905	22961.83
463.111	23875.22
463.316	23987.86
463.522	23264.92
463.727	23309.98
463.932	23369.37
464.138	23185.05
464.343	23021.22
464.549	22578.86
464.754	23510.68
464.959	22992.55
465.165	22726.31
465.37	21923.51
465.575	21337.79
465.781	22347.44
465.986	22376.11
466.191	21636.79
466.397	21118.65
466.602	20209.36
466.807	20899.52
467.012	20967.1
467.218	20729.54
467.423	20453.06
467.628	20750.02
467.833	21903.03
468.038	20788.93
468.244	20270.79
468.449	20934.34
468.654	20373.19
468.859	20209.36
469.064	19769.04
469.269	18921.18
469.474	19517.14
469.679	19656.4
469.885	19164.89
470.09	19375.83
470.295	19224.28
470.5	18851.55
470.705	19355.35
470.91	18527.97
471.115	18638.56
471.32	18783.97
471.525	18581.22
471.73	18380.52
471.935	18030.32
472.139	17346.3
472.344	17620.72
472.549	17716.98
472.754	17493.75
472.959	17037.05
473.164	16817.92
473.369	16539.4
473.574	16965.37
473.778	16658.18
473.983	16563.97
474.188	16465.67
474.393	15914.77
474.598	16019.21
474.802	15769.36
475.007	15773.46
475.212	15808.27
475.417	15302.42
475.621	15200.02
475.826	15116.06
476.031	14757.66
476.235	14591.78
476.44	14817.05
476.645	14282.53
476.849	14763.81
477.054	14331.69
477.259	14241.57
477.463	14004.01
477.668	13721.39
477.872	14044.97
478.077	13659.95
478.282	13285.17
478.486	13299.51
478.691	13303.6
478.895	13334.32
479.1	13299.51
479.304	13172.53
479.509	12732.22
479.713	12969.79
479.918	12425.03
480.122	12754.75
480.326	12986.17
480.531	12683.07
480.735	12615.49
480.94	12377.92
481.144	12736.32
481.348	12175.17
481.553	12422.98
481.757	12054.34
481.961	12472.13
482.166	12404.55
482.37	12322.63
482.574	11986.76
482.778	12191.56
482.983	12414.79
483.187	12302.15
483.391	12347.2
483.595	12087.11
483.8	11937.61
484.004	12316.48
484.208	12418.88
484.412	12074.82
484.616	12199.75
484.821	12218.18
485.025	11718.48
485.229	12347.2
485.433	11843.4
485.637	12175.17
485.841	12113.74
486.045	12148.55
486.249	12101.45
486.453	11964.23
486.657	12156.74
486.861	12431.17
487.065	12050.25
487.269	12105.54
487.473	12074.82
487.677	12074.82
487.881	12402.5
488.085	12009.29
488.289	12302.15
488.493	12062.54
488.697	12277.57
488.901	12400.45
489.105	12173.13
489.309	12267.33
489.512	12334.92
489.716	12449.6
489.92	12250.95
490.124	12306.24
490.328	12642.11
490.531	12341.06
490.735	12478.27
490.939	12402.5
491.143	12457.79
491.346	12367.68
491.55	12511.04
491.754	12732.22
491.958	12603.2
492.161	12812.09
492.365	12881.72
492.569	12779.32
492.772	12818.24
492.976	12824.38
493.18	13078.33
493.383	13240.12
493.587	13115.19
493.79	13383.48
493.994	13266.74
494.197	13219.64
494.401	13340.47
494.605	13580.08
494.808	13741.87
495.012	13621.04
495.215	13760.3
495.419	13662
495.622	13956.91
495.825	14296.87
496.029	13852.46
496.232	14247.72
496.436	14135.08
496.639	14718.75
496.843	14692.13
497.046	14665.5
497.249	15202.07
497.453	14933.79
497.656	15093.53
497.859	15304.47
498.063	15363.86
498.266	15572.75
498.469	15742.74
498.673	15693.58
498.876	16049.93
499.079	16197.38
499.282	16213.77
499.485	16613.12
499.689	16621.31
499.892	16975.61
500.095	16740.1
500.298	17360.63
500.501	17139.45
500.705	17565.43
500.908	17805.04
501.111	18005.74
501.314	18296.55
501.517	18097.9
501.72	18579.17
501.923	18310.89
502.126	18929.38
502.329	19287.77
502.532	19267.29
502.735	19293.91
502.938	19986.13
503.141	19934.93
503.344	20575.94
503.547	20166.35
503.75	20408.01
503.953	20772.55
504.156	20747.97
504.359	21081.79
504.562	21411.51
504.765	21604.02
504.968	21675.7
505.17	22189.74
505.373	22195.89
505.576	22597.29
505.779	22769.32
505.982	22711.97
506.185	23432.86
506.387	23129.76
506.59	23555.74
506.793	24196.75
506.996	23950.99
507.198	24692.36
507.401	24571.53
507.604	24612.49
507.807	25185.92
508.009	25298.56
508.212	25468.54
508.415	25767.54
508.617	26076.79
508.82	26271.34
509.022	26246.77
509.225	26840.68
509.428	27381.34
509.63	27063.91
509.833	27131.49
510.035	28124.75
510.238	27944.53
510.44	28128.85
510.643	28878.41
510.845	29040.2
511.048	28624.46
511.25	29226.56
511.453	29326.91
511.655	30393.9
511.858	30088.76
512.06	30129.72
512.262	30748.2
512.465	30660.14
512.667	30993.96
512.87	31450.66
513.072	31487.52
513.274	32171.54
513.477	32175.64
513.679	32470.54
513.881	32867.85
514.084	33041.93
514.286	32841.23
514.488	33289.73
514.69	34168.31
514.893	34203.13
515.095	34317.81
515.297	34690.54
515.499	34799.08
515.701	34991.59
515.904	35767.77
516.106	35882.46
516.308	35999.19
516.51	36623.83
516.712	36541.91
516.914	37051.85
517.116	37539.27
517.318	37494.21
517.52	37639.62
517.722	38206.9
517.925	38321.59
518.127	38981.04
518.329	38815.15
518.531	38665.65
518.733	39556.52
518.935	39503.27
519.136	40007.07
519.338	40316.31
519.54	40428.95
519.742	40951.18
519.944	41194.89
520.146	42169.72
520.348	41721.22
520.55	41993.6
520.752	42151.29
520.954	42988.91
521.155	42507.64
521.357	42921.33
521.559	43431.27
521.761	44141.92
521.963	44086.62
522.164	43951.46
522.366	44490.07
522.568	44866.9
522.77	44651.86
522.971	45272.4
523.173	45425.99
523.375	45372.75
523.576	45196.62
523.778	45630.79
523.98	46013.76
524.181	46470.46
524.383	46454.08
524.584	46984.5
524.786	46949.68
524.988	46853.43
525.189	47121.71
525.391	47891.75
525.592	47670.57
525.794	48178.46
525.995	48364.83
526.197	48037.15
526.398	48244
526.6	48870.68
526.801	48438.56
527.003	49075.48
527.204	49235.22
527.406	49696.01
527.607	49153.3
527.808	49728.78
528.01	49110.29
528.211	49296.66
528.412	50382.08
528.614	49773.83
528.815	50431.23
529.016	50425.09
529.218	49749.26
529.419	50406.65
529.62	50521.34
529.822	49870.09
530.023	50564.35
530.224	50396.41
530.425	50449.66
530.626	50574.59
530.828	49677.58
531.029	50965.75
531.23	50674.94
531.431	50676.99
531.632	51035.38
531.833	51148.02
532.035	51139.83
532.236	50990.33
532.437	51436.78
532.638	51137.78
532.839	51569.9
533.04	51315.95
533.241	50824.44
533.442	51670.25
533.643	51561.71
533.844	50924.79
534.045	51234.03
534.246	50828.54
534.447	51412.21
534.648	51168.5
534.849	51574
535.05	51008.76
535.251	51746.03
535.451	51127.54
535.652	51698.92
535.853	51451.12
536.054	51287.28
536.255	51672.3
536.456	51434.74
536.657	52208.87
536.857	51246.32
537.058	50943.22
537.259	51297.52
537.46	51176.69
537.66	51447.02
537.861	51307.76
538.062	51186.93
538.263	51584.24
538.463	51512.56
538.664	50797.82
538.865	51375.34
539.065	51832.04
539.266	51064.05
539.466	52032.74
539.667	50840.82
539.868	51786.99
540.068	51094.77
540.269	51508.46
540.469	51330.29
540.67	50975.99
540.87	51066.1
541.071	51043.57
541.271	51205.36
541.472	51074.29
541.672	50834.68
541.873	50791.67
542.073	50197.76
542.274	51270.9
542.474	51135.73
542.675	50633.98
542.875	51332.34
543.075	50732.28
543.276	50676.99
543.476	51363.06
543.676	50730.23
543.877	51598.57
544.077	50973.94
544.277	50980.09
544.478	51180.79
544.678	51043.57
544.878	50789.62
545.078	51295.47
545.279	50787.58
545.479	50672.89
545.679	51295.47
545.879	50783.48
546.079	50773.24
546.28	50748.67
546.48	50425.09
546.68	51068.15
546.88	50779.39
547.08	50853.11
547.28	50425.09
547.48	50687.23
547.68	50760.95
547.88	50480.38
548.081	50879.74
548.281	50531.58
548.481	50443.52
548.681	51299.57
548.881	50644.22
549.081	50187.52
549.28	50629.88
549.48	51076.34
549.68	50490.62
549.88	51340.53
550.08	50330.88
550.28	50695.42
550.48	50132.23
550.68	50824.44
550.88	50261.25
551.08	50218.24
551.279	50332.93
551.479	50285.82
551.679	50294.02
551.879	50230.53
552.079	50656.51
552.278	50603.26
552.478	50410.75
552.678	50052.36
552.878	50121.99
553.077	50097.41
553.277	50054.4
553.477	50402.56
553.676	49747.21
553.876	50373.89
554.076	49958.15
554.275	50269.44
554.475	49710.35
554.674	50318.59
554.874	50509.05
555.074	49868.04
555.273	49968.39
555.473	50367.74
555.672	49792.26
555.872	49700.11
556.071	49689.87
556.271	50316.54
556.47	49683.72
556.67	49261.84
556.869	49786.12
557.068	49374.48
557.268	49351.95
557.467	49181.97
557.667	49618.19
557.866	49333.52
558.065	49609.99
558.265	48833.81
558.464	48950.55
558.663	49659.15
558.863	49108.24
559.062	49665.29
559.261	48784.66
559.461	49483.02
559.66	48459.04
559.859	49046.8
560.058	48567.58
560.258	49368.33
560.457	48348.45
560.656	48971.03
560.855	48610.59
561.054	48897.3
561.253	48567.58
561.453	48821.53
561.652	48708.89
561.851	48438.56
562.05	48213.28
562.249	48112.93
562.448	49143.06
562.647	48258.34
562.846	48397.6
563.045	48211.23
563.244	47830.31
563.443	48579.87
563.642	47441.2
563.841	47590.7
564.04	47785.25
564.239	47742.25
564.438	47293.74
564.637	47492.4
564.836	47416.62
565.035	46884.15
565.234	47566.12
565.432	47336.75
565.631	46974.26
565.83	47433
566.029	47074.61
566.228	46785.85
566.427	46492.99
566.625	46662.97
566.824	46277.95
567.023	46847.29
567.222	45915.46
567.42	46802.23
567.619	46409.02
567.818	46126.4
568.016	46671.16
568.215	46529.85
568.414	46337.34
568.612	46515.51
568.811	45770.05
569.01	46138.69
569.208	45360.46
569.407	46187.84
569.605	45448.52
569.804	46099.78
570.002	45526.35
570.201	45626.7
570.4	45393.23
570.598	44965.2
570.797	45053.26
570.995	44977.49
571.193	44494.17
571.392	45243.73
571.59	44957.01
571.789	44461.4
571.987	44254.56
572.186	44539.22
572.384	44621.14
572.582	44756.31
572.781	44584.28
572.979	43232.62
573.177	44076.38
573.376	44381.53
573.574	44150.11
573.772	43720.04
573.971	43576.68
574.169	43126.13
574.367	43144.56
574.565	43531.62
574.763	43437.42
574.962	43103.6
575.16	43267.44
575.358	43156.85
575.556	43066.73
575.754	43535.72
575.952	42913.14
576.151	43191.66
576.349	42589.56
576.547	42687.86
576.745	42710.39
576.943	42444.15
577.141	42476.92
577.339	42837.36
577.537	41977.22
577.735	42102.14
577.933	41653.64
578.131	42042.75
578.329	41684.36
578.527	41590.15
578.725	41678.21
578.923	41557.38
579.121	41338.25
579.319	41190.8
579.516	41291.15
579.714	41321.87
579.912	41129.36
580.11	41037.2
580.308	41299.34
580.506	41092.49
580.704	40420.76
580.901	40842.64
581.099	40891.79
581.297	40445.33
581.495	40811.92
581.692	40658.32
581.89	39720.35
582.088	40193.43
582.285	39736.74
582.483	40142.24
582.681	40387.99
582.878	40215.96
583.076	39652.77
583.274	39953.82
583.471	39378.34
583.669	39636.39
583.866	38927.79
584.064	39425.45
584.262	38618.55
584.459	39392.68
584.657	38878.64
584.854	39128.49
585.052	38387.13
585.249	38802.86
585.447	38571.44
585.644	38249.91
585.841	38591.92
586.039	38649.27
586.236	38133.18
586.434	38016.44
586.631	37828.03
586.828	38186.43
587.026	37664.19
587.223	37932.48
587.42	37832.13
587.618	37617.09
587.815	37246.41
588.012	37123.53
588.21	37207.5
588.407	37455.3
588.604	37199.3
588.801	37076.43
588.999	36928.97
589.196	36808.14
589.393	36472.28
589.59	36744.66
589.787	36480.47
589.984	36369.88
590.182	35935.71
590.379	36480.47
590.576	35675.62
590.773	36175.32
590.97	36247
591.167	35950.04
591.364	35593.7
591.561	36011.48
591.758	35087.85
591.955	35636.7
592.152	35456.48
592.349	35466.72
592.546	35300.84
592.743	35026.41
592.94	34778.61
593.137	34940.39
593.334	35270.12
593.531	34569.71
593.727	34477.55
593.924	34792.94
594.121	33781.24
594.318	34377.2
594.515	34012.66
594.712	34694.64
594.908	34043.38
595.105	34375.16
595.302	33811.96
595.499	34008.57
595.696	33678.85
595.892	33400.32
596.089	33912.31
596.286	33738.24
596.482	33084.94
596.679	33074.7
596.876	33173
597.072	32781.84
597.269	32951.82
597.466	32990.73
597.662	32648.72
597.859	32513.55
598.055	32706.06
598.252	32665.1
598.448	32462.35
598.645	32122.39
598.841	31927.83
599.038	31868.44
599.234	32177.69
599.431	31749.66
599.627	31655.45
599.824	32028.18
600.02	31544.86
600.217	31675.93
600.413	31503.9
600.609	31188.52
600.806	31028.77
601.002	31368.74
601.198	30871.08
601.395	30654
601.591	31088.17
601.787	30891.56
601.984	30651.95
602.18	30936.62
602.376	30418.48
602.572	30578.22
602.769	30266.93
602.965	30101.04
603.161	30443.06
603.357	30242.35
603.553	30068.28
603.75	30271.03
603.946	29974.07
604.142	29828.66
604.338	29697.59
604.534	29638.2
604.73	29316.67
604.926	29345.34
605.122	29580.86
605.318	29263.43
605.514	29206.08
605.71	28751.43
605.906	28909.13
606.102	29038.15
606.298	29068.87
606.494	28806.73
606.69	28917.32
606.886	28577.36
607.082	28706.38
607.278	28761.67
607.474	28053.08
607.67	28929.61
607.866	28216.91
608.062	28501.58
608.257	28024.4
608.453	28085.84
608.649	28438.09
608.845	27840.09
609.041	28304.98
609.236	28126.8
609.432	27737.69
609.628	28286.54
609.824	27848.28
610.019	27637.34
610.215	27709.02
610.411	27893.33
610.606	27500.12
610.802	27432.54
610.998	27436.64
611.193	27598.43
611.389	27270.75
611.584	27350.62
611.78	27033.19
611.976	27166.31
612.171	27088.48
612.367	27117.15
612.562	26891.88
612.758	26924.65
612.953	26789.48
613.149	26973.8
613.344	26703.46
613.539	27049.57
613.735	26973.8
613.93	27039.33
614.126	26535.53
614.321	26654.31
614.517	26664.55
614.712	26793.58
614.907	26269.3
615.103	26871.4
615.298	26519.15
615.493	26615.4
615.688	26297.97
615.884	26594.92
616.079	26091.12
616.274	26140.27
616.47	26465.9
616.665	26226.29
616.86	25716.34
617.055	25949.81
617.25	25759.35
617.445	25933.43
617.641	25319.04
617.836	25673.34
618.031	25327.23
618.226	25566.84
618.421	25392.76
618.616	25683.58
618.811	25024.13
619.006	25499.26
619.201	25196.16
619.396	25284.22
619.591	24833.67
619.786	25341.57
619.981	24403.6
620.176	24860.29
620.371	24424.08
620.566	24604.3
620.761	24450.7
620.956	24360.59
621.151	24127.12
621.346	24331.92
621.541	23621.27
621.735	24118.93
621.93	23697.05
622.125	23596.7
622.32	23154.33
622.515	23533.21
622.709	23119.52
622.904	23527.06
623.099	23246.49
623.294	23135.9
623.488	23082.66
623.683	23140
623.878	22568.62
624.072	22253.23
624.267	22488.74
624.462	22181.55
624.656	22306.48
624.851	22286
625.046	22245.04
625.24	22009.52
625.435	21616.31
625.629	21524.15
625.824	21552.82
626.018	21305.02
626.213	20995.78
626.407	21479.1
626.602	20754.12
626.796	21153.47
626.991	20881.09
627.185	20678.34
627.38	20567.75
627.574	20657.86
627.768	20219.6
627.963	20109.01
628.157	20022.99
628.352	19953.36
628.546	19850.96
628.74	20104.91
628.935	19920.59
629.129	19902.16
629.323	19285.72
629.517	19371.74
629.712	19105.5
629.906	19154.65
630.1	19101.4
630.294	18757.35
630.489	19099.36
630.683	19269.34
630.877	18663.14
631.071	18577.12
631.265	18661.09
631.459	18460.39
631.653	18198.25
631.848	18081.52
632.042	18093.8
632.236	18364.14
632.43	17991.41
632.624	18120.43
632.818	17643.25
633.012	17870.58
633.206	17602.29
633.4	17655.54
633.594	17293.05
633.788	17499.89
633.982	17403.64
634.176	17223.42
634.369	16963.33
634.563	17020.67
634.757	16807.68
634.951	16711.42
635.145	16860.93
635.339	16787.2
635.533	16754.43
635.726	16566.02
635.92	16365.32
636.114	16287.5
636.308	16232.2
636.501	16314.12
636.695	15978.25
636.889	16156.43
637.083	16076.55
637.276	15838.99
637.47	15654.67
637.664	15621.91
637.857	15705.87
638.051	15431.44
638.244	15453.97
638.438	15515.41
638.632	15425.3
638.825	15202.07
639.019	15249.18
639.212	14847.77
639.406	15054.62
639.599	14765.85
639.793	15087.39
639.986	14679.84
640.18	14855.97
640.373	14667.55
640.567	14479.14
640.76	14530.34
640.954	14184.23
641.147	14386.98
641.34	14176.04
641.534	14176.04
641.727	14241.57
641.92	14159.66
642.114	13872.94
642.307	14049.07
642.5	13922.09
642.694	13633.33
642.887	13647.66
643.08	13764.4
643.273	13594.42
643.467	13455.15
643.66	13403.96
643.853	13305.65
644.046	13328.18
644.239	13102.9
644.432	13025.08
644.626	12971.83
644.819	13076.28
645.012	13037.37
645.205	12842.81
645.398	13063.99
645.591	12738.37
645.784	12762.94
645.977	12560.19
646.17	12543.81
646.363	12384.07
646.556	12226.37
646.749	12064.58
646.942	12476.23
647.135	12273.48
647.328	12359.49
647.521	12089.16
647.714	11992.9
647.907	12068.68
648.099	11611.98
648.292	11855.69
648.485	11755.34
648.678	11503.44
648.871	11771.72
649.064	11554.64
649.256	11616.08
649.449	11454.29
649.642	11388.75
649.835	11169.62
650.027	11423.57
650.22	11247.44
650.413	11079.51
650.605	11247.44
650.798	11335.51
650.991	10919.77
651.183	11089.75
651.376	10891.1
651.568	11059.03
651.761	10684.25
651.954	10733.4
652.146	10590.05
652.339	10772.32
652.531	10544.99
652.724	10553.18
652.916	10250.08
653.109	10422.11
653.301	10354.53
653.494	10375.01
653.686	10065.77
653.879	10346.34
654.071	10336.1
654.263	10186.6
654.456	9953.13
654.648	9987.94
654.84	9731.95
655.033	9891.69
655.225	9840.49
655.417	9697.13
655.61	9793.39
655.802	9785.19
655.994	9631.6
656.186	9684.84
656.379	9420.66
656.571	9434.99
656.763	9310.07
656.955	9387.89
657.148	9447.28
657.34	9295.73
657.532	9199.48
657.724	9320.31
657.916	9105.27
658.108	9283.44
658.3	8994.68
658.492	8916.86
658.684	8898.42
658.876	8796.03
659.068	9006.97
659.26	8757.11
659.452	8761.21
659.644	8884.09
659.836	8570.75
660.028	8712.06
660.22	8413.06
660.412	8587.13
660.604	8359.81
660.796	8466.3
660.988	8347.52
661.18	8370.05
661.372	8269.7
661.563	8363.9
661.755	8124.29
661.947	8263.55
662.139	8191.87
662.331	8095.62
662.522	8019.85
662.714	8038.28
662.906	8073.09
663.097	8017.8
663.289	7890.82
663.481	7794.57
663.673	7896.97
663.864	7804.81
664.056	7802.76
664.247	7694.22
664.439	7614.35
664.631	7679.88
664.822	7552.91
665.014	7567.24
665.205	7532.43
665.397	7454.61
665.588	7557
665.78	7466.89
665.971	7337.87
666.163	7526.29
666.354	7350.16
666.546	7174.03
666.737	7286.67
666.929	7284.62
667.12	7210.9
667.311	7143.31
667.503	7309.2
667.694	7090.07
667.885	7110.55
668.077	6979.48
668.268	7196.56
668.459	7022.48
668.651	6823.83
668.842	6979.48
669.033	6848.41
669.224	6821.78
669.416	7018.39
669.607	7014.29
669.798	6735.77
669.989	6684.57
670.18	6694.81
670.371	6713.24
670.563	6670.23
670.754	6651.8
670.945	6670.23
671.136	6670.23
671.327	6649.75
671.518	6588.32
671.709	6616.99
671.9	6436.77
672.091	6528.92
672.282	6444.96
672.473	6301.6
672.664	6440.86
672.855	6291.36
673.046	6332.32
673.237	6272.93
673.428	6221.73
673.619	6383.52
673.809	6123.43
674	6266.78
674.191	6145.95
674.382	6166.43
674.573	6191.01
674.764	6076.32
674.954	6221.73
675.145	6051.75
675.336	6000.55
675.527	5879.72
675.717	6029.22
675.908	5986.21
676.099	5928.87
676.289	5943.21
676.48	5869.48
676.671	5730.22
676.861	5902.25
677.052	5849
677.243	5730.22
677.433	5834.66
677.624	5787.56
677.814	5699.5
678.005	5742.5
678.195	5748.65
678.386	5670.83
678.576	5566.38
678.767	5767.08
678.957	5558.19
679.148	5627.82
679.338	5646.25
679.529	5576.62
679.719	5658.54
679.909	5732.26
680.1	5547.95
680.29	5623.72
680.481	5513.13
680.671	5498.8
680.861	5453.74
681.052	5492.65
681.242	5425.07
681.432	5509.04
681.622	5365.68
681.813	5361.58
682.003	5429.17
682.193	5347.25
682.383	5410.73
682.573	5351.34
682.764	5248.94
682.954	5283.76
683.144	5314.48
683.334	5289.9
683.524	5296.05
683.714	5279.66
683.904	5281.71
684.094	5244.85
684.284	5349.29
684.474	5320.62
684.664	5353.39
684.854	5095.35
685.044	5099.44
685.234	5126.07
685.424	5144.5
685.614	4995
685.804	5089.2
685.994	4972.47
686.184	5066.67
686.374	4997.04
686.564	5042.1
686.753	4972.47
686.943	4931.51
687.133	4800.44
687.323	4896.69
687.513	4947.89
687.702	4902.84
687.892	4833.21
688.082	4923.32
688.272	4747.19
688.461	4829.11
688.651	4853.69
688.841	4667.32
689.03	4749.24
689.22	4669.37
689.41	4784.05
689.599	4640.7
689.789	4638.65
689.979	4673.46
690.168	4616.12
690.358	4630.46
690.547	4652.98
690.737	4566.97
690.926	4575.16
691.116	4308.93
691.305	4446.14
691.495	4327.36
691.684	4462.52
691.874	4472.76
692.063	4421.56
692.252	4337.6
692.442	4446.14
692.631	4368.32
692.82	4308.93
693.01	4317.12
693.199	4214.72
693.388	4130.75
693.578	4204.48
693.767	4194.24
693.956	4143.04
694.146	4181.95
694.335	4147.14
694.524	4100.03
694.713	4114.37
694.902	4065.22
695.092	4054.98
695.281	4020.16
695.47	3971.01
695.659	4081.6
695.848	3891.14
696.037	3979.2
696.226	4106.18
696.415	3952.58
696.604	3921.86
696.793	3942.34
696.982	3925.96
697.171	3971.01
697.36	3962.82
697.549	3856.33
697.738	3807.17
697.927	3860.42
698.116	3958.72
698.305	3944.39
698.494	3870.66
698.683	3784.65
698.872	3864.52
699.061	3889.09
699.25	3817.41
699.438	3688.39
699.627	3768.26
699.816	3907.52
700.005	3715.02
700.193	3651.53
700.382	3741.64
700.571	3659.72
700.76	3770.31
700.948	3893.19
701.137	3676.1
701.326	3575.75
701.514	3581.9
701.703	3715.02
701.892	3620.81
702.08	3676.1
702.269	3624.9
702.457	3622.86
702.646	3512.27
702.834	3651.53
703.023	3516.36
703.212	3643.34
703.4	3655.62
703.589	3524.55
703.777	3604.43
703.965	3639.24
704.154	3592.14
704.342	3538.89
704.531	3620.81
704.719	3487.69
704.907	3463.12
705.096	3551.18
705.284	3588.04
705.472	3524.55
705.661	3430.35
705.849	3475.4
706.037	3487.69
706.226	3375.05
706.414	3530.7
706.602	3530.7
706.79	3471.31
706.979	3426.25
707.167	3387.34
707.355	3477.45
707.543	3481.55
707.731	3391.44
707.919	3481.55
708.107	3473.35
708.296	3366.86
708.484	3395.53
708.672	3264.46
708.86	3383.24
709.048	3465.16
709.236	3454.92
709.424	3379.15
709.612	3434.44
709.8	3270.61
709.988	3397.58
710.176	3286.99
710.364	3422.16
710.551	3440.59
710.739	3272.65
710.927	3379.15
711.115	3508.17
711.303	3332.05
711.491	3454.92
711.679	3356.62
711.866	3286.99
712.054	3413.96
712.242	3416.01
712.43	3454.92
712.617	3243.98
712.805	3340.24
712.993	3258.32
713.181	3192.78
713.368	3155.92
713.556	3325.9
713.744	3213.26
713.931	3442.64
714.119	3192.78
714.306	3323.85
714.494	3250.13
714.682	3266.51
714.869	3370.96
715.057	3387.34
715.244	3258.32
715.432	3203.02
715.619	3080.14
715.807	3203.02
715.994	3262.41
716.182	3299.28
716.369	3254.22
716.556	3289.04
716.744	3291.09
716.931	3264.46
717.119	3332.05
717.306	3155.92
717.493	3274.7
717.681	3217.36
717.868	3360.72
718.055	3227.6
718.242	3217.36
718.43	3217.36
718.617	3284.94
718.804	3276.75
718.991	3248.08
719.179	3186.64
719.366	3157.97
719.553	3207.12
719.74	3270.61
719.927	3262.41
720.114	3135.44
720.301	3137.49
720.488	3131.34
720.676	3108.82
720.863	3221.45
721.05	3168.21
721.237	3207.12
721.424	3147.73
721.611	3137.49
721.798	3170.26
721.985	3139.54
722.172	3203.02
722.358	3117.01
722.545	3217.36
722.732	3188.69
722.919	3145.68
723.106	3110.86
723.293	3037.14
723.48	3080.14
723.667	3243.98
723.853	3149.78
724.04	3104.72
724.227	3157.97
724.414	3080.14
724.6	3166.16
724.787	3256.27
724.974	3084.24
725.161	3069.91
725.347	3110.86
725.534	3172.3
725.72	3149.78
725.907	3237.84
726.094	3286.99
726.28	3211.22
726.467	3280.85
726.653	3164.11
726.84	3213.26
727.027	3248.08
727.213	3039.19
727.4	3215.31
727.586	3160.02
727.773	3024.85
727.959	3074
728.145	3162.06
728.332	3192.78
728.518	3215.31
728.705	3176.4
728.891	3121.1
729.077	3127.25
729.264	3205.07
729.45	3065.81
729.636	3278.8
729.823	3082.19
730.009	3166.16
730.195	3149.78
730.382	3219.41
730.568	3260.37
730.754	3174.35
730.94	3096.53
731.126	3266.51
731.313	3166.16
731.499	3198.93
731.685	3319.76
731.871	3074
732.057	3243.98
732.243	3049.43
732.429	3157.97
732.615	3233.74
732.801	3192.78
732.987	3184.59
733.173	3061.71
733.359	3162.06
733.545	3162.06
733.731	3178.45
733.917	3010.51
734.103	3121.1
734.289	3172.3
734.475	2959.31
734.661	3219.41
734.847	3180.5
735.033	3123.15
735.219	3172.3
735.404	3100.62
735.59	3219.41
735.776	3119.06
735.962	3270.61
736.148	3227.6
736.333	3233.74
736.519	3278.8
736.705	3174.35
736.89	3190.74
737.076	3160.02
737.262	3065.81
737.447	3127.25
737.633	3049.43
737.819	3160.02
738.004	3090.38
738.19	3160.02
738.375	3170.26
738.561	3160.02
738.747	3180.5
738.932	3117.01
739.118	3223.5
739.303	3280.85
739.489	3207.12
739.674	3153.87
739.859	2959.31
740.045	3137.49
740.23	3094.48
740.416	3094.48
740.601	3090.38
740.786	2992.08
740.972	3155.92
741.157	3125.2
741.342	3028.95
741.528	3006.42
741.713	2996.18
741.898	3108.82
742.084	3100.62
742.269	3067.86
742.454	3096.53
742.639	3067.86
742.824	3086.29
743.01	3090.38
743.195	3092.43
743.38	3059.67
743.565	2891.73
743.75	3069.91
743.935	2969.55
744.12	2990.03
744.305	2920.4
744.49	2895.83
744.675	2992.08
744.86	2959.31
745.045	2852.82
745.23	2975.7
745.415	2836.44
745.6	2961.36
745.785	2824.15
745.97	2867.16
746.155	2805.72
746.34	3004.37
746.525	2881.49
746.71	2883.54
746.895	2766.81
747.079	2783.19
747.264	2695.13
747.449	2840.53
747.634	2885.59
747.819	2736.09
748.003	2772.95
748.188	2723.8
748.373	2695.13
748.557	2869.2
748.742	2703.32
748.927	2650.07
749.111	2586.58
749.296	2699.22
749.481	2693.08
749.665	2547.67
749.85	2580.44
750.034	2662.36
750.219	2658.26
750.404	2506.71
750.588	2660.31
750.773	2533.34
750.957	2506.71
751.141	2494.43
751.326	2420.7
751.51	2443.23
751.695	2414.56
751.879	2447.32
752.064	2510.81
752.248	2408.41
752.432	2373.6
752.617	2375.64
752.801	2443.23
752.985	2437.08
753.17	2418.65
753.354	2404.32
753.538	2306.01
753.722	2254.81
753.907	2205.66
754.091	2260.96
754.275	2355.16
754.459	2224.09
754.643	2330.59
754.828	2285.53
755.012	2160.61
755.196	2240.48
755.38	2154.46
755.564	2201.57
755.748	2076.64
755.932	2269.15
756.116	2056.16
756.3	2142.18
756.484	2074.59
756.668	2111.46
756.852	2113.5
757.036	1972.19
757.22	1949.67
757.404	1968.1
757.588	2023.39
757.772	1953.76
757.956	1966.05
758.14	2009.06
758.323	1902.56
758.507	2041.82
758.691	2007.01
758.875	1961.95
759.059	1935.33
759.242	1898.47
759.426	1914.85
759.61	1929.19
759.794	1884.13
759.977	1869.8
760.161	2009.06
760.345	1880.04
760.528	1927.14
760.712	1722.34
760.895	1806.31
761.079	1894.37
761.263	1837.03
761.446	1761.25
761.63	1892.32
761.813	1716.2
761.997	1708.01
762.18	1751.01
762.364	1830.88
762.547	1687.53
762.731	1714.15
762.914	1708.01
763.098	1751.01
763.281	1734.63
763.464	1705.96
763.648	1720.29
763.831	1675.24
764.015	1644.52
764.198	1769.44
764.381	1710.05
764.564	1652.71
764.748	1716.2
764.931	1624.04
765.114	1597.42
765.297	1662.95
765.481	1546.22
765.664	1570.79
765.847	1589.22
766.03	1578.98
766.213	1597.42
766.397	1619.94
766.58	1703.91
766.763	1677.29
766.946	1517.54
767.129	1521.64
767.312	1476.59
767.495	1601.51
767.678	1521.64
767.861	1574.89
768.044	1554.41
768.227	1603.56
768.41	1568.74
768.593	1578.98
768.776	1492.97
768.959	1562.6
769.142	1529.83
769.324	1462.25
769.507	1474.54
769.69	1398.76
769.873	1437.67
770.056	1521.64
770.239	1339.37
770.421	1452.01
770.604	1468.39
770.787	1394.67
770.97	1417.19
771.152	1349.61
771.335	1423.34
771.518	1284.08
771.7	1411.05
771.883	1456.11
772.066	1327.08
772.248	1415.15
772.431	1306.6
772.613	1339.37
772.796	1183.73
772.978	1306.6
773.161	1454.06
773.343	1288.17
773.526	1214.45
773.708	1322.99
773.891	1253.36
774.073	1273.84
774.256	1259.5
774.438	1322.99
774.621	1312.75
774.803	1331.18
774.985	1193.97
775.168	1210.35
775.35	1241.07
775.532	1216.49
775.715	1216.49
775.897	1187.82
776.079	1075.18
776.261	1202.16
776.444	1128.43
776.626	1179.63
776.808	1243.12
776.99	1136.62
777.173	1081.33
777.355	1189.87
777.537	1105.9
777.719	1136.62
777.901	1105.9
778.083	1036.27
778.265	1101.81
778.447	1155.05
778.629	1071.09
778.811	1015.79
778.993	1040.37
779.175	997.36
779.357	1105.9
779.539	1003.5
779.721	1132.53
779.903	1011.7
780.085	1173.49
780.267	933.87
780.449	991.22
780.631	1044.46
780.812	970.74
780.994	964.59
781.176	937.97
781.358	964.59
781.54	999.41
781.721	911.35
781.903	1011.7
782.085	907.25
782.267	931.83
782.448	849.91
782.63	823.28
782.812	841.72
782.993	847.86
783.175	827.38
783.357	835.57
783.538	800.76
783.72	856.05
783.901	821.24
784.083	747.51
784.264	767.99
784.446	772.08
784.627	774.13
784.809	823.28
784.99	767.99
785.172	778.23
785.353	653.3
785.535	729.08
785.716	827.38
785.897	751.6
786.079	788.47
786.26	749.56
786.441	702.45
786.623	704.5
786.804	649.21
786.985	706.55
787.167	690.17
787.348	649.21
787.529	718.84
787.71	722.93
787.891	661.49
788.073	563.19
788.254	595.96
788.435	630.77
788.616	598.01
788.797	665.59
788.978	663.54
789.159	593.91
789.34	669.69
789.522	675.83
789.703	614.39
789.884	581.62
790.065	651.25
790.246	495.61
790.427	591.86
790.607	610.29
790.788	614.39
790.969	589.81
791.15	585.72
791.331	641.01
791.512	561.14
791.693	499.7
791.874	542.71
792.054	669.69
792.235	550.9
792.416	624.63
792.597	503.8
792.778	555
792.958	511.99
793.139	561.14
793.32	550.9
793.5	464.89
793.681	585.72
793.862	550.9
794.042	518.14
794.223	460.79
794.404	565.24
794.584	466.94
794.765	522.23
794.945	468.98
795.126	509.94
795.306	458.74
795.487	507.9
795.667	454.65
795.848	495.61
796.028	481.27
796.209	589.81
796.389	440.31
796.57	423.93
796.75	395.26
796.93	501.75
797.111	518.14
797.291	534.52
797.471	458.74
797.652	559.1
797.832	368.63
798.012	491.51
798.192	468.98
798.373	444.41
798.553	395.26
798.733	466.94
798.913	407.55
799.093	395.26
799.274	501.75
799.454	397.31
799.634	417.79
799.814	417.79
799.994	468.98
800.174	380.92
800.354	337.91
800.534	468.98
800.714	385.02
800.894	399.35
801.074	352.25
801.254	389.11
801.434	456.7
801.614	405.5
801.794	329.72
801.974	952.31
802.154	372.73
802.334	425.98
802.514	366.59
802.693	389.11
802.873	387.07
803.053	464.89
803.233	362.49
803.413	333.82
803.592	344.06
803.772	311.29
803.952	313.34
804.131	286.72
804.311	348.15
804.491	440.31
804.67	380.92
804.85	370.68
805.03	393.21
805.209	317.44
805.389	204.8
805.568	348.15
805.748	354.3
805.928	268.28
806.107	368.63
806.287	337.91
806.466	342.01
806.646	360.44
806.825	288.76
807.004	307.2
807.184	348.15
807.363	405.5
807.543	311.29
807.722	329.72
807.901	317.44
808.081	315.39
808.26	215.04
808.439	380.92
808.619	321.53
808.798	256
808.977	284.67
809.156	311.29
809.336	317.44
809.515	317.44
809.694	256
809.873	319.48
810.052	370.68
810.231	235.52
810.411	296.96
810.59	260.09
810.769	268.28
810.948	348.15
811.127	249.85
811.306	233.47
811.485	241.66
811.664	405.5
811.843	301.05
812.022	247.8
812.201	272.38
812.38	288.76
812.559	229.37
812.737	288.76
812.916	198.65
813.095	182.27
813.274	202.75
813.453	184.32
813.632	335.87
813.811	266.24
813.989	227.32
814.168	253.95
814.347	221.18
814.526	243.71
814.704	262.14
814.883	221.18
815.062	133.12
815.24	253.95
815.419	210.94
815.598	264.19
815.776	192.51
815.955	176.13
816.133	151.55
816.312	229.37
816.49	112.64
816.669	190.46
816.847	190.46
817.026	239.61
817.204	143.36
817.383	178.17
817.561	266.24
817.74	251.9
817.918	239.61
818.097	223.23
818.275	161.79
818.453	262.14
818.632	151.55
818.81	202.75
818.988	227.32
819.167	149.5
819.345	231.42
819.523	129.02
819.701	208.89
819.879	192.51
820.058	243.71
820.236	204.8
820.414	210.94
820.592	110.59
820.77	231.42
820.948	210.94
821.127	135.17
821.305	176.13
821.483	208.89
821.661	227.32
821.839	153.6
822.017	141.31
822.195	186.37
822.373	184.32
822.551	145.41
822.729	204.8
822.907	249.85
823.085	151.55
823.262	204.8
823.44	169.98
823.618	161.79
823.796	200.7
823.974	163.84
824.152	204.8
824.329	159.74
824.507	145.41
824.685	256
824.863	180.22
825.04	120.83
825.218	180.22
825.396	196.6
825.574	235.52
825.751	215.04
825.929	137.21
826.107	75.77
826.284	174.08
826.462	147.45
826.639	98.3
826.817	112.64
826.994	161.79
827.172	86.01
827.349	200.7
827.527	143.36
827.704	180.22
827.882	114.69
828.059	208.89
828.237	135.17
828.414	159.74
828.591	124.93
828.769	129.02
828.946	114.69
829.124	169.98
829.301	208.89
829.478	124.93
829.655	145.41
829.833	147.45
830.01	122.88
830.187	174.08
830.364	149.5
830.542	133.12
830.719	118.78
830.896	108.54
831.073	202.75
831.25	190.46
831.427	147.45
831.604	133.12
831.782	102.4
831.959	155.65
832.136	172.03
832.313	155.65
832.49	131.07
832.667	112.64
832.844	126.97
833.021	151.55
833.198	233.47
833.374	102.4
833.551	145.41
833.728	96.25
833.905	212.99
834.082	155.65
834.259	86.01
834.436	151.55
834.612	129.02
834.789	100.35
834.966	217.08
835.143	153.6
835.319	90.11
835.496	200.7
835.673	90.11
835.85	151.55
836.026	57.34
836.203	151.55
836.38	47.1
836.556	172.03
836.733	124.93
836.909	169.98
837.086	75.77
837.262	81.92
837.439	86.01
837.616	110.59
837.792	122.88
837.968	122.88
838.145	12.29
838.321	131.07
838.498	161.79
838.674	163.84
838.851	94.21
839.027	135.17
839.203	178.17
839.38	96.25
839.556	157.69
839.732	129.02
839.909	77.82
840.085	34.82
840.261	16.38
840.437	90.11
840.614	81.92
840.79	98.3
840.966	114.69
841.142	102.4
841.318	67.58
841.494	135.17
841.671	112.64
841.847	86.01
842.023	43.01
842.199	8.19
842.375	106.49
842.551	59.39
842.727	131.07
842.903	102.4
843.079	16.38
843.255	118.78
843.431	94.21
843.607	86.01
843.783	90.11
843.959	112.64
844.134	98.3
844.31	100.35
844.486	92.16
844.662	83.97
844.838	43.01
845.013	116.73
845.189	120.83
845.365	102.4
845.541	71.68
845.716	86.01
845.892	106.49
846.068	65.53
846.244	40.96
846.419	161.79
846.595	67.58
846.77	55.3
846.946	124.93
847.122	36.86
847.297	-6.14
847.473	131.07
847.648	47.1
847.824	83.97
847.999	112.64
848.175	153.6
848.35	53.25
848.526	51.2
848.701	34.82
848.876	71.68
849.052	77.82
849.227	151.55
849.403	79.87
849.578	77.82
849.753	75.77
849.929	83.97
850.104	45.06
850.279	63.49
850.454	26.62
850.63	-20.48
850.805	36.86
850.98	30.72
851.155	55.3
851.33	114.69
851.505	106.49
851.681	100.35
851.856	34.82
852.031	151.55
852.206	88.06
852.381	30.72
852.556	-0
852.731	73.73
852.906	8.19
853.081	124.93
853.256	83.97
853.431	147.45
853.606	28.67
853.781	10.24
853.956	40.96
854.131	-6.14
854.305	106.49
854.48	53.25
854.655	49.15
854.83	116.73
855.005	8.19
855.18	14.34
855.354	24.58
855.529	69.63
855.704	63.49
855.879	67.58
856.053	-16.38
856.228	45.06
856.403	57.34
856.577	75.77
856.752	51.2
856.926	94.21
857.101	26.62
857.276	-20.48
857.45	-0
857.625	77.82
857.799	8.19
857.974	90.11
858.148	-20.48
858.323	-4.1
858.497	6.14
858.672	-8.19
858.846	77.82
859.02	116.73
859.195	-2.05
859.369	16.38
859.543	106.49
859.718	36.86
859.892	112.64
860.066	63.49
860.241	67.58
860.415	57.34
860.589	28.67
860.763	83.97
860.938	14.34
861.112	38.91
861.286	20.48
861.46	2.05
861.634	63.49
861.808	88.06
861.982	-8.19
862.157	45.06
862.331	73.73
862.505	40.96
862.679	-63.49
862.853	51.2
863.027	26.62
863.201	40.96
863.375	38.91
863.549	63.49
863.722	26.62
863.896	151.55
864.07	-24.58
864.244	22.53
864.418	159.74
864.592	75.77
864.766	-47.1
864.939	45.06
865.113	-2.05
865.287	77.82
865.461	14.34
865.634	51.2
865.808	-65.54
865.982	59.39
866.156	-28.67
866.329	-20.48
866.503	49.15
866.676	67.58
866.85	-18.43
867.024	38.91
867.197	73.73
867.371	22.53
867.544	-20.48
867.718	53.25
867.891	114.69
868.065	79.87
868.238	45.06
868.412	45.06
868.585	59.39
868.759	57.34
868.932	12.29
869.105	10.24
869.279	63.49
869.452	-20.48
869.625	28.67
869.799	-14.34
869.972	51.2
870.145	83.97
870.319	38.91
870.492	-49.15
870.665	8.19
870.838	18.43
871.011	28.67
871.185	94.21
871.358	6.14
871.531	59.39
871.704	20.48
871.877	79.87
872.05	-22.53
872.223	14.34
872.396	36.86
872.569	24.58
872.742	-32.77
872.915	-28.67
873.088	55.3
873.261	-51.2
873.434	102.4
873.607	92.16
873.78	75.77
873.953	-63.49
874.126	20.48
874.299	10.24
874.471	63.49
874.644	77.82
874.817	-14.34
874.99	18.43
875.163	63.49
875.335	28.67
875.508	-12.29
875.681	10.24
875.853	2.05
876.026	4.1
876.199	-0
876.371	43.01
876.544	57.34
876.717	28.67
876.889	-55.3
877.062	24.58
877.234	-2.05
877.407	71.68
877.579	-57.34
877.752	38.91
877.924	77.82
878.097	-10.24
878.269	75.77
878.442	6.14
878.614	69.63
878.786	6.14
878.959	14.34
879.131	4.1
879.303	-30.72
879.476	-49.15
879.648	40.96
879.82	86.01
879.993	-10.24
880.165	-20.48
880.337	-10.24
880.509	79.87
880.681	-10.24
880.854	-40.96
881.026	77.82
881.198	57.34
881.37	86.01
881.542	71.68
881.714	30.72
881.886	34.82
882.058	-28.67
882.23	47.1
882.402	14.34
882.574	-51.2
882.746	38.91
882.918	28.67
883.09	79.87
883.262	22.53
883.434	10.24
883.606	-18.43
883.778	30.72
883.95	98.3
884.122	4.1
884.293	10.24
884.465	-79.87
884.637	32.77
884.809	-10.24
884.98	67.58
885.152	-24.58
885.324	24.58
885.496	45.06
885.667	-40.96
885.839	12.29
886.011	98.3
886.182	24.58
886.354	43.01
886.525	32.77
886.697	28.67
886.869	2.05
887.04	-20.48
887.212	32.77
887.383	112.64
887.555	2.05
887.726	6.14
887.897	-53.25
888.069	38.91
888.24	-34.82
888.412	36.86
888.583	-10.24
888.754	-30.72
888.926	-49.15
889.097	22.53
889.268	-34.82
889.44	38.91
889.611	-69.63
889.782	-14.34
889.953	24.58
890.125	59.39
890.296	-2.05
890.467	-26.62
890.638	-63.49
890.809	-38.91
890.98	20.48
891.151	16.38
891.323	63.49
891.494	51.2
891.665	-16.38
891.836	57.34
892.007	24.58
892.178	-12.29
892.349	53.25
892.52	36.86
892.691	30.72
892.862	32.77
893.032	-32.77
893.203	6.14
893.374	30.72
893.545	30.72
893.716	14.34
893.887	10.24
894.057	-40.96
894.228	2.05
894.399	-34.82
894.57	12.29
894.74	20.48
894.911	-18.43
895.082	30.72
895.253	49.15
895.423	43.01
895.594	4.1
895.764	-24.58
895.935	-14.34
896.106	-24.58
896.276	-77.82
896.447	-0
896.617	-24.58
896.788	-4.1
896.958	-8.19
897.129	-28.67
897.299	-6.14
897.47	-16.38
897.64	22.53
897.81	-53.25
897.981	36.86
898.151	40.96
898.322	4.1
898.492	-18.43
898.662	-4.1
898.832	-6.14
899.003	59.39
899.173	30.72
899.343	-59.39
899.513	57.34
