Data from USB4F104151__38__12-41-22-794.txt Node

Date: Fri Mar 14 12:41:22 EDT 2025
User: louis
Spectrometer: USB4F10415
Trigger mode: 4
Integration Time (sec): 3.000000E-2
Scans to average: 1
Electric dark correction enabled: true
Nonlinearity correction enabled: false
Boxcar width: 0
XAxis mode: Wavelengths
Number of Pixels in Spectrum: 3648
>>>>>Begin Spectral Data<<<<<
178.204	-171.18
178.424	-171.18
178.644	-171.18
178.864	-128.17
179.084	-122.02
179.304	-15.53
179.524	-36.01
179.744	-38.06
179.964	-21.67
180.184	27.48
180.404	19.29
180.624	37.72
180.844	31.57
181.064	-79.02
181.283	-46.25
181.503	37.72
181.723	82.77
181.943	-9.39
182.163	13.14
182.383	27.48
182.602	25.43
182.822	2.9
183.042	19.29
183.262	-13.48
183.482	-38.06
183.701	-64.68
183.921	-7.34
184.141	19.29
184.361	43.86
184.58	4.95
184.8	47.96
185.02	-11.43
185.239	11.09
185.459	37.72
185.679	31.57
185.898	-58.54
186.118	47.96
186.338	45.91
186.557	-54.44
186.777	-13.48
186.997	-13.48
187.216	-31.91
187.436	123.73
187.655	15.19
187.875	29.52
188.095	33.62
188.314	-7.34
188.534	37.72
188.753	-36.01
188.973	25.43
189.192	80.72
189.412	-21.67
189.631	-25.77
189.851	-38.06
190.07	119.64
190.29	80.72
190.509	-3.24
190.729	41.81
190.948	31.57
191.168	95.06
191.387	62.29
191.607	17.24
191.826	-5.29
192.045	-25.77
192.265	-60.59
192.484	47.96
192.704	13.14
192.923	-17.58
193.142	66.39
193.362	54.1
193.581	2.9
193.8	21.33
194.02	45.91
194.239	50
194.458	54.1
194.678	-5.29
194.897	64.34
195.116	-48.3
195.335	11.09
195.555	-7.34
195.774	-44.2
195.993	93.01
196.212	11.09
196.432	0.85
196.651	0.85
196.87	-29.87
197.089	7
197.308	97.11
197.528	27.48
197.747	-68.78
197.966	-9.39
198.185	115.54
198.404	39.76
198.623	93.01
198.842	17.24
199.062	2.9
199.281	43.86
199.5	-66.73
199.719	-3.24
199.938	50
200.157	27.48
200.376	43.86
200.595	41.81
200.814	2.9
201.033	-7.34
201.252	119.64
201.471	11.09
201.69	154.45
201.909	45.91
202.128	58.2
202.347	17.24
202.566	58.2
202.785	39.76
203.004	-113.83
203.223	82.77
203.442	-1.19
203.661	-5.29
203.879	23.38
204.098	72.53
204.317	70.48
204.536	31.57
204.755	17.24
204.974	-27.82
205.193	31.57
205.411	90.96
205.63	78.68
205.849	-25.77
206.068	37.72
206.287	-33.96
206.505	25.43
206.724	25.43
206.943	15.19
207.162	41.81
207.381	17.24
207.599	39.76
207.818	76.63
208.037	-23.72
208.255	74.58
208.474	50
208.693	99.16
208.911	0.85
209.13	21.33
209.349	41.81
209.567	0.85
209.786	31.57
210.005	2.9
210.223	-33.96
210.442	-81.07
210.661	39.76
210.879	58.2
211.098	17.24
211.316	-1.19
211.535	-25.77
211.753	-13.48
211.972	27.48
212.191	4.95
212.409	13.14
212.628	15.19
212.846	47.96
213.065	7
213.283	35.67
213.502	-13.48
213.72	15.19
213.938	17.24
214.157	29.52
214.375	17.24
214.594	-23.72
214.812	-40.11
215.031	-17.58
215.249	-7.34
215.467	35.67
215.686	-58.54
215.904	37.72
216.122	29.52
216.341	133.97
216.559	52.05
216.778	21.33
216.996	64.34
217.214	7
217.432	35.67
217.651	37.72
217.869	78.68
218.087	11.09
218.306	17.24
218.524	54.1
218.742	11.09
218.96	-91.31
219.179	50
219.397	90.96
219.615	33.62
219.833	35.67
220.051	39.76
220.27	9.05
220.488	68.44
220.706	4.95
220.924	11.09
221.142	13.14
221.36	45.91
221.578	60.24
221.796	-17.58
222.015	-15.53
222.233	-27.82
222.451	56.15
222.669	-19.63
222.887	27.48
223.105	23.38
223.323	64.34
223.541	50
223.759	60.24
223.977	37.72
224.195	17.24
224.413	31.57
224.631	0.85
224.849	19.29
225.067	43.86
225.285	-36.01
225.503	66.39
225.721	-38.06
225.939	11.09
226.157	39.76
226.375	70.48
226.592	13.14
226.81	78.68
227.028	35.67
227.246	111.44
227.464	66.39
227.682	66.39
227.9	41.81
228.117	15.19
228.335	64.34
228.553	25.43
228.771	17.24
228.989	4.95
229.206	70.48
229.424	-15.53
229.642	-13.48
229.86	13.14
230.077	-38.06
230.295	25.43
230.513	21.33
230.731	50
230.948	64.34
231.166	50
231.384	0.85
231.601	50
231.819	117.59
232.037	-9.39
232.254	-23.72
232.472	37.72
232.689	41.81
232.907	-7.34
233.125	21.33
233.342	15.19
233.56	-5.29
233.777	47.96
233.995	62.29
234.213	-27.82
234.43	-21.67
234.648	-19.63
234.865	-13.48
235.083	43.86
235.3	-5.29
235.518	97.11
235.735	64.34
235.953	72.53
236.17	50
236.388	-58.54
236.605	-17.58
236.822	68.44
237.04	76.63
237.257	-15.53
237.475	-58.54
237.692	60.24
237.909	82.77
238.127	-33.96
238.344	13.14
238.562	-5.29
238.779	7
238.996	-9.39
239.214	33.62
239.431	31.57
239.648	13.14
239.865	27.48
240.083	39.76
240.3	54.1
240.517	2.9
240.735	-3.24
240.952	86.87
241.169	47.96
241.386	111.44
241.603	41.81
241.821	-46.25
242.038	105.3
242.255	25.43
242.472	37.72
242.689	23.38
242.907	154.45
243.124	4.95
243.341	56.15
243.558	-21.67
243.775	-42.15
243.992	-66.73
244.209	23.38
244.426	144.21
244.643	43.86
244.86	11.09
245.078	13.14
245.295	72.53
245.512	-3.24
245.729	41.81
245.946	17.24
246.163	-9.39
246.38	-3.24
246.597	-66.73
246.814	-33.96
247.031	-27.82
247.248	27.48
247.464	58.2
247.681	15.19
247.898	4.95
248.115	11.09
248.332	13.14
248.549	76.63
248.766	78.68
248.983	-15.53
249.2	-3.24
249.417	25.43
249.633	9.05
249.85	-9.39
250.067	25.43
250.284	33.62
250.501	-13.48
250.717	11.09
250.934	31.57
251.151	21.33
251.368	-15.53
251.585	-1.19
251.801	39.76
252.018	-33.96
252.235	95.06
252.451	-60.59
252.668	-85.16
252.885	29.52
253.102	45.91
253.318	0.85
253.535	33.62
253.752	-33.96
253.968	-3.24
254.185	-48.3
254.401	13.14
254.618	-38.06
254.835	101.2
255.051	25.43
255.268	31.57
255.484	25.43
255.701	23.38
255.917	15.19
256.134	-31.91
256.351	-1.19
256.567	86.87
256.784	68.44
257	27.48
257.217	-31.91
257.433	4.95
257.65	29.52
257.866	-5.29
258.082	9.05
258.299	31.57
258.515	58.2
258.732	-5.29
258.948	-60.59
259.165	62.29
259.381	41.81
259.597	-13.48
259.814	84.82
260.03	17.24
260.246	-11.43
260.463	0.85
260.679	7
260.895	47.96
261.112	-21.67
261.328	60.24
261.544	-54.44
261.761	109.4
261.977	43.86
262.193	9.05
262.409	86.87
262.626	15.19
262.842	9.05
263.058	60.24
263.274	33.62
263.49	13.14
263.707	56.15
263.923	-42.15
264.139	13.14
264.355	58.2
264.571	-15.53
264.787	21.33
265.004	56.15
265.22	62.29
265.436	17.24
265.652	29.52
265.868	107.35
266.084	-9.39
266.3	-11.43
266.516	-70.83
266.732	60.24
266.948	2.9
267.164	56.15
267.38	39.76
267.596	64.34
267.812	64.34
268.028	-3.24
268.244	-9.39
268.46	56.15
268.676	-1.19
268.892	60.24
269.108	-50.35
269.324	25.43
269.54	-50.35
269.756	52.05
269.972	19.29
270.188	-3.24
270.403	9.05
270.619	45.91
270.835	54.1
271.051	-54.44
271.267	21.33
271.483	27.48
271.698	23.38
271.914	78.68
272.13	-31.91
272.346	47.96
272.562	17.24
272.777	82.77
272.993	13.14
273.209	2.9
273.425	9.05
273.64	47.96
273.856	50
274.072	-7.34
274.287	33.62
274.503	-60.59
274.719	82.77
274.934	35.67
275.15	-13.48
275.366	0.85
275.581	-9.39
275.797	70.48
276.012	0.85
276.228	31.57
276.444	35.67
276.659	-11.43
276.875	17.24
277.09	47.96
277.306	15.19
277.521	27.48
277.737	62.29
277.952	2.9
278.168	35.67
278.383	-11.43
278.599	-46.25
278.814	45.91
279.03	115.54
279.245	56.15
279.461	93.01
279.676	93.01
279.892	21.33
280.107	-33.96
280.322	17.24
280.538	7
280.753	0.85
280.969	90.96
281.184	15.19
281.399	33.62
281.615	99.16
281.83	23.38
282.045	-13.48
282.26	72.53
282.476	9.05
282.691	25.43
282.906	93.01
283.122	21.33
283.337	-11.43
283.552	33.62
283.767	41.81
283.983	-5.29
284.198	11.09
284.413	76.63
284.628	-19.63
284.843	50
285.058	76.63
285.274	88.92
285.489	25.43
285.704	66.39
285.919	19.29
286.134	72.53
286.349	17.24
286.564	-29.87
286.779	66.39
286.995	66.39
287.21	0.85
287.425	29.52
287.64	43.86
287.855	93.01
288.07	-19.63
288.285	68.44
288.5	17.24
288.715	109.4
288.93	39.76
289.145	-5.29
289.36	70.48
289.575	47.96
289.79	31.57
290.004	17.24
290.219	72.53
290.434	-46.25
290.649	56.15
290.864	27.48
291.079	-5.29
291.294	21.33
291.509	86.87
291.724	-38.06
291.938	7
292.153	39.76
292.368	11.09
292.583	-50.35
292.798	56.15
293.012	76.63
293.227	80.72
293.442	15.19
293.657	17.24
293.871	70.48
294.086	7
294.301	90.96
294.516	11.09
294.73	-25.77
294.945	29.52
295.16	43.86
295.374	93.01
295.589	13.14
295.804	-7.34
296.018	60.24
296.233	138.07
296.447	-9.39
296.662	-50.35
296.877	41.81
297.091	-7.34
297.306	52.05
297.52	9.05
297.735	25.43
297.949	-46.25
298.164	68.44
298.378	76.63
298.593	-13.48
298.807	-5.29
299.022	33.62
299.236	4.95
299.451	-42.15
299.665	33.62
299.88	54.1
300.094	60.24
300.309	54.1
300.523	-9.39
300.737	35.67
300.952	-5.29
301.166	-11.43
301.381	19.29
301.595	27.48
301.809	25.43
302.024	-1.19
302.238	47.96
302.452	60.24
302.667	-27.82
302.881	58.2
303.095	90.96
303.309	39.76
303.524	9.05
303.738	64.34
303.952	-15.53
304.166	47.96
304.381	50
304.595	60.24
304.809	-25.77
305.023	70.48
305.237	29.52
305.452	-48.3
305.666	35.67
305.88	13.14
306.094	19.29
306.308	29.52
306.522	95.06
306.736	23.38
306.95	105.3
307.164	29.52
307.379	84.82
307.593	74.58
307.807	133.97
308.021	27.48
308.235	-19.63
308.449	-58.54
308.663	31.57
308.877	115.54
309.091	47.96
309.305	-7.34
309.519	-56.49
309.733	101.2
309.947	7
310.161	125.78
310.374	25.43
310.588	52.05
310.802	-9.39
311.016	62.29
311.23	-1.19
311.444	-1.19
311.658	41.81
311.872	43.86
312.085	11.09
312.299	66.39
312.513	95.06
312.727	99.16
312.941	7
313.154	25.43
313.368	68.44
313.582	58.2
313.796	39.76
314.009	72.53
314.223	-38.06
314.437	39.76
314.651	95.06
314.864	11.09
315.078	-29.87
315.292	27.48
315.505	17.24
315.719	-60.59
315.933	-21.67
316.146	11.09
316.36	29.52
316.573	82.77
316.787	66.39
317.001	23.38
317.214	33.62
317.428	35.67
317.641	47.96
317.855	27.48
318.068	29.52
318.282	33.62
318.495	101.2
318.709	74.58
318.922	13.14
319.136	29.52
319.349	62.29
319.563	17.24
319.776	39.76
319.99	2.9
320.203	107.35
320.417	-17.58
320.63	93.01
320.843	27.48
321.057	-3.24
321.27	-3.24
321.483	4.95
321.697	154.45
321.91	4.95
322.124	105.3
322.337	109.4
322.55	15.19
322.763	-1.19
322.977	62.29
323.19	54.1
323.403	82.77
323.617	129.88
323.83	39.76
324.043	41.81
324.256	50
324.469	-7.34
324.683	-23.72
324.896	17.24
325.109	-13.48
325.322	4.95
325.535	90.96
325.748	99.16
325.962	-52.39
326.175	109.4
326.388	58.2
326.601	88.92
326.814	45.91
327.027	19.29
327.24	70.48
327.453	4.95
327.666	80.72
327.879	58.2
328.092	23.38
328.305	99.16
328.518	37.72
328.731	27.48
328.944	45.91
329.157	25.43
329.37	72.53
329.583	66.39
329.796	154.45
330.009	21.33
330.222	78.68
330.435	117.59
330.648	62.29
330.861	-36.01
331.073	17.24
331.286	72.53
331.499	-3.24
331.712	27.48
331.925	50
332.138	17.24
332.35	54.1
332.563	111.44
332.776	47.96
332.989	-11.43
333.202	27.48
333.414	25.43
333.627	-9.39
333.84	4.95
334.053	111.44
334.265	25.43
334.478	66.39
334.691	33.62
334.903	13.14
335.116	-21.67
335.329	23.38
335.541	29.52
335.754	29.52
335.966	13.14
336.179	60.24
336.392	2.9
336.604	31.57
336.817	50
337.029	25.43
337.242	82.77
337.454	72.53
337.667	17.24
337.88	82.77
338.092	-7.34
338.305	-5.29
338.517	-31.91
338.729	50
338.942	35.67
339.154	-52.39
339.367	-17.58
339.579	-23.72
339.792	-13.48
340.004	15.19
340.217	7
340.429	113.49
340.641	-13.48
340.854	45.91
341.066	19.29
341.278	62.29
341.491	82.77
341.703	37.72
341.915	-48.3
342.128	35.67
342.34	21.33
342.552	113.49
342.764	-15.53
342.977	50
343.189	45.91
343.401	88.92
343.613	-15.53
343.826	-11.43
344.038	56.15
344.25	0.85
344.462	-29.87
344.674	76.63
344.886	64.34
345.099	50
345.311	-13.48
345.523	15.19
345.735	9.05
345.947	35.67
346.159	76.63
346.371	7
346.583	64.34
346.795	123.73
347.007	86.87
347.219	82.77
347.431	70.48
347.643	90.96
347.855	-31.91
348.067	82.77
348.279	-21.67
348.491	107.35
348.703	45.91
348.915	45.91
349.127	-44.2
349.339	-1.19
349.551	-48.3
349.763	52.05
349.975	31.57
350.187	68.44
350.399	101.2
350.61	47.96
350.822	9.05
351.034	72.53
351.246	-50.35
351.458	68.44
351.669	56.15
351.881	41.81
352.093	93.01
352.305	29.52
352.517	123.73
352.728	103.25
352.94	45.91
353.152	60.24
353.363	-5.29
353.575	66.39
353.787	21.33
353.999	111.44
354.21	97.11
354.422	17.24
354.633	23.38
354.845	11.09
355.057	60.24
355.268	37.72
355.48	33.62
355.692	9.05
355.903	-54.44
356.115	27.48
356.326	11.09
356.538	131.92
356.749	29.52
356.961	56.15
357.172	56.15
357.384	13.14
357.595	93.01
357.807	15.19
358.018	60.24
358.23	13.14
358.441	58.2
358.653	76.63
358.864	47.96
359.075	68.44
359.287	33.62
359.498	76.63
359.709	86.87
359.921	64.34
360.132	78.68
360.344	39.76
360.555	88.92
360.766	103.25
360.977	47.96
361.189	76.63
361.4	-21.67
361.611	23.38
361.823	50
362.034	93.01
362.245	11.09
362.456	103.25
362.667	172.88
362.879	15.19
363.09	78.68
363.301	86.87
363.512	123.73
363.723	74.58
363.935	52.05
364.146	109.4
364.357	111.44
364.568	119.64
364.779	62.29
364.99	88.92
365.201	29.52
365.412	97.11
365.623	43.86
365.834	37.72
366.045	80.72
366.256	58.2
366.467	15.19
366.678	0.85
366.889	47.96
367.1	17.24
367.311	19.29
367.522	56.15
367.733	129.88
367.944	39.76
368.155	76.63
368.366	56.15
368.577	142.16
368.788	56.15
368.999	23.38
369.209	97.11
369.42	140.12
369.631	58.2
369.842	127.83
370.053	50
370.264	105.3
370.474	23.38
370.685	43.86
370.896	86.87
371.107	101.2
371.317	90.96
371.528	13.14
371.739	99.16
371.95	54.1
372.16	140.12
372.371	19.29
372.582	-5.29
372.792	17.24
373.003	31.57
373.214	113.49
373.424	70.48
373.635	9.05
373.846	-11.43
374.056	60.24
374.267	33.62
374.477	74.58
374.688	0.85
374.898	39.76
375.109	23.38
375.319	50
375.53	97.11
375.74	45.91
375.951	33.62
376.161	78.68
376.372	41.81
376.582	68.44
376.793	9.05
377.003	7
377.214	109.4
377.424	37.72
377.635	97.11
377.845	62.29
378.055	107.35
378.266	62.29
378.476	-27.82
378.686	82.77
378.897	27.48
379.107	115.54
379.317	115.54
379.528	111.44
379.738	101.2
379.948	27.48
380.158	70.48
380.369	39.76
380.579	133.97
380.789	60.24
380.999	47.96
381.21	95.06
381.42	131.92
381.63	31.57
381.84	103.25
382.05	45.91
382.261	19.29
382.471	90.96
382.681	70.48
382.891	103.25
383.101	43.86
383.311	140.12
383.521	64.34
383.731	115.54
383.941	90.96
384.151	160.59
384.361	29.52
384.571	105.3
384.781	99.16
384.991	60.24
385.201	117.59
385.411	39.76
385.621	76.63
385.831	27.48
386.041	113.49
386.251	-5.29
386.461	117.59
386.671	41.81
386.881	115.54
387.091	29.52
387.301	99.16
387.511	133.97
387.72	90.96
387.93	113.49
388.14	35.67
388.35	76.63
388.56	80.72
388.769	138.07
388.979	138.07
389.189	86.87
389.399	95.06
389.609	66.39
389.818	93.01
390.028	72.53
390.238	136.02
390.447	82.77
390.657	90.96
390.867	43.86
391.076	-31.91
391.286	70.48
391.496	115.54
391.705	84.82
391.915	111.44
392.125	148.31
392.334	45.91
392.544	45.91
392.753	144.21
392.963	35.67
393.172	95.06
393.382	39.76
393.591	90.96
393.801	58.2
394.01	119.64
394.22	109.4
394.429	72.53
394.639	21.33
394.848	127.83
395.058	60.24
395.267	111.44
395.477	125.78
395.686	121.68
395.895	148.31
396.105	213.84
396.314	95.06
396.524	142.16
396.733	88.92
396.942	125.78
397.152	84.82
397.361	80.72
397.57	150.36
397.78	150.36
397.989	142.16
398.198	154.45
398.407	113.49
398.617	109.4
398.826	219.99
399.035	76.63
399.244	195.41
399.453	90.96
399.663	88.92
399.872	176.98
400.081	90.96
400.29	174.93
400.499	64.34
400.708	183.12
400.917	142.16
401.127	152.4
401.336	158.55
401.545	172.88
401.754	185.17
401.963	181.07
402.172	109.4
402.381	93.01
402.59	168.79
402.799	105.3
403.008	236.37
403.217	219.99
403.426	131.92
403.635	156.5
403.844	211.79
404.053	187.22
404.262	144.21
404.471	211.79
404.68	267.09
404.888	209.75
405.097	115.54
405.306	217.94
405.515	308.05
405.724	176.98
405.933	236.37
406.142	295.76
406.35	289.62
406.559	209.75
406.768	203.6
406.977	244.56
407.185	322.38
407.394	265.04
407.603	238.42
407.812	207.7
408.02	330.58
408.229	297.81
408.438	332.62
408.646	377.68
408.855	392.02
409.064	344.91
409.272	389.97
409.481	471.89
409.69	375.63
409.898	428.88
410.107	443.21
410.315	396.11
410.524	508.75
410.733	480.08
410.941	496.46
411.15	457.55
411.358	559.95
411.567	613.2
411.775	635.72
411.984	555.85
412.192	609.1
412.401	602.96
412.609	684.87
412.818	740.17
413.026	754.51
413.234	729.93
413.443	723.79
413.651	822.09
413.86	848.71
414.068	899.91
414.276	963.4
414.485	879.43
414.693	969.54
414.901	981.83
415.11	1078.08
415.318	1137.48
415.526	1135.43
415.734	1168.2
415.943	1174.34
416.151	1272.64
416.359	1186.63
416.567	1442.62
416.776	1370.94
416.984	1483.58
417.192	1577.79
417.4	1594.17
417.608	1514.3
417.817	1612.6
418.025	1798.97
418.233	1893.18
418.441	1721.15
418.649	1860.41
418.857	1948.47
419.065	1971
419.273	2042.68
419.481	2046.77
419.689	2233.14
419.897	2278.19
420.105	2345.78
420.313	2386.74
420.521	2542.38
420.729	2550.57
420.937	2693.93
421.145	2825
421.353	2747.18
421.561	2904.87
421.769	2990.89
421.977	3253.03
422.185	3224.36
422.393	3371.81
422.601	3597.09
422.809	3611.42
423.017	3576.61
423.224	3779.36
423.432	3902.23
423.64	3932.95
423.848	4123.41
424.056	3980.06
424.263	4453.14
424.471	4522.77
424.679	4557.58
424.887	4774.67
425.094	5128.97
425.302	4938.51
425.51	5264.13
425.718	5176.07
425.925	5260.04
426.133	5554.94
426.341	5864.19
426.548	6042.36
426.756	6103.8
426.964	6320.88
427.171	6529.78
427.379	6757.1
427.586	6789.87
427.794	7054.06
428.001	7508.71
428.209	7920.35
428.417	7633.63
428.624	8090.33
428.832	8143.58
429.039	8266.46
429.247	8028.89
429.454	8977.1
429.662	9491.14
429.869	8841.93
430.076	9589.44
430.284	9124.55
430.491	9652.93
430.699	10445.49
430.906	10070.72
431.114	10351.29
431.321	10764.98
431.528	10930.86
431.736	11485.86
431.943	12165.79
432.15	11803.3
432.358	12010.14
432.565	12681.88
432.772	12659.35
432.979	13273.74
433.187	13531.78
433.394	13804.16
433.601	14508.66
433.808	14721.65
434.016	14406.27
434.223	15153.77
434.43	15807.08
434.637	15692.39
434.844	16419.42
435.052	17050.19
435.259	16867.92
435.466	16814.68
435.673	16872.02
435.88	17750.6
436.087	18688.57
436.294	18573.88
436.501	18631.23
436.708	19018.29
436.915	19464.75
437.122	20417.05
437.329	20212.26
437.537	20845.08
437.743	21332.5
437.95	21025.3
438.157	22475.26
438.364	23093.75
438.571	22899.19
438.778	23241.2
438.985	25248.21
439.192	24291.81
439.399	24850.91
439.606	24496.61
439.813	25717.2
440.02	27689.39
440.227	26870.2
440.433	26474.95
440.64	27539.89
440.847	27273.65
441.054	27969.96
441.261	29657.49
441.467	29641.11
441.674	30075.27
441.881	31072.64
442.088	30765.44
442.294	30501.25
442.501	31719.79
442.708	32293.22
442.914	33321.3
443.121	34910.53
443.328	33866.06
443.534	36577.58
443.741	35273.02
443.948	34672.96
444.154	37017.89
444.361	37394.71
444.568	37263.64
444.774	37388.57
444.981	37673.24
445.187	39014.66
445.394	40671.46
445.6	39987.44
445.807	43903.16
446.013	41992.4
446.22	42635.47
446.426	44304.56
446.633	44912.81
446.839	46368.91
447.046	44355.76
447.252	46504.08
447.459	46561.42
447.665	46557.33
447.871	48580.72
448.078	50569.3
448.284	48164.98
448.491	49385.57
448.697	51613.76
448.903	52578.36
449.11	52357.17
449.316	51413.06
449.522	52500.53
449.728	53987.36
449.935	54202.39
450.141	54132.76
450.347	55269.39
450.553	53334.06
450.76	54302.74
450.966	56199.16
451.172	55418.89
451.378	57079.79
451.584	55859.2
451.791	56676.34
451.997	56860.66
452.203	58017.76
452.409	57710.56
452.615	57419.75
452.821	55576.58
453.027	55027.73
453.233	58126.3
453.44	55556.1
453.646	56731.64
453.852	56264.7
454.058	57485.29
454.264	55666.69
454.47	56795.12
454.676	55158.8
454.882	57300.97
455.088	52570.16
455.294	53559.33
455.5	54138.91
455.705	54568.98
455.911	52531.25
456.117	51464.26
456.323	50550.87
456.529	48654.45
456.735	50567.25
456.941	48953.45
457.147	48296.05
457.352	46798.99
457.558	46119.06
457.764	46348.43
457.97	45459.62
458.176	44996.77
458.381	44427.44
458.587	42397.9
458.793	42739.91
458.999	40188.14
459.204	43186.37
459.41	41967.83
459.616	39131.39
459.821	39141.63
460.027	39352.57
460.233	38271.25
460.438	36690.21
460.644	37194.01
460.85	34965.82
461.055	34662.72
461.261	34736.45
461.466	32364.9
461.672	31250.81
461.878	33261.91
462.083	31115.64
462.289	30484.87
462.494	30122.38
462.7	28762.53
462.905	27931.05
463.111	29419.92
463.316	29368.73
463.522	28451.24
463.727	28602.78
463.932	28445.09
464.138	28385.7
464.343	28633.5
464.549	27410.87
464.754	28449.19
464.959	28277.16
465.165	28129.7
465.37	26952.12
465.575	26356.16
465.781	27253.17
465.986	27720.11
466.191	26261.96
466.397	25889.23
466.602	24760.8
466.807	25510.35
467.012	25844.17
467.218	25534.93
467.423	25053.66
467.628	25465.3
467.833	26345.92
468.038	25217.49
468.244	24599.01
468.449	25805.26
468.654	24822.23
468.859	24615.39
469.064	24173.03
469.269	23532.01
469.474	23833.07
469.679	24183.27
469.885	23734.76
470.09	24009.19
470.295	23665.13
470.5	23032.31
470.705	23550.45
470.91	22647.29
471.115	22807.03
471.32	22862.33
471.525	22882.81
471.73	22364.67
471.935	22254.08
472.139	21924.36
472.344	21543.44
472.549	21254.67
472.754	21375.5
472.959	21000.72
473.164	20576.8
473.369	20259.36
473.574	20859.42
473.778	20566.56
473.983	20302.37
474.188	20150.82
474.393	19524.14
474.598	19497.52
474.802	19290.67
475.007	19452.46
475.212	19126.83
475.417	18336.32
475.621	18653.75
475.826	18764.34
476.031	18012.74
476.235	17996.35
476.44	18291.26
476.645	17392.2
476.849	17801.8
477.054	17531.47
477.259	17472.07
477.463	17064.53
477.668	17021.52
477.872	17085.01
478.077	16857.68
478.282	16427.61
478.486	16554.58
478.691	15972.96
478.895	16144.99
479.1	15921.76
479.304	16007.78
479.509	15583.85
479.713	15952.48
479.918	15585.9
480.122	15422.06
480.326	15440.49
480.531	15790.69
480.735	15297.13
480.94	15153.77
481.144	15884.9
481.348	14760.56
481.553	15223.41
481.757	14766.71
481.961	15170.16
482.166	15184.49
482.37	15180.4
482.574	14908.02
482.778	14754.42
482.983	15026.8
483.187	14735.99
483.391	15094.38
483.595	14592.63
483.8	14680.69
484.004	14887.54
484.208	14908.02
484.412	14891.63
484.616	14809.72
484.821	14910.07
485.025	14527.1
485.229	15043.18
485.433	14887.54
485.637	14766.71
485.841	14828.15
486.045	14594.68
486.249	14854.77
486.453	14586.49
486.657	14713.46
486.861	14762.61
487.065	14336.63
487.269	14727.8
487.473	14295.68
487.677	14656.12
487.881	14969.46
488.085	14779
488.289	14568.06
488.493	14678.65
488.697	14860.91
488.901	14910.07
489.105	14776.95
489.309	15002.22
489.512	15006.32
489.716	14936.69
489.92	15043.18
490.124	14938.74
490.328	15241.84
490.531	15211.12
490.735	15413.87
490.939	15020.66
491.143	15155.82
491.346	15116.91
491.55	15327.85
491.754	15202.93
491.958	15192.69
492.161	15374.95
492.365	15372.91
492.569	15528.55
492.772	15614.57
492.976	15831.65
493.18	15604.33
493.383	16001.63
493.587	15796.84
493.79	16319.07
493.994	15702.63
494.197	16456.28
494.401	16497.24
494.605	16394.84
494.808	16509.53
495.012	16790.1
495.215	16808.53
495.419	16730.71
495.622	16779.86
495.825	17199.69
496.029	17150.54
496.232	17535.56
496.436	17242.7
496.639	17889.86
496.843	17486.41
497.046	17912.39
497.249	17951.3
497.453	18240.06
497.656	18473.53
497.859	18788.92
498.063	18709.05
498.266	19106.35
498.469	19069.49
498.673	19278.38
498.876	19530.28
499.079	19601.96
499.282	19411.5
499.485	20107.81
499.689	20195.87
499.892	20470.3
500.095	20138.53
500.298	20871.7
500.501	20851.22
500.705	21369.36
500.908	21565.96
501.111	21461.52
501.314	21895.69
501.517	22041.09
501.72	22651.39
501.923	22129.16
502.126	23222.77
502.329	23185.91
502.532	23437.81
502.735	23648.75
502.938	23898.6
503.141	24048.1
503.344	24170.98
503.547	24379.87
503.75	25139.67
503.953	24941.02
504.156	25352.66
504.359	25410
504.562	26077.64
504.765	26438.08
504.968	26270.15
505.17	26655.17
505.373	26382.79
505.576	27367.86
505.779	27308.47
505.982	27445.68
506.185	27939.24
506.387	27875.76
506.59	28254.63
506.793	28830.11
506.996	29034.91
507.198	29589.91
507.401	29671.82
507.604	30062.99
507.807	30650.75
508.009	30454.15
508.212	30400.9
508.415	31338.87
508.617	31287.67
508.82	31517.04
509.022	31605.11
509.225	32108.91
509.428	32270.7
509.63	32577.89
509.833	33247.58
510.035	33515.86
510.238	33319.26
510.44	33741.14
510.643	34150.73
510.845	34814.27
511.048	34423.11
511.25	35144
511.453	35047.74
511.655	36553
511.858	35789.11
512.06	36327.72
512.262	37040.42
512.465	36522.28
512.667	37112.1
512.87	37517.59
513.072	37572.89
513.274	38291.73
513.477	38703.37
513.679	38668.55
513.881	39125.25
514.084	39444.73
514.286	39018.75
514.488	39725.3
514.69	40845.54
514.893	40587.5
515.095	40679.66
515.297	41416.93
515.499	41509.08
515.701	41591
515.904	42180.82
516.106	42494.16
516.308	43172.03
516.51	43202.75
516.712	43301.06
516.914	43413.69
517.116	44476.59
517.318	44093.62
517.52	44458.16
517.722	44888.23
517.925	45521.05
518.127	45488.29
518.329	45996.18
518.531	45738.14
518.733	46172.31
518.935	46743.69
519.136	46973.06
519.338	47384.71
519.54	47739
519.742	47902.84
519.944	48169.08
520.146	48994.41
520.348	49139.82
520.55	49307.75
520.752	49498.21
520.954	50458.71
521.155	49668.19
521.357	50659.41
521.559	50616.4
521.761	51447.88
521.963	50765.9
522.164	51374.15
522.366	51611.71
522.568	52240.44
522.77	51992.64
522.971	53200.94
523.173	52719.66
523.375	52906.03
523.576	52990
523.778	52721.71
523.98	53645.35
524.181	53856.29
524.383	53811.23
524.584	54376.47
524.786	54663.19
524.988	54183.96
525.189	54892.56
525.391	55212.04
525.592	55216.14
525.794	55545.86
525.995	55566.34
526.197	55375.88
526.398	55355.4
526.6	56107.01
526.801	56406.01
527.003	56473.59
527.204	56500.22
527.406	56684.53
527.607	56659.96
527.808	57018.35
528.01	56045.57
528.211	56725.49
528.412	57763.81
528.614	57384.94
528.815	57102.32
529.016	57634.79
529.218	57653.22
529.419	58005.47
529.62	57620.45
529.822	57382.89
530.023	57571.3
530.224	57802.72
530.425	57704.42
530.626	57499.62
530.828	57092.08
531.029	58011.62
531.23	57677.8
531.431	57913.31
531.632	58353.63
531.833	57808.87
532.035	58146.78
532.236	58177.5
532.437	58349.53
532.638	58218.46
532.839	58564.57
533.04	58447.83
533.241	57696.23
533.442	59070.42
533.643	58275.8
533.844	58341.34
534.045	58388.44
534.246	57827.3
534.447	58587.1
534.648	57933.79
534.849	58550.23
535.05	58046.43
535.251	58226.65
535.451	57993.18
535.652	58740.69
535.853	58236.89
536.054	58462.17
536.255	58521.56
536.456	57712.61
536.657	59226.06
536.857	58183.65
537.058	58275.8
537.259	58251.23
537.46	58318.81
537.66	57972.7
537.861	58492.89
538.062	58048.48
538.263	58306.52
538.463	57794.53
538.664	58222.56
538.865	58560.47
539.065	58619.86
539.266	57640.93
539.466	58370.01
539.667	57538.54
539.868	57997.28
540.068	57962.46
540.269	58083.3
540.469	58322.91
540.67	58079.2
540.87	57954.27
541.071	57696.23
541.271	57845.73
541.472	57507.82
541.672	58042.34
541.873	57454.57
542.073	57210.86
542.274	58013.66
542.474	57933.79
542.675	57208.81
542.875	58243.04
543.075	57370.6
543.276	57151.47
543.476	57921.51
543.676	57530.34
543.877	58034.14
544.077	57606.12
544.277	57229.29
544.478	57184.24
544.678	57843.68
544.878	57556.97
545.078	57376.75
545.279	57231.34
545.479	57346.03
545.679	56979.44
545.879	57284.59
546.079	57208.81
546.28	57169.9
546.48	56889.33
546.68	57460.71
546.88	57290.73
547.08	57602.02
547.28	57358.31
547.48	56825.84
547.68	57053.17
547.88	56891.38
548.081	57065.45
548.281	57014.26
548.481	56670.2
548.681	57280.49
548.881	57317.35
549.081	56983.54
549.28	56944.62
549.48	57073.65
549.68	56928.24
549.88	57262.06
550.08	56891.38
550.28	56793.07
550.48	56645.62
550.68	56942.58
550.88	56643.57
551.08	56866.8
551.279	56920.05
551.479	56256.51
551.679	56657.91
551.879	56248.32
552.079	57016.3
552.278	56391.67
552.478	56811.51
552.678	56375.29
552.878	56936.43
553.077	56451.06
553.277	56178.68
553.477	56997.87
553.676	56752.12
553.876	56563.7
554.076	56289.27
554.275	56008.7
554.475	55891.97
554.674	56139.77
554.874	56336.38
555.074	56004.61
555.273	56594.42
555.473	56363
555.672	56045.57
555.872	56233.98
556.071	55902.21
556.271	56088.57
556.47	55885.82
556.67	55459.85
556.869	55552.01
557.068	56221.69
557.268	55668.74
557.467	55263.24
557.667	55549.96
557.866	55549.96
558.065	55805.95
558.265	55269.39
558.464	55488.52
558.663	55959.55
558.863	55285.77
559.062	55777.28
559.261	55054.35
559.461	55662.6
559.66	55091.21
559.859	55556.1
560.058	54712.34
560.258	54900.75
560.457	54771.73
560.656	55236.62
560.855	54341.66
561.054	54892.56
561.253	54536.21
561.453	54753.3
561.652	54624.28
561.851	54769.68
562.05	54462.49
562.249	54458.39
562.448	55056.4
562.647	54665.24
562.846	54507.54
563.045	54446.1
563.244	54171.67
563.443	54777.87
563.642	53461.03
563.841	54130.72
564.04	53944.35
564.239	54081.56
564.438	53700.64
564.637	54165.53
564.836	54138.91
565.035	53467.17
565.234	54038.56
565.432	53381.16
565.631	53409.83
565.83	53745.7
566.029	53319.72
566.228	53350.44
566.427	53358.63
566.625	52760.62
566.824	52537.4
567.023	53123.11
567.222	52310.07
567.42	53336.1
567.619	53196.84
567.818	52856.88
568.016	52793.39
568.215	52754.48
568.414	52654.13
568.612	52623.41
568.811	52101.18
569.01	52414.52
569.208	52166.71
569.407	52670.51
569.605	52029.5
569.804	52611.12
570.002	51695.68
570.201	51959.87
570.4	51714.11
570.598	51783.74
570.797	51765.31
570.995	51519.56
571.193	51253.32
571.392	52064.31
571.59	51243.08
571.789	51476.55
571.987	51163.21
572.186	51271.75
572.384	50686.03
572.582	51468.36
572.781	51363.91
572.979	50165.85
573.177	50808.91
573.376	51066.95
573.574	50661.46
573.772	50579.54
573.971	50737.23
574.169	50421.84
574.367	49684.58
574.565	50200.66
574.763	50196.57
574.962	50202.71
575.16	49266.79
575.358	50282.58
575.556	49680.48
575.754	50270.29
575.952	49711.2
576.151	49969.24
576.349	49021.03
576.547	49244.26
576.745	49383.52
576.943	48963.69
577.141	49270.89
577.339	49180.77
577.537	49023.08
577.735	48978.03
577.933	48171.13
578.131	48869.48
578.329	48605.3
578.527	47855.74
578.725	48388.21
578.923	48662.64
579.121	48216.18
579.319	48038.01
579.516	48345.2
579.714	47794.3
579.912	47603.84
580.11	47444.1
580.308	47943.8
580.506	47343.75
580.704	46981.26
580.901	47415.43
581.099	47747.2
581.297	46672.01
581.495	47022.22
581.692	47349.89
581.89	46590.09
582.088	46710.92
582.285	46612.62
582.483	46641.29
582.681	46405.78
582.878	46315.67
583.076	46102.68
583.274	46661.77
583.471	45844.63
583.669	45914.26
583.866	45652.12
584.064	45940.89
584.262	45009.06
584.459	45553.82
584.657	45559.97
584.854	45785.24
585.052	44777.64
585.249	45195.43
585.447	45330.59
585.644	44720.3
585.841	44980.39
586.039	45025.45
586.236	44646.57
586.434	44400.82
586.631	43958.45
586.828	44488.88
587.026	44011.7
587.223	44155.06
587.42	43897.02
587.618	43993.27
587.815	43919.54
588.012	43186.37
588.21	43198.66
588.407	43620.54
588.604	43241.67
588.801	42989.77
588.999	43069.64
589.196	43133.12
589.393	42850.5
589.59	43004.1
589.787	42754.25
589.984	42479.82
590.182	42330.32
590.379	42293.46
590.576	42342.61
590.773	42033.36
590.97	41877.72
591.167	41814.23
591.364	41652.44
591.561	41595.1
591.758	41386.21
591.955	41584.86
592.152	41781.46
592.349	41189.6
592.546	41525.47
592.743	41203.94
592.94	40528.11
593.137	40863.97
593.334	41103.59
593.531	40595.69
593.727	40636.65
593.924	40761.58
594.121	40007.92
594.318	40607.98
594.515	39639.29
594.712	40028.4
594.908	39821.56
595.105	40114.42
595.302	39981.3
595.499	39469.31
595.696	39436.54
595.892	38734.09
596.089	39084.29
596.286	38811.91
596.482	38863.11
596.679	39026.95
596.876	39252.22
597.072	38650.12
597.269	38947.08
597.466	38232.33
597.662	38611.21
597.859	38209.81
598.055	38322.44
598.252	37945.62
598.448	38201.61
598.645	37980.43
598.841	37525.78
599.038	37761.3
599.234	37501.21
599.431	37683.48
599.627	37140.77
599.824	37359.9
600.02	36755.75
600.217	37267.74
600.413	36854.05
600.609	36907.3
600.806	36553
601.002	37005.6
601.198	36673.83
601.395	36272.43
601.591	36315.44
601.787	36210.99
601.984	36401.45
602.18	36153.65
602.376	35807.54
602.572	35559.73
602.769	35905.84
602.965	35305.79
603.161	35219.77
603.357	35100.99
603.553	35496.25
603.75	35424.57
603.946	35068.22
604.142	35113.28
604.338	34498.89
604.534	35270.97
604.73	34769.22
604.926	34666.82
605.122	34521.41
605.318	34009.42
605.514	34175.31
605.71	34216.27
605.906	34236.75
606.102	33947.98
606.298	33999.18
606.494	34277.71
606.69	33937.74
606.886	34173.26
607.082	33376.6
607.278	33587.54
607.474	33677.65
607.67	33661.27
607.866	33157.47
608.062	33700.18
608.257	33247.58
608.453	33247.58
608.649	33057.12
608.845	32942.43
609.041	32743.78
609.236	32860.51
609.432	32958.81
609.628	32784.74
609.824	32850.27
610.019	32655.72
610.215	32682.34
610.411	32700.77
610.606	32270.7
610.802	32475.49
610.998	32108.91
611.193	32551.27
611.389	32606.56
611.584	32065.9
611.78	31926.64
611.976	32186.73
612.171	32137.58
612.367	32332.14
612.562	31693.17
612.758	31803.76
612.953	31553.91
613.149	32235.88
613.344	31392.12
613.539	31951.21
613.735	31744.37
613.93	31740.27
614.126	31465.85
614.321	31744.37
614.517	31340.92
614.712	31201.66
614.907	31162.75
615.103	31240.57
615.298	30916.99
615.493	31385.97
615.688	30732.67
615.884	31785.33
616.079	31105.4
616.274	31074.68
616.47	30925.18
616.665	30894.46
616.86	30587.27
617.055	30845.31
617.25	30529.92
617.445	30810.5
617.641	30212.49
617.836	30644.61
618.031	30187.91
618.226	30665.09
618.421	30075.27
618.616	30161.29
618.811	29684.11
619.006	30437.76
619.201	29473.17
619.396	29757.84
619.591	29182.36
619.786	29727.12
619.981	29170.07
620.176	29421.97
620.371	28969.37
620.566	29020.57
620.761	28768.67
620.956	29141.4
621.151	28432.8
621.346	28848.54
621.541	28357.03
621.735	28479.91
621.93	27761.07
622.125	27799.98
622.32	27570.61
622.515	27898.28
622.709	27578.8
622.904	27285.94
623.099	27371.96
623.294	27400.63
623.488	26741.18
623.683	26839.48
623.878	26448.32
624.072	26651.07
624.267	26679.74
624.462	26272.2
624.656	26028.49
624.851	26165.7
625.046	25795.02
625.24	25821.64
625.435	25723.34
625.629	25534.93
625.824	25319.89
626.018	25254.36
626.213	24912.35
626.407	25045.46
626.602	24938.97
626.796	24574.43
626.991	24814.04
627.185	24568.29
627.38	24046.05
627.574	24152.55
627.768	23904.74
627.963	24158.69
628.157	23630.32
628.352	23755.24
628.546	23702
628.74	23527.92
628.935	23155.19
629.129	23392.75
629.323	22841.85
629.517	22868.47
629.712	22968.82
629.906	22706.68
630.1	22469.12
630.294	22481.41
630.489	22579.71
630.683	22141.44
630.877	22225.41
631.071	22206.98
631.265	22182.4
631.459	21811.72
631.653	21717.51
631.848	21584.4
632.042	21443.09
632.236	21627.4
632.43	21373.46
632.624	21205.52
632.818	21328.4
633.012	20664.86
633.206	20767.26
633.4	20781.59
633.594	20744.73
633.788	20445.73
633.982	20623.9
634.176	20415.01
634.369	20195.87
634.563	20353.57
634.757	20109.86
634.951	19927.59
635.145	19745.32
635.339	19886.63
635.533	19712.55
635.726	19831.33
635.92	19300.91
636.114	19452.46
636.308	19165.74
636.501	19305.01
636.695	19317.29
636.889	18901.56
637.083	19006
637.276	18928.18
637.47	18469.44
637.664	18594.36
637.857	18385.47
638.051	18473.53
638.244	18225.73
638.438	18057.79
638.632	18260.54
638.825	18086.47
639.019	17840.71
639.212	17754.69
639.406	17709.64
639.599	17689.16
639.793	17754.69
639.986	17455.69
640.18	17214.03
640.373	17431.12
640.567	17287.76
640.76	17158.74
640.954	16923.22
641.147	16802.39
641.34	16687.7
641.534	16835.16
641.727	16726.61
641.92	16847.44
642.114	16556.63
642.307	16636.5
642.5	16271.97
642.694	16005.73
642.887	16073.31
643.08	16347.74
643.273	16190.05
643.467	16069.22
643.66	15805.03
643.853	15940.19
644.046	15612.52
644.239	15559.27
644.432	15649.38
644.626	15501.93
644.819	15192.69
645.012	15499.88
645.205	15420.01
645.398	15139.44
645.591	15010.42
645.784	15030.9
645.977	14832.24
646.17	15045.23
646.363	14629.49
646.556	14559.86
646.749	14627.45
646.942	14670.45
647.135	14549.62
647.328	14240.38
647.521	14715.51
647.714	14289.53
647.907	14471.8
648.099	14258.81
648.292	14172.8
648.485	13838.98
648.678	14041.73
648.871	13834.88
649.064	13568.65
649.256	13660.8
649.449	13535.88
649.642	13548.17
649.835	13402.76
650.027	13300.36
650.22	13476.49
650.413	13173.39
650.605	13423.24
650.798	13179.53
650.991	13079.18
651.183	13042.32
651.376	12571.29
651.568	12956.3
651.761	12960.4
651.954	12599.96
652.146	12718.74
652.339	12769.94
652.531	12518.04
652.724	12472.98
652.916	12057.25
653.109	12212.89
653.301	12337.82
653.494	12384.92
653.686	12061.34
653.879	12182.17
654.071	12178.08
654.263	11860.64
654.456	11946.66
654.648	12034.72
654.84	11711.14
655.033	11758.24
655.225	11631.27
655.417	11516.58
655.61	11555.49
655.802	11510.44
655.994	11426.47
656.186	11500.2
656.379	11279.02
656.571	11319.98
656.763	11027.12
656.955	11090.6
657.148	11176.62
657.34	10887.86
657.532	10820.27
657.724	10982.06
657.916	10781.36
658.108	10666.67
658.3	10685.11
658.492	10824.37
658.684	10564.28
658.876	10259.13
659.068	10527.41
659.26	10496.69
659.452	10590.9
659.644	10402.49
659.836	10392.25
660.028	10158.78
660.22	10078.91
660.412	10017.47
660.604	9882.3
660.796	10050.24
660.988	9992.89
661.18	9990.84
661.372	9855.68
661.563	9925.31
661.755	9544.39
661.947	9706.18
662.139	9712.32
662.331	9855.68
662.522	9538.24
662.714	9495.24
662.906	9423.56
663.097	9317.06
663.289	9398.98
663.481	9284.3
663.673	9122.51
663.864	9210.57
664.056	9358.02
664.247	9075.4
664.439	8930
664.631	9142.99
664.822	8923.85
665.014	8973
665.205	8932.05
665.397	8846.03
665.588	8903.37
665.78	8622.8
665.971	8848.08
666.163	8753.87
666.354	8600.27
666.546	8561.36
666.737	8575.7
666.929	8585.94
667.12	8456.92
667.311	8491.73
667.503	8528.6
667.694	8387.29
667.885	8131.29
668.077	8155.86
668.268	8141.53
668.459	8022.75
668.651	8194.78
668.842	8131.29
669.033	8102.62
669.224	8051.42
669.416	7871.2
669.607	8045.27
669.798	7930.59
669.989	8045.27
670.18	7824.09
670.371	7869.15
670.563	7693.02
670.754	7748.32
670.945	7766.75
671.136	7805.66
671.327	7770.85
671.518	7652.06
671.709	7525.09
671.9	7576.29
672.091	7574.24
672.282	7396.07
672.473	7412.45
672.664	7404.26
672.855	7303.91
673.046	7510.75
673.237	7539.43
673.428	7381.73
673.619	7197.42
673.809	7138.02
674	7105.26
674.191	7181.03
674.382	7099.11
674.573	6957.8
674.764	7072.49
674.954	7072.49
675.145	6957.8
675.336	6908.65
675.527	6750.96
675.717	6955.76
675.908	6875.88
676.099	6986.47
676.289	6886.12
676.48	6771.44
676.671	6816.49
676.861	6609.65
677.052	6669.04
677.243	6566.64
677.433	6658.8
677.624	6673.14
677.814	6492.91
678.005	6703.86
678.195	6449.91
678.386	6568.69
678.576	6460.15
678.767	6630.13
678.957	6245.11
679.148	6447.86
679.338	6462.19
679.529	6376.18
679.719	6279.93
679.909	6537.97
680.1	6314.74
680.29	6216.44
680.481	6114.04
680.671	6148.86
680.861	6177.53
681.052	6402.8
681.242	6290.17
681.432	6273.78
681.622	6191.86
681.813	6003.45
682.003	6005.5
682.193	6040.31
682.383	6107.9
682.573	6144.76
682.764	6019.83
682.954	5962.49
683.144	5937.91
683.334	6030.07
683.524	5915.39
683.714	6017.79
683.904	5991.16
684.094	5837.56
684.284	5853.95
684.474	6054.65
684.664	5872.38
684.854	5860.09
685.044	5667.58
685.234	5587.71
685.424	5714.69
685.614	5729.02
685.804	5745.41
685.994	5624.58
686.184	5683.97
686.374	5628.67
686.564	5636.86
686.753	5581.57
686.943	5489.41
687.133	5528.32
687.323	5434.11
687.513	5630.72
687.702	5450.5
687.892	5387.01
688.082	5337.86
688.272	5405.44
688.461	5296.9
688.651	5260.04
688.841	5192.45
689.03	5296.9
689.22	5081.86
689.41	5073.67
689.599	5243.65
689.789	5245.7
689.979	5106.44
690.168	5085.96
690.358	5045
690.547	5122.82
690.737	5067.53
690.926	5165.83
691.116	4825.87
691.305	4918.03
691.495	4887.31
691.684	4723.47
691.874	4854.54
692.063	4811.53
692.252	4905.74
692.442	4774.67
692.631	4645.65
692.82	4623.12
693.01	4680.46
693.199	4471.57
693.388	4750.09
693.578	4733.71
693.767	4678.41
693.956	4506.38
694.146	4516.62
694.335	4453.14
694.524	4389.65
694.713	4465.43
694.902	4469.52
695.092	4430.61
695.281	4424.47
695.47	4377.36
695.659	4234
695.848	4451.09
696.037	4344.6
696.226	4320.02
696.415	4211.48
696.604	4268.82
696.793	4104.98
696.982	4285.2
697.171	4166.42
697.36	4160.28
697.549	4223.76
697.738	3996.44
697.927	4082.46
698.116	4098.84
698.305	3867.42
698.494	4182.81
698.683	4031.26
698.872	3928.86
699.061	4018.97
699.25	4043.54
699.438	3955.48
699.627	3867.42
699.816	4010.78
700.005	3906.33
700.193	3963.67
700.382	3951.39
700.571	3867.42
700.76	3902.23
700.948	3930.91
701.137	3746.59
701.326	3982.1
701.514	3697.44
701.703	3779.36
701.892	3693.34
702.08	3836.7
702.269	3674.91
702.457	3779.36
702.646	3838.75
702.834	3588.89
703.023	3556.13
703.212	3683.1
703.4	3715.87
703.589	3638.05
703.777	3693.34
703.965	3539.74
704.154	3724.06
704.342	3636
704.531	3552.03
704.719	3556.13
704.907	3500.83
705.096	3615.52
705.284	3490.59
705.472	3463.97
705.661	3498.78
705.849	3629.85
706.037	3502.88
706.226	3533.6
706.414	3461.92
706.602	3259.17
706.79	3545.89
706.979	3402.53
707.167	3388.19
707.355	3363.62
707.543	3216.16
707.731	3412.77
707.919	3398.43
708.107	3320.61
708.296	3269.41
708.484	3310.37
708.672	3380
708.86	3371.81
709.048	3195.68
709.236	3253.03
709.424	3330.85
709.612	3363.62
709.8	3345.19
709.988	3267.36
710.176	3357.47
710.364	3269.41
710.551	3261.22
710.739	3199.78
710.927	3310.37
711.115	3293.99
711.303	3224.36
711.491	3218.21
711.679	3162.92
711.866	3124.01
712.054	3212.07
712.242	3226.4
712.43	3105.57
712.617	3164.97
712.805	3140.39
712.993	3234.6
713.181	3113.77
713.368	3158.82
713.556	3171.11
713.744	3169.06
713.931	3050.28
714.119	3121.96
714.306	3273.51
714.494	3185.44
714.682	3046.18
714.869	3138.34
715.057	3228.45
715.244	3154.73
715.432	3111.72
715.619	3031.85
715.807	3140.39
715.994	3025.7
716.182	3050.28
716.369	3009.32
716.556	3126.05
716.744	3023.66
716.931	3058.47
717.119	3119.91
717.306	3083.05
717.493	3076.9
717.681	3081
717.868	3083.05
718.055	3015.46
718.242	3185.44
718.43	3095.33
718.617	2990.89
718.804	2964.26
718.991	2988.84
719.179	3109.67
719.366	2976.55
719.553	2915.11
719.74	2886.44
719.927	2962.22
720.114	2943.78
720.301	3027.75
720.488	2999.08
720.676	2954.02
720.863	2972.46
721.05	2884.39
721.237	2929.45
721.424	2945.83
721.611	3037.99
721.798	2849.58
721.985	2796.33
722.172	2966.31
722.358	2927.4
722.545	2984.74
722.732	2874.15
722.919	2806.57
723.106	2827.05
723.293	2982.7
723.48	2898.73
723.667	2851.63
723.853	2939.69
724.04	3025.7
724.227	2863.91
724.414	2859.82
724.6	2904.87
724.787	2837.29
724.974	2972.46
725.161	2986.79
725.347	2839.34
725.534	2808.62
725.72	2747.18
725.907	2845.48
726.094	2927.4
726.28	2968.36
726.467	2876.2
726.653	2843.43
726.84	2927.4
727.027	3017.51
727.213	2806.57
727.4	2863.91
727.586	2781.99
727.773	2863.91
727.959	2915.11
728.145	2845.48
728.332	2863.91
728.518	2835.24
728.705	2997.03
728.891	2976.55
729.077	2945.83
729.264	3037.99
729.45	2896.68
729.636	2937.64
729.823	2833.19
730.009	2994.98
730.195	2990.89
730.382	2890.54
730.568	2843.43
730.754	2958.12
730.94	2851.63
731.126	2964.26
731.313	2868.01
731.499	2892.59
731.685	2898.73
731.871	2943.78
732.057	2970.41
732.243	2949.93
732.429	2958.12
732.615	2951.98
732.801	2927.4
732.987	2949.93
733.173	2923.3
733.359	2886.44
733.545	2777.9
733.731	2949.93
733.917	2956.07
734.103	2999.08
734.289	2974.5
734.475	3005.22
734.661	2962.22
734.847	3115.81
735.033	2917.16
735.219	2978.6
735.404	3072.81
735.59	2980.65
735.776	2812.71
735.962	2960.17
736.148	2986.79
736.333	3068.71
736.519	3085.09
736.705	3015.46
736.89	2999.08
737.076	2954.02
737.262	3009.32
737.447	3025.7
737.633	2933.54
737.819	3070.76
738.004	3003.18
738.19	3048.23
738.375	2917.16
738.561	3031.85
738.747	2900.78
738.932	2714.41
739.118	2990.89
739.303	2970.41
739.489	3009.32
739.674	2954.02
739.859	2906.92
740.045	3087.14
740.23	2939.69
740.416	2982.7
740.601	2992.94
740.786	2980.65
740.972	2986.79
741.157	2904.87
741.342	2974.5
741.528	2999.08
741.713	2886.44
741.898	3029.8
742.084	2966.31
742.269	3068.71
742.454	2849.58
742.639	2966.31
742.824	2923.3
743.01	3025.7
743.195	2935.59
743.38	2964.26
743.565	2954.02
743.75	2892.59
743.935	2822.95
744.12	2960.17
744.305	2796.33
744.49	2919.21
744.675	3023.66
744.86	2806.57
745.045	2773.8
745.23	2863.91
745.415	2761.52
745.6	2894.63
745.785	2792.23
745.97	2724.65
746.155	2876.2
746.34	2695.98
746.525	2652.97
746.71	2921.26
746.895	2792.23
747.079	2808.62
747.264	2790.19
747.449	2755.37
747.634	2851.63
747.819	2765.61
748.003	2671.4
748.188	2698.03
748.373	2693.93
748.557	2749.23
748.742	2671.4
748.927	2675.5
749.111	2751.28
749.296	2530.09
749.481	2589.49
749.665	2607.92
749.85	2573.1
750.034	2575.15
750.219	2558.77
750.404	2370.35
750.588	2564.91
750.773	2579.25
750.957	2521.9
751.141	2528.05
751.326	2587.44
751.51	2515.76
751.695	2564.91
751.879	2554.67
752.064	2427.7
752.248	2339.63
752.432	2460.46
752.617	2491.18
752.801	2399.02
752.985	2464.56
753.17	2374.45
753.354	2358.07
753.538	2431.79
753.722	2319.15
753.907	2229.04
754.091	2300.72
754.275	2310.96
754.459	2270
754.643	2161.46
754.828	2327.35
755.012	2333.49
755.196	2241.33
755.38	2177.84
755.564	2227
755.748	2216.76
755.932	2173.75
756.116	2186.04
756.3	2140.98
756.484	2102.07
756.668	2083.64
756.852	2171.7
757.036	2128.69
757.22	2134.84
757.404	2050.87
757.588	2026.29
757.772	2073.4
757.956	2100.02
758.14	2181.94
758.323	1971
758.507	2087.73
758.691	1944.38
758.875	2001.72
759.059	2087.73
759.242	1940.28
759.426	1891.13
759.61	1915.7
759.794	1962.81
759.977	1893.18
760.161	2026.29
760.345	1936.18
760.528	1954.62
760.712	1852.22
760.895	1917.75
761.079	1895.22
761.263	1903.42
761.446	1819.45
761.63	1852.22
761.813	1837.88
761.997	1796.92
762.18	1876.79
762.364	1764.15
762.547	1692.48
762.731	1809.21
762.914	1823.55
763.098	1817.4
763.281	1692.48
763.464	1708.86
763.648	1694.52
763.831	1784.63
764.015	1704.76
764.198	1788.73
764.381	1592.13
764.564	1645.37
764.748	1657.66
764.931	1741.63
765.114	1731.39
765.297	1633.08
765.481	1715
765.664	1717.05
765.847	1610.56
766.03	1665.85
766.213	1723.2
766.397	1604.41
766.58	1641.28
766.763	1628.99
766.946	1598.27
767.129	1565.5
767.312	1645.37
767.495	1602.36
767.678	1557.31
767.861	1631.04
768.044	1610.56
768.227	1563.45
768.41	1526.59
768.593	1643.32
768.776	1600.32
768.959	1549.12
769.142	1557.31
769.324	1600.32
769.507	1508.16
769.69	1557.31
769.873	1446.72
770.056	1547.07
770.239	1557.31
770.421	1497.92
770.604	1569.6
770.787	1448.77
770.97	1604.41
771.152	1471.29
771.335	1442.62
771.518	1405.76
771.7	1485.63
771.883	1477.44
772.066	1311.55
772.248	1459.01
772.431	1409.86
772.613	1450.82
772.796	1399.62
772.978	1372.99
773.161	1393.47
773.343	1372.99
773.526	1459.01
773.708	1334.08
773.891	1338.18
774.073	1352.51
774.256	1293.12
774.438	1360.7
774.621	1239.87
774.803	1260.35
774.985	1262.4
775.168	1301.31
775.35	1370.94
775.532	1311.55
775.715	1194.82
775.897	1184.58
776.079	1186.63
776.261	1252.16
776.444	1272.64
776.626	1239.87
776.808	1250.11
776.99	1157.96
777.173	1276.74
777.355	1219.39
777.537	1080.13
777.719	1211.2
777.901	1090.37
778.083	1096.52
778.265	1133.38
778.447	1143.62
778.629	1168.2
778.811	1047.37
778.993	1155.91
779.175	1067.85
779.357	1033.03
779.539	1069.89
779.721	1010.5
779.903	1051.46
780.085	1067.85
780.267	1059.65
780.449	1018.69
780.631	1006.41
780.812	1014.6
780.994	1033.03
781.176	1000.26
781.358	992.07
781.54	1063.75
781.721	1006.41
781.903	942.92
782.085	1014.6
782.267	985.93
782.448	842.57
782.63	951.11
782.812	1008.45
782.993	985.93
783.175	891.72
783.357	852.81
783.538	875.34
783.72	879.43
783.901	914.25
784.083	871.24
784.264	854.86
784.446	824.14
784.627	697.16
784.809	873.29
784.99	836.42
785.172	758.6
785.353	861
785.535	817.99
785.716	748.36
785.897	764.75
786.079	766.79
786.26	830.28
786.441	795.47
786.623	754.51
786.804	568.14
786.985	770.89
787.167	711.5
787.348	826.18
787.529	639.82
787.71	705.35
787.891	715.59
788.073	613.2
788.254	777.03
788.435	684.87
788.616	566.09
788.797	678.73
788.978	637.77
789.159	621.39
789.34	686.92
789.522	641.87
789.703	707.4
789.884	670.54
790.065	656.2
790.246	660.3
790.427	678.73
790.607	660.3
790.788	557.9
790.969	658.25
791.15	633.68
791.331	586.57
791.512	564.04
791.693	633.68
791.874	572.24
792.054	611.15
792.235	580.43
792.416	559.95
792.597	594.76
792.778	600.91
792.958	564.04
793.139	572.24
793.32	605
793.5	529.23
793.681	598.86
793.862	521.04
794.042	494.41
794.223	469.84
794.404	496.46
794.584	535.37
794.765	488.27
794.945	562
795.126	512.85
795.306	500.56
795.487	445.26
795.667	484.17
795.848	506.7
796.028	443.21
796.209	443.21
796.389	447.31
796.57	437.07
796.75	414.54
796.93	490.32
797.111	469.84
797.291	418.64
797.471	445.26
797.652	492.37
797.832	455.5
798.012	437.07
798.192	334.67
798.373	396.11
798.553	500.56
798.733	459.6
798.913	482.13
799.093	461.65
799.274	375.63
799.454	543.57
799.634	457.55
799.814	367.44
799.994	387.92
800.174	445.26
800.354	387.92
800.534	314.19
800.714	441.17
800.894	441.17
801.074	332.62
801.254	394.06
801.434	424.78
801.614	385.87
801.794	371.54
801.974	985.93
802.154	412.5
802.334	467.79
802.514	410.45
802.693	328.53
802.873	340.82
803.053	439.12
803.233	330.58
803.413	346.96
803.592	371.54
803.772	318.29
803.952	353.1
804.131	281.43
804.311	324.43
804.491	365.39
804.67	318.29
804.85	273.23
805.03	330.58
805.209	371.54
805.389	349.01
805.568	287.57
805.748	355.15
805.928	375.63
806.107	301.9
806.287	287.57
806.466	265.04
806.646	375.63
806.825	338.77
807.004	320.34
807.184	310.1
807.363	322.38
807.543	289.62
807.722	306
807.901	349.01
808.081	377.68
808.26	303.95
808.439	299.86
808.619	265.04
808.798	324.43
808.977	332.62
809.156	281.43
809.336	320.34
809.515	379.73
809.694	254.8
809.873	277.33
810.052	273.23
810.231	230.23
810.411	265.04
810.59	283.47
810.769	244.56
810.948	330.58
811.127	199.51
811.306	312.14
811.485	326.48
811.664	351.06
811.843	346.96
812.022	330.58
812.201	283.47
812.38	254.8
812.559	219.99
812.737	312.14
812.916	287.57
813.095	252.75
813.274	281.43
813.453	234.32
813.632	242.51
813.811	314.19
813.989	275.28
814.168	254.8
814.347	250.71
814.526	359.25
814.704	258.9
814.883	310.1
815.062	164.69
815.24	244.56
815.419	258.9
815.598	246.61
815.776	179.03
815.955	213.84
816.133	201.55
816.312	222.03
816.49	201.55
816.669	154.45
816.847	203.6
817.026	166.74
817.204	256.85
817.383	226.13
817.561	166.74
817.74	287.57
817.918	197.46
818.097	193.36
818.275	164.69
818.453	258.9
818.632	187.22
818.81	219.99
818.988	236.37
819.167	152.4
819.345	207.7
819.523	154.45
819.701	209.75
819.879	232.27
820.058	156.5
820.236	213.84
820.414	238.42
820.592	205.65
820.77	101.2
820.948	215.89
821.127	166.74
821.305	121.68
821.483	183.12
821.661	146.26
821.839	217.94
822.017	154.45
822.195	205.65
822.373	277.33
822.551	158.55
822.729	289.62
822.907	187.22
823.085	195.41
823.262	174.93
823.44	78.68
823.618	121.68
823.796	119.64
823.974	101.2
824.152	97.11
824.329	123.73
824.507	142.16
824.685	140.12
824.863	181.07
825.04	174.93
825.218	185.17
825.396	93.01
825.574	158.55
825.751	230.23
825.929	127.83
826.107	95.06
826.284	224.08
826.462	121.68
826.639	179.03
826.817	138.07
826.994	176.98
827.172	105.3
827.349	160.59
827.527	195.41
827.704	148.31
827.882	127.83
828.059	80.72
828.237	113.49
828.414	183.12
828.591	174.93
828.769	68.44
828.946	136.02
829.124	197.46
829.301	166.74
829.478	150.36
829.655	76.63
829.833	123.73
830.01	80.72
830.187	222.03
830.364	138.07
830.542	164.69
830.719	119.64
830.896	56.15
831.073	121.68
831.25	101.2
831.427	152.4
831.604	154.45
831.782	29.52
831.959	72.53
832.136	29.52
832.313	70.48
832.49	82.77
832.667	117.59
832.844	86.87
833.021	117.59
833.198	95.06
833.374	158.55
833.551	136.02
833.728	125.78
833.905	226.13
834.082	35.67
834.259	68.44
834.436	111.44
834.612	80.72
834.789	41.81
834.966	86.87
835.143	78.68
835.319	47.96
835.496	127.83
835.673	-3.24
835.85	93.01
836.026	144.21
836.203	33.62
836.38	138.07
836.556	45.91
836.733	131.92
836.909	109.4
837.086	107.35
837.262	39.76
837.439	80.72
837.616	41.81
837.792	119.64
837.968	131.92
838.145	-3.24
838.321	95.06
838.498	84.82
838.674	45.91
838.851	84.82
839.027	9.05
839.203	170.83
839.38	78.68
839.556	66.39
839.732	144.21
839.909	27.48
840.085	101.2
840.261	95.06
840.437	56.15
840.614	86.87
840.79	144.21
840.966	131.92
841.142	39.76
841.318	72.53
841.494	66.39
841.671	105.3
841.847	43.86
842.023	62.29
842.199	72.53
842.375	144.21
842.551	21.33
842.727	21.33
842.903	82.77
843.079	109.4
843.255	148.31
843.431	103.25
843.607	121.68
843.783	33.62
843.959	47.96
844.134	62.29
844.31	64.34
844.486	80.72
844.662	97.11
844.838	72.53
845.013	140.12
845.189	99.16
845.365	56.15
845.541	80.72
845.716	47.96
845.892	62.29
846.068	60.24
846.244	27.48
846.419	90.96
846.595	19.29
846.77	105.3
846.946	76.63
847.122	-33.96
847.297	43.86
847.473	105.3
847.648	21.33
847.824	113.49
847.999	37.72
848.175	113.49
848.35	97.11
848.526	115.54
848.701	88.92
848.876	90.96
849.052	45.91
849.227	17.24
849.403	90.96
849.578	39.76
849.753	86.87
849.929	113.49
850.104	23.38
850.279	19.29
850.454	31.57
850.63	109.4
850.805	103.25
850.98	86.87
851.155	78.68
851.33	64.34
851.505	54.1
851.681	64.34
851.856	31.57
852.031	29.52
852.206	23.38
852.381	23.38
852.556	-21.67
852.731	90.96
852.906	88.92
853.081	58.2
853.256	80.72
853.431	56.15
853.606	107.35
853.781	-33.96
853.956	-5.29
854.131	17.24
854.305	35.67
854.48	54.1
854.655	-5.29
854.83	93.01
855.005	0.85
855.18	-3.24
855.354	25.43
855.529	7
855.704	23.38
855.879	90.96
856.053	-21.67
856.228	66.39
856.403	43.86
856.577	-7.34
856.752	-13.48
856.926	60.24
857.101	4.95
857.276	-48.3
857.45	56.15
857.625	84.82
857.799	56.15
857.974	76.63
858.148	21.33
858.323	-13.48
858.497	-64.68
858.672	17.24
858.846	13.14
859.02	47.96
859.195	-56.49
859.369	82.77
859.543	109.4
859.718	56.15
859.892	37.72
860.066	21.33
860.241	-5.29
860.415	-25.77
860.589	35.67
860.763	-27.82
860.938	54.1
861.112	35.67
861.286	11.09
861.46	7
861.634	62.29
861.808	56.15
861.982	105.3
862.157	45.91
862.331	60.24
862.505	-23.72
862.679	27.48
862.853	84.82
863.027	21.33
863.201	86.87
863.375	54.1
863.549	-54.44
863.722	29.52
863.896	11.09
864.07	-1.19
864.244	74.58
864.418	80.72
864.592	33.62
864.766	33.62
864.939	-17.58
865.113	25.43
865.287	23.38
865.461	-5.29
865.634	47.96
865.808	43.86
865.982	78.68
866.156	-36.01
866.329	-3.24
866.503	-11.43
866.676	84.82
866.85	33.62
867.024	58.2
867.197	9.05
867.371	25.43
867.544	-31.91
867.718	-42.15
867.891	58.2
868.065	-38.06
868.238	0.85
868.412	-29.87
868.585	-25.77
868.759	-1.19
868.932	64.34
869.105	0.85
869.279	-11.43
869.452	39.76
869.625	37.72
869.799	15.19
869.972	-3.24
870.145	-1.19
870.319	-9.39
870.492	-42.15
870.665	58.2
870.838	52.05
871.011	47.96
871.185	-5.29
871.358	-13.48
871.531	35.67
871.704	31.57
871.877	31.57
872.05	0.85
872.223	-3.24
872.396	9.05
872.569	-15.53
872.742	-5.29
872.915	-31.91
873.088	-44.2
873.261	-52.39
873.434	17.24
873.607	11.09
873.78	37.72
873.953	-19.63
874.126	11.09
874.299	19.29
874.471	27.48
874.644	13.14
874.817	-23.72
874.99	7
875.163	23.38
875.335	72.53
875.508	15.19
875.681	68.44
875.853	-91.31
876.026	-7.34
876.199	70.48
876.371	54.1
876.544	-13.48
876.717	45.91
876.889	-7.34
877.062	72.53
877.234	-9.39
877.407	-50.35
877.579	-1.19
877.752	-17.58
877.924	95.06
878.097	-7.34
878.269	23.38
878.442	35.67
878.614	86.87
878.786	13.14
878.959	-5.29
879.131	97.11
879.303	-68.78
879.476	33.62
879.648	-17.58
879.82	-21.67
879.993	-5.29
880.165	-23.72
880.337	43.86
880.509	39.76
880.681	-5.29
880.854	-13.48
881.026	-40.11
881.198	50
881.37	37.72
881.542	43.86
881.714	64.34
881.886	-44.2
882.058	-9.39
882.23	21.33
882.402	7
882.574	41.81
882.746	-46.25
882.918	-31.91
883.09	80.72
883.262	33.62
883.434	31.57
883.606	-72.87
883.778	43.86
883.95	68.44
884.122	-15.53
884.293	-3.24
884.465	93.01
884.637	-7.34
884.809	-19.63
884.98	52.05
885.152	-9.39
885.324	-19.63
885.496	-21.67
885.667	-15.53
885.839	-5.29
886.011	88.92
886.182	45.91
886.354	31.57
886.525	-42.15
886.697	37.72
886.869	-15.53
887.04	37.72
887.212	-19.63
887.383	0.85
887.555	-38.06
887.726	-54.44
887.897	31.57
888.069	0.85
888.24	27.48
888.412	-27.82
888.583	21.33
888.754	4.95
888.926	-38.06
889.097	-9.39
889.268	-54.44
889.44	-19.63
889.611	35.67
889.782	31.57
889.953	-38.06
890.125	15.19
890.296	2.9
890.467	-23.72
890.638	-128.17
890.809	-19.63
890.98	-54.44
891.151	-15.53
891.323	-7.34
891.494	66.39
891.665	-25.77
891.836	-42.15
892.007	9.05
892.178	-17.58
892.349	-70.83
892.52	41.81
892.691	-25.77
892.862	-21.67
893.032	58.2
893.203	-31.91
893.374	-9.39
893.545	115.54
893.716	15.19
893.887	23.38
894.057	-52.39
894.228	-33.96
894.399	-54.44
894.57	117.59
894.74	35.67
894.911	47.96
895.082	4.95
895.253	-11.43
895.423	33.62
895.594	15.19
895.764	-38.06
895.935	50
896.106	17.24
896.276	33.62
896.447	-1.19
896.617	-5.29
896.788	-74.92
896.958	50
897.129	-3.24
897.299	-11.43
897.47	31.57
897.64	-81.07
897.81	11.09
897.981	-52.39
898.151	-56.49
898.322	78.68
898.492	-81.07
898.662	-19.63
898.832	-29.87
899.003	-25.77
899.173	33.62
899.343	-27.82
899.513	-76.97
