Data from USB4F104151__69__12-42-14-178.txt Node

Date: Fri Mar 14 12:42:14 EDT 2025
User: louis
Spectrometer: USB4F10415
Trigger mode: 4
Integration Time (sec): 3.000000E-2
Scans to average: 1
Electric dark correction enabled: true
Nonlinearity correction enabled: false
Boxcar width: 0
XAxis mode: Wavelengths
Number of Pixels in Spectrum: 3648
>>>>>Begin Spectral Data<<<<<
178.204	-89.94
178.424	-89.94
178.644	-89.94
178.864	-145.24
179.084	-106.32
179.304	2.22
179.524	16.55
179.744	0.17
179.964	43.18
180.184	-36.69
180.404	-20.31
180.624	-73.56
180.844	67.75
181.064	20.65
181.283	4.27
181.503	-26.45
181.723	2.22
181.943	-57.17
182.163	114.86
182.383	24.75
182.602	43.18
182.822	-34.64
183.042	47.27
183.262	-10.07
183.482	24.75
183.701	53.42
183.921	90.28
184.141	-44.88
184.361	104.62
184.58	86.19
184.8	-26.45
185.02	43.18
185.239	32.94
185.459	-22.36
185.679	61.61
185.898	28.84
186.118	6.31
186.338	14.51
186.557	32.94
186.777	-3.93
186.997	26.79
187.216	32.94
187.436	77.99
187.655	65.71
187.875	-5.97
188.095	12.46
188.314	63.66
188.534	73.9
188.753	-69.46
188.973	71.85
189.192	80.04
189.412	39.08
189.631	22.7
189.851	65.71
190.07	63.66
190.29	-34.64
190.509	28.84
190.729	65.71
190.948	37.03
191.168	96.43
191.387	14.51
191.607	-8.02
191.826	41.13
192.045	22.7
192.265	73.9
192.484	14.51
192.704	14.51
192.923	-94.04
193.142	88.23
193.362	30.89
193.581	34.99
193.8	0.17
194.02	77.99
194.239	34.99
194.458	75.95
194.678	53.42
194.897	51.37
195.116	-38.74
195.335	6.31
195.555	10.41
195.774	100.52
195.993	18.6
196.212	41.13
196.432	14.51
196.651	-24.4
196.87	-24.4
197.089	63.66
197.308	71.85
197.528	75.95
197.747	-38.74
197.966	53.42
198.185	100.52
198.404	37.03
198.623	16.55
198.842	61.61
199.062	71.85
199.281	82.09
199.5	41.13
199.719	80.04
199.938	57.51
200.157	-8.02
200.376	-44.88
200.595	114.86
200.814	47.27
201.033	-59.22
201.252	20.65
201.471	-18.26
201.69	20.65
201.909	41.13
202.128	39.08
202.347	75.95
202.566	110.76
202.785	2.22
203.004	12.46
203.223	86.19
203.442	10.41
203.661	-5.97
203.879	-14.17
204.098	-1.88
204.317	10.41
204.536	24.75
204.755	30.89
204.974	57.51
205.193	18.6
205.411	106.67
205.63	75.95
205.849	-53.08
206.068	12.46
206.287	57.51
206.505	12.46
206.724	77.99
206.943	22.7
207.162	37.03
207.381	71.85
207.599	-12.12
207.818	90.28
208.037	-1.88
208.255	-10.07
208.474	32.94
208.693	65.71
208.911	53.42
209.13	67.75
209.349	106.67
209.567	-16.21
209.786	51.37
210.005	6.31
210.223	57.51
210.442	-40.79
210.661	59.56
210.879	28.84
211.098	49.32
211.316	12.46
211.535	47.27
211.753	-46.93
211.972	84.14
212.191	39.08
212.409	59.56
212.628	-12.12
212.846	-10.07
213.065	47.27
213.283	18.6
213.502	94.38
213.72	-14.17
213.938	53.42
214.157	-26.45
214.375	12.46
214.594	14.51
214.812	71.85
215.031	43.18
215.249	92.33
215.467	-12.12
215.686	-32.6
215.904	114.86
216.122	-14.17
216.341	65.71
216.559	26.79
216.778	8.36
216.996	18.6
217.214	12.46
217.432	4.27
217.651	-51.03
217.869	14.51
218.087	18.6
218.306	92.33
218.524	20.65
218.742	41.13
218.96	86.19
219.179	-42.84
219.397	73.9
219.615	176.3
219.833	22.7
220.051	6.31
220.27	84.14
220.488	98.47
220.706	18.6
220.924	22.7
221.142	34.99
221.36	8.36
221.578	61.61
221.796	14.51
222.015	-20.31
222.233	-1.88
222.451	6.31
222.669	61.61
222.887	30.89
223.105	-18.26
223.323	16.55
223.541	12.46
223.759	92.33
223.977	45.23
224.195	161.96
224.413	92.33
224.631	53.42
224.849	-5.97
225.067	65.71
225.285	-14.17
225.503	32.94
225.721	8.36
225.939	51.37
226.157	47.27
226.375	80.04
226.592	-8.02
226.81	37.03
227.028	123.05
227.246	39.08
227.464	32.94
227.682	2.22
227.9	16.55
228.117	22.7
228.335	110.76
228.553	2.22
228.771	88.23
228.989	20.65
229.206	57.51
229.424	43.18
229.642	16.55
229.86	-30.55
230.077	28.84
230.295	45.23
230.513	-14.17
230.731	80.04
230.948	45.23
231.166	82.09
231.384	59.56
231.601	24.75
231.819	90.28
232.037	28.84
232.254	24.75
232.472	-24.4
232.689	2.22
232.907	55.47
233.125	10.41
233.342	-28.5
233.56	32.94
233.777	102.57
233.995	-18.26
234.213	6.31
234.43	2.22
234.648	61.61
234.865	32.94
235.083	4.27
235.3	73.9
235.518	-18.26
235.735	16.55
235.953	84.14
236.17	49.32
236.388	-28.5
236.605	69.8
236.822	118.95
237.04	82.09
237.257	45.23
237.475	-48.98
237.692	65.71
237.909	37.03
238.127	8.36
238.344	39.08
238.562	84.14
238.779	0.17
238.996	-5.97
239.214	-16.21
239.431	77.99
239.648	14.51
239.865	63.66
240.083	10.41
240.3	34.99
240.517	84.14
240.735	106.67
240.952	57.51
241.169	98.47
241.386	37.03
241.603	-30.55
241.821	26.79
242.038	34.99
242.255	20.65
242.472	-12.12
242.689	16.55
242.907	92.33
243.124	32.94
243.341	57.51
243.558	-8.02
243.775	2.22
243.992	-18.26
244.209	-46.93
244.426	100.52
244.643	96.43
244.86	30.89
245.078	75.95
245.295	26.79
245.512	43.18
245.729	-1.88
245.946	34.99
246.163	12.46
246.38	20.65
246.597	-48.98
246.814	6.31
247.031	-30.55
247.248	98.47
247.464	8.36
247.681	-32.6
247.898	14.51
248.115	90.28
248.332	10.41
248.549	100.52
248.766	34.99
248.983	82.09
249.2	80.04
249.417	45.23
249.633	28.84
249.85	-16.21
250.067	-48.98
250.284	47.27
250.501	28.84
250.717	49.32
250.934	-36.69
251.151	43.18
251.368	86.19
251.585	0.17
251.801	26.79
252.018	12.46
252.235	71.85
252.451	-14.17
252.668	-14.17
252.885	26.79
253.102	26.79
253.318	8.36
253.535	37.03
253.752	37.03
253.968	-42.84
254.185	30.89
254.401	4.27
254.618	41.13
254.835	22.7
255.051	30.89
255.268	37.03
255.484	41.13
255.701	32.94
255.917	-22.36
256.134	8.36
256.351	67.75
256.567	51.37
256.784	32.94
257	-38.74
257.217	71.85
257.433	53.42
257.65	-14.17
257.866	102.57
258.082	37.03
258.299	34.99
258.515	86.19
258.732	12.46
258.948	30.89
259.165	32.94
259.381	43.18
259.597	59.56
259.814	92.33
260.03	26.79
260.246	-5.97
260.463	63.66
260.679	53.42
260.895	4.27
261.112	39.08
261.328	-44.88
261.544	-26.45
261.761	137.38
261.977	22.7
262.193	-12.12
262.409	34.99
262.626	63.66
262.842	-53.08
263.058	22.7
263.274	43.18
263.49	0.17
263.707	92.33
263.923	8.36
264.139	-42.84
264.355	-1.88
264.571	92.33
264.787	43.18
265.004	77.99
265.22	-14.17
265.436	51.37
265.652	34.99
265.868	32.94
266.084	14.51
266.3	32.94
266.516	12.46
266.732	65.71
266.948	69.8
267.164	24.75
267.38	67.75
267.596	-48.98
267.812	16.55
268.028	20.65
268.244	67.75
268.46	18.6
268.676	6.31
268.892	34.99
269.108	34.99
269.324	-12.12
269.54	-12.12
269.756	51.37
269.972	-30.55
270.188	67.75
270.403	-12.12
270.619	63.66
270.835	45.23
271.051	2.22
271.267	45.23
271.483	-1.88
271.698	59.56
271.914	22.7
272.13	82.09
272.346	-16.21
272.562	8.36
272.777	61.61
272.993	34.99
273.209	-12.12
273.425	34.99
273.64	14.51
273.856	24.75
274.072	-55.12
274.287	69.8
274.503	43.18
274.719	20.65
274.934	20.65
275.15	-10.07
275.366	37.03
275.581	28.84
275.797	75.95
276.012	71.85
276.228	53.42
276.444	45.23
276.659	61.61
276.875	-10.07
277.09	34.99
277.306	6.31
277.521	10.41
277.737	-1.88
277.952	37.03
278.168	118.95
278.383	118.95
278.599	47.27
278.814	118.95
279.03	59.56
279.245	100.52
279.461	34.99
279.676	49.32
279.892	26.79
280.107	53.42
280.322	16.55
280.538	34.99
280.753	30.89
280.969	61.61
281.184	-14.17
281.399	-10.07
281.615	43.18
281.83	47.27
282.045	-48.98
282.26	-1.88
282.476	43.18
282.691	53.42
282.906	-1.88
283.122	18.6
283.337	51.37
283.552	0.17
283.767	-34.64
283.983	53.42
284.198	10.41
284.413	10.41
284.628	-16.21
284.843	-83.8
285.058	8.36
285.274	18.6
285.489	41.13
285.704	-20.31
285.919	41.13
286.134	-85.84
286.349	39.08
286.564	10.41
286.779	110.76
286.995	16.55
287.21	-26.45
287.425	14.51
287.64	18.6
287.855	41.13
288.07	-22.36
288.285	-3.93
288.5	16.55
288.715	82.09
288.93	-24.4
289.145	45.23
289.36	45.23
289.575	20.65
289.79	43.18
290.004	116.9
290.219	-5.97
290.434	14.51
290.649	-48.98
290.864	51.37
291.079	-10.07
291.294	55.47
291.509	-1.88
291.724	12.46
291.938	10.41
292.153	41.13
292.368	-12.12
292.583	57.51
292.798	41.13
293.012	34.99
293.227	49.32
293.442	94.38
293.657	28.84
293.871	94.38
294.086	10.41
294.301	18.6
294.516	-5.97
294.73	26.79
294.945	18.6
295.16	-38.74
295.374	18.6
295.589	88.23
295.804	47.27
296.018	34.99
296.233	135.34
296.447	8.36
296.662	6.31
296.877	6.31
297.091	12.46
297.306	8.36
297.52	51.37
297.735	88.23
297.949	49.32
298.164	14.51
298.378	67.75
298.593	55.47
298.807	-12.12
299.022	30.89
299.236	75.95
299.451	-28.5
299.665	53.42
299.88	0.17
300.094	71.85
300.309	67.75
300.523	0.17
300.737	77.99
300.952	71.85
301.166	-20.31
301.381	-8.02
301.595	49.32
301.809	-3.93
302.024	61.61
302.238	53.42
302.452	-36.69
302.667	-32.6
302.881	24.75
303.095	14.51
303.309	69.8
303.524	65.71
303.738	12.46
303.952	14.51
304.166	-32.6
304.381	49.32
304.595	61.61
304.809	-36.69
305.023	2.22
305.237	-3.93
305.452	45.23
305.666	55.47
305.88	28.84
306.094	65.71
306.308	12.46
306.522	4.27
306.736	45.23
306.95	32.94
307.164	125.1
307.379	14.51
307.593	37.03
307.807	45.23
308.021	63.66
308.235	86.19
308.449	32.94
308.663	8.36
308.877	6.31
309.091	-8.02
309.305	8.36
309.519	-55.12
309.733	100.52
309.947	24.75
310.161	57.51
310.374	57.51
310.588	53.42
310.802	22.7
311.016	10.41
311.23	41.13
311.444	-16.21
311.658	67.75
311.872	102.57
312.085	94.38
312.299	26.79
312.513	55.47
312.727	8.36
312.941	41.13
313.154	43.18
313.368	0.17
313.582	67.75
313.796	32.94
314.009	65.71
314.223	-18.26
314.437	102.57
314.651	92.33
314.864	34.99
315.078	34.99
315.292	-28.5
315.505	69.8
315.719	45.23
315.933	-30.55
316.146	55.47
316.36	75.95
316.573	86.19
316.787	67.75
317.001	-16.21
317.214	-28.5
317.428	77.99
317.641	-20.31
317.855	49.32
318.068	49.32
318.282	37.03
318.495	41.13
318.709	28.84
318.922	10.41
319.136	61.61
319.349	41.13
319.563	45.23
319.776	-30.55
319.99	-34.64
320.203	20.65
320.417	-38.74
320.63	47.27
320.843	47.27
321.057	37.03
321.27	96.43
321.483	14.51
321.697	-18.26
321.91	108.71
322.124	80.04
322.337	77.99
322.55	-32.6
322.763	32.94
322.977	0.17
323.19	14.51
323.403	12.46
323.617	65.71
323.83	26.79
324.043	30.89
324.256	34.99
324.469	39.08
324.683	77.99
324.896	75.95
325.109	112.81
325.322	12.46
325.535	63.66
325.748	71.85
325.962	43.18
326.175	84.14
326.388	59.56
326.601	39.08
326.814	30.89
327.027	8.36
327.24	34.99
327.453	-75.6
327.666	73.9
327.879	34.99
328.092	96.43
328.305	123.05
328.518	12.46
328.731	-46.93
328.944	28.84
329.157	61.61
329.37	4.27
329.583	96.43
329.796	51.37
330.009	4.27
330.222	-5.97
330.435	73.9
330.648	43.18
330.861	77.99
331.073	51.37
331.286	106.67
331.499	37.03
331.712	37.03
331.925	55.47
332.138	-16.21
332.35	77.99
332.563	24.75
332.776	-5.97
332.989	49.32
333.202	82.09
333.414	-10.07
333.627	4.27
333.84	43.18
334.053	94.38
334.265	73.9
334.478	131.24
334.691	63.66
334.903	-1.88
335.116	-8.02
335.329	-10.07
335.541	45.23
335.754	61.61
335.966	28.84
336.179	-51.03
336.392	49.32
336.604	39.08
336.817	61.61
337.029	67.75
337.242	4.27
337.454	108.71
337.667	2.22
337.88	57.51
338.092	20.65
338.305	110.76
338.517	-20.31
338.729	80.04
338.942	45.23
339.154	53.42
339.367	-44.88
339.579	41.13
339.792	-16.21
340.004	39.08
340.217	-12.12
340.429	43.18
340.641	2.22
340.854	37.03
341.066	32.94
341.278	88.23
341.491	84.14
341.703	53.42
341.915	-24.4
342.128	51.37
342.34	59.56
342.552	77.99
342.764	45.23
342.977	-10.07
343.189	82.09
343.401	24.75
343.613	-38.74
343.826	49.32
344.038	34.99
344.25	112.81
344.462	49.32
344.674	-28.5
344.886	28.84
345.099	43.18
345.311	73.9
345.523	37.03
345.735	-22.36
345.947	63.66
346.159	47.27
346.371	37.03
346.583	47.27
346.795	94.38
347.007	22.7
347.219	39.08
347.431	-20.31
347.643	4.27
347.855	6.31
348.067	75.95
348.279	18.6
348.491	51.37
348.703	-16.21
348.915	28.84
349.127	16.55
349.339	4.27
349.551	32.94
349.763	34.99
349.975	26.79
350.187	37.03
350.399	80.04
350.61	57.51
350.822	-10.07
351.034	10.41
351.246	86.19
351.458	0.17
351.669	75.95
351.881	-14.17
352.093	-8.02
352.305	84.14
352.517	8.36
352.728	77.99
352.94	73.9
353.152	108.71
353.363	22.7
353.575	137.38
353.787	45.23
353.999	6.31
354.21	2.22
354.422	-8.02
354.633	82.09
354.845	43.18
355.057	53.42
355.268	32.94
355.48	18.6
355.692	-48.98
355.903	-18.26
356.115	69.8
356.326	-5.97
356.538	59.56
356.749	94.38
356.961	65.71
357.172	22.7
357.384	-34.64
357.595	127.14
357.807	-36.69
358.018	34.99
358.23	32.94
358.441	65.71
358.653	28.84
358.864	63.66
359.075	-14.17
359.287	121
359.498	100.52
359.709	47.27
359.921	53.42
360.132	22.7
360.344	57.51
360.555	-5.97
360.766	57.51
360.977	-10.07
361.189	20.65
361.4	51.37
361.611	59.56
361.823	106.67
362.034	30.89
362.245	-26.45
362.456	55.47
362.667	47.27
362.879	22.7
363.09	55.47
363.301	94.38
363.512	88.23
363.723	49.32
363.935	28.84
364.146	121
364.357	2.22
364.568	43.18
364.779	-3.93
364.99	55.47
365.201	53.42
365.412	137.38
365.623	-12.12
365.834	4.27
366.045	-5.97
366.256	18.6
366.467	75.95
366.678	45.23
366.889	69.8
367.1	6.31
367.311	59.56
367.522	43.18
367.733	20.65
367.944	92.33
368.155	55.47
368.366	43.18
368.577	141.48
368.788	102.57
368.999	-10.07
369.209	-38.74
369.42	121
369.631	102.57
369.842	49.32
370.053	-28.5
370.264	102.57
370.474	84.14
370.685	73.9
370.896	14.51
371.107	104.62
371.317	57.51
371.528	20.65
371.739	49.32
371.95	14.51
372.16	114.86
372.371	94.38
372.582	41.13
372.792	51.37
373.003	49.32
373.214	55.47
373.424	88.23
373.635	28.84
373.846	75.95
374.056	49.32
374.267	8.36
374.477	34.99
374.688	-12.12
374.898	67.75
375.109	37.03
375.319	80.04
375.53	75.95
375.74	28.84
375.951	45.23
376.161	98.47
376.372	65.71
376.582	47.27
376.793	-22.36
377.003	-55.12
377.214	37.03
377.424	77.99
377.635	57.51
377.845	10.41
378.055	67.75
378.266	-32.6
378.476	30.89
378.686	82.09
378.897	20.65
379.107	8.36
379.317	63.66
379.528	63.66
379.738	28.84
379.948	4.27
380.158	28.84
380.369	8.36
380.579	45.23
380.789	30.89
380.999	22.7
381.21	14.51
381.42	108.71
381.63	96.43
381.84	30.89
382.05	133.29
382.261	73.9
382.471	106.67
382.681	-12.12
382.891	92.33
383.101	8.36
383.311	28.84
383.521	26.79
383.731	90.28
383.941	-10.07
384.151	96.43
384.361	-24.4
384.571	84.14
384.781	121
384.991	43.18
385.201	137.38
385.411	67.75
385.621	116.9
385.831	118.95
386.041	88.23
386.251	37.03
386.461	125.1
386.671	61.61
386.881	71.85
387.091	37.03
387.301	47.27
387.511	41.13
387.72	112.81
387.93	159.91
388.14	20.65
388.35	41.13
388.56	123.05
388.769	157.86
388.979	104.62
389.189	73.9
389.399	104.62
389.609	-34.64
389.818	127.14
390.028	55.47
390.238	71.85
390.447	94.38
390.657	47.27
390.867	98.47
391.076	20.65
391.286	4.27
391.496	67.75
391.705	6.31
391.915	98.47
392.125	84.14
392.334	53.42
392.544	84.14
392.753	41.13
392.963	-5.97
393.172	110.76
393.382	-14.17
393.591	82.09
393.801	63.66
394.01	161.96
394.22	28.84
394.429	129.19
394.639	6.31
394.848	98.47
395.058	41.13
395.267	65.71
395.477	94.38
395.686	-8.02
395.895	139.43
396.105	86.19
396.314	-12.12
396.524	51.37
396.733	49.32
396.942	100.52
397.152	176.3
397.361	88.23
397.57	84.14
397.78	102.57
397.989	149.67
398.198	147.62
398.407	86.19
398.617	71.85
398.826	37.03
399.035	77.99
399.244	127.14
399.453	182.44
399.663	63.66
399.872	133.29
400.081	92.33
400.29	114.86
400.499	51.37
400.708	186.54
400.917	100.52
401.127	98.47
401.336	47.27
401.545	82.09
401.754	137.38
401.963	184.49
402.172	67.75
402.381	153.77
402.59	67.75
402.799	43.18
403.008	141.48
403.217	84.14
403.426	69.8
403.635	75.95
403.844	129.19
404.053	118.95
404.262	65.71
404.471	116.9
404.68	75.95
404.888	110.76
405.097	30.89
405.306	59.56
405.515	77.99
405.724	166.06
405.933	139.43
406.142	104.62
406.35	217.26
406.559	123.05
406.768	125.1
406.977	188.58
407.185	196.78
407.394	233.64
407.603	127.14
407.812	153.77
408.02	176.3
408.229	200.87
408.438	172.2
408.646	116.9
408.855	211.11
409.064	174.25
409.272	209.06
409.481	225.45
409.69	145.58
409.898	217.26
410.107	254.12
410.315	231.59
410.524	256.17
410.733	305.32
410.941	204.97
411.15	342.18
411.358	358.57
411.567	305.32
411.775	385.19
411.984	358.57
412.192	311.46
412.401	333.99
412.609	444.58
412.818	381.09
413.026	387.24
413.234	286.89
413.443	309.41
413.651	446.63
413.86	391.33
414.068	506.02
414.276	524.45
414.485	561.31
414.693	575.65
414.901	649.38
415.11	493.73
415.318	639.14
415.526	567.46
415.734	618.66
415.943	616.61
416.151	682.14
416.359	649.38
416.567	657.57
416.776	682.14
416.984	796.83
417.192	790.69
417.4	762.02
417.608	753.82
417.817	831.65
418.025	876.7
418.233	950.43
418.441	874.65
418.649	983.2
418.857	1001.63
419.065	1099.93
419.273	927.9
419.481	1052.83
419.689	1122.46
419.897	1235.1
420.105	1138.84
420.313	1237.14
420.521	1351.83
420.729	1337.49
420.937	1366.17
421.145	1362.07
421.353	1429.65
421.561	1517.72
421.769	1548.44
421.977	1613.97
422.185	1575.06
422.393	1722.51
422.601	1792.14
422.809	1773.71
423.017	1878.16
423.224	1845.39
423.432	1972.36
423.64	2037.9
423.848	2248.84
424.056	2056.33
424.263	2283.66
424.471	2281.61
424.679	2267.27
424.887	2365.57
425.094	2414.73
425.302	2328.71
425.51	2656.39
425.718	2607.23
425.925	2621.57
426.133	2797.7
426.341	2875.52
426.548	3033.21
426.756	3037.31
426.964	3131.51
427.171	3242.11
427.379	3342.46
427.586	3405.94
427.794	3504.25
428.001	3627.12
428.209	3846.26
428.417	3743.86
428.624	4034.67
428.832	4012.14
429.039	3960.94
429.247	4067.44
429.454	4386.92
429.662	4782.18
429.869	4259.95
430.076	4685.92
430.284	4563.05
430.491	4661.35
430.699	4974.69
430.906	5079.13
431.114	5113.95
431.321	5359.7
431.528	5443.67
431.736	5763.15
431.943	5955.66
432.15	6002.77
432.358	5924.94
432.565	6264.91
432.772	6359.11
432.979	6666.31
433.187	6694.98
433.394	6744.13
433.601	7082.05
433.808	7024.7
434.016	7268.41
434.223	7475.26
434.43	7987.25
434.637	7651.38
434.844	8108.08
435.052	8302.64
435.259	8468.52
435.466	8562.73
435.673	8325.16
435.88	8937.51
436.087	9392.16
436.294	9357.34
436.501	9046.05
436.708	9386.01
436.915	9642.01
437.122	9877.52
437.329	10010.64
437.537	10211.34
437.743	10532.87
437.95	10600.46
438.157	11001.86
438.364	11161.6
438.571	11358.21
438.778	11376.64
438.985	12586.99
439.192	11913.2
439.399	12294.13
439.606	11909.11
439.813	12683.24
440.02	13410.27
440.227	13477.85
440.433	13141.99
440.64	13606.88
440.847	13291.49
441.054	13656.03
441.261	14739.4
441.467	14538.7
441.674	14827.46
441.881	15534.01
442.088	15337.41
442.294	15226.82
442.501	15632.32
442.708	15720.38
442.914	16519.09
443.121	17450.91
443.328	16918.44
443.534	18040.73
443.741	17393.57
443.948	17031.08
444.154	18630.54
444.361	18378.64
444.568	18808.72
444.774	18427.79
444.981	18810.76
445.187	19462.02
445.394	20199.29
445.6	19888
445.807	21643.1
446.013	20997.99
446.22	21165.93
446.426	22259.54
446.633	22050.65
446.839	22908.75
447.046	21911.39
447.252	23185.22
447.459	23318.34
447.665	23144.27
447.871	24303.42
448.078	25364.26
448.284	24055.61
448.491	24643.38
448.697	25610.02
448.903	26167.07
449.11	26154.78
449.316	25978.65
449.522	26230.55
449.728	27467.53
449.935	27197.2
450.141	26926.86
450.347	27848.45
450.553	27078.41
450.76	27365.13
450.966	28024.58
451.172	27676.42
451.378	28475.13
451.584	28174.08
451.791	28819.19
451.997	28655.35
452.203	29101.81
452.409	29105.9
452.615	28851.95
452.821	28124.93
453.027	27604.74
453.233	29261.55
453.44	27938.56
453.646	28770.04
453.852	28690.16
454.058	29327.08
454.264	28012.29
454.47	28964.59
454.676	28141.31
454.882	28999.41
455.088	26246.94
455.294	26730.26
455.5	26922.77
455.705	27629.32
455.911	26474.26
456.117	25984.8
456.323	25712.42
456.529	24125.24
456.735	25499.43
456.941	24749.87
457.147	24164.15
457.352	23373.64
457.558	23437.13
457.764	23332.68
457.97	23074.63
458.176	22280.02
458.381	22187.86
458.587	21159.78
458.793	21340.01
458.999	20377.46
459.204	21841.76
459.41	21073.77
459.616	19609.47
459.821	19591.04
460.027	19550.08
460.233	19244.93
460.438	18476.94
460.644	18407.31
460.85	17833.88
461.055	17139.62
461.261	17606.56
461.466	15927.22
461.672	15755.19
461.878	16551.85
462.083	15499.2
462.289	15310.79
462.494	15087.56
462.7	14395.34
462.905	13873.11
463.111	14575.56
463.316	14548.94
463.522	14256.08
463.727	14290.9
463.932	14276.56
464.138	14231.51
464.343	14188.5
464.549	13791.19
464.754	14192.59
464.959	14301.14
465.165	13891.54
465.37	13570.01
465.575	13115.36
465.781	13588.44
465.986	13746.14
466.191	13346.78
466.397	12849.13
466.602	12302.32
466.807	12589.03
467.012	12945.38
467.218	12675.05
467.423	12316.65
467.628	12740.58
467.833	13039.59
468.038	12666.86
468.244	12249.07
468.449	12857.32
468.654	12365.81
468.859	12163.06
469.064	12333.04
469.269	12074.99
469.474	12005.36
469.679	12154.87
469.885	11706.36
470.09	12107.76
470.295	11851.77
470.5	11497.47
470.705	11517.95
470.91	11356.16
471.115	11083.78
471.32	11368.45
471.525	11333.63
471.73	11184.13
471.935	11053.06
472.139	10596.36
472.344	10797.06
472.549	10741.77
472.754	10569.74
472.959	10532.87
473.164	10033.17
473.369	10119.18
473.574	10268.69
473.778	10334.22
473.983	10135.57
474.188	10154
474.393	9674.78
474.598	9703.45
474.802	9566.23
475.007	9517.08
475.212	9766.93
475.417	9211.93
475.621	9289.76
475.826	9332.76
476.031	9162.78
476.235	8945.7
476.44	8908.83
476.645	8869.92
476.849	9021.47
477.054	8726.57
477.259	8587.3
477.463	8624.17
477.668	8495.15
477.872	8511.53
478.077	8304.68
478.282	8159.28
478.486	8218.67
478.691	8036.4
478.895	8052.78
479.1	7872.56
479.304	8106.03
479.509	7575.61
479.713	7913.52
479.918	7874.61
480.122	7759.92
480.326	7919.67
480.531	7915.57
480.735	7729.2
480.94	7430.2
481.144	7807.03
481.348	7436.35
481.553	7456.82
481.757	7460.92
481.961	7413.82
482.166	7561.27
482.37	7292.99
482.574	7352.38
482.778	7587.89
482.983	7477.3
483.187	7389.24
483.391	7366.71
483.595	7477.3
483.8	7452.73
484.004	7362.62
484.208	7520.31
484.412	7501.88
484.616	7403.58
484.821	7632.95
485.025	7327.8
485.229	7407.67
485.433	7309.37
485.637	7499.83
485.841	7331.9
486.045	7479.35
486.249	7335.99
486.453	7469.11
486.657	7315.52
486.861	7368.76
487.065	7151.68
487.269	7436.35
487.473	7145.53
487.677	7282.75
487.881	7528.5
488.085	7249.98
488.289	7487.54
488.493	7387.19
488.697	7432.25
488.901	7512.12
489.105	7489.59
489.309	7346.23
489.512	7456.82
489.716	7557.18
489.92	7356.47
490.124	7561.27
490.328	7551.03
490.531	7594.04
490.735	7766.07
490.939	7516.22
491.143	7432.25
491.346	7678.01
491.55	7706.68
491.754	7667.77
491.958	7571.51
492.161	7723.06
492.365	7757.88
492.569	7563.32
492.772	7686.2
492.976	8103.98
493.18	7856.18
493.383	7977.01
493.587	8069.17
493.79	7987.25
493.994	8103.98
494.197	8122.41
494.401	8167.47
494.605	8038.45
494.808	8448.04
495.012	8314.92
495.215	8378.41
495.419	8351.79
495.622	8314.92
495.825	8314.92
496.029	8575.02
496.232	8779.81
496.436	8509.48
496.639	8957.99
496.843	8892.45
497.046	9050.14
497.249	9193.5
497.453	9130.02
497.656	9044
497.859	9205.79
498.063	9373.72
498.266	9375.77
498.469	9568.28
498.673	9660.44
498.876	9603.1
499.079	9859.09
499.282	9744.41
499.485	10057.75
499.689	10065.94
499.892	10225.68
500.095	10414.09
500.298	10379.28
500.501	10475.53
500.705	10614.79
500.908	10946.56
501.111	10868.74
501.314	11026.43
501.517	11159.55
501.72	11339.77
501.923	11169.79
502.126	11579.39
502.329	11681.78
502.532	11780.09
502.735	11659.26
502.938	11993.08
503.141	12302.32
503.344	12386.29
503.547	12355.57
503.75	12533.74
503.953	12582.89
504.156	12707.82
504.359	12863.46
504.562	12922.85
504.765	13217.76
504.968	13012.96
505.17	13336.54
505.373	13490.14
505.576	13623.26
505.779	13893.59
505.982	13696.99
506.185	14079.96
506.387	14004.18
506.59	14094.29
506.793	14813.13
506.996	14774.22
507.198	15110.08
507.401	14915.53
507.604	14958.53
507.807	15249.35
508.009	15368.13
508.212	15355.84
508.415	15755.19
508.617	15841.21
508.82	15925.18
509.022	15921.08
509.225	16502.7
509.428	16383.92
509.63	16463.79
509.833	16629.68
510.035	16838.57
510.238	16996.26
510.44	17022.89
510.643	17289.12
510.845	17657.76
511.048	17516.45
511.25	17631.13
511.453	18046.87
511.655	18309.01
511.858	18458.51
512.06	18511.76
512.262	18567.06
512.465	18812.81
512.667	18806.67
512.87	19265.41
513.072	18898.83
513.274	19339.14
513.477	19529.6
513.679	19568.51
513.881	19830.65
514.084	20014.97
514.286	20002.68
514.488	20391.8
514.69	20711.28
514.893	20682.61
515.095	20698.99
515.297	21036.91
515.499	21196.65
515.701	21159.78
515.904	21813.09
516.106	21692.26
516.308	21880.67
516.51	22314.84
516.712	22019.93
516.914	22902.61
517.116	22804.3
517.318	22900.56
517.52	23129.93
517.722	23271.24
517.925	23373.64
518.127	23889.73
518.329	23734.08
518.531	23836.48
518.733	24004.41
518.935	24098.62
519.136	24373.05
519.338	24786.74
519.54	24809.26
519.742	25134.89
519.944	24860.46
520.146	25515.81
520.348	25368.36
520.55	25607.97
520.752	25483.05
520.954	26320.67
521.155	25810.72
521.357	26126.11
521.559	26236.7
521.761	26771.22
521.963	26806.03
522.164	26963.73
522.366	27336.46
522.568	27416.33
522.77	27307.79
522.971	27936.51
523.173	27870.98
523.375	27733.76
523.576	27930.37
523.778	27920.13
523.98	28454.65
524.181	28147.45
524.383	28299
524.584	28751.6
524.786	28538.62
524.988	28731.12
525.189	29218.54
525.391	29349.61
525.592	29085.42
525.794	29386.47
525.995	29476.58
526.197	29689.57
526.398	29443.82
526.6	29621.99
526.801	30084.83
527.003	30193.37
527.204	29998.82
527.406	30717.65
527.607	30273.24
527.808	30588.63
528.01	30174.94
528.211	30602.97
528.412	30889.68
528.614	30629.59
528.815	30656.21
529.016	30963.41
529.218	31014.61
529.419	31024.85
529.62	31057.62
529.822	30992.08
530.023	31243.98
530.224	30924.5
530.425	31108.82
530.626	31074
530.828	30775
531.029	31844.04
531.23	31629
531.431	31213.26
531.632	31280.85
531.833	31430.35
532.035	31258.32
532.236	31686.34
532.437	31698.63
532.638	31549.13
532.839	31831.75
533.04	31608.52
533.241	31170.26
533.442	31932.1
533.643	31860.42
533.844	31645.38
534.045	31737.54
534.246	31153.87
534.447	31928
534.648	31456.97
534.849	31758.02
535.05	31674.06
535.251	31958.72
535.451	31747.78
535.652	31715.01
535.853	31784.65
536.054	32153.28
536.255	31841.99
536.456	31665.86
536.657	31989.44
536.857	31665.86
537.058	31782.6
537.259	32067.27
537.46	32231.1
537.66	31727.3
537.861	31694.54
538.062	31710.92
538.263	31790.79
538.463	31557.32
538.664	31778.5
538.865	31669.96
539.065	31991.49
539.266	31782.6
539.466	32151.23
539.667	31534.79
539.868	32036.55
540.068	31866.56
540.269	31930.05
540.469	32089.79
540.67	31588.04
540.87	31633.1
541.071	31547.08
541.271	32044.74
541.472	31831.75
541.672	31596.23
541.873	31413.96
542.073	31246.03
542.274	31772.36
542.474	31672.01
542.675	31469.26
542.875	31921.86
543.075	31391.44
543.276	30992.08
543.476	32065.22
543.676	31704.77
543.877	31696.58
544.077	31614.66
544.277	31416.01
544.478	31342.28
544.678	31801.03
544.878	31649.48
545.078	31575.75
545.279	31332.04
545.479	31360.72
545.679	31489.74
545.879	31420.11
546.079	31479.5
546.28	31481.55
546.48	31162.06
546.68	31672.01
546.88	31231.69
547.08	31334.09
547.28	31590.09
547.48	31264.46
547.68	31338.19
547.88	31059.66
548.081	31489.74
548.281	31252.17
548.481	31180.49
548.681	31616.71
548.881	30965.46
549.081	31037.14
549.28	31469.26
549.48	31194.83
549.68	31217.36
549.88	31635.14
550.08	31330
550.28	31237.84
550.48	31147.73
550.68	31598.28
550.88	31336.14
551.08	31305.42
551.279	31344.33
551.479	30840.53
551.679	31475.4
551.879	31305.42
552.079	31350.48
552.278	31190.73
552.478	30824.15
552.678	30871.25
552.878	31352.52
553.077	30793.43
553.277	30590.68
553.477	31160.02
553.676	30942.93
553.876	31405.77
554.076	30924.5
554.275	31074
554.475	30598.87
554.674	30944.98
554.874	30807.76
555.074	30607.06
555.273	30887.64
555.473	31074
555.672	30621.4
555.872	30658.26
556.071	30615.26
556.271	30803.67
556.47	30648.02
556.67	30498.52
556.869	30725.85
557.068	30594.78
557.268	30660.31
557.467	30873.3
557.667	30402.27
557.866	30674.65
558.065	30586.58
558.265	30172.89
558.464	30256.86
558.663	30328.54
558.863	29732.58
559.062	30922.45
559.261	30303.96
559.461	30363.36
559.66	30125.79
559.859	30256.86
560.058	30123.74
560.258	29775.59
560.457	29673.19
560.656	30361.31
560.855	30058.21
561.054	30054.11
561.253	29363.95
561.453	30062.3
561.652	29761.25
561.851	29617.89
562.05	29501.16
562.249	29492.97
562.448	29931.23
562.647	29583.08
562.846	29417.19
563.045	29785.83
563.244	29406.95
563.443	29552.36
563.642	29236.97
563.841	29441.77
564.04	29308.65
564.239	29353.71
564.438	29062.9
564.637	29198.06
564.836	29150.96
565.035	29042.42
565.234	29046.51
565.432	28976.88
565.631	28907.25
565.83	29036.27
566.029	28796.66
566.228	28727.03
566.427	28913.39
566.625	28444.41
566.824	28178.17
567.023	28716.79
567.222	28360.44
567.42	28626.68
567.619	28616.44
567.818	28237.56
568.016	28114.69
568.215	28499.7
568.414	28008.19
568.612	28350.2
568.811	28167.93
569.01	28223.23
569.208	27696.9
569.407	28153.6
569.605	27793.15
569.804	28147.45
570.002	27913.98
570.201	27995.9
570.4	27764.48
570.598	27555.59
570.797	27438.86
570.995	27590.41
571.193	27416.33
571.392	27664.13
571.59	27408.14
571.789	27367.18
571.987	27381.51
572.186	27434.76
572.384	27127.56
572.582	27117.32
572.781	27377.42
572.979	26791.7
573.177	27084.56
573.376	26996.49
573.574	26803.99
573.772	27166.48
573.971	26449.69
574.169	26603.28
574.367	26449.69
574.565	26748.69
574.763	26310.43
574.962	26435.35
575.16	26228.51
575.358	26134.3
575.556	26105.63
575.754	26746.64
575.952	25794.34
576.151	26480.41
576.349	26017.57
576.547	26253.08
576.745	25745.19
576.943	26058.53
577.141	26027.81
577.339	25878.3
577.537	25888.54
577.735	25923.36
577.933	25462.57
578.131	25669.41
578.329	25616.16
578.527	25437.99
578.725	25263.91
578.923	25519.91
579.121	25179.95
579.319	25171.75
579.516	25118.51
579.714	24962.86
579.912	25161.51
580.11	24844.08
580.308	25317.16
580.506	24651.57
580.704	24596.28
580.901	24926
581.099	24653.62
581.297	24549.17
581.495	24790.83
581.692	24874.8
581.89	24461.11
582.088	24434.49
582.285	24479.54
582.483	24745.78
582.681	24504.12
582.878	24221.5
583.076	24080.19
583.274	23955.26
583.471	23979.84
583.669	24100.67
583.866	23686.98
584.064	24067.9
584.262	23652.16
584.459	23807.81
584.657	23437.13
584.854	23885.63
585.052	23383.88
585.249	23574.34
585.447	23174.99
585.644	23226.18
585.841	23154.51
586.039	23629.63
586.236	22953.8
586.434	23191.37
586.631	22933.32
586.828	23209.8
587.026	23150.41
587.223	23048.01
587.42	22591.31
587.618	22947.66
587.815	22826.83
588.012	22708.05
588.21	22441.81
588.407	22708.05
588.604	22349.65
588.801	22624.08
588.999	22282.07
589.196	22595.41
589.393	22568.79
589.59	22216.54
589.787	22220.63
589.984	21862.24
590.182	21679.97
590.379	22177.62
590.576	21686.11
590.773	21442.4
590.97	22136.66
591.167	21870.43
591.364	21514.08
591.561	21260.13
591.758	21421.92
591.955	21374.82
592.152	21333.86
592.349	21190.5
592.546	21270.37
592.743	21264.23
592.94	21034.86
593.137	21069.67
593.334	21280.61
593.531	20801.39
593.727	21141.35
593.924	21006.19
594.121	20858.73
594.318	20752.24
594.515	20662.13
594.712	20719.47
594.908	20565.87
595.105	20610.93
595.302	20674.42
595.499	20516.72
595.696	20412.28
595.892	20152.18
596.089	20168.57
596.286	20451.19
596.482	20262.77
596.679	20295.54
596.876	20060.02
597.072	20143.99
597.269	19869.56
597.466	19863.42
597.662	19756.93
597.859	20060.02
598.055	19769.21
598.252	19554.18
598.448	19586.94
598.645	19404.67
598.841	19257.22
599.038	19515.26
599.234	19427.2
599.431	19062.66
599.627	18958.22
599.824	19306.37
600.02	19169.16
600.217	18931.59
600.413	18945.93
600.609	18876.3
600.806	18947.98
601.002	18915.21
601.198	18857.87
601.395	18454.42
601.591	18868.11
601.787	18798.48
601.984	18366.35
602.18	18556.82
602.376	18700.17
602.572	18327.44
602.769	18487.18
602.965	18294.68
603.161	18435.99
603.357	18290.58
603.553	17987.48
603.75	18315.16
603.946	18048.92
604.142	18032.54
604.338	18005.91
604.534	18005.91
604.73	17979.29
604.926	17938.33
605.122	17942.42
605.318	17788.83
605.514	17674.14
605.71	17495.97
605.906	17477.54
606.102	17438.62
606.298	17313.7
606.494	17182.63
606.69	17366.95
606.886	17350.56
607.082	17201.06
607.278	17176.48
607.474	17084.33
607.67	17522.59
607.866	16957.35
608.062	17342.37
608.257	17123.24
608.453	16811.95
608.649	17205.16
608.845	16949.16
609.041	16963.5
609.236	17045.41
609.432	16652.2
609.628	17096.61
609.824	16684.97
610.019	16697.26
610.215	16678.83
610.411	17055.65
610.606	16717.74
610.802	16820.14
610.998	16545.71
611.193	16691.12
611.389	16363.44
611.584	16277.43
611.78	16582.57
611.976	16431.02
612.171	16220.08
612.367	16306.1
612.562	16361.39
612.758	16232.37
612.953	16369.58
613.149	16322.48
613.344	15953.85
613.539	16250.8
613.735	16342.96
613.93	16261.04
614.126	16029.62
614.321	16201.65
614.517	16119.73
614.712	15906.74
614.907	16033.72
615.103	16005.05
615.298	16070.58
615.493	16121.78
615.688	15626.17
615.884	15747
616.079	15798.2
616.274	16035.77
616.47	15873.98
616.665	15753.15
616.86	15519.68
617.055	15718.33
617.25	15734.71
617.445	15517.63
617.641	15458.24
617.836	15402.94
618.031	15144.9
618.226	15388.61
618.421	15409.09
618.616	15570.88
618.811	15140.8
619.006	15394.75
619.201	14925.77
619.396	15241.15
619.591	15026.12
619.786	15271.87
619.981	14940.1
620.176	14981.06
620.371	14944.2
620.566	14880.71
620.761	14682.06
620.956	14790.6
621.151	14323.66
621.346	14503.89
621.541	14292.94
621.735	14620.62
621.93	14204.88
622.125	14284.75
622.32	14094.29
622.515	14299.09
622.709	14071.76
622.904	13862.87
623.099	13883.35
623.294	13918.17
623.488	13629.4
623.683	13647.83
623.878	13215.71
624.072	13807.58
624.267	13658.07
624.462	13518.81
624.656	13182.95
624.851	13354.97
625.046	12920.81
625.24	13268.96
625.435	13127.65
625.629	13117.41
625.824	12771.3
626.018	12793.83
626.213	12437.48
626.407	12920.81
626.602	12726.25
626.796	12609.51
626.991	12677.1
627.185	12290.03
627.38	12533.74
627.574	12275.7
627.768	12113.91
627.963	12115.95
628.157	12206.06
628.352	12109.81
628.546	11972.6
628.74	12054.51
628.935	11849.72
629.129	11845.62
629.323	11606.01
629.517	11677.69
629.712	11730.94
629.906	11583.48
630.1	11335.68
630.294	11513.85
630.489	11532.28
630.683	11317.25
630.877	11012.1
631.071	11393.02
631.265	11212.8
631.459	10928.13
631.653	10954.76
631.848	11290.62
632.042	10944.52
632.236	11134.98
632.43	10915.84
632.624	10885.12
632.818	10835.97
633.012	10520.59
633.206	10604.55
633.4	10590.22
633.594	10426.38
633.788	10520.59
633.982	10412.04
634.176	10258.45
634.369	10031.12
634.563	10197.01
634.757	10045.46
634.951	10147.86
635.145	9920.53
635.339	10141.71
635.533	9955.35
635.726	9828.37
635.92	9752.6
636.114	9934.87
636.308	9719.83
636.501	9910.29
636.695	9695.25
636.889	9664.54
637.083	9676.82
637.276	9555.99
637.47	9383.96
637.664	9367.58
637.857	9553.94
638.051	9402.4
638.244	9297.95
638.438	9185.31
638.632	9371.68
638.825	9203.74
639.019	9132.06
639.212	8851.49
639.406	8978.47
639.599	8984.61
639.793	9062.43
639.986	8855.59
640.18	8939.55
640.373	8798.24
640.567	8863.78
640.76	8716.33
640.954	8593.45
641.147	8581.16
641.34	8484.91
641.534	8546.34
641.727	8308.78
641.92	8484.91
642.114	8308.78
642.307	8489
642.5	8251.44
642.694	8319.02
642.887	8247.34
643.08	8128.56
643.273	8032.3
643.467	8159.28
643.66	8036.4
643.853	7966.77
644.046	7786.55
644.239	8075.31
644.432	7772.21
644.626	7991.34
644.819	7911.47
645.012	7579.7
645.205	7643.19
645.398	7528.5
645.591	7606.33
645.784	7721.01
645.977	7678.01
646.17	7557.18
646.363	7419.96
646.556	7452.73
646.749	7391.29
646.942	7254.08
647.135	7264.32
647.328	7258.17
647.521	7108.67
647.714	7247.93
647.907	7284.8
648.099	7206.97
648.292	7180.35
648.485	7127.1
648.678	7034.94
648.871	6965.31
649.064	6901.83
649.256	6885.44
649.449	7008.32
649.642	6920.26
649.835	6852.67
650.027	6805.57
650.22	6846.53
650.413	6864.96
650.605	6789.19
650.798	6672.45
650.991	6639.69
651.183	6684.74
651.376	6498.38
651.568	6481.99
651.761	6514.76
651.954	6516.81
652.146	6340.68
652.339	6492.23
652.531	6254.67
652.724	6228.04
652.916	6039.63
653.109	6172.75
653.301	6254.67
653.494	6283.34
653.686	6209.61
653.879	6166.6
654.071	5935.18
654.263	6049.87
654.456	6105.17
654.648	6189.13
654.84	5802.07
655.033	6066.25
655.225	6023.25
655.417	5945.42
655.61	6080.59
655.802	5879.89
655.994	5734.48
656.186	5666.9
656.379	5709.91
656.571	5671
656.763	5685.33
656.955	5714
657.148	5591.13
657.34	5660.76
657.532	5550.17
657.724	5507.16
657.916	5570.65
658.108	5478.49
658.3	5511.25
658.492	5242.97
658.684	5445.72
658.876	5447.77
659.068	5347.42
659.26	5253.21
659.452	5431.38
659.644	5343.32
659.836	5245.02
660.028	5269.59
660.22	5150.81
660.412	5175.39
660.604	5107.8
660.796	4954.21
660.988	5060.7
661.18	5040.22
661.372	5089.37
661.563	5056.61
661.755	4976.73
661.947	4829.28
662.139	4933.73
662.331	4888.67
662.522	4927.58
662.714	4900.96
662.906	4837.47
663.097	5017.69
663.289	4823.14
663.481	4692.07
663.673	4778.08
663.864	4747.36
664.056	4763.75
664.247	4651.11
664.439	4569.19
664.631	4698.21
664.822	4622.44
665.014	4593.76
665.205	4544.61
665.397	4530.28
665.588	4495.46
665.78	4556.9
665.971	4595.81
666.163	4579.43
666.354	4409.45
666.546	4454.5
666.737	4167.79
666.929	4477.03
667.12	4364.39
667.311	4356.2
667.503	4399.21
667.694	4391.02
667.885	4284.52
668.077	4421.74
668.268	4196.46
668.459	4292.71
668.651	4182.12
668.842	4221.03
669.033	4221.03
669.224	4065.39
669.416	4161.64
669.607	4083.82
669.798	4100.2
669.989	4102.25
670.18	4073.58
670.371	4034.67
670.563	4049
670.754	4110.44
670.945	4071.53
671.136	3999.85
671.327	3842.16
671.518	3922.03
671.709	3891.31
671.9	3940.46
672.091	3846.26
672.282	3942.51
672.473	4061.29
672.664	3860.59
672.855	3854.45
673.046	3934.32
673.237	3915.89
673.428	3790.96
673.619	3704.95
673.809	3842.16
674	3840.11
674.191	3829.87
674.382	3653.75
674.573	3686.51
674.764	3733.62
674.954	3672.18
675.145	3530.87
675.336	3745.91
675.527	3633.27
675.717	3549.3
675.908	3625.08
676.099	3663.99
676.289	3657.84
676.48	3592.31
676.671	3635.32
676.861	3678.32
677.052	3537.01
677.243	3577.97
677.433	3571.83
677.624	3401.85
677.814	3594.36
678.005	3467.38
678.195	3395.7
678.386	3453.05
678.576	3598.45
678.767	3543.16
678.957	3592.31
679.148	3430.52
679.338	3481.72
679.529	3565.68
679.719	3506.29
679.909	3338.36
680.1	3407.99
680.29	3442.81
680.481	3451
680.671	3334.26
680.861	3418.23
681.052	3377.27
681.242	3307.64
681.432	3410.04
681.622	3401.85
681.813	3301.5
682.003	3451
682.193	3221.63
682.383	3401.85
682.573	3387.51
682.764	3315.83
682.954	3377.27
683.144	3248.25
683.334	3326.07
683.524	3240.06
683.714	3209.34
683.904	3356.79
684.094	3260.54
684.284	3295.35
684.474	3188.86
684.664	3264.63
684.854	3160.19
685.044	3117.18
685.234	3143.8
685.424	3317.88
685.614	3129.47
685.804	3252.35
685.994	3305.59
686.184	3248.25
686.374	3074.17
686.564	3197.05
686.753	3074.17
686.943	3096.7
687.133	3047.55
687.323	3010.68
687.513	3143.8
687.702	3078.27
687.892	3084.41
688.082	3043.45
688.272	3123.32
688.461	3088.51
688.651	2904.19
688.841	2916.48
689.03	2953.34
689.22	2910.33
689.41	2953.34
689.599	2916.48
689.789	2898.05
689.979	2900.09
690.168	2953.34
690.358	2848.9
690.547	2787.46
690.737	2932.86
690.926	2730.11
691.116	2842.75
691.305	2859.14
691.495	2955.39
691.684	2693.25
691.874	2840.7
692.063	2762.88
692.252	2773.12
692.442	2861.18
692.631	2678.91
692.82	2664.58
693.01	2621.57
693.199	2640
693.388	2650.24
693.578	2752.64
693.767	2640
693.956	2631.81
694.146	2619.52
694.335	2588.8
694.524	2560.13
694.713	2484.36
694.902	2689.15
695.092	2519.17
695.281	2609.28
695.47	2560.13
695.659	2611.33
695.848	2453.64
696.037	2467.97
696.226	2427.01
696.415	2562.18
696.604	2502.79
696.793	2367.62
696.982	2549.89
697.171	2388.1
697.36	2480.26
697.549	2533.51
697.738	2445.45
697.927	2427.01
698.116	2312.33
698.305	2410.63
698.494	2566.28
698.683	2363.53
698.872	2467.97
699.061	2324.62
699.25	2488.45
699.438	2435.21
699.627	2302.09
699.816	2445.45
700.005	2252.94
700.193	2338.95
700.382	2367.62
700.571	2345.09
700.76	2404.49
700.948	2330.76
701.137	2373.77
701.326	2271.37
701.514	2361.48
701.703	2369.67
701.892	2332.81
702.08	2312.33
702.269	2320.52
702.457	2304.14
702.646	2228.36
702.834	2400.39
703.023	2281.61
703.212	2314.38
703.4	2230.41
703.589	2320.52
703.777	2443.4
703.965	2263.18
704.154	2341
704.342	2203.79
704.531	2285.7
704.719	2263.18
704.907	2220.17
705.096	2334.86
705.284	2289.8
705.472	2359.43
705.661	2107.53
705.849	2379.91
706.037	2250.89
706.226	2240.65
706.414	2297.99
706.602	2228.36
706.79	2248.84
706.979	2228.36
707.167	2377.86
707.355	2314.38
707.543	2179.21
707.731	2324.62
707.919	2246.79
708.107	2431.11
708.296	2226.31
708.484	2199.69
708.672	2257.03
708.86	2173.07
709.048	2134.15
709.236	2250.89
709.424	2197.64
709.612	2310.28
709.8	2257.03
709.988	2220.17
710.176	2244.74
710.364	2349.19
710.551	2257.03
710.739	2320.52
710.927	2306.18
711.115	2289.8
711.303	2279.56
711.491	2257.03
711.679	2117.77
711.866	2144.39
712.054	2168.97
712.242	2242.7
712.43	2328.71
712.617	2250.89
712.805	2209.93
712.993	2287.75
713.181	2289.8
713.368	2261.13
713.556	2175.11
713.744	2168.97
713.931	2379.91
714.119	2232.46
714.306	2338.95
714.494	2218.12
714.682	2351.24
714.869	2236.55
715.057	2211.98
715.244	2164.87
715.432	2199.69
715.619	2177.16
715.807	2283.66
715.994	2336.9
716.182	2279.56
716.369	2203.79
716.556	2367.62
716.744	2138.25
716.931	2148.49
717.119	2343.05
717.306	2273.42
717.493	2273.42
717.681	2236.55
717.868	2199.69
718.055	2248.84
718.242	2166.92
718.43	2347.14
718.617	2431.11
718.804	2267.27
718.991	2297.99
719.179	2257.03
719.366	2205.83
719.553	2265.22
719.74	2291.85
719.927	2263.18
720.114	2244.74
720.301	2302.09
720.488	2173.07
720.676	2304.14
720.863	2328.71
721.05	2328.71
721.237	2248.84
721.424	2242.7
721.611	2322.57
721.798	2341
721.985	2273.42
722.172	2271.37
722.358	2365.57
722.545	2435.21
722.732	2302.09
722.919	2357.38
723.106	2408.58
723.293	2230.41
723.48	2316.42
723.667	2330.76
723.853	2392.2
724.04	2314.38
724.227	2281.61
724.414	2265.22
724.6	2338.95
724.787	2248.84
724.974	2457.73
725.161	2357.38
725.347	2273.42
725.534	2261.13
725.72	2453.64
725.907	2275.46
726.094	2386.05
726.28	2316.42
726.467	2214.02
726.653	2406.53
726.84	2461.83
727.027	2492.55
727.213	2269.32
727.4	2461.83
727.586	2357.38
727.773	2377.86
727.959	2373.77
728.145	2371.72
728.332	2330.76
728.518	2318.47
728.705	2396.29
728.891	2336.9
729.077	2297.99
729.264	2379.91
729.45	2373.77
729.636	2363.53
729.823	2343.05
730.009	2341
730.195	2447.49
730.382	2451.59
730.568	2400.39
730.754	2375.81
730.94	2474.12
731.126	2361.48
731.313	2408.58
731.499	2523.27
731.685	2500.74
731.871	2531.46
732.057	2404.49
732.243	2384.01
732.429	2345.09
732.615	2461.83
732.801	2551.94
732.987	2427.01
733.173	2322.57
733.359	2379.91
733.545	2594.95
733.731	2404.49
733.917	2547.84
734.103	2515.08
734.289	2588.8
734.475	2529.41
734.661	2500.74
734.847	2480.26
735.033	2445.45
735.219	2529.41
735.404	2478.21
735.59	2478.21
735.776	2437.25
735.962	2574.47
736.148	2582.66
736.333	2572.42
736.519	2525.32
736.705	2457.73
736.89	2615.43
737.076	2502.79
737.262	2459.78
737.447	2513.03
737.633	2553.99
737.819	2613.38
738.004	2560.13
738.19	2631.81
738.375	2558.08
738.561	2644.1
738.747	2517.12
738.932	2523.27
739.118	2545.8
739.303	2543.75
739.489	2695.3
739.674	2484.36
739.859	2654.34
740.045	2570.37
740.23	2547.84
740.416	2390.15
740.601	2586.76
740.786	2529.41
740.972	2605.19
741.157	2656.39
741.342	2582.66
741.528	2619.52
741.713	2609.28
741.898	2654.34
742.084	2463.88
742.269	2633.86
742.454	2502.79
742.639	2525.32
742.824	2562.18
743.01	2560.13
743.195	2502.79
743.38	2549.89
743.565	2560.13
743.75	2476.16
743.935	2500.74
744.12	2535.56
744.305	2474.12
744.49	2445.45
744.675	2388.1
744.86	2406.53
745.045	2443.4
745.23	2510.98
745.415	2420.87
745.6	2576.52
745.785	2375.81
745.97	2582.66
746.155	2404.49
746.34	2314.38
746.525	2396.29
746.71	2457.73
746.895	2361.48
747.079	2453.64
747.264	2412.68
747.449	2488.45
747.634	2351.24
747.819	2375.81
748.003	2381.96
748.188	2316.42
748.373	2420.87
748.557	2367.62
748.742	2371.72
748.927	2275.46
749.111	2283.66
749.296	2332.81
749.481	2263.18
749.665	2347.14
749.85	2211.98
750.034	2281.61
750.219	2218.12
750.404	2164.87
750.588	2166.92
750.773	2191.5
750.957	2195.59
751.141	2140.3
751.326	2103.43
751.51	2203.79
751.695	2189.45
751.879	2058.38
752.064	2115.72
752.248	2023.56
752.432	2113.67
752.617	2039.95
752.801	2119.82
752.985	2046.09
753.17	2037.9
753.354	1955.98
753.538	1955.98
753.722	1937.55
753.907	2005.13
754.091	1955.98
754.275	1919.12
754.459	1998.99
754.643	1962.12
754.828	1984.65
755.012	1953.93
755.196	1806.48
755.38	1859.73
755.564	1863.82
755.748	1898.64
755.932	1947.79
756.116	1839.25
756.3	1925.26
756.484	1822.86
756.668	1958.03
756.852	1829.01
757.036	1681.55
757.22	1806.48
757.404	1755.28
757.588	1820.81
757.772	1812.62
757.956	1747.09
758.14	1734.8
758.323	1788.05
758.507	1687.7
758.691	1675.41
758.875	1781.9
759.059	1685.65
759.242	1644.69
759.426	1714.32
759.61	1695.89
759.794	1542.29
759.977	1740.94
760.161	1632.4
760.345	1751.18
760.528	1681.55
760.712	1613.97
760.895	1648.79
761.079	1560.72
761.263	1542.29
761.446	1589.39
761.63	1566.87
761.813	1546.39
761.997	1554.58
762.18	1556.63
762.364	1616.02
762.547	1419.41
762.731	1509.52
762.914	1583.25
763.098	1476.76
763.281	1464.47
763.464	1452.18
763.648	1466.52
763.831	1538.2
764.015	1499.28
764.198	1413.27
764.381	1405.08
764.564	1482.9
764.748	1527.96
764.931	1448.08
765.114	1364.12
765.297	1429.65
765.481	1491.09
765.664	1394.84
765.847	1396.89
766.03	1398.93
766.213	1310.87
766.397	1331.35
766.58	1368.21
766.763	1349.78
766.946	1298.58
767.129	1296.53
767.312	1437.84
767.495	1339.54
767.678	1376.41
767.861	1366.17
768.044	1292.44
768.227	1335.45
768.41	1282.2
768.593	1247.38
768.776	1323.16
768.959	1355.93
769.142	1339.54
769.324	1159.32
769.507	1249.43
769.69	1265.82
769.873	1226.9
770.056	1329.3
770.239	1241.24
770.421	1278.1
770.604	1286.3
770.787	1282.2
770.97	1200.28
771.152	1214.62
771.335	1138.84
771.518	1134.75
771.7	1140.89
771.883	1151.13
772.066	1185.94
772.248	1112.22
772.431	1239.19
772.613	1075.35
772.796	1165.46
772.978	1296.53
773.161	1144.99
773.343	1054.87
773.526	1130.65
773.708	1118.36
773.891	1185.94
774.073	1083.55
774.256	1155.23
774.438	1038.49
774.621	1118.36
774.803	1089.69
774.985	1122.46
775.168	1040.54
775.35	1073.31
775.532	1116.31
775.715	958.62
775.897	991.39
776.079	1083.55
776.261	1026.2
776.444	1009.82
776.626	981.15
776.808	964.76
776.99	927.9
777.173	1007.77
777.355	864.41
777.537	1018.01
777.719	1013.92
777.901	948.38
778.083	934.04
778.265	932
778.447	913.56
778.629	899.23
778.811	923.8
778.993	893.09
779.175	891.04
779.357	850.08
779.539	886.94
779.721	872.61
779.903	876.7
780.085	891.04
780.267	796.83
780.449	897.18
780.631	819.36
780.812	895.13
780.994	870.56
781.176	757.92
781.358	735.39
781.54	757.92
781.721	911.52
781.903	821.41
782.085	854.17
782.267	755.87
782.448	796.83
782.63	710.82
782.812	692.38
782.993	759.97
783.175	680.1
783.357	700.58
783.538	784.54
783.72	690.34
783.901	673.95
784.083	762.02
784.264	680.1
784.446	587.94
784.627	682.14
784.809	762.02
784.99	678.05
785.172	696.48
785.353	716.96
785.535	710.82
785.716	647.33
785.897	639.14
786.079	622.75
786.26	686.24
786.441	651.42
786.623	680.1
786.804	649.38
786.985	725.15
787.167	596.13
787.348	589.99
787.529	528.55
787.71	653.47
787.891	626.85
788.073	553.12
788.254	477.35
788.435	567.46
788.616	655.52
788.797	467.11
788.978	618.66
789.159	446.63
789.34	559.27
789.522	522.4
789.703	495.78
789.884	592.03
790.065	544.93
790.246	514.21
790.427	501.92
790.607	585.89
790.788	512.16
790.969	454.82
791.15	473.25
791.331	460.96
791.512	510.11
791.693	434.34
791.874	424.1
792.054	514.21
792.235	614.56
792.416	528.55
792.597	393.38
792.778	487.59
792.958	487.59
793.139	489.64
793.32	401.57
793.5	430.24
793.681	469.16
793.862	411.81
794.042	374.95
794.223	436.39
794.404	448.68
794.584	327.85
794.765	387.24
794.945	393.38
795.126	471.2
795.306	395.43
795.487	434.34
795.667	465.06
795.848	422.05
796.028	448.68
796.209	415.91
796.389	460.96
796.57	456.87
796.75	411.81
796.93	374.95
797.111	438.44
797.291	356.52
797.471	319.65
797.652	446.63
797.832	358.57
798.012	413.86
798.192	381.09
798.373	262.31
798.553	407.72
798.733	377
798.913	329.89
799.093	323.75
799.274	391.33
799.454	444.58
799.634	366.76
799.814	356.52
799.994	407.72
800.174	393.38
800.354	372.9
800.534	272.55
800.714	374.95
800.894	327.85
801.074	323.75
801.254	360.61
801.434	321.7
801.614	397.48
801.794	372.9
801.974	1007.77
802.154	317.61
802.334	237.74
802.514	268.45
802.693	297.13
802.873	307.37
803.053	293.03
803.233	321.7
803.413	260.26
803.592	344.23
803.772	315.56
803.952	336.04
804.131	313.51
804.311	254.12
804.491	309.41
804.67	223.4
804.85	250.02
805.03	286.89
805.209	276.65
805.389	354.47
805.568	315.56
805.748	217.26
805.928	268.45
806.107	288.93
806.287	264.36
806.466	278.69
806.646	254.12
806.825	278.69
807.004	348.33
807.184	270.5
807.363	250.02
807.543	192.68
807.722	217.26
807.901	280.74
808.081	262.31
808.26	155.82
808.439	338.09
808.619	237.74
808.798	180.39
808.977	233.64
809.156	336.04
809.336	280.74
809.515	270.5
809.694	196.78
809.873	235.69
810.052	174.25
810.231	282.79
810.411	239.78
810.59	217.26
810.769	164.01
810.948	307.37
811.127	157.86
811.306	202.92
811.485	186.54
811.664	293.03
811.843	198.82
812.022	278.69
812.201	215.21
812.38	237.74
812.559	180.39
812.737	196.78
812.916	149.67
813.095	180.39
813.274	239.78
813.453	235.69
813.632	272.55
813.811	161.96
813.989	196.78
814.168	174.25
814.347	145.58
814.526	176.3
814.704	198.82
814.883	229.54
815.062	200.87
815.24	254.12
815.419	194.73
815.598	245.93
815.776	168.1
815.955	114.86
816.133	110.76
816.312	192.68
816.49	168.1
816.669	225.45
816.847	225.45
817.026	250.02
817.204	204.97
817.383	145.58
817.561	147.62
817.74	149.67
817.918	116.9
818.097	225.45
818.275	198.82
818.453	141.48
818.632	166.06
818.81	235.69
818.988	123.05
819.167	223.4
819.345	125.1
819.523	184.49
819.701	127.14
819.879	125.1
820.058	182.44
820.236	176.3
820.414	159.91
820.592	182.44
820.77	202.92
820.948	180.39
821.127	149.67
821.305	166.06
821.483	190.63
821.661	174.25
821.839	135.34
822.017	204.97
822.195	114.86
822.373	215.21
822.551	157.86
822.729	178.34
822.907	184.49
823.085	114.86
823.262	188.58
823.44	22.7
823.618	127.14
823.796	125.1
823.974	159.91
824.152	110.76
824.329	96.43
824.507	143.53
824.685	86.19
824.863	176.3
825.04	186.54
825.218	127.14
825.396	223.4
825.574	118.95
825.751	75.95
825.929	143.53
826.107	80.04
826.284	161.96
826.462	137.38
826.639	153.77
826.817	164.01
826.994	127.14
827.172	45.23
827.349	215.21
827.527	182.44
827.704	149.67
827.882	137.38
828.059	131.24
828.237	118.95
828.414	159.91
828.591	88.23
828.769	145.58
828.946	53.42
829.124	82.09
829.301	96.43
829.478	145.58
829.655	104.62
829.833	116.9
830.01	90.28
830.187	96.43
830.364	151.72
830.542	164.01
830.719	112.81
830.896	166.06
831.073	141.48
831.25	24.75
831.427	57.51
831.604	145.58
831.782	73.9
831.959	137.38
832.136	55.47
832.313	174.25
832.49	63.66
832.667	141.48
832.844	82.09
833.021	123.05
833.198	110.76
833.374	37.03
833.551	129.19
833.728	92.33
833.905	75.95
834.082	39.08
834.259	90.28
834.436	143.53
834.612	133.29
834.789	94.38
834.966	49.32
835.143	86.19
835.319	94.38
835.496	176.3
835.673	71.85
835.85	149.67
836.026	157.86
836.203	170.15
836.38	43.18
836.556	80.04
836.733	65.71
836.909	192.68
837.086	39.08
837.262	80.04
837.439	88.23
837.616	63.66
837.792	88.23
837.968	71.85
838.145	41.13
838.321	51.37
838.498	90.28
838.674	121
838.851	69.8
839.027	53.42
839.203	80.04
839.38	104.62
839.556	22.7
839.732	88.23
839.909	49.32
840.085	92.33
840.261	112.81
840.437	82.09
840.614	0.17
840.79	75.95
840.966	75.95
841.142	73.9
841.318	84.14
841.494	88.23
841.671	116.9
841.847	67.75
842.023	51.37
842.199	82.09
842.375	32.94
842.551	43.18
842.727	80.04
842.903	112.81
843.079	20.65
843.255	125.1
843.431	47.27
843.607	49.32
843.783	73.9
843.959	121
844.134	34.99
844.31	63.66
844.486	26.79
844.662	39.08
844.838	10.41
845.013	143.53
845.189	61.61
845.365	55.47
845.541	112.81
845.716	6.31
845.892	63.66
846.068	-1.88
846.244	-20.31
846.419	77.99
846.595	32.94
846.77	34.99
846.946	71.85
847.122	80.04
847.297	86.19
847.473	75.95
847.648	73.9
847.824	104.62
847.999	65.71
848.175	53.42
848.35	75.95
848.526	108.71
848.701	90.28
848.876	110.76
849.052	39.08
849.227	12.46
849.403	100.52
849.578	20.65
849.753	-28.5
849.929	67.75
850.104	14.51
850.279	127.14
850.454	121
850.63	69.8
850.805	88.23
850.98	82.09
851.155	65.71
851.33	75.95
851.505	32.94
851.681	39.08
851.856	32.94
852.031	53.42
852.206	96.43
852.381	-22.36
852.556	127.14
852.731	49.32
852.906	67.75
853.081	82.09
853.256	2.22
853.431	88.23
853.606	-1.88
853.781	-8.02
853.956	-18.26
854.131	45.23
854.305	12.46
854.48	55.47
854.655	-5.97
854.83	-30.55
855.005	45.23
855.18	94.38
855.354	30.89
855.529	55.47
855.704	-16.21
855.879	30.89
856.053	16.55
856.228	86.19
856.403	47.27
856.577	4.27
856.752	-48.98
856.926	-12.12
857.101	57.51
857.276	12.46
857.45	-5.97
857.625	100.52
857.799	-18.26
857.974	41.13
858.148	10.41
858.323	55.47
858.497	65.71
858.672	51.37
858.846	-28.5
859.02	73.9
859.195	28.84
859.369	55.47
859.543	26.79
859.718	10.41
859.892	2.22
860.066	49.32
860.241	2.22
860.415	2.22
860.589	34.99
860.763	41.13
860.938	20.65
861.112	10.41
861.286	-20.31
861.46	96.43
861.634	-8.02
861.808	108.71
861.982	12.46
862.157	82.09
862.331	-55.12
862.505	69.8
862.679	-14.17
862.853	-28.5
863.027	55.47
863.201	92.33
863.375	-30.55
863.549	28.84
863.722	71.85
863.896	55.47
864.07	14.51
864.244	6.31
864.418	39.08
864.592	2.22
864.766	51.37
864.939	2.22
865.113	30.89
865.287	14.51
865.461	-22.36
865.634	-5.97
865.808	-32.6
865.982	63.66
866.156	10.41
866.329	2.22
866.503	24.75
866.676	41.13
866.85	86.19
867.024	2.22
867.197	143.53
867.371	34.99
867.544	55.47
867.718	26.79
867.891	55.47
868.065	-14.17
868.238	77.99
868.412	18.6
868.585	24.75
868.759	-1.88
868.932	37.03
869.105	-3.93
869.279	8.36
869.452	16.55
869.625	53.42
869.799	18.6
869.972	92.33
870.145	-42.84
870.319	-16.21
870.492	-32.6
870.665	-18.26
870.838	51.37
871.011	-63.32
871.185	47.27
871.358	-40.79
871.531	-12.12
871.704	8.36
871.877	24.75
872.05	43.18
872.223	14.51
872.396	28.84
872.569	41.13
872.742	28.84
872.915	-5.97
873.088	-1.88
873.261	-34.64
873.434	2.22
873.607	47.27
873.78	24.75
873.953	-8.02
874.126	30.89
874.299	10.41
874.471	14.51
874.644	82.09
874.817	30.89
874.99	26.79
875.163	4.27
875.335	30.89
875.508	-40.79
875.681	86.19
875.853	0.17
876.026	-30.55
876.199	0.17
876.371	0.17
876.544	-59.22
876.717	53.42
876.889	12.46
877.062	-5.97
877.234	32.94
877.407	-69.46
877.579	-12.12
877.752	-16.21
877.924	80.04
878.097	51.37
878.269	16.55
878.442	75.95
878.614	30.89
878.786	73.9
878.959	8.36
879.131	75.95
879.303	-36.69
879.476	20.65
879.648	53.42
879.82	84.14
879.993	-1.88
880.165	37.03
880.337	-34.64
880.509	84.14
880.681	37.03
880.854	-3.93
881.026	4.27
881.198	102.57
881.37	-55.12
881.542	16.55
881.714	-12.12
881.886	-28.5
882.058	-8.02
882.23	61.61
882.402	39.08
882.574	-24.4
882.746	-22.36
882.918	49.32
883.09	45.23
883.262	47.27
883.434	6.31
883.606	-61.27
883.778	-3.93
883.95	45.23
884.122	-40.79
884.293	102.57
884.465	-32.6
884.637	88.23
884.809	-1.88
884.98	77.99
885.152	34.99
885.324	-46.93
885.496	-12.12
885.667	-32.6
885.839	10.41
886.011	34.99
886.182	-12.12
886.354	61.61
886.525	63.66
886.697	45.23
886.869	4.27
887.04	20.65
887.212	34.99
887.383	77.99
887.555	51.37
887.726	-42.84
887.897	-18.26
888.069	32.94
888.24	37.03
888.412	45.23
888.583	-30.55
888.754	71.85
888.926	-12.12
889.097	-53.08
889.268	16.55
889.44	-18.26
889.611	-44.88
889.782	75.95
889.953	12.46
890.125	45.23
890.296	16.55
890.467	-8.02
890.638	-22.36
890.809	-12.12
890.98	-12.12
891.151	6.31
891.323	63.66
891.494	-24.4
891.665	34.99
891.836	-28.5
892.007	47.27
892.178	18.6
892.349	39.08
892.52	-38.74
892.691	20.65
892.862	16.55
893.032	-18.26
893.203	30.89
893.374	-46.93
893.545	98.47
893.716	-42.84
893.887	32.94
894.057	-96.08
894.228	-79.7
894.399	-18.26
894.57	10.41
894.74	47.27
894.911	16.55
895.082	-28.5
895.253	-73.56
895.423	-8.02
895.594	75.95
895.764	73.9
895.935	12.46
896.106	-22.36
896.276	59.56
896.447	92.33
896.617	4.27
896.788	-38.74
896.958	12.46
897.129	-38.74
897.299	30.89
897.47	-34.64
897.64	59.56
897.81	26.79
897.981	43.18
898.151	-48.98
898.322	20.65
898.492	10.41
898.662	-48.98
898.832	-94.04
899.003	39.08
899.173	57.51
899.343	-38.74
899.513	-36.69
