Data from USB4F104151__35__12-41-19-104.txt Node

Date: Fri Mar 14 12:41:19 EDT 2025
User: louis
Spectrometer: USB4F10415
Trigger mode: 4
Integration Time (sec): 3.000000E-2
Scans to average: 1
Electric dark correction enabled: true
Nonlinearity correction enabled: false
Boxcar width: 0
XAxis mode: Wavelengths
Number of Pixels in Spectrum: 3648
>>>>>Begin Spectral Data<<<<<
178.204	-183.29
178.424	-183.29
178.644	-183.29
178.864	-111.61
179.084	-156.67
179.304	-44.03
179.524	-7.17
179.744	-27.65
179.964	52.22
180.184	-1.02
180.404	56.32
180.624	15.36
180.844	-39.94
181.064	-39.94
181.283	19.46
181.503	56.32
181.723	-39.94
181.943	-66.56
182.163	72.7
182.383	19.46
182.602	11.26
182.822	7.17
183.042	-39.94
183.262	39.94
183.482	15.36
183.701	31.74
183.921	-46.08
184.141	17.41
184.361	9.22
184.58	31.74
184.8	37.89
185.02	-41.98
185.239	107.52
185.459	1.02
185.679	-11.26
185.898	-5.12
186.118	35.84
186.338	-11.26
186.557	46.08
186.777	9.22
186.997	101.37
187.216	11.26
187.436	97.28
187.655	72.7
187.875	46.08
188.095	44.03
188.314	72.7
188.534	103.42
188.753	21.5
188.973	50.18
189.192	58.37
189.412	15.36
189.631	41.98
189.851	64.51
190.07	15.36
190.29	-11.26
190.509	44.03
190.729	44.03
190.948	82.94
191.168	107.52
191.387	54.27
191.607	46.08
191.826	33.79
192.045	1.02
192.265	107.52
192.484	3.07
192.704	54.27
192.923	21.5
193.142	27.65
193.362	37.89
193.581	99.33
193.8	48.13
194.02	117.76
194.239	-7.17
194.458	-9.22
194.678	-37.89
194.897	19.46
195.116	33.79
195.335	103.42
195.555	31.74
195.774	50.18
195.993	84.99
196.212	3.07
196.432	-15.36
196.651	70.65
196.87	52.22
197.089	87.04
197.308	3.07
197.528	3.07
197.747	-15.36
197.966	17.41
198.185	97.28
198.404	54.27
198.623	35.84
198.842	103.42
199.062	103.42
199.281	52.22
199.5	52.22
199.719	-50.18
199.938	60.42
200.157	60.42
200.376	23.55
200.595	27.65
200.814	1.02
201.033	17.41
201.252	-21.5
201.471	107.52
201.69	78.85
201.909	70.65
202.128	54.27
202.347	33.79
202.566	68.61
202.785	9.22
203.004	7.17
203.223	29.7
203.442	27.65
203.661	21.5
203.879	1.02
204.098	95.23
204.317	7.17
204.536	25.6
204.755	39.94
204.974	99.33
205.193	39.94
205.411	113.66
205.63	87.04
205.849	-15.36
206.068	37.89
206.287	-1.02
206.505	52.22
206.724	-9.22
206.943	66.56
207.162	-11.26
207.381	9.22
207.599	78.85
207.818	33.79
208.037	25.6
208.255	9.22
208.474	23.55
208.693	95.23
208.911	29.7
209.13	-5.12
209.349	66.56
209.567	-11.26
209.786	128
210.005	58.37
210.223	1.02
210.442	27.65
210.661	46.08
210.879	-50.18
211.098	74.75
211.316	13.31
211.535	46.08
211.753	82.94
211.972	13.31
212.191	44.03
212.409	48.13
212.628	48.13
212.846	21.5
213.065	37.89
213.283	78.85
213.502	31.74
213.72	-7.17
213.938	46.08
214.157	48.13
214.375	1.02
214.594	62.46
214.812	82.94
215.031	-5.12
215.249	-5.12
215.467	37.89
215.686	41.98
215.904	154.62
216.122	21.5
216.341	103.42
216.559	91.13
216.778	46.08
216.996	62.46
217.214	29.7
217.432	62.46
217.651	-21.5
217.869	17.41
218.087	-25.6
218.306	-46.08
218.524	56.32
218.742	64.51
218.96	82.94
219.179	-17.41
219.397	21.5
219.615	58.37
219.833	64.51
220.051	-21.5
220.27	78.85
220.488	-37.89
220.706	64.51
220.924	19.46
221.142	-21.5
221.36	56.32
221.578	-7.17
221.796	21.5
222.015	23.55
222.233	11.26
222.451	54.27
222.669	21.5
222.887	15.36
223.105	-3.07
223.323	21.5
223.541	21.5
223.759	9.22
223.977	33.79
224.195	54.27
224.413	41.98
224.631	19.46
224.849	35.84
225.067	80.89
225.285	-1.02
225.503	-29.7
225.721	-29.7
225.939	48.13
226.157	-54.27
226.375	111.61
226.592	13.31
226.81	31.74
227.028	35.84
227.246	125.95
227.464	87.04
227.682	21.5
227.9	99.33
228.117	68.61
228.335	35.84
228.553	44.03
228.771	17.41
228.989	17.41
229.206	27.65
229.424	-46.08
229.642	-5.12
229.86	39.94
230.077	70.65
230.295	72.7
230.513	60.42
230.731	19.46
230.948	62.46
231.166	117.76
231.384	-5.12
231.601	35.84
231.819	15.36
232.037	52.22
232.254	21.5
232.472	-7.17
232.689	-13.31
232.907	31.74
233.125	68.61
233.342	-23.55
233.56	17.41
233.777	-35.84
233.995	19.46
234.213	39.94
234.43	7.17
234.648	15.36
234.865	-46.08
235.083	93.18
235.3	3.07
235.518	23.55
235.735	87.04
235.953	54.27
236.17	-33.79
236.388	11.26
236.605	-25.6
236.822	89.09
237.04	87.04
237.257	-11.26
237.475	39.94
237.692	105.47
237.909	3.07
238.127	60.42
238.344	11.26
238.562	46.08
238.779	-70.65
238.996	31.74
239.214	44.03
239.431	68.61
239.648	1.02
239.865	17.41
240.083	37.89
240.3	-25.6
240.517	-9.22
240.735	7.17
240.952	19.46
241.169	82.94
241.386	-3.07
241.603	15.36
241.821	29.7
242.038	74.75
242.255	21.5
242.472	1.02
242.689	68.61
242.907	33.79
243.124	-35.84
243.341	-37.89
243.558	-19.46
243.775	60.42
243.992	-7.17
244.209	48.13
244.426	115.71
244.643	130.05
244.86	-31.74
245.078	68.61
245.295	1.02
245.512	84.99
245.729	-60.42
245.946	56.32
246.163	9.22
246.38	82.94
246.597	-23.55
246.814	39.94
247.031	66.56
247.248	5.12
247.464	17.41
247.681	35.84
247.898	21.5
248.115	41.98
248.332	13.31
248.549	109.57
248.766	74.75
248.983	50.18
249.2	-5.12
249.417	70.65
249.633	21.5
249.85	15.36
250.067	13.31
250.284	95.23
250.501	9.22
250.717	80.89
250.934	1.02
251.151	23.55
251.368	-17.41
251.585	68.61
251.801	27.65
252.018	29.7
252.235	21.5
252.451	-33.79
252.668	46.08
252.885	33.79
253.102	70.65
253.318	87.04
253.535	-1.02
253.752	17.41
253.968	-23.55
254.185	5.12
254.401	-37.89
254.618	21.5
254.835	17.41
255.051	74.75
255.268	9.22
255.484	64.51
255.701	21.5
255.917	91.13
256.134	5.12
256.351	27.65
256.567	31.74
256.784	50.18
257	-74.75
257.217	87.04
257.433	-7.17
257.65	87.04
257.866	66.56
258.082	62.46
258.299	-54.27
258.515	15.36
258.732	52.22
258.948	31.74
259.165	33.79
259.381	132.09
259.597	39.94
259.814	5.12
260.03	7.17
260.246	29.7
260.463	-25.6
260.679	56.32
260.895	54.27
261.112	48.13
261.328	19.46
261.544	11.26
261.761	142.33
261.977	15.36
262.193	-56.32
262.409	7.17
262.626	46.08
262.842	7.17
263.058	-7.17
263.274	80.89
263.49	31.74
263.707	17.41
263.923	91.13
264.139	-19.46
264.355	35.84
264.571	64.51
264.787	-15.36
265.004	107.52
265.22	74.75
265.436	29.7
265.652	-62.46
265.868	-3.07
266.084	-35.84
266.3	54.27
266.516	-27.65
266.732	29.7
266.948	9.22
267.164	-21.5
267.38	5.12
267.596	35.84
267.812	91.13
268.028	46.08
268.244	-3.07
268.46	-29.7
268.676	13.31
268.892	119.81
269.108	-25.6
269.324	29.7
269.54	72.7
269.756	101.37
269.972	35.84
270.188	13.31
270.403	60.42
270.619	84.99
270.835	60.42
271.051	80.89
271.267	15.36
271.483	56.32
271.698	-7.17
271.914	-3.07
272.13	84.99
272.346	-27.65
272.562	70.65
272.777	-1.02
272.993	25.6
273.209	-95.23
273.425	72.7
273.64	-27.65
273.856	31.74
274.072	93.18
274.287	21.5
274.503	91.13
274.719	64.51
274.934	64.51
275.15	-31.74
275.366	27.65
275.581	-58.37
275.797	3.07
276.012	-44.03
276.228	78.85
276.444	25.6
276.659	54.27
276.875	-64.51
277.09	89.09
277.306	17.41
277.521	58.37
277.737	54.27
277.952	-3.07
278.168	15.36
278.383	48.13
278.599	7.17
278.814	82.94
279.03	48.13
279.245	39.94
279.461	-15.36
279.676	93.18
279.892	-13.31
280.107	-23.55
280.322	7.17
280.538	37.89
280.753	-64.51
280.969	99.33
281.184	33.79
281.399	62.46
281.615	-17.41
281.83	-31.74
282.045	-48.13
282.26	15.36
282.476	31.74
282.691	93.18
282.906	23.55
283.122	-1.02
283.337	25.6
283.552	70.65
283.767	37.89
283.983	-15.36
284.198	54.27
284.413	33.79
284.628	-41.98
284.843	33.79
285.058	21.5
285.274	44.03
285.489	-29.7
285.704	23.55
285.919	52.22
286.134	-1.02
286.349	9.22
286.564	23.55
286.779	82.94
286.995	44.03
287.21	-31.74
287.425	5.12
287.64	35.84
287.855	93.18
288.07	37.89
288.285	76.8
288.5	70.65
288.715	-37.89
288.93	-7.17
289.145	56.32
289.36	111.61
289.575	21.5
289.79	33.79
290.004	17.41
290.219	68.61
290.434	23.55
290.649	-3.07
290.864	7.17
291.079	-7.17
291.294	74.75
291.509	-15.36
291.724	46.08
291.938	68.61
292.153	-17.41
292.368	-21.5
292.583	107.52
292.798	-1.02
293.012	41.98
293.227	70.65
293.442	11.26
293.657	19.46
293.871	134.14
294.086	56.32
294.301	80.89
294.516	103.42
294.73	35.84
294.945	-1.02
295.16	5.12
295.374	121.85
295.589	54.27
295.804	-54.27
296.018	7.17
296.233	76.8
296.447	48.13
296.662	-3.07
296.877	68.61
297.091	48.13
297.306	13.31
297.52	101.37
297.735	-29.7
297.949	7.17
298.164	64.51
298.378	50.18
298.593	1.02
298.807	-5.12
299.022	-27.65
299.236	76.8
299.451	17.41
299.665	44.03
299.88	1.02
300.094	31.74
300.309	7.17
300.523	21.5
300.737	-39.94
300.952	101.37
301.166	15.36
301.381	25.6
301.595	-23.55
301.809	41.98
302.024	39.94
302.238	-52.22
302.452	70.65
302.667	-17.41
302.881	13.31
303.095	109.57
303.309	-54.27
303.524	-46.08
303.738	7.17
303.952	27.65
304.166	146.43
304.381	39.94
304.595	50.18
304.809	37.89
305.023	91.13
305.237	31.74
305.452	115.71
305.666	78.85
305.88	25.6
306.094	52.22
306.308	21.5
306.522	91.13
306.736	5.12
306.95	-7.17
307.164	-19.46
307.379	56.32
307.593	117.76
307.807	44.03
308.021	60.42
308.235	39.94
308.449	3.07
308.663	46.08
308.877	121.85
309.091	158.72
309.305	11.26
309.519	-1.02
309.733	9.22
309.947	-15.36
310.161	72.7
310.374	15.36
310.588	82.94
310.802	68.61
311.016	23.55
311.23	62.46
311.444	-25.6
311.658	-3.07
311.872	-5.12
312.085	41.98
312.299	87.04
312.513	54.27
312.727	33.79
312.941	29.7
313.154	-21.5
313.368	70.65
313.582	62.46
313.796	39.94
314.009	54.27
314.223	111.61
314.437	58.37
314.651	50.18
314.864	11.26
315.078	33.79
315.292	3.07
315.505	-39.94
315.719	29.7
315.933	21.5
316.146	41.98
316.36	-25.6
316.573	50.18
316.787	37.89
317.001	7.17
317.214	35.84
317.428	17.41
317.641	25.6
317.855	19.46
318.068	33.79
318.282	44.03
318.495	82.94
318.709	76.8
318.922	-11.26
319.136	50.18
319.349	50.18
319.563	39.94
319.776	17.41
319.99	-1.02
320.203	-27.65
320.417	76.8
320.63	41.98
320.843	115.71
321.057	37.89
321.27	17.41
321.483	48.13
321.697	56.32
321.91	35.84
322.124	68.61
322.337	78.85
322.55	-60.42
322.763	48.13
322.977	29.7
323.19	13.31
323.403	-66.56
323.617	117.76
323.83	107.52
324.043	-37.89
324.256	89.09
324.469	-41.98
324.683	148.48
324.896	27.65
325.109	5.12
325.322	3.07
325.535	48.13
325.748	121.85
325.962	72.7
326.175	41.98
326.388	74.75
326.601	48.13
326.814	37.89
327.027	17.41
327.24	46.08
327.453	-21.5
327.666	44.03
327.879	80.89
328.092	66.56
328.305	103.42
328.518	-35.84
328.731	-29.7
328.944	-50.18
329.157	7.17
329.37	31.74
329.583	70.65
329.796	25.6
330.009	19.46
330.222	62.46
330.435	5.12
330.648	17.41
330.861	11.26
331.073	11.26
331.286	76.8
331.499	-17.41
331.712	5.12
331.925	44.03
332.138	87.04
332.35	113.66
332.563	-7.17
332.776	89.09
332.989	-5.12
333.202	-39.94
333.414	37.89
333.627	41.98
333.84	33.79
334.053	60.42
334.265	31.74
334.478	44.03
334.691	11.26
334.903	11.26
335.116	-21.5
335.329	19.46
335.541	3.07
335.754	62.46
335.966	62.46
336.179	93.18
336.392	11.26
336.604	35.84
336.817	27.65
337.029	68.61
337.242	-1.02
337.454	89.09
337.667	154.62
337.88	33.79
338.092	19.46
338.305	72.7
338.517	-29.7
338.729	52.22
338.942	1.02
339.154	-15.36
339.367	-9.22
339.579	46.08
339.792	66.56
340.004	101.37
340.217	21.5
340.429	80.89
340.641	-1.02
340.854	-48.13
341.066	3.07
341.278	72.7
341.491	50.18
341.703	29.7
341.915	-19.46
342.128	19.46
342.34	113.66
342.552	76.8
342.764	91.13
342.977	111.61
343.189	-19.46
343.401	62.46
343.613	37.89
343.826	52.22
344.038	27.65
344.25	23.55
344.462	-5.12
344.674	76.8
344.886	17.41
345.099	21.5
345.311	123.9
345.523	27.65
345.735	-29.7
345.947	-9.22
346.159	146.43
346.371	31.74
346.583	50.18
346.795	44.03
347.007	48.13
347.219	21.5
347.431	29.7
347.643	70.65
347.855	107.52
348.067	70.65
348.279	11.26
348.491	29.7
348.703	136.19
348.915	-25.6
349.127	-15.36
349.339	29.7
349.551	-52.22
349.763	68.61
349.975	46.08
350.187	87.04
350.399	-7.17
350.61	29.7
350.822	60.42
351.034	54.27
351.246	-3.07
351.458	-7.17
351.669	84.99
351.881	93.18
352.093	58.37
352.305	76.8
352.517	-23.55
352.728	91.13
352.94	50.18
353.152	-23.55
353.363	44.03
353.575	54.27
353.787	62.46
353.999	78.85
354.21	78.85
354.422	72.7
354.633	-15.36
354.845	87.04
355.057	-13.31
355.268	41.98
355.48	62.46
355.692	7.17
355.903	60.42
356.115	-52.22
356.326	21.5
356.538	21.5
356.749	78.85
356.961	56.32
357.172	25.6
357.384	39.94
357.595	160.77
357.807	70.65
358.018	17.41
358.23	33.79
358.441	58.37
358.653	76.8
358.864	50.18
359.075	19.46
359.287	25.6
359.498	64.51
359.709	87.04
359.921	21.5
360.132	-3.07
360.344	19.46
360.555	-13.31
360.766	-35.84
360.977	95.23
361.189	76.8
361.4	125.95
361.611	41.98
361.823	15.36
362.034	17.41
362.245	3.07
362.456	93.18
362.667	80.89
362.879	60.42
363.09	54.27
363.301	113.66
363.512	-33.79
363.723	-17.41
363.935	64.51
364.146	11.26
364.357	66.56
364.568	58.37
364.779	78.85
364.99	56.32
365.201	9.22
365.412	70.65
365.623	23.55
365.834	76.8
366.045	46.08
366.256	44.03
366.467	7.17
366.678	29.7
366.889	21.5
367.1	9.22
367.311	15.36
367.522	31.74
367.733	56.32
367.944	21.5
368.155	-46.08
368.366	46.08
368.577	-11.26
368.788	158.72
368.999	52.22
369.209	87.04
369.42	93.18
369.631	138.24
369.842	50.18
370.053	27.65
370.264	31.74
370.474	-5.12
370.685	105.47
370.896	54.27
371.107	84.99
371.317	123.9
371.528	128
371.739	58.37
371.95	19.46
372.16	52.22
372.371	9.22
372.582	13.31
372.792	48.13
373.003	58.37
373.214	-37.89
373.424	37.89
373.635	35.84
373.846	130.05
374.056	56.32
374.267	44.03
374.477	60.42
374.688	7.17
374.898	48.13
375.109	132.09
375.319	93.18
375.53	107.52
375.74	9.22
375.951	21.5
376.161	91.13
376.372	60.42
376.582	39.94
376.793	39.94
377.003	35.84
377.214	72.7
377.424	84.99
377.635	107.52
377.845	80.89
378.055	39.94
378.266	11.26
378.476	54.27
378.686	72.7
378.897	76.8
379.107	91.13
379.317	-1.02
379.528	19.46
379.738	91.13
379.948	5.12
380.158	89.09
380.369	54.27
380.579	58.37
380.789	68.61
380.999	72.7
381.21	-5.12
381.42	82.94
381.63	64.51
381.84	44.03
382.05	76.8
382.261	80.89
382.471	58.37
382.681	46.08
382.891	105.47
383.101	50.18
383.311	1.02
383.521	62.46
383.731	31.74
383.941	103.42
384.151	101.37
384.361	101.37
384.571	48.13
384.781	103.42
384.991	105.47
385.201	103.42
385.411	31.74
385.621	74.75
385.831	52.22
386.041	29.7
386.251	56.32
386.461	82.94
386.671	9.22
386.881	158.72
387.091	35.84
387.301	82.94
387.511	115.71
387.72	87.04
387.93	31.74
388.14	-33.79
388.35	25.6
388.56	148.48
388.769	62.46
388.979	64.51
389.189	44.03
389.399	46.08
389.609	95.23
389.818	117.76
390.028	115.71
390.238	58.37
390.447	33.79
390.657	82.94
390.867	48.13
391.076	48.13
391.286	89.09
391.496	70.65
391.705	87.04
391.915	115.71
392.125	35.84
392.334	-5.12
392.544	35.84
392.753	123.9
392.963	7.17
393.172	70.65
393.382	78.85
393.591	146.43
393.801	48.13
394.01	105.47
394.22	33.79
394.429	121.85
394.639	39.94
394.848	62.46
395.058	87.04
395.267	52.22
395.477	80.89
395.686	115.71
395.895	80.89
396.105	74.75
396.314	60.42
396.524	142.33
396.733	48.13
396.942	132.09
397.152	56.32
397.361	130.05
397.57	97.28
397.78	93.18
397.989	101.37
398.198	150.53
398.407	91.13
398.617	84.99
398.826	97.28
399.035	107.52
399.244	166.91
399.453	152.57
399.663	107.52
399.872	115.71
400.081	105.47
400.29	156.67
400.499	136.19
400.708	136.19
400.917	95.23
401.127	121.85
401.336	99.33
401.545	119.81
401.754	91.13
401.963	261.12
402.172	111.61
402.381	66.56
402.59	119.81
402.799	123.9
403.008	146.43
403.217	99.33
403.426	132.09
403.635	140.29
403.844	154.62
404.053	111.61
404.262	76.8
404.471	230.4
404.68	162.81
404.888	168.96
405.097	152.57
405.306	183.29
405.515	189.44
405.724	138.24
405.933	205.82
406.142	240.64
406.35	254.97
406.559	228.35
406.768	156.67
406.977	130.05
407.185	209.92
407.394	189.44
407.603	220.16
407.812	193.53
408.02	267.26
408.229	187.39
408.438	220.16
408.646	183.29
408.855	275.45
409.064	216.06
409.272	203.77
409.481	273.4
409.69	330.75
409.898	283.64
410.107	254.97
410.315	240.64
410.524	312.32
410.733	334.84
410.941	355.32
411.15	398.33
411.358	369.66
411.567	404.47
411.775	437.24
411.984	394.23
412.192	449.53
412.401	418.81
412.609	527.35
412.818	553.98
413.026	510.97
413.234	525.3
413.443	525.3
413.651	533.5
413.86	668.66
414.068	658.42
414.276	619.51
414.485	607.22
414.693	685.05
414.901	695.29
415.11	754.68
415.318	734.2
415.526	750.58
415.734	783.35
415.943	762.87
416.151	818.16
416.359	932.85
416.567	883.7
416.776	883.7
416.984	984.05
417.192	1031.15
417.4	1006.58
417.608	1063.92
417.817	1012.72
418.025	1125.36
418.233	1145.84
418.441	1113.07
418.649	1227.76
418.857	1348.59
419.065	1233.9
419.273	1317.87
419.481	1537
419.689	1561.58
419.897	1682.41
420.105	1569.77
420.313	1682.41
420.521	1725.41
420.729	1596.39
420.937	1858.53
421.145	1862.63
421.353	1973.22
421.561	1909.73
421.769	2028.51
421.977	2225.12
422.185	2227.17
422.393	2208.73
422.601	2397.15
422.809	2397.15
423.017	2456.54
423.224	2505.69
423.432	2517.98
423.64	2634.71
423.848	2853.84
424.056	2892.76
424.263	3070.93
424.471	3032.02
424.679	3040.21
424.887	3322.83
425.094	3290.06
425.302	3433.42
425.51	3505.1
425.718	3529.67
425.925	3595.21
426.133	3707.85
426.341	3929.03
426.548	4160.45
426.756	4111.3
426.964	4209.6
427.171	4373.44
427.379	4441.02
427.586	4692.92
427.794	4764.6
428.001	4957.11
428.209	5061.55
428.417	5213.1
428.624	5450.67
428.832	5385.13
429.039	5393.33
429.247	5387.18
429.454	5919.65
429.662	6374.3
429.869	5819.3
430.076	6505.37
430.284	6038.44
430.491	6450.08
430.699	6851.48
430.906	6714.27
431.114	6986.65
431.321	7093.14
431.528	7183.25
431.736	7822.22
431.943	8139.65
432.15	7988.1
432.358	7816.07
432.565	8545.15
432.772	8420.22
432.979	8983.41
433.187	9012.09
433.394	8885.11
433.601	9583.47
433.808	9698.16
434.016	9614.19
434.223	9993.06
434.43	10494.82
434.637	10380.13
434.844	11062.1
435.052	11182.93
435.259	11137.88
435.466	11141.97
435.673	11346.77
435.88	12055.37
436.087	12686.14
436.294	12616.51
436.501	12254.02
436.708	12231.49
436.915	12845.88
437.122	13505.33
437.329	13351.73
437.537	13730.61
437.743	14144.3
437.95	14007.08
438.157	14674.72
438.364	14983.96
438.571	15201.05
438.778	15248.15
438.985	16675.59
439.192	15887.12
439.399	16397.06
439.606	16173.83
439.813	17117.95
440.02	18389.74
440.227	17937.13
440.433	17455.86
440.64	18297.58
440.847	18119.4
441.054	18717.41
441.261	19485.4
441.467	19485.4
441.674	19561.17
441.881	20540.1
442.088	20740.8
442.294	20368.07
442.501	21007.04
442.708	21117.63
442.914	22078.13
443.121	23198.37
443.328	22407.85
443.534	24085.14
443.741	23585.43
443.948	22995.62
444.154	24842.88
444.361	24447.63
444.568	24513.16
444.774	24896.13
444.981	25141.89
445.187	25602.68
445.394	26464.88
445.6	26554.99
445.807	29078.08
446.013	27826.78
446.22	28666.44
446.426	29243.97
446.633	29751.87
446.839	30482.99
447.046	29418.05
447.252	31248.93
447.459	31234.6
447.665	30808.62
447.871	32393.75
448.078	33624.57
448.284	31869.47
448.491	32981.51
448.697	34335.22
448.903	34673.13
449.11	34879.98
449.316	34466.29
449.522	35033.58
449.728	36075.99
449.935	36389.33
450.141	35987.93
450.347	36989.39
450.553	35989.98
450.76	36307.41
450.966	37802.43
451.172	37065.16
451.378	38238.65
451.584	37380.55
451.791	38261.18
451.997	37847.49
452.203	38918.57
452.409	38820.27
452.615	38506.93
452.821	37509.57
453.027	36846.03
453.233	38572.47
453.44	37181.9
453.646	38035.9
453.852	37974.46
454.058	38574.52
454.264	37206.47
454.47	37876.16
454.676	36936.14
454.882	38259.13
455.088	35230.18
455.294	35717.6
455.5	35963.36
455.705	36530.64
455.911	34722.29
456.117	34542.06
456.323	33921.53
456.529	32166.42
456.735	33495.55
456.941	32457.23
457.147	32207.38
457.352	31207.97
457.558	30833.19
457.764	31025.7
457.97	30134.84
458.176	29399.62
458.381	29626.94
458.587	28105.3
458.793	28289.62
458.999	26712.68
459.204	28553.8
459.41	27959.89
459.616	26028.66
459.821	26159.73
460.027	26163.82
460.233	25358.97
460.438	24265.36
460.644	24326.8
460.85	23351.96
461.055	22960.8
461.261	22973.09
461.466	21195.45
461.672	20624.07
461.878	21838.51
462.083	20597.45
462.289	20327.11
462.494	20447.94
462.7	19069.66
462.905	18559.72
463.111	19118.81
463.316	19561.17
463.522	19108.57
463.727	18895.58
463.932	18965.21
464.138	18897.63
464.343	18846.43
464.549	18207.47
464.754	18748.13
464.959	18803.43
465.165	18778.85
465.37	17660.66
465.575	17560.31
465.781	18129.64
465.986	18232.04
466.191	17642.23
466.397	16966.4
466.602	16505.6
466.807	16790.27
467.012	16995.07
467.218	16669.44
467.423	16685.83
467.628	16550.66
467.833	17515.25
468.038	17013.5
468.244	16362.25
468.449	17027.84
468.654	16345.86
468.859	16263.94
469.064	16194.31
469.269	15692.56
469.474	15606.55
469.679	16003.85
469.885	15608.59
470.09	15784.72
470.295	15747.86
470.5	15313.69
470.705	15559.44
470.91	14955.29
471.115	14943
471.32	15475.48
471.525	14990.11
471.73	14652.19
471.935	14451.49
472.139	14146.34
472.344	14531.36
472.549	14256.93
472.754	14052.14
472.959	13984.55
473.164	13476.66
473.369	13484.85
473.574	13888.3
473.778	13591.34
473.983	13445.94
474.188	13626.16
474.393	13089.59
474.598	13073.21
474.802	12766.01
475.007	12680
475.212	12839.74
475.417	12313.41
475.621	12278.6
475.826	12346.18
476.031	12223.3
476.235	11823.95
476.44	12100.42
476.645	11860.81
476.849	11924.3
477.054	11856.72
477.259	11570
477.463	11670.35
477.668	11246.42
477.872	11348.82
478.077	11006.81
478.282	10916.7
478.486	10726.24
478.691	10666.85
478.895	10654.56
479.1	10767.2
479.304	10658.65
479.509	10435.42
479.713	10711.9
479.918	10138.47
480.122	9948.01
480.326	10351.46
480.531	10429.28
480.735	10267.49
480.94	10290.02
481.144	10367.84
481.348	9761.64
481.553	9786.22
481.757	10009.45
481.961	10064.74
482.166	10161
482.37	9853.8
482.574	9878.38
482.778	9999.21
482.983	10271.59
483.187	10062.69
483.391	9913.19
483.595	10083.17
483.8	9995.11
484.004	10019.69
484.208	9927.53
484.412	9921.38
484.616	9864.04
484.821	9980.78
485.025	9864.04
485.229	9960.3
485.433	9939.82
485.637	10007.4
485.841	10011.5
486.045	9894.76
486.249	9972.58
486.453	9911.14
486.657	9966.44
486.861	9941.86
487.065	9763.69
487.269	9751.4
487.473	9771.88
487.677	9894.76
487.881	9882.47
488.085	9978.73
488.289	9917.29
488.493	9923.43
488.697	10023.78
488.901	10001.26
489.105	9882.47
489.309	10017.64
489.512	10054.5
489.716	10148.71
489.92	10140.52
490.124	10052.45
490.328	10316.64
490.531	10208.1
490.735	10347.36
490.939	10234.72
491.143	10115.94
491.346	9937.77
491.55	10396.51
491.754	10429.28
491.958	10328.93
492.161	10423.14
492.365	10351.46
492.569	10398.56
492.772	10388.32
492.976	10623.84
493.18	10642.27
493.383	10560.35
493.587	10953.56
493.79	10740.57
493.994	10822.49
494.197	10974.04
494.401	11246.42
494.605	11043.67
494.808	11361.11
495.012	11041.62
495.215	11338.58
495.419	11342.67
495.622	11346.77
495.825	11658.06
496.029	11350.87
496.232	11850.57
496.436	11715.41
496.639	12094.28
496.843	11772.75
497.046	12225.35
497.249	12333.89
497.453	12540.74
497.656	12645.18
497.859	12550.98
498.063	12671.81
498.266	12974.91
498.469	12837.69
498.673	13030.2
498.876	13228.85
499.079	13427.51
499.282	13574.96
499.485	13722.41
499.689	13605.68
499.892	13986.6
500.095	14072.62
500.298	14160.68
500.501	14162.73
500.705	14539.55
500.908	14758.69
501.111	14721.82
501.314	15090.46
501.517	15129.37
501.72	15112.99
501.923	15282.97
502.126	15639.31
502.329	15665.94
502.532	16036.62
502.735	16057.1
502.938	16237.32
503.141	16435.97
503.344	16538.37
503.547	16601.86
503.75	17058.56
503.953	17191.67
504.156	17484.53
504.359	17105.66
504.562	17414.9
504.765	17834.74
504.968	18098.92
505.17	18389.74
505.373	18264.81
505.576	18471.65
505.779	18735.84
505.982	18690.79
506.185	19124.96
506.387	19247.83
506.59	19075.8
506.793	19770.07
506.996	19563.22
507.198	20517.57
507.401	20107.98
507.604	20374.22
507.807	20863.68
508.009	20763.33
508.212	20933.31
508.415	21217.98
508.617	21418.68
508.82	21592.76
509.022	21377.72
509.225	22344.36
509.428	22186.67
509.63	22133.42
509.833	22457
510.035	22936.23
510.238	22764.2
510.44	23130.78
510.643	23515.8
510.845	23802.52
511.048	23493.27
511.25	24042.13
511.453	24269.45
511.655	24838.79
511.858	24660.62
512.06	24754.82
512.262	24883.84
512.465	25062.02
512.667	25277.05
512.87	25647.74
513.072	25555.58
513.274	26155.63
513.477	26503.79
513.679	26735.21
513.881	27011.68
514.084	27144.8
514.286	27333.21
514.488	27447.9
514.69	27986.52
514.893	28136.02
515.095	27937.37
515.297	28641.87
515.499	28918.34
515.701	28770.89
515.904	29002.31
516.106	29301.31
516.308	29483.58
516.51	29780.54
516.712	29934.14
516.914	30364.21
517.116	30382.64
517.318	30607.92
517.52	30720.56
517.722	30757.42
517.925	31175.2
518.127	31875.61
518.329	31703.58
518.531	31621.66
518.733	32438.8
518.935	32234
519.136	32375.31
519.338	32680.46
519.54	33094.15
519.742	33384.96
519.944	33290.76
520.146	33974.78
520.348	34255.35
520.55	33845.76
520.752	34341.36
520.954	34669.04
521.155	34169.33
521.357	34945.51
521.559	35467.75
521.761	35754.46
521.963	35424.74
522.164	35430.88
522.366	35711.46
522.568	36481.49
522.77	36180.44
522.971	36645.33
523.173	36268.5
523.375	36747.73
523.576	36295.13
523.778	36786.64
523.98	37413.32
524.181	37439.94
524.383	37693.89
524.584	37876.16
524.786	37984.7
524.988	37859.77
525.189	38330.81
525.391	38169.02
525.592	38607.28
525.794	38584.76
525.995	38699.44
526.197	38676.91
526.398	38891.95
526.6	39127.47
526.801	39342.5
527.003	39637.41
527.204	39100.84
527.406	39477.67
527.607	39309.74
527.808	40184.22
528.01	39266.73
528.211	39594.4
528.412	40292.76
528.614	39981.47
528.815	40358.3
529.016	40513.94
529.218	40038.81
529.419	40196.51
529.62	40741.27
529.822	40413.59
530.023	40438.17
530.224	40130.97
530.425	40438.17
530.626	40241.56
530.828	40214.94
531.029	41040.27
531.23	40847.76
531.431	40157.6
531.632	40640.92
531.833	40913.3
532.035	40575.38
532.236	40683.92
532.437	40845.71
532.638	40292.76
532.839	40948.11
533.04	40939.92
533.241	40778.13
533.442	41662.85
533.643	40819.09
533.844	40999.31
534.045	40972.69
534.246	40585.62
534.447	41009.55
534.648	41136.52
534.849	40743.31
535.05	40620.44
535.251	41132.43
535.451	40778.13
535.652	40835.47
535.853	41335.18
536.054	41025.93
536.255	40946.06
536.456	40282.52
536.657	41120.14
536.857	40888.72
537.058	40837.52
537.259	41212.3
537.46	41470.34
537.66	40788.37
537.861	41157
538.062	40728.98
538.263	40792.47
538.463	40706.45
538.664	40571.28
538.865	40718.74
539.065	41296.27
539.266	40501.65
539.466	40911.25
539.667	40245.66
539.868	41134.48
540.068	40823.19
540.269	40722.83
540.469	40872.34
540.67	40782.23
540.87	40888.72
541.071	40497.56
541.271	40620.44
541.472	40765.84
541.672	40726.93
541.873	40616.34
542.073	39840.16
542.274	40522.13
542.474	40515.99
542.675	40038.81
542.875	40604.05
543.075	40847.76
543.276	40026.53
543.476	40642.96
543.676	40225.18
543.877	40692.12
544.077	40520.09
544.277	40325.53
544.478	40440.21
544.678	40511.89
544.878	40262.04
545.078	40194.46
545.279	39930.27
545.479	40346.01
545.679	40122.78
545.879	40335.77
546.079	40393.11
546.28	40151.45
546.48	39877.02
546.68	40417.69
546.88	40350.1
547.08	40221.08
547.28	40085.92
547.48	39971.23
547.68	39963.04
547.88	39752.1
548.081	40284.57
548.281	39860.64
548.481	39508.39
548.681	40276.38
548.881	39924.13
549.081	39950.75
549.28	39928.22
549.48	40038.81
549.68	39811.49
549.88	40073.63
550.08	39561.64
550.28	40126.88
550.48	40110.49
550.68	40341.91
550.88	39813.54
551.08	39637.41
551.279	39616.93
551.479	39535.01
551.679	39844.26
551.879	39575.97
552.079	39600.55
552.278	39618.98
552.478	39606.69
552.678	39788.96
552.878	39829.92
553.077	39547.3
553.277	39162.28
553.477	40036.77
553.676	39383.46
553.876	39690.66
554.076	39610.79
554.275	39592.36
554.475	38879.66
554.674	39231.91
554.874	39563.68
555.074	39143.85
555.273	39514.53
555.473	39588.26
555.672	39586.21
555.872	39006.64
556.071	39606.69
556.271	39555.49
556.47	38996.4
556.67	38879.66
556.869	38885.81
557.068	39426.47
557.268	38904.24
557.467	38891.95
557.667	38947.25
557.866	38617.52
558.065	39068.08
558.265	38877.61
558.464	38527.41
558.663	38887.85
558.863	38670.77
559.062	39074.22
559.261	38568.37
559.461	38986.16
559.66	38459.83
559.859	38513.08
560.058	38154.68
560.258	38488.5
560.457	38050.24
560.656	38400.44
560.855	38078.91
561.054	38384.05
561.253	38150.59
561.453	38379.96
561.652	38228.41
561.851	38166.97
562.05	38472.12
562.249	37970.36
562.448	38576.56
562.647	38142.39
562.846	37917.12
563.045	37814.72
563.244	38109.63
563.443	38064.57
563.642	37773.76
563.841	38048.19
564.04	37792.19
564.239	38156.73
564.438	37513.67
564.637	37677.51
564.836	37568.96
565.035	37163.46
565.234	37564.87
565.432	37343.69
565.631	37618.11
565.83	37226.95
566.029	36930
566.228	37106.12
566.427	36833.74
566.625	36905.42
566.824	36432.34
567.023	37175.75
567.222	36573.65
567.42	37067.21
567.619	37233.1
567.818	36397.52
568.016	36966.86
568.215	37112.27
568.414	36549.07
568.612	36719.06
568.811	36655.57
569.01	36671.95
569.208	36413.91
569.407	36843.98
569.605	35901.92
569.804	36952.52
570.002	36123.1
570.201	36184.54
570.4	36014.55
570.598	36375
570.797	35957.21
570.995	35863
571.193	35789.28
571.392	36196.82
571.59	35848.67
571.789	35881.44
571.987	35701.22
572.186	35643.87
572.384	35404.26
572.582	35482.08
572.781	35267.05
572.979	34918.89
573.177	35281.38
573.376	35301.86
573.574	35283.43
573.772	35181.03
573.971	35174.89
574.169	34884.08
574.367	34488.82
574.565	34892.27
574.763	34609.65
574.962	35125.74
575.16	34220.53
575.358	34990.57
575.556	34148.85
575.754	34828.78
575.952	34382.32
576.151	34775.53
576.349	34222.58
576.547	34122.23
576.745	34116.09
576.943	34265.59
577.141	33843.71
577.339	33620.48
577.537	33323.52
577.735	33939.96
577.933	33851.9
578.131	33743.36
578.329	33667.58
578.527	33272.32
578.725	33604.1
578.923	33786.36
579.121	33350.15
579.319	33401.35
579.516	33638.91
579.714	33376.77
579.912	33061.38
580.11	33079.82
580.308	33126.92
580.506	33112.58
580.704	32412.18
580.901	32680.46
581.099	33249.8
581.297	32827.92
581.495	32606.73
581.692	32764.43
581.89	32395.79
582.088	33016.33
582.285	32283.16
582.483	32559.63
582.681	32102.93
582.878	31793.69
583.076	31986.2
583.274	32238.1
583.471	31767.07
583.669	31699.48
583.866	31681.05
584.064	31719.96
584.262	31425.06
584.459	31679
584.657	31193.64
584.854	31390.24
585.052	31191.59
585.249	31250.98
585.447	31466.02
585.644	30843.43
585.841	31232.55
586.039	31027.75
586.236	30843.43
586.434	30593.58
586.631	30657.07
586.828	30585.39
587.026	30558.77
587.223	30593.58
587.42	30286.39
587.618	30292.53
587.815	30001.72
588.012	30216.75
588.21	30048.82
588.407	30327.35
588.604	30063.16
588.801	29510.21
588.999	29856.31
589.196	29626.94
589.393	29831.74
589.59	29411.9
589.787	29354.56
589.984	29569.6
590.182	28867.14
590.379	29133.38
590.576	28990.02
590.773	29254.21
590.97	29231.68
591.167	28932.68
591.364	28527.18
591.561	28680.78
591.758	28541.52
591.955	28826.18
592.152	28848.71
592.349	28455.5
592.546	28582.48
592.743	28498.51
592.94	27914.84
593.137	28365.39
593.334	28387.92
593.531	27824.73
593.727	28115.54
593.924	27845.21
594.121	27804.25
594.318	28054.1
594.515	27374.17
594.712	28086.87
594.908	27271.78
595.105	27802.2
595.302	27085.41
595.499	27636.31
595.696	27284.06
595.892	27241.06
596.089	27144.8
596.286	27107.94
596.482	27312.74
596.679	26790.5
596.876	26944.1
597.072	26833.51
597.269	26333.81
597.466	26497.64
597.662	26499.69
597.859	26255.98
598.055	26024.56
598.252	26108.53
598.448	26118.77
598.645	26102.39
598.841	25588.35
599.038	25940.6
599.234	26108.53
599.431	25559.67
599.627	25588.35
599.824	25920.12
600.02	25608.83
600.217	25567.87
600.413	25377.4
600.609	25381.5
600.806	25117.31
601.002	25287.29
601.198	25121.41
601.395	24982.15
601.591	24713.86
601.787	25111.17
601.984	24586.89
602.18	25309.82
602.376	24748.68
602.572	24736.39
602.769	24658.57
602.965	24275.6
603.161	24781.45
603.357	24212.11
603.553	24173.2
603.75	24273.55
603.946	24304.27
604.142	24167.06
604.338	24021.65
604.534	24058.51
604.73	23796.37
604.926	23679.64
605.122	24029.84
605.318	23665.3
605.514	23687.83
605.71	23370.4
605.906	23485.08
606.102	23605.91
606.298	23470.75
606.494	23634.58
606.69	23657.11
606.886	23179.93
607.082	23120.54
607.278	23085.73
607.474	23046.82
607.67	23249.57
607.866	22737.57
608.062	22971.04
608.257	22854.31
608.453	22823.59
608.649	22743.72
608.845	22725.29
609.041	22686.37
609.236	22694.57
609.432	22702.76
609.628	22473.39
609.824	22647.46
610.019	22506.15
610.215	22409.9
610.411	22518.44
610.606	22409.9
610.802	22432.43
610.998	22340.27
611.193	22373.03
611.389	21992.11
611.584	22151.85
611.78	22299.31
611.976	22334.12
612.171	22129.33
612.367	22141.61
612.562	21846.71
612.758	21793.46
612.953	21748.4
613.149	22090.41
613.344	21654.2
613.539	22100.65
613.735	21676.73
613.93	21672.63
614.126	21703.35
614.321	21402.3
614.517	21592.76
614.712	21680.82
614.907	21244.6
615.103	21877.43
615.298	21408.44
615.493	21574.33
615.688	21211.84
615.884	21586.61
616.079	21123.77
616.274	21217.98
616.47	21115.58
616.665	21181.12
616.86	21164.73
617.055	21199.55
617.25	20839.11
617.445	21119.68
617.641	20570.82
617.836	21091.01
618.031	20562.63
618.226	20804.29
618.421	20601.54
618.616	20691.65
618.811	20540.1
619.006	20853.44
619.201	20212.43
619.396	20392.65
619.591	20257.48
619.786	20429.51
619.981	20245.2
620.176	20179.66
620.371	20001.49
620.566	19841.75
620.761	19868.37
620.956	19837.65
621.151	19577.56
621.346	19706.58
621.541	19630.8
621.735	19522.26
621.93	19221.21
622.125	19202.78
622.32	18875.1
622.515	19178.2
622.709	18676.45
622.904	18721.51
623.099	18719.46
623.294	18604.77
623.488	18383.59
623.683	18744.03
623.878	18211.56
624.072	18365.16
624.267	18406.12
624.462	18227.95
624.656	18152.17
624.851	17867.5
625.046	17648.37
625.24	17691.38
625.435	17646.32
625.629	17797.87
625.824	17507.06
626.018	17580.79
626.213	17042.17
626.407	17228.54
626.602	17017.6
626.796	17208.06
626.991	17138.43
627.185	16831.23
627.38	16669.44
627.574	16599.81
627.768	16458.5
627.963	16364.29
628.157	16188.17
628.352	16472.84
628.546	15864.59
628.74	16202.5
628.935	16014.09
629.129	15997.71
629.323	15635.22
629.517	15700.75
629.712	15713.04
629.906	15725.33
630.1	15252.25
630.294	15364.89
630.489	15342.36
630.683	15242.01
630.877	15088.41
631.071	15024.92
631.265	15127.32
631.459	15131.42
631.653	14824.22
631.848	14801.69
632.042	14635.81
632.236	14707.49
632.43	14318.37
632.624	14555.94
632.818	14377.76
633.012	14287.65
633.206	13992.75
633.4	14218.02
633.594	13990.7
633.788	14301.99
633.982	14041.9
634.176	14138.15
634.369	14041.9
634.563	14019.37
634.757	13777.71
634.951	13802.29
635.145	13511.47
635.339	13675.31
635.533	13536.05
635.726	13429.56
635.92	12974.91
636.114	13171.51
636.308	13212.47
636.501	13288.25
636.695	13044.54
636.889	12993.34
637.083	13017.91
637.276	12829.5
637.47	12786.49
637.664	12798.78
637.857	12585.79
638.051	12731.2
638.244	12559.17
638.438	12553.02
638.632	12346.18
638.825	12368.71
639.019	12313.41
639.212	12135.24
639.406	12213.06
639.599	12139.33
639.793	12352.32
639.986	11959.11
640.18	12192.58
640.373	11965.26
640.567	11711.31
640.76	11649.87
640.954	11748.17
641.147	11623.25
641.34	11381.59
641.534	11662.16
641.727	11563.86
641.92	11414.35
642.114	11352.91
642.307	11266.9
642.5	11348.82
642.694	11266.9
642.887	11021.14
643.08	10898.27
643.273	10941.27
643.467	10947.42
643.66	10763.1
643.853	10804.06
644.046	10576.73
644.239	10709.85
644.432	10722.14
644.626	10476.38
644.819	10679.13
645.012	10482.53
645.205	10496.86
645.398	10277.73
645.591	10085.22
645.784	10392.42
645.977	10171.24
646.17	10226.53
646.363	10083.17
646.556	9958.25
646.749	10179.43
646.942	10146.66
647.135	9913.19
647.328	9927.53
647.521	9878.38
647.714	9735.02
647.907	9864.04
648.099	9585.52
648.292	9739.12
648.485	9636.72
648.678	9458.54
648.871	9472.88
649.064	9403.25
649.256	9313.14
649.449	9257.84
649.642	9382.77
649.835	9075.57
650.027	9128.82
650.22	8977.27
650.413	9134.96
650.605	9223.03
650.798	9030.52
650.991	8840.06
651.183	8960.89
651.376	8758.14
651.568	8848.25
651.761	8862.58
651.954	8819.58
652.146	8719.23
652.339	8475.52
652.531	8541.05
652.724	8485.76
652.916	8387.46
653.109	8438.66
653.301	8491.9
653.494	8309.63
653.686	8379.26
653.879	8369.02
654.071	8272.77
654.263	8203.14
654.456	8383.36
654.648	8115.08
654.84	7887.75
655.033	8045.45
655.225	8067.97
655.417	7990.15
655.61	8065.92
655.802	7900.04
655.994	8029.06
656.186	7910.28
656.379	7725.96
656.571	7816.07
656.763	7658.38
656.955	7504.78
657.148	7656.33
657.34	7474.06
657.532	7584.65
657.724	7304.08
657.916	7287.7
658.108	7580.56
658.3	7412.62
658.492	7308.18
658.684	7078.8
658.876	7330.7
659.068	7125.91
659.26	7091.09
659.452	7355.28
659.644	7351.18
659.836	7105.43
660.028	6947.73
660.22	6853.53
660.412	6949.78
660.604	6912.92
660.796	6900.63
660.988	6919.06
661.18	6826.9
661.372	6656.92
661.563	6929.3
661.755	6421.41
661.947	6880.15
662.139	6761.37
662.331	6577.05
662.522	6628.25
662.714	6708.12
662.906	6503.32
663.097	6478.75
663.289	6347.68
663.481	6276
663.673	6386.59
663.864	6364.06
664.056	6554.52
664.247	6333.34
664.439	6140.83
664.631	6198.18
664.822	6380.45
665.014	6181.79
665.205	6075.3
665.397	5923.75
665.588	5960.61
665.78	6192.03
665.971	6030.24
666.163	5983.14
666.354	6034.34
666.546	5966.76
666.737	5874.6
666.929	5741.48
667.12	5684.14
667.311	5847.97
667.503	5733.29
667.694	5684.14
667.885	5704.62
668.077	5737.38
668.268	5620.65
668.459	5641.13
668.651	5606.31
668.842	5655.47
669.033	5536.68
669.224	5536.68
669.416	5651.37
669.607	5551.02
669.798	5378.99
669.989	5579.69
670.18	5503.92
670.371	5485.48
670.563	5315.5
670.754	5485.48
670.945	5163.95
671.136	5424.05
671.327	5241.78
671.518	5262.26
671.709	5209.01
671.9	5256.11
672.091	5311.41
672.282	5069.75
672.473	5200.82
672.664	5174.19
672.855	5053.36
673.046	5120.95
673.237	4991.92
673.428	5141.43
673.619	5086.13
673.809	4795.32
674	4953.01
674.191	4948.92
674.382	4869.05
674.573	4973.49
674.764	4774.84
674.954	4846.52
675.145	4737.98
675.336	4803.51
675.527	4787.13
675.717	4694.97
675.908	4891.57
676.099	4709.3
676.289	4793.27
676.48	4719.54
676.671	4717.5
676.861	4801.46
677.052	4715.45
677.243	4555.71
677.433	4561.85
677.624	4752.31
677.814	4602.81
678.005	4512.7
678.195	4541.37
678.386	4578.23
678.576	4477.88
678.767	4369.34
678.957	4578.23
679.148	4639.67
679.338	4447.16
679.529	4506.56
679.719	4342.72
679.909	4576.19
680.1	4430.78
680.29	4447.16
680.481	4346.81
680.671	4393.92
680.861	4465.6
681.052	4285.37
681.242	4277.18
681.432	4279.23
681.622	4168.64
681.813	4213.7
682.003	4178.88
682.193	4219.84
682.383	4250.56
682.573	4193.22
682.764	4242.37
682.954	4285.37
683.144	4236.22
683.334	4223.94
683.524	4103.11
683.714	4094.91
683.904	4060.1
684.094	4080.58
684.284	4123.59
684.474	4144.06
684.664	4064.19
684.854	4107.2
685.044	3918.79
685.234	3982.28
685.424	4033.47
685.614	3922.88
685.804	4084.67
685.994	3980.23
686.184	3986.37
686.374	4025.28
686.564	3785.67
686.753	3906.5
686.943	3843.01
687.133	3826.63
687.323	3826.63
687.513	3748.81
687.702	3894.21
687.892	3800.01
688.082	3795.91
688.272	3847.11
688.461	3666.89
688.651	3775.43
688.841	3709.9
689.03	3541.96
689.22	3724.23
689.41	3640.26
689.599	3703.75
689.789	3537.87
689.979	3619.78
690.168	3576.78
690.358	3488.71
690.547	3578.83
690.737	3509.19
690.926	3507.15
691.116	3511.24
691.305	3513.29
691.495	3363.79
691.684	3294.16
691.874	3376.08
692.063	3412.94
692.252	3320.78
692.442	3269.58
692.631	3359.69
692.82	3363.79
693.01	3310.54
693.199	3382.22
693.388	3281.87
693.578	3195.86
693.767	3208.14
693.956	3175.38
694.146	3193.81
694.335	3128.27
694.524	3111.89
694.713	3103.7
694.902	3034.07
695.092	3115.98
695.281	3107.79
695.47	2997.2
695.659	2931.67
695.848	3036.11
696.037	2905.04
696.226	3001.3
696.415	2937.81
696.604	2939.86
696.793	2943.96
696.982	2948.05
697.171	2989.01
697.36	2907.09
697.549	2927.57
697.738	2819.03
697.927	2968.53
698.116	2796.5
698.305	2847.7
698.494	2761.69
698.683	2814.93
698.872	2950.1
699.061	2835.41
699.25	2784.21
699.438	2683.86
699.627	2690.01
699.816	2788.31
700.005	2800.6
700.193	2659.29
700.382	2716.63
700.571	2718.68
700.76	2733.01
700.948	2671.58
701.137	2759.64
701.326	2681.82
701.514	2573.27
701.703	2606.04
701.892	2784.21
702.08	2720.73
702.269	2759.64
702.457	2571.22
702.646	2563.03
702.834	2667.48
703.023	2585.56
703.212	2581.46
703.4	2522.07
703.589	2474.97
703.777	2528.22
703.965	2550.75
704.154	2366.43
704.342	2517.98
704.531	2458.59
704.719	2560.98
704.907	2489.31
705.096	2468.83
705.284	2563.03
705.472	2429.91
705.661	2444.25
705.849	2530.27
706.037	2413.53
706.226	2337.76
706.414	2417.63
706.602	2370.52
706.79	2431.96
706.979	2397.15
707.167	2348
707.355	2268.13
707.543	2356.19
707.731	2384.86
707.919	2434.01
708.107	2319.32
708.296	2337.76
708.484	2304.99
708.672	2388.96
708.86	2413.53
709.048	2354.14
709.236	2292.7
709.424	2323.42
709.612	2337.76
709.8	2358.24
709.988	2384.86
710.176	2382.81
710.364	2286.56
710.551	2257.89
710.739	2327.52
710.927	2391
711.115	2223.07
711.303	2376.67
711.491	2411.48
711.679	2239.45
711.866	2239.45
712.054	2364.38
712.242	2225.12
712.43	2360.28
712.617	2300.89
712.805	2221.02
712.993	2255.84
713.181	2180.06
713.368	2218.97
713.556	2227.17
713.744	2087.9
713.931	2343.9
714.119	2243.55
714.306	2200.54
714.494	2188.25
714.682	2212.83
714.869	2096.1
715.057	2229.21
715.244	2175.97
715.432	2304.99
715.619	2114.53
715.807	2059.23
715.994	2227.17
716.182	2261.98
716.369	2139.1
716.556	2233.31
716.744	2122.72
716.931	2231.26
717.119	2165.73
717.306	2247.65
717.493	2120.67
717.681	2145.25
717.868	2182.11
718.055	2270.17
718.242	2141.15
718.43	2153.44
718.617	2108.38
718.804	2212.83
718.991	2092
719.179	2204.64
719.366	2218.97
719.553	2200.54
719.74	2092
719.927	2186.21
720.114	2300.89
720.301	2069.47
720.488	2132.96
720.676	2048.99
720.863	2139.1
721.05	2100.19
721.237	2157.54
721.424	2175.97
721.611	2202.59
721.798	2057.18
721.985	2036.7
722.172	2137.06
722.358	2182.11
722.545	2173.92
722.732	2069.47
722.919	2151.39
723.106	2112.48
723.293	2079.71
723.48	2173.92
723.667	2167.77
723.853	2153.44
724.04	2147.3
724.227	2186.21
724.414	2051.04
724.6	2313.18
724.787	2061.28
724.974	2149.34
725.161	2083.81
725.347	2034.66
725.534	2081.76
725.72	2155.49
725.907	2153.44
726.094	2143.2
726.28	2044.9
726.467	2061.28
726.653	2132.96
726.84	2239.45
727.027	2081.76
727.213	2016.23
727.4	2102.24
727.586	2159.58
727.773	2106.34
727.959	2120.67
728.145	2167.77
728.332	2067.42
728.518	2092
728.705	2081.76
728.891	2241.5
729.077	2030.56
729.264	2171.87
729.45	2190.3
729.636	2022.37
729.823	2251.74
730.009	2153.44
730.195	2116.58
730.382	2092
730.568	2069.47
730.754	2204.64
730.94	2233.31
731.126	2241.5
731.313	2163.68
731.499	2208.73
731.685	2204.64
731.871	2171.87
732.057	2106.34
732.243	2098.14
732.429	2112.48
732.615	2128.86
732.801	2233.31
732.987	2100.19
733.173	2288.61
733.359	2112.48
733.545	2184.16
733.731	2139.1
733.917	2104.29
734.103	2132.96
734.289	2182.11
734.475	2182.11
734.661	2247.65
734.847	2239.45
735.033	2175.97
735.219	2151.39
735.404	2147.3
735.59	2194.4
735.776	2092
735.962	2069.47
736.148	2171.87
736.333	2190.3
736.519	2171.87
736.705	2149.34
736.89	2268.13
737.076	2253.79
737.262	2264.03
737.447	2169.82
737.633	2180.06
737.819	2218.97
738.004	2229.21
738.19	2118.62
738.375	2290.65
738.561	2126.82
738.747	2194.4
738.932	2100.19
739.118	2282.46
739.303	2173.92
739.489	2106.34
739.674	2188.25
739.859	2296.8
740.045	2206.69
740.23	2190.3
740.416	2194.4
740.601	2089.95
740.786	2145.25
740.972	2051.04
741.157	2161.63
741.342	2210.78
741.528	2089.95
741.713	2161.63
741.898	2120.67
742.084	2225.12
742.269	2274.27
742.454	2116.58
742.639	2059.23
742.824	2132.96
743.01	2202.59
743.195	2110.43
743.38	2212.83
743.565	2135.01
743.75	2173.92
743.935	2112.48
744.12	2173.92
744.305	2135.01
744.49	2159.58
744.675	2077.66
744.86	2143.2
745.045	2108.38
745.23	2024.42
745.415	2102.24
745.6	2153.44
745.785	2122.72
745.97	2071.52
746.155	2042.85
746.34	2089.95
746.525	2003.94
746.71	2038.75
746.895	2032.61
747.079	1950.69
747.264	2137.06
747.449	2040.8
747.634	2003.94
747.819	2028.51
748.003	1971.17
748.188	1897.44
748.373	1893.35
748.557	2065.38
748.742	1907.68
748.927	1983.46
749.111	1901.54
749.296	1887.2
749.481	1954.79
749.665	2001.89
749.85	1805.28
750.034	1905.63
750.219	1815.52
750.404	1833.96
750.588	1797.09
750.773	1836
750.957	1831.91
751.141	1889.25
751.326	1862.63
751.51	1876.96
751.695	1733.61
751.879	1795.04
752.064	1868.77
752.248	1762.28
752.432	1846.24
752.617	1823.72
752.801	1702.89
752.985	1735.65
753.17	1829.86
753.354	1639.4
753.538	1741.8
753.722	1741.8
753.907	1678.31
754.091	1688.55
754.275	1573.86
754.459	1666.02
754.643	1668.07
754.828	1797.09
755.012	1680.36
755.196	1643.49
755.38	1688.55
755.564	1545.19
755.748	1661.93
755.932	1684.45
756.116	1670.12
756.3	1584.1
756.484	1684.45
756.668	1477.61
756.852	1588.2
757.036	1502.19
757.22	1514.47
757.404	1543.14
757.588	1477.61
757.772	1518.57
757.956	1481.71
758.14	1582.06
758.323	1379.31
758.507	1571.82
758.691	1469.42
758.875	1438.7
759.059	1569.77
759.242	1387.5
759.426	1420.27
759.61	1381.35
759.794	1424.36
759.977	1465.32
760.161	1352.68
760.345	1340.4
760.528	1424.36
760.712	1491.95
760.895	1328.11
761.079	1416.17
761.263	1309.68
761.446	1399.79
761.63	1369.07
761.813	1446.89
761.997	1334.25
762.18	1371.12
762.364	1248.24
762.547	1235.95
762.731	1334.25
762.914	1256.43
763.098	1272.81
763.281	1266.67
763.464	1340.4
763.648	1305.58
763.831	1313.77
764.015	1194.99
764.198	1235.95
764.381	1231.85
764.564	1264.62
764.748	1246.19
764.931	1248.24
765.114	1207.28
765.297	1194.99
765.481	1203.18
765.664	1205.23
765.847	1227.76
766.03	1256.43
766.213	1160.17
766.397	1207.28
766.58	1197.04
766.763	1295.34
766.946	1190.89
767.129	1063.92
767.312	1180.65
767.495	1135.6
767.678	1086.45
767.861	1123.31
768.044	1127.41
768.227	1178.61
768.41	1139.69
768.593	1221.61
768.776	1190.89
768.959	1170.41
769.142	1092.59
769.324	1219.57
769.507	1072.11
769.69	1145.84
769.873	1186.8
770.056	1151.98
770.239	955.38
770.421	1141.74
770.604	1201.13
770.787	1047.54
770.97	1049.58
771.152	1029.1
771.335	1082.35
771.518	1014.77
771.7	1119.21
771.883	1106.93
772.066	1135.6
772.248	1035.25
772.431	1008.62
772.613	1025.01
772.796	938.99
772.978	1049.58
773.161	1039.34
773.343	926.71
773.526	1008.62
773.708	941.04
773.891	971.76
774.073	941.04
774.256	920.56
774.438	957.43
774.621	951.28
774.803	1012.72
774.985	889.84
775.168	1031.15
775.35	953.33
775.532	902.13
775.715	891.89
775.897	920.56
776.079	1006.58
776.261	916.47
776.444	846.84
776.626	898.03
776.808	801.78
776.99	812.02
777.173	857.07
777.355	863.22
777.537	840.69
777.719	773.11
777.901	875.51
778.083	785.4
778.265	832.5
778.447	875.51
778.629	834.55
778.811	787.44
778.993	875.51
779.175	916.47
779.357	791.54
779.539	869.36
779.721	814.07
779.903	807.92
780.085	713.72
780.267	779.25
780.449	719.86
780.631	754.68
780.812	736.24
780.994	740.34
781.176	742.39
781.358	687.09
781.54	672.76
781.721	734.2
781.903	769.01
782.085	699.38
782.267	719.86
782.448	656.37
782.63	687.09
782.812	705.53
782.993	680.95
783.175	672.76
783.357	689.14
783.538	654.33
783.72	533.5
783.901	588.79
784.083	674.81
784.264	662.52
784.446	621.56
784.627	558.07
784.809	644.09
784.99	576.5
785.172	617.46
785.353	586.74
785.535	599.03
785.716	611.32
785.897	613.37
786.079	592.89
786.26	564.22
786.441	623.61
786.623	566.26
786.804	543.74
786.985	613.37
787.167	519.16
787.348	408.57
787.529	486.39
787.71	553.98
787.891	482.3
788.073	553.98
788.254	429.05
788.435	490.49
788.616	543.74
788.797	412.67
788.978	484.34
789.159	637.94
789.34	531.45
789.522	488.44
789.703	506.87
789.884	494.58
790.065	515.06
790.246	474.1
790.427	441.34
790.607	599.03
790.788	551.93
790.969	431.1
791.15	443.39
791.331	445.43
791.512	420.86
791.693	431.1
791.874	439.29
792.054	443.39
792.235	443.39
792.416	398.33
792.597	396.28
792.778	447.48
792.958	383.99
793.139	349.18
793.32	449.53
793.5	320.51
793.681	453.63
793.862	398.33
794.042	386.04
794.223	443.39
794.404	392.19
794.584	316.41
794.765	435.19
794.945	414.71
795.126	427
795.306	330.75
795.487	353.27
795.667	388.09
795.848	351.23
796.028	388.09
796.209	383.99
796.389	371.71
796.57	300.03
796.75	326.65
796.93	422.91
797.111	369.66
797.291	355.32
797.471	412.67
797.652	427
797.832	381.95
798.012	439.29
798.192	394.23
798.373	349.18
798.553	318.46
798.733	363.51
798.913	308.22
799.093	332.79
799.274	293.88
799.454	324.6
799.634	363.51
799.814	304.12
799.994	318.46
800.174	320.51
800.354	297.98
800.534	324.6
800.714	433.15
800.894	273.4
801.074	297.98
801.254	267.26
801.434	330.75
801.614	236.54
801.794	203.77
801.974	908.27
802.154	263.16
802.334	408.57
802.514	355.32
802.693	314.36
802.873	279.55
803.053	375.8
803.233	302.08
803.413	324.6
803.592	254.97
803.772	287.74
803.952	289.79
804.131	201.72
804.311	275.45
804.491	295.93
804.67	197.63
804.85	193.53
805.03	252.92
805.209	273.4
805.389	242.68
805.568	271.36
805.748	345.08
805.928	191.49
806.107	252.92
806.287	271.36
806.466	273.4
806.646	283.64
806.825	220.16
807.004	246.78
807.184	171.01
807.363	275.45
807.543	244.73
807.722	162.81
807.901	324.6
808.081	275.45
808.26	107.52
808.439	211.96
808.619	265.21
808.798	181.25
808.977	224.25
809.156	226.3
809.336	218.11
809.515	252.92
809.694	181.25
809.873	214.01
810.052	195.58
810.231	236.54
810.411	236.54
810.59	250.88
810.769	173.05
810.948	211.96
811.127	158.72
811.306	158.72
811.485	171.01
811.664	283.64
811.843	224.25
812.022	191.49
812.201	171.01
812.38	218.11
812.559	148.48
812.737	175.1
812.916	168.96
813.095	175.1
813.274	193.53
813.453	150.53
813.632	201.72
813.811	234.49
813.989	228.35
814.168	183.29
814.347	134.14
814.526	195.58
814.704	197.63
814.883	189.44
815.062	179.2
815.24	181.25
815.419	119.81
815.598	191.49
815.776	130.05
815.955	189.44
816.133	115.71
816.312	218.11
816.49	109.57
816.669	140.29
816.847	171.01
817.026	209.92
817.204	89.09
817.383	177.15
817.561	109.57
817.74	173.05
817.918	150.53
818.097	142.33
818.275	115.71
818.453	168.96
818.632	125.95
818.81	189.44
818.988	109.57
819.167	142.33
819.345	160.77
819.523	152.57
819.701	74.75
819.879	95.23
820.058	158.72
820.236	181.25
820.414	80.89
820.592	142.33
820.77	173.05
820.948	87.04
821.127	166.91
821.305	138.24
821.483	107.52
821.661	228.35
821.839	134.14
822.017	185.34
822.195	160.77
822.373	226.3
822.551	166.91
822.729	160.77
822.907	152.57
823.085	132.09
823.262	138.24
823.44	177.15
823.618	115.71
823.796	117.76
823.974	142.33
824.152	105.47
824.329	121.85
824.507	168.96
824.685	177.15
824.863	152.57
825.04	146.43
825.218	179.2
825.396	140.29
825.574	123.9
825.751	132.09
825.929	179.2
826.107	99.33
826.284	74.75
826.462	62.46
826.639	101.37
826.817	23.55
826.994	123.9
827.172	66.56
827.349	140.29
827.527	74.75
827.704	205.82
827.882	91.13
828.059	160.77
828.237	91.13
828.414	138.24
828.591	117.76
828.769	72.7
828.946	44.03
829.124	95.23
829.301	105.47
829.478	91.13
829.655	115.71
829.833	82.94
830.01	74.75
830.187	78.85
830.364	107.52
830.542	132.09
830.719	142.33
830.896	76.8
831.073	99.33
831.25	117.76
831.427	72.7
831.604	87.04
831.782	11.26
831.959	97.28
832.136	150.53
832.313	97.28
832.49	87.04
832.667	191.49
832.844	113.66
833.021	121.85
833.198	93.18
833.374	84.99
833.551	70.65
833.728	48.13
833.905	107.52
834.082	48.13
834.259	101.37
834.436	140.29
834.612	1.02
834.789	107.52
834.966	99.33
835.143	119.81
835.319	15.36
835.496	130.05
835.673	50.18
835.85	60.42
836.026	29.7
836.203	70.65
836.38	111.61
836.556	60.42
836.733	84.99
836.909	123.9
837.086	97.28
837.262	66.56
837.439	35.84
837.616	72.7
837.792	58.37
837.968	64.51
838.145	58.37
838.321	78.85
838.498	39.94
838.674	136.19
838.851	72.7
839.027	-17.41
839.203	66.56
839.38	97.28
839.556	54.27
839.732	54.27
839.909	115.71
840.085	101.37
840.261	-1.02
840.437	60.42
840.614	107.52
840.79	117.76
840.966	78.85
841.142	44.03
841.318	89.09
841.494	123.9
841.671	7.17
841.847	3.07
842.023	60.42
842.199	97.28
842.375	162.81
842.551	58.37
842.727	13.31
842.903	128
843.079	87.04
843.255	101.37
843.431	117.76
843.607	50.18
843.783	25.6
843.959	62.46
844.134	56.32
844.31	99.33
844.486	-7.17
844.662	56.32
844.838	93.18
845.013	58.37
845.189	87.04
845.365	50.18
845.541	-1.02
845.716	-21.5
845.892	76.8
846.068	58.37
846.244	64.51
846.419	11.26
846.595	29.7
846.77	31.74
846.946	52.22
847.122	29.7
847.297	-58.37
847.473	41.98
847.648	-1.02
847.824	31.74
847.999	11.26
848.175	33.79
848.35	60.42
848.526	50.18
848.701	68.61
848.876	121.85
849.052	68.61
849.227	60.42
849.403	58.37
849.578	66.56
849.753	54.27
849.929	64.51
850.104	-13.31
850.279	13.31
850.454	3.07
850.63	72.7
850.805	68.61
850.98	25.6
851.155	39.94
851.33	80.89
851.505	-35.84
851.681	76.8
851.856	76.8
852.031	78.85
852.206	25.6
852.381	-9.22
852.556	23.55
852.731	-11.26
852.906	82.94
853.081	44.03
853.256	136.19
853.431	52.22
853.606	37.89
853.781	117.76
853.956	-35.84
854.131	136.19
854.305	-7.17
854.48	35.84
854.655	33.79
854.83	-17.41
855.005	58.37
855.18	93.18
855.354	84.99
855.529	-23.55
855.704	3.07
855.879	109.57
856.053	-39.94
856.228	-9.22
856.403	25.6
856.577	23.55
856.752	-37.89
856.926	50.18
857.101	68.61
857.276	15.36
857.45	27.65
857.625	93.18
857.799	-19.46
857.974	103.42
858.148	58.37
858.323	31.74
858.497	39.94
858.672	25.6
858.846	3.07
859.02	64.51
859.195	50.18
859.369	-50.18
859.543	35.84
859.718	46.08
859.892	66.56
860.066	76.8
860.241	76.8
860.415	23.55
860.589	1.02
860.763	91.13
860.938	31.74
861.112	-1.02
861.286	68.61
861.46	52.22
861.634	60.42
861.808	41.98
861.982	5.12
862.157	-21.5
862.331	76.8
862.505	39.94
862.679	11.26
862.853	11.26
863.027	-27.65
863.201	115.71
863.375	37.89
863.549	58.37
863.722	-7.17
863.896	-52.22
864.07	7.17
864.244	76.8
864.418	44.03
864.592	25.6
864.766	50.18
864.939	82.94
865.113	-17.41
865.287	15.36
865.461	-29.7
865.634	-15.36
865.808	29.7
865.982	-29.7
866.156	-64.51
866.329	48.13
866.503	-54.27
866.676	54.27
866.85	46.08
867.024	-5.12
867.197	25.6
867.371	31.74
867.544	-21.5
867.718	74.75
867.891	-3.07
868.065	-5.12
868.238	11.26
868.412	74.75
868.585	15.36
868.759	9.22
868.932	-1.02
869.105	50.18
869.279	54.27
869.452	-3.07
869.625	-11.26
869.799	7.17
869.972	-17.41
870.145	-17.41
870.319	50.18
870.492	68.61
870.665	13.31
870.838	37.89
871.011	46.08
871.185	54.27
871.358	54.27
871.531	72.7
871.704	-78.85
871.877	-21.5
872.05	-13.31
872.223	-54.27
872.396	29.7
872.569	-46.08
872.742	-39.94
872.915	-31.74
873.088	37.89
873.261	46.08
873.434	52.22
873.607	19.46
873.78	111.61
873.953	27.65
874.126	-84.99
874.299	121.85
874.471	41.98
874.644	7.17
874.817	-11.26
874.99	58.37
875.163	93.18
875.335	58.37
875.508	-15.36
875.681	19.46
875.853	-39.94
876.026	13.31
876.199	62.46
876.371	74.75
876.544	-50.18
876.717	13.31
876.889	-23.55
877.062	3.07
877.234	19.46
877.407	-3.07
877.579	-21.5
877.752	64.51
877.924	74.75
878.097	35.84
878.269	25.6
878.442	46.08
878.614	87.04
878.786	1.02
878.959	17.41
879.131	1.02
879.303	-3.07
879.476	44.03
879.648	-5.12
879.82	19.46
879.993	37.89
880.165	-21.5
880.337	13.31
880.509	-21.5
880.681	105.47
880.854	31.74
881.026	17.41
881.198	17.41
881.37	-60.42
881.542	-23.55
881.714	-7.17
881.886	58.37
882.058	52.22
882.23	7.17
882.402	1.02
882.574	80.89
882.746	44.03
882.918	46.08
883.09	-5.12
883.262	-5.12
883.434	9.22
883.606	-58.37
883.778	-9.22
883.95	89.09
884.122	93.18
884.293	50.18
884.465	29.7
884.637	25.6
884.809	29.7
884.98	31.74
885.152	-50.18
885.324	84.99
885.496	-31.74
885.667	-1.02
885.839	46.08
886.011	31.74
886.182	35.84
886.354	15.36
886.525	13.31
886.697	31.74
886.869	-54.27
887.04	11.26
887.212	13.31
887.383	103.42
887.555	7.17
887.726	-13.31
887.897	13.31
888.069	17.41
888.24	27.65
888.412	37.89
888.583	23.55
888.754	3.07
888.926	-54.27
889.097	-41.98
889.268	-33.79
889.44	-70.65
889.611	35.84
889.782	-44.03
889.953	41.98
890.125	-21.5
890.296	-11.26
890.467	-35.84
890.638	23.55
890.809	41.98
890.98	-21.5
891.151	-33.79
891.323	52.22
891.494	48.13
891.665	17.41
891.836	52.22
892.007	-25.6
892.178	39.94
892.349	48.13
892.52	-17.41
892.691	15.36
892.862	-17.41
893.032	41.98
893.203	-17.41
893.374	35.84
893.545	7.17
893.716	7.17
893.887	5.12
894.057	-15.36
894.228	-50.18
894.399	-68.61
894.57	44.03
894.74	31.74
894.911	-39.94
895.082	50.18
895.253	48.13
895.423	25.6
895.594	160.77
895.764	27.65
895.935	-70.65
896.106	-27.65
896.276	48.13
896.447	70.65
896.617	-7.17
896.788	-74.75
896.958	3.07
897.129	50.18
897.299	-35.84
897.47	15.36
897.64	13.31
897.81	-15.36
897.981	25.6
898.151	-15.36
898.322	-15.36
898.492	54.27
898.662	-41.98
898.832	-7.17
899.003	25.6
899.173	13.31
899.343	-29.7
899.513	13.31
