Data from USB4F104151__95__12-42-57-044.txt Node

Date: Fri Mar 14 12:42:57 EDT 2025
User: louis
Spectrometer: USB4F10415
Trigger mode: 4
Integration Time (sec): 3.000000E-2
Scans to average: 1
Electric dark correction enabled: true
Nonlinearity correction enabled: false
Boxcar width: 0
XAxis mode: Wavelengths
Number of Pixels in Spectrum: 3648
>>>>>Begin Spectral Data<<<<<
178.204	-142.33
178.424	-142.33
178.644	-142.33
178.864	-171.01
179.084	-218.11
179.304	19.46
179.524	-41.98
179.744	-52.22
179.964	70.65
180.184	-3.07
180.404	-19.46
180.624	39.94
180.844	27.65
181.064	-29.7
181.283	-25.6
181.503	9.22
181.723	5.12
181.943	-101.37
182.163	-11.26
182.383	5.12
182.602	44.03
182.822	62.46
183.042	27.65
183.262	-21.5
183.482	-21.5
183.701	7.17
183.921	56.32
184.141	-11.26
184.361	52.22
184.58	56.32
184.8	-9.22
185.02	15.36
185.239	7.17
185.459	50.18
185.679	89.09
185.898	-52.22
186.118	70.65
186.338	60.42
186.557	84.99
186.777	-9.22
186.997	31.74
187.216	107.52
187.436	37.89
187.655	19.46
187.875	44.03
188.095	23.55
188.314	62.46
188.534	70.65
188.753	-11.26
188.973	80.89
189.192	68.61
189.412	82.94
189.631	70.65
189.851	17.41
190.07	54.27
190.29	27.65
190.509	-19.46
190.729	58.37
190.948	97.28
191.168	193.53
191.387	101.37
191.607	64.51
191.826	25.6
192.045	58.37
192.265	-1.02
192.484	25.6
192.704	-25.6
192.923	19.46
193.142	74.75
193.362	23.55
193.581	25.6
193.8	48.13
194.02	89.09
194.239	25.6
194.458	54.27
194.678	-21.5
194.897	54.27
195.116	-13.31
195.335	-44.03
195.555	33.79
195.774	33.79
195.993	68.61
196.212	-9.22
196.432	5.12
196.651	13.31
196.87	17.41
197.089	80.89
197.308	-21.5
197.528	-17.41
197.747	-27.65
197.966	64.51
198.185	91.13
198.404	-15.36
198.623	23.55
198.842	21.5
199.062	99.33
199.281	60.42
199.5	11.26
199.719	48.13
199.938	-19.46
200.157	70.65
200.376	56.32
200.595	25.6
200.814	93.18
201.033	31.74
201.252	66.56
201.471	91.13
201.69	25.6
201.909	39.94
202.128	13.31
202.347	39.94
202.566	-23.55
202.785	-3.07
203.004	-27.65
203.223	37.89
203.442	50.18
203.661	13.31
203.879	35.84
204.098	46.08
204.317	-5.12
204.536	50.18
204.755	-9.22
204.974	50.18
205.193	64.51
205.411	54.27
205.63	48.13
205.849	-19.46
206.068	25.6
206.287	44.03
206.505	87.04
206.724	50.18
206.943	62.46
207.162	39.94
207.381	5.12
207.599	41.98
207.818	31.74
208.037	-17.41
208.255	46.08
208.474	35.84
208.693	9.22
208.911	-29.7
209.13	-64.51
209.349	31.74
209.567	-62.46
209.786	9.22
210.005	29.7
210.223	50.18
210.442	-5.12
210.661	-31.74
210.879	41.98
211.098	62.46
211.316	74.75
211.535	39.94
211.753	-19.46
211.972	58.37
212.191	-7.17
212.409	78.85
212.628	17.41
212.846	19.46
213.065	58.37
213.283	72.7
213.502	25.6
213.72	13.31
213.938	-25.6
214.157	11.26
214.375	91.13
214.594	103.42
214.812	119.81
215.031	84.99
215.249	33.79
215.467	-13.31
215.686	27.65
215.904	62.46
216.122	3.07
216.341	62.46
216.559	-5.12
216.778	62.46
216.996	70.65
217.214	95.23
217.432	58.37
217.651	9.22
217.869	54.27
218.087	-31.74
218.306	21.5
218.524	5.12
218.742	35.84
218.96	29.7
219.179	19.46
219.397	52.22
219.615	58.37
219.833	74.75
220.051	7.17
220.27	123.9
220.488	44.03
220.706	54.27
220.924	23.55
221.142	91.13
221.36	82.94
221.578	39.94
221.796	97.28
222.015	78.85
222.233	-5.12
222.451	134.14
222.669	62.46
222.887	-15.36
223.105	-3.07
223.323	74.75
223.541	-25.6
223.759	93.18
223.977	-7.17
224.195	48.13
224.413	58.37
224.631	60.42
224.849	29.7
225.067	82.94
225.285	25.6
225.503	41.98
225.721	-5.12
225.939	19.46
226.157	78.85
226.375	72.7
226.592	-39.94
226.81	29.7
227.028	99.33
227.246	144.38
227.464	70.65
227.682	89.09
227.9	105.47
228.117	-11.26
228.335	66.56
228.553	7.17
228.771	74.75
228.989	76.8
229.206	23.55
229.424	99.33
229.642	-13.31
229.86	64.51
230.077	54.27
230.295	97.28
230.513	91.13
230.731	13.31
230.948	41.98
231.166	68.61
231.384	-11.26
231.601	-21.5
231.819	168.96
232.037	91.13
232.254	37.89
232.472	-11.26
232.689	21.5
232.907	15.36
233.125	21.5
233.342	17.41
233.56	9.22
233.777	37.89
233.995	72.7
234.213	72.7
234.43	29.7
234.648	13.31
234.865	70.65
235.083	11.26
235.3	39.94
235.518	58.37
235.735	154.62
235.953	19.46
236.17	1.02
236.388	-17.41
236.605	109.57
236.822	41.98
237.04	-31.74
237.257	60.42
237.475	-13.31
237.692	62.46
237.909	-5.12
238.127	68.61
238.344	-27.65
238.562	7.17
238.779	66.56
238.996	25.6
239.214	64.51
239.431	103.42
239.648	-13.31
239.865	54.27
240.083	-13.31
240.3	27.65
240.517	-54.27
240.735	31.74
240.952	21.5
241.169	44.03
241.386	64.51
241.603	80.89
241.821	19.46
242.038	33.79
242.255	29.7
242.472	-37.89
242.689	17.41
242.907	11.26
243.124	35.84
243.341	21.5
243.558	-23.55
243.775	41.98
243.992	37.89
244.209	37.89
244.426	101.37
244.643	70.65
244.86	-33.79
245.078	78.85
245.295	5.12
245.512	19.46
245.729	-5.12
245.946	23.55
246.163	54.27
246.38	39.94
246.597	44.03
246.814	103.42
247.031	56.32
247.248	52.22
247.464	48.13
247.681	-52.22
247.898	44.03
248.115	15.36
248.332	39.94
248.549	48.13
248.766	105.47
248.983	-11.26
249.2	-13.31
249.417	41.98
249.633	-15.36
249.85	35.84
250.067	17.41
250.284	29.7
250.501	95.23
250.717	37.89
250.934	1.02
251.151	82.94
251.368	27.65
251.585	-13.31
251.801	15.36
252.018	52.22
252.235	68.61
252.451	76.8
252.668	13.31
252.885	5.12
253.102	60.42
253.318	5.12
253.535	29.7
253.752	-80.89
253.968	-5.12
254.185	76.8
254.401	35.84
254.618	62.46
254.835	52.22
255.051	74.75
255.268	-35.84
255.484	41.98
255.701	-3.07
255.917	82.94
256.134	29.7
256.351	15.36
256.567	-1.02
256.784	-35.84
257	-35.84
257.217	101.37
257.433	46.08
257.65	-35.84
257.866	80.89
258.082	-15.36
258.299	-37.89
258.515	109.57
258.732	31.74
258.948	25.6
259.165	109.57
259.381	3.07
259.597	33.79
259.814	-41.98
260.03	66.56
260.246	95.23
260.463	46.08
260.679	76.8
260.895	54.27
261.112	33.79
261.328	-7.17
261.544	13.31
261.761	62.46
261.977	35.84
262.193	39.94
262.409	68.61
262.626	-1.02
262.842	64.51
263.058	-17.41
263.274	25.6
263.49	64.51
263.707	72.7
263.923	35.84
264.139	68.61
264.355	29.7
264.571	109.57
264.787	25.6
265.004	29.7
265.22	76.8
265.436	-15.36
265.652	21.5
265.868	35.84
266.084	44.03
266.3	15.36
266.516	-15.36
266.732	21.5
266.948	39.94
267.164	17.41
267.38	72.7
267.596	54.27
267.812	107.52
268.028	54.27
268.244	11.26
268.46	64.51
268.676	27.65
268.892	60.42
269.108	68.61
269.324	52.22
269.54	-56.32
269.756	78.85
269.972	27.65
270.188	97.28
270.403	7.17
270.619	-13.31
270.835	25.6
271.051	-27.65
271.267	9.22
271.483	54.27
271.698	-1.02
271.914	21.5
272.13	-7.17
272.346	60.42
272.562	48.13
272.777	-41.98
272.993	-1.02
273.209	15.36
273.425	13.31
273.64	-19.46
273.856	21.5
274.072	76.8
274.287	44.03
274.503	52.22
274.719	101.37
274.934	64.51
275.15	7.17
275.366	-1.02
275.581	-11.26
275.797	25.6
276.012	74.75
276.228	31.74
276.444	17.41
276.659	74.75
276.875	44.03
277.09	93.18
277.306	-13.31
277.521	21.5
277.737	48.13
277.952	74.75
278.168	95.23
278.383	35.84
278.599	68.61
278.814	25.6
279.03	39.94
279.245	82.94
279.461	15.36
279.676	107.52
279.892	99.33
280.107	9.22
280.322	7.17
280.538	56.32
280.753	93.18
280.969	33.79
281.184	76.8
281.399	76.8
281.615	64.51
281.83	56.32
282.045	54.27
282.26	68.61
282.476	31.74
282.691	54.27
282.906	119.81
283.122	31.74
283.337	-66.56
283.552	44.03
283.767	29.7
283.983	68.61
284.198	23.55
284.413	29.7
284.628	3.07
284.843	52.22
285.058	76.8
285.274	76.8
285.489	58.37
285.704	50.18
285.919	44.03
286.134	72.7
286.349	107.52
286.564	29.7
286.779	107.52
286.995	11.26
287.21	25.6
287.425	105.47
287.64	-13.31
287.855	50.18
288.07	-13.31
288.285	76.8
288.5	48.13
288.715	3.07
288.93	-1.02
289.145	52.22
289.36	115.71
289.575	72.7
289.79	68.61
290.004	11.26
290.219	11.26
290.434	80.89
290.649	95.23
290.864	19.46
291.079	13.31
291.294	76.8
291.509	-19.46
291.724	23.55
291.938	-41.98
292.153	103.42
292.368	-68.61
292.583	87.04
292.798	68.61
293.012	60.42
293.227	50.18
293.442	-35.84
293.657	58.37
293.871	56.32
294.086	134.14
294.301	91.13
294.516	87.04
294.73	-5.12
294.945	35.84
295.16	23.55
295.374	29.7
295.589	80.89
295.804	58.37
296.018	-35.84
296.233	7.17
296.447	56.32
296.662	41.98
296.877	70.65
297.091	23.55
297.306	44.03
297.52	-3.07
297.735	-27.65
297.949	54.27
298.164	142.33
298.378	-52.22
298.593	-48.13
298.807	52.22
299.022	37.89
299.236	93.18
299.451	17.41
299.665	-3.07
299.88	35.84
300.094	-41.98
300.309	39.94
300.523	142.33
300.737	-7.17
300.952	80.89
301.166	35.84
301.381	15.36
301.595	41.98
301.809	41.98
302.024	29.7
302.238	50.18
302.452	-19.46
302.667	37.89
302.881	35.84
303.095	54.27
303.309	50.18
303.524	39.94
303.738	37.89
303.952	17.41
304.166	44.03
304.381	19.46
304.595	125.95
304.809	78.85
305.023	-25.6
305.237	37.89
305.452	62.46
305.666	80.89
305.88	84.99
306.094	3.07
306.308	103.42
306.522	9.22
306.736	62.46
306.95	87.04
307.164	91.13
307.379	76.8
307.593	109.57
307.807	41.98
308.021	99.33
308.235	-41.98
308.449	-5.12
308.663	97.28
308.877	54.27
309.091	107.52
309.305	62.46
309.519	-11.26
309.733	58.37
309.947	25.6
310.161	109.57
310.374	70.65
310.588	117.76
310.802	39.94
311.016	41.98
311.23	25.6
311.444	5.12
311.658	13.31
311.872	84.99
312.085	113.66
312.299	185.34
312.513	58.37
312.727	84.99
312.941	21.5
313.154	56.32
313.368	95.23
313.582	41.98
313.796	87.04
314.009	54.27
314.223	35.84
314.437	82.94
314.651	3.07
314.864	-5.12
315.078	33.79
315.292	23.55
315.505	103.42
315.719	56.32
315.933	21.5
316.146	27.65
316.36	-5.12
316.573	123.9
316.787	29.7
317.001	64.51
317.214	-46.08
317.428	64.51
317.641	7.17
317.855	9.22
318.068	125.95
318.282	113.66
318.495	48.13
318.709	107.52
318.922	97.28
319.136	54.27
319.349	13.31
319.563	54.27
319.776	66.56
319.99	50.18
320.203	160.77
320.417	74.75
320.63	72.7
320.843	97.28
321.057	62.46
321.27	134.14
321.483	3.07
321.697	89.09
321.91	107.52
322.124	62.46
322.337	54.27
322.55	52.22
322.763	25.6
322.977	41.98
323.19	17.41
323.403	9.22
323.617	107.52
323.83	78.85
324.043	15.36
324.256	19.46
324.469	5.12
324.683	56.32
324.896	-35.84
325.109	74.75
325.322	-23.55
325.535	7.17
325.748	-29.7
325.962	54.27
326.175	64.51
326.388	109.57
326.601	107.52
326.814	52.22
327.027	50.18
327.24	97.28
327.453	60.42
327.666	5.12
327.879	60.42
328.092	39.94
328.305	52.22
328.518	58.37
328.731	-31.74
328.944	103.42
329.157	29.7
329.37	60.42
329.583	41.98
329.796	115.71
330.009	-9.22
330.222	21.5
330.435	74.75
330.648	44.03
330.861	68.61
331.073	54.27
331.286	162.81
331.499	29.7
331.712	35.84
331.925	99.33
332.138	99.33
332.35	62.46
332.563	-15.36
332.776	56.32
332.989	5.12
333.202	99.33
333.414	72.7
333.627	105.47
333.84	46.08
334.053	103.42
334.265	13.31
334.478	19.46
334.691	35.84
334.903	11.26
335.116	31.74
335.329	62.46
335.541	-3.07
335.754	99.33
335.966	50.18
336.179	46.08
336.392	39.94
336.604	13.31
336.817	37.89
337.029	78.85
337.242	76.8
337.454	76.8
337.667	89.09
337.88	70.65
338.092	66.56
338.305	91.13
338.517	5.12
338.729	52.22
338.942	44.03
339.154	41.98
339.367	91.13
339.579	99.33
339.792	-48.13
340.004	74.75
340.217	-25.6
340.429	48.13
340.641	41.98
340.854	68.61
341.066	-48.13
341.278	80.89
341.491	121.85
341.703	136.19
341.915	37.89
342.128	52.22
342.34	97.28
342.552	31.74
342.764	62.46
342.977	-25.6
343.189	-1.02
343.401	107.52
343.613	35.84
343.826	33.79
344.038	19.46
344.25	37.89
344.462	-54.27
344.674	56.32
344.886	76.8
345.099	62.46
345.311	89.09
345.523	50.18
345.735	21.5
345.947	119.81
346.159	103.42
346.371	68.61
346.583	78.85
346.795	82.94
347.007	99.33
347.219	52.22
347.431	37.89
347.643	115.71
347.855	25.6
348.067	107.52
348.279	62.46
348.491	58.37
348.703	9.22
348.915	56.32
349.127	-19.46
349.339	111.61
349.551	39.94
349.763	78.85
349.975	56.32
350.187	27.65
350.399	39.94
350.61	84.99
350.822	60.42
351.034	21.5
351.246	64.51
351.458	78.85
351.669	80.89
351.881	46.08
352.093	52.22
352.305	23.55
352.517	66.56
352.728	105.47
352.94	103.42
353.152	23.55
353.363	19.46
353.575	121.85
353.787	58.37
353.999	64.51
354.21	50.18
354.422	78.85
354.633	58.37
354.845	7.17
355.057	29.7
355.268	50.18
355.48	27.65
355.692	87.04
355.903	-37.89
356.115	37.89
356.326	-1.02
356.538	142.33
356.749	101.37
356.961	132.09
357.172	80.89
357.384	-9.22
357.595	82.94
357.807	74.75
358.018	46.08
358.23	101.37
358.441	109.57
358.653	175.1
358.864	62.46
359.075	48.13
359.287	62.46
359.498	-3.07
359.709	27.65
359.921	58.37
360.132	11.26
360.344	-31.74
360.555	39.94
360.766	58.37
360.977	101.37
361.189	160.77
361.4	74.75
361.611	146.43
361.823	101.37
362.034	60.42
362.245	-23.55
362.456	35.84
362.667	76.8
362.879	48.13
363.09	52.22
363.301	41.98
363.512	97.28
363.723	56.32
363.935	39.94
364.146	115.71
364.357	119.81
364.568	125.95
364.779	7.17
364.99	56.32
365.201	-11.26
365.412	154.62
365.623	29.7
365.834	46.08
366.045	-11.26
366.256	74.75
366.467	91.13
366.678	56.32
366.889	46.08
367.1	-1.02
367.311	72.7
367.522	62.46
367.733	48.13
367.944	70.65
368.155	54.27
368.366	60.42
368.577	66.56
368.788	72.7
368.999	84.99
369.209	-5.12
369.42	166.91
369.631	123.9
369.842	41.98
370.053	29.7
370.264	99.33
370.474	17.41
370.685	50.18
370.896	76.8
371.107	103.42
371.317	70.65
371.528	3.07
371.739	89.09
371.95	95.23
372.16	84.99
372.371	58.37
372.582	84.99
372.792	72.7
373.003	15.36
373.214	1.02
373.424	13.31
373.635	76.8
373.846	123.9
374.056	111.61
374.267	72.7
374.477	109.57
374.688	101.37
374.898	84.99
375.109	27.65
375.319	103.42
375.53	62.46
375.74	33.79
375.951	7.17
376.161	107.52
376.372	150.53
376.582	87.04
376.793	82.94
377.003	13.31
377.214	27.65
377.424	123.9
377.635	134.14
377.845	-3.07
378.055	115.71
378.266	70.65
378.476	27.65
378.686	-3.07
378.897	11.26
379.107	54.27
379.317	91.13
379.528	33.79
379.738	74.75
379.948	52.22
380.158	107.52
380.369	37.89
380.579	44.03
380.789	84.99
380.999	27.65
381.21	128
381.42	91.13
381.63	-19.46
381.84	-5.12
382.05	117.76
382.261	74.75
382.471	113.66
382.681	56.32
382.891	128
383.101	134.14
383.311	21.5
383.521	31.74
383.731	125.95
383.941	44.03
384.151	54.27
384.361	54.27
384.571	82.94
384.781	136.19
384.991	113.66
385.201	193.53
385.411	171.01
385.621	115.71
385.831	15.36
386.041	70.65
386.251	82.94
386.461	218.11
386.671	35.84
386.881	148.48
387.091	60.42
387.301	109.57
387.511	89.09
387.72	80.89
387.93	25.6
388.14	25.6
388.35	121.85
388.56	54.27
388.769	136.19
388.979	105.47
389.189	99.33
389.399	-5.12
389.609	103.42
389.818	128
390.028	115.71
390.238	95.23
390.447	58.37
390.657	154.62
390.867	41.98
391.076	89.09
391.286	3.07
391.496	138.24
391.705	25.6
391.915	105.47
392.125	119.81
392.334	119.81
392.544	119.81
392.753	89.09
392.963	68.61
393.172	66.56
393.382	99.33
393.591	117.76
393.801	27.65
394.01	175.1
394.22	60.42
394.429	177.15
394.639	48.13
394.848	164.86
395.058	109.57
395.267	101.37
395.477	150.53
395.686	162.81
395.895	144.38
396.105	132.09
396.314	164.86
396.524	205.82
396.733	97.28
396.942	185.34
397.152	123.9
397.361	164.86
397.57	168.96
397.78	76.8
397.989	97.28
398.198	168.96
398.407	168.96
398.617	140.29
398.826	156.67
399.035	142.33
399.244	140.29
399.453	130.05
399.663	134.14
399.872	125.95
400.081	195.58
400.29	207.87
400.499	189.44
400.708	97.28
400.917	154.62
401.127	111.61
401.336	168.96
401.545	152.57
401.754	289.79
401.963	140.29
402.172	132.09
402.381	162.81
402.59	162.81
402.799	119.81
403.008	144.38
403.217	203.77
403.426	177.15
403.635	128
403.844	185.34
404.053	197.63
404.262	185.34
404.471	345.08
404.68	166.91
404.888	240.64
405.097	236.54
405.306	193.53
405.515	340.99
405.724	197.63
405.933	252.92
406.142	207.87
406.35	259.07
406.559	287.74
406.768	289.79
406.977	273.4
407.185	300.03
407.394	324.6
407.603	218.11
407.812	289.79
408.02	273.4
408.229	383.99
408.438	293.88
408.646	295.93
408.855	367.61
409.064	359.42
409.272	304.12
409.481	422.91
409.69	427
409.898	240.64
410.107	429.05
410.315	396.28
410.524	414.71
410.733	529.4
410.941	392.19
411.15	533.5
411.358	519.16
411.567	596.98
411.775	574.46
411.984	680.95
412.192	619.51
412.401	607.22
412.609	693.24
412.818	664.57
413.026	648.18
413.234	834.55
413.443	699.38
413.651	699.38
413.86	775.16
414.068	855.03
414.276	920.56
414.485	912.37
414.693	893.94
414.901	1061.87
415.11	1049.58
415.318	938.99
415.526	1016.82
415.734	1137.65
415.943	1084.4
416.151	1227.76
416.359	1238
416.567	1209.33
416.776	1254.38
416.984	1354.73
417.192	1393.64
417.4	1414.12
417.608	1524.71
417.817	1471.47
418.025	1680.36
418.233	1745.89
418.441	1557.48
418.649	1780.71
418.857	1803.24
419.065	1946.59
419.273	1864.68
419.481	1991.65
419.689	2061.28
419.897	2118.62
420.105	2313.18
420.313	2221.02
420.521	2376.67
420.729	2370.52
420.937	2454.49
421.145	2583.51
421.353	2653.14
421.561	2669.53
421.769	2812.89
421.977	3079.12
422.185	2913.24
422.393	3273.68
422.601	3281.87
422.809	3378.12
423.017	3408.84
423.224	3322.83
423.432	3734.47
423.64	3656.65
423.848	3849.16
424.056	3875.78
424.263	4088.77
424.471	4213.7
424.679	4234.18
424.887	4418.49
425.094	4576.19
425.302	4510.65
425.51	4811.7
425.718	4856.76
425.925	4809.65
426.133	5180.34
426.341	5516.2
426.548	5755.82
426.756	5790.63
426.964	5698.47
427.171	6093.73
427.379	6114.21
427.586	6284.19
427.794	6585.24
428.001	6906.77
428.209	7027.6
428.417	7021.46
428.624	7388.05
428.832	7488.4
429.039	7478.16
429.247	7533.45
429.454	8090.5
429.662	8854.39
429.869	8168.32
430.076	8868.73
430.284	8520.57
430.491	9020.28
430.699	9556.85
430.906	9413.49
431.114	9485.17
431.321	9818.99
431.528	9966.44
431.736	10650.46
431.943	11195.22
432.15	10926.94
432.358	11027.29
432.565	11451.22
432.772	11645.77
432.979	12305.22
433.187	12542.78
433.394	12532.54
433.601	13316.92
433.808	13458.23
434.016	13294.39
434.223	13837.1
434.43	14678.82
434.637	14349.09
434.844	15381.27
435.052	15489.81
435.259	15401.75
435.466	15602.45
435.673	15403.8
435.88	16741.12
436.087	17400.57
436.294	17169.15
436.501	17064.7
436.708	17451.77
436.915	17986.29
437.122	18805.47
437.329	18696.93
437.537	19534.55
437.743	19567.32
437.95	19618.52
438.157	20460.23
438.364	21482.17
438.571	20947.65
438.778	21476.02
438.985	22977.19
439.192	22405.8
439.399	22762.15
439.606	22559.4
439.813	23794.32
440.02	25504.38
440.227	24937.09
440.433	24523.4
440.64	25205.38
440.847	25297.53
441.054	25860.73
441.261	27638.36
441.467	26755.69
441.674	27802.2
441.881	28889.67
442.088	28586.57
442.294	28219.99
442.501	29487.68
442.708	29588.03
442.914	30958.12
443.121	32250.39
443.328	31169.06
443.534	33653.25
443.741	32713.23
443.948	32373.27
444.154	34281.97
444.361	34478.58
444.568	34552.3
444.774	34388.47
444.981	35070.44
445.187	36352.47
445.394	37181.9
445.6	36952.52
445.807	40429.98
446.013	39020.97
446.22	39299.5
446.426	41005.45
446.633	41240.97
446.839	42713.46
447.046	41023.89
447.252	43280.75
447.459	43075.95
447.665	42953.07
447.871	44859.73
448.078	46405.95
448.284	44804.44
448.491	45658.44
448.697	47499.56
448.903	47968.55
449.11	48582.94
449.316	47778.09
449.522	48591.13
449.728	49934.6
449.935	50209.03
450.141	50037
450.347	51239.15
450.553	49555.72
450.76	50065.67
450.966	51882.22
451.172	51300.59
451.378	52830.43
451.584	51327.22
451.791	52660.44
451.997	52623.58
452.203	53573.84
452.409	53483.73
452.615	53278.93
452.821	51181.81
453.027	51185.91
453.233	53442.77
453.44	51507.44
453.646	52185.32
453.852	51808.49
454.058	52953.3
454.264	51402.99
454.47	52324.58
454.676	51071.22
454.882	53123.29
455.088	48883.99
455.294	49158.42
455.5	49787.14
455.705	50344.19
455.911	48263.46
456.117	47311.15
456.323	47198.51
456.529	44478.81
456.735	46790.97
456.941	45207.89
457.147	44421.47
457.352	43321.71
457.558	42568.05
457.764	43166.06
457.97	42371.45
458.176	41298.31
458.381	41025.93
458.587	39195.05
458.793	38850.99
458.999	36977.1
459.204	39666.08
459.41	39063.98
459.616	35977.69
459.821	36217.3
460.027	36145.62
460.233	35248.61
460.438	33901.05
460.644	34064.89
460.85	32569.87
461.055	31863.32
461.261	31891.99
461.466	29702.71
461.672	28688.97
461.878	30548.53
462.083	29069.89
462.289	28074.58
462.494	27552.35
462.7	26845.8
462.905	25672.31
463.111	26810.98
463.316	27013.73
463.522	26116.72
463.727	26321.52
463.932	26686.06
464.138	25868.92
464.343	25860.73
464.549	25217.66
464.754	26221.17
464.959	26108.53
465.165	25811.57
465.37	24726.15
465.575	24173.2
465.781	24982.15
465.986	25252.48
466.191	24199.82
466.397	24087.18
466.602	22702.76
466.807	23743.13
467.012	23544.47
467.218	23347.87
467.423	23075.49
467.628	23356.06
467.833	24210.06
468.038	23333.53
468.244	22780.58
468.449	23431.83
468.654	22403.75
468.859	22643.37
469.064	22667.94
469.269	21600.95
469.474	21897.91
469.679	21887.67
469.885	21510.84
470.09	22047.41
470.295	21729.97
470.5	20933.31
470.705	21428.92
470.91	20804.29
471.115	20798.15
471.32	21015.23
471.525	21035.71
471.73	20509.38
471.935	20306.63
472.139	19405.53
472.344	19935.95
472.549	19659.48
472.754	19342.04
472.959	19129.05
473.164	18463.46
473.369	18535.14
473.574	19231.45
473.778	19256.03
473.983	18969.31
474.188	18649.83
474.393	17855.22
474.598	17961.71
474.802	17664.75
475.007	17728.24
475.212	17705.71
475.417	17064.7
475.621	17091.32
475.826	17257.21
476.031	16814.85
476.235	16380.68
476.44	16634.63
476.645	15987.47
476.849	16251.66
477.054	16302.86
477.259	15747.86
477.463	15790.86
477.668	15471.38
477.872	15608.59
478.077	15289.11
478.282	14916.38
478.486	14920.48
478.691	14805.79
478.895	14879.52
479.1	14431.01
479.304	14629.66
479.509	14324.52
479.713	14695.2
479.918	14132.01
480.122	14011.18
480.326	14203.69
480.531	14142.25
480.735	13976.36
480.94	13816.62
481.144	14322.47
481.348	13697.84
481.553	13671.22
481.757	13462.32
481.961	13703.98
482.166	13767.47
482.37	13701.93
482.574	13447.99
482.778	13722.41
482.983	13824.81
483.187	13454.13
483.391	13790
483.595	13658.93
483.8	13513.52
484.004	13353.78
484.208	13734.7
484.412	13323.06
484.616	13593.39
484.821	13634.35
485.025	13333.3
485.229	13822.77
485.433	13574.96
485.637	13597.49
485.841	13617.97
486.045	13349.68
486.249	13490.99
486.453	13443.89
486.657	13425.46
486.861	13478.71
487.065	13335.35
487.269	13429.56
487.473	13269.81
487.677	13617.97
487.881	13816.62
488.085	13511.47
488.289	13790
488.493	13697.84
488.697	13601.58
488.901	13376.31
489.105	13570.86
489.309	13677.36
489.512	13427.51
489.716	13695.79
489.92	13546.29
490.124	13437.75
490.328	13839.15
490.531	13857.58
490.735	13738.8
490.939	14168.87
491.143	13746.99
491.346	13871.92
491.55	14242.6
491.754	14072.62
491.958	14242.6
492.161	14175.02
492.365	14076.71
492.569	14242.6
492.772	14054.19
492.976	14289.7
493.18	14498.59
493.383	14512.93
493.587	14596.9
493.79	14793.5
493.994	14449.44
494.197	14836.51
494.401	15020.83
494.605	15063.83
494.808	15063.83
495.012	15190.81
495.215	15352.6
495.419	15411.99
495.622	15332.12
495.825	15635.22
496.029	15504.15
496.232	15731.47
496.436	15993.61
496.639	16302.86
496.843	16134.92
497.046	16507.65
497.249	16747.26
497.453	16777.98
497.656	16960.25
497.859	16917.25
498.063	17017.6
498.266	17468.15
498.469	17335.03
498.673	17539.83
498.876	17779.44
499.079	17795.82
499.282	17795.82
499.485	18469.61
499.689	18402.02
499.892	18928.35
500.095	18754.27
500.298	19204.83
500.501	18840.29
500.705	19669.72
500.908	19716.82
501.111	20171.47
501.314	20007.63
501.517	20351.69
501.72	20329.16
501.923	20382.41
502.126	21363.39
502.329	21103.29
502.532	21332.67
502.735	21613.24
502.938	21969.58
503.141	21838.51
503.344	22162.09
503.547	22268.59
503.75	22684.33
503.953	23001.76
504.156	22848.16
504.359	23595.67
504.562	23532.18
504.765	23863.96
504.968	24230.54
505.17	24476.3
505.373	24275.6
505.576	24742.53
505.779	25070.21
505.982	25031.3
506.185	25725.56
506.387	25877.11
506.59	25881.21
506.793	26536.56
506.996	26630.76
507.198	26749.54
507.401	27040.36
507.604	27392.61
507.807	27681.37
508.009	27732.57
508.212	28254.8
508.415	28811.85
508.617	28703.31
508.82	28975.69
509.022	28768.84
509.225	29585.98
509.428	29760.06
509.63	30138.93
509.833	30186.04
510.035	31062.57
510.238	30569.01
510.44	31058.47
510.643	31547.93
510.845	31582.75
511.048	31586.85
511.25	32221.72
511.453	32354.83
511.655	33473.03
511.858	32952.84
512.06	32926.22
512.262	33540.61
512.465	33677.82
512.667	34343.41
512.87	34351.6
513.072	34449.91
513.274	35074.54
513.477	35455.46
513.679	35518.95
513.881	35776.99
514.084	36286.93
514.286	36205.02
514.488	36669.9
514.69	37700.03
514.893	37247.43
515.095	37591.49
515.297	38089.15
515.499	38252.98
515.701	38556.08
515.904	38961.58
516.106	39500.2
516.308	39356.84
516.51	40198.55
516.712	39625.12
516.914	40280.47
517.116	40896.91
517.318	41066.89
517.52	41240.97
517.722	41322.89
517.925	41650.56
518.127	42387.83
518.329	42678.64
518.531	42314.11
518.733	42959.22
518.935	43469.16
519.136	43487.59
519.338	43374.95
519.54	43647.33
519.742	44611.93
519.944	44743
520.146	45400.4
520.348	45470.03
520.55	45574.47
520.752	45531.47
520.954	46483.77
521.155	46027.07
521.357	46833.97
521.559	47014.19
521.761	47700.26
521.963	47626.54
522.164	47685.93
522.366	47700.26
522.568	48193.82
522.77	48435.48
522.971	48916.76
523.173	48560.41
523.375	49262.86
523.576	49289.49
523.778	49051.92
523.98	50229.51
524.181	50080
524.383	49903.88
524.584	50370.82
524.786	50706.68
524.988	50432.25
525.189	51163.38
525.391	51108.08
525.592	51505.39
525.794	51423.47
525.995	51243.25
526.197	51382.51
526.398	51665.13
526.6	51808.49
526.801	52095.21
527.003	52453.6
527.204	52611.29
527.406	52902.1
527.607	52916.44
527.808	53041.37
528.01	52187.36
528.211	53098.71
528.412	53575.89
528.614	53596.37
528.815	53543.12
529.016	53872.84
529.218	53383.38
529.419	54016.2
529.62	53526.74
529.822	53971.14
530.023	53954.76
530.224	54221
530.425	53801.16
530.626	53747.92
530.828	54159.56
531.029	54536.38
531.23	53977.29
531.431	54188.23
531.632	54196.42
531.833	54386.88
532.035	54569.15
532.236	54431.94
532.437	54653.12
532.638	54266.05
532.839	54249.67
533.04	54655.17
533.241	53946.57
533.442	54606.01
533.643	54575.3
533.844	54558.91
534.045	54679.74
534.246	53938.38
534.447	54743.23
534.648	54384.83
534.849	54679.74
535.05	54118.6
535.251	54773.95
535.451	53989.58
535.652	54501.57
535.853	54425.79
536.054	54274.24
536.255	54722.75
536.456	54104.26
536.657	55158.97
536.857	54495.42
537.058	54182.09
537.259	54272.2
537.46	54702.27
537.66	54329.54
537.861	54239.43
538.062	53958.86
538.263	54454.47
538.463	54067.4
538.664	54307.01
538.865	54483.14
539.065	54649.02
539.266	54024.39
539.466	54522.05
539.667	53924.04
539.868	54700.22
540.068	54397.12
540.269	54313.16
540.469	54302.92
540.67	54102.21
540.87	53993.67
541.071	54073.54
541.271	54495.42
541.472	54001.86
541.672	53995.72
541.873	53844.17
542.073	53424.34
542.274	54735.04
542.474	53926.09
542.675	53600.46
542.875	54110.41
543.075	53895.37
543.276	53197.01
543.476	53928.14
543.676	53211.35
543.877	53932.23
544.077	53747.92
544.277	53506.26
544.478	53422.29
544.678	53868.75
544.878	53323.99
545.078	53539.02
545.279	53563.6
545.479	53571.79
545.679	53772.49
545.879	53358.8
546.079	53528.78
546.28	53364.95
546.48	53272.79
546.68	53293.27
546.88	53614.8
547.08	53608.65
547.28	53461.2
547.48	53350.61
547.68	53389.52
547.88	53084.37
548.081	53749.96
548.281	53444.82
548.481	52699.36
548.681	53590.22
548.881	52936.92
549.081	53031.13
549.28	52717.79
549.48	53289.17
549.68	53387.47
549.88	53729.48
550.08	52963.54
550.28	53035.22
550.48	52658.4
550.68	53127.38
550.88	52730.08
551.08	53180.63
551.279	52928.73
551.479	52842.71
551.679	52910.3
551.879	53242.07
552.079	53024.98
552.278	52441.31
552.478	52805.85
552.678	52582.62
552.878	52893.91
553.077	52568.29
553.277	52492.51
553.477	53158.1
553.676	52529.37
553.876	52766.94
554.076	52588.77
554.275	52216.04
554.475	52275.43
554.674	52705.5
554.874	52631.77
555.074	52226.28
555.273	52537.57
555.473	52699.36
555.672	52195.56
555.872	52105.44
556.071	52191.46
556.271	52469.98
556.47	51970.28
556.67	51355.89
556.869	51751.15
557.068	52472.03
557.268	51669.23
557.467	52304.1
557.667	52173.03
557.866	51878.12
558.065	51837.16
558.265	51771.63
558.464	51327.22
558.663	52050.15
558.863	51210.48
559.062	52244.71
559.261	51169.52
559.461	52021.48
559.66	51175.67
559.859	51235.06
560.058	51116.28
560.258	51425.52
560.457	50559.23
560.656	51558.64
560.855	51177.72
561.054	51210.48
561.253	50247.94
561.453	51208.43
561.652	51005.69
561.851	51005.69
562.05	50837.75
562.249	50422.01
562.448	50860.28
562.647	50526.46
562.846	50249.99
563.045	50579.71
563.244	50168.07
563.443	50710.78
563.642	50041.09
563.841	50284.8
564.04	50284.8
564.239	50782.46
564.438	49955.08
564.637	49723.66
564.836	50364.67
565.035	49582.35
565.234	49985.8
565.432	49654.03
565.631	49492.24
565.83	49647.88
566.029	49522.96
566.228	49715.47
566.427	49477.9
566.625	48937.24
566.824	49383.69
567.023	49506.57
567.222	48742.68
567.42	49133.84
567.619	49391.89
567.818	48957.72
568.016	48890.13
568.215	49035.54
568.414	49019.16
568.612	49111.31
568.811	48541.98
569.01	48810.26
569.208	48169.25
569.407	48625.95
569.605	47941.92
569.804	48410.91
570.002	47876.39
570.201	48345.37
570.4	47470.89
570.598	48052.51
570.797	47724.84
570.995	48169.25
571.193	47018.29
571.392	47796.52
571.59	47216.94
571.789	47599.91
571.987	47141.17
572.186	47208.75
572.384	47120.69
572.582	47233.33
572.781	47647.02
572.979	46344.51
573.177	46942.52
573.376	47057.2
573.574	46580.03
573.772	47069.49
573.971	46446.91
574.169	46123.33
574.367	46004.55
574.565	46422.33
574.763	46143.81
574.962	46545.21
575.16	45896
575.358	45873.48
575.556	45244.75
575.754	46336.32
575.952	45603.14
576.151	45861.19
576.349	45695.3
576.547	45451.59
576.745	45158.73
576.943	45136.21
577.141	45166.93
577.339	45082.96
577.537	45197.65
577.735	44706.13
577.933	44347.74
578.131	45119.82
578.329	44613.98
578.527	44298.59
578.725	44411.23
578.923	44841.3
579.121	44538.2
579.319	44317.02
579.516	44407.13
579.714	44167.52
579.912	43614.57
580.11	44007.78
580.308	44159.33
580.506	43977.06
580.704	43090.29
580.901	43786.6
581.099	43786.6
581.297	43280.75
581.495	42887.54
581.692	43221.36
581.89	42989.94
582.088	43940.19
582.285	43094.38
582.483	43145.58
582.681	42754.42
582.878	42709.36
583.076	42293.63
583.274	42643.83
583.471	42094.97
583.669	42479.99
583.866	41736.58
584.064	42047.87
584.262	41494.92
584.459	42596.73
584.657	41625.99
584.854	41998.72
585.052	41085.33
585.249	41601.41
585.447	41243.02
585.644	41269.64
585.841	41326.99
586.039	41369.99
586.236	40870.29
586.434	40661.4
586.631	40665.49
586.828	40548.76
587.026	40417.69
587.223	40409.5
587.42	39950.75
587.618	40839.57
587.815	40032.67
588.012	39926.17
588.21	39741.86
588.407	40171.93
588.604	39827.87
588.801	39184.81
588.999	39403.94
589.196	39365.03
589.393	39412.13
589.59	39086.51
589.787	39154.09
589.984	39309.74
590.182	38517.17
590.379	38574.52
590.576	38293.94
590.773	38666.67
590.97	38513.08
591.167	38263.22
591.364	38146.49
591.561	38330.81
591.758	38150.59
591.955	37947.84
592.152	38021.56
592.349	37876.16
592.546	37884.35
592.743	37898.69
592.94	37224.9
593.137	36886.99
593.334	37691.84
593.531	37018.06
593.727	36774.35
593.924	37040.59
594.121	36614.61
594.318	36907.47
594.515	36377.04
594.712	37001.68
594.908	36399.57
595.105	36536.79
595.302	36053.47
595.499	36256.21
595.696	36229.59
595.892	35998.17
596.089	36028.89
596.286	35840.48
596.482	35832.29
596.679	36002.27
596.876	35432.93
597.072	35305.96
597.269	35488.23
597.466	35396.07
597.662	35154.41
597.859	35334.63
598.055	35017.19
598.252	34947.56
598.448	34601.46
598.645	34742.77
598.841	34228.73
599.038	34660.85
599.234	34800.11
599.431	34017.78
599.627	34245.11
599.824	34236.92
600.02	33851.9
600.217	34281.97
600.413	33735.17
600.609	33606.14
600.806	33671.68
601.002	33458.69
601.198	33245.7
601.395	33225.22
601.591	33085.96
601.787	33176.07
601.984	32672.27
602.18	33473.03
602.376	32725.52
602.572	32649.74
602.769	32645.65
602.965	32469.52
603.161	32291.35
603.357	32336.4
603.553	32133.65
603.75	31939.1
603.946	31808.03
604.142	32006.68
604.338	31529.5
604.534	31949.34
604.73	31676.96
604.926	31492.64
605.122	31812.12
605.318	31326.75
605.514	31144.48
605.71	31148.58
605.906	31160.87
606.102	31328.8
606.298	31134.24
606.494	31134.24
606.69	30902.82
606.886	30939.69
607.082	30489.13
607.278	30677.55
607.474	30370.35
607.67	30896.68
607.866	30294.58
608.062	30765.61
608.257	30566.96
608.453	30163.51
608.649	30618.16
608.845	29948.47
609.041	30059.06
609.236	29979.19
609.432	29751.87
609.628	29991.48
609.824	29895.22
610.019	30032.44
610.215	29561.4
610.411	29708.86
610.606	29913.66
610.802	29782.59
610.998	29592.12
611.193	29510.21
611.389	29514.3
611.584	29545.02
611.78	28969.54
611.976	29102.66
612.171	29358.66
612.367	29176.39
612.562	28985.93
612.758	28772.94
612.953	28918.34
613.149	29465.15
613.344	28754.51
613.539	29280.83
613.735	28605
613.93	28824.14
614.126	28809.8
614.321	28922.44
614.517	28543.56
614.712	28590.67
614.907	28596.81
615.103	28867.14
615.298	28392.01
615.493	28746.31
615.688	28043.86
615.884	28832.33
616.079	28019.28
616.274	28445.26
616.47	28150.35
616.665	28328.53
616.86	27937.37
617.055	27759.19
617.25	27882.07
617.445	27849.3
617.641	27656.79
617.836	28058.2
618.031	27265.63
618.226	27724.38
618.421	27378.27
618.616	27486.81
618.811	26847.85
619.006	27417.18
619.201	27007.59
619.396	27353.69
619.591	26597.99
619.786	26866.28
619.981	26397.29
620.176	26968.68
620.371	26452.59
620.566	26440.3
620.761	26182.26
620.956	26298.99
621.151	25930.36
621.346	25860.73
621.541	25723.51
621.735	25617.02
621.93	25324.16
622.125	25215.62
622.32	24971.91
622.515	25459.32
622.709	24834.69
622.904	25184.9
623.099	24973.95
623.294	24953.48
623.488	24195.73
623.683	24339.08
623.878	24285.84
624.072	24392.33
624.267	24107.66
624.462	24124.05
624.656	23546.52
624.851	23964.31
625.046	23612.06
625.24	23542.42
625.435	23403.16
625.629	23419.55
625.824	22950.56
626.018	23364.25
626.213	22381.23
626.407	22792.87
626.602	22481.58
626.796	22583.98
626.991	22239.92
627.185	22297.26
627.38	22348.46
627.574	22033.07
627.768	21619.38
627.963	21752.5
628.157	21713.59
628.352	21766.84
628.546	21338.81
628.74	21641.91
628.935	21004.99
629.129	21242.56
629.323	21056.19
629.517	20624.07
629.712	20914.88
629.906	20589.25
630.1	20144.84
630.294	20480.71
630.489	20269.77
630.683	20257.48
630.877	19790.55
631.071	19768.02
631.265	19974.86
631.459	19851.99
631.653	19753.68
631.848	19587.8
632.042	19763.92
632.236	19530.45
632.43	19264.22
632.624	19272.41
632.818	19358.42
633.012	18948.83
633.206	19026.65
633.4	19215.07
633.594	18641.64
633.788	18705.12
633.982	18567.91
634.176	18463.46
634.369	18492.13
634.563	18596.58
634.757	18174.7
634.951	18422.5
635.145	18193.13
635.339	18060.01
635.533	17718
635.726	17974
635.92	17451.77
636.114	17593.08
636.308	17699.57
636.501	17650.42
636.695	17294.07
636.889	17033.98
637.083	16970.49
637.276	16913.15
637.47	16933.63
637.664	16884.48
637.857	16732.93
638.051	16765.7
638.244	16546.56
638.438	16452.36
638.632	16319.24
638.825	16306.95
639.019	16274.18
639.212	16241.42
639.406	16331.53
639.599	16034.57
639.793	15966.99
639.986	15524.63
640.18	15917.84
640.373	15862.54
640.567	15629.07
640.76	15565.59
640.954	15403.8
641.147	15344.41
641.34	15260.44
641.534	15231.77
641.727	15211.29
641.92	15155.99
642.114	14889.76
642.307	14852.89
642.5	14557.99
642.694	14682.91
642.887	14875.42
643.08	14764.83
643.273	14416.68
643.467	14621.47
643.66	14170.92
643.853	14355.24
644.046	14197.54
644.239	13996.84
644.432	14052.14
644.626	13890.35
644.819	13740.85
645.012	13916.97
645.205	13777.71
645.398	13859.63
645.591	13517.62
645.784	13749.04
645.977	13599.54
646.17	13568.82
646.363	13183.8
646.556	13349.68
646.749	13271.86
646.942	13361.97
647.135	12921.66
647.328	13079.35
647.521	13013.82
647.714	13177.65
647.907	12776.25
648.099	12684.09
648.292	12778.3
648.485	12868.41
648.678	12559.17
648.871	12507.97
649.064	12483.39
649.256	12630.85
649.449	12165.96
649.642	12307.27
649.835	11973.45
650.027	12208.97
650.22	12057.42
650.413	12159.81
650.605	11899.72
650.798	12102.47
650.991	11711.31
651.183	11899.72
651.376	11903.82
651.568	11821.9
651.761	11653.97
651.954	11653.97
652.146	11500.37
652.339	11567.95
652.531	11428.69
652.724	11156.31
652.916	11166.55
653.109	11293.52
653.301	11150.17
653.494	11264.85
653.686	10941.27
653.879	10961.75
654.071	11049.82
654.263	10656.61
654.456	10734.43
654.648	10992.47
654.84	10500.96
655.033	10527.58
655.225	10359.65
655.417	10318.69
655.61	10296.16
655.802	10498.91
655.994	10380.13
656.186	10269.54
656.379	10443.62
656.571	10306.4
656.763	10353.51
656.955	10064.74
657.148	10072.93
657.34	10036.07
657.532	9769.83
657.724	9845.61
657.916	9864.04
658.108	9784.17
658.3	9562.99
658.492	9769.83
658.684	9593.71
658.876	9677.68
659.068	9616.24
659.26	9546.61
659.452	9497.46
659.644	9223.03
659.836	9341.81
660.028	9263.99
660.22	9046.9
660.412	9153.4
660.604	9036.66
660.796	9165.68
660.988	9048.95
661.18	9028.47
661.372	9001.85
661.563	8848.25
661.755	8911.74
661.947	9014.13
662.139	8760.19
662.331	8649.6
662.522	8647.55
662.714	8559.49
662.906	8549.25
663.097	8350.59
663.289	8487.81
663.481	8340.35
663.673	8436.61
663.864	8330.11
664.056	8319.87
664.247	8207.23
664.439	8037.25
664.631	8176.52
664.822	8440.7
665.014	8072.07
665.205	7910.28
665.397	7951.24
665.588	8092.55
665.78	7988.1
665.971	8031.11
666.163	8018.82
666.354	7744.39
666.546	7717.77
666.737	7891.85
666.929	7758.73
667.12	7730.06
667.311	7642
667.503	7664.52
667.694	7496.59
667.885	7590.8
668.077	7396.24
668.268	7416.72
668.459	7396.24
668.651	7353.23
668.842	7367.57
669.033	7299.98
669.224	7291.79
669.416	7281.55
669.607	7123.86
669.798	7021.46
669.989	7238.55
670.18	7209.87
670.371	7099.28
670.563	7015.32
670.754	6921.11
670.945	6790.04
671.136	6810.52
671.327	6876.06
671.518	6884.25
671.709	6767.51
671.9	6787.99
672.091	6792.09
672.282	6841.24
672.473	6575
672.664	6996.89
672.855	6765.46
673.046	6626.2
673.237	6683.55
673.428	6613.92
673.619	6556.57
673.809	6556.57
674	6566.81
674.191	6613.92
674.382	6521.76
674.573	6493.08
674.764	6503.32
674.954	6454.17
675.145	6349.73
675.336	6282.14
675.527	6327.2
675.717	6200.23
675.908	6228.9
676.099	6243.23
676.289	6108.07
676.48	6194.08
676.671	5999.52
676.861	6216.61
677.052	6032.29
677.243	6007.72
677.433	6056.87
677.624	6036.39
677.814	5956.52
678.005	6026.15
678.195	5942.18
678.386	5876.65
678.576	5856.17
678.767	5829.54
678.957	5825.45
679.148	5948.33
679.338	5862.31
679.529	5723.05
679.719	5831.59
679.909	5727.14
680.1	5688.23
680.29	5768.1
680.481	5591.98
680.671	5813.16
680.861	5698.47
681.052	5780.39
681.242	5647.27
681.432	5792.68
681.622	5591.98
681.813	5538.73
682.003	5479.34
682.193	5475.24
682.383	5675.95
682.573	5663.66
682.764	5415.85
682.954	5596.07
683.144	5467.05
683.334	5286.83
683.524	5505.96
683.714	5548.97
683.904	5358.51
684.094	5407.66
684.284	5247.92
684.474	5249.97
684.664	5331.89
684.854	5350.32
685.044	5270.45
685.234	5135.28
685.424	5233.58
685.614	5145.52
685.804	5381.04
685.994	5120.95
686.184	5204.91
686.374	5229.49
686.564	5213.1
686.753	5008.31
686.943	5116.85
687.133	4879.29
687.323	5168.05
687.513	5014.45
687.702	4869.05
687.892	4834.23
688.082	4682.68
688.272	4936.63
688.461	4838.33
688.651	4910.01
688.841	4803.51
689.03	4815.8
689.22	4834.23
689.41	4797.37
689.599	4862.9
689.789	4518.84
689.979	4711.35
690.168	4660.15
690.358	4750.26
690.547	4617.15
690.737	4506.56
690.926	4709.3
691.116	4602.81
691.305	4588.47
691.495	4469.69
691.684	4451.26
691.874	4496.32
692.063	4506.56
692.252	4494.27
692.442	4412.35
692.631	4385.73
692.82	4432.83
693.01	4316.09
693.199	4268.99
693.388	4094.91
693.578	4221.89
693.767	4187.07
693.956	4277.18
694.146	4223.94
694.335	4152.26
694.524	4129.73
694.713	4162.5
694.902	4131.78
695.092	4174.78
695.281	4060.1
695.47	4135.87
695.659	4082.63
695.848	4072.39
696.037	3873.73
696.226	3926.98
696.415	3969.99
696.604	3939.27
696.793	3933.12
696.982	3871.68
697.171	4002.75
697.36	3716.04
697.549	3916.74
697.738	3869.64
697.927	3826.63
698.116	3922.88
698.305	3847.11
698.494	3771.33
698.683	3754.95
698.872	3797.96
699.061	3636.17
699.25	3646.41
699.438	3656.65
699.627	3765.19
699.816	3673.03
700.005	3732.42
700.193	3697.61
700.382	3627.98
700.571	3705.8
700.76	3627.98
700.948	3732.42
701.137	3595.21
701.326	3535.82
701.514	3501
701.703	3552.2
701.892	3531.72
702.08	3568.59
702.269	3449.8
702.457	3447.76
702.646	3476.43
702.834	3443.66
703.023	3396.56
703.212	3429.32
703.4	3460.04
703.589	3460.04
703.777	3455.95
703.965	3363.79
704.154	3308.49
704.342	3400.65
704.531	3367.88
704.719	3347.4
704.907	3365.84
705.096	3273.68
705.284	3304.4
705.472	3242.96
705.661	3374.03
705.849	3331.02
706.037	3339.21
706.226	3228.62
706.414	3288.01
706.602	3435.47
706.79	3251.15
706.979	3312.59
707.167	3251.15
707.355	3140.56
707.543	3210.19
707.731	3187.66
707.919	3171.28
708.107	3259.34
708.296	3199.95
708.484	3150.8
708.672	3132.37
708.86	3238.86
709.048	3275.73
709.236	3056.59
709.424	3206.1
709.612	3115.98
709.8	3029.97
709.988	3134.42
710.176	3187.66
710.364	3224.53
710.551	3171.28
710.739	3060.69
710.927	3107.79
711.115	3007.44
711.303	3134.42
711.491	3150.8
711.679	3029.97
711.866	3085.26
712.054	2995.15
712.242	3136.46
712.43	3193.81
712.617	3009.49
712.805	3027.92
712.993	3054.55
713.181	2980.82
713.368	3132.37
713.556	3046.35
713.744	2976.72
713.931	2980.82
714.119	3017.68
714.306	3068.88
714.494	2929.62
714.682	2995.15
714.869	2909.14
715.057	3009.49
715.244	2962.39
715.432	2911.19
715.619	2976.72
715.807	2939.86
715.994	3044.31
716.182	2933.72
716.369	3058.64
716.556	3007.44
716.744	2939.86
716.931	2921.43
717.119	2966.48
717.306	3038.16
717.493	2968.53
717.681	2999.25
717.868	2880.47
718.055	2941.91
718.242	2958.29
718.43	2909.14
718.617	3070.93
718.804	2816.98
718.991	2941.91
719.179	2946
719.366	2788.31
719.553	2911.19
719.74	2978.77
719.927	2825.17
720.114	2825.17
720.301	2872.28
720.488	2792.41
720.676	2923.48
720.863	2907.09
721.05	2839.51
721.237	2851.8
721.424	2941.91
721.611	2841.56
721.798	2773.97
721.985	2747.35
722.172	2751.45
722.358	3017.68
722.545	2843.6
722.732	2802.65
722.919	2929.62
723.106	2845.65
723.293	2806.74
723.48	2747.35
723.667	2792.41
723.853	2847.7
724.04	2825.17
724.227	2952.15
724.414	2882.52
724.6	2843.6
724.787	2898.9
724.974	2802.65
725.161	2868.18
725.347	2925.52
725.534	2886.61
725.72	2937.81
725.907	2786.26
726.094	2784.21
726.28	2790.36
726.467	2911.19
726.653	2735.06
726.84	2741.21
727.027	2763.73
727.213	2737.11
727.4	2819.03
727.586	2819.03
727.773	2886.61
727.959	2843.6
728.145	2704.34
728.332	2837.46
728.518	2923.48
728.705	2745.3
728.891	2755.54
729.077	2890.71
729.264	2763.73
729.45	2773.97
729.636	2747.35
729.823	2915.28
730.009	2946
730.195	2894.8
730.382	2847.7
730.568	2730.97
730.754	2778.07
730.94	2929.62
731.126	2931.67
731.313	2759.64
731.499	2882.52
731.685	2921.43
731.871	2890.71
732.057	2886.61
732.243	3044.31
732.429	2827.22
732.615	2833.36
732.801	2864.08
732.987	2933.72
733.173	2868.18
733.359	2796.5
733.545	2763.73
733.731	2812.89
733.917	2903
734.103	2806.74
734.289	2784.21
734.475	2692.05
734.661	2972.63
734.847	2972.63
735.033	2855.89
735.219	2872.28
735.404	2890.71
735.59	2700.25
735.776	2827.22
735.962	3054.55
736.148	2890.71
736.333	2886.61
736.519	2909.14
736.705	2804.69
736.89	2851.8
737.076	2966.48
737.262	2935.76
737.447	2960.34
737.633	2941.91
737.819	2821.08
738.004	2771.93
738.19	2841.56
738.375	2896.85
738.561	2896.85
738.747	2823.12
738.932	2923.48
739.118	2980.82
739.303	2868.18
739.489	2872.28
739.674	2751.45
739.859	2960.34
740.045	2915.28
740.23	2913.24
740.416	2642.9
740.601	2976.72
740.786	2806.74
740.972	2767.83
741.157	2833.36
741.342	2786.26
741.528	3029.97
741.713	2890.71
741.898	2819.03
742.084	2814.93
742.269	2923.48
742.454	2841.56
742.639	2980.82
742.824	2706.39
743.01	2821.08
743.195	2921.43
743.38	2761.69
743.565	2837.46
743.75	2845.65
743.935	2724.82
744.12	2896.85
744.305	2720.73
744.49	2767.83
744.675	2694.1
744.86	2712.53
745.045	2632.66
745.23	2728.92
745.415	2728.92
745.6	2649.05
745.785	2601.94
745.97	2726.87
746.155	2577.37
746.34	2610.14
746.525	2610.14
746.71	2776.02
746.895	2649.05
747.079	2677.72
747.264	2712.53
747.449	2649.05
747.634	2587.61
747.819	2683.86
748.003	2513.88
748.188	2524.12
748.373	2599.9
748.557	2681.82
748.742	2552.79
748.927	2487.26
749.111	2544.6
749.296	2620.38
749.481	2587.61
749.665	2464.73
749.85	2493.4
750.034	2388.96
750.219	2407.39
750.404	2274.27
750.588	2460.63
750.773	2350.04
750.957	2468.83
751.141	2411.48
751.326	2313.18
751.51	2284.51
751.695	2284.51
751.879	2348
752.064	2370.52
752.248	2331.61
752.432	2399.2
752.617	2196.45
752.801	2364.38
752.985	2325.47
753.17	2407.39
753.354	2261.98
753.538	2243.55
753.722	2206.69
753.907	2153.44
754.091	2098.14
754.275	2216.93
754.459	2171.87
754.643	2149.34
754.828	2208.73
755.012	2145.25
755.196	2186.21
755.38	1952.74
755.564	2094.05
755.748	2063.33
755.932	2075.62
756.116	2053.09
756.3	2063.33
756.484	1993.7
756.668	2016.23
756.852	2126.82
757.036	1995.75
757.22	1926.11
757.404	2003.94
757.588	1936.35
757.772	1960.93
757.956	1985.51
758.14	1946.59
758.323	2001.89
758.507	1866.72
758.691	1950.69
758.875	1797.09
759.059	1905.63
759.242	1801.19
759.426	1815.52
759.61	1846.24
759.794	1815.52
759.977	1903.59
760.161	1850.34
760.345	1784.8
760.528	1905.63
760.712	1653.73
760.895	1815.52
761.079	1809.38
761.263	1723.37
761.446	1733.61
761.63	1727.46
761.813	1616.87
761.997	1618.92
762.18	1772.52
762.364	1676.26
762.547	1635.3
762.731	1678.31
762.914	1672.17
763.098	1584.1
763.281	1682.41
763.464	1649.64
763.648	1635.3
763.831	1739.75
764.015	1563.62
764.198	1647.59
764.381	1690.6
764.564	1584.1
764.748	1727.46
764.931	1588.2
765.114	1481.71
765.297	1496.04
765.481	1616.87
765.664	1502.19
765.847	1522.66
766.03	1516.52
766.213	1491.95
766.397	1577.96
766.58	1485.8
766.763	1610.73
766.946	1537
767.129	1516.52
767.312	1580.01
767.495	1436.65
767.678	1520.62
767.861	1465.32
768.044	1516.52
768.227	1571.82
768.41	1465.32
768.593	1477.61
768.776	1463.27
768.959	1545.19
769.142	1526.76
769.324	1442.79
769.507	1373.16
769.69	1414.12
769.873	1385.45
770.056	1459.18
770.239	1358.83
770.421	1428.46
770.604	1477.61
770.787	1395.69
770.97	1324.01
771.152	1405.93
771.335	1362.92
771.518	1371.12
771.7	1403.88
771.883	1383.4
772.066	1309.68
772.248	1444.84
772.431	1311.72
772.613	1387.5
772.796	1276.91
772.978	1305.58
773.161	1321.96
773.343	1301.48
773.526	1270.76
773.708	1170.41
773.891	1151.98
774.073	1248.24
774.256	1295.34
774.438	1389.55
774.621	1186.8
774.803	1276.91
774.985	1274.86
775.168	1197.04
775.35	1211.37
775.532	1186.8
775.715	1219.57
775.897	1133.55
776.079	1137.65
776.261	1115.12
776.444	1186.8
776.626	1051.63
776.808	1082.35
776.99	1088.5
777.173	1094.64
777.355	1127.41
777.537	1068.02
777.719	1068.02
777.901	1000.43
778.083	1031.15
778.265	1113.07
778.447	1035.25
778.629	1051.63
778.811	1033.2
778.993	1045.49
779.175	1051.63
779.357	1012.72
779.539	1006.58
779.721	975.86
779.903	1043.44
780.085	934.9
780.267	996.34
780.449	971.76
780.631	975.86
780.812	930.8
780.994	934.9
781.176	877.55
781.358	934.9
781.54	928.75
781.721	904.18
781.903	926.71
782.085	867.31
782.267	906.23
782.448	809.97
782.63	816.12
782.812	889.84
782.993	920.56
783.175	836.6
783.357	848.88
783.538	910.32
783.72	750.58
783.901	824.31
784.083	887.79
784.264	814.07
784.446	838.64
784.627	744.44
784.809	859.12
784.99	781.3
785.172	723.96
785.353	701.43
785.535	744.44
785.716	812.02
785.897	656.37
786.079	683
786.26	699.38
786.441	738.29
786.623	723.96
786.804	674.81
786.985	799.73
787.167	642.04
787.348	676.85
787.529	670.71
787.71	740.34
787.891	652.28
788.073	648.18
788.254	574.46
788.435	644.09
788.616	668.66
788.797	648.18
788.978	668.66
789.159	625.65
789.34	678.9
789.522	537.59
789.703	609.27
789.884	717.81
790.065	596.98
790.246	584.7
790.427	666.61
790.607	674.81
790.788	562.17
790.969	556.02
791.15	607.22
791.331	541.69
791.512	592.89
791.693	556.02
791.874	545.78
792.054	705.53
792.235	603.13
792.416	510.97
792.597	480.25
792.778	502.78
792.958	543.74
793.139	570.36
793.32	562.17
793.5	541.69
793.681	517.11
793.862	594.93
794.042	508.92
794.223	494.58
794.404	472.06
794.584	470.01
794.765	596.98
794.945	482.3
795.126	504.82
795.306	504.82
795.487	445.43
795.667	420.86
795.848	506.87
796.028	519.16
796.209	461.82
796.389	496.63
796.57	359.42
796.75	451.58
796.93	416.76
797.111	455.67
797.291	402.43
797.471	422.91
797.652	422.91
797.832	461.82
798.012	486.39
798.192	414.71
798.373	500.73
798.553	429.05
798.733	437.24
798.913	404.47
799.093	451.58
799.274	367.61
799.454	420.86
799.634	373.75
799.814	377.85
799.994	427
800.174	394.23
800.354	388.09
800.534	414.71
800.714	347.13
800.894	295.93
801.074	381.95
801.254	363.51
801.434	373.75
801.614	408.57
801.794	263.16
801.974	1008.62
802.154	357.37
802.334	355.32
802.514	361.47
802.693	400.38
802.873	332.79
803.053	410.62
803.233	398.33
803.413	420.86
803.592	345.08
803.772	326.65
803.952	371.71
804.131	345.08
804.311	351.23
804.491	353.27
804.67	310.27
804.85	293.88
805.03	340.99
805.209	302.08
805.389	429.05
805.568	320.51
805.748	297.98
805.928	291.84
806.107	373.75
806.287	379.9
806.466	314.36
806.646	343.03
806.825	279.55
807.004	263.16
807.184	353.27
807.363	324.6
807.543	316.41
807.722	238.59
807.901	353.27
808.081	293.88
808.26	211.96
808.439	330.75
808.619	220.16
808.798	244.73
808.977	279.55
809.156	261.12
809.336	240.64
809.515	279.55
809.694	326.65
809.873	183.29
810.052	302.08
810.231	279.55
810.411	328.7
810.59	328.7
810.769	238.59
810.948	214.01
811.127	240.64
811.306	218.11
811.485	216.06
811.664	367.61
811.843	357.37
812.022	283.64
812.201	269.31
812.38	275.45
812.559	191.49
812.737	234.49
812.916	209.92
813.095	257.02
813.274	302.08
813.453	226.3
813.632	199.68
813.811	343.03
813.989	191.49
814.168	265.21
814.347	269.31
814.526	269.31
814.704	211.96
814.883	291.84
815.062	218.11
815.24	207.87
815.419	257.02
815.598	197.63
815.776	209.92
815.955	183.29
816.133	175.1
816.312	226.3
816.49	214.01
816.669	267.26
816.847	220.16
817.026	203.77
817.204	171.01
817.383	166.91
817.561	199.68
817.74	279.55
817.918	211.96
818.097	173.05
818.275	216.06
818.453	214.01
818.632	201.72
818.81	97.28
818.988	189.44
819.167	277.5
819.345	248.83
819.523	222.2
819.701	181.25
819.879	209.92
820.058	209.92
820.236	191.49
820.414	189.44
820.592	244.73
820.77	209.92
820.948	240.64
821.127	117.76
821.305	203.77
821.483	197.63
821.661	285.69
821.839	238.59
822.017	214.01
822.195	109.57
822.373	209.92
822.551	195.58
822.729	252.92
822.907	142.33
823.085	226.3
823.262	185.34
823.44	113.66
823.618	150.53
823.796	185.34
823.974	140.29
824.152	164.86
824.329	136.19
824.507	199.68
824.685	171.01
824.863	121.85
825.04	150.53
825.218	177.15
825.396	152.57
825.574	232.44
825.751	101.37
825.929	173.05
826.107	119.81
826.284	154.62
826.462	121.85
826.639	168.96
826.817	154.62
826.994	107.52
827.172	148.48
827.349	205.82
827.527	156.67
827.704	121.85
827.882	123.9
828.059	150.53
828.237	99.33
828.414	171.01
828.591	125.95
828.769	193.53
828.946	142.33
829.124	189.44
829.301	154.62
829.478	117.76
829.655	150.53
829.833	80.89
830.01	68.61
830.187	162.81
830.364	109.57
830.542	183.29
830.719	154.62
830.896	171.01
831.073	179.2
831.25	152.57
831.427	109.57
831.604	76.8
831.782	115.71
831.959	173.05
832.136	103.42
832.313	132.09
832.49	103.42
832.667	130.05
832.844	89.09
833.021	142.33
833.198	78.85
833.374	162.81
833.551	128
833.728	29.7
833.905	140.29
834.082	52.22
834.259	160.77
834.436	201.72
834.612	78.85
834.789	224.25
834.966	189.44
835.143	93.18
835.319	44.03
835.496	160.77
835.673	62.46
835.85	78.85
836.026	62.46
836.203	123.9
836.38	82.94
836.556	158.72
836.733	109.57
836.909	177.15
837.086	99.33
837.262	152.57
837.439	156.67
837.616	103.42
837.792	54.27
837.968	103.42
838.145	87.04
838.321	27.65
838.498	31.74
838.674	101.37
838.851	39.94
839.027	138.24
839.203	113.66
839.38	93.18
839.556	158.72
839.732	144.38
839.909	41.98
840.085	119.81
840.261	-15.36
840.437	74.75
840.614	17.41
840.79	35.84
840.966	64.51
841.142	148.48
841.318	74.75
841.494	111.61
841.671	189.44
841.847	60.42
842.023	74.75
842.199	52.22
842.375	35.84
842.551	39.94
842.727	9.22
842.903	80.89
843.079	70.65
843.255	136.19
843.431	27.65
843.607	87.04
843.783	9.22
843.959	21.5
844.134	56.32
844.31	48.13
844.486	142.33
844.662	50.18
844.838	33.79
845.013	109.57
845.189	136.19
845.365	101.37
845.541	105.47
845.716	56.32
845.892	7.17
846.068	109.57
846.244	54.27
846.419	76.8
846.595	56.32
846.77	37.89
846.946	95.23
847.122	123.9
847.297	39.94
847.473	138.24
847.648	19.46
847.824	89.09
847.999	29.7
848.175	35.84
848.35	39.94
848.526	31.74
848.701	39.94
848.876	111.61
849.052	50.18
849.227	68.61
849.403	39.94
849.578	72.7
849.753	-9.22
849.929	33.79
850.104	-21.5
850.279	87.04
850.454	60.42
850.63	109.57
850.805	31.74
850.98	140.29
851.155	37.89
851.33	48.13
851.505	9.22
851.681	111.61
851.856	9.22
852.031	41.98
852.206	64.51
852.381	3.07
852.556	58.37
852.731	54.27
852.906	89.09
853.081	62.46
853.256	64.51
853.431	80.89
853.606	37.89
853.781	9.22
853.956	1.02
854.131	68.61
854.305	-31.74
854.48	19.46
854.655	78.85
854.83	50.18
855.005	101.37
855.18	48.13
855.354	-9.22
855.529	-1.02
855.704	-13.31
855.879	33.79
856.053	-64.51
856.228	95.23
856.403	95.23
856.577	7.17
856.752	56.32
856.926	46.08
857.101	119.81
857.276	21.5
857.45	29.7
857.625	142.33
857.799	70.65
857.974	11.26
858.148	15.36
858.323	-3.07
858.497	70.65
858.672	13.31
858.846	64.51
859.02	97.28
859.195	-19.46
859.369	95.23
859.543	119.81
859.718	64.51
859.892	101.37
860.066	60.42
860.241	-60.42
860.415	48.13
860.589	5.12
860.763	62.46
860.938	9.22
861.112	46.08
861.286	-21.5
861.46	41.98
861.634	70.65
861.808	62.46
861.982	84.99
862.157	17.41
862.331	-11.26
862.505	-9.22
862.679	3.07
862.853	80.89
863.027	44.03
863.201	50.18
863.375	31.74
863.549	19.46
863.722	50.18
863.896	72.7
864.07	-17.41
864.244	72.7
864.418	-5.12
864.592	33.79
864.766	101.37
864.939	44.03
865.113	-1.02
865.287	5.12
865.461	-27.65
865.634	17.41
865.808	7.17
865.982	11.26
866.156	31.74
866.329	62.46
866.503	17.41
866.676	3.07
866.85	62.46
867.024	95.23
867.197	48.13
867.371	80.89
867.544	31.74
867.718	-37.89
867.891	-13.31
868.065	39.94
868.238	25.6
868.412	31.74
868.585	60.42
868.759	35.84
868.932	58.37
869.105	64.51
869.279	44.03
869.452	-25.6
869.625	66.56
869.799	-7.17
869.972	-19.46
870.145	-107.52
870.319	37.89
870.492	72.7
870.665	107.52
870.838	35.84
871.011	-46.08
871.185	9.22
871.358	-3.07
871.531	-21.5
871.704	-62.46
871.877	-19.46
872.05	101.37
872.223	-25.6
872.396	78.85
872.569	-35.84
872.742	-66.56
872.915	74.75
873.088	21.5
873.261	5.12
873.434	-11.26
873.607	35.84
873.78	-21.5
873.953	1.02
874.126	60.42
874.299	7.17
874.471	3.07
874.644	27.65
874.817	-58.37
874.99	84.99
875.163	80.89
875.335	-39.94
875.508	19.46
875.681	46.08
875.853	-72.7
876.026	-44.03
876.199	-17.41
876.371	29.7
876.544	-78.85
876.717	3.07
876.889	-13.31
877.062	5.12
877.234	-11.26
877.407	-19.46
877.579	-29.7
877.752	62.46
877.924	27.65
878.097	56.32
878.269	-1.02
878.442	41.98
878.614	5.12
878.786	48.13
878.959	29.7
879.131	-25.6
879.303	-76.8
879.476	19.46
879.648	87.04
879.82	-7.17
879.993	7.17
880.165	-13.31
880.337	-35.84
880.509	-23.55
880.681	-54.27
880.854	1.02
881.026	33.79
881.198	41.98
881.37	76.8
881.542	27.65
881.714	25.6
881.886	70.65
882.058	-5.12
882.23	-62.46
882.402	5.12
882.574	11.26
882.746	29.7
882.918	78.85
883.09	109.57
883.262	25.6
883.434	39.94
883.606	11.26
883.778	-48.13
883.95	93.18
884.122	-91.13
884.293	97.28
884.465	35.84
884.637	111.61
884.809	9.22
884.98	17.41
885.152	78.85
885.324	17.41
885.496	-25.6
885.667	-44.03
885.839	-3.07
886.011	74.75
886.182	-19.46
886.354	21.5
886.525	-62.46
886.697	-19.46
886.869	44.03
887.04	70.65
887.212	37.89
887.383	-3.07
887.555	-25.6
887.726	41.98
887.897	3.07
888.069	-5.12
888.24	87.04
888.412	56.32
888.583	-23.55
888.754	39.94
888.926	-25.6
889.097	-13.31
889.268	-95.23
889.44	-48.13
889.611	-25.6
889.782	-9.22
889.953	15.36
890.125	44.03
890.296	-35.84
890.467	-19.46
890.638	-13.31
890.809	13.31
890.98	-27.65
891.151	62.46
891.323	68.61
891.494	9.22
891.665	60.42
891.836	31.74
892.007	72.7
892.178	-9.22
892.349	35.84
892.52	-11.26
892.691	5.12
892.862	-46.08
893.032	-48.13
893.203	-56.32
893.374	-13.31
893.545	-5.12
893.716	-27.65
893.887	-5.12
894.057	23.55
894.228	72.7
894.399	35.84
894.57	-13.31
894.74	-66.56
894.911	70.65
895.082	17.41
895.253	25.6
895.423	-68.61
895.594	-29.7
895.764	11.26
895.935	-29.7
896.106	27.65
896.276	-52.22
896.447	-54.27
896.617	25.6
896.788	-1.02
896.958	19.46
897.129	-21.5
897.299	-19.46
897.47	52.22
897.64	27.65
897.81	19.46
897.981	31.74
898.151	-39.94
898.322	11.26
898.492	54.27
898.662	-9.22
898.832	-39.94
899.003	31.74
899.173	5.12
899.343	-97.28
899.513	-58.37
