Data from USB4F104151__67__12-42-11-298.txt Node

Date: Fri Mar 14 12:42:11 EDT 2025
User: louis
Spectrometer: USB4F10415
Trigger mode: 4
Integration Time (sec): 3.000000E-2
Scans to average: 1
Electric dark correction enabled: true
Nonlinearity correction enabled: false
Boxcar width: 0
XAxis mode: Wavelengths
Number of Pixels in Spectrum: 3648
>>>>>Begin Spectral Data<<<<<
178.204	-101.55
178.424	-101.55
178.644	-101.55
178.864	-122.02
179.084	-140.46
179.304	7
179.524	7
179.744	-50.35
179.964	-33.96
180.184	0.85
180.404	-38.06
180.624	13.14
180.844	45.91
181.064	-27.82
181.283	13.14
181.503	-29.87
181.723	93.01
181.943	-44.2
182.163	39.76
182.383	35.67
182.602	140.12
182.822	45.91
183.042	-7.34
183.262	31.57
183.482	-9.39
183.701	-46.25
183.921	50
184.141	-15.53
184.361	43.86
184.58	13.14
184.8	-44.2
185.02	74.58
185.239	-56.49
185.459	19.29
185.679	68.44
185.898	2.9
186.118	25.43
186.338	-46.25
186.557	37.72
186.777	-7.34
186.997	-15.53
187.216	4.95
187.436	39.76
187.655	-11.43
187.875	15.19
188.095	-64.68
188.314	39.76
188.534	72.53
188.753	41.81
188.973	43.86
189.192	103.25
189.412	13.14
189.631	41.81
189.851	21.33
190.07	45.91
190.29	7
190.509	15.19
190.729	25.43
190.948	86.87
191.168	68.44
191.387	19.29
191.607	-9.39
191.826	13.14
192.045	-17.58
192.265	-31.91
192.484	29.52
192.704	50
192.923	-27.82
193.142	101.2
193.362	45.91
193.581	2.9
193.8	76.63
194.02	13.14
194.239	58.2
194.458	50
194.678	47.96
194.897	66.39
195.116	-13.48
195.335	70.48
195.555	31.57
195.774	-40.11
195.993	88.92
196.212	43.86
196.432	-5.29
196.651	7
196.87	33.62
197.089	76.63
197.308	13.14
197.528	-13.48
197.747	-25.77
197.966	76.63
198.185	72.53
198.404	15.19
198.623	-3.24
198.842	-11.43
199.062	39.76
199.281	45.91
199.5	54.1
199.719	60.24
199.938	7
200.157	84.82
200.376	35.67
200.595	7
200.814	45.91
201.033	-46.25
201.252	13.14
201.471	64.34
201.69	35.67
201.909	76.63
202.128	64.34
202.347	-15.53
202.566	-23.72
202.785	68.44
203.004	-40.11
203.223	76.63
203.442	11.09
203.661	-7.34
203.879	19.29
204.098	68.44
204.317	-74.92
204.536	2.9
204.755	33.62
204.974	21.33
205.193	47.96
205.411	70.48
205.63	68.44
205.849	-23.72
206.068	56.15
206.287	25.43
206.505	17.24
206.724	43.86
206.943	21.33
207.162	119.64
207.381	-15.53
207.599	15.19
207.818	0.85
208.037	-42.15
208.255	-3.24
208.474	17.24
208.693	-23.72
208.911	45.91
209.13	115.54
209.349	-13.48
209.567	35.67
209.786	111.44
210.005	2.9
210.223	-5.29
210.442	7
210.661	56.15
210.879	2.9
211.098	54.1
211.316	0.85
211.535	54.1
211.753	52.05
211.972	-9.39
212.191	-48.3
212.409	-38.06
212.628	99.16
212.846	13.14
213.065	-15.53
213.283	54.1
213.502	41.81
213.72	58.2
213.938	25.43
214.157	35.67
214.375	45.91
214.594	52.05
214.812	56.15
215.031	-48.3
215.249	43.86
215.467	13.14
215.686	23.38
215.904	-5.29
216.122	9.05
216.341	35.67
216.559	-7.34
216.778	74.58
216.996	13.14
217.214	21.33
217.432	43.86
217.651	-19.63
217.869	64.34
218.087	11.09
218.306	43.86
218.524	23.38
218.742	-7.34
218.96	84.82
219.179	41.81
219.397	-40.11
219.615	41.81
219.833	64.34
220.051	-7.34
220.27	58.2
220.488	31.57
220.706	33.62
220.924	25.43
221.142	37.72
221.36	27.48
221.578	39.76
221.796	43.86
222.015	-19.63
222.233	-15.53
222.451	97.11
222.669	-7.34
222.887	97.11
223.105	35.67
223.323	23.38
223.541	9.05
223.759	68.44
223.977	-15.53
224.195	74.58
224.413	54.1
224.631	54.1
224.849	47.96
225.067	80.72
225.285	37.72
225.503	-60.59
225.721	-33.96
225.939	13.14
226.157	56.15
226.375	60.24
226.592	13.14
226.81	37.72
227.028	60.24
227.246	166.74
227.464	37.72
227.682	15.19
227.9	82.77
228.117	21.33
228.335	56.15
228.553	27.48
228.771	70.48
228.989	4.95
229.206	70.48
229.424	0.85
229.642	-1.19
229.86	19.29
230.077	4.95
230.295	25.43
230.513	50
230.731	23.38
230.948	70.48
231.166	35.67
231.384	19.29
231.601	4.95
231.819	62.29
232.037	-19.63
232.254	0.85
232.472	23.38
232.689	50
232.907	103.25
233.125	33.62
233.342	37.72
233.56	109.4
233.777	35.67
233.995	33.62
234.213	131.92
234.43	58.2
234.648	-1.19
234.865	13.14
235.083	35.67
235.3	7
235.518	50
235.735	68.44
235.953	37.72
236.17	62.29
236.388	2.9
236.605	29.52
236.822	43.86
237.04	43.86
237.257	17.24
237.475	52.05
237.692	88.92
237.909	37.72
238.127	47.96
238.344	-13.48
238.562	-7.34
238.779	54.1
238.996	-1.19
239.214	39.76
239.431	27.48
239.648	11.09
239.865	60.24
240.083	72.53
240.3	31.57
240.517	-3.24
240.735	70.48
240.952	105.3
241.169	68.44
241.386	90.96
241.603	64.34
241.821	-48.3
242.038	68.44
242.255	-46.25
242.472	-29.87
242.689	101.2
242.907	60.24
243.124	41.81
243.341	-40.11
243.558	-58.54
243.775	-99.5
243.992	-66.73
244.209	17.24
244.426	60.24
244.643	111.44
244.86	2.9
245.078	11.09
245.295	0.85
245.512	-9.39
245.729	-11.43
245.946	74.58
246.163	4.95
246.38	66.39
246.597	25.43
246.814	21.33
247.031	11.09
247.248	72.53
247.464	88.92
247.681	45.91
247.898	21.33
248.115	-1.19
248.332	-29.87
248.549	21.33
248.766	25.43
248.983	56.15
249.2	21.33
249.417	37.72
249.633	-31.91
249.85	70.48
250.067	-52.39
250.284	31.57
250.501	31.57
250.717	74.58
250.934	-31.91
251.151	50
251.368	56.15
251.585	25.43
251.801	52.05
252.018	27.48
252.235	0.85
252.451	4.95
252.668	-38.06
252.885	41.81
253.102	19.29
253.318	29.52
253.535	19.29
253.752	82.77
253.968	7
254.185	-23.72
254.401	-31.91
254.618	15.19
254.835	-72.87
255.051	76.63
255.268	43.86
255.484	62.29
255.701	-33.96
255.917	-9.39
256.134	-42.15
256.351	19.29
256.567	64.34
256.784	99.16
257	25.43
257.217	66.39
257.433	68.44
257.65	56.15
257.866	39.76
258.082	-27.82
258.299	-13.48
258.515	-25.77
258.732	47.96
258.948	9.05
259.165	50
259.381	37.72
259.597	7
259.814	33.62
260.03	21.33
260.246	66.39
260.463	-5.29
260.679	95.06
260.895	15.19
261.112	121.68
261.328	23.38
261.544	-25.77
261.761	90.96
261.977	37.72
262.193	-15.53
262.409	4.95
262.626	62.29
262.842	58.2
263.058	31.57
263.274	146.26
263.49	-5.29
263.707	17.24
263.923	39.76
264.139	-66.73
264.355	21.33
264.571	25.43
264.787	4.95
265.004	35.67
265.22	41.81
265.436	-42.15
265.652	-21.67
265.868	37.72
266.084	31.57
266.3	-44.2
266.516	-60.59
266.732	58.2
266.948	41.81
267.164	21.33
267.38	66.39
267.596	-13.48
267.812	95.06
268.028	99.16
268.244	-1.19
268.46	27.48
268.676	-54.44
268.892	11.09
269.108	29.52
269.324	88.92
269.54	2.9
269.756	80.72
269.972	-1.19
270.188	88.92
270.403	27.48
270.619	35.67
270.835	41.81
271.051	72.53
271.267	-25.77
271.483	33.62
271.698	56.15
271.914	45.91
272.13	27.48
272.346	-27.82
272.562	39.76
272.777	37.72
272.993	23.38
273.209	23.38
273.425	86.87
273.64	82.77
273.856	103.25
274.072	-19.63
274.287	37.72
274.503	17.24
274.719	13.14
274.934	56.15
275.15	56.15
275.366	-15.53
275.581	19.29
275.797	-19.63
276.012	2.9
276.228	62.29
276.444	11.09
276.659	35.67
276.875	-23.72
277.09	56.15
277.306	-46.25
277.521	95.06
277.737	33.62
277.952	9.05
278.168	82.77
278.383	-68.78
278.599	37.72
278.814	60.24
279.03	66.39
279.245	72.53
279.461	50
279.676	-11.43
279.892	-27.82
280.107	-56.49
280.322	37.72
280.538	88.92
280.753	2.9
280.969	29.52
281.184	97.11
281.399	31.57
281.615	2.9
281.83	97.11
282.045	-1.19
282.26	50
282.476	33.62
282.691	35.67
282.906	25.43
283.122	47.96
283.337	-11.43
283.552	68.44
283.767	41.81
283.983	64.34
284.198	-48.3
284.413	25.43
284.628	-13.48
284.843	21.33
285.058	-1.19
285.274	23.38
285.489	0.85
285.704	111.44
285.919	35.67
286.134	43.86
286.349	21.33
286.564	54.1
286.779	39.76
286.995	31.57
287.21	47.96
287.425	45.91
287.64	-11.43
287.855	31.57
288.07	-29.87
288.285	54.1
288.5	76.63
288.715	35.67
288.93	60.24
289.145	-11.43
289.36	9.05
289.575	-11.43
289.79	7
290.004	41.81
290.219	78.68
290.434	23.38
290.649	17.24
290.864	13.14
291.079	11.09
291.294	4.95
291.509	70.48
291.724	-66.73
291.938	-9.39
292.153	21.33
292.368	27.48
292.583	50
292.798	125.78
293.012	47.96
293.227	-31.91
293.442	56.15
293.657	60.24
293.871	115.54
294.086	21.33
294.301	93.01
294.516	93.01
294.73	-50.35
294.945	-46.25
295.16	-1.19
295.374	11.09
295.589	111.44
295.804	-58.54
296.018	21.33
296.233	35.67
296.447	86.87
296.662	-1.19
296.877	90.96
297.091	84.82
297.306	-3.24
297.52	-21.67
297.735	27.48
297.949	-9.39
298.164	43.86
298.378	27.48
298.593	17.24
298.807	-25.77
299.022	70.48
299.236	60.24
299.451	-3.24
299.665	-23.72
299.88	-13.48
300.094	-23.72
300.309	23.38
300.523	-5.29
300.737	0.85
300.952	17.24
301.166	37.72
301.381	78.68
301.595	-19.63
301.809	-40.11
302.024	113.49
302.238	-70.83
302.452	45.91
302.667	19.29
302.881	56.15
303.095	-29.87
303.309	37.72
303.524	43.86
303.738	50
303.952	-11.43
304.166	62.29
304.381	-38.06
304.595	31.57
304.809	39.76
305.023	17.24
305.237	19.29
305.452	-68.78
305.666	136.02
305.88	37.72
306.094	74.58
306.308	11.09
306.522	99.16
306.736	62.29
306.95	35.67
307.164	99.16
307.379	105.3
307.593	107.35
307.807	140.12
308.021	70.48
308.235	109.4
308.449	25.43
308.663	17.24
308.877	45.91
309.091	25.43
309.305	41.81
309.519	-19.63
309.733	47.96
309.947	17.24
310.161	101.2
310.374	60.24
310.588	19.29
310.802	-29.87
311.016	58.2
311.23	-5.29
311.444	27.48
311.658	37.72
311.872	21.33
312.085	121.68
312.299	99.16
312.513	80.72
312.727	0.85
312.941	-5.29
313.154	29.52
313.368	90.96
313.582	43.86
313.796	-15.53
314.009	103.25
314.223	86.87
314.437	25.43
314.651	80.72
314.864	15.19
315.078	-3.24
315.292	74.58
315.505	-1.19
315.719	25.43
315.933	25.43
316.146	-7.34
316.36	-7.34
316.573	50
316.787	45.91
317.001	4.95
317.214	11.09
317.428	43.86
317.641	23.38
317.855	115.54
318.068	37.72
318.282	4.95
318.495	17.24
318.709	119.64
318.922	64.34
319.136	-7.34
319.349	35.67
319.563	35.67
319.776	-17.58
319.99	39.76
320.203	103.25
320.417	54.1
320.63	64.34
320.843	60.24
321.057	60.24
321.27	-13.48
321.483	99.16
321.697	78.68
321.91	37.72
322.124	56.15
322.337	68.44
322.55	72.53
322.763	60.24
322.977	-23.72
323.19	27.48
323.403	-15.53
323.617	56.15
323.83	70.48
324.043	-31.91
324.256	29.52
324.469	68.44
324.683	21.33
324.896	88.92
325.109	-17.58
325.322	9.05
325.535	39.76
325.748	58.2
325.962	17.24
326.175	31.57
326.388	7
326.601	68.44
326.814	50
327.027	35.67
327.24	50
327.453	-15.53
327.666	58.2
327.879	62.29
328.092	23.38
328.305	9.05
328.518	31.57
328.731	-33.96
328.944	113.49
329.157	58.2
329.37	90.96
329.583	140.12
329.796	19.29
330.009	-21.67
330.222	27.48
330.435	74.58
330.648	60.24
330.861	52.05
331.073	-70.83
331.286	109.4
331.499	78.68
331.712	23.38
331.925	62.29
332.138	27.48
332.35	136.02
332.563	7
332.776	52.05
332.989	29.52
333.202	56.15
333.414	15.19
333.627	101.2
333.84	41.81
334.053	146.26
334.265	50
334.478	7
334.691	115.54
334.903	33.62
335.116	-27.82
335.329	115.54
335.541	50
335.754	111.44
335.966	9.05
336.179	62.29
336.392	-25.77
336.604	90.96
336.817	21.33
337.029	76.63
337.242	70.48
337.454	129.88
337.667	39.76
337.88	93.01
338.092	70.48
338.305	45.91
338.517	-15.53
338.729	23.38
338.942	70.48
339.154	21.33
339.367	-7.34
339.579	144.21
339.792	58.2
340.004	54.1
340.217	50
340.429	25.43
340.641	19.29
340.854	13.14
341.066	52.05
341.278	33.62
341.491	78.68
341.703	60.24
341.915	37.72
342.128	52.05
342.34	-9.39
342.552	66.39
342.764	70.48
342.977	-21.67
343.189	37.72
343.401	52.05
343.613	17.24
343.826	90.96
344.038	-7.34
344.25	-25.77
344.462	25.43
344.674	47.96
344.886	0.85
345.099	54.1
345.311	-3.24
345.523	-17.58
345.735	-5.29
345.947	64.34
346.159	45.91
346.371	41.81
346.583	31.57
346.795	64.34
347.007	11.09
347.219	68.44
347.431	4.95
347.643	111.44
347.855	47.96
348.067	97.11
348.279	33.62
348.491	90.96
348.703	37.72
348.915	47.96
349.127	-15.53
349.339	101.2
349.551	25.43
349.763	60.24
349.975	47.96
350.187	62.29
350.399	103.25
350.61	39.76
350.822	4.95
351.034	43.86
351.246	-1.19
351.458	74.58
351.669	29.52
351.881	72.53
352.093	78.68
352.305	45.91
352.517	15.19
352.728	62.29
352.94	109.4
353.152	60.24
353.363	25.43
353.575	88.92
353.787	84.82
353.999	-3.24
354.21	84.82
354.422	39.76
354.633	7
354.845	88.92
355.057	13.14
355.268	15.19
355.48	11.09
355.692	47.96
355.903	-1.19
356.115	-19.63
356.326	-25.77
356.538	115.54
356.749	-29.87
356.961	103.25
357.172	109.4
357.384	4.95
357.595	88.92
357.807	13.14
358.018	117.59
358.23	13.14
358.441	52.05
358.653	64.34
358.864	45.91
359.075	21.33
359.287	54.1
359.498	129.88
359.709	-81.07
359.921	60.24
360.132	15.19
360.344	80.72
360.555	33.62
360.766	0.85
360.977	74.58
361.189	29.52
361.4	37.72
361.611	97.11
361.823	125.78
362.034	31.57
362.245	54.1
362.456	41.81
362.667	11.09
362.879	37.72
363.09	0.85
363.301	72.53
363.512	76.63
363.723	27.48
363.935	-25.77
364.146	93.01
364.357	66.39
364.568	23.38
364.779	4.95
364.99	80.72
365.201	39.76
365.412	37.72
365.623	25.43
365.834	86.87
366.045	47.96
366.256	95.06
366.467	86.87
366.678	62.29
366.889	115.54
367.1	-42.15
367.311	-13.48
367.522	35.67
367.733	58.2
367.944	17.24
368.155	-3.24
368.366	95.06
368.577	60.24
368.788	84.82
368.999	70.48
369.209	76.63
369.42	52.05
369.631	86.87
369.842	0.85
370.053	9.05
370.264	7
370.474	66.39
370.685	35.67
370.896	-17.58
371.107	41.81
371.317	131.92
371.528	15.19
371.739	17.24
371.95	86.87
372.16	76.63
372.371	50
372.582	58.2
372.792	52.05
373.003	21.33
373.214	78.68
373.424	121.68
373.635	82.77
373.846	-13.48
374.056	-31.91
374.267	68.44
374.477	111.44
374.688	47.96
374.898	39.76
375.109	109.4
375.319	52.05
375.53	84.82
375.74	41.81
375.951	4.95
376.161	23.38
376.372	82.77
376.582	29.52
376.793	33.62
377.003	41.81
377.214	15.19
377.424	33.62
377.635	52.05
377.845	-3.24
378.055	62.29
378.266	9.05
378.476	90.96
378.686	-29.87
378.897	64.34
379.107	-13.48
379.317	97.11
379.528	15.19
379.738	84.82
379.948	31.57
380.158	31.57
380.369	41.81
380.579	56.15
380.789	115.54
380.999	103.25
381.21	93.01
381.42	15.19
381.63	25.43
381.84	-7.34
382.05	39.76
382.261	33.62
382.471	58.2
382.681	27.48
382.891	62.29
383.101	119.64
383.311	15.19
383.521	-3.24
383.731	150.36
383.941	111.44
384.151	70.48
384.361	2.9
384.571	97.11
384.781	90.96
384.991	56.15
385.201	97.11
385.411	64.34
385.621	43.86
385.831	72.53
386.041	27.48
386.251	93.01
386.461	107.35
386.671	31.57
386.881	25.43
387.091	80.72
387.301	60.24
387.511	52.05
387.72	23.38
387.93	72.53
388.14	82.77
388.35	9.05
388.56	86.87
388.769	109.4
388.979	93.01
389.189	17.24
389.399	39.76
389.609	39.76
389.818	111.44
390.028	111.44
390.238	99.16
390.447	58.2
390.657	148.31
390.867	88.92
391.076	13.14
391.286	68.44
391.496	103.25
391.705	74.58
391.915	74.58
392.125	29.52
392.334	103.25
392.544	52.05
392.753	27.48
392.963	31.57
393.172	21.33
393.382	84.82
393.591	113.49
393.801	95.06
394.01	150.36
394.22	88.92
394.429	86.87
394.639	33.62
394.848	62.29
395.058	129.88
395.267	72.53
395.477	76.63
395.686	105.3
395.895	50
396.105	170.83
396.314	80.72
396.524	123.73
396.733	109.4
396.942	136.02
397.152	174.93
397.361	84.82
397.57	52.05
397.78	27.48
397.989	82.77
398.198	127.83
398.407	105.3
398.617	146.26
398.826	74.58
399.035	43.86
399.244	88.92
399.453	121.68
399.663	88.92
399.872	84.82
400.081	72.53
400.29	129.88
400.499	45.91
400.708	111.44
400.917	68.44
401.127	70.48
401.336	70.48
401.545	131.92
401.754	133.97
401.963	166.74
402.172	113.49
402.381	78.68
402.59	99.16
402.799	117.59
403.008	131.92
403.217	107.35
403.426	121.68
403.635	103.25
403.844	150.36
404.053	111.44
404.262	138.07
404.471	162.64
404.68	150.36
404.888	123.73
405.097	142.16
405.306	187.22
405.515	125.78
405.724	170.83
405.933	72.53
406.142	232.27
406.35	207.7
406.559	154.45
406.768	146.26
406.977	176.98
407.185	232.27
407.394	236.37
407.603	219.99
407.812	146.26
408.02	238.42
408.229	234.32
408.438	195.41
408.646	252.75
408.855	189.27
409.064	226.13
409.272	310.1
409.481	340.82
409.69	289.62
409.898	258.9
410.107	387.92
410.315	353.1
410.524	377.68
410.733	353.1
410.941	326.48
411.15	416.59
411.358	392.02
411.567	357.2
411.775	385.87
411.984	392.02
412.192	562
412.401	521.04
412.609	463.69
412.818	557.9
413.026	426.83
413.234	478.03
413.443	498.51
413.651	490.32
413.86	611.15
414.068	641.87
414.276	572.24
414.485	545.61
414.693	648.01
414.901	717.64
415.11	629.58
415.318	715.59
415.526	697.16
415.734	781.13
415.943	850.76
416.151	791.37
416.359	840.52
416.567	826.18
416.776	885.58
416.984	998.21
417.192	992.07
417.4	1004.36
417.608	1049.41
417.817	1004.36
418.025	1127.24
418.233	1231.68
418.441	1045.32
418.649	1231.68
418.857	1246.02
419.065	1346.37
419.273	1286.98
419.481	1338.18
419.689	1497.92
419.897	1354.56
420.105	1559.36
420.313	1530.69
420.521	1545.02
420.729	1749.82
420.937	1682.24
421.145	1854.27
421.353	1782.59
421.561	1993.53
421.769	1981.24
421.977	2018.1
422.185	1997.62
422.393	2222.9
422.601	2343.73
422.809	2259.76
423.017	2323.25
423.224	2390.83
423.432	2601.77
423.64	2538.29
423.848	2636.59
424.056	2544.43
424.263	2888.49
424.471	2820.91
424.679	2859.82
424.887	3025.7
425.094	3222.31
425.302	3259.17
425.51	3277.6
425.718	3365.67
425.925	3400.48
426.133	3492.64
426.341	3953.43
426.548	3982.1
426.756	3803.93
426.964	4080.41
427.171	4258.58
427.379	4346.64
427.586	4420.37
427.794	4619.02
428.001	4762.38
428.209	4946.7
428.417	4969.23
428.624	5161.73
428.832	5155.59
429.039	5307.14
429.247	5341.96
429.454	5829.37
429.662	6124.28
429.869	5600
430.076	6017.79
430.284	5849.85
430.491	6275.83
430.699	6546.16
430.906	6478.58
431.114	6623.98
431.321	6843.12
431.528	6982.38
431.736	7637.73
431.943	7895.77
432.15	7543.52
432.358	7744.22
432.565	8264.41
432.772	7959.26
432.979	8491.73
433.187	8749.78
433.394	8696.53
433.601	9282.25
433.808	9269.96
434.016	9190.09
434.223	9603.78
434.43	10250.94
434.637	10005.18
434.844	10595
435.052	10990.25
435.259	10945.2
435.466	10732.21
435.673	10748.59
435.88	11434.66
436.087	12305.05
436.294	12198.56
436.501	11768.48
436.708	12112.54
436.915	12303
437.122	13105.81
437.329	13070.99
437.537	13525.64
437.743	13884.03
437.95	13800.07
438.157	14424.7
438.364	14584.44
438.571	15045.23
438.778	14635.64
438.985	16274.01
439.192	15612.52
439.399	15895.14
439.606	15743.59
439.813	16573.02
440.02	17433.16
440.227	17349.2
440.433	17146.45
440.64	17664.58
440.847	17433.16
441.054	17947.2
441.261	19190.32
441.467	19030.58
441.674	19391.02
441.881	20017.7
442.088	20034.08
442.294	20017.7
442.501	20480.54
442.708	20595.23
442.914	21459.47
443.121	22606.33
443.328	21856.78
443.534	23497.2
443.741	22800.89
443.948	22544.89
444.154	24164.84
444.361	23900.65
444.568	24213.99
444.774	23939.56
444.981	24525.28
445.187	25391.57
445.394	26198.47
445.6	25932.23
445.807	28451.24
446.013	26925.5
446.22	27427.25
446.426	28686.75
446.633	28965.28
446.839	30214.54
447.046	28584.35
447.252	30298.5
447.459	30675.33
447.665	30007.69
447.871	31353.21
448.078	32919.9
448.284	31246.71
448.491	32252.27
448.697	33571.16
448.903	34189.64
449.11	34169.16
449.316	33804.63
449.522	34335.05
449.728	35281.21
449.935	35197.24
450.141	35205.44
450.347	36010.29
450.553	35262.78
450.76	35572.02
450.966	36817.19
451.172	36321.58
451.378	37105.95
451.584	36342.06
451.791	37280.03
451.997	37310.75
452.203	37835.03
452.409	37892.37
452.615	37830.93
452.821	36518.18
453.027	35938.61
453.233	37640.47
453.44	36483.37
453.646	36770.08
453.852	37044.51
454.058	37955.86
454.264	36389.16
454.47	37263.64
454.676	36639.01
454.882	37216.54
455.088	34312.52
455.294	34529.61
455.5	35275.07
455.705	35590.45
455.911	34353.48
456.117	33593.68
456.323	33542.49
456.529	31707.51
456.735	32831.84
456.941	31861.1
457.147	31781.23
457.352	30536.07
457.558	29966.73
457.764	30445.96
457.97	29444.5
458.176	29321.62
458.381	29129.11
458.587	27578.8
458.793	27832.75
458.999	26153.41
459.204	28017.07
459.41	27302.32
459.616	25557.46
459.821	25766.35
460.027	25438.67
460.233	24981.98
460.438	23708.14
460.644	24115.69
460.85	23009.78
461.055	22546.94
461.261	22665.72
461.466	20754.97
461.672	20169.25
461.878	21680.65
462.083	20124.19
462.289	19528.24
462.494	19741.22
462.7	18887.22
462.905	18252.35
463.111	19059.25
463.316	18788.92
463.522	18604.6
463.727	18768.44
463.932	18524.73
464.138	18510.39
464.343	18270.78
464.549	17816.13
464.754	18557.5
464.959	18250.3
465.165	18039.36
465.37	17420.88
465.575	16966.23
465.781	17615.43
465.986	17873.48
466.191	17244.75
466.397	16849.49
466.602	15991.39
466.807	16626.26
467.012	16767.57
467.218	16452.19
467.423	16224.86
467.628	16427.61
467.833	17398.35
468.038	16525.91
468.244	16106.08
468.449	16753.24
468.654	16337.5
468.859	16022.11
469.064	16075.36
469.269	15196.78
469.474	15342.19
469.679	15557.22
469.885	15424.11
470.09	15420.01
470.295	15352.43
470.5	15043.18
470.705	14994.03
470.91	14905.97
471.115	14592.63
471.32	14846.58
471.525	14609.01
471.73	14541.43
471.935	14381.69
472.139	13705.86
472.344	14271.1
472.549	13830.79
472.754	13824.64
472.959	13599.37
473.164	13374.09
473.369	13169.29
473.574	13591.17
473.778	13161.1
473.983	13283.98
474.188	13073.04
474.393	12515.99
474.598	12573.33
474.802	12556.95
475.007	12511.89
475.212	12415.64
475.417	12008.09
475.621	12077.73
475.826	12208.8
476.031	11788.96
476.235	11754.15
476.44	11897.5
476.645	11436.71
476.849	11547.3
477.054	11414.18
477.259	11395.75
477.463	11207.34
477.668	11000.49
477.872	11096.75
478.077	10910.38
478.282	10609.33
478.486	10746.55
478.691	10474.17
478.895	10566.32
479.1	10390.2
479.304	10369.72
479.509	10095.29
479.713	10277.56
479.918	10232.51
480.122	9917.12
480.326	10107.58
480.531	9958.08
480.735	10072.76
480.94	9808.58
481.144	10158.78
481.348	9663.17
481.553	9872.06
481.757	9753.28
481.961	9724.61
482.166	9872.06
482.37	9573.06
482.574	9485
482.778	9497.28
482.983	9704.13
483.187	9614.02
483.391	9693.89
483.595	9665.22
483.8	9554.63
484.004	9689.79
484.208	9960.13
484.412	9689.79
484.616	9503.43
484.821	9646.79
485.025	9491.14
485.229	9665.22
485.433	9618.11
485.637	9710.27
485.841	9697.99
486.045	9597.63
486.249	9769.66
486.453	9425.61
486.657	9566.92
486.861	9767.62
487.065	9405.13
487.269	9589.44
487.473	9349.83
487.677	9718.47
487.881	9761.47
488.085	9534.15
488.289	9777.86
488.493	9665.22
488.697	9595.59
488.901	9704.13
489.105	9753.28
489.309	9740.99
489.512	9788.1
489.716	9910.97
489.92	9599.68
490.124	9685.7
490.328	9894.59
490.531	9675.46
490.735	9900.73
490.939	9972.41
491.143	9761.47
491.346	9724.61
491.55	10013.37
491.754	10144.44
491.958	10042.04
492.161	9757.38
492.365	9992.89
492.569	10113.72
492.772	9994.94
492.976	10244.79
493.18	10353.34
493.383	10265.27
493.587	10549.94
493.79	10345.14
493.994	10404.53
494.197	10398.39
494.401	10631.86
494.605	10654.39
494.808	10898.1
495.012	10850.99
495.215	10740.4
495.419	11168.43
495.622	10814.13
495.825	11000.49
496.029	10992.3
496.232	11561.64
496.436	11176.62
496.639	11500.2
496.843	11360.94
497.046	11672.23
497.249	11772.58
497.453	11852.45
497.656	11930.27
497.859	11913.89
498.063	12161.69
498.266	12270.23
498.469	12415.64
498.673	12401.3
498.876	12513.94
499.079	12845.71
499.282	12782.23
499.485	13152.91
499.689	12870.29
499.892	13402.76
500.095	13175.44
500.298	13881.99
500.501	13349.51
500.705	13810.31
500.908	13892.23
501.111	14070.4
501.314	14203.52
501.517	14479.99
501.72	14453.37
501.923	14625.4
502.126	14668.41
502.329	15180.4
502.532	15114.86
502.735	15194.73
502.938	15493.74
503.141	15774.31
503.344	15891.04
503.547	15870.56
503.75	16126.56
503.953	16028.26
504.156	16382.56
504.359	16519.77
504.562	16693.85
504.765	17119.82
504.968	17123.92
505.17	17336.91
505.373	17486.41
505.576	17611.34
505.779	17963.59
505.982	17746.5
506.185	18381.37
506.387	18508.35
506.59	18633.27
506.793	18747.96
506.996	18934.32
507.198	19292.72
507.401	19161.65
507.604	19270.19
507.807	19741.22
508.009	19786.28
508.212	19870.25
508.415	20269.6
508.617	20584.99
508.82	20634.14
509.022	20380.19
509.225	21080.6
509.428	21043.73
509.63	21152.27
509.833	21352.98
510.035	21885.45
510.238	22301.19
510.44	22016.52
510.643	22350.34
510.845	22434.3
511.048	22608.38
511.25	22608.38
511.453	22901.24
511.655	23691.76
511.858	23579.12
512.06	23693.8
512.262	23749.1
512.465	23925.22
512.667	24250.85
512.87	24504.8
513.072	24582.62
513.274	24973.78
513.477	25115.09
513.679	25444.82
513.881	25575.89
514.084	25932.23
514.286	25893.32
514.488	25758.16
514.69	26640.83
514.893	26685.89
515.095	26945.98
515.297	27242.93
515.499	27161.01
515.701	27029.94
515.904	27865.52
516.106	28125.61
516.308	28160.42
516.51	28570.02
516.712	28471.71
516.914	28987.8
517.116	29180.31
517.318	28991.9
517.52	29354.39
517.722	29383.06
517.925	29893.01
518.127	30163.34
518.329	30185.86
518.531	30351.75
518.733	30810.5
518.935	30908.8
519.136	31021.44
519.338	31371.64
519.54	31570.29
519.742	31922.54
519.944	31566.2
520.146	32518.5
520.348	32299.37
520.55	32571.75
520.752	32629.09
520.954	33020.25
521.155	33102.17
521.357	33419.61
521.559	33734.99
521.761	33927.5
521.963	34097.49
522.164	34201.93
522.366	34007.37
522.568	34502.98
522.77	34851.14
522.971	35522.87
523.173	34969.92
523.375	35119.42
523.576	35432.76
523.778	35502.39
523.98	35787.06
524.181	35633.46
524.383	36016.43
524.584	36569.38
524.786	36309.29
524.988	36346.15
525.189	37044.51
525.391	36757.8
525.592	37183.77
525.794	37017.89
525.995	37196.06
526.197	37433.63
526.398	37466.39
526.6	37538.07
526.801	37699.86
527.003	37624.09
527.204	37513.5
527.406	38197.52
527.607	38164.75
527.808	38629.64
528.01	37724.44
528.211	38363.4
528.412	38736.13
528.614	38619.4
528.815	39037.19
529.016	38889.73
529.218	38564.1
529.419	39049.47
529.62	38564.1
529.822	38625.54
530.023	38545.67
530.224	38949.12
530.425	38820.1
530.626	38566.15
530.828	38762.76
531.029	39713.02
531.23	39086.34
531.431	38957.31
531.632	39422.2
531.833	39104.77
532.035	39182.59
532.236	39135.49
532.437	39670.01
532.638	39190.78
532.839	39770.36
533.04	39581.95
533.241	39045.38
533.442	39852.28
533.643	39493.88
533.844	39543.03
534.045	39440.64
534.246	39481.59
534.447	39928.05
534.648	39452.92
534.849	39483.64
535.05	39583.99
535.251	39045.38
535.451	39579.9
535.652	39620.86
535.853	39403.77
536.054	39557.37
536.255	39342.33
536.456	39198.98
536.657	39620.86
536.857	39121.15
537.058	39543.03
537.259	39563.51
537.46	39543.03
537.66	39518.46
537.861	39506.17
538.062	39166.21
538.263	39809.27
538.463	39297.28
538.664	39168.26
538.865	39672.06
539.065	39635.19
539.266	39063.81
539.466	39518.46
539.667	39033.09
539.868	39616.76
540.068	39323.9
540.269	39260.41
540.469	39414.01
540.67	39301.37
540.87	39225.6
541.071	39313.66
541.271	39581.95
541.472	39151.87
541.672	38773
541.873	39272.7
542.073	38824.2
542.274	39383.29
542.474	39039.23
542.675	39041.28
542.875	39321.85
543.075	39227.65
543.276	38271.25
543.476	39082.24
543.676	38846.72
543.877	39272.7
544.077	38969.6
544.277	38719.75
544.478	38869.25
544.678	38951.17
544.878	39121.15
545.078	38949.12
545.279	38844.68
545.479	38582.54
545.679	38605.06
545.879	39143.68
546.079	38676.74
546.28	38686.98
546.48	38719.75
546.68	38775.05
546.88	38762.76
547.08	38842.63
547.28	38621.45
547.48	38607.11
547.68	38715.65
547.88	38570.25
548.081	38895.88
548.281	38777.09
548.481	38877.44
548.681	39325.95
548.881	38768.9
549.081	38754.57
549.28	38312.2
549.48	38813.96
549.68	38476.04
549.88	38803.72
550.08	38299.92
550.28	38250.77
550.48	38394.12
550.68	39123.2
550.88	38322.44
551.08	38301.96
551.279	38594.82
551.479	38414.6
551.679	38287.63
551.879	38365.45
552.079	38600.97
552.278	38162.7
552.478	38336.78
552.678	37886.23
552.878	38449.42
553.077	38295.82
553.277	38449.42
553.477	38361.36
553.676	37835.03
553.876	38283.53
554.076	38377.74
554.275	38080.78
554.475	37679.38
554.674	38299.92
554.874	38250.77
555.074	37941.52
555.273	37980.43
555.473	38453.51
555.672	37716.25
555.872	37779.73
556.071	38117.65
556.271	37984.53
556.47	37974.29
556.67	37361.95
556.869	38015.25
557.068	37761.3
557.268	37652.76
557.467	37495.07
557.667	37640.47
557.866	37847.32
558.065	38027.54
558.265	37429.53
558.464	37345.56
558.663	37935.38
558.863	37101.86
559.062	37855.51
559.261	37284.12
559.461	37814.55
559.66	36954.4
559.859	37316.89
560.058	37077.28
560.258	37452.06
560.457	36968.74
560.656	37327.13
560.855	37349.66
561.054	37196.06
561.253	37198.11
561.453	36985.12
561.652	36907.3
561.851	37189.92
562.05	36704.55
562.249	36602.15
562.448	37228.83
562.647	36895.01
562.846	36935.97
563.045	36811.04
563.244	36215.08
563.443	36962.59
563.642	36274.48
563.841	36327.72
564.04	36247.85
564.239	36647.21
564.438	36180.27
564.637	36413.74
564.836	36483.37
565.035	35840.31
565.234	36555.05
565.432	36174.13
565.631	35643.7
565.83	36278.57
566.029	35422.52
566.228	35678.52
566.427	35737.91
566.625	35588.41
566.824	35152.19
567.023	35873.07
567.222	34873.67
567.42	35805.49
567.619	35320.12
567.818	35533.11
568.016	35100.99
568.215	35598.65
568.414	35322.17
568.612	35191.1
568.811	35301.69
569.01	35057.98
569.208	34535.75
569.407	35123.52
569.605	35051.84
569.804	35070.27
570.002	34783.55
570.201	35084.61
570.4	34740.55
570.598	34652.48
570.797	34224.46
570.995	34390.34
571.193	34216.27
571.392	34447.69
571.59	34421.06
571.789	34474.31
571.987	34019.66
572.186	34304.33
572.384	33956.18
572.582	33999.18
572.781	33988.94
572.979	33663.32
573.177	34017.61
573.376	34013.52
573.574	33698.13
573.772	33823.06
573.971	33913.17
574.169	33612.12
574.367	33417.56
574.565	33696.08
574.763	33593.68
574.962	33415.51
575.16	33114.46
575.358	33126.75
575.556	32833.89
575.754	33540.44
575.952	32631.14
576.151	33274.2
576.349	32895.33
576.547	32919.9
576.745	32700.77
576.943	33038.69
577.141	32655.72
577.339	33018.21
577.537	32565.6
577.735	32739.68
577.933	32282.98
578.131	32532.84
578.329	32133.48
578.527	32125.29
578.725	31955.31
578.923	32375.14
579.121	31918.45
579.319	31779.18
579.516	32041.32
579.714	31779.18
579.912	31613.3
580.11	31893.87
580.308	31566.2
580.506	31742.32
580.704	31353.21
580.901	31570.29
581.099	31596.92
581.297	31179.13
581.495	31289.72
581.692	31207.8
581.89	30916.99
582.088	31283.58
582.285	30978.43
582.483	30964.09
582.681	30970.24
582.878	30685.57
583.076	30710.14
583.274	30452.1
583.471	30593.41
583.669	30519.68
583.866	30204.3
584.064	30591.36
584.262	30171.53
584.459	30214.54
584.657	30128.52
584.854	30341.51
585.052	29577.62
585.249	30079.37
585.447	30278.02
585.644	29743.5
585.841	29819.28
586.039	30081.42
586.236	29743.5
586.434	29505.94
586.631	29616.53
586.828	29460.88
587.026	29673.87
587.223	28754.33
587.42	28899.74
587.618	29165.98
587.815	28967.32
588.012	28862.88
588.21	28703.14
588.407	28922.27
588.604	28682.66
588.801	28647.84
588.999	28576.16
589.196	28578.21
589.393	28553.63
589.59	28223.91
589.787	28250.53
589.984	28361.12
590.182	27730.35
590.379	28062.12
590.576	27879.85
590.773	27677.1
590.97	27752.88
591.167	27783.6
591.364	27468.21
591.561	27904.43
591.758	27423.15
591.955	27097.53
592.152	27466.16
592.349	27216.31
592.546	27294.13
592.743	27003.32
592.94	26575.3
593.137	27331
593.334	26960.31
593.531	26567.1
593.727	27165.11
593.924	26626.5
594.121	26360.26
594.318	26776
594.515	26509.76
594.712	26423.75
594.908	26237.38
595.105	26526.14
595.302	26124.74
595.499	26276.29
595.696	26112.45
595.892	26143.17
596.089	25835.98
596.286	25831.88
596.482	25715.15
596.679	25711.05
596.876	26051.02
597.072	25690.57
597.269	25760.2
597.466	25436.63
597.662	25504.21
597.859	25407.95
598.055	25498.06
598.252	25020.89
598.448	25164.25
598.645	24961.5
598.841	24642.01
599.038	24838.62
599.234	25102.81
599.431	24787.42
599.627	24584.67
599.824	24707.55
600.02	24295.91
600.217	24586.72
600.413	24490.46
600.609	24392.16
600.806	24238.56
601.002	24336.87
601.198	23949.8
601.395	24019.43
601.591	24113.64
601.787	23828.97
601.984	23783.91
602.18	23831.02
602.376	23745
602.572	23460.34
602.769	23482.86
602.965	23290.35
603.161	23402.99
603.357	23439.86
603.553	23437.81
603.75	23253.49
603.946	22985.21
604.142	23224.82
604.338	22972.92
604.534	22979.06
604.73	22882.81
604.926	22778.36
605.122	22798.84
605.318	22678.01
605.514	22331.9
605.71	22321.66
605.906	22682.11
606.102	22512.13
606.298	22422.02
606.494	22360.58
606.69	22589.95
606.886	22387.2
607.082	22139.4
607.278	22235.65
607.474	21705.23
607.67	22125.06
607.866	21828.1
608.062	22131.2
608.257	22075.91
608.453	21987.85
608.649	21877.26
608.845	21721.61
609.041	21977.61
609.236	21809.67
609.432	21557.77
609.628	21926.41
609.824	21537.29
610.019	21373.46
610.215	21686.79
610.411	21436.94
610.606	21422.61
610.802	21369.36
610.998	21062.16
611.193	21410.32
611.389	21008.92
611.584	21119.51
611.78	21174.8
611.976	21162.51
612.171	21281.3
612.367	20744.73
612.562	21109.27
612.758	20707.87
612.953	21015.06
613.149	21004.82
613.344	20746.78
613.539	21049.88
613.735	20838.94
613.93	20929.05
614.126	20642.33
614.321	20814.36
614.517	20435.49
614.712	20570.65
614.907	20757.02
615.103	20533.79
615.298	20593.18
615.493	20439.58
615.688	20531.74
615.884	20787.74
616.079	20029.99
616.274	20466.21
616.47	20453.92
616.665	20273.7
616.86	20226.59
617.055	20050.47
617.25	20144.67
617.445	20124.19
617.641	19817
617.836	20392.48
618.031	19671.59
618.226	20212.26
618.421	19794.47
618.616	19933.73
618.811	19569.19
619.006	19946.02
619.201	19497.52
619.396	19509.8
619.591	19395.12
619.786	19413.55
619.981	19321.39
620.176	19059.25
620.371	19053.11
620.566	19167.79
620.761	19092.02
620.956	19206.7
621.151	18727.48
621.346	19006
621.541	18342.46
621.735	18729.53
621.93	18123.33
622.125	18469.44
622.32	18065.99
622.515	18334.27
622.709	18190.91
622.904	18012.74
623.099	17891.91
623.294	18039.36
623.488	17551.95
623.683	17771.08
623.878	17506.89
624.072	17412.68
624.267	17242.7
624.462	17465.93
624.656	17062.48
624.851	17066.58
625.046	17125.97
625.24	16931.41
625.435	16919.12
625.629	16708.18
625.824	16695.89
626.018	16474.71
626.213	16263.77
626.407	16487
626.602	16327.26
626.796	16237.15
626.991	16224.86
627.185	16116.32
627.38	15960.67
627.574	16024.16
627.768	15583.85
627.963	15688.29
628.157	15489.64
628.352	15647.33
628.546	15467.11
628.74	15436.39
628.935	15116.91
629.129	15245.93
629.323	15252.08
629.517	15039.09
629.712	15000.18
629.906	14893.68
630.1	14842.48
630.294	14807.67
630.489	14725.75
630.683	14848.63
630.877	14504.57
631.071	14613.11
631.265	14684.79
631.459	14283.39
631.653	14156.41
631.848	14500.47
632.042	14221.95
632.236	13902.47
632.43	13933.18
632.624	14156.41
632.818	13828.74
633.012	13544.07
633.206	13669
633.4	13877.89
633.594	13443.72
633.788	13468.3
633.982	13623.94
634.176	13226.64
634.369	13226.64
634.563	13218.44
634.757	13259.4
634.951	13314.7
635.145	13138.57
635.339	13261.45
635.533	12892.82
635.726	13073.04
635.92	12632.72
636.114	12616.34
636.308	12626.58
636.501	12706.45
636.695	12497.56
636.889	12401.3
637.083	12370.58
637.276	12376.73
637.47	12311.19
637.664	12163.74
637.857	12309.15
638.051	12311.19
638.244	11895.46
638.438	11944.61
638.632	11981.47
638.825	11879.07
639.019	11893.41
639.212	11553.45
639.406	11975.33
639.599	11698.85
639.793	11489.96
639.986	11190.95
640.18	11715.23
640.373	11547.3
640.567	11401.9
640.76	11221.67
640.954	11221.67
641.147	11299.5
641.34	10984.11
641.534	10977.97
641.727	11229.87
641.92	11027.12
642.114	10693.3
642.307	10799.79
642.5	10717.87
642.694	10681.01
642.887	10658.48
643.08	10695.35
643.273	10695.35
643.467	10635.96
643.66	10359.48
643.853	10472.12
644.046	10433.21
644.239	10476.21
644.432	10328.76
644.626	10072.76
644.819	10033.85
645.012	10195.64
645.205	10250.94
645.398	10087.1
645.591	9865.92
645.784	9978.56
645.977	9796.29
646.17	9765.57
646.363	9849.54
646.556	9505.48
646.749	9614.02
646.942	9693.89
647.135	9480.9
647.328	9642.69
647.521	9605.83
647.714	9507.52
647.907	9360.07
648.099	9284.3
648.292	9269.96
648.485	9372.36
648.678	9171.66
648.871	9210.57
649.064	9061.07
649.256	9089.74
649.449	8940.24
649.642	8895.18
649.835	8829.65
650.027	8794.83
650.22	8934.09
650.413	8645.33
650.605	8630.99
650.798	8665.81
650.991	8710.86
651.183	8743.63
651.376	8530.64
651.568	8424.15
651.761	8450.77
651.954	8278.74
652.146	8393.43
652.339	8319.7
652.531	8264.41
652.724	8102.62
652.916	8174.3
653.109	8116.95
653.301	8356.57
653.494	8090.33
653.686	7906.01
653.879	8049.37
654.071	8114.91
654.263	7785.18
654.456	7906.01
654.648	7766.75
654.84	7770.85
655.033	7484.13
655.225	7543.52
655.417	7660.26
655.61	7740.13
655.802	7693.02
655.994	7586.53
656.186	7566.05
656.379	7551.71
656.571	7502.56
656.763	7252.71
656.955	7166.7
657.148	7518.95
657.34	7477.99
657.532	7305.96
657.724	7174.89
657.916	7125.74
658.108	7095.02
658.3	7019.24
658.492	6968.04
658.684	6945.52
658.876	6982.38
659.068	7021.29
659.26	6929.13
659.452	6976.23
659.644	6947.56
659.836	6886.12
660.028	6759.15
660.22	6615.79
660.412	6761.2
660.604	6677.23
660.796	6595.31
660.988	6652.66
661.18	6468.34
661.372	6507.25
661.563	6456.05
661.755	6355.7
661.947	6494.96
662.139	6320.88
662.331	6206.2
662.522	6224.63
662.714	6437.62
662.906	6028.03
663.097	6187.77
663.289	6101.75
663.481	6257.4
663.673	6193.91
663.864	6009.59
664.056	6083.32
664.247	6181.62
664.439	6042.36
664.631	5958.39
664.822	6073.08
665.014	5929.72
665.205	5901.05
665.397	5956.35
665.588	5782.27
665.78	5774.08
665.971	5694.21
666.163	5874.43
666.354	5696.25
666.546	5577.47
666.737	5597.95
666.929	5614.34
667.12	5561.09
667.311	5702.4
667.503	5589.76
667.694	5487.36
667.885	5430.02
668.077	5481.22
668.268	5470.98
668.459	5493.51
668.651	5423.87
668.842	5296.9
669.033	5417.73
669.224	5362.44
669.416	5450.5
669.607	5393.16
669.798	5233.41
669.989	5286.66
670.18	5313.28
670.371	5122.82
670.563	5159.69
670.754	5233.41
670.945	5303.04
671.136	5151.49
671.327	5083.91
671.518	5018.38
671.709	5042.95
671.9	5147.4
672.091	5001.99
672.282	4956.94
672.473	4930.31
672.664	4799.24
672.855	5042.95
673.046	4981.51
673.237	4899.59
673.428	4879.11
673.619	4741.9
673.809	4678.41
674	4776.72
674.191	4795.15
674.382	4594.45
674.573	4657.93
674.764	4629.26
674.954	4791.05
675.145	4625.17
675.336	4616.97
675.527	4639.5
675.717	4592.4
675.908	4522.77
676.099	4526.86
676.289	4541.2
676.48	4588.3
676.671	4414.23
676.861	4473.62
677.052	4444.95
677.243	4432.66
677.433	4438.8
677.624	4428.56
677.814	4512.53
678.005	4457.23
678.195	4387.6
678.386	4490
678.576	4352.79
678.767	4387.6
678.957	4338.45
679.148	4266.77
679.338	4227.86
679.529	4334.36
679.719	4248.34
679.909	4264.72
680.1	4248.34
680.29	4315.92
680.481	4166.42
680.671	4244.24
680.861	4154.13
681.052	4307.73
681.242	4176.66
681.432	4309.78
681.622	4201.24
681.813	4104.98
682.003	4113.17
682.193	4170.52
682.383	4160.28
682.573	4180.76
682.764	4045.59
682.954	4211.48
683.144	3943.19
683.334	4012.82
683.524	3910.43
683.714	4059.93
683.904	4039.45
684.094	3978.01
684.284	3904.28
684.474	3975.96
684.664	3838.75
684.854	3889.95
685.044	3848.99
685.234	3867.42
685.424	3832.6
685.614	3791.64
685.804	3820.32
685.994	3855.13
686.184	3795.74
686.374	3828.51
686.564	3738.4
686.753	3701.53
686.943	3781.4
687.133	3791.64
687.323	3838.75
687.513	3767.07
687.702	3769.12
687.892	3642.14
688.082	3717.92
688.272	3558.18
688.461	3576.61
688.651	3609.37
688.841	3570.46
689.03	3498.78
689.22	3476.26
689.41	3554.08
689.599	3353.38
689.789	3402.53
689.979	3396.39
690.168	3488.54
690.358	3433.25
690.547	3369.76
690.737	3461.92
690.926	3453.73
691.116	3212.07
691.305	3517.22
691.495	3343.14
691.684	3398.43
691.874	3359.52
692.063	3216.16
692.252	3355.43
692.442	3339.04
692.631	3195.68
692.82	3224.36
693.01	3191.59
693.199	3248.93
693.388	3013.42
693.578	3089.19
693.767	3144.49
693.956	3154.73
694.146	2997.03
694.335	3117.86
694.524	2970.41
694.713	3033.9
694.902	2956.07
695.092	3019.56
695.281	2999.08
695.47	2958.12
695.659	2945.83
695.848	2919.21
696.037	2888.49
696.226	2874.15
696.415	2865.96
696.604	2960.17
696.793	2808.62
696.982	2851.63
697.171	2968.36
697.36	2888.49
697.549	2882.35
697.738	2804.52
697.927	2825
698.116	2728.75
698.305	2814.76
698.494	2712.36
698.683	2825
698.872	2868.01
699.061	2835.24
699.25	2593.58
699.438	2685.74
699.627	2833.19
699.816	2788.14
700.005	2626.35
700.193	2665.26
700.382	2630.45
700.571	2612.01
700.76	2669.36
700.948	2755.37
701.137	2667.31
701.326	2689.84
701.514	2632.49
701.703	2528.05
701.892	2573.1
702.08	2741.04
702.269	2575.15
702.457	2634.54
702.646	2564.91
702.834	2562.86
703.023	2560.81
703.212	2454.32
703.4	2474.8
703.589	2536.24
703.777	2403.12
703.965	2489.14
704.154	2476.85
704.342	2472.75
704.531	2460.46
704.719	2517.81
704.907	2536.24
705.096	2544.43
705.284	2437.94
705.472	2405.17
705.661	2564.91
705.849	2480.94
706.037	2450.22
706.226	2472.75
706.414	2405.17
706.602	2380.59
706.79	2446.13
706.979	2399.02
707.167	2464.56
707.355	2409.26
707.543	2376.5
707.731	2366.26
707.919	2370.35
708.107	2337.59
708.296	2452.27
708.484	2466.61
708.672	2540.33
708.86	2394.93
709.048	2427.7
709.236	2376.5
709.424	2300.72
709.612	2327.35
709.8	2429.74
709.988	2274.1
710.176	2485.04
710.364	2329.39
710.551	2335.54
710.739	2388.78
710.927	2392.88
711.115	2399.02
711.303	2372.4
711.491	2442.03
711.679	2347.83
711.866	2341.68
712.054	2513.71
712.242	2306.87
712.43	2390.83
712.617	2347.83
712.805	2433.84
712.993	2284.34
713.181	2235.19
713.368	2407.22
713.556	2368.31
713.744	2347.83
713.931	2337.59
714.119	2270
714.306	2327.35
714.494	2243.38
714.682	2261.81
714.869	2241.33
715.057	2300.72
715.244	2288.43
715.432	2411.31
715.619	2366.26
715.807	2425.65
715.994	2341.68
716.182	2321.2
716.369	2224.95
716.556	2323.25
716.744	2222.9
716.931	2175.8
717.119	2360.11
717.306	2251.57
717.493	2196.28
717.681	2313.01
717.868	2239.28
718.055	2288.43
718.242	2413.36
718.43	2249.52
718.617	2282.29
718.804	2284.34
718.991	2345.78
719.179	2288.43
719.366	2220.85
719.553	2280.24
719.74	2304.82
719.927	2233.14
720.114	2302.77
720.301	2229.04
720.488	2227
720.676	2292.53
720.863	2358.07
721.05	2296.63
721.237	2276.15
721.424	2272.05
721.611	2308.91
721.798	2302.77
721.985	2313.01
722.172	2263.86
722.358	2198.32
722.545	2206.52
722.732	2325.3
722.919	2183.99
723.106	2282.29
723.293	2237.24
723.48	2370.35
723.667	2272.05
723.853	2345.78
724.04	2304.82
724.227	2192.18
724.414	2179.89
724.6	2270
724.787	2245.43
724.974	2353.97
725.161	2319.15
725.347	2243.38
725.534	2329.39
725.72	2335.54
725.907	2241.33
726.094	2306.87
726.28	2315.06
726.467	2216.76
726.653	2259.76
726.84	2356.02
727.027	2388.78
727.213	2231.09
727.4	2257.71
727.586	2235.19
727.773	2265.91
727.959	2212.66
728.145	2286.39
728.332	2325.3
728.518	2126.64
728.705	2419.5
728.891	2335.54
729.077	2302.77
729.264	2300.72
729.45	2392.88
729.636	2380.59
729.823	2231.09
730.009	2437.94
730.195	2372.4
730.382	2396.98
730.568	2339.63
730.754	2390.83
730.94	2405.17
731.126	2276.15
731.313	2362.16
731.499	2351.92
731.685	2384.69
731.871	2386.74
732.057	2415.41
732.243	2368.31
732.429	2349.87
732.615	2415.41
732.801	2356.02
732.987	2401.07
733.173	2417.46
733.359	2204.47
733.545	2433.84
733.731	2315.06
733.917	2413.36
734.103	2388.78
734.289	2495.28
734.475	2427.7
734.661	2474.8
734.847	2458.42
735.033	2521.9
735.219	2415.41
735.404	2503.47
735.59	2454.32
735.776	2458.42
735.962	2476.85
736.148	2501.42
736.333	2521.9
736.519	2378.55
736.705	2482.99
736.89	2505.52
737.076	2464.56
737.262	2405.17
737.447	2425.65
737.633	2407.22
737.819	2452.27
738.004	2460.46
738.19	2372.4
738.375	2407.22
738.561	2435.89
738.747	2456.37
738.932	2360.11
739.118	2501.42
739.303	2450.22
739.489	2372.4
739.674	2446.13
739.859	2356.02
740.045	2446.13
740.23	2470.7
740.416	2388.78
740.601	2495.28
740.786	2433.84
740.972	2380.59
741.157	2392.88
741.342	2364.21
741.528	2528.05
741.713	2474.8
741.898	2485.04
742.084	2485.04
742.269	2421.55
742.454	2384.69
742.639	2411.31
742.824	2462.51
743.01	2470.7
743.195	2505.52
743.38	2394.93
743.565	2233.14
743.75	2403.12
743.935	2362.16
744.12	2491.18
744.305	2274.1
744.49	2499.38
744.675	2343.73
744.86	2325.3
745.045	2433.84
745.23	2396.98
745.415	2224.95
745.6	2366.26
745.785	2341.68
745.97	2362.16
746.155	2284.34
746.34	2405.17
746.525	2227
746.71	2296.63
746.895	2331.44
747.079	2229.04
747.264	2317.11
747.449	2302.77
747.634	2384.69
747.819	2321.2
748.003	2280.24
748.188	2296.63
748.373	2353.97
748.557	2358.07
748.742	2247.48
748.927	2175.8
749.111	2233.14
749.296	2118.45
749.481	2249.52
749.665	2261.81
749.85	2165.56
750.034	2218.8
750.219	2091.83
750.404	2122.55
750.588	2083.64
750.773	2153.27
750.957	2151.22
751.141	2114.36
751.326	2007.86
751.51	2173.75
751.695	2042.68
751.879	2018.1
752.064	2077.49
752.248	2075.45
752.432	2067.25
752.617	1979.19
752.801	1995.57
752.985	2050.87
753.17	1954.62
753.354	1923.9
753.538	1968.95
753.722	1966.9
753.907	1880.89
754.091	1919.8
754.275	1872.7
754.459	1946.42
754.643	1872.7
754.828	1755.96
755.012	1942.33
755.196	1823.55
755.38	1833.79
755.564	1911.61
755.748	1864.5
755.932	1825.59
756.116	1829.69
756.3	1819.45
756.484	1794.87
756.668	1833.79
756.852	1688.38
757.036	1715
757.22	1817.4
757.404	1837.88
757.588	1608.51
757.772	1712.96
757.956	1706.81
758.14	1723.2
758.323	1624.89
758.507	1715
758.691	1686.33
758.875	1610.56
759.059	1712.96
759.242	1667.9
759.426	1657.66
759.61	1676.09
759.794	1639.23
759.977	1614.65
760.161	1706.81
760.345	1532.73
760.528	1635.13
760.712	1514.3
760.895	1575.74
761.079	1536.83
761.263	1598.27
761.446	1549.12
761.63	1534.78
761.813	1481.53
761.997	1528.64
762.18	1577.79
762.364	1602.36
762.547	1485.63
762.731	1534.78
762.914	1497.92
763.098	1405.76
763.281	1399.62
763.464	1467.2
763.648	1549.12
763.831	1463.1
764.015	1434.43
764.198	1432.38
764.381	1508.16
764.564	1479.49
764.748	1426.24
764.931	1555.26
765.114	1405.76
765.297	1489.73
765.481	1481.53
765.664	1407.81
765.847	1362.75
766.03	1504.06
766.213	1319.75
766.397	1436.48
766.58	1358.66
766.763	1334.08
766.946	1293.12
767.129	1397.57
767.312	1348.42
767.495	1426.24
767.678	1342.27
767.861	1303.36
768.044	1364.8
768.227	1375.04
768.41	1262.4
768.593	1348.42
768.776	1336.13
768.959	1258.31
769.142	1317.7
769.324	1375.04
769.507	1289.03
769.69	1323.84
769.873	1319.75
770.056	1432.38
770.239	1442.62
770.421	1278.79
770.604	1237.83
770.787	1278.79
770.97	1215.3
771.152	1180.48
771.335	1321.79
771.518	1198.92
771.7	1188.68
771.883	1272.64
772.066	1188.68
772.248	1073.99
772.431	1313.6
772.613	1211.2
772.796	1063.75
772.978	1254.21
773.161	1233.73
773.343	1123.14
773.526	1082.18
773.708	1037.13
773.891	1002.31
774.073	1141.57
774.256	1127.24
774.438	1112.9
774.621	1170.24
774.803	1114.95
774.985	949.06
775.168	1082.18
775.35	1071.94
775.532	1147.72
775.715	1073.99
775.897	1043.27
776.079	1043.27
776.261	1069.89
776.444	1051.46
776.626	1153.86
776.808	1041.22
776.99	942.92
777.173	992.07
777.355	949.06
777.537	1028.93
777.719	1006.41
777.901	1024.84
778.083	987.97
778.265	883.53
778.447	893.77
778.629	1002.31
778.811	949.06
778.993	949.06
779.175	936.78
779.357	912.2
779.539	875.34
779.721	944.97
779.903	856.9
780.085	906.06
780.267	787.27
780.449	924.49
780.631	832.33
780.812	844.62
780.994	774.99
781.176	930.63
781.358	832.33
781.54	795.47
781.721	813.9
781.903	885.58
782.085	797.51
782.267	959.3
782.448	832.33
782.63	785.23
782.812	779.08
782.993	779.08
783.175	744.27
783.357	766.79
783.538	803.66
783.72	717.64
783.901	719.69
784.083	750.41
784.264	770.89
784.446	635.72
784.627	744.27
784.809	684.87
784.99	607.05
785.172	645.96
785.353	746.31
785.535	727.88
785.716	662.35
785.897	652.11
786.079	709.45
786.26	713.55
786.441	672.59
786.623	641.87
786.804	662.35
786.985	613.2
787.167	705.35
787.348	611.15
787.529	594.76
787.71	621.39
787.891	580.43
788.073	570.19
788.254	572.24
788.435	596.81
788.616	582.48
788.797	541.52
788.978	516.94
789.159	523.09
789.34	609.1
789.522	527.18
789.703	518.99
789.884	578.38
790.065	672.59
790.246	523.09
790.427	539.47
790.607	559.95
790.788	562
790.969	504.65
791.15	568.14
791.331	539.47
791.512	451.41
791.693	496.46
791.874	611.15
792.054	549.71
792.235	457.55
792.416	484.17
792.597	478.03
792.778	611.15
792.958	502.61
793.139	486.22
793.32	504.65
793.5	437.07
793.681	496.46
793.862	447.31
794.042	486.22
794.223	414.54
794.404	414.54
794.584	412.5
794.765	435.02
794.945	475.98
795.126	379.73
795.306	467.79
795.487	435.02
795.667	441.17
795.848	365.39
796.028	502.61
796.209	320.34
796.389	385.87
796.57	449.36
796.75	461.65
796.93	455.5
797.111	441.17
797.291	359.25
797.471	443.21
797.652	420.69
797.832	342.86
798.012	371.54
798.192	303.95
798.373	297.81
798.553	355.15
798.733	379.73
798.913	232.27
799.093	365.39
799.274	375.63
799.454	402.26
799.634	332.62
799.814	373.58
799.994	416.59
800.174	371.54
800.354	330.58
800.534	336.72
800.714	312.14
800.894	236.37
801.074	353.1
801.254	363.34
801.434	357.2
801.614	310.1
801.794	252.75
801.974	971.59
802.154	301.9
802.334	383.82
802.514	375.63
802.693	297.81
802.873	361.3
803.053	336.72
803.233	346.96
803.413	330.58
803.592	310.1
803.772	262.99
803.952	301.9
804.131	312.14
804.311	295.76
804.491	326.48
804.67	273.23
804.85	328.53
805.03	355.15
805.209	359.25
805.389	267.09
805.568	291.66
805.748	324.43
805.928	242.51
806.107	330.58
806.287	342.86
806.466	226.13
806.646	295.76
806.825	281.43
807.004	215.89
807.184	314.19
807.363	277.33
807.543	279.38
807.722	262.99
807.901	238.42
808.081	306
808.26	236.37
808.439	306
808.619	215.89
808.798	289.62
808.977	289.62
809.156	279.38
809.336	250.71
809.515	373.58
809.694	170.83
809.873	230.23
810.052	281.43
810.231	277.33
810.411	224.08
810.59	279.38
810.769	207.7
810.948	250.71
811.127	242.51
811.306	172.88
811.485	248.66
811.664	267.09
811.843	297.81
812.022	297.81
812.201	273.23
812.38	250.71
812.559	250.71
812.737	205.65
812.916	209.75
813.095	164.69
813.274	258.9
813.453	201.55
813.632	297.81
813.811	211.79
813.989	172.88
814.168	226.13
814.347	168.79
814.526	242.51
814.704	256.85
814.883	228.18
815.062	265.04
815.24	224.08
815.419	160.59
815.598	203.6
815.776	205.65
815.955	176.98
816.133	238.42
816.312	131.92
816.49	164.69
816.669	283.47
816.847	215.89
817.026	199.51
817.204	195.41
817.383	293.71
817.561	234.32
817.74	181.07
817.918	258.9
818.097	219.99
818.275	123.73
818.453	265.04
818.632	179.03
818.81	93.01
818.988	246.61
819.167	158.55
819.345	242.51
819.523	131.92
819.701	240.47
819.879	150.36
820.058	152.4
820.236	158.55
820.414	217.94
820.592	205.65
820.77	154.45
820.948	88.92
821.127	207.7
821.305	199.51
821.483	144.21
821.661	211.79
821.839	238.42
822.017	170.83
822.195	117.59
822.373	205.65
822.551	170.83
822.729	90.96
822.907	113.49
823.085	176.98
823.262	109.4
823.44	60.24
823.618	160.59
823.796	179.03
823.974	158.55
824.152	119.64
824.329	136.02
824.507	127.83
824.685	123.73
824.863	138.07
825.04	150.36
825.218	240.47
825.396	158.55
825.574	211.79
825.751	140.12
825.929	160.59
826.107	156.5
826.284	140.12
826.462	154.45
826.639	97.11
826.817	115.54
826.994	172.88
827.172	72.53
827.349	217.94
827.527	148.31
827.704	174.93
827.882	142.16
828.059	148.31
828.237	56.15
828.414	125.78
828.591	86.87
828.769	123.73
828.946	60.24
829.124	142.16
829.301	174.93
829.478	78.68
829.655	191.31
829.833	68.44
830.01	50
830.187	37.72
830.364	84.82
830.542	150.36
830.719	146.26
830.896	97.11
831.073	115.54
831.25	142.16
831.427	158.55
831.604	31.57
831.782	129.88
831.959	25.43
832.136	127.83
832.313	146.26
832.49	136.02
832.667	133.97
832.844	115.54
833.021	103.25
833.198	123.73
833.374	95.06
833.551	133.97
833.728	43.86
833.905	123.73
834.082	58.2
834.259	84.82
834.436	129.88
834.612	176.98
834.789	88.92
834.966	152.4
835.143	105.3
835.319	74.58
835.496	37.72
835.673	156.5
835.85	103.25
836.026	127.83
836.203	111.44
836.38	64.34
836.556	4.95
836.733	119.64
836.909	117.59
837.086	131.92
837.262	56.15
837.439	31.57
837.616	47.96
837.792	146.26
837.968	129.88
838.145	43.86
838.321	123.73
838.498	86.87
838.674	39.76
838.851	144.21
839.027	103.25
839.203	146.26
839.38	97.11
839.556	93.01
839.732	62.29
839.909	90.96
840.085	123.73
840.261	95.06
840.437	146.26
840.614	68.44
840.79	129.88
840.966	140.12
841.142	15.19
841.318	95.06
841.494	86.87
841.671	45.91
841.847	105.3
842.023	29.52
842.199	113.49
842.375	162.64
842.551	9.05
842.727	-3.24
842.903	101.2
843.079	64.34
843.255	123.73
843.431	72.53
843.607	90.96
843.783	68.44
843.959	140.12
844.134	-36.01
844.31	107.35
844.486	29.52
844.662	76.63
844.838	119.64
845.013	93.01
845.189	76.63
845.365	95.06
845.541	74.58
845.716	-11.43
845.892	62.29
846.068	93.01
846.244	41.81
846.419	115.54
846.595	74.58
846.77	86.87
846.946	68.44
847.122	64.34
847.297	52.05
847.473	131.92
847.648	60.24
847.824	86.87
847.999	0.85
848.175	82.77
848.35	105.3
848.526	107.35
848.701	56.15
848.876	156.5
849.052	90.96
849.227	56.15
849.403	54.1
849.578	72.53
849.753	50
849.929	127.83
850.104	45.91
850.279	56.15
850.454	43.86
850.63	146.26
850.805	0.85
850.98	80.72
851.155	84.82
851.33	72.53
851.505	60.24
851.681	115.54
851.856	4.95
852.031	37.72
852.206	84.82
852.381	-17.58
852.556	27.48
852.731	78.68
852.906	-40.11
853.081	72.53
853.256	66.39
853.431	136.02
853.606	-11.43
853.781	13.14
853.956	-3.24
854.131	74.58
854.305	-36.01
854.48	15.19
854.655	29.52
854.83	-1.19
855.005	52.05
855.18	86.87
855.354	21.33
855.529	-5.29
855.704	13.14
855.879	52.05
856.053	13.14
856.228	101.2
856.403	35.67
856.577	107.35
856.752	35.67
856.926	52.05
857.101	31.57
857.276	19.29
857.45	33.62
857.625	25.43
857.799	-5.29
857.974	58.2
858.148	15.19
858.323	56.15
858.497	31.57
858.672	33.62
858.846	56.15
859.02	15.19
859.195	47.96
859.369	74.58
859.543	74.58
859.718	9.05
859.892	82.77
860.066	9.05
860.241	52.05
860.415	-7.34
860.589	64.34
860.763	35.67
860.938	11.09
861.112	101.2
861.286	7
861.46	115.54
861.634	-1.19
861.808	103.25
861.982	39.76
862.157	-7.34
862.331	17.24
862.505	-31.91
862.679	-64.68
862.853	31.57
863.027	-3.24
863.201	35.67
863.375	25.43
863.549	41.81
863.722	17.24
863.896	37.72
864.07	58.2
864.244	54.1
864.418	78.68
864.592	-25.77
864.766	2.9
864.939	-15.53
865.113	58.2
865.287	13.14
865.461	29.52
865.634	15.19
865.808	0.85
865.982	-19.63
866.156	-38.06
866.329	-29.87
866.503	60.24
866.676	56.15
866.85	-52.39
867.024	-52.39
867.197	9.05
867.371	78.68
867.544	29.52
867.718	19.29
867.891	70.48
868.065	33.62
868.238	41.81
868.412	0.85
868.585	-48.3
868.759	11.09
868.932	35.67
869.105	-44.2
869.279	9.05
869.452	86.87
869.625	0.85
869.799	-1.19
869.972	2.9
870.145	23.38
870.319	60.24
870.492	2.9
870.665	21.33
870.838	33.62
871.011	33.62
871.185	11.09
871.358	-56.49
871.531	50
871.704	25.43
871.877	27.48
872.05	0.85
872.223	54.1
872.396	90.96
872.569	27.48
872.742	-52.39
872.915	33.62
873.088	-7.34
873.261	-23.72
873.434	56.15
873.607	25.43
873.78	52.05
873.953	50
874.126	9.05
874.299	33.62
874.471	4.95
874.644	56.15
874.817	4.95
874.99	-19.63
875.163	-15.53
875.335	43.86
875.508	-3.24
875.681	4.95
875.853	4.95
876.026	25.43
876.199	37.72
876.371	72.53
876.544	19.29
876.717	-17.58
876.889	-1.19
877.062	-13.48
877.234	-27.82
877.407	-7.34
877.579	15.19
877.752	21.33
877.924	-5.29
878.097	37.72
878.269	4.95
878.442	4.95
878.614	-5.29
878.786	50
878.959	21.33
879.131	27.48
879.303	25.43
879.476	-15.53
879.648	68.44
879.82	17.24
879.993	-15.53
880.165	19.29
880.337	2.9
880.509	-3.24
880.681	-70.83
880.854	58.2
881.026	39.76
881.198	84.82
881.37	-5.29
881.542	11.09
881.714	52.05
881.886	21.33
882.058	-31.91
882.23	43.86
882.402	25.43
882.574	80.72
882.746	33.62
882.918	29.52
883.09	23.38
883.262	66.39
883.434	70.48
883.606	9.05
883.778	29.52
883.95	70.48
884.122	50
884.293	78.68
884.465	29.52
884.637	15.19
884.809	27.48
884.98	-19.63
885.152	25.43
885.324	-36.01
885.496	-33.96
885.667	11.09
885.839	-62.63
886.011	111.44
886.182	17.24
886.354	37.72
886.525	-15.53
886.697	17.24
886.869	-79.02
887.04	-11.43
887.212	9.05
887.383	107.35
887.555	11.09
887.726	21.33
887.897	-46.25
888.069	0.85
888.24	9.05
888.412	41.81
888.583	-36.01
888.754	-13.48
888.926	-25.77
889.097	-1.19
889.268	-58.54
889.44	-5.29
889.611	23.38
889.782	-9.39
889.953	-23.72
890.125	41.81
890.296	-3.24
890.467	35.67
890.638	-27.82
890.809	27.48
890.98	-97.45
891.151	21.33
891.323	43.86
891.494	17.24
891.665	-52.39
891.836	52.05
892.007	68.44
892.178	-17.58
892.349	-17.58
892.52	-46.25
892.691	-17.58
892.862	39.76
893.032	11.09
893.203	29.52
893.374	4.95
893.545	52.05
893.716	35.67
893.887	-11.43
894.057	7
894.228	31.57
894.399	13.14
894.57	52.05
894.74	-19.63
894.911	-31.91
895.082	31.57
895.253	-33.96
895.423	58.2
895.594	47.96
895.764	35.67
895.935	-76.97
896.106	47.96
896.276	-40.11
896.447	25.43
896.617	-1.19
896.788	-44.2
896.958	43.86
897.129	-36.01
897.299	-66.73
897.47	11.09
897.64	-56.49
897.81	-36.01
897.981	-9.39
898.151	-40.11
898.322	39.76
898.492	23.38
898.662	45.91
898.832	-7.34
899.003	-66.73
899.173	-46.25
899.343	7
899.513	-15.53
