Data from USB4F104151__7__12-40-57-237.txt Node

Date: Fri Mar 14 12:40:57 EDT 2025
User: louis
Spectrometer: USB4F10415
Trigger mode: 4
Integration Time (sec): 3.000000E-2
Scans to average: 1
Electric dark correction enabled: true
Nonlinearity correction enabled: false
Boxcar width: 0
XAxis mode: Wavelengths
Number of Pixels in Spectrum: 3648
>>>>>Begin Spectral Data<<<<<
178.204	-108.37
178.424	-108.37
178.644	-108.37
178.864	-157.52
179.084	-85.84
179.304	-40.79
179.524	-16.21
179.744	-14.17
179.964	-16.21
180.184	10.41
180.404	10.41
180.624	43.18
180.844	32.94
181.064	-59.22
181.283	-36.69
181.503	43.18
181.723	43.18
181.943	-10.07
182.163	110.76
182.383	37.03
182.602	37.03
182.822	32.94
183.042	34.99
183.262	-36.69
183.482	32.94
183.701	-40.79
183.921	-12.12
184.141	8.36
184.361	28.84
184.58	-5.97
184.8	28.84
185.02	4.27
185.239	32.94
185.459	37.03
185.679	-1.88
185.898	-18.26
186.118	-40.79
186.338	37.03
186.557	37.03
186.777	-12.12
186.997	10.41
187.216	45.23
187.436	28.84
187.655	22.7
187.875	22.7
188.095	37.03
188.314	16.55
188.534	49.32
188.753	55.47
188.973	-44.88
189.192	71.85
189.412	-28.5
189.631	10.41
189.851	55.47
190.07	12.46
190.29	-59.22
190.509	61.61
190.729	-44.88
190.948	41.13
191.168	143.53
191.387	20.65
191.607	43.18
191.826	82.09
192.045	34.99
192.265	-53.08
192.484	69.8
192.704	-3.93
192.923	0.17
193.142	96.43
193.362	63.66
193.581	30.89
193.8	69.8
194.02	82.09
194.239	-1.88
194.458	4.27
194.678	69.8
194.897	-14.17
195.116	88.23
195.335	-3.93
195.555	86.19
195.774	0.17
195.993	75.95
196.212	28.84
196.432	51.37
196.651	65.71
196.87	30.89
197.089	57.51
197.308	73.9
197.528	6.31
197.747	-18.26
197.966	37.03
198.185	80.04
198.404	2.22
198.623	45.23
198.842	75.95
199.062	65.71
199.281	4.27
199.5	-61.27
199.719	57.51
199.938	88.23
200.157	75.95
200.376	73.9
200.595	2.22
200.814	-5.97
201.033	-24.4
201.252	59.56
201.471	-1.88
201.69	37.03
201.909	12.46
202.128	61.61
202.347	14.51
202.566	47.27
202.785	18.6
203.004	41.13
203.223	106.67
203.442	18.6
203.661	-10.07
203.879	-8.02
204.098	12.46
204.317	10.41
204.536	37.03
204.755	45.23
204.974	12.46
205.193	26.79
205.411	-16.21
205.63	14.51
205.849	-18.26
206.068	-30.55
206.287	18.6
206.505	108.71
206.724	-5.97
206.943	61.61
207.162	-20.31
207.381	8.36
207.599	4.27
207.818	41.13
208.037	-10.07
208.255	28.84
208.474	-3.93
208.693	47.27
208.911	63.66
209.13	67.75
209.349	20.65
209.567	-8.02
209.786	53.42
210.005	-24.4
210.223	12.46
210.442	-24.4
210.661	49.32
210.879	22.7
211.098	-20.31
211.316	-12.12
211.535	92.33
211.753	51.37
211.972	63.66
212.191	71.85
212.409	45.23
212.628	41.13
212.846	-48.98
213.065	67.75
213.283	102.57
213.502	-26.45
213.72	65.71
213.938	67.75
214.157	10.41
214.375	-8.02
214.594	45.23
214.812	8.36
215.031	10.41
215.249	37.03
215.467	47.27
215.686	45.23
215.904	39.08
216.122	45.23
216.341	47.27
216.559	0.17
216.778	102.57
216.996	30.89
217.214	-1.88
217.432	37.03
217.651	63.66
217.869	37.03
218.087	-77.65
218.306	20.65
218.524	86.19
218.742	41.13
218.96	20.65
219.179	-1.88
219.397	-38.74
219.615	75.95
219.833	12.46
220.051	20.65
220.27	8.36
220.488	16.55
220.706	32.94
220.924	-30.55
221.142	2.22
221.36	32.94
221.578	2.22
221.796	67.75
222.015	47.27
222.233	57.51
222.451	67.75
222.669	-8.02
222.887	-12.12
223.105	49.32
223.323	-40.79
223.541	-46.93
223.759	69.8
223.977	37.03
224.195	20.65
224.413	16.55
224.631	53.42
224.849	71.85
225.067	84.14
225.285	45.23
225.503	45.23
225.721	-20.31
225.939	47.27
226.157	37.03
226.375	104.62
226.592	-28.5
226.81	34.99
227.028	133.29
227.246	41.13
227.464	22.7
227.682	69.8
227.9	75.95
228.117	-18.26
228.335	-32.6
228.553	16.55
228.771	-5.97
228.989	-3.93
229.206	6.31
229.424	28.84
229.642	4.27
229.86	59.56
230.077	116.9
230.295	12.46
230.513	43.18
230.731	49.32
230.948	4.27
231.166	47.27
231.384	2.22
231.601	20.65
231.819	80.04
232.037	41.13
232.254	53.42
232.472	30.89
232.689	14.51
232.907	82.09
233.125	2.22
233.342	-1.88
233.56	-14.17
233.777	-5.97
233.995	57.51
234.213	61.61
234.43	108.71
234.648	-24.4
234.865	30.89
235.083	49.32
235.3	51.37
235.518	12.46
235.735	49.32
235.953	110.76
236.17	-59.22
236.388	-28.5
236.605	77.99
236.822	32.94
237.04	88.23
237.257	39.08
237.475	-30.55
237.692	8.36
237.909	49.32
238.127	-79.7
238.344	4.27
238.562	55.47
238.779	28.84
238.996	45.23
239.214	34.99
239.431	41.13
239.648	16.55
239.865	-40.79
240.083	14.51
240.3	22.7
240.517	18.6
240.735	-32.6
240.952	47.27
241.169	-22.36
241.386	51.37
241.603	37.03
241.821	-44.88
242.038	-57.17
242.255	77.99
242.472	-34.64
242.689	57.51
242.907	28.84
243.124	49.32
243.341	-28.5
243.558	-83.8
243.775	69.8
243.992	-32.6
244.209	-12.12
244.426	82.09
244.643	73.9
244.86	-18.26
245.078	71.85
245.295	30.89
245.512	45.23
245.729	20.65
245.946	8.36
246.163	10.41
246.38	-18.26
246.597	71.85
246.814	53.42
247.031	24.75
247.248	24.75
247.464	77.99
247.681	32.94
247.898	65.71
248.115	65.71
248.332	53.42
248.549	-22.36
248.766	61.61
248.983	57.51
249.2	57.51
249.417	43.18
249.633	20.65
249.85	61.61
250.067	-18.26
250.284	53.42
250.501	8.36
250.717	77.99
250.934	8.36
251.151	53.42
251.368	8.36
251.585	47.27
251.801	55.47
252.018	-38.74
252.235	65.71
252.451	-16.21
252.668	43.18
252.885	59.56
253.102	65.71
253.318	43.18
253.535	-1.88
253.752	-61.27
253.968	49.32
254.185	-42.84
254.401	41.13
254.618	6.31
254.835	-30.55
255.051	57.51
255.268	30.89
255.484	-1.88
255.701	-12.12
255.917	125.1
256.134	-22.36
256.351	63.66
256.567	-5.97
256.784	108.71
257	-81.75
257.217	10.41
257.433	41.13
257.65	55.47
257.866	61.61
258.082	16.55
258.299	41.13
258.515	45.23
258.732	51.37
258.948	41.13
259.165	37.03
259.381	47.27
259.597	8.36
259.814	-36.69
260.03	-26.45
260.246	55.47
260.463	-5.97
260.679	-1.88
260.895	-8.02
261.112	22.7
261.328	-8.02
261.544	-34.64
261.761	14.51
261.977	-85.84
262.193	22.7
262.409	96.43
262.626	59.56
262.842	14.51
263.058	-12.12
263.274	86.19
263.49	90.28
263.707	16.55
263.923	55.47
264.139	-28.5
264.355	24.75
264.571	26.79
264.787	75.95
265.004	14.51
265.22	-46.93
265.436	12.46
265.652	12.46
265.868	39.08
266.084	-42.84
266.3	-18.26
266.516	-30.55
266.732	55.47
266.948	20.65
267.164	45.23
267.38	18.6
267.596	47.27
267.812	104.62
268.028	34.99
268.244	20.65
268.46	41.13
268.676	32.94
268.892	65.71
269.108	-1.88
269.324	18.6
269.54	20.65
269.756	55.47
269.972	86.19
270.188	-36.69
270.403	-12.12
270.619	-1.88
270.835	22.7
271.051	34.99
271.267	-91.99
271.483	41.13
271.698	-14.17
271.914	34.99
272.13	-46.93
272.346	4.27
272.562	14.51
272.777	55.47
272.993	45.23
273.209	0.17
273.425	-14.17
273.64	-69.46
273.856	-12.12
274.072	8.36
274.287	32.94
274.503	39.08
274.719	-18.26
274.934	-1.88
275.15	8.36
275.366	4.27
275.581	-12.12
275.797	39.08
276.012	20.65
276.228	37.03
276.444	77.99
276.659	47.27
276.875	-53.08
277.09	0.17
277.306	4.27
277.521	77.99
277.737	41.13
277.952	-28.5
278.168	8.36
278.383	-20.31
278.599	86.19
278.814	96.43
279.03	-26.45
279.245	121
279.461	45.23
279.676	47.27
279.892	-18.26
280.107	-12.12
280.322	8.36
280.538	6.31
280.753	2.22
280.969	82.09
281.184	-22.36
281.399	24.75
281.615	63.66
281.83	-16.21
282.045	-18.26
282.26	88.23
282.476	18.6
282.691	47.27
282.906	-16.21
283.122	22.7
283.337	-46.93
283.552	26.79
283.767	16.55
283.983	-8.02
284.198	6.31
284.413	47.27
284.628	69.8
284.843	114.86
285.058	39.08
285.274	-22.36
285.489	-8.02
285.704	53.42
285.919	28.84
286.134	-10.07
286.349	71.85
286.564	-46.93
286.779	18.6
286.995	102.57
287.21	-1.88
287.425	67.75
287.64	4.27
287.855	6.31
288.07	82.09
288.285	8.36
288.5	41.13
288.715	-22.36
288.93	39.08
289.145	43.18
289.36	14.51
289.575	98.47
289.79	20.65
290.004	-3.93
290.219	-1.88
290.434	43.18
290.649	-32.6
290.864	30.89
291.079	39.08
291.294	53.42
291.509	-16.21
291.724	30.89
291.938	71.85
292.153	41.13
292.368	98.47
292.583	63.66
292.798	-22.36
293.012	82.09
293.227	20.65
293.442	4.27
293.657	73.9
293.871	32.94
294.086	34.99
294.301	82.09
294.516	-10.07
294.73	14.51
294.945	2.22
295.16	28.84
295.374	90.28
295.589	41.13
295.804	-10.07
296.018	12.46
296.233	41.13
296.447	71.85
296.662	8.36
296.877	67.75
297.091	0.17
297.306	39.08
297.52	-34.64
297.735	-3.93
297.949	-32.6
298.164	47.27
298.378	-5.97
298.593	32.94
298.807	-30.55
299.022	61.61
299.236	14.51
299.451	-8.02
299.665	12.46
299.88	34.99
300.094	-10.07
300.309	100.52
300.523	8.36
300.737	12.46
300.952	98.47
301.166	32.94
301.381	71.85
301.595	51.37
301.809	16.55
302.024	55.47
302.238	16.55
302.452	63.66
302.667	-10.07
302.881	73.9
303.095	8.36
303.309	-8.02
303.524	-30.55
303.738	28.84
303.952	86.19
304.166	-14.17
304.381	-18.26
304.595	82.09
304.809	41.13
305.023	71.85
305.237	24.75
305.452	14.51
305.666	82.09
305.88	53.42
306.094	51.37
306.308	-18.26
306.522	24.75
306.736	-12.12
306.95	6.31
307.164	80.04
307.379	-3.93
307.593	98.47
307.807	57.51
308.021	6.31
308.235	-24.4
308.449	-8.02
308.663	49.32
308.877	86.19
309.091	49.32
309.305	20.65
309.519	-48.98
309.733	16.55
309.947	-71.51
310.161	39.08
310.374	100.52
310.588	-1.88
310.802	80.04
311.016	-34.64
311.23	-1.88
311.444	12.46
311.658	-38.74
311.872	100.52
312.085	69.8
312.299	28.84
312.513	8.36
312.727	-20.31
312.941	121
313.154	8.36
313.368	-16.21
313.582	67.75
313.796	-1.88
314.009	45.23
314.223	51.37
314.437	16.55
314.651	30.89
314.864	57.51
315.078	4.27
315.292	47.27
315.505	2.22
315.719	77.99
315.933	88.23
316.146	6.31
316.36	65.71
316.573	16.55
316.787	69.8
317.001	77.99
317.214	-12.12
317.428	47.27
317.641	90.28
317.855	71.85
318.068	86.19
318.282	0.17
318.495	100.52
318.709	39.08
318.922	10.41
319.136	2.22
319.349	24.75
319.563	-1.88
319.776	155.82
319.99	-8.02
320.203	18.6
320.417	-3.93
320.63	63.66
320.843	63.66
321.057	41.13
321.27	-14.17
321.483	-28.5
321.697	106.67
321.91	8.36
322.124	47.27
322.337	-12.12
322.55	34.99
322.763	-36.69
322.977	82.09
323.19	-5.97
323.403	-10.07
323.617	65.71
323.83	61.61
324.043	30.89
324.256	90.28
324.469	-20.31
324.683	45.23
324.896	30.89
325.109	0.17
325.322	14.51
325.535	20.65
325.748	39.08
325.962	-1.88
326.175	-36.69
326.388	43.18
326.601	28.84
326.814	73.9
327.027	63.66
327.24	67.75
327.453	-5.97
327.666	6.31
327.879	88.23
328.092	69.8
328.305	43.18
328.518	75.95
328.731	-46.93
328.944	51.37
329.157	22.7
329.37	45.23
329.583	57.51
329.796	110.76
330.009	26.79
330.222	-1.88
330.435	-24.4
330.648	34.99
330.861	18.6
331.073	86.19
331.286	135.34
331.499	67.75
331.712	18.6
331.925	-20.31
332.138	8.36
332.35	67.75
332.563	41.13
332.776	41.13
332.989	18.6
333.202	-3.93
333.414	39.08
333.627	112.81
333.84	14.51
334.053	86.19
334.265	63.66
334.478	39.08
334.691	-5.97
334.903	-5.97
335.116	10.41
335.329	43.18
335.541	45.23
335.754	41.13
335.966	-8.02
336.179	63.66
336.392	-18.26
336.604	-12.12
336.817	-5.97
337.029	32.94
337.242	-91.99
337.454	26.79
337.667	41.13
337.88	110.76
338.092	63.66
338.305	59.56
338.517	-1.88
338.729	53.42
338.942	73.9
339.154	24.75
339.367	-12.12
339.579	104.62
339.792	20.65
340.004	30.89
340.217	49.32
340.429	77.99
340.641	-12.12
340.854	22.7
341.066	34.99
341.278	84.14
341.491	108.71
341.703	8.36
341.915	-22.36
342.128	22.7
342.34	30.89
342.552	24.75
342.764	63.66
342.977	88.23
343.189	96.43
343.401	-26.45
343.613	-22.36
343.826	47.27
344.038	-38.74
344.25	-44.88
344.462	-57.17
344.674	24.75
344.886	8.36
345.099	8.36
345.311	16.55
345.523	2.22
345.735	24.75
345.947	88.23
346.159	53.42
346.371	22.7
346.583	-10.07
346.795	61.61
347.007	30.89
347.219	63.66
347.431	18.6
347.643	41.13
347.855	59.56
348.067	55.47
348.279	34.99
348.491	4.27
348.703	77.99
348.915	43.18
349.127	-5.97
349.339	55.47
349.551	-40.79
349.763	-12.12
349.975	55.47
350.187	118.95
350.399	55.47
350.61	57.51
350.822	30.89
351.034	14.51
351.246	98.47
351.458	49.32
351.669	102.57
351.881	71.85
352.093	55.47
352.305	32.94
352.517	26.79
352.728	45.23
352.94	-5.97
353.152	-8.02
353.363	-48.98
353.575	41.13
353.787	159.91
353.999	77.99
354.21	90.28
354.422	39.08
354.633	69.8
354.845	90.28
355.057	75.95
355.268	32.94
355.48	41.13
355.692	-22.36
355.903	-48.98
356.115	-51.03
356.326	-20.31
356.538	82.09
356.749	16.55
356.961	75.95
357.172	61.61
357.384	24.75
357.595	84.14
357.807	53.42
358.018	-10.07
358.23	37.03
358.441	55.47
358.653	73.9
358.864	43.18
359.075	8.36
359.287	80.04
359.498	86.19
359.709	8.36
359.921	16.55
360.132	47.27
360.344	63.66
360.555	73.9
360.766	43.18
360.977	100.52
361.189	55.47
361.4	26.79
361.611	10.41
361.823	47.27
362.034	14.51
362.245	22.7
362.456	2.22
362.667	90.28
362.879	0.17
363.09	65.71
363.301	102.57
363.512	57.51
363.723	4.27
363.935	16.55
364.146	43.18
364.357	59.56
364.568	-73.56
364.779	-28.5
364.99	59.56
365.201	30.89
365.412	0.17
365.623	45.23
365.834	2.22
366.045	6.31
366.256	37.03
366.467	-18.26
366.678	53.42
366.889	55.47
367.1	41.13
367.311	24.75
367.522	90.28
367.733	82.09
367.944	37.03
368.155	53.42
368.366	41.13
368.577	55.47
368.788	39.08
368.999	0.17
369.209	8.36
369.42	37.03
369.631	51.37
369.842	82.09
370.053	43.18
370.264	-18.26
370.474	20.65
370.685	4.27
370.896	-10.07
371.107	75.95
371.317	45.23
371.528	77.99
371.739	32.94
371.95	12.46
372.16	59.56
372.371	-34.64
372.582	-46.93
372.792	57.51
373.003	45.23
373.214	14.51
373.424	67.75
373.635	4.27
373.846	-8.02
374.056	8.36
374.267	69.8
374.477	37.03
374.688	-10.07
374.898	-10.07
375.109	59.56
375.319	28.84
375.53	-22.36
375.74	127.14
375.951	24.75
376.161	14.51
376.372	73.9
376.582	45.23
376.793	22.7
377.003	-10.07
377.214	-18.26
377.424	131.24
377.635	32.94
377.845	-5.97
378.055	131.24
378.266	20.65
378.476	92.33
378.686	92.33
378.897	43.18
379.107	39.08
379.317	37.03
379.528	18.6
379.738	71.85
379.948	12.46
380.158	-1.88
380.369	43.18
380.579	71.85
380.789	10.41
380.999	-12.12
381.21	4.27
381.42	84.14
381.63	16.55
381.84	-18.26
382.05	-32.6
382.261	143.53
382.471	28.84
382.681	22.7
382.891	71.85
383.101	112.81
383.311	104.62
383.521	59.56
383.731	84.14
383.941	22.7
384.151	22.7
384.361	-5.97
384.571	43.18
384.781	24.75
384.991	32.94
385.201	69.8
385.411	8.36
385.621	86.19
385.831	-12.12
386.041	57.51
386.251	102.57
386.461	55.47
386.671	16.55
386.881	55.47
387.091	14.51
387.301	37.03
387.511	112.81
387.72	73.9
387.93	26.79
388.14	37.03
388.35	92.33
388.56	55.47
388.769	94.38
388.979	2.22
389.189	20.65
389.399	32.94
389.609	55.47
389.818	73.9
390.028	22.7
390.238	100.52
390.447	22.7
390.657	-16.21
390.867	-26.45
391.076	0.17
391.286	94.38
391.496	4.27
391.705	51.37
391.915	155.82
392.125	32.94
392.334	53.42
392.544	82.09
392.753	55.47
392.963	20.65
393.172	86.19
393.382	37.03
393.591	65.71
393.801	6.31
394.01	92.33
394.22	24.75
394.429	86.19
394.639	4.27
394.848	102.57
395.058	18.6
395.267	67.75
395.477	82.09
395.686	108.71
395.895	75.95
396.105	139.43
396.314	86.19
396.524	110.76
396.733	0.17
396.942	127.14
397.152	80.04
397.361	71.85
397.57	77.99
397.78	20.65
397.989	45.23
398.198	161.96
398.407	100.52
398.617	20.65
398.826	96.43
399.035	121
399.244	110.76
399.453	143.53
399.663	8.36
399.872	161.96
400.081	67.75
400.29	88.23
400.499	39.08
400.708	98.47
400.917	71.85
401.127	125.1
401.336	14.51
401.545	94.38
401.754	137.38
401.963	88.23
402.172	51.37
402.381	102.57
402.59	67.75
402.799	137.38
403.008	131.24
403.217	133.29
403.426	67.75
403.635	77.99
403.844	125.1
404.053	12.46
404.262	32.94
404.471	221.35
404.68	174.25
404.888	135.34
405.097	159.91
405.306	141.48
405.515	168.1
405.724	174.25
405.933	211.11
406.142	80.04
406.35	90.28
406.559	141.48
406.768	215.21
406.977	262.31
407.185	96.43
407.394	153.77
407.603	188.58
407.812	211.11
408.02	164.01
408.229	204.97
408.438	270.5
408.646	143.53
408.855	235.69
409.064	252.07
409.272	176.3
409.481	284.84
409.69	256.17
409.898	161.96
410.107	270.5
410.315	323.75
410.524	211.11
410.733	315.56
410.941	178.34
411.15	395.43
411.358	225.45
411.567	368.81
411.775	264.36
411.984	356.52
412.192	397.48
412.401	348.33
412.609	450.72
412.818	352.42
413.026	430.24
413.234	409.76
413.443	434.34
413.651	424.1
413.86	497.83
414.068	514.21
414.276	569.51
414.485	440.48
414.693	555.17
414.901	618.66
415.11	549.03
415.318	602.27
415.526	620.71
415.734	602.27
415.943	608.42
416.151	663.71
416.359	680.1
416.567	661.66
416.776	749.73
416.984	862.37
417.192	796.83
417.4	831.65
417.608	790.69
417.817	764.06
418.025	868.51
418.233	979.1
418.441	856.22
418.649	966.81
418.857	1071.26
419.065	1093.79
419.273	1095.83
419.481	1050.78
419.689	1175.7
419.897	1114.27
420.105	1243.29
420.313	1192.09
420.521	1386.65
420.729	1353.88
420.937	1384.6
421.145	1493.14
421.353	1448.08
421.561	1599.63
421.769	1667.22
421.977	1685.65
422.185	1634.45
422.393	1712.27
422.601	1861.77
422.809	1763.47
423.017	1880.21
423.224	1886.35
423.432	2042
423.64	2021.52
423.848	2361.48
424.056	2179.21
424.263	2273.42
424.471	2398.34
424.679	2447.49
424.887	2513.03
425.094	2650.24
425.302	2564.23
425.51	2717.83
425.718	2678.91
425.925	2779.26
426.133	2893.95
426.341	3061.88
426.548	3178.62
426.756	3076.22
426.964	3231.87
427.171	3430.52
427.379	3481.72
427.586	3561.59
427.794	3848.3
428.001	3815.54
428.209	4042.86
428.417	3999.85
428.624	4206.7
428.832	4204.65
429.039	4153.45
429.247	4165.74
429.454	4653.16
429.662	4964.45
429.869	4589.67
430.076	4984.93
430.284	4796.51
430.491	4995.17
430.699	5224.54
430.906	5312.6
431.114	5296.22
431.321	5617.75
431.528	5619.8
431.736	5982.29
431.943	6111.31
432.15	6201.42
432.358	6133.84
432.565	6398.03
432.772	6559.81
432.979	6852.67
433.187	7039.04
433.394	6860.87
433.601	7606.33
433.808	7581.75
434.016	7450.68
434.223	7655.48
434.43	8353.84
434.637	8146.99
434.844	8566.82
435.052	8914.98
435.259	8622.12
435.466	8675.37
435.673	8867.88
435.88	9242.65
436.087	9893.91
436.294	9713.69
436.501	9732.12
436.708	9672.73
436.915	10176.53
437.122	10493.96
437.329	10397.71
437.537	10700.81
437.743	11096.07
437.95	10917.89
438.157	11499.52
438.364	11948.02
438.571	11755.51
438.778	11773.94
438.985	12929
439.192	12572.65
439.399	12750.82
439.606	12652.52
439.813	13479.9
440.02	14155.73
440.227	13905.88
440.433	13821.91
440.64	14112.72
440.847	14251.99
441.054	14440.4
441.261	15417.28
441.467	15292.35
441.674	15550.4
441.881	16162.74
442.088	16136.12
442.294	16037.81
442.501	16445.36
442.708	16945.06
442.914	17399.71
443.121	18225.04
443.328	17567.65
443.534	18675.6
443.741	18278.29
443.948	18116.5
444.154	19326.85
444.361	19163.01
444.568	19382.15
444.774	19406.72
444.981	19779.45
445.187	20189.05
445.394	21100.39
445.6	20905.84
445.807	22718.29
446.013	21901.15
446.22	22011.74
446.426	23062.35
446.633	23430.98
446.839	24184.63
447.046	23232.33
447.252	24178.49
447.459	24414.01
447.665	24495.92
447.871	25599.78
448.078	26726.16
448.284	25272.11
448.491	26177.31
448.697	26984.21
448.903	27459.34
449.11	27612.93
449.316	27141.9
449.522	27610.89
449.728	28634.87
449.935	28761.84
450.141	28495.61
450.347	29179.63
450.553	28303.1
450.76	28460.79
450.966	29779.68
451.172	29382.38
451.378	30043.87
451.584	29824.74
451.791	30176.99
451.997	29859.56
452.203	30574.3
452.409	30205.66
452.615	30617.3
452.821	29310.7
453.027	29085.42
453.233	30590.68
453.44	29241.07
453.646	30047.97
453.852	29574.89
454.058	30625.5
454.264	29482.73
454.47	30293.72
454.676	28937.97
454.882	30248.67
455.088	27485.96
455.294	28280.57
455.5	28284.67
455.705	28925.68
455.911	27393.8
456.117	27033.36
456.323	26748.69
456.529	25483.05
456.735	26527.51
456.941	25952.03
457.147	25321.26
457.352	24631.09
457.558	24039.23
457.764	24248.12
457.97	24119.1
458.176	23316.29
458.381	23570.24
458.587	22259.54
458.793	22077.27
458.999	21026.67
459.204	22421.33
459.41	21950.3
459.616	20727.66
459.821	20338.55
460.027	20502.39
460.233	20156.28
460.438	19070.86
460.644	19384.19
460.85	18171.8
461.055	18059.16
461.261	18235.28
461.466	16678.83
461.672	16064.44
461.878	17346.47
462.083	16412.59
462.289	15804.35
462.494	15751.1
462.7	15028.17
462.905	14446.54
463.111	14936.01
463.316	15087.56
463.522	14798.79
463.727	14944.2
463.932	14837.7
464.138	14571.47
464.343	15048.65
464.549	14217.17
464.754	14763.98
464.959	14481.36
465.165	14641.1
465.37	13963.22
465.575	13651.93
465.781	14000.09
465.986	14206.93
466.191	13920.21
466.397	13445.09
466.602	13058.02
466.807	13424.61
467.012	13350.88
467.218	13166.56
467.423	13121.51
467.628	13250.53
467.833	13459.42
468.038	13154.27
468.244	12597.23
468.449	13191.14
468.654	12785.64
468.859	12972
469.064	12705.77
469.269	12259.31
469.474	12222.45
469.679	12713.96
469.885	12367.85
470.09	12566.51
470.295	12107.76
470.5	11956.21
470.705	12171.25
470.91	11761.66
471.115	11685.88
471.32	11882.49
471.525	11980.79
471.73	11573.24
471.935	11464.7
472.139	11053.06
472.344	11251.71
472.549	11081.73
472.754	11075.59
472.959	10928.13
473.164	10663.94
473.369	10422.28
473.574	10688.52
473.778	10545.16
473.983	10428.43
474.188	10706.95
474.393	10020.88
474.598	10131.47
474.802	10156.05
475.007	9930.77
475.212	9877.52
475.417	9467.93
475.621	9713.69
475.826	9449.5
476.031	9459.74
476.235	9334.81
476.44	9437.21
476.645	9084.96
476.849	9283.61
477.054	9203.74
477.259	8904.74
477.463	9130.02
477.668	8738.85
477.872	8917.03
478.077	8706.09
478.282	8622.12
478.486	8491.05
478.691	8194.09
478.895	8366.12
479.1	8138.8
479.304	8384.55
479.509	8169.52
479.713	8386.6
479.918	8116.27
480.122	7845.94
480.326	8323.12
480.531	7923.76
480.735	7938.1
480.94	7727.16
481.144	8108.08
481.348	7759.92
481.553	7817.27
481.757	7561.27
481.961	7737.4
482.166	7841.84
482.37	7827.51
482.574	7678.01
482.778	7557.18
482.983	7954.48
483.187	7589.94
483.391	7790.64
483.595	7737.4
483.8	7600.18
484.004	7659.57
484.208	7794.74
484.412	7915.57
484.616	7874.61
484.821	7712.82
485.025	7723.06
485.229	7788.6
485.433	7706.68
485.637	7614.52
485.841	7770.16
486.045	7512.12
486.249	7745.59
486.453	7698.49
486.657	7723.06
486.861	7829.56
487.065	7587.89
487.269	7643.19
487.473	7479.35
487.677	7618.61
487.881	7794.74
488.085	7538.74
488.289	7569.46
488.493	7731.25
488.697	7813.17
488.901	7696.44
489.105	7731.25
489.309	7548.98
489.512	7569.46
489.716	7641.14
489.92	7733.3
490.124	7854.13
490.328	7888.95
490.531	7845.94
490.735	7706.68
490.939	7850.03
491.143	7903.28
491.346	7983.15
491.55	7895.09
491.754	7704.63
491.958	8112.17
492.161	7888.95
492.365	8120.37
492.569	7934
492.772	8015.92
492.976	8110.13
493.18	8300.59
493.383	8161.33
493.587	8507.43
493.79	8411.18
493.994	8173.61
494.197	8372.27
494.401	8591.4
494.605	8527.91
494.808	8613.93
495.012	8597.54
495.215	8642.6
495.419	8802.34
495.622	8636.45
495.825	8761.38
496.029	8704.04
496.232	9166.88
496.436	9097.25
496.639	9265.18
496.843	9279.52
497.046	9496.6
497.249	9654.3
497.453	9496.6
497.656	9547.8
497.859	9785.37
498.063	9762.84
498.266	9822.23
498.469	9807.89
498.673	10027.03
498.876	9998.35
499.079	10264.59
499.282	10358.8
499.485	10579.98
499.689	10526.73
499.892	10598.41
500.095	10702.86
500.298	10809.35
500.501	10971.14
500.705	11147.26
500.908	11405.31
501.111	11048.96
501.314	11460.6
501.517	11505.66
501.72	11827.19
501.923	11679.74
502.126	12027.89
502.329	11956.21
502.532	12179.44
502.735	12296.18
502.938	12615.66
503.141	12711.91
503.344	12896.23
503.547	12830.69
503.75	12953.57
503.953	13094.88
504.156	13357.02
504.359	13367.26
504.562	13397.98
504.765	13527
504.968	13584.35
505.17	14049.24
505.373	14069.72
505.576	14231.51
505.779	14544.84
505.982	14419.92
506.185	14723.02
506.387	14866.38
506.59	14815.18
506.793	15376.32
506.996	15204.29
507.198	15601.6
507.401	15718.33
507.604	15671.23
507.807	15894.46
508.009	16031.67
508.212	16113.59
508.415	16211.89
508.617	16703.4
508.82	16596.91
509.022	16644.01
509.225	17102.76
509.428	17254.31
509.63	17239.97
509.833	17385.38
510.035	17663.9
510.238	17854.36
510.44	18016.15
510.643	18278.29
510.845	18284.44
511.048	17837.98
511.25	18661.26
511.453	18769.8
511.655	19425.15
511.858	19275.65
512.06	19072.9
512.262	19578.75
512.465	19603.33
512.667	19613.57
512.87	19720.06
513.072	19947.39
513.274	20367.22
513.477	20340.6
513.679	20629.36
513.881	20957.03
514.084	21131.11
514.286	20938.6
514.488	21200.74
514.69	21796.7
514.893	21833.57
515.095	22120.28
515.297	21833.57
515.499	22308.69
515.701	22476.63
515.904	22384.47
516.106	22902.61
516.308	23263.05
516.51	23437.13
516.712	23306.06
516.914	23793.47
517.116	23658.31
517.318	24059.71
517.52	24155.96
517.722	24305.46
517.925	24586.04
518.127	24651.57
518.329	25083.69
518.531	24901.42
518.733	25399.08
518.935	25579.3
519.136	25501.48
519.338	25763.62
519.54	25945.89
519.742	26253.08
519.944	26126.11
520.146	26758.93
520.348	26928.91
520.55	27305.74
520.752	26885.9
520.954	27604.74
521.155	27311.88
521.357	27471.62
521.559	27774.72
521.761	28247.8
521.963	28350.2
522.164	28208.89
522.366	28520.18
522.568	28585.72
522.77	28923.63
522.971	29390.57
523.173	29222.64
523.375	29257.45
523.576	29167.34
523.778	29638.37
523.98	29681.38
524.181	30017.25
524.383	30228.19
524.584	30238.43
524.786	30435.03
524.988	30277.34
525.189	30387.93
525.391	30904.02
525.592	30840.53
525.794	30936.79
525.995	30881.49
526.197	30916.31
526.398	31309.52
526.6	31702.73
526.801	31583.94
527.003	31823.56
527.204	31530.7
527.406	31975.11
527.607	32014.02
527.808	32351.93
528.01	31461.07
528.211	32059.07
528.412	32874.17
528.614	32280.25
528.815	32231.1
529.016	32851.64
529.218	32417.47
529.419	32636.6
529.62	33021.62
529.822	32429.76
530.023	33158.83
530.224	32771.77
530.425	32849.59
530.626	32599.74
530.828	32763.57
531.029	33224.37
531.23	32685.75
531.431	32730.81
531.632	33279.66
531.833	32923.32
532.035	33236.66
532.236	33218.22
532.437	33459.88
532.638	33035.95
532.839	33076.91
533.04	33369.77
533.241	33001.14
533.442	33867.43
533.643	33351.34
533.844	33310.38
534.045	33656.49
534.246	33341.1
534.447	33730.22
534.648	33535.66
534.849	33603.24
535.05	32988.85
535.251	33158.83
535.451	33337.01
535.652	33457.84
535.853	33302.19
536.054	33638.06
536.255	33576.62
536.456	33384.11
536.657	33971.88
536.857	33476.27
537.058	33427.12
537.259	33875.62
537.46	33541.8
537.66	33199.79
537.861	33427.12
538.062	33425.07
538.263	33455.79
538.463	33019.57
538.664	33762.98
538.865	33517.23
539.065	33853.09
539.266	33160.88
539.466	33334.96
539.667	33359.53
539.868	33697.45
540.068	33347.25
540.269	33367.73
540.469	33586.86
540.67	33322.67
540.87	33484.46
541.071	33040.05
541.271	33490.6
541.472	33566.38
541.672	33394.35
541.873	33527.47
542.073	32988.85
542.274	33640.11
542.474	33228.46
542.675	33095.35
542.875	33742.5
543.075	32855.73
543.276	32857.78
543.476	33590.95
543.676	33386.16
543.877	33762.98
544.077	33044.15
544.277	33255.09
544.478	33345.2
544.678	33156.78
544.878	32806.58
545.078	33056.43
545.279	32728.76
545.479	32775.86
545.679	33457.84
545.879	33074.87
546.079	33038
546.28	32902.84
546.48	32548.54
546.68	32906.93
546.88	33062.58
547.08	33304.24
547.28	32982.71
547.48	32827.06
547.68	32892.6
547.88	32870.07
548.081	32995
548.281	33052.34
548.481	32857.78
548.681	33099.44
548.881	32816.82
549.081	33287.85
549.28	32542.39
549.48	33062.58
549.68	32872.12
549.88	33273.52
550.08	32939.7
550.28	32919.22
550.48	32837.3
550.68	33175.22
550.88	32911.03
551.08	32599.74
551.279	32745.14
551.479	32902.84
551.679	32972.47
551.879	32898.74
552.079	33109.68
552.278	32724.66
552.478	33271.47
552.678	32597.69
552.878	32960.18
553.077	32501.43
553.277	32499.39
553.477	32825.01
553.676	32835.25
553.876	32982.71
554.076	32681.66
554.275	32771.77
554.475	32212.67
554.674	32374.46
554.874	32671.42
555.074	32532.15
555.273	32544.44
555.473	32495.29
555.672	32435.9
555.872	32716.47
556.071	32341.69
556.271	32394.94
556.47	32270.01
556.67	32429.76
556.869	32159.42
557.068	32224.96
557.268	31928
557.467	32317.12
557.667	32085.7
557.866	32194.24
558.065	31907.52
558.265	31880.9
558.464	31780.55
558.663	32196.29
558.863	31999.68
559.062	32427.71
559.261	31694.54
559.461	32159.42
559.66	31809.22
559.859	31774.41
560.058	31700.68
560.258	31518.41
560.457	31354.57
560.656	31719.11
560.855	31385.29
561.054	31403.72
561.253	31309.52
561.453	31545.03
561.652	31391.44
561.851	31370.96
562.05	31274.7
562.249	30926.55
562.448	31311.56
562.647	31192.78
562.846	31260.37
563.045	31284.94
563.244	30910.16
563.443	31575.75
563.642	30846.68
563.841	30998.23
564.04	30678.74
564.239	31258.32
564.438	30746.33
564.637	30742.23
564.836	30734.04
565.035	30510.81
565.234	30688.98
565.432	30645.98
565.631	30570.2
565.83	30797.52
566.029	29857.51
566.228	30154.46
566.427	30443.23
566.625	30451.42
566.824	30023.39
567.023	29931.23
567.222	29703.91
567.42	30406.36
567.619	29841.12
567.818	29669.09
568.016	29812.45
568.215	29818.6
568.414	29843.17
568.612	30156.51
568.811	29728.49
569.01	30033.63
569.208	29413.1
569.407	29581.03
569.605	28892.91
569.804	29599.46
570.002	28985.07
570.201	29427.43
570.4	28833.52
570.598	29294.32
570.797	28876.53
570.995	29241.07
571.193	28890.87
571.392	29075.18
571.59	28854
571.789	28380.92
571.987	28808.95
572.186	28698.36
572.384	28202.75
572.582	28761.84
572.781	28552.95
572.979	28114.69
573.177	28481.27
573.376	28860.15
573.574	28196.6
573.772	28487.42
573.971	28184.32
574.169	28202.75
574.367	27909.89
574.565	28225.28
574.763	27825.92
574.962	28008.19
575.16	27682.56
575.358	28100.35
575.556	27655.94
575.754	27897.6
575.952	27248.39
576.151	27571.97
576.349	27258.63
576.547	27217.68
576.745	27518.73
576.943	27139.85
577.141	27180.81
577.339	27047.69
577.537	26869.52
577.735	27428.62
577.933	26717.97
578.131	26795.79
578.329	26750.74
578.527	26509.08
578.725	26783.51
578.923	26519.32
579.121	26525.46
579.319	26564.37
579.516	26593.04
579.714	26312.47
579.912	26154.78
580.11	26414.87
580.308	26298.14
580.506	26418.97
580.704	25679.65
580.901	26242.84
581.099	26169.12
581.297	25696.03
581.495	25861.92
581.692	25833.25
581.89	25464.61
582.088	25904.93
582.285	25679.65
582.483	25478.95
582.681	25677.6
582.878	25458.47
583.076	25067.31
583.274	25560.87
583.471	25263.91
583.669	25278.25
583.866	25022.25
584.064	25038.64
584.262	25024.3
584.459	25122.6
584.657	24825.65
584.854	24868.66
585.052	24256.31
585.249	24878.9
585.447	24821.55
585.644	24223.55
585.841	24553.27
586.039	24293.18
586.236	24184.63
586.434	24254.26
586.631	24004.41
586.828	24102.71
587.026	24104.76
587.223	24155.96
587.42	23951.17
587.618	23988.03
587.815	23873.34
588.012	23613.25
588.21	23701.31
588.407	24155.96
588.604	23414.6
588.801	23310.15
588.999	23539.52
589.196	23361.35
589.393	23426.89
589.59	23308.1
589.787	23392.07
589.984	22941.52
590.182	22941.52
590.379	23541.57
590.576	22773.58
590.773	22976.33
590.97	22652.75
591.167	22767.44
591.364	22505.3
591.561	22677.33
591.758	22484.82
591.955	22454.1
592.152	22757.2
592.349	22454.1
592.546	22325.08
592.743	22325.08
592.94	21938.01
593.137	22069.08
593.334	22386.52
593.531	21663.58
593.727	22290.26
593.924	22021.98
594.121	22081.37
594.318	21966.68
594.515	21522.27
594.712	21704.54
594.908	21423.97
595.105	21520.23
595.302	21266.28
595.499	21417.83
595.696	21294.95
595.892	21264.23
596.089	21426.02
596.286	21133.16
596.482	21151.59
596.679	21110.63
596.876	21092.2
597.072	20946.8
597.269	20838.25
597.466	20690.8
597.662	20682.61
597.859	20752.24
598.055	20479.86
598.252	20309.88
598.448	20600.69
598.645	20604.78
598.841	20148.09
599.038	20481.91
599.234	20189.05
599.431	20242.29
599.627	20064.12
599.824	20436.85
600.02	20103.03
600.217	20039.54
600.413	20039.54
600.609	19691.39
600.806	19795.84
601.002	19922.81
601.198	19728.25
601.395	19406.72
601.591	19351.43
601.787	19439.49
601.984	19541.89
602.18	19629.95
602.376	19298.18
602.572	19361.67
602.769	19271.56
602.965	19089.29
603.161	19185.54
603.357	18870.15
603.553	19072.9
603.75	18972.55
603.946	18921.35
604.142	18694.03
604.338	18632.59
604.534	18870.15
604.73	18407.31
604.926	18233.24
605.122	18835.34
605.318	18509.71
605.514	18306.96
605.71	18196.37
605.906	18370.45
606.102	18511.76
606.298	18317.2
606.494	18089.88
606.69	18405.27
606.886	18202.52
607.082	17682.33
607.278	18298.77
607.474	17940.38
607.67	17989.53
607.866	17694.62
608.062	17921.95
608.257	17735.58
608.453	17799.07
608.649	18046.87
608.845	17446.82
609.041	17493.92
609.236	17799.07
609.432	17803.16
609.628	17817.5
609.824	17520.54
610.019	17461.15
610.215	17590.17
610.411	17639.33
610.606	17295.27
610.802	17354.66
610.998	17250.21
611.193	17586.08
611.389	17412
611.584	17090.47
611.78	17076.13
611.976	17045.41
612.171	17010.6
612.367	17086.37
612.562	17160.1
612.758	16934.82
612.953	17020.84
613.149	17182.63
613.344	17008.55
613.539	16955.3
613.735	16897.96
613.93	16705.45
614.126	16791.47
614.321	17061.8
614.517	16990.12
614.712	16940.97
614.907	16617.39
615.103	16867.24
615.298	16578.48
615.493	16582.57
615.688	16328.63
615.884	16779.18
616.079	16514.99
616.274	16543.66
616.47	16404.4
616.665	16324.53
616.86	16136.12
617.055	16156.6
617.25	16447.41
617.445	16428.98
617.641	16029.62
617.836	16412.59
618.031	16189.36
618.226	15884.22
618.421	15933.37
618.616	15912.89
618.811	15966.14
619.006	16148.4
619.201	15630.27
619.396	15671.23
619.591	15409.09
619.786	15861.69
619.981	15579.07
620.176	15884.22
620.371	15372.22
620.566	15417.28
620.761	15296.45
620.956	15275.97
621.151	15019.97
621.346	15194.05
621.541	15161.28
621.735	15122.37
621.93	14774.22
622.125	14976.97
622.32	14782.41
622.515	14716.87
622.709	14624.72
622.904	14643.15
623.099	14311.38
623.294	14368.72
623.488	14165.97
623.683	14272.46
623.878	14202.83
624.072	14243.79
624.267	13985.75
624.462	13914.07
624.656	13826.01
624.851	13885.4
625.046	13668.31
625.24	13776.86
625.435	13559.77
625.629	13361.12
625.824	13348.83
626.018	13455.33
626.213	13162.47
626.407	13344.74
626.602	13332.45
626.796	13225.95
626.991	13158.37
627.185	12933.09
627.38	13098.98
627.574	12697.58
627.768	12865.51
627.963	12746.73
628.157	12697.58
628.352	12752.87
628.546	12503.02
628.74	12451.82
628.935	12435.44
629.129	12275.7
629.323	12072.95
629.517	12009.46
629.712	12158.96
629.906	11970.55
630.1	11890.68
630.294	12062.71
630.489	11851.77
630.683	12066.8
630.877	11679.74
631.071	11687.93
631.265	11606.01
631.459	11716.6
631.653	11304.96
631.848	11560.95
632.042	11378.69
632.236	11403.26
632.43	11425.79
632.624	11251.71
632.818	11298.81
633.012	10934.28
633.206	10913.8
633.4	10971.14
633.594	11001.86
633.788	10987.52
633.982	11008
634.176	10786.82
634.369	10620.94
634.563	10713.1
634.757	10709
634.951	10727.43
635.145	10610.7
635.339	10596.36
635.533	10338.32
635.726	10387.47
635.92	10221.58
636.114	10182.67
636.308	10041.36
636.501	10192.91
636.695	9908.24
636.889	10078.22
637.083	10082.32
637.276	9746.45
637.47	9891.86
637.664	9740.31
637.857	9932.82
638.051	9920.53
638.244	9646.1
638.438	9680.92
638.632	9699.35
638.825	9558.04
639.019	9373.72
639.212	9373.72
639.406	9635.86
639.599	9347.1
639.793	9494.55
639.986	9209.89
640.18	9213.98
640.373	9187.36
640.567	9056.29
640.76	9136.16
640.954	8810.53
641.147	8800.29
641.34	8826.92
641.534	8925.22
641.727	8831.01
641.92	8732.71
642.114	8636.45
642.307	8771.62
642.5	8499.24
642.694	8527.91
642.887	8443.95
643.08	8532.01
643.273	8450.09
643.467	8310.83
643.66	8362.03
643.853	8323.12
644.046	8114.22
644.239	8228.91
644.432	8187.95
644.626	8089.65
644.819	8140.85
645.012	8056.88
645.205	7778.36
645.398	7970.87
645.591	7979.06
645.784	7843.89
645.977	7884.85
646.17	7841.84
646.363	7602.23
646.556	7608.37
646.749	7831.6
646.942	7905.33
647.135	7641.14
647.328	7591.99
647.521	7551.03
647.714	7424.06
647.907	7483.45
648.099	7477.3
648.292	7606.33
648.485	7290.94
648.678	7262.27
648.871	7317.56
649.064	7321.66
649.256	7397.43
649.449	7123.01
649.642	7022.66
649.835	7053.38
650.027	7080
650.22	6967.36
650.413	6871.11
650.605	7018.56
650.798	7034.94
650.991	6797.38
651.183	6907.97
651.376	6750.28
651.568	6817.86
651.761	6864.96
651.954	6768.71
652.146	6705.22
652.339	6461.51
652.531	6582.34
652.724	6496.33
652.916	6516.81
653.109	6619.21
653.301	6604.87
653.494	6436.94
653.686	6340.68
653.879	6334.54
654.071	6279.24
654.263	6240.33
654.456	6334.54
654.648	6305.87
654.84	6221.9
655.033	6084.69
655.225	6250.57
655.417	6049.87
655.61	6209.61
655.802	6113.36
655.994	6006.86
656.186	5998.67
656.379	5953.62
656.571	6058.06
656.763	5908.56
656.955	5863.51
657.148	6023.25
657.34	5673.04
657.532	5740.63
657.724	5664.85
657.916	5714
658.108	5740.63
658.3	5603.41
658.492	5709.91
658.684	5621.84
658.876	5609.56
659.068	5646.42
659.26	5548.12
659.452	5378.14
659.644	5496.92
659.836	5365.85
660.028	5509.21
660.22	5320.79
660.412	5318.75
660.604	5331.03
660.796	5298.27
660.988	5357.66
661.18	5328.99
661.372	5212.25
661.563	5189.72
661.755	5165.15
661.947	5320.79
662.139	5013.6
662.331	5032.03
662.522	5013.6
662.714	5011.55
662.906	5058.65
663.097	5036.13
663.289	4925.54
663.481	4890.72
663.673	4819.04
663.864	4825.19
664.056	4913.25
664.247	4847.71
664.439	4778.08
664.631	4806.75
664.822	4837.47
665.014	4745.31
665.205	4745.31
665.397	4790.37
665.588	4708.45
665.78	4606.05
665.971	4634.72
666.163	4528.23
666.354	4581.48
666.546	4540.52
666.737	4561
666.929	4436.07
667.12	4468.84
667.311	4589.67
667.503	4550.76
667.694	4552.81
667.885	4483.17
668.077	4331.62
668.268	4415.59
668.459	4472.93
668.651	4241.51
668.842	4401.26
669.033	4364.39
669.224	4309.1
669.416	4307.05
669.607	4302.95
669.798	4239.47
669.989	4282.47
670.18	4227.18
670.371	4092.01
670.563	4198.51
670.754	4132.97
670.945	4114.54
671.136	4157.55
671.327	4192.36
671.518	4089.96
671.709	3932.27
671.9	4216.94
672.091	3874.93
672.282	3991.66
672.473	3991.66
672.664	4061.29
672.855	3876.98
673.046	3985.52
673.237	4044.91
673.428	3809.39
673.619	3950.7
673.809	3817.58
674	4022.38
674.191	3942.51
674.382	3856.5
674.573	3848.3
674.764	3950.7
674.954	3930.22
675.145	3868.78
675.336	3745.91
675.527	3801.2
675.717	3663.99
675.908	3768.43
676.099	3663.99
676.289	3793.01
676.48	3727.47
676.671	3692.66
676.861	3891.31
677.052	3733.62
677.243	3700.85
677.433	3649.65
677.624	3778.67
677.814	3700.85
678.005	3608.69
678.195	3778.67
678.386	3577.97
678.576	3635.32
678.767	3569.78
678.957	3659.89
679.148	3766.39
679.338	3577.97
679.529	3565.68
679.719	3526.77
679.909	3487.86
680.1	3645.56
680.29	3553.4
680.481	3678.32
680.671	3420.28
680.861	3508.34
681.052	3551.35
681.242	3563.64
681.432	3510.39
681.622	3541.11
681.813	3330.17
682.003	3528.82
682.193	3545.2
682.383	3528.82
682.573	3520.63
682.764	3500.15
682.954	3324.02
683.144	3512.44
683.334	3397.75
683.524	3424.37
683.714	3387.51
683.904	3364.98
684.094	3563.64
684.284	3514.49
684.474	3440.76
684.664	3471.48
684.854	3348.6
685.044	3426.42
685.234	3297.4
685.424	3186.81
685.614	3264.63
685.804	3268.73
685.994	3217.53
686.184	3260.54
686.374	3201.15
686.564	3254.39
686.753	3250.3
686.943	3141.75
687.133	3188.86
687.323	3397.75
687.513	3217.53
687.702	3151.99
687.892	3149.95
688.082	3156.09
688.272	3131.51
688.461	3207.29
688.651	3100.8
688.841	3117.18
689.03	3192.95
689.22	3027.07
689.41	3131.51
689.599	3043.45
689.789	3035.26
689.979	2955.39
690.168	3002.49
690.358	3008.64
690.547	2891.9
690.737	3068.03
690.926	2961.53
691.116	2799.74
691.305	2922.62
691.495	2881.66
691.684	2898.05
691.874	2867.33
692.063	2896
692.252	2898.05
692.442	2859.14
692.631	2842.75
692.82	2814.08
693.01	2730.11
693.199	2715.78
693.388	2795.65
693.578	2697.35
693.767	2812.03
693.956	2750.59
694.146	2689.15
694.335	2629.76
694.524	2717.83
694.713	2590.85
694.902	2726.02
695.092	2732.16
695.281	2588.8
695.47	2660.48
695.659	2551.94
695.848	2791.55
696.037	2461.83
696.226	2560.13
696.415	2668.67
696.604	2500.74
696.793	2588.8
696.982	2640
697.171	2601.09
697.36	2551.94
697.549	2592.9
697.738	2478.21
697.927	2545.8
698.116	2371.72
698.305	2443.4
698.494	2441.35
698.683	2482.31
698.872	2422.92
699.061	2377.86
699.25	2459.78
699.438	2461.83
699.627	2435.21
699.816	2496.64
700.005	2420.87
700.193	2531.46
700.382	2453.64
700.571	2451.59
700.76	2398.34
700.948	2488.45
701.137	2363.53
701.326	2388.1
701.514	2343.05
701.703	2400.39
701.892	2363.53
702.08	2377.86
702.269	2406.53
702.457	2384.01
702.646	2420.87
702.834	2328.71
703.023	2363.53
703.212	2461.83
703.4	2418.82
703.589	2414.73
703.777	2349.19
703.965	2261.13
704.154	2367.62
704.342	2357.38
704.531	2318.47
704.719	2424.97
704.907	2379.91
705.096	2281.61
705.284	2338.95
705.472	2322.57
705.661	2269.32
705.849	2396.29
706.037	2353.29
706.226	2408.58
706.414	2367.62
706.602	2125.96
706.79	2349.19
706.979	2244.74
707.167	2203.79
707.355	2326.66
707.543	2310.28
707.731	2375.81
707.919	2302.09
708.107	2261.13
708.296	2357.38
708.484	2304.14
708.672	2226.31
708.86	2248.84
709.048	2355.33
709.236	2230.41
709.424	2230.41
709.612	2326.66
709.8	2269.32
709.988	2154.63
710.176	2373.77
710.364	2302.09
710.551	2150.54
710.739	2289.8
710.927	2359.43
711.115	2250.89
711.303	2252.94
711.491	2377.86
711.679	2117.77
711.866	2283.66
712.054	2316.42
712.242	2146.44
712.43	2238.6
712.617	2224.26
712.805	2293.9
712.993	2250.89
713.181	2230.41
713.368	2275.46
713.556	2238.6
713.744	2179.21
713.931	2312.33
714.119	2373.77
714.306	2252.94
714.494	2248.84
714.682	2187.4
714.869	2183.31
715.057	2101.39
715.244	2173.07
715.432	2318.47
715.619	2173.07
715.807	2209.93
715.994	2144.39
716.182	2132.11
716.369	2177.16
716.556	2224.26
716.744	2259.08
716.931	2179.21
717.119	2107.53
717.306	2240.65
717.493	2179.21
717.681	2189.45
717.868	2242.7
718.055	2259.08
718.242	2128.01
718.43	2263.18
718.617	2179.21
718.804	2062.48
718.991	2269.32
719.179	2197.64
719.366	2134.15
719.553	2209.93
719.74	2216.07
719.927	2310.28
720.114	2244.74
720.301	2269.32
720.488	2113.67
720.676	2230.41
720.863	2171.02
721.05	2236.55
721.237	2148.49
721.424	2230.41
721.611	2134.15
721.798	2177.16
721.985	2228.36
722.172	2187.4
722.358	2035.85
722.545	2105.48
722.732	2250.89
722.919	2203.79
723.106	2205.83
723.293	2173.07
723.48	2226.31
723.667	2187.4
723.853	2064.52
724.04	2179.21
724.227	2171.02
724.414	2101.39
724.6	2199.69
724.787	2160.78
724.974	2244.74
725.161	2070.67
725.347	2162.83
725.534	2142.35
725.72	2171.02
725.907	2218.12
726.094	2181.26
726.28	2119.82
726.467	2248.84
726.653	2201.74
726.84	2250.89
727.027	2203.79
727.213	2050.19
727.4	2308.23
727.586	2181.26
727.773	2138.25
727.959	2160.78
728.145	2250.89
728.332	2152.59
728.518	2177.16
728.705	2207.88
728.891	2193.55
729.077	2195.59
729.264	2205.83
729.45	2193.55
729.636	2277.51
729.823	2205.83
730.009	2273.42
730.195	2302.09
730.382	2197.64
730.568	2066.57
730.754	2209.93
730.94	2134.15
731.126	2250.89
731.313	2287.75
731.499	2228.36
731.685	2302.09
731.871	2269.32
732.057	2277.51
732.243	2244.74
732.429	2332.81
732.615	2300.04
732.801	2068.62
732.987	2113.67
733.173	2275.46
733.359	2334.86
733.545	2257.03
733.731	2220.17
733.917	2351.24
734.103	2343.05
734.289	2291.85
734.475	2101.39
734.661	2232.46
734.847	2232.46
735.033	2230.41
735.219	2189.45
735.404	2195.59
735.59	2117.77
735.776	2257.03
735.962	2240.65
736.148	2263.18
736.333	2205.83
736.519	2398.34
736.705	2248.84
736.89	2314.38
737.076	2310.28
737.262	2261.13
737.447	2211.98
737.633	2168.97
737.819	2214.02
738.004	2152.59
738.19	2220.17
738.375	2136.2
738.561	2254.98
738.747	2275.46
738.932	2267.27
739.118	2293.9
739.303	2269.32
739.489	2304.14
739.674	2168.97
739.859	2199.69
740.045	2287.75
740.23	2236.55
740.416	2062.48
740.601	2164.87
740.786	2189.45
740.972	2220.17
741.157	2269.32
741.342	2119.82
741.528	2201.74
741.713	2179.21
741.898	2238.6
742.084	2222.22
742.269	2314.38
742.454	2265.22
742.639	2207.88
742.824	2134.15
743.01	2246.79
743.195	2207.88
743.38	2072.72
743.565	2158.73
743.75	2185.35
743.935	2128.01
744.12	2164.87
744.305	2132.11
744.49	2181.26
744.675	2156.68
744.86	2054.28
745.045	2025.61
745.23	2148.49
745.415	2136.2
745.6	2101.39
745.785	2023.56
745.97	2187.4
746.155	2099.34
746.34	2082.95
746.525	2117.77
746.71	2037.9
746.895	2115.72
747.079	2025.61
747.264	2037.9
747.449	2070.67
747.634	1994.89
747.819	2072.72
748.003	2003.08
748.188	1927.31
748.373	1937.55
748.557	2085
748.742	1910.93
748.927	1996.94
749.111	1847.44
749.296	1943.69
749.481	1988.75
749.665	1890.45
749.85	1859.73
750.034	1857.68
750.219	1865.87
750.404	1822.86
750.588	1867.92
750.773	1786
750.957	1865.87
751.141	1783.95
751.326	1839.25
751.51	1710.22
751.695	1702.03
751.879	1751.18
752.064	1818.77
752.248	1714.32
752.432	1667.22
752.617	1826.96
752.801	1822.86
752.985	1636.5
753.17	1747.09
753.354	1749.14
753.538	1841.29
753.722	1747.09
753.907	1702.03
754.091	1663.12
754.275	1564.82
754.459	1575.06
754.643	1661.07
754.828	1648.79
755.012	1708.18
755.196	1554.58
755.38	1554.58
755.564	1558.67
755.748	1595.54
755.932	1562.77
756.116	1505.43
756.3	1439.89
756.484	1521.81
756.668	1480.85
756.852	1470.61
757.036	1546.39
757.22	1624.21
757.404	1523.86
757.588	1548.44
757.772	1530
757.956	1482.9
758.14	1427.6
758.323	1501.33
758.507	1421.46
758.691	1456.28
758.875	1452.18
759.059	1448.08
759.242	1345.69
759.426	1355.93
759.61	1235.1
759.794	1380.5
759.977	1339.54
760.161	1462.42
760.345	1388.69
760.528	1349.78
760.712	1423.51
760.895	1294.49
761.079	1390.74
761.263	1343.64
761.446	1302.68
761.63	1296.53
761.813	1294.49
761.997	1292.44
762.18	1212.57
762.364	1323.16
762.547	1253.53
762.731	1323.16
762.914	1366.17
763.098	1233.05
763.281	1224.86
763.464	1163.42
763.648	1241.24
763.831	1183.9
764.015	1153.18
764.198	1179.8
764.381	1101.98
764.564	1030.3
764.748	1235.1
764.931	1251.48
765.114	1075.35
765.297	1208.47
765.481	1165.46
765.664	1192.09
765.847	1101.98
766.03	1218.71
766.213	1261.72
766.397	1159.32
766.58	1144.99
766.763	1190.04
766.946	1009.82
767.129	1286.3
767.312	1194.14
767.495	1067.16
767.678	1099.93
767.861	1077.4
768.044	1161.37
768.227	1093.79
768.41	1173.66
768.593	1122.46
768.776	1101.98
768.959	1116.31
769.142	1110.17
769.324	1048.73
769.507	1089.69
769.69	1140.89
769.873	960.67
770.056	1175.7
770.239	1007.77
770.421	1116.31
770.604	1030.3
770.787	1104.03
770.97	970.91
771.152	975
771.335	981.15
771.518	1009.82
771.7	1048.73
771.883	1024.16
772.066	977.05
772.248	1022.11
772.431	923.8
772.613	1005.72
772.796	966.81
772.978	964.76
773.161	1040.54
773.343	979.1
773.526	911.52
773.708	864.41
773.891	784.54
774.073	882.85
774.256	876.7
774.438	948.38
774.621	874.65
774.803	934.04
774.985	909.47
775.168	893.09
775.35	940.19
775.532	909.47
775.715	850.08
775.897	940.19
776.079	850.08
776.261	780.45
776.444	831.65
776.626	862.37
776.808	798.88
776.99	776.35
777.173	823.45
777.355	817.31
777.537	821.41
777.719	790.69
777.901	716.96
778.083	753.82
778.265	747.68
778.447	776.35
778.629	829.6
778.811	807.07
778.993	723.1
779.175	745.63
779.357	784.54
779.539	729.25
779.721	706.72
779.903	731.3
780.085	655.52
780.267	688.29
780.449	739.49
780.631	755.87
780.812	739.49
780.994	700.58
781.176	585.89
781.358	649.38
781.54	596.13
781.721	616.61
781.903	637.09
782.085	671.9
782.267	669.86
782.448	653.47
782.63	571.55
782.812	639.14
782.993	704.67
783.175	575.65
783.357	622.75
783.538	563.36
783.72	659.62
783.901	635.04
784.083	665.76
784.264	563.36
784.446	520.35
784.627	589.99
784.809	651.42
784.99	602.27
785.172	540.83
785.353	514.21
785.535	577.7
785.716	542.88
785.897	530.59
786.079	557.22
786.26	618.66
786.441	471.2
786.623	395.43
786.804	506.02
786.985	499.88
787.167	510.11
787.348	424.1
787.529	592.03
787.71	503.97
787.891	481.44
788.073	460.96
788.254	483.49
788.435	569.51
788.616	512.16
788.797	475.3
788.978	526.5
789.159	473.25
789.34	379.04
789.522	495.78
789.703	458.92
789.884	493.73
790.065	489.64
790.246	499.88
790.427	444.58
790.607	417.96
790.788	368.81
790.969	381.09
791.15	446.63
791.331	417.96
791.512	489.64
791.693	323.75
791.874	403.62
792.054	471.2
792.235	426.15
792.416	372.9
792.597	432.29
792.778	405.67
792.958	362.66
793.139	413.86
793.32	354.47
793.5	381.09
793.681	422.05
793.862	413.86
794.042	299.17
794.223	237.74
794.404	331.94
794.584	340.13
794.765	393.38
794.945	346.28
795.126	354.47
795.306	319.65
795.487	307.37
795.667	307.37
795.848	366.76
796.028	352.42
796.209	411.81
796.389	381.09
796.57	321.7
796.75	315.56
796.93	403.62
797.111	319.65
797.291	393.38
797.471	325.8
797.652	295.08
797.832	329.89
798.012	331.94
798.192	305.32
798.373	284.84
798.553	295.08
798.733	323.75
798.913	192.68
799.093	264.36
799.274	274.6
799.454	313.51
799.634	288.93
799.814	319.65
799.994	305.32
800.174	192.68
800.354	319.65
800.534	301.22
800.714	362.66
800.894	164.01
801.074	290.98
801.254	250.02
801.434	323.75
801.614	207.02
801.794	235.69
801.974	958.62
802.154	327.85
802.334	303.27
802.514	260.26
802.693	217.26
802.873	225.45
803.053	260.26
803.233	282.79
803.413	239.78
803.592	280.74
803.772	223.4
803.952	247.97
804.131	268.45
804.311	252.07
804.491	217.26
804.67	184.49
804.85	250.02
805.03	250.02
805.209	295.08
805.389	264.36
805.568	207.02
805.748	237.74
805.928	256.17
806.107	309.41
806.287	313.51
806.466	254.12
806.646	247.97
806.825	235.69
807.004	219.3
807.184	223.4
807.363	237.74
807.543	241.83
807.722	174.25
807.901	260.26
808.081	272.55
808.26	180.39
808.439	247.97
808.619	153.77
808.798	209.06
808.977	129.19
809.156	215.21
809.336	227.5
809.515	278.69
809.694	227.5
809.873	245.93
810.052	211.11
810.231	200.87
810.411	250.02
810.59	209.06
810.769	159.91
810.948	184.49
811.127	151.72
811.306	272.55
811.485	213.16
811.664	250.02
811.843	135.34
812.022	219.3
812.201	219.3
812.38	161.96
812.559	180.39
812.737	286.89
812.916	186.54
813.095	180.39
813.274	278.69
813.453	192.68
813.632	178.34
813.811	262.31
813.989	96.43
814.168	157.86
814.347	211.11
814.526	161.96
814.704	172.2
814.883	209.06
815.062	69.8
815.24	217.26
815.419	170.15
815.598	182.44
815.776	112.81
815.955	96.43
816.133	102.57
816.312	180.39
816.49	145.58
816.669	102.57
816.847	125.1
817.026	112.81
817.204	215.21
817.383	139.43
817.561	141.48
817.74	204.97
817.918	172.2
818.097	164.01
818.275	108.71
818.453	104.62
818.632	209.06
818.81	118.95
818.988	149.67
819.167	176.3
819.345	198.82
819.523	188.58
819.701	149.67
819.879	141.48
820.058	110.76
820.236	147.62
820.414	125.1
820.592	188.58
820.77	166.06
820.948	116.9
821.127	110.76
821.305	121
821.483	127.14
821.661	143.53
821.839	147.62
822.017	155.82
822.195	135.34
822.373	137.38
822.551	168.1
822.729	102.57
822.907	161.96
823.085	118.95
823.262	147.62
823.44	164.01
823.618	125.1
823.796	110.76
823.974	102.57
824.152	80.04
824.329	24.75
824.507	37.03
824.685	178.34
824.863	112.81
825.04	145.58
825.218	147.62
825.396	80.04
825.574	139.43
825.751	98.47
825.929	141.48
826.107	63.66
826.284	143.53
826.462	98.47
826.639	57.51
826.817	118.95
826.994	75.95
827.172	43.18
827.349	164.01
827.527	129.19
827.704	57.51
827.882	155.82
828.059	133.29
828.237	69.8
828.414	112.81
828.591	73.9
828.769	80.04
828.946	84.14
829.124	69.8
829.301	123.05
829.478	98.47
829.655	67.75
829.833	118.95
830.01	-18.26
830.187	92.33
830.364	157.86
830.542	77.99
830.719	34.99
830.896	104.62
831.073	47.27
831.25	84.14
831.427	176.3
831.604	118.95
831.782	166.06
831.959	180.39
832.136	30.89
832.313	53.42
832.49	24.75
832.667	145.58
832.844	69.8
833.021	65.71
833.198	80.04
833.374	135.34
833.551	86.19
833.728	24.75
833.905	131.24
834.082	121
834.259	30.89
834.436	88.23
834.612	73.9
834.789	59.56
834.966	67.75
835.143	55.47
835.319	43.18
835.496	47.27
835.673	82.09
835.85	143.53
836.026	84.14
836.203	75.95
836.38	28.84
836.556	88.23
836.733	61.61
836.909	100.52
837.086	57.51
837.262	12.46
837.439	55.47
837.616	-3.93
837.792	80.04
837.968	10.41
838.145	80.04
838.321	-22.36
838.498	67.75
838.674	53.42
838.851	110.76
839.027	32.94
839.203	90.28
839.38	82.09
839.556	67.75
839.732	92.33
839.909	121
840.085	94.38
840.261	-28.5
840.437	47.27
840.614	12.46
840.79	71.85
840.966	114.86
841.142	26.79
841.318	57.51
841.494	34.99
841.671	94.38
841.847	-38.74
842.023	98.47
842.199	59.56
842.375	75.95
842.551	71.85
842.727	51.37
842.903	75.95
843.079	59.56
843.255	67.75
843.431	41.13
843.607	118.95
843.783	102.57
843.959	75.95
844.134	82.09
844.31	77.99
844.486	16.55
844.662	55.47
844.838	34.99
845.013	94.38
845.189	108.71
845.365	45.23
845.541	30.89
845.716	26.79
845.892	114.86
846.068	20.65
846.244	37.03
846.419	26.79
846.595	90.28
846.77	16.55
846.946	96.43
847.122	47.27
847.297	90.28
847.473	153.77
847.648	-36.69
847.824	63.66
847.999	-14.17
848.175	30.89
848.35	-20.31
848.526	114.86
848.701	61.61
848.876	80.04
849.052	20.65
849.227	14.51
849.403	10.41
849.578	110.76
849.753	-26.45
849.929	39.08
850.104	32.94
850.279	47.27
850.454	67.75
850.63	51.37
850.805	47.27
850.98	69.8
851.155	53.42
851.33	118.95
851.505	59.56
851.681	75.95
851.856	63.66
852.031	12.46
852.206	47.27
852.381	18.6
852.556	12.46
852.731	47.27
852.906	75.95
853.081	51.37
853.256	-10.07
853.431	-26.45
853.606	49.32
853.781	16.55
853.956	2.22
854.131	-18.26
854.305	39.08
854.48	-12.12
854.655	6.31
854.83	51.37
855.005	4.27
855.18	39.08
855.354	39.08
855.529	80.04
855.704	67.75
855.879	-55.12
856.053	63.66
856.228	28.84
856.403	-32.6
856.577	67.75
856.752	39.08
856.926	106.67
857.101	71.85
857.276	-55.12
857.45	8.36
857.625	118.95
857.799	2.22
857.974	-20.31
858.148	-8.02
858.323	82.09
858.497	-51.03
858.672	-36.69
858.846	43.18
859.02	10.41
859.195	51.37
859.369	-28.5
859.543	43.18
859.718	22.7
859.892	69.8
860.066	26.79
860.241	32.94
860.415	-24.4
860.589	0.17
860.763	-44.88
860.938	-44.88
861.112	0.17
861.286	-3.93
861.46	71.85
861.634	53.42
861.808	108.71
861.982	-14.17
862.157	75.95
862.331	-10.07
862.505	4.27
862.679	8.36
862.853	12.46
863.027	47.27
863.201	65.71
863.375	-20.31
863.549	57.51
863.722	-12.12
863.896	69.8
864.07	-20.31
864.244	4.27
864.418	20.65
864.592	104.62
864.766	-26.45
864.939	-12.12
865.113	-22.36
865.287	65.71
865.461	-18.26
865.634	26.79
865.808	-10.07
865.982	-5.97
866.156	-12.12
866.329	2.22
866.503	-5.97
866.676	61.61
866.85	0.17
867.024	-12.12
867.197	34.99
867.371	-22.36
867.544	14.51
867.718	4.27
867.891	39.08
868.065	-32.6
868.238	-51.03
868.412	47.27
868.585	14.51
868.759	37.03
868.932	18.6
869.105	-38.74
869.279	24.75
869.452	80.04
869.625	20.65
869.799	-57.17
869.972	-59.22
870.145	22.7
870.319	24.75
870.492	-65.36
870.665	-32.6
870.838	30.89
871.011	-14.17
871.185	-8.02
871.358	-5.97
871.531	-10.07
871.704	61.61
871.877	55.47
872.05	37.03
872.223	-22.36
872.396	8.36
872.569	34.99
872.742	2.22
872.915	41.13
873.088	39.08
873.261	-26.45
873.434	-18.26
873.607	0.17
873.78	-18.26
873.953	-55.12
874.126	47.27
874.299	-16.21
874.471	47.27
874.644	-1.88
874.817	41.13
874.99	59.56
875.163	-46.93
875.335	71.85
875.508	-1.88
875.681	28.84
875.853	47.27
876.026	-8.02
876.199	88.23
876.371	67.75
876.544	-16.21
876.717	43.18
876.889	24.75
877.062	39.08
877.234	0.17
877.407	65.71
877.579	26.79
877.752	4.27
877.924	-24.4
878.097	2.22
878.269	47.27
878.442	71.85
878.614	137.38
878.786	-18.26
878.959	-3.93
879.131	10.41
879.303	8.36
879.476	63.66
879.648	-20.31
879.82	24.75
879.993	12.46
880.165	-38.74
880.337	-12.12
880.509	-36.69
880.681	-32.6
880.854	28.84
881.026	30.89
881.198	37.03
881.37	57.51
881.542	65.71
881.714	18.6
881.886	6.31
882.058	4.27
882.23	28.84
882.402	18.6
882.574	34.99
882.746	-44.88
882.918	80.04
883.09	69.8
883.262	-85.84
883.434	12.46
883.606	-46.93
883.778	45.23
883.95	86.19
884.122	4.27
884.293	24.75
884.465	10.41
884.637	125.1
884.809	6.31
884.98	47.27
885.152	20.65
885.324	-1.88
885.496	12.46
885.667	-24.4
885.839	-32.6
886.011	63.66
886.182	18.6
886.354	30.89
886.525	-36.69
886.697	55.47
886.869	6.31
887.04	28.84
887.212	43.18
887.383	106.67
887.555	-57.17
887.726	12.46
887.897	-53.08
888.069	6.31
888.24	51.37
888.412	4.27
888.583	75.95
888.754	10.41
888.926	-46.93
889.097	57.51
889.268	-28.5
889.44	2.22
889.611	92.33
889.782	-22.36
889.953	-32.6
890.125	12.46
890.296	12.46
890.467	45.23
890.638	-48.98
890.809	2.22
890.98	-57.17
891.151	39.08
891.323	8.36
891.494	24.75
891.665	75.95
891.836	4.27
892.007	-18.26
892.178	53.42
892.349	-61.27
892.52	-12.12
892.691	75.95
892.862	-1.88
893.032	-30.55
893.203	0.17
893.374	53.42
893.545	-32.6
893.716	-53.08
893.887	61.61
894.057	-18.26
894.228	-3.93
894.399	-26.45
894.57	67.75
894.74	-24.4
894.911	16.55
895.082	18.6
895.253	-8.02
895.423	6.31
895.594	90.28
895.764	12.46
895.935	30.89
896.106	-30.55
896.276	0.17
896.447	-18.26
896.617	-32.6
896.788	-20.31
896.958	73.9
897.129	0.17
897.299	-22.36
897.47	63.66
897.64	14.51
897.81	4.27
897.981	12.46
898.151	2.22
898.322	24.75
898.492	-5.97
898.662	-30.55
898.832	-24.4
899.003	6.31
899.173	-24.4
899.343	-3.93
899.513	-1.88
