Data from USB4F104151__97__12-42-57-943.txt Node

Date: Fri Mar 14 12:42:57 EDT 2025
User: louis
Spectrometer: USB4F10415
Trigger mode: 4
Integration Time (sec): 3.000000E-2
Scans to average: 1
Electric dark correction enabled: true
Nonlinearity correction enabled: false
Boxcar width: 0
XAxis mode: Wavelengths
Number of Pixels in Spectrum: 3648
>>>>>Begin Spectral Data<<<<<
178.204	-138.24
178.424	-138.24
178.644	-138.24
178.864	-115.71
179.084	-119.81
179.304	-29.7
179.524	-3.07
179.744	-21.5
179.964	35.84
180.184	54.27
180.404	-15.36
180.624	7.17
180.844	-25.6
181.064	-27.65
181.283	70.65
181.503	-68.61
181.723	23.55
181.943	-29.7
182.163	76.8
182.383	31.74
182.602	82.94
182.822	84.99
183.042	48.13
183.262	27.65
183.482	-62.46
183.701	19.46
183.921	62.46
184.141	29.7
184.361	99.33
184.58	101.37
184.8	39.94
185.02	50.18
185.239	84.99
185.459	115.71
185.679	3.07
185.898	-3.07
186.118	80.89
186.338	46.08
186.557	76.8
186.777	33.79
186.997	54.27
187.216	19.46
187.436	27.65
187.655	-3.07
187.875	62.46
188.095	17.41
188.314	37.89
188.534	1.02
188.753	19.46
188.973	-27.65
189.192	91.13
189.412	-15.36
189.631	62.46
189.851	23.55
190.07	134.14
190.29	13.31
190.509	48.13
190.729	-1.02
190.948	119.81
191.168	156.67
191.387	91.13
191.607	31.74
191.826	-19.46
192.045	44.03
192.265	74.75
192.484	101.37
192.704	54.27
192.923	31.74
193.142	138.24
193.362	56.32
193.581	144.38
193.8	54.27
194.02	103.42
194.239	39.94
194.458	76.8
194.678	-29.7
194.897	60.42
195.116	68.61
195.335	-27.65
195.555	54.27
195.774	27.65
195.993	-46.08
196.212	31.74
196.432	31.74
196.651	132.09
196.87	39.94
197.089	117.76
197.308	185.34
197.528	25.6
197.747	11.26
197.966	70.65
198.185	56.32
198.404	44.03
198.623	105.47
198.842	115.71
199.062	35.84
199.281	125.95
199.5	-1.02
199.719	39.94
199.938	33.79
200.157	107.52
200.376	54.27
200.595	144.38
200.814	70.65
201.033	23.55
201.252	101.37
201.471	44.03
201.69	113.66
201.909	46.08
202.128	76.8
202.347	50.18
202.566	31.74
202.785	15.36
203.004	11.26
203.223	101.37
203.442	21.5
203.661	62.46
203.879	5.12
204.098	58.37
204.317	21.5
204.536	82.94
204.755	123.9
204.974	56.32
205.193	70.65
205.411	158.72
205.63	1.02
205.849	37.89
206.068	27.65
206.287	29.7
206.505	39.94
206.724	76.8
206.943	31.74
207.162	52.22
207.381	136.19
207.599	33.79
207.818	95.23
208.037	66.56
208.255	5.12
208.474	13.31
208.693	31.74
208.911	35.84
209.13	84.99
209.349	70.65
209.567	87.04
209.786	72.7
210.005	101.37
210.223	119.81
210.442	13.31
210.661	31.74
210.879	50.18
211.098	41.98
211.316	87.04
211.535	140.29
211.753	54.27
211.972	11.26
212.191	7.17
212.409	7.17
212.628	80.89
212.846	52.22
213.065	27.65
213.283	80.89
213.502	9.22
213.72	50.18
213.938	31.74
214.157	56.32
214.375	31.74
214.594	31.74
214.812	70.65
215.031	64.51
215.249	74.75
215.467	-7.17
215.686	29.7
215.904	103.42
216.122	25.6
216.341	29.7
216.559	111.61
216.778	-7.17
216.996	48.13
217.214	56.32
217.432	7.17
217.651	52.22
217.869	33.79
218.087	11.26
218.306	21.5
218.524	25.6
218.742	9.22
218.96	95.23
219.179	-27.65
219.397	17.41
219.615	148.48
219.833	74.75
220.051	19.46
220.27	132.09
220.488	125.95
220.706	89.09
220.924	19.46
221.142	19.46
221.36	41.98
221.578	91.13
221.796	31.74
222.015	66.56
222.233	52.22
222.451	56.32
222.669	93.18
222.887	46.08
223.105	37.89
223.323	46.08
223.541	138.24
223.759	113.66
223.977	72.7
224.195	56.32
224.413	93.18
224.631	39.94
224.849	66.56
225.067	82.94
225.285	11.26
225.503	64.51
225.721	-3.07
225.939	23.55
226.157	99.33
226.375	171.01
226.592	5.12
226.81	-17.41
227.028	44.03
227.246	84.99
227.464	62.46
227.682	99.33
227.9	109.57
228.117	125.95
228.335	70.65
228.553	11.26
228.771	48.13
228.989	66.56
229.206	82.94
229.424	35.84
229.642	29.7
229.86	33.79
230.077	52.22
230.295	17.41
230.513	103.42
230.731	48.13
230.948	175.1
231.166	125.95
231.384	74.75
231.601	-3.07
231.819	60.42
232.037	44.03
232.254	-9.22
232.472	105.47
232.689	70.65
232.907	76.8
233.125	23.55
233.342	27.65
233.56	48.13
233.777	-19.46
233.995	-1.02
234.213	144.38
234.43	31.74
234.648	46.08
234.865	-3.07
235.083	97.28
235.3	132.09
235.518	39.94
235.735	105.47
235.953	144.38
236.17	54.27
236.388	72.7
236.605	99.33
236.822	72.7
237.04	25.6
237.257	74.75
237.475	-1.02
237.692	48.13
237.909	46.08
238.127	41.98
238.344	27.65
238.562	50.18
238.779	46.08
238.996	13.31
239.214	107.52
239.431	91.13
239.648	68.61
239.865	17.41
240.083	95.23
240.3	89.09
240.517	-7.17
240.735	62.46
240.952	107.52
241.169	117.76
241.386	97.28
241.603	78.85
241.821	19.46
242.038	101.37
242.255	44.03
242.472	19.46
242.689	91.13
242.907	80.89
243.124	95.23
243.341	-21.5
243.558	-60.42
243.775	7.17
243.992	1.02
244.209	60.42
244.426	103.42
244.643	17.41
244.86	3.07
245.078	72.7
245.295	113.66
245.512	-35.84
245.729	76.8
245.946	23.55
246.163	99.33
246.38	-5.12
246.597	46.08
246.814	17.41
247.031	11.26
247.248	-13.31
247.464	82.94
247.681	19.46
247.898	142.33
248.115	37.89
248.332	3.07
248.549	17.41
248.766	46.08
248.983	107.52
249.2	31.74
249.417	109.57
249.633	35.84
249.85	1.02
250.067	13.31
250.284	66.56
250.501	89.09
250.717	101.37
250.934	101.37
251.151	52.22
251.368	23.55
251.585	56.32
251.801	-5.12
252.018	41.98
252.235	15.36
252.451	25.6
252.668	25.6
252.885	121.85
253.102	3.07
253.318	119.81
253.535	23.55
253.752	-31.74
253.968	58.37
254.185	-35.84
254.401	74.75
254.618	84.99
254.835	60.42
255.051	115.71
255.268	46.08
255.484	80.89
255.701	7.17
255.917	123.9
256.134	50.18
256.351	60.42
256.567	35.84
256.784	103.42
257	11.26
257.217	80.89
257.433	82.94
257.65	95.23
257.866	9.22
258.082	52.22
258.299	19.46
258.515	-3.07
258.732	31.74
258.948	-13.31
259.165	29.7
259.381	27.65
259.597	13.31
259.814	62.46
260.03	31.74
260.246	46.08
260.463	117.76
260.679	52.22
260.895	66.56
261.112	138.24
261.328	19.46
261.544	21.5
261.761	91.13
261.977	19.46
262.193	-11.26
262.409	128
262.626	76.8
262.842	146.43
263.058	60.42
263.274	74.75
263.49	23.55
263.707	117.76
263.923	70.65
264.139	-3.07
264.355	29.7
264.571	66.56
264.787	25.6
265.004	80.89
265.22	64.51
265.436	31.74
265.652	15.36
265.868	78.85
266.084	17.41
266.3	13.31
266.516	25.6
266.732	76.8
266.948	107.52
267.164	17.41
267.38	19.46
267.596	89.09
267.812	70.65
268.028	111.61
268.244	11.26
268.46	27.65
268.676	60.42
268.892	91.13
269.108	52.22
269.324	15.36
269.54	76.8
269.756	13.31
269.972	21.5
270.188	84.99
270.403	72.7
270.619	87.04
270.835	56.32
271.051	17.41
271.267	1.02
271.483	99.33
271.698	111.61
271.914	103.42
272.13	82.94
272.346	91.13
272.562	74.75
272.777	103.42
272.993	68.61
273.209	-1.02
273.425	-3.07
273.64	115.71
273.856	5.12
274.072	60.42
274.287	35.84
274.503	58.37
274.719	56.32
274.934	56.32
275.15	44.03
275.366	70.65
275.581	23.55
275.797	84.99
276.012	21.5
276.228	-54.27
276.444	66.56
276.659	66.56
276.875	31.74
277.09	89.09
277.306	91.13
277.521	76.8
277.737	19.46
277.952	25.6
278.168	66.56
278.383	117.76
278.599	37.89
278.814	52.22
279.03	80.89
279.245	-15.36
279.461	46.08
279.676	183.29
279.892	11.26
280.107	27.65
280.322	-11.26
280.538	9.22
280.753	19.46
280.969	78.85
281.184	54.27
281.399	95.23
281.615	37.89
281.83	54.27
282.045	-3.07
282.26	46.08
282.476	58.37
282.691	117.76
282.906	3.07
283.122	144.38
283.337	25.6
283.552	11.26
283.767	50.18
283.983	52.22
284.198	-50.18
284.413	89.09
284.628	-23.55
284.843	62.46
285.058	93.18
285.274	54.27
285.489	27.65
285.704	41.98
285.919	23.55
286.134	66.56
286.349	35.84
286.564	44.03
286.779	48.13
286.995	-7.17
287.21	33.79
287.425	66.56
287.64	70.65
287.855	56.32
288.07	-64.51
288.285	72.7
288.5	138.24
288.715	39.94
288.93	99.33
289.145	31.74
289.36	44.03
289.575	46.08
289.79	142.33
290.004	60.42
290.219	187.39
290.434	17.41
290.649	44.03
290.864	27.65
291.079	46.08
291.294	93.18
291.509	15.36
291.724	17.41
291.938	-35.84
292.153	27.65
292.368	58.37
292.583	1.02
292.798	80.89
293.012	97.28
293.227	117.76
293.442	15.36
293.657	72.7
293.871	25.6
294.086	132.09
294.301	89.09
294.516	175.1
294.73	66.56
294.945	15.36
295.16	62.46
295.374	109.57
295.589	70.65
295.804	95.23
296.018	21.5
296.233	121.85
296.447	50.18
296.662	44.03
296.877	54.27
297.091	62.46
297.306	29.7
297.52	54.27
297.735	87.04
297.949	37.89
298.164	64.51
298.378	27.65
298.593	5.12
298.807	23.55
299.022	41.98
299.236	76.8
299.451	29.7
299.665	37.89
299.88	56.32
300.094	23.55
300.309	27.65
300.523	37.89
300.737	21.5
300.952	27.65
301.166	41.98
301.381	58.37
301.595	89.09
301.809	46.08
302.024	76.8
302.238	37.89
302.452	87.04
302.667	76.8
302.881	109.57
303.095	37.89
303.309	64.51
303.524	76.8
303.738	7.17
303.952	13.31
304.166	99.33
304.381	21.5
304.595	68.61
304.809	29.7
305.023	136.19
305.237	9.22
305.452	52.22
305.666	93.18
305.88	105.47
306.094	72.7
306.308	82.94
306.522	39.94
306.736	60.42
306.95	95.23
307.164	11.26
307.379	78.85
307.593	128
307.807	82.94
308.021	119.81
308.235	44.03
308.449	44.03
308.663	19.46
308.877	80.89
309.091	44.03
309.305	101.37
309.519	60.42
309.733	29.7
309.947	35.84
310.161	97.28
310.374	31.74
310.588	91.13
310.802	109.57
311.016	95.23
311.23	125.95
311.444	5.12
311.658	140.29
311.872	132.09
312.085	-5.12
312.299	203.77
312.513	103.42
312.727	64.51
312.941	15.36
313.154	46.08
313.368	82.94
313.582	72.7
313.796	70.65
314.009	68.61
314.223	48.13
314.437	68.61
314.651	101.37
314.864	56.32
315.078	78.85
315.292	25.6
315.505	46.08
315.719	33.79
315.933	33.79
316.146	46.08
316.36	15.36
316.573	87.04
316.787	164.86
317.001	35.84
317.214	87.04
317.428	80.89
317.641	82.94
317.855	82.94
318.068	70.65
318.282	54.27
318.495	76.8
318.709	64.51
318.922	-7.17
319.136	97.28
319.349	41.98
319.563	13.31
319.776	70.65
319.99	21.5
320.203	80.89
320.417	97.28
320.63	-15.36
320.843	130.05
321.057	37.89
321.27	54.27
321.483	78.85
321.697	95.23
321.91	58.37
322.124	60.42
322.337	89.09
322.55	115.71
322.763	74.75
322.977	66.56
323.19	37.89
323.403	68.61
323.617	52.22
323.83	54.27
324.043	35.84
324.256	37.89
324.469	74.75
324.683	130.05
324.896	99.33
325.109	72.7
325.322	-13.31
325.535	56.32
325.748	41.98
325.962	58.37
326.175	33.79
326.388	48.13
326.601	74.75
326.814	13.31
327.027	56.32
327.24	29.7
327.453	44.03
327.666	123.9
327.879	109.57
328.092	84.99
328.305	74.75
328.518	78.85
328.731	35.84
328.944	58.37
329.157	125.95
329.37	15.36
329.583	72.7
329.796	33.79
330.009	33.79
330.222	7.17
330.435	37.89
330.648	105.47
330.861	89.09
331.073	64.51
331.286	99.33
331.499	97.28
331.712	70.65
331.925	80.89
332.138	68.61
332.35	48.13
332.563	74.75
332.776	113.66
332.989	58.37
333.202	76.8
333.414	27.65
333.627	89.09
333.84	41.98
334.053	29.7
334.265	39.94
334.478	19.46
334.691	66.56
334.903	44.03
335.116	68.61
335.329	23.55
335.541	62.46
335.754	128
335.966	109.57
336.179	62.46
336.392	56.32
336.604	66.56
336.817	50.18
337.029	117.76
337.242	9.22
337.454	103.42
337.667	97.28
337.88	107.52
338.092	48.13
338.305	80.89
338.517	76.8
338.729	31.74
338.942	72.7
339.154	101.37
339.367	19.46
339.579	101.37
339.792	97.28
340.004	80.89
340.217	52.22
340.429	74.75
340.641	93.18
340.854	-3.07
341.066	23.55
341.278	97.28
341.491	52.22
341.703	70.65
341.915	87.04
342.128	74.75
342.34	54.27
342.552	58.37
342.764	35.84
342.977	37.89
343.189	60.42
343.401	5.12
343.613	44.03
343.826	-7.17
344.038	5.12
344.25	87.04
344.462	19.46
344.674	25.6
344.886	117.76
345.099	-27.65
345.311	99.33
345.523	103.42
345.735	52.22
345.947	50.18
346.159	66.56
346.371	117.76
346.583	60.42
346.795	189.44
347.007	64.51
347.219	54.27
347.431	89.09
347.643	91.13
347.855	29.7
348.067	70.65
348.279	-27.65
348.491	1.02
348.703	99.33
348.915	31.74
349.127	50.18
349.339	107.52
349.551	99.33
349.763	121.85
349.975	41.98
350.187	84.99
350.399	68.61
350.61	70.65
350.822	132.09
351.034	78.85
351.246	41.98
351.458	121.85
351.669	44.03
351.881	99.33
352.093	52.22
352.305	140.29
352.517	105.47
352.728	115.71
352.94	82.94
353.152	-7.17
353.363	111.61
353.575	60.42
353.787	54.27
353.999	62.46
354.21	99.33
354.422	39.94
354.633	41.98
354.845	101.37
355.057	29.7
355.268	117.76
355.48	87.04
355.692	19.46
355.903	66.56
356.115	64.51
356.326	-25.6
356.538	89.09
356.749	132.09
356.961	123.9
357.172	105.47
357.384	138.24
357.595	109.57
357.807	99.33
358.018	13.31
358.23	95.23
358.441	107.52
358.653	152.57
358.864	41.98
359.075	82.94
359.287	107.52
359.498	89.09
359.709	84.99
359.921	25.6
360.132	148.48
360.344	93.18
360.555	76.8
360.766	99.33
360.977	99.33
361.189	48.13
361.4	54.27
361.611	115.71
361.823	58.37
362.034	13.31
362.245	44.03
362.456	125.95
362.667	105.47
362.879	72.7
363.09	111.61
363.301	95.23
363.512	48.13
363.723	33.79
363.935	56.32
364.146	99.33
364.357	70.65
364.568	84.99
364.779	41.98
364.99	115.71
365.201	119.81
365.412	115.71
365.623	105.47
365.834	109.57
366.045	-9.22
366.256	64.51
366.467	58.37
366.678	105.47
366.889	33.79
367.1	119.81
367.311	128
367.522	89.09
367.733	119.81
367.944	72.7
368.155	27.65
368.366	76.8
368.577	52.22
368.788	119.81
368.999	84.99
369.209	58.37
369.42	140.29
369.631	226.3
369.842	125.95
370.053	105.47
370.264	99.33
370.474	101.37
370.685	109.57
370.896	152.57
371.107	101.37
371.317	89.09
371.528	97.28
371.739	138.24
371.95	31.74
372.16	31.74
372.371	68.61
372.582	74.75
372.792	146.43
373.003	177.15
373.214	58.37
373.424	113.66
373.635	109.57
373.846	125.95
374.056	87.04
374.267	68.61
374.477	87.04
374.688	64.51
374.898	91.13
375.109	27.65
375.319	27.65
375.53	111.61
375.74	66.56
375.951	64.51
376.161	54.27
376.372	99.33
376.582	70.65
376.793	37.89
377.003	89.09
377.214	99.33
377.424	93.18
377.635	80.89
377.845	138.24
378.055	148.48
378.266	23.55
378.476	72.7
378.686	138.24
378.897	5.12
379.107	113.66
379.317	11.26
379.528	158.72
379.738	64.51
379.948	56.32
380.158	68.61
380.369	171.01
380.579	111.61
380.789	62.46
380.999	41.98
381.21	136.19
381.42	107.52
381.63	70.65
381.84	58.37
382.05	128
382.261	121.85
382.471	97.28
382.681	125.95
382.891	87.04
383.101	44.03
383.311	64.51
383.521	58.37
383.731	105.47
383.941	64.51
384.151	119.81
384.361	84.99
384.571	132.09
384.781	54.27
384.991	142.33
385.201	228.35
385.411	132.09
385.621	56.32
385.831	119.81
386.041	168.96
386.251	107.52
386.461	78.85
386.671	101.37
386.881	128
387.091	48.13
387.301	162.81
387.511	82.94
387.72	140.29
387.93	136.19
388.14	128
388.35	68.61
388.56	97.28
388.769	78.85
388.979	60.42
389.189	89.09
389.399	138.24
389.609	52.22
389.818	91.13
390.028	150.53
390.238	105.47
390.447	60.42
390.657	93.18
390.867	70.65
391.076	93.18
391.286	132.09
391.496	66.56
391.705	173.05
391.915	152.57
392.125	160.77
392.334	119.81
392.544	128
392.753	103.42
392.963	109.57
393.172	123.9
393.382	54.27
393.591	168.96
393.801	82.94
394.01	140.29
394.22	150.53
394.429	109.57
394.639	132.09
394.848	140.29
395.058	150.53
395.267	119.81
395.477	125.95
395.686	37.89
395.895	132.09
396.105	160.77
396.314	152.57
396.524	152.57
396.733	138.24
396.942	211.96
397.152	209.92
397.361	156.67
397.57	171.01
397.78	168.96
397.989	72.7
398.198	197.63
398.407	236.54
398.617	74.75
398.826	152.57
399.035	125.95
399.244	177.15
399.453	179.2
399.663	134.14
399.872	62.46
400.081	187.39
400.29	189.44
400.499	132.09
400.708	226.3
400.917	134.14
401.127	166.91
401.336	181.25
401.545	250.88
401.754	242.68
401.963	146.43
402.172	214.01
402.381	216.06
402.59	195.58
402.799	146.43
403.008	179.2
403.217	99.33
403.426	216.06
403.635	125.95
403.844	171.01
404.053	232.44
404.262	234.49
404.471	220.16
404.68	277.5
404.888	273.4
405.097	211.96
405.306	248.83
405.515	211.96
405.724	195.58
405.933	308.22
406.142	195.58
406.35	414.71
406.559	283.64
406.768	345.08
406.977	310.27
407.185	320.51
407.394	289.79
407.603	220.16
407.812	334.84
408.02	365.56
408.229	338.94
408.438	326.65
408.646	277.5
408.855	334.84
409.064	451.58
409.272	386.04
409.481	406.52
409.69	416.76
409.898	379.9
410.107	404.47
410.315	494.58
410.524	480.25
410.733	474.1
410.941	470.01
411.15	519.16
411.358	582.65
411.567	621.56
411.775	562.17
411.984	578.55
412.192	615.41
412.401	623.61
412.609	683
412.818	742.39
413.026	633.85
413.234	670.71
413.443	785.4
413.651	807.92
413.86	855.03
414.068	914.42
414.276	865.27
414.485	906.23
414.693	973.81
414.901	1004.53
415.11	1076.21
415.318	1002.48
415.526	1065.97
415.734	1121.26
415.943	1203.18
416.151	1299.44
416.359	1201.13
416.567	1160.17
416.776	1367.02
416.984	1362.92
417.192	1485.8
417.4	1457.13
417.608	1420.27
417.817	1457.13
418.025	1584.1
418.233	1788.9
418.441	1731.56
418.649	1694.69
418.857	1786.85
419.065	1833.96
419.273	1985.51
419.481	1872.87
419.689	2141.15
419.897	2229.21
420.105	2233.31
420.313	2135.01
420.521	2415.58
420.729	2417.63
420.937	2634.71
421.145	2585.56
421.353	2675.67
421.561	2769.88
421.769	2841.56
421.977	3029.97
422.185	3027.92
422.393	3029.97
422.601	3396.56
422.809	3335.12
423.017	3501
423.224	3437.52
423.432	3539.91
423.64	3627.98
423.848	4084.67
424.056	3869.64
424.263	4209.6
424.471	4225.98
424.679	4146.11
424.887	4565.95
425.094	4688.82
425.302	4723.64
425.51	4752.31
425.718	4942.77
425.925	4942.77
426.133	5217.2
426.341	5477.29
426.548	5692.33
426.756	5845.93
426.964	5874.6
427.171	6142.88
427.379	6488.99
427.586	6486.94
427.794	6661.02
428.001	6943.64
428.209	7349.14
428.417	7103.38
428.624	7535.5
428.832	7650.19
429.039	7705.48
429.247	7549.84
429.454	8096.64
429.662	8862.58
429.869	8229.76
430.076	8858.49
430.284	8610.68
430.491	9272.18
430.699	9456.5
430.906	9419.63
431.114	9689.96
431.321	10201.96
431.528	10244.96
431.736	10885.98
431.943	11404.11
432.15	11025.24
432.358	11328.34
432.565	11746.12
432.772	11576.14
432.979	12534.59
433.187	12555.07
433.394	12620.61
433.601	13431.6
433.808	13656.88
434.016	13396.79
434.223	14097.19
434.43	14707.49
434.637	14578.47
434.844	15362.84
435.052	15702.8
435.259	15686.42
435.466	15672.08
435.673	16040.72
435.88	16728.83
436.087	17795.82
436.294	17773.3
436.501	17257.21
436.708	17357.56
436.915	18203.37
437.122	18623.2
437.329	18692.83
437.537	19344.09
437.743	19595.99
437.95	19845.84
438.157	20548.29
438.364	21576.37
438.571	21310.14
438.778	21379.77
438.985	23315.1
439.192	22346.41
439.399	23321.24
439.606	22737.57
439.813	23712.41
440.02	25375.36
440.227	24820.36
440.433	24844.93
440.64	25877.11
440.847	24994.43
441.054	25789.05
441.261	27523.68
441.467	27296.35
441.674	28113.49
441.881	28764.75
442.088	28899.91
442.294	28918.34
442.501	29487.68
442.708	30145.08
442.914	31070.76
443.121	32649.74
443.328	31388.19
443.534	33923.58
443.741	32762.38
443.948	32436.75
444.154	34865.64
444.361	34398.71
444.568	34511.35
444.774	34888.17
444.981	35090.92
445.187	36090.33
445.394	37548.48
445.6	37253.58
445.807	40741.27
446.013	39246.25
446.22	39776.67
446.426	41460.1
446.633	41384.33
446.839	43016.56
447.046	41286.03
447.252	43600.23
447.459	43917.67
447.665	43766.12
447.871	45420.87
448.078	47196.46
448.284	45150.54
448.491	46158.14
448.697	47984.93
448.903	48689.43
449.11	48982.29
449.316	48277.79
449.522	48582.94
449.728	50350.34
449.935	50596.09
450.141	50538.75
450.347	51439.86
450.553	50055.43
450.76	50647.29
450.966	52021.48
451.172	51716.33
451.378	53223.64
451.584	51804.39
451.791	53035.22
451.997	52818.14
452.203	54454.47
452.409	54001.86
452.615	53854.41
452.821	51454.19
453.027	51351.79
453.233	53790.92
453.44	51697.9
453.646	52482.27
453.852	52580.57
454.058	53426.38
454.264	52330.72
454.47	52797.66
454.676	51259.63
454.882	53657.81
455.088	48924.95
455.294	49948.93
455.5	50481.41
455.705	51015.93
455.911	48910.61
456.117	47853.86
456.323	47360.3
456.529	45033.81
456.735	47247.66
456.941	45709.64
457.147	44548.44
457.352	43618.66
457.558	43086.19
457.764	43526.5
457.97	42303.87
458.176	41494.92
458.381	41425.29
458.587	39772.58
458.793	39426.47
458.999	37341.64
459.204	40090.01
459.41	39227.82
459.616	36651.47
459.821	36567.51
460.027	36684.24
460.233	35731.93
460.438	34167.29
460.644	34130.42
460.85	32702.99
461.055	32137.75
461.261	32178.71
461.466	29567.55
461.672	28793.42
461.878	31345.19
462.083	28635.72
462.289	28088.92
462.494	28039.76
462.7	26958.44
462.905	26225.26
463.111	27091.55
463.316	27071.07
463.522	26554.99
463.727	26577.51
463.932	26585.71
464.138	26557.03
464.343	26385.01
464.549	25514.62
464.754	26706.54
464.959	26200.69
465.165	25938.55
465.37	25223.81
465.575	24275.6
465.781	25496.19
465.986	25303.68
466.191	24523.4
466.397	24115.86
466.602	23055.01
466.807	23806.61
467.012	23679.64
467.218	23601.82
467.423	23468.7
467.628	23249.57
467.833	24486.54
468.038	23345.82
468.244	22842.02
468.449	23808.66
468.654	22842.02
468.859	22811.3
469.064	22432.43
469.269	22012.59
469.474	22069.94
469.679	22559.4
469.885	21635.77
470.09	21992.11
470.295	22041.26
470.5	21443.26
470.705	21357.24
470.91	21070.53
471.115	20916.93
471.32	20951.74
471.525	21074.62
471.73	20476.62
471.935	20671.17
472.139	19905.23
472.344	20026.06
472.549	19860.18
472.754	19911.38
472.959	19253.98
473.164	18834.14
473.369	18678.5
473.574	19559.13
473.778	18836.19
473.983	18807.52
474.188	19028.7
474.393	17795.82
474.598	18031.34
474.802	17974
475.007	17914.61
475.212	17724.15
475.417	17062.65
475.621	17111.8
475.826	17226.49
476.031	16960.25
476.235	16317.19
476.44	16726.78
476.645	16241.42
476.849	16503.56
477.054	16206.6
477.259	15950.6
477.463	15977.23
477.668	15651.6
477.872	15991.56
478.077	15489.81
478.282	15250.2
478.486	14986.01
478.691	15014.68
478.895	14904.09
479.1	14865.18
479.304	14900
479.509	14502.69
479.713	14828.32
479.918	14250.79
480.122	14064.43
480.326	14230.31
480.531	14330.66
480.735	14256.93
480.94	14035.75
481.144	14359.33
481.348	13814.57
481.553	14058.28
481.757	13617.97
481.961	13775.66
482.166	13986.6
482.37	14048.04
482.574	13656.88
482.778	13734.7
482.983	13916.97
483.187	13734.7
483.391	14074.67
483.595	13728.56
483.8	13570.86
484.004	13738.8
484.208	13869.87
484.412	13738.8
484.616	13675.31
484.821	13806.38
485.025	13474.61
485.229	14084.91
485.433	13742.89
485.637	13603.63
485.841	13751.09
486.045	13644.59
486.249	13742.89
486.453	13564.72
486.657	13560.63
486.861	13732.65
487.065	13540.15
487.269	13595.44
487.473	13298.49
487.677	13622.06
487.881	13830.96
488.085	13816.62
488.289	13605.68
488.493	13849.39
488.697	13636.4
488.901	13773.61
489.105	13810.48
489.309	13740.85
489.512	13804.33
489.716	13947.69
489.92	13843.24
490.124	13808.43
490.328	14039.85
490.531	14021.42
490.735	14080.81
490.939	14215.98
491.143	14072.62
491.346	13976.36
491.55	14197.54
491.754	14353.19
491.958	14271.27
492.161	14342.95
492.365	14484.26
492.569	14181.16
492.772	14050.09
492.976	14273.32
493.18	14312.23
493.383	14351.14
493.587	14834.46
493.79	15108.89
493.994	14699.3
494.197	15012.63
494.401	15094.55
494.605	14965.53
494.808	15436.56
495.012	15368.98
495.215	15563.54
495.419	15618.83
495.622	15336.21
495.825	15764.24
496.029	15659.79
496.232	16100.11
496.436	16063.24
496.639	16491.27
496.843	16206.6
497.046	16521.99
497.249	16704.26
497.453	16943.87
497.656	16966.4
497.859	16982.78
498.063	17300.22
498.266	17775.34
498.469	17550.07
498.673	17879.79
498.876	18258.67
499.079	18064.11
499.282	18041.58
499.485	18639.59
499.689	18623.2
499.892	18893.54
500.095	19272.41
500.298	19505.88
500.501	19376.86
500.705	19808.98
500.908	19995.34
501.111	20165.32
501.314	20325.07
501.517	20449.99
501.72	20980.42
501.923	20601.54
502.126	21324.47
502.329	21303.99
502.532	21646.01
502.735	21613.24
502.938	22010.54
503.141	22459.05
503.344	22512.3
503.547	22659.75
503.75	22846.12
503.953	23286.43
504.156	23425.69
504.359	23491.23
504.562	24027.79
504.765	24138.38
504.968	24480.39
505.17	24636.04
505.373	24883.84
505.576	25051.78
505.779	25262.72
505.982	25596.54
506.185	25795.19
506.387	26503.79
506.59	26272.37
506.793	26692.2
506.996	26817.13
507.198	27640.41
507.401	27105.89
507.604	27675.23
507.807	27853.4
508.009	27998.8
508.212	28236.37
508.415	28858.95
508.617	29178.43
508.82	28861
509.022	29143.62
509.225	29626.94
509.428	30042.68
509.63	30251.57
509.833	30382.64
510.035	31322.66
510.238	31070.76
510.44	31355.43
510.643	31576.61
510.845	31832.6
511.048	31830.55
511.25	32047.64
511.453	32641.55
511.655	34083.32
511.858	33118.73
512.06	33651.2
512.262	34089.46
512.465	33851.9
512.667	34304.5
512.87	34638.32
513.072	34742.77
513.274	35477.99
513.477	35903.96
513.679	36010.46
513.881	36336.09
514.084	36626.9
514.286	36569.55
514.488	37110.22
514.69	38226.36
514.893	37841.34
515.095	37992.89
515.297	38332.86
515.499	38623.67
515.701	38709.68
515.904	39338.41
516.106	39334.31
516.308	39795.1
516.51	40444.31
516.712	40159.64
516.914	40554.9
517.116	41408.9
517.318	41288.07
517.52	41357.7
517.722	41605.51
517.925	42230.14
518.127	42518.9
518.329	42654.07
518.531	42756.47
518.733	43444.59
518.935	43217.26
519.136	43975.01
519.338	44589.4
519.54	44345.69
519.742	45011.28
519.944	45183.31
520.146	45779.27
520.348	45822.28
520.55	45889.86
520.752	46195.01
520.954	46838.07
521.155	46524.73
521.357	47122.74
521.559	47505.71
521.761	48021.8
521.963	47925.54
522.164	47733.03
522.366	47991.08
522.568	48681.24
522.77	48722.2
522.971	49408.27
523.173	49189.14
523.375	49449.23
523.576	49471.76
523.778	49731.85
523.98	50516.22
524.181	50571.52
524.383	49996.04
524.584	50688.25
524.786	51079.41
524.988	50968.82
525.189	51450.09
525.391	51769.58
525.592	51788.01
525.794	52240.61
525.995	52179.17
526.197	52480.22
526.398	52033.77
526.6	52599.01
526.801	52981.98
527.003	52801.75
527.204	52994.26
527.406	53283.03
527.607	53076.18
527.808	53825.74
528.01	52930.78
528.211	53102.81
528.412	54433.99
528.614	53833.93
528.815	53788.88
529.016	54405.31
529.218	53549.26
529.419	53817.55
529.62	54044.87
529.822	54048.97
530.023	54059.21
530.224	54194.37
530.425	54354.11
530.626	53919.95
530.828	53790.92
531.029	55087.29
531.23	54157.51
531.431	54685.89
531.632	54718.65
531.833	55036.09
532.035	54382.79
532.236	54413.51
532.437	55161.01
532.638	54624.45
532.839	55308.47
533.04	54927.55
533.241	54497.47
533.442	55509.17
533.643	54677.69
533.844	54954.17
534.045	55015.61
534.246	54591.68
534.447	54884.54
534.648	54950.07
534.849	54988.98
535.05	54669.5
535.251	54970.55
535.451	54896.83
535.652	54997.18
535.853	54741.18
536.054	54743.23
536.255	54878.39
536.456	54610.11
536.657	55535.79
536.857	54841.53
537.058	54749.37
537.259	55183.54
537.46	55001.27
537.66	54520
537.861	55109.82
538.062	54616.25
538.263	55031.99
538.463	54692.03
538.664	54556.86
538.865	54517.95
539.065	54823.1
539.266	54415.55
539.466	55236.79
539.667	54462.66
539.868	54974.65
540.068	54456.51
540.269	54823.1
540.469	54890.68
540.67	54520
540.87	54210.76
541.071	54636.73
541.271	54829.24
541.472	54395.07
541.672	54229.19
541.873	54300.87
542.073	53878.99
542.274	55279.8
542.474	54489.28
542.675	54173.89
542.875	54241.48
543.075	54571.2
543.276	53649.61
543.476	54362.31
543.676	54214.85
543.877	54188.23
544.077	54184.13
544.277	54145.22
544.478	53885.13
544.678	54337.73
544.878	54102.21
545.078	54411.46
545.279	53917.9
545.479	53975.24
545.679	54059.21
545.879	53915.85
546.079	54239.43
546.28	53739.72
546.48	53326.03
546.68	54110.41
546.88	54010.06
547.08	53954.76
547.28	53809.35
547.48	53395.67
547.68	54042.82
547.88	53338.32
548.081	54198.47
548.281	53975.24
548.481	53528.78
548.681	53977.29
548.881	53553.36
549.081	54036.68
549.28	53629.13
549.48	53813.45
549.68	53588.17
549.88	54397.12
550.08	53276.88
550.28	54161.61
550.48	53502.16
550.68	53856.46
550.88	53250.26
551.08	53299.41
551.279	53844.17
551.479	53270.74
551.679	53393.62
551.879	53260.5
552.079	53532.88
552.278	53528.78
552.478	52971.74
552.678	53543.12
552.878	53383.38
553.077	53137.62
553.277	52920.54
553.477	53842.12
553.676	53024.98
553.876	53160.15
554.076	52973.78
554.275	52818.14
554.475	52392.16
554.674	53156.05
554.874	52916.44
555.074	52908.25
555.273	53151.96
555.473	52723.93
555.672	52644.06
555.872	53078.23
556.071	53061.85
556.271	53055.7
556.47	52449.5
556.67	52027.62
556.869	52500.7
557.068	53074.13
557.268	52484.32
557.467	52412.64
557.667	52449.5
557.866	52287.71
558.065	52355.3
558.265	52402.4
558.464	51742.95
558.663	52619.49
558.863	51638.51
559.062	52449.5
559.261	51892.46
559.461	52685.02
559.66	51259.63
559.859	52130.02
560.058	51415.28
560.258	51790.06
560.457	51286.26
560.656	51806.44
560.855	51505.39
561.054	51333.36
561.253	51536.11
561.453	51542.25
561.652	51339.5
561.851	51425.52
562.05	51132.66
562.249	51151.09
562.448	51446
562.647	51423.47
562.846	50907.38
563.045	50942.2
563.244	50542.84
563.443	51247.35
563.642	50551.04
563.841	50893.05
564.04	50587.9
564.239	50817.27
564.438	50270.46
564.637	50286.85
564.836	50618.62
565.035	50350.34
565.234	50278.66
565.432	50227.46
565.631	49977.61
565.83	50362.62
566.029	50184.45
566.228	50102.53
566.427	50051.33
566.625	49901.83
566.824	49172.75
567.023	49791.24
567.222	49246.48
567.42	49598.73
567.619	49422.61
567.818	49660.17
568.016	49131.79
568.215	49971.46
568.414	48797.98
568.612	49539.34
568.811	49238.29
569.01	49207.57
569.208	48904.47
569.407	49172.75
569.605	48359.71
569.804	49174.8
570.002	48230.69
570.201	49021.2
570.4	48351.52
570.598	48150.82
570.797	47880.49
570.995	48435.48
571.193	47923.49
571.392	48773.4
571.59	47610.15
571.789	48032.04
571.987	47710.5
572.186	47812.9
572.384	47345.97
572.582	47427.88
572.781	47943.97
572.979	47311.15
573.177	47438.12
573.376	47524.14
573.574	47022.39
573.772	47345.97
573.971	46879.03
574.169	47094.07
574.367	46551.35
574.565	47014.19
574.763	46670.14
574.962	46295.36
575.16	46299.45
575.358	46616.89
575.556	46154.05
575.754	46451
575.952	45971.78
576.151	46106.94
576.349	46168.38
576.547	46129.47
576.745	45707.59
576.943	45930.82
577.141	45406.54
577.339	45654.34
577.537	45359.44
577.735	45437.26
577.933	45226.32
578.131	45056.34
578.329	45203.79
578.527	44790.1
578.725	44505.43
578.923	45017.43
579.121	45005.14
579.319	44915.03
579.516	44685.65
579.714	44499.29
579.912	44613.98
580.11	44081.5
580.308	44683.61
580.506	44020.06
580.704	43204.97
580.901	44075.36
581.099	43880.8
581.297	43356.52
581.495	43399.53
581.692	43862.37
581.89	42901.87
582.088	43301.23
582.285	43430.25
582.483	43319.66
582.681	43239.79
582.878	42953.07
583.076	42858.87
583.274	43012.46
583.471	42529.14
583.669	42918.26
583.866	41904.51
584.064	42393.98
584.262	41963.9
584.459	42260.86
584.657	42205.56
584.854	42121.6
585.052	41136.52
585.249	41832.83
585.447	41832.83
585.644	41492.87
585.841	41439.62
586.039	41783.68
586.236	41077.13
586.434	41165.2
586.631	41224.59
586.828	41116.04
587.026	40843.66
587.223	41054.61
587.42	40599.96
587.618	40753.55
587.815	40567.19
588.012	40313.24
588.21	40212.89
588.407	40335.77
588.604	40257.95
588.801	39881.12
588.999	39739.81
589.196	39682.47
589.393	39635.36
589.59	39160.23
589.787	39346.6
589.984	39190.95
590.182	39016.88
590.379	39223.72
590.576	39051.69
590.773	39229.87
590.97	38717.87
591.167	38769.07
591.364	38273.46
591.561	38461.88
591.758	38193.59
591.955	38623.67
592.152	38459.83
592.349	38050.24
592.546	37872.06
592.743	38207.93
592.94	37355.97
593.137	37759.42
593.334	37937.6
593.531	37114.31
593.727	37257.67
593.924	37374.41
594.121	37458.37
594.318	37466.56
594.515	36612.56
594.712	37196.23
594.908	36762.06
595.105	36962.76
595.302	36569.55
595.499	36964.81
595.696	36481.49
595.892	36327.89
596.089	36229.59
596.286	36254.17
596.482	36114.9
596.679	36166.1
596.876	36239.83
597.072	35852.76
597.269	35543.52
597.466	35453.41
597.662	35635.68
597.859	35303.91
598.055	35318.25
598.252	35219.94
598.448	34947.56
598.645	34685.42
598.841	34836.97
599.038	35267.05
599.234	34654.7
599.431	34490.87
599.627	34462.19
599.824	34533.87
600.02	34081.27
600.217	33956.35
600.413	34107.9
600.609	33915.39
600.806	34140.66
601.002	33921.53
601.198	33587.71
601.395	33493.5
601.591	33702.4
601.787	33683.97
601.984	33122.82
602.18	33479.17
602.376	33102.34
602.572	33137.16
602.769	33081.86
602.965	32563.73
603.161	32789
603.357	32766.48
603.553	32879.11
603.75	32709.13
603.946	32543.25
604.142	32518.67
604.338	32004.63
604.534	32348.69
604.73	31910.43
604.926	31681.05
605.122	32184.85
605.318	31963.67
605.514	31375.91
605.71	31511.07
605.906	31775.26
606.102	31441.44
606.298	31685.15
606.494	31216.16
606.69	31300.13
606.886	31605.28
607.082	30902.82
607.278	31470.11
607.474	30693.93
607.67	30960.17
607.866	30585.39
608.062	30986.79
608.257	30284.34
608.453	30528.05
608.649	30759.47
608.845	30384.69
609.041	30439.98
609.236	30306.87
609.432	30198.32
609.628	30562.86
609.824	30353.97
610.019	29723.19
610.215	30044.73
610.411	30472.75
610.606	29676.09
610.802	29805.11
610.998	30077.49
611.193	29803.07
611.389	29768.25
611.584	29573.69
611.78	29231.68
611.976	29635.13
612.171	29624.89
612.367	29688.38
612.562	29194.82
612.758	29155.91
612.953	29176.39
613.149	29432.38
613.344	29008.45
613.539	29463.1
613.735	29313.6
613.93	29274.69
614.126	28815.94
614.321	29176.39
614.517	28824.14
614.712	28793.42
614.907	28705.35
615.103	29090.37
615.298	28338.77
615.493	28621.39
615.688	28357.2
615.884	28990.02
616.079	28140.11
616.274	28555.85
616.47	28455.5
616.665	28467.79
616.86	28000.85
617.055	28482.13
617.25	28105.3
617.445	28072.53
617.641	27923.03
617.836	28013.14
618.031	27791.96
618.226	28238.42
618.421	27687.51
618.616	27605.59
618.811	27331.17
619.006	27857.49
619.201	27107.94
619.396	27363.93
619.591	26567.27
619.786	27185.76
619.981	26761.83
620.176	27474.52
620.371	26520.17
620.566	26770.02
620.761	26430.06
620.956	26430.06
621.151	26294.89
621.346	26212.98
621.541	25887.35
621.735	26055.28
621.93	25928.31
622.125	25813.62
622.32	25338.49
622.515	25535.1
622.709	25479.8
622.904	25051.78
623.099	24939.14
623.294	25160.32
623.488	24679.05
623.683	24750.73
623.878	24490.63
624.072	24679.05
624.267	24625.8
624.462	24175.25
624.656	23755.41
624.851	24253.07
625.046	23616.15
625.24	23458.46
625.435	23157.41
625.629	23616.15
625.824	23286.43
626.018	23351.96
626.213	22827.68
626.407	23313.05
626.602	22737.57
626.796	22774.44
626.991	22864.55
627.185	22481.58
627.38	22241.96
627.574	22108.85
627.768	21955.25
627.963	21732.02
628.157	21873.33
628.352	21815.99
628.546	21596.85
628.74	21777.08
628.935	21301.95
629.129	21461.69
629.323	21041.85
629.517	21121.73
629.712	21088.96
629.906	20986.56
630.1	20441.8
630.294	20566.73
630.489	20284.11
630.683	20609.73
630.877	20230.86
631.071	20159.18
631.265	20353.74
631.459	19866.32
631.653	19899.09
631.848	20075.21
632.042	19759.83
632.236	19704.53
632.43	19507.93
632.624	19413.72
632.818	19473.11
633.012	19202.78
633.206	18875.1
633.4	19077.85
633.594	18907.87
633.788	18916.06
633.982	18668.26
634.176	18825.95
634.369	18737.89
634.563	18596.58
634.757	18285.29
634.951	18440.93
635.145	18426.6
635.339	18250.47
635.533	17951.47
635.726	17767.15
635.92	17986.29
636.114	17939.18
636.308	17597.17
636.501	17947.37
636.695	17416.95
636.889	17535.73
637.083	17185.53
637.276	17165.05
637.47	17171.19
637.664	16904.96
637.857	17038.08
638.051	17017.6
638.244	16876.29
638.438	16857.85
638.632	16888.57
638.825	16495.36
639.019	16335.62
639.212	16261.9
639.406	16519.94
639.599	16067.34
639.793	16268.04
639.986	15835.92
640.18	16274.18
640.373	15799.05
640.567	15846.16
640.76	15850.25
640.954	15754
641.147	15504.15
641.34	15409.94
641.534	15655.7
641.727	15536.91
641.92	15199
642.114	14998.3
642.307	15227.67
642.5	15178.52
642.694	14611.23
642.887	14732.06
643.08	14897.95
643.273	14646.05
643.467	14826.27
643.66	14633.76
643.853	14408.48
644.046	14375.72
644.239	14484.26
644.432	14074.67
644.626	14207.78
644.819	14213.93
645.012	14025.51
645.205	13904.68
645.398	13886.25
645.591	13781.81
645.784	13855.53
645.977	13611.82
646.17	13665.07
646.363	13394.74
646.556	13437.75
646.749	13435.7
646.942	13517.62
647.135	13212.47
647.328	13407.03
647.521	13290.29
647.714	12890.94
647.907	13048.63
648.099	13052.73
648.292	12827.45
648.485	12989.24
648.678	12610.37
648.871	12684.09
649.064	12565.31
649.256	12553.02
649.449	12649.28
649.642	12456.77
649.835	12235.59
650.027	12215.11
650.22	12274.5
650.413	12002.12
650.605	12161.86
650.798	12223.3
650.991	11690.83
651.183	11967.31
651.376	11885.39
651.568	11895.63
651.761	11653.97
651.954	11553.62
652.146	11723.6
652.339	11373.39
652.531	11303.76
652.724	11551.57
652.916	11223.89
653.109	11393.87
653.301	11236.18
653.494	11144.02
653.686	10912.6
653.879	11123.54
654.071	11031.38
654.263	11062.1
654.456	10812.25
654.648	10926.94
654.84	10730.33
655.033	10621.79
655.225	10822.49
655.417	10629.98
655.61	10531.68
655.802	10761.05
655.994	10511.2
656.186	10541.92
656.379	10251.11
656.571	10380.13
656.763	9960.3
656.955	10298.21
657.148	10074.98
657.34	10240.87
657.532	9894.76
657.724	10052.45
657.916	10146.66
658.108	10007.4
658.3	9890.67
658.492	9804.65
658.684	9491.31
658.876	9732.97
659.068	9683.82
659.26	9536.37
659.452	9671.53
659.644	9593.71
659.836	9360.24
660.028	9597.81
660.22	9268.08
660.412	9298.8
660.604	9065.33
660.796	9102.2
660.988	9063.29
661.18	9075.57
661.372	9182.07
661.563	9163.64
661.755	8934.26
661.947	8907.64
662.139	8887.16
662.331	8946.55
662.522	8573.82
662.714	8647.55
662.906	8758.14
663.097	8741.75
663.289	8573.82
663.481	8244.1
663.673	8547.2
663.864	8346.5
664.056	8326.02
664.247	8387.46
664.439	8225.67
664.631	8321.92
664.822	8274.82
665.014	8334.21
665.205	8188.8
665.397	8037.25
665.588	8106.88
665.78	7859.08
665.971	8106.88
666.163	8125.32
666.354	7805.83
666.546	7897.99
666.737	7953.29
666.929	7701.39
667.12	7617.42
667.311	7617.42
667.503	7721.87
667.694	7719.82
667.885	7609.23
668.077	7699.34
668.268	7400.34
668.459	7390.1
668.651	7449.49
668.842	7424.91
669.033	7338.9
669.224	7369.62
669.416	7293.84
669.607	7211.92
669.798	7224.21
669.989	7404.43
670.18	7132.05
670.371	7338.9
670.563	6923.16
670.754	7052.18
670.945	6992.79
671.136	7140.24
671.327	6890.39
671.518	7027.6
671.709	6974.36
671.9	7089.04
672.091	6839.19
672.282	6802.33
672.473	6638.49
672.664	6833.05
672.855	6689.69
673.046	6689.69
673.237	6669.21
673.428	6726.55
673.619	6626.2
673.809	6603.68
674	6636.44
674.191	6628.25
674.382	6583.2
674.573	6380.45
674.764	6423.45
674.954	6532
675.145	6378.4
675.336	6427.55
675.527	6269.86
675.717	6476.7
675.908	6169.51
676.099	6136.74
676.289	6220.71
676.48	6126.5
676.671	6204.32
676.861	6206.37
677.052	6083.49
677.243	6081.44
677.433	6017.96
677.624	6153.12
677.814	6134.69
678.005	6067.11
678.195	6089.64
678.386	5925.8
678.576	6044.58
678.767	5979.04
678.957	5960.61
679.148	5981.09
679.338	5850.02
679.529	5821.35
679.719	5862.31
679.909	5987.24
680.1	5766.06
680.29	5884.84
680.481	5800.87
680.671	5731.24
680.861	5739.43
681.052	5876.65
681.242	5731.24
681.432	5915.56
681.622	5616.55
681.813	5737.38
682.003	5694.38
682.193	5540.78
682.383	5653.42
682.573	5465
682.764	5673.9
682.954	5583.79
683.144	5688.23
683.334	5499.82
683.524	5405.61
683.714	5583.79
683.904	5262.26
684.094	5508.01
684.284	5440.43
684.474	5520.3
684.664	5301.17
684.854	5268.4
685.044	5286.83
685.234	5456.81
685.424	5452.72
685.614	5225.39
685.804	5370.8
685.994	5303.22
686.184	5358.51
686.374	5079.99
686.564	5073.84
686.753	5077.94
686.943	5032.88
687.133	5112.75
687.323	5122.99
687.513	5090.23
687.702	4977.59
687.892	5026.74
688.082	4858.81
688.272	4944.82
688.461	4891.57
688.651	4948.92
688.841	4791.22
689.03	4877.24
689.22	4809.65
689.41	4815.8
689.599	4715.45
689.789	4729.78
689.979	4799.41
690.168	4649.91
690.358	4660.15
690.547	4752.31
690.737	4776.89
690.926	4670.39
691.116	4627.39
691.305	4756.41
691.495	4619.19
691.684	4719.54
691.874	4502.46
692.063	4443.07
692.252	4490.17
692.442	4438.97
692.631	4434.88
692.82	4496.32
693.01	4459.45
693.199	4402.11
693.388	4318.14
693.578	4371.39
693.767	4330.43
693.956	4299.71
694.146	4090.82
694.335	4225.98
694.524	4060.1
694.713	4209.6
694.902	4199.36
695.092	4131.78
695.281	4154.3
695.47	4127.68
695.659	4019.14
695.848	3945.41
696.037	4047.81
696.226	4021.19
696.415	3980.23
696.604	4041.67
696.793	3914.69
696.982	3963.84
697.171	3967.94
697.36	3761.09
697.549	3830.73
697.738	3855.3
697.927	3961.8
698.116	3744.71
698.305	3845.06
698.494	3832.77
698.683	3922.88
698.872	3865.54
699.061	3861.45
699.25	3652.55
699.438	3711.94
699.627	3668.94
699.816	3808.2
700.005	3761.09
700.193	3699.66
700.382	3752.9
700.571	3691.46
700.76	3640.26
700.948	3757
701.137	3554.25
701.326	3591.11
701.514	3646.41
701.703	3746.76
701.892	3632.07
702.08	3638.22
702.269	3654.6
702.457	3511.24
702.646	3507.15
702.834	3490.76
703.023	3523.53
703.212	3576.78
703.4	3607.5
703.589	3365.84
703.777	3433.42
703.965	3548.11
704.154	3517.39
704.342	3322.83
704.531	3294.16
704.719	3423.18
704.907	3449.8
705.096	3396.56
705.284	3408.84
705.472	3361.74
705.661	3384.27
705.849	3439.56
706.037	3234.77
706.226	3347.4
706.414	3328.97
706.602	3238.86
706.79	3335.12
706.979	3314.64
707.167	3427.28
707.355	3316.69
707.543	3423.18
707.731	3234.77
707.919	3402.7
708.107	3269.58
708.296	3249.1
708.484	3214.29
708.672	3216.33
708.86	3288.01
709.048	3226.57
709.236	3222.48
709.424	3245.01
709.612	3245.01
709.8	3111.89
709.988	3199.95
710.176	3126.22
710.364	3173.33
710.551	3167.18
710.739	3173.33
710.927	3183.57
711.115	3179.47
711.303	3105.74
711.491	3251.15
711.679	3083.22
711.866	3163.09
712.054	3138.51
712.242	2946
712.43	3126.22
712.617	3183.57
712.805	3081.17
712.993	3105.74
713.181	3109.84
713.368	2993.11
713.556	3070.93
713.744	3126.22
713.931	3169.23
714.119	2958.29
714.306	3152.85
714.494	3070.93
714.682	3044.31
714.869	3068.88
715.057	3070.93
715.244	2976.72
715.432	3070.93
715.619	3072.98
715.807	2982.87
715.994	3091.41
716.182	3122.13
716.369	3062.74
716.556	3089.36
716.744	2921.43
716.931	3007.44
717.119	2964.43
717.306	2872.28
717.493	3077.07
717.681	2950.1
717.868	2993.11
718.055	2903
718.242	3003.35
718.43	3036.11
718.617	2896.85
718.804	2888.66
718.991	3015.63
719.179	2931.67
719.366	2925.52
719.553	2943.96
719.74	2966.48
719.927	3023.83
720.114	2892.76
720.301	2913.24
720.488	2917.33
720.676	2964.43
720.863	2941.91
721.05	2894.8
721.237	2866.13
721.424	2911.19
721.611	3042.26
721.798	2921.43
721.985	2909.14
722.172	2845.65
722.358	2880.47
722.545	2870.23
722.732	2925.52
722.919	2892.76
723.106	2880.47
723.293	2894.8
723.48	2790.36
723.667	2796.5
723.853	2833.36
724.04	2937.81
724.227	2888.66
724.414	2931.67
724.6	2925.52
724.787	2819.03
724.974	2868.18
725.161	2956.24
725.347	2841.56
725.534	2843.6
725.72	2927.57
725.907	2837.46
726.094	2864.08
726.28	2755.54
726.467	2845.65
726.653	2816.98
726.84	2941.91
727.027	2982.87
727.213	2843.6
727.4	2898.9
727.586	2806.74
727.773	2804.69
727.959	2927.57
728.145	2868.18
728.332	2825.17
728.518	2786.26
728.705	2958.29
728.891	2870.23
729.077	2749.4
729.264	3007.44
729.45	2829.27
729.636	2929.62
729.823	2804.69
730.009	2962.39
730.195	2941.91
730.382	2911.19
730.568	2878.42
730.754	2835.41
730.94	2911.19
731.126	3040.21
731.313	2962.39
731.499	2849.75
731.685	2925.52
731.871	2984.91
732.057	2841.56
732.243	2898.9
732.429	2882.52
732.615	2927.57
732.801	2962.39
732.987	2872.28
733.173	2814.93
733.359	2900.95
733.545	2995.15
733.731	2939.86
733.917	2999.25
734.103	2833.36
734.289	2941.91
734.475	2771.93
734.661	2821.08
734.847	3003.35
735.033	2919.38
735.219	2989.01
735.404	2982.87
735.59	2896.85
735.776	2950.1
735.962	2855.89
736.148	2870.23
736.333	2925.52
736.519	2948.05
736.705	2892.76
736.89	2960.34
737.076	2935.76
737.262	2876.37
737.447	2974.67
737.633	2937.81
737.819	2884.56
738.004	3046.35
738.19	2911.19
738.375	3087.31
738.561	3001.3
738.747	2923.48
738.932	2911.19
739.118	2970.58
739.303	2814.93
739.489	2915.28
739.674	2937.81
739.859	2962.39
740.045	2833.36
740.23	2968.53
740.416	2911.19
740.601	2978.77
740.786	2986.96
740.972	2941.91
741.157	2974.67
741.342	2804.69
741.528	2849.75
741.713	2937.81
741.898	2810.84
742.084	2982.87
742.269	2921.43
742.454	2833.36
742.639	2814.93
742.824	2937.81
743.01	2806.74
743.195	2954.19
743.38	2839.51
743.565	2798.55
743.75	2864.08
743.935	2864.08
744.12	2886.61
744.305	2761.69
744.49	2849.75
744.675	2808.79
744.86	2737.11
745.045	2733.01
745.23	2798.55
745.415	2733.01
745.6	2759.64
745.785	2780.12
745.97	2653.14
746.155	2771.93
746.34	2857.94
746.525	2603.99
746.71	2814.93
746.895	2667.48
747.079	2753.49
747.264	2696.15
747.449	2716.63
747.634	2626.52
747.819	2687.96
748.003	2526.17
748.188	2634.71
748.373	2556.89
748.557	2493.4
748.742	2556.89
748.927	2608.09
749.111	2540.51
749.296	2542.55
749.481	2534.36
749.665	2503.64
749.85	2540.51
750.034	2593.75
750.219	2425.82
750.404	2542.55
750.588	2538.46
750.773	2384.86
750.957	2429.91
751.141	2509.79
751.326	2407.39
751.51	2372.57
751.695	2446.3
751.879	2401.24
752.064	2470.87
752.248	2368.48
752.432	2364.38
752.617	2460.63
752.801	2372.57
752.985	2325.47
753.17	2268.13
753.354	2339.8
753.538	2264.03
753.722	2270.17
753.907	2221.02
754.091	2063.33
754.275	2182.11
754.459	2167.77
754.643	2147.3
754.828	2231.26
755.012	2173.92
755.196	2229.21
755.38	2206.69
755.564	2147.3
755.748	2124.77
755.932	2069.47
756.116	2110.43
756.3	2075.62
756.484	2071.52
756.668	2087.9
756.852	1999.84
757.036	2178.01
757.22	2038.75
757.404	2044.9
757.588	2083.81
757.772	1887.2
757.956	1850.34
758.14	1987.55
758.323	1833.96
758.507	1950.69
758.691	1860.58
758.875	1942.5
759.059	1838.05
759.242	1940.45
759.426	1879.01
759.61	1895.4
759.794	1887.2
759.977	1815.52
760.161	2026.47
760.345	1840.1
760.528	1813.48
760.712	1795.04
760.895	1778.66
761.079	1784.8
761.263	1727.46
761.446	1702.89
761.63	1711.08
761.813	1780.71
761.997	1829.86
762.18	1760.23
762.364	1739.75
762.547	1780.71
762.731	1727.46
762.914	1666.02
763.098	1580.01
763.281	1571.82
763.464	1555.43
763.648	1657.83
763.831	1717.22
764.015	1723.37
764.198	1653.73
764.381	1643.49
764.564	1563.62
764.748	1643.49
764.931	1655.78
765.114	1635.3
765.297	1668.07
765.481	1657.83
765.664	1512.42
765.847	1668.07
766.03	1602.54
766.213	1493.99
766.397	1608.68
766.58	1573.86
766.763	1629.16
766.946	1590.25
767.129	1637.35
767.312	1489.9
767.495	1493.99
767.678	1565.67
767.861	1641.45
768.044	1608.68
768.227	1467.37
768.41	1543.14
768.593	1500.14
768.776	1588.2
768.959	1475.56
769.142	1571.82
769.324	1489.9
769.507	1412.07
769.69	1473.51
769.873	1440.75
770.056	1512.42
770.239	1405.93
770.421	1602.54
770.604	1479.66
770.787	1432.55
770.97	1389.55
771.152	1471.47
771.335	1432.55
771.518	1336.3
771.7	1491.95
771.883	1348.59
772.066	1405.93
772.248	1354.73
772.431	1373.16
772.613	1389.55
772.796	1317.87
772.978	1344.49
773.161	1401.83
773.343	1375.21
773.526	1258.48
773.708	1246.19
773.891	1340.4
774.073	1231.85
774.256	1283.05
774.438	1321.96
774.621	1256.43
774.803	1328.11
774.985	1207.28
775.168	1154.03
775.35	1235.95
775.532	1250.28
775.715	1252.33
775.897	1293.29
776.079	1174.51
776.261	1129.45
776.444	1213.42
776.626	1205.23
776.808	1168.37
776.99	1178.61
777.173	1162.22
777.355	1104.88
777.537	1231.85
777.719	1119.21
777.901	1096.69
778.083	1108.98
778.265	998.38
778.447	1076.21
778.629	1096.69
778.811	1045.49
778.993	1039.34
779.175	1102.83
779.357	1096.69
779.539	1020.91
779.721	1010.67
779.903	1061.87
780.085	1059.82
780.267	1000.43
780.449	1072.11
780.631	1012.72
780.812	1082.35
780.994	908.27
781.176	979.95
781.358	926.71
781.54	986.1
781.721	932.85
781.903	922.61
782.085	916.47
782.267	932.85
782.448	801.78
782.63	885.75
782.812	930.8
782.993	955.38
783.175	889.84
783.357	840.69
783.538	873.46
783.72	855.03
783.901	769.01
784.083	828.4
784.264	791.54
784.446	812.02
784.627	820.21
784.809	844.79
784.99	795.64
785.172	812.02
785.353	822.26
785.535	828.4
785.716	748.53
785.897	717.81
786.079	740.34
786.26	728.05
786.441	711.67
786.623	629.75
786.804	723.96
786.985	730.1
787.167	760.82
787.348	648.18
787.529	756.72
787.71	812.02
787.891	754.68
788.073	734.2
788.254	662.52
788.435	711.67
788.616	693.24
788.797	639.99
788.978	639.99
789.159	642.04
789.34	683
789.522	596.98
789.703	629.75
789.884	590.84
790.065	699.38
790.246	619.51
790.427	670.71
790.607	695.29
790.788	644.09
790.969	674.81
791.15	617.46
791.331	556.02
791.512	711.67
791.693	486.39
791.874	607.22
792.054	594.93
792.235	617.46
792.416	447.48
792.597	496.63
792.778	609.27
792.958	525.3
793.139	556.02
793.32	590.84
793.5	535.54
793.681	539.64
793.862	496.63
794.042	463.86
794.223	439.29
794.404	502.78
794.584	472.06
794.765	508.92
794.945	521.21
795.126	506.87
795.306	584.7
795.487	513.02
795.667	531.45
795.848	527.35
796.028	506.87
796.209	465.91
796.389	480.25
796.57	455.67
796.75	515.06
796.93	449.53
797.111	416.76
797.291	486.39
797.471	455.67
797.652	422.91
797.832	474.1
798.012	398.33
798.192	527.35
798.373	486.39
798.553	490.49
798.733	418.81
798.913	388.09
799.093	472.06
799.274	484.34
799.454	414.71
799.634	439.29
799.814	453.63
799.994	361.47
800.174	461.82
800.354	424.95
800.534	381.95
800.714	379.9
800.894	439.29
801.074	474.1
801.254	412.67
801.434	443.39
801.614	347.13
801.794	427
801.974	1063.92
802.154	408.57
802.334	439.29
802.514	437.24
802.693	390.14
802.873	375.8
803.053	429.05
803.233	383.99
803.413	429.05
803.592	381.95
803.772	285.69
803.952	269.31
804.131	392.19
804.311	330.75
804.491	332.79
804.67	351.23
804.85	357.37
805.03	377.85
805.209	429.05
805.389	433.15
805.568	281.6
805.748	381.95
805.928	367.61
806.107	345.08
806.287	357.37
806.466	343.03
806.646	427
806.825	279.55
807.004	302.08
807.184	379.9
807.363	259.07
807.543	287.74
807.722	297.98
807.901	345.08
808.081	400.38
808.26	257.02
808.439	310.27
808.619	289.79
808.798	324.6
808.977	351.23
809.156	369.66
809.336	283.64
809.515	293.88
809.694	295.93
809.873	244.73
810.052	310.27
810.231	338.94
810.411	261.12
810.59	328.7
810.769	275.45
810.948	222.2
811.127	220.16
811.306	197.63
811.485	306.17
811.664	347.13
811.843	277.5
812.022	297.98
812.201	328.7
812.38	287.74
812.559	279.55
812.737	306.17
812.916	285.69
813.095	283.64
813.274	226.3
813.453	295.93
813.632	222.2
813.811	308.22
813.989	250.88
814.168	271.36
814.347	244.73
814.526	228.35
814.704	351.23
814.883	250.88
815.062	224.25
815.24	287.74
815.419	242.68
815.598	310.27
815.776	199.68
815.955	226.3
816.133	173.05
816.312	232.44
816.49	203.77
816.669	289.79
816.847	214.01
817.026	207.87
817.204	246.78
817.383	267.26
817.561	181.25
817.74	207.87
817.918	226.3
818.097	164.86
818.275	275.45
818.453	193.53
818.632	205.82
818.81	242.68
818.988	166.91
819.167	252.92
819.345	220.16
819.523	175.1
819.701	211.96
819.879	222.2
820.058	214.01
820.236	173.05
820.414	220.16
820.592	228.35
820.77	150.53
820.948	224.25
821.127	230.4
821.305	230.4
821.483	209.92
821.661	191.49
821.839	187.39
822.017	138.24
822.195	222.2
822.373	226.3
822.551	187.39
822.729	232.44
822.907	238.59
823.085	146.43
823.262	244.73
823.44	164.86
823.618	207.87
823.796	175.1
823.974	205.82
824.152	207.87
824.329	203.77
824.507	277.5
824.685	150.53
824.863	195.58
825.04	199.68
825.218	183.29
825.396	201.72
825.574	158.72
825.751	195.58
825.929	226.3
826.107	105.47
826.284	179.2
826.462	195.58
826.639	166.91
826.817	166.91
826.994	197.63
827.172	89.09
827.349	160.77
827.527	154.62
827.704	181.25
827.882	203.77
828.059	142.33
828.237	185.34
828.414	209.92
828.591	144.38
828.769	136.19
828.946	121.85
829.124	181.25
829.301	175.1
829.478	128
829.655	177.15
829.833	166.91
830.01	150.53
830.187	142.33
830.364	33.79
830.542	128
830.719	189.44
830.896	203.77
831.073	84.99
831.25	207.87
831.427	158.72
831.604	136.19
831.782	111.61
831.959	140.29
832.136	105.47
832.313	115.71
832.49	119.81
832.667	173.05
832.844	134.14
833.021	211.96
833.198	97.28
833.374	99.33
833.551	150.53
833.728	111.61
833.905	211.96
834.082	121.85
834.259	154.62
834.436	220.16
834.612	56.32
834.789	177.15
834.966	130.05
835.143	117.76
835.319	105.47
835.496	142.33
835.673	130.05
835.85	89.09
836.026	142.33
836.203	128
836.38	140.29
836.556	179.2
836.733	171.01
836.909	234.49
837.086	119.81
837.262	44.03
837.439	97.28
837.616	136.19
837.792	148.48
837.968	152.57
838.145	136.19
838.321	144.38
838.498	109.57
838.674	185.34
838.851	99.33
839.027	138.24
839.203	144.38
839.38	87.04
839.556	123.9
839.732	207.87
839.909	185.34
840.085	109.57
840.261	93.18
840.437	130.05
840.614	46.08
840.79	142.33
840.966	89.09
841.142	113.66
841.318	41.98
841.494	123.9
841.671	191.49
841.847	50.18
842.023	99.33
842.199	62.46
842.375	121.85
842.551	115.71
842.727	50.18
842.903	125.95
843.079	103.42
843.255	158.72
843.431	109.57
843.607	138.24
843.783	74.75
843.959	97.28
844.134	72.7
844.31	125.95
844.486	107.52
844.662	89.09
844.838	107.52
845.013	130.05
845.189	78.85
845.365	111.61
845.541	89.09
845.716	138.24
845.892	109.57
846.068	37.89
846.244	13.31
846.419	154.62
846.595	128
846.77	76.8
846.946	107.52
847.122	5.12
847.297	95.23
847.473	162.81
847.648	50.18
847.824	27.65
847.999	93.18
848.175	19.46
848.35	154.62
848.526	119.81
848.701	111.61
848.876	64.51
849.052	80.89
849.227	93.18
849.403	89.09
849.578	121.85
849.753	107.52
849.929	154.62
850.104	121.85
850.279	171.01
850.454	13.31
850.63	123.9
850.805	82.94
850.98	56.32
851.155	91.13
851.33	113.66
851.505	37.89
851.681	113.66
851.856	95.23
852.031	68.61
852.206	132.09
852.381	31.74
852.556	66.56
852.731	11.26
852.906	107.52
853.081	105.47
853.256	113.66
853.431	125.95
853.606	89.09
853.781	111.61
853.956	70.65
854.131	7.17
854.305	27.65
854.48	70.65
854.655	29.7
854.83	80.89
855.005	82.94
855.18	70.65
855.354	33.79
855.529	113.66
855.704	-17.41
855.879	37.89
856.053	54.27
856.228	82.94
856.403	50.18
856.577	64.51
856.752	-7.17
856.926	74.75
857.101	111.61
857.276	66.56
857.45	39.94
857.625	142.33
857.799	101.37
857.974	82.94
858.148	-46.08
858.323	105.47
858.497	89.09
858.672	93.18
858.846	31.74
859.02	84.99
859.195	-9.22
859.369	76.8
859.543	121.85
859.718	76.8
859.892	56.32
860.066	68.61
860.241	-50.18
860.415	37.89
860.589	117.76
860.763	5.12
860.938	17.41
861.112	60.42
861.286	-7.17
861.46	84.99
861.634	7.17
861.808	80.89
861.982	31.74
862.157	39.94
862.331	25.6
862.505	-5.12
862.679	-5.12
862.853	74.75
863.027	82.94
863.201	130.05
863.375	-41.98
863.549	84.99
863.722	9.22
863.896	62.46
864.07	35.84
864.244	41.98
864.418	70.65
864.592	91.13
864.766	66.56
864.939	117.76
865.113	11.26
865.287	109.57
865.461	33.79
865.634	33.79
865.808	7.17
865.982	39.94
866.156	41.98
866.329	3.07
866.503	74.75
866.676	87.04
866.85	37.89
867.024	31.74
867.197	68.61
867.371	95.23
867.544	62.46
867.718	41.98
867.891	93.18
868.065	-15.36
868.238	62.46
868.412	130.05
868.585	11.26
868.759	-19.46
868.932	25.6
869.105	29.7
869.279	44.03
869.452	9.22
869.625	58.37
869.799	41.98
869.972	54.27
870.145	46.08
870.319	72.7
870.492	25.6
870.665	9.22
870.838	68.61
871.011	1.02
871.185	11.26
871.358	-1.02
871.531	56.32
871.704	46.08
871.877	46.08
872.05	11.26
872.223	-1.02
872.396	72.7
872.569	29.7
872.742	-19.46
872.915	87.04
873.088	35.84
873.261	-13.31
873.434	-5.12
873.607	48.13
873.78	56.32
873.953	25.6
874.126	72.7
874.299	91.13
874.471	41.98
874.644	15.36
874.817	66.56
874.99	125.95
875.163	-1.02
875.335	-11.26
875.508	11.26
875.681	31.74
875.853	1.02
876.026	58.37
876.199	-15.36
876.371	84.99
876.544	95.23
876.717	11.26
876.889	84.99
877.062	50.18
877.234	-37.89
877.407	33.79
877.579	9.22
877.752	66.56
877.924	84.99
878.097	50.18
878.269	11.26
878.442	128
878.614	64.51
878.786	46.08
878.959	27.65
879.131	-17.41
879.303	9.22
879.476	44.03
879.648	134.14
879.82	91.13
879.993	29.7
880.165	31.74
880.337	-25.6
880.509	62.46
880.681	-3.07
880.854	95.23
881.026	11.26
881.198	54.27
881.37	21.5
881.542	48.13
881.714	41.98
881.886	91.13
882.058	54.27
882.23	62.46
882.402	44.03
882.574	41.98
882.746	35.84
882.918	60.42
883.09	123.9
883.262	-19.46
883.434	25.6
883.606	17.41
883.778	-27.65
883.95	58.37
884.122	41.98
884.293	1.02
884.465	21.5
884.637	-7.17
884.809	48.13
884.98	68.61
885.152	48.13
885.324	41.98
885.496	-136.19
885.667	-44.03
885.839	9.22
886.011	48.13
886.182	15.36
886.354	117.76
886.525	15.36
886.697	31.74
886.869	-7.17
887.04	17.41
887.212	52.22
887.383	7.17
887.555	-41.98
887.726	62.46
887.897	17.41
888.069	60.42
888.24	-5.12
888.412	66.56
888.583	93.18
888.754	44.03
888.926	27.65
889.097	46.08
889.268	-25.6
889.44	70.65
889.611	21.5
889.782	-23.55
889.953	13.31
890.125	44.03
890.296	9.22
890.467	37.89
890.638	11.26
890.809	41.98
890.98	5.12
891.151	33.79
891.323	-1.02
891.494	44.03
891.665	-7.17
891.836	23.55
892.007	-11.26
892.178	93.18
892.349	15.36
892.52	7.17
892.691	82.94
892.862	46.08
893.032	13.31
893.203	23.55
893.374	39.94
893.545	19.46
893.716	13.31
893.887	46.08
894.057	54.27
894.228	13.31
894.399	95.23
894.57	72.7
894.74	-3.07
894.911	29.7
895.082	27.65
895.253	39.94
895.423	27.65
895.594	35.84
895.764	11.26
895.935	52.22
896.106	11.26
896.276	-29.7
896.447	87.04
896.617	19.46
896.788	5.12
896.958	44.03
897.129	-29.7
897.299	-60.42
897.47	1.02
897.64	33.79
897.81	15.36
897.981	-11.26
898.151	-15.36
898.322	-17.41
898.492	-27.65
898.662	15.36
898.832	-29.7
899.003	-27.65
899.173	74.75
899.343	-44.03
899.513	-50.18
