Data from USB4F104151__18__12-41-03-836.txt Node

Date: Fri Mar 14 12:41:03 EDT 2025
User: louis
Spectrometer: USB4F10415
Trigger mode: 4
Integration Time (sec): 3.000000E-2
Scans to average: 1
Electric dark correction enabled: true
Nonlinearity correction enabled: false
Boxcar width: 0
XAxis mode: Wavelengths
Number of Pixels in Spectrum: 3648
>>>>>Begin Spectral Data<<<<<
178.204	-210.77
178.424	-210.77
178.644	-210.77
178.864	-124.76
179.084	-157.52
179.304	-5.97
179.524	26.79
179.744	-16.21
179.964	67.75
180.184	8.36
180.404	-1.88
180.624	-10.07
180.844	8.36
181.064	-34.64
181.283	37.03
181.503	-30.55
181.723	-48.98
181.943	-96.08
182.163	18.6
182.383	51.37
182.602	47.27
182.822	14.51
183.042	-42.84
183.262	-38.74
183.482	2.22
183.701	-53.08
183.921	-22.36
184.141	-12.12
184.361	34.99
184.58	18.6
184.8	22.7
185.02	-53.08
185.239	92.33
185.459	53.42
185.679	4.27
185.898	-8.02
186.118	-8.02
186.338	41.13
186.557	41.13
186.777	0.17
186.997	-28.5
187.216	-12.12
187.436	131.24
187.655	-16.21
187.875	49.32
188.095	10.41
188.314	28.84
188.534	51.37
188.753	-24.4
188.973	20.65
189.192	73.9
189.412	-12.12
189.631	32.94
189.851	30.89
190.07	151.72
190.29	-30.55
190.509	45.23
190.729	24.75
190.948	71.85
191.168	34.99
191.387	-42.84
191.607	-30.55
191.826	45.23
192.045	-44.88
192.265	-8.02
192.484	10.41
192.704	-3.93
192.923	-36.69
193.142	77.99
193.362	-26.45
193.581	-14.17
193.8	22.7
194.02	73.9
194.239	8.36
194.458	-38.74
194.678	45.23
194.897	28.84
195.116	2.22
195.335	-3.93
195.555	-57.17
195.774	14.51
195.993	-10.07
196.212	-5.97
196.432	-10.07
196.651	8.36
196.87	-63.32
197.089	73.9
197.308	-18.26
197.528	2.22
197.747	-20.31
197.966	4.27
198.185	98.47
198.404	61.61
198.623	51.37
198.842	51.37
199.062	71.85
199.281	51.37
199.5	-44.88
199.719	53.42
199.938	61.61
200.157	12.46
200.376	53.42
200.595	96.43
200.814	75.95
201.033	-12.12
201.252	26.79
201.471	71.85
201.69	34.99
201.909	6.31
202.128	14.51
202.347	-3.93
202.566	24.75
202.785	-48.98
203.004	47.27
203.223	121
203.442	26.79
203.661	-53.08
203.879	-16.21
204.098	26.79
204.317	18.6
204.536	41.13
204.755	88.23
204.974	14.51
205.193	26.79
205.411	145.58
205.63	-85.84
205.849	55.47
206.068	-10.07
206.287	4.27
206.505	47.27
206.724	84.14
206.943	-1.88
207.162	24.75
207.381	-40.79
207.599	45.23
207.818	8.36
208.037	-5.97
208.255	18.6
208.474	14.51
208.693	55.47
208.911	-30.55
209.13	80.04
209.349	4.27
209.567	121
209.786	92.33
210.005	96.43
210.223	-24.4
210.442	-36.69
210.661	-53.08
210.879	-18.26
211.098	63.66
211.316	-48.98
211.535	-1.88
211.753	16.55
211.972	-14.17
212.191	-44.88
212.409	53.42
212.628	10.41
212.846	0.17
213.065	24.75
213.283	108.71
213.502	14.51
213.72	24.75
213.938	28.84
214.157	96.43
214.375	8.36
214.594	-22.36
214.812	80.04
215.031	34.99
215.249	-26.45
215.467	-32.6
215.686	-20.31
215.904	57.51
216.122	-79.7
216.341	80.04
216.559	2.22
216.778	71.85
216.996	24.75
217.214	-8.02
217.432	-10.07
217.651	-14.17
217.869	6.31
218.087	82.09
218.306	-16.21
218.524	-20.31
218.742	28.84
218.96	-26.45
219.179	24.75
219.397	-5.97
219.615	141.48
219.833	8.36
220.051	-22.36
220.27	30.89
220.488	51.37
220.706	-5.97
220.924	12.46
221.142	-63.32
221.36	49.32
221.578	-53.08
221.796	-14.17
222.015	41.13
222.233	30.89
222.451	18.6
222.669	-91.99
222.887	45.23
223.105	-51.03
223.323	4.27
223.541	-18.26
223.759	61.61
223.977	10.41
224.195	-16.21
224.413	-44.88
224.631	59.56
224.849	63.66
225.067	71.85
225.285	0.17
225.503	14.51
225.721	-1.88
225.939	14.51
226.157	32.94
226.375	84.14
226.592	6.31
226.81	96.43
227.028	92.33
227.246	67.75
227.464	12.46
227.682	84.14
227.9	4.27
228.117	41.13
228.335	-22.36
228.553	-10.07
228.771	18.6
228.989	-14.17
229.206	-3.93
229.424	-14.17
229.642	16.55
229.86	12.46
230.077	75.95
230.295	-1.88
230.513	-24.4
230.731	6.31
230.948	32.94
231.166	6.31
231.384	-36.69
231.601	-1.88
231.819	63.66
232.037	32.94
232.254	-16.21
232.472	-1.88
232.689	-67.41
232.907	20.65
233.125	28.84
233.342	-8.02
233.56	-5.97
233.777	71.85
233.995	-22.36
234.213	45.23
234.43	28.84
234.648	2.22
234.865	-12.12
235.083	-5.97
235.3	-38.74
235.518	43.18
235.735	32.94
235.953	55.47
236.17	-14.17
236.388	12.46
236.605	-14.17
236.822	94.38
237.04	-40.79
237.257	32.94
237.475	-8.02
237.692	59.56
237.909	-44.88
238.127	-5.97
238.344	12.46
238.562	45.23
238.779	-61.27
238.996	-16.21
239.214	-10.07
239.431	24.75
239.648	-32.6
239.865	49.32
240.083	16.55
240.3	12.46
240.517	18.6
240.735	39.08
240.952	-42.84
241.169	22.7
241.386	-5.97
241.603	4.27
241.821	-79.7
242.038	28.84
242.255	34.99
242.472	-26.45
242.689	-34.64
242.907	80.04
243.124	24.75
243.341	-14.17
243.558	-30.55
243.775	-48.98
243.992	-85.84
244.209	-12.12
244.426	118.95
244.643	-81.75
244.86	37.03
245.078	-22.36
245.295	-18.26
245.512	-81.75
245.729	-16.21
245.946	55.47
246.163	26.79
246.38	-81.75
246.597	-1.88
246.814	65.71
247.031	-32.6
247.248	4.27
247.464	-28.5
247.681	-14.17
247.898	32.94
248.115	49.32
248.332	-22.36
248.549	8.36
248.766	71.85
248.983	49.32
249.2	55.47
249.417	0.17
249.633	-26.45
249.85	82.09
250.067	41.13
250.284	-18.26
250.501	-18.26
250.717	-5.97
250.934	-40.79
251.151	8.36
251.368	-30.55
251.585	-16.21
251.801	-3.93
252.018	14.51
252.235	39.08
252.451	-46.93
252.668	-5.97
252.885	65.71
253.102	41.13
253.318	55.47
253.535	0.17
253.752	-18.26
253.968	2.22
254.185	10.41
254.401	63.66
254.618	12.46
254.835	51.37
255.051	-5.97
255.268	16.55
255.484	63.66
255.701	12.46
255.917	14.51
256.134	30.89
256.351	10.41
256.567	-65.36
256.784	-32.6
257	2.22
257.217	-20.31
257.433	-34.64
257.65	20.65
257.866	37.03
258.082	4.27
258.299	-22.36
258.515	32.94
258.732	-91.99
258.948	-65.36
259.165	30.89
259.381	16.55
259.597	37.03
259.814	-12.12
260.03	16.55
260.246	-8.02
260.463	45.23
260.679	71.85
260.895	-32.6
261.112	86.19
261.328	30.89
261.544	10.41
261.761	51.37
261.977	8.36
262.193	-46.93
262.409	39.08
262.626	41.13
262.842	14.51
263.058	-14.17
263.274	16.55
263.49	30.89
263.707	102.57
263.923	28.84
264.139	-14.17
264.355	-73.56
264.571	104.62
264.787	2.22
265.004	69.8
265.22	4.27
265.436	-5.97
265.652	22.7
265.868	80.04
266.084	-18.26
266.3	51.37
266.516	12.46
266.732	-38.74
266.948	-16.21
267.164	-10.07
267.38	57.51
267.596	34.99
267.812	102.57
268.028	30.89
268.244	-36.69
268.46	-22.36
268.676	16.55
268.892	-5.97
269.108	-34.64
269.324	73.9
269.54	-51.03
269.756	-10.07
269.972	32.94
270.188	41.13
270.403	-14.17
270.619	-32.6
270.835	-10.07
271.051	-30.55
271.267	-18.26
271.483	-14.17
271.698	37.03
271.914	-22.36
272.13	45.23
272.346	20.65
272.562	55.47
272.777	-53.08
272.993	-65.36
273.209	8.36
273.425	6.31
273.64	-12.12
273.856	80.04
274.072	10.41
274.287	30.89
274.503	-14.17
274.719	63.66
274.934	14.51
275.15	26.79
275.366	-30.55
275.581	4.27
275.797	34.99
276.012	67.75
276.228	34.99
276.444	-14.17
276.659	18.6
276.875	-30.55
277.09	-3.93
277.306	10.41
277.521	-1.88
277.737	28.84
277.952	65.71
278.168	16.55
278.383	-10.07
278.599	82.09
278.814	0.17
279.03	0.17
279.245	98.47
279.461	-5.97
279.676	2.22
279.892	-12.12
280.107	22.7
280.322	-48.98
280.538	12.46
280.753	26.79
280.969	47.27
281.184	-14.17
281.399	65.71
281.615	37.03
281.83	84.14
282.045	-28.5
282.26	-36.69
282.476	53.42
282.691	32.94
282.906	0.17
283.122	67.75
283.337	-42.84
283.552	41.13
283.767	-77.65
283.983	92.33
284.198	2.22
284.413	14.51
284.628	-1.88
284.843	30.89
285.058	-8.02
285.274	12.46
285.489	-14.17
285.704	28.84
285.919	6.31
286.134	-14.17
286.349	-38.74
286.564	-53.08
286.779	73.9
286.995	45.23
287.21	-1.88
287.425	88.23
287.64	-26.45
287.855	-3.93
288.07	18.6
288.285	67.75
288.5	14.51
288.715	98.47
288.93	45.23
289.145	55.47
289.36	-20.31
289.575	65.71
289.79	37.03
290.004	32.94
290.219	57.51
290.434	43.18
290.649	-106.32
290.864	-8.02
291.079	32.94
291.294	-94.04
291.509	30.89
291.724	69.8
291.938	28.84
292.153	22.7
292.368	14.51
292.583	-1.88
292.798	-8.02
293.012	53.42
293.227	28.84
293.442	-34.64
293.657	-3.93
293.871	-8.02
294.086	-46.93
294.301	92.33
294.516	34.99
294.73	24.75
294.945	16.55
295.16	-51.03
295.374	22.7
295.589	26.79
295.804	-8.02
296.018	53.42
296.233	22.7
296.447	-44.88
296.662	-10.07
296.877	55.47
297.091	8.36
297.306	20.65
297.52	6.31
297.735	26.79
297.949	51.37
298.164	49.32
298.378	-46.93
298.593	-34.64
298.807	-10.07
299.022	63.66
299.236	39.08
299.451	110.76
299.665	49.32
299.88	61.61
300.094	-30.55
300.309	-34.64
300.523	-24.4
300.737	2.22
300.952	0.17
301.166	41.13
301.381	-73.56
301.595	2.22
301.809	57.51
302.024	41.13
302.238	12.46
302.452	63.66
302.667	-40.79
302.881	47.27
303.095	71.85
303.309	-20.31
303.524	-42.84
303.738	10.41
303.952	18.6
304.166	39.08
304.381	0.17
304.595	137.38
304.809	-16.21
305.023	94.38
305.237	-22.36
305.452	47.27
305.666	55.47
305.88	22.7
306.094	65.71
306.308	-1.88
306.522	51.37
306.736	-38.74
306.95	-14.17
307.164	4.27
307.379	-32.6
307.593	43.18
307.807	71.85
308.021	16.55
308.235	18.6
308.449	43.18
308.663	55.47
308.877	45.23
309.091	-10.07
309.305	80.04
309.519	-22.36
309.733	80.04
309.947	45.23
310.161	16.55
310.374	18.6
310.588	39.08
310.802	6.31
311.016	-83.8
311.23	22.7
311.444	-38.74
311.658	22.7
311.872	24.75
312.085	4.27
312.299	26.79
312.513	45.23
312.727	39.08
312.941	-30.55
313.154	-5.97
313.368	-51.03
313.582	67.75
313.796	53.42
314.009	32.94
314.223	12.46
314.437	8.36
314.651	49.32
314.864	-40.79
315.078	26.79
315.292	-32.6
315.505	63.66
315.719	14.51
315.933	24.75
316.146	-40.79
316.36	-24.4
316.573	55.47
316.787	73.9
317.001	-55.12
317.214	4.27
317.428	57.51
317.641	16.55
317.855	-12.12
318.068	55.47
318.282	37.03
318.495	71.85
318.709	18.6
318.922	-30.55
319.136	-3.93
319.349	8.36
319.563	-30.55
319.776	63.66
319.99	20.65
320.203	28.84
320.417	67.75
320.63	39.08
320.843	12.46
321.057	10.41
321.27	-10.07
321.483	-57.17
321.697	-18.26
321.91	-10.07
322.124	96.43
322.337	16.55
322.55	-14.17
322.763	-28.5
322.977	18.6
323.19	-59.22
323.403	61.61
323.617	14.51
323.83	41.13
324.043	34.99
324.256	2.22
324.469	-22.36
324.683	30.89
324.896	65.71
325.109	-55.12
325.322	2.22
325.535	53.42
325.748	53.42
325.962	18.6
326.175	16.55
326.388	-16.21
326.601	65.71
326.814	-71.51
327.027	4.27
327.24	63.66
327.453	-34.64
327.666	77.99
327.879	65.71
328.092	67.75
328.305	39.08
328.518	8.36
328.731	90.28
328.944	16.55
329.157	73.9
329.37	24.75
329.583	67.75
329.796	14.51
330.009	-40.79
330.222	49.32
330.435	18.6
330.648	32.94
330.861	-20.31
331.073	55.47
331.286	86.19
331.499	-12.12
331.712	-40.79
331.925	63.66
332.138	90.28
332.35	-12.12
332.563	-36.69
332.776	49.32
332.989	6.31
333.202	51.37
333.414	20.65
333.627	-59.22
333.84	6.31
334.053	84.14
334.265	0.17
334.478	-12.12
334.691	34.99
334.903	53.42
335.116	34.99
335.329	71.85
335.541	57.51
335.754	53.42
335.966	2.22
336.179	2.22
336.392	-20.31
336.604	51.37
336.817	4.27
337.029	65.71
337.242	4.27
337.454	26.79
337.667	34.99
337.88	53.42
338.092	-10.07
338.305	26.79
338.517	49.32
338.729	26.79
338.942	67.75
339.154	22.7
339.367	69.8
339.579	-1.88
339.792	4.27
340.004	10.41
340.217	26.79
340.429	49.32
340.641	98.47
340.854	-42.84
341.066	-38.74
341.278	30.89
341.491	41.13
341.703	47.27
341.915	32.94
342.128	69.8
342.34	16.55
342.552	-48.98
342.764	71.85
342.977	-5.97
343.189	8.36
343.401	61.61
343.613	-10.07
343.826	45.23
344.038	0.17
344.25	8.36
344.462	-57.17
344.674	18.6
344.886	-53.08
345.099	65.71
345.311	71.85
345.523	-28.5
345.735	-8.02
345.947	-22.36
346.159	24.75
346.371	34.99
346.583	28.84
346.795	20.65
347.007	20.65
347.219	-30.55
347.431	18.6
347.643	71.85
347.855	-59.22
348.067	53.42
348.279	0.17
348.491	86.19
348.703	-32.6
348.915	43.18
349.127	4.27
349.339	-22.36
349.551	37.03
349.763	94.38
349.975	49.32
350.187	104.62
350.399	67.75
350.61	59.56
350.822	96.43
351.034	63.66
351.246	28.84
351.458	88.23
351.669	-26.45
351.881	26.79
352.093	41.13
352.305	73.9
352.517	22.7
352.728	118.95
352.94	-20.31
353.152	82.09
353.363	32.94
353.575	53.42
353.787	63.66
353.999	110.76
354.21	80.04
354.422	-1.88
354.633	-3.93
354.845	16.55
355.057	8.36
355.268	-1.88
355.48	28.84
355.692	-20.31
355.903	59.56
356.115	18.6
356.326	34.99
356.538	-42.84
356.749	49.32
356.961	51.37
357.172	-14.17
357.384	8.36
357.595	53.42
357.807	53.42
358.018	77.99
358.23	0.17
358.441	127.14
358.653	45.23
358.864	26.79
359.075	-3.93
359.287	-28.5
359.498	22.7
359.709	-34.64
359.921	69.8
360.132	-14.17
360.344	6.31
360.555	-28.5
360.766	16.55
360.977	20.65
361.189	12.46
361.4	65.71
361.611	30.89
361.823	106.67
362.034	-26.45
362.245	57.51
362.456	24.75
362.667	12.46
362.879	-26.45
363.09	28.84
363.301	-8.02
363.512	22.7
363.723	-63.32
363.935	51.37
364.146	2.22
364.357	45.23
364.568	16.55
364.779	-26.45
364.99	61.61
365.201	2.22
365.412	43.18
365.623	10.41
365.834	20.65
366.045	-20.31
366.256	34.99
366.467	63.66
366.678	53.42
366.889	18.6
367.1	37.03
367.311	71.85
367.522	12.46
367.733	24.75
367.944	61.61
368.155	39.08
368.366	104.62
368.577	10.41
368.788	-48.98
368.999	65.71
369.209	82.09
369.42	86.19
369.631	82.09
369.842	32.94
370.053	-124.76
370.264	12.46
370.474	75.95
370.685	59.56
370.896	-34.64
371.107	24.75
371.317	43.18
371.528	57.51
371.739	77.99
371.95	16.55
372.16	14.51
372.371	30.89
372.582	57.51
372.792	51.37
373.003	-3.93
373.214	49.32
373.424	80.04
373.635	-63.32
373.846	84.14
374.056	-8.02
374.267	0.17
374.477	28.84
374.688	22.7
374.898	80.04
375.109	-36.69
375.319	16.55
375.53	133.29
375.74	49.32
375.951	30.89
376.161	6.31
376.372	147.62
376.582	-5.97
376.793	82.09
377.003	47.27
377.214	-42.84
377.424	39.08
377.635	18.6
377.845	10.41
378.055	32.94
378.266	-67.41
378.476	28.84
378.686	28.84
378.897	63.66
379.107	53.42
379.317	57.51
379.528	12.46
379.738	57.51
379.948	-104.28
380.158	24.75
380.369	18.6
380.579	16.55
380.789	24.75
380.999	8.36
381.21	-83.8
381.42	137.38
381.63	30.89
381.84	59.56
382.05	10.41
382.261	108.71
382.471	82.09
382.681	18.6
382.891	71.85
383.101	24.75
383.311	88.23
383.521	63.66
383.731	98.47
383.941	10.41
384.151	63.66
384.361	34.99
384.571	6.31
384.781	75.95
384.991	135.34
385.201	37.03
385.411	-24.4
385.621	61.61
385.831	43.18
386.041	49.32
386.251	-51.03
386.461	26.79
386.671	37.03
386.881	57.51
387.091	-8.02
387.301	65.71
387.511	63.66
387.72	55.47
387.93	86.19
388.14	59.56
388.35	-3.93
388.56	96.43
388.769	20.65
388.979	53.42
389.189	-79.7
389.399	-3.93
389.609	100.52
389.818	55.47
390.028	41.13
390.238	63.66
390.447	2.22
390.657	-14.17
390.867	24.75
391.076	63.66
391.286	-3.93
391.496	32.94
391.705	24.75
391.915	131.24
392.125	61.61
392.334	45.23
392.544	51.37
392.753	16.55
392.963	28.84
393.172	24.75
393.382	-14.17
393.591	127.14
393.801	73.9
394.01	41.13
394.22	94.38
394.429	82.09
394.639	28.84
394.848	94.38
395.058	-22.36
395.267	75.95
395.477	80.04
395.686	90.28
395.895	41.13
396.105	104.62
396.314	0.17
396.524	53.42
396.733	6.31
396.942	41.13
397.152	61.61
397.361	147.62
397.57	108.71
397.78	143.53
397.989	14.51
398.198	106.67
398.407	61.61
398.617	-10.07
398.826	47.27
399.035	82.09
399.244	39.08
399.453	53.42
399.663	96.43
399.872	104.62
400.081	14.51
400.29	67.75
400.499	59.56
400.708	135.34
400.917	106.67
401.127	90.28
401.336	80.04
401.545	147.62
401.754	184.49
401.963	108.71
402.172	94.38
402.381	155.82
402.59	39.08
402.799	32.94
403.008	34.99
403.217	110.76
403.426	106.67
403.635	106.67
403.844	98.47
404.053	186.54
404.262	49.32
404.471	145.58
404.68	174.25
404.888	178.34
405.097	100.52
405.306	168.1
405.515	200.87
405.724	82.09
405.933	186.54
406.142	153.77
406.35	213.16
406.559	139.43
406.768	133.29
406.977	276.65
407.185	69.8
407.394	153.77
407.603	69.8
407.812	243.88
408.02	159.91
408.229	157.86
408.438	215.21
408.646	151.72
408.855	188.58
409.064	188.58
409.272	192.68
409.481	219.3
409.69	321.7
409.898	233.64
410.107	266.41
410.315	270.5
410.524	252.07
410.733	293.03
410.941	348.33
411.15	352.42
411.358	397.48
411.567	391.33
411.775	340.13
411.984	305.32
412.192	354.47
412.401	362.66
412.609	444.58
412.818	469.16
413.026	403.62
413.234	428.2
413.443	401.57
413.651	477.35
413.86	538.79
414.068	549.03
414.276	594.08
414.485	536.74
414.693	616.61
414.901	587.94
415.11	567.46
415.318	655.52
415.526	682.14
415.734	659.62
415.943	628.9
416.151	727.2
416.359	661.66
416.567	800.93
416.776	807.07
416.984	825.5
417.192	938.14
417.4	852.13
417.608	870.56
417.817	927.9
418.025	1063.07
418.233	1140.89
418.441	1020.06
418.649	1075.35
418.857	1298.58
419.065	1144.99
419.273	1267.86
419.481	1294.49
419.689	1235.1
419.897	1376.41
420.105	1323.16
420.313	1501.33
420.521	1519.76
420.729	1466.52
420.937	1566.87
421.145	1642.64
421.353	1689.74
421.561	1740.94
421.769	1777.81
421.977	1853.58
422.185	1857.68
422.393	1964.17
422.601	2062.48
422.809	2003.08
423.017	2019.47
423.224	2101.39
423.432	2195.59
423.64	2295.94
423.848	2406.53
424.056	2297.99
424.263	2666.63
424.471	2654.34
424.679	2701.44
424.887	2734.21
425.094	2887.81
425.302	2967.68
425.51	3076.22
425.718	3037.31
425.925	3092.6
426.133	3272.82
426.341	3487.86
426.548	3688.56
426.756	3594.36
426.964	3686.51
427.171	3825.78
427.379	3987.57
427.586	4030.57
427.794	4229.23
428.001	4370.54
428.209	4524.13
428.417	4438.12
428.624	4704.35
428.832	4872.29
429.039	4761.7
429.247	4771.94
429.454	5116
429.662	5476.44
429.869	5218.4
430.076	5593.17
430.284	5492.82
430.491	5718.1
430.699	5933.14
430.906	5922.9
431.114	6064.21
431.321	6207.56
431.528	6332.49
431.736	6713.41
431.943	7366.71
432.15	6955.07
432.358	6977.6
432.565	7407.67
432.772	7399.48
432.979	7733.3
433.187	7833.65
433.394	7895.09
433.601	8458.28
433.808	8458.28
434.016	8609.83
434.223	8783.91
434.43	9267.23
434.637	9041.95
434.844	9654.3
435.052	9867.28
435.259	9779.22
435.466	9805.85
435.673	9676.82
435.88	10326.03
436.087	11059.2
436.294	11120.64
436.501	10815.49
436.708	10942.47
436.915	11388.92
437.122	12060.66
437.329	11675.64
437.537	12109.81
437.743	12451.82
437.95	12503.02
438.157	12845.03
438.364	13479.9
438.571	13264.86
438.778	13582.3
438.985	14604.24
439.192	14041.04
439.399	14497.74
439.606	14202.83
439.813	14903.24
440.02	15902.65
440.227	15640.51
440.433	15468.48
440.64	16013.24
440.847	16195.51
441.054	16267.19
441.261	17323.94
441.467	17160.1
441.674	17469.34
441.881	18130.84
442.088	18194.33
442.294	17821.59
442.501	18382.74
442.708	18818.96
442.914	19347.33
443.121	20164.47
443.328	19900.28
443.534	21276.52
443.741	20692.85
443.948	20365.17
444.154	21798.75
444.361	21972.83
444.568	21884.76
444.774	21794.65
444.981	22021.98
445.187	22976.33
445.394	23926.59
445.6	23342.92
445.807	25761.57
446.013	24493.88
446.22	24960.81
446.426	25960.22
446.633	25898.78
446.839	27164.43
447.046	26150.68
447.252	27612.93
447.459	27606.79
447.665	27330.31
447.871	28573.43
448.078	29996.77
448.284	28425.98
448.491	29511.4
448.697	30322.4
448.903	31246.03
449.11	31090.38
449.316	30355.16
449.522	31293.13
449.728	31909.57
449.935	32020.16
450.141	31966.91
450.347	32974.52
450.553	31885
450.76	32243.39
450.966	33324.72
451.172	32908.98
451.378	33595.05
451.584	33013.43
451.791	34111.14
451.997	33693.35
452.203	34266.78
452.409	34201.25
452.615	34121.38
452.821	33097.39
453.027	32229.05
453.233	34444.96
453.44	32970.42
453.646	33062.58
453.852	33525.42
454.058	33904.29
454.264	32784.05
454.47	33463.98
454.676	32757.43
454.882	33279.66
455.088	30955.22
455.294	31358.67
455.5	31977.15
455.705	31966.91
455.911	30750.42
456.117	30389.98
456.323	29773.54
456.529	28067.58
456.735	29660.9
456.941	29126.38
457.147	28126.97
457.352	27477.77
457.558	27180.81
457.764	27297.55
457.97	26877.71
458.176	26048.29
458.381	25997.09
458.587	25071.4
458.793	24655.67
458.999	23519.04
459.204	25345.83
459.41	24411.96
459.616	23066.44
459.821	22916.94
460.027	22832.97
460.233	22179.67
460.438	21327.72
460.644	21610.34
460.85	20512.63
461.055	19849.08
461.261	19967.87
461.466	18798.48
461.672	17770.4
461.878	19437.44
462.083	18132.89
462.289	17774.49
462.494	17442.72
462.7	17102.76
462.905	16213.94
463.111	17020.84
463.316	16727.98
463.522	16715.69
463.727	16879.53
463.932	16662.44
464.138	16265.14
464.343	16744.36
464.549	15902.65
464.754	16408.5
464.959	16213.94
465.165	16183.22
465.37	15546.3
465.575	15214.53
465.781	15843.26
465.986	15763.39
466.191	15171.52
466.397	14909.38
466.602	14262.23
466.807	14897.1
467.012	14739.4
467.218	14776.27
467.423	14804.94
467.628	14909.38
467.833	15394.75
468.038	14868.42
468.244	14391.25
468.449	14989.25
468.654	14360.53
468.859	14516.17
469.064	14456.78
469.269	13723.61
469.474	13813.72
469.679	13864.92
469.885	13498.33
470.09	13877.21
470.295	13680.6
470.5	13305.82
470.705	13389.79
470.91	13164.51
471.115	13031.4
471.32	13527
471.525	13184.99
471.73	12830.69
471.935	12593.13
472.139	12179.44
472.344	12343.28
472.549	12572.65
472.754	12324.85
472.959	11943.92
473.164	11923.44
473.369	11563
473.574	12052.47
473.778	11905.01
473.983	11708.41
474.188	11765.75
474.393	11280.38
474.598	11204.61
474.802	11264
475.007	11249.66
475.212	11094.02
475.417	10672.14
475.621	10745.86
475.826	10598.41
476.031	10395.66
476.235	10291.21
476.44	10731.53
476.645	10231.82
476.849	10125.33
477.054	10207.25
477.259	9945.11
477.463	9830.42
477.668	9758.74
477.872	10123.28
478.077	9828.37
478.282	9400.35
478.486	9465.88
478.691	9310.24
478.895	9408.54
479.1	9373.72
479.304	9285.66
479.509	8781.86
479.713	9048.1
479.918	9011.23
480.122	8605.74
480.326	8974.37
480.531	9000.99
480.735	8869.92
480.94	8917.03
481.144	9123.87
481.348	8591.4
481.553	8788
481.757	8493.1
481.961	8693.8
482.166	8652.84
482.37	8607.78
482.574	8413.23
482.778	8464.43
482.983	8652.84
483.187	8566.82
483.391	8644.65
483.595	8669.22
483.8	8579.11
484.004	8783.91
484.208	8771.62
484.412	8654.89
484.616	8476.71
484.821	8624.17
485.025	8445.99
485.229	8728.61
485.433	8456.23
485.637	8699.94
485.841	8540.2
486.045	8562.73
486.249	8601.64
486.453	8675.37
486.657	8540.2
486.861	8808.48
487.065	8489
487.269	8642.6
487.473	8388.65
487.677	8589.35
487.881	8661.03
488.085	8550.44
488.289	8534.06
488.493	8542.25
488.697	8618.02
488.901	8445.99
489.105	8519.72
489.309	8718.37
489.512	8775.72
489.716	8638.5
489.92	8591.4
490.124	8654.89
490.328	8757.29
490.531	8824.87
490.735	8841.25
490.939	8904.74
491.143	8691.75
491.346	8837.16
491.55	8949.79
491.754	8904.74
491.958	9076.77
492.161	8982.56
492.365	9046.05
492.569	8966.18
492.772	8865.83
492.976	9254.94
493.18	8919.07
493.383	9381.92
493.587	9230.37
493.79	9609.24
493.994	9314.33
494.197	9291.8
494.401	9371.68
494.605	9183.26
494.808	9715.73
495.012	9558.04
495.215	9709.59
495.419	9805.85
495.622	9646.1
495.825	9947.15
496.029	9922.58
496.232	9988.11
496.436	10067.99
496.639	10274.83
496.843	10342.41
497.046	10506.25
497.249	10586.12
497.453	10534.92
497.656	10639.37
497.859	10633.22
498.063	10921.99
498.266	11151.36
498.469	10860.55
498.673	11229.18
498.876	11534.33
499.079	11274.24
499.282	11608.06
499.485	11667.45
499.689	11870.2
499.892	12017.65
500.095	11872.25
500.298	12085.23
500.501	12253.17
500.705	12619.75
500.908	12537.84
501.111	12589.03
501.314	12894.18
501.517	12910.57
501.72	13058.02
501.923	12941.29
502.126	13342.69
502.329	13512.67
502.532	13354.97
502.735	13860.82
502.938	13948.89
503.141	13989.85
503.344	14340.05
503.547	14297.04
503.75	14553.04
503.953	14843.85
504.156	14927.81
504.359	15013.83
504.562	15138.76
504.765	15374.27
504.968	15288.26
505.17	15513.53
505.373	15493.05
505.576	16017.33
505.779	15941.56
505.982	16203.7
506.185	16404.4
506.387	16707.5
506.59	16768.94
506.793	16953.26
506.996	17057.7
507.198	17346.47
507.401	17328.03
507.604	17502.11
507.807	17516.45
508.009	17833.88
508.212	17979.29
508.415	18427.79
508.617	18237.33
508.82	18691.98
509.022	18546.58
509.225	18950.03
509.428	19031.94
509.63	18960.27
509.833	19392.39
510.035	19744.64
510.238	19699.58
510.44	19922.81
510.643	20283.25
510.845	20602.74
511.048	20365.17
511.25	20440.95
511.453	20875.12
511.655	21561.19
511.858	21251.94
512.06	21235.56
512.262	21731.17
512.465	21720.93
512.667	22048.6
512.87	22318.93
513.072	22302.55
513.274	22724.43
513.477	22792.01
513.679	23232.33
513.881	23496.52
514.084	23580.48
514.286	23478.08
514.488	23678.79
514.69	24436.53
514.893	24616.76
515.095	24483.64
515.297	24837.94
515.499	25038.64
515.701	25272.11
515.904	25392.94
516.106	25630.5
516.308	25667.36
516.51	26179.36
516.712	26068.76
516.914	26353.43
517.116	26511.13
517.318	27051.79
517.52	27068.17
517.722	26890
517.925	27492.1
518.127	27834.11
518.329	28061.44
518.531	27825.92
518.733	28460.79
518.935	28505.85
519.136	28432.12
519.338	29179.63
519.54	28980.98
519.742	29150.96
519.944	29705.96
520.146	30035.68
520.348	30146.27
520.55	30310.11
520.752	30422.75
520.954	30961.36
521.155	30400.22
521.357	31020.75
521.559	31350.48
521.761	31510.22
521.963	31499.98
522.164	32118.46
522.366	31882.95
522.568	32059.07
522.77	32140.99
522.971	33003.19
523.173	32755.38
523.375	32855.73
523.576	33136.31
523.778	33191.6
523.98	33390.25
524.181	33402.54
524.383	33636.01
524.584	34002.6
524.786	34283.17
524.988	33943.2
525.189	34729.62
525.391	34684.57
525.592	34469.53
525.794	34895.51
525.995	35260.05
526.197	34997.91
526.398	35030.68
526.6	35350.16
526.801	35434.13
527.003	35466.89
527.204	35753.61
527.406	35944.07
527.607	35935.88
527.808	36171.39
528.01	35643.02
528.211	36368
528.412	36941.43
528.614	36658.81
528.815	36368
529.016	36742.78
529.218	36486.78
529.419	36662.91
529.62	36802.17
529.822	36793.98
530.023	36865.66
530.224	36972.15
530.425	37095.03
530.626	37013.11
530.828	36626.04
531.029	37656.17
531.23	36945.53
531.431	37080.69
531.632	37484.14
531.833	37449.33
532.035	37406.32
532.236	37254.77
532.437	37785.19
532.638	37389.94
532.839	37697.13
533.04	37942.89
533.241	37414.51
533.442	38059.62
533.643	37977.7
533.844	37731.95
534.045	37490.29
534.246	37406.32
534.447	37693.04
534.648	37365.36
534.849	37985.9
535.05	37480.05
535.251	37680.75
535.451	37852.78
535.652	37797.48
535.853	37885.54
536.054	37482.09
536.255	37701.23
536.456	37756.52
536.657	38153.83
536.857	37633.64
537.058	37598.83
537.259	38006.37
537.46	37838.44
537.66	37750.38
537.861	37865.06
538.062	37946.98
538.263	37777
538.463	37301.87
538.664	37949.03
538.865	37758.57
539.065	37797.48
539.266	37600.88
539.466	38094.44
539.667	37412.46
539.868	38022.76
540.068	37727.85
540.269	37740.14
540.469	38076.01
540.67	37586.54
540.87	37602.92
541.071	37432.94
541.271	37502.57
541.472	37717.61
541.672	37328.5
541.873	37166.71
542.073	36753.02
542.274	37600.88
542.474	37385.84
542.675	37498.48
542.875	37617.26
543.075	37707.37
543.276	37430.9
543.476	37543.53
543.676	37557.87
543.877	37756.52
544.077	37551.73
544.277	37283.44
544.478	37176.95
544.678	37635.69
544.878	37572.21
545.078	37521.01
545.279	37248.63
545.479	37607.02
545.679	37326.45
545.879	37432.94
546.079	37269.11
546.28	37332.59
546.48	36966.01
546.68	37484.14
546.88	37318.26
547.08	37402.22
547.28	37006.97
547.48	37088.88
547.68	37453.42
547.88	37183.09
548.081	37666.41
548.281	37301.87
548.481	37076.6
548.681	37733.99
548.881	37244.53
549.081	37244.53
549.28	37240.43
549.48	36943.48
549.68	36873.85
549.88	37854.83
550.08	36867.7
550.28	37006.97
550.48	37121.65
550.68	37539.44
550.88	36851.32
551.08	37158.52
551.279	37320.31
551.479	36904.57
551.679	37262.96
551.879	36998.77
552.079	37103.22
552.278	36986.49
552.478	36927.1
552.678	37125.75
552.878	36914.81
553.077	36896.38
553.277	36490.88
553.477	37283.44
553.676	37097.08
553.876	36929.14
554.076	36658.81
554.275	36773.5
554.475	36845.18
554.674	36748.92
554.874	36984.44
555.074	36456.06
555.273	36750.97
555.473	36673.15
555.672	36458.11
555.872	36632.19
556.071	36736.63
556.271	36558.46
556.47	36431.49
556.67	36220.55
556.869	36101.76
557.068	36441.73
557.268	36230.79
557.467	36542.08
557.667	36492.93
557.866	36421.25
558.065	36175.49
558.265	35901.06
558.464	36062.85
558.663	36339.33
558.863	35761.8
559.062	36351.62
559.261	35839.62
559.461	36232.83
559.66	35630.73
559.859	35788.42
560.058	35669.64
560.258	35671.69
560.457	35370.64
560.656	36101.76
560.855	35442.32
561.054	35813
561.253	35706.51
561.453	35341.97
561.652	35174.03
561.851	35294.86
562.05	35118.74
562.249	35217.04
562.448	35702.41
562.647	34793.11
562.846	35002
563.045	35225.23
563.244	34838.17
563.443	35364.5
563.642	34750.1
563.841	34864.79
564.04	34418.33
564.239	35038.87
564.438	34414.24
564.637	34737.82
564.836	34686.62
565.035	34315.94
565.234	34360.99
565.432	34201.25
565.631	34440.86
565.83	34293.41
566.029	34158.24
566.228	34156.19
566.427	33863.33
566.625	33769.13
566.824	33527.47
567.023	33992.36
567.222	33500.84
567.42	33959.59
567.619	33892.01
567.818	33443.5
568.016	33541.8
568.215	33652.39
568.414	33570.47
568.612	33816.23
568.811	33337.01
569.01	33240.75
569.208	33320.62
569.407	32988.85
569.605	32753.33
569.804	33207.98
570.002	32601.79
570.201	33085.11
570.4	32476.86
570.598	32847.54
570.797	32712.38
570.995	32528.06
571.193	32321.21
571.392	32519.87
571.59	32353.98
571.789	32186.05
571.987	31989.44
572.186	32440
572.384	31749.83
572.582	31958.72
572.781	32257.73
572.979	31760.07
573.177	31925.96
573.376	32034.5
573.574	31243.98
573.772	31510.22
573.971	31545.03
574.169	31366.86
574.367	31366.86
574.565	31446.73
574.763	31170.26
574.962	30969.55
575.16	30549.72
575.358	31135.44
575.556	30562.01
575.754	30910.16
575.952	30486.23
576.151	30678.74
576.349	30836.44
576.547	30471.9
576.745	30611.16
576.943	30424.79
577.141	30426.84
577.339	30148.32
577.537	30303.96
577.735	29961.95
577.933	29877.99
578.131	30115.55
578.329	29646.57
578.527	29646.57
578.725	29705.96
578.923	29916.9
579.121	29617.89
579.319	29591.27
579.516	29560.55
579.714	29572.84
579.912	29101.81
580.11	29394.67
580.308	29243.12
580.506	28923.63
580.704	28616.44
580.901	28796.66
581.099	29142.77
581.297	28722.93
581.495	28540.66
581.692	28989.17
581.89	28569.33
582.088	28681.97
582.285	28692.21
582.483	28528.38
582.681	28323.58
582.878	28663.54
583.076	28057.34
583.274	28407.55
583.471	27789.06
583.669	28215.04
583.866	28196.6
584.064	28454.65
584.262	27619.08
584.459	28247.8
584.657	27326.22
584.854	27604.74
585.052	27152.14
585.249	27504.39
585.447	27385.61
585.644	27232.01
585.841	27389.7
586.039	27338.51
586.236	27225.87
586.434	26832.66
586.631	26705.68
586.828	27014.93
587.026	27045.65
587.223	26846.99
587.42	26834.71
587.618	26527.51
587.815	26427.16
588.012	26591
588.21	26629.91
588.407	26668.82
588.604	26314.52
588.801	25757.47
588.999	26013.47
589.196	26181.4
589.393	26093.34
589.59	26007.33
589.787	25759.52
589.984	25671.46
590.182	25442.09
590.379	25687.84
590.576	25446.18
590.773	25550.63
590.97	25005.87
591.167	25358.12
591.364	25005.87
591.561	25323.3
591.758	24979.25
591.955	25390.89
592.152	25157.42
592.349	25075.5
592.546	24975.15
592.743	24962.86
592.94	24604.47
593.137	24639.28
593.334	24653.62
593.531	24575.8
593.727	24686.39
593.924	24680.24
594.121	23965.5
594.318	24162.11
594.515	24166.2
594.712	24252.22
594.908	24186.68
595.105	24145.72
595.302	23969.6
595.499	24147.77
595.696	24106.81
595.892	23572.29
596.089	24024.89
596.286	23553.86
596.482	23322.44
596.679	23236.42
596.876	23306.06
597.072	23146.31
597.269	23498.56
597.466	23301.96
597.662	22970.19
597.859	22933.32
598.055	22712.14
598.252	22880.08
598.448	22974.28
598.645	22546.26
598.841	22751.06
599.038	22638.42
599.234	22607.7
599.431	22435.67
599.627	22245.21
599.824	22687.57
600.02	22351.7
600.217	22300.5
600.413	22286.17
600.609	22011.74
600.806	21997.4
601.002	21843.81
601.198	21792.61
601.395	21991.26
601.591	21698.4
601.787	21718.88
601.984	21333.86
602.18	21845.85
602.376	21700.45
602.572	21202.79
602.769	21593.95
602.965	21200.74
603.161	21260.13
603.357	20950.89
603.553	21061.48
603.75	20934.51
603.946	20893.55
604.142	20780.91
604.338	20934.51
604.534	20764.53
604.73	20502.39
604.926	20641.65
605.122	20807.53
605.318	20643.7
605.514	20449.14
605.71	20649.84
605.906	20701.04
606.102	20514.67
606.298	20488.05
606.494	20238.2
606.69	20500.34
606.886	20373.36
607.082	19951.48
607.278	20158.33
607.474	19572.61
607.67	20035.45
607.866	19771.26
608.062	19910.52
608.257	19984.25
608.453	19939.19
608.649	20084.6
608.845	19652.48
609.041	19773.31
609.236	19541.89
609.432	19457.92
609.628	19779.45
609.824	19527.55
610.019	19380.1
610.215	19263.36
610.411	19670.91
610.606	19529.6
610.802	19246.98
610.998	19287.94
611.193	19345.28
611.389	19054.47
611.584	19038.09
611.78	18919.31
611.976	19058.57
612.171	19294.08
612.367	19107.72
612.562	18843.53
612.758	18622.35
612.953	19113.86
613.149	19085.19
613.344	18720.65
613.539	19087.24
613.735	18849.68
613.93	18706.32
614.126	18734.99
614.321	18888.59
614.517	18522
614.712	18671.5
614.907	18657.17
615.103	18665.36
615.298	18368.4
615.493	18646.93
615.688	18446.23
615.884	18833.29
616.079	18104.21
616.274	18171.8
616.47	17997.72
616.665	18302.87
616.86	18136.98
617.055	18024.34
617.25	18153.37
617.445	18093.97
617.641	17915.8
617.836	18057.11
618.031	17467.3
618.226	17907.61
618.421	17776.54
618.616	17919.9
618.811	17366.95
619.006	17696.67
619.201	17323.94
619.396	17442.72
619.591	17227.68
619.786	17336.23
619.981	16764.84
620.176	17409.95
620.371	17067.94
620.566	17149.86
620.761	16850.86
620.956	17031.08
621.151	16971.69
621.346	16818.09
621.541	16687.02
621.735	16822.19
621.93	16207.8
622.125	16512.94
622.32	16138.16
622.515	16250.8
622.709	15998.9
622.904	16160.69
623.099	15966.14
623.294	15806.39
623.488	15771.58
623.683	15884.22
623.878	15581.12
624.072	15736.76
624.267	15372.22
624.462	15462.33
624.656	15083.46
624.851	15396.8
625.046	15126.47
625.24	15204.29
625.435	14942.15
625.629	15155.14
625.824	14979.01
626.018	15005.64
626.213	14428.11
626.407	14575.56
626.602	14684.11
626.796	14528.46
626.991	14301.14
627.185	14338
627.38	14198.74
627.574	14159.83
627.768	14139.35
627.963	13975.51
628.157	13731.8
628.352	13957.08
628.546	13877.21
628.74	14049.24
628.935	13586.4
629.129	13729.75
629.323	13385.69
629.517	13379.55
629.712	13498.33
629.906	13283.3
630.1	13252.58
630.294	13160.42
630.489	13096.93
630.683	13010.92
630.877	12677.1
631.071	13012.96
631.265	12998.63
631.459	12943.33
631.653	12728.3
631.848	12597.23
632.042	12589.03
632.236	12333.04
632.43	12259.31
632.624	12453.87
632.818	12437.48
633.012	12036.08
633.206	12410.86
633.4	12148.72
633.594	11833.33
633.788	11960.31
633.982	11905.01
634.176	11894.77
634.369	11950.07
634.563	11911.16
634.757	11622.39
634.951	11476.99
635.145	11587.58
635.339	11665.4
635.533	11661.3
635.726	11507.71
635.92	11487.23
636.114	11243.52
636.308	11481.08
636.501	11321.34
636.695	11251.71
636.889	11094.02
637.083	11214.85
637.276	10950.66
637.47	10801.16
637.664	11096.07
637.857	10983.43
638.051	10731.53
638.244	10711.05
638.438	10774.53
638.632	10586.12
638.825	10600.46
639.019	10637.32
639.212	10428.43
639.406	10250.25
639.599	10377.23
639.793	10258.45
639.986	10092.56
640.18	10176.53
640.373	10145.81
640.567	9930.77
640.76	10080.27
640.954	9824.28
641.147	9857.04
641.34	9887.76
641.534	9875.48
641.727	9676.82
641.92	9775.13
642.114	9531.42
642.307	9416.73
642.5	9650.2
642.694	9269.28
642.887	9435.16
643.08	9439.26
643.273	9363.48
643.467	9234.46
643.66	9277.47
643.853	8990.75
644.046	9105.44
644.239	9093.15
644.432	8974.37
644.626	8898.59
644.819	8757.29
645.012	8927.27
645.205	8775.72
645.398	9068.58
645.591	8732.71
645.784	8726.57
645.977	8544.3
646.17	8716.33
646.363	8773.67
646.556	8411.18
646.749	8472.62
646.942	8525.86
647.135	8419.37
647.328	8415.27
647.521	8298.54
647.714	8216.62
647.907	8235.05
648.099	8222.77
648.292	8353.84
648.485	8013.87
648.678	7946.29
648.871	7874.61
649.064	7880.75
649.256	8032.3
649.449	7925.81
649.642	7884.85
649.835	7721.01
650.027	7854.13
650.22	7796.79
650.413	7714.87
650.605	7546.94
650.798	7446.59
650.991	7481.4
651.183	7587.89
651.376	7374.91
651.568	7532.6
651.761	7219.26
651.954	7419.96
652.146	7381.05
652.339	7190.59
652.531	7161.92
652.724	7100.48
652.916	7141.44
653.109	7290.94
653.301	6989.89
653.494	7209.02
653.686	7100.48
653.879	7028.8
654.071	7039.04
654.263	6924.35
654.456	7036.99
654.648	7008.32
654.84	6948.93
655.033	6772.8
655.225	6600.77
655.417	6637.64
655.61	6918.21
655.802	6707.27
655.994	6543.43
656.186	6672.45
656.379	6430.79
656.571	6473.8
656.763	6580.29
656.955	6506.57
657.148	6443.08
657.34	6393.93
657.532	6201.42
657.724	6371.4
657.916	6234.19
658.108	6254.67
658.3	6135.89
658.492	6240.33
658.684	6088.78
658.876	6133.84
659.068	6232.14
659.26	6008.91
659.452	6135.89
659.644	5982.29
659.836	5920.85
660.028	6021.2
660.22	5931.09
660.412	5779.54
660.604	5767.25
660.796	5892.18
660.988	5830.74
661.18	5693.52
661.372	5769.3
661.563	5750.87
661.755	5572.69
661.947	5748.82
662.139	5587.03
662.331	5552.21
662.522	5496.92
662.714	5597.27
662.906	5318.75
663.097	5584.98
663.289	5523.54
663.481	5267.55
663.673	5462.1
663.864	5480.54
664.056	5398.62
664.247	5392.47
664.439	5179.48
664.631	5300.31
664.822	5281.88
665.014	5206.11
665.205	5081.18
665.397	5142.62
665.588	5300.31
665.78	5142.62
665.971	5142.62
666.163	5206.11
666.354	5169.24
666.546	4989.02
666.737	4909.15
666.929	4946.02
667.12	5128.28
667.311	4989.02
667.503	4980.83
667.694	4843.62
667.885	4952.16
668.077	4757.6
668.268	4829.28
668.459	4905.06
668.651	4616.29
668.842	4692.07
669.033	4989.02
669.224	4794.47
669.416	4771.94
669.607	4730.98
669.798	4616.29
669.989	4841.57
670.18	4520.04
670.371	4784.23
670.563	4610.15
670.754	4657.25
670.945	4608.1
671.136	4528.23
671.327	4522.09
671.518	4520.04
671.709	4534.37
671.9	4569.19
672.091	4630.63
672.282	4384.87
672.473	4513.89
672.664	4413.54
672.855	4419.69
673.046	4474.98
673.237	4403.3
673.428	4417.64
673.619	4300.91
673.809	4370.54
674	4391.02
674.191	4427.88
674.382	4298.86
674.573	4307.05
674.764	4348.01
674.954	4274.28
675.145	4153.45
675.336	4266.09
675.527	4161.64
675.717	4200.55
675.908	4239.47
676.099	4096.11
676.289	4208.75
676.48	4053.1
676.671	4182.12
676.861	4194.41
677.052	4040.81
677.243	4067.44
677.433	4098.16
677.624	4200.55
677.814	4169.84
678.005	4167.79
678.195	4079.72
678.386	4112.49
678.576	4151.4
678.767	4020.33
678.957	3977.33
679.148	4124.78
679.338	4046.96
679.529	4108.4
679.719	3981.42
679.909	4034.67
680.1	4089.96
680.29	3887.22
680.481	3811.44
680.671	4036.72
680.861	4014.19
681.052	4034.67
681.242	3946.61
681.432	3891.31
681.622	3872.88
681.813	3917.93
682.003	3858.54
682.193	3962.99
682.383	3909.74
682.573	3983.47
682.764	3868.78
682.954	3938.41
683.144	3956.85
683.334	3934.32
683.524	3950.7
683.714	3793.01
683.904	3948.65
684.094	4016.24
684.284	3825.78
684.474	3922.03
684.664	3954.8
684.854	3936.37
685.044	3717.23
685.234	3743.86
685.424	3823.73
685.614	3813.49
685.804	3883.12
685.994	3858.54
686.184	3706.99
686.374	3672.18
686.564	3799.15
686.753	3684.47
686.943	3514.49
687.133	3760.24
687.323	3721.33
687.513	3682.42
687.702	3655.79
687.892	3653.75
688.082	3598.45
688.272	3569.78
688.461	3539.06
688.651	3629.17
688.841	3553.4
689.03	3332.22
689.22	3399.8
689.41	3442.81
689.599	3457.14
689.789	3442.81
689.979	3522.68
690.168	3381.37
690.358	3426.42
690.547	3321.98
690.737	3494.01
690.926	3420.28
691.116	3360.89
691.305	3332.22
691.495	3244.15
691.684	3190.91
691.874	3317.88
692.063	3221.63
692.252	3324.02
692.442	3346.55
692.631	3235.96
692.82	3190.91
693.01	3186.81
693.199	3246.2
693.388	3115.13
693.578	3174.52
693.767	3240.06
693.956	2988.16
694.146	3172.47
694.335	3057.79
694.524	3094.65
694.713	3047.55
694.902	3012.73
695.092	3072.12
695.281	3072.12
695.47	2959.49
695.659	3074.17
695.848	2891.9
696.037	2955.39
696.226	3000.44
696.415	2961.53
696.604	2922.62
696.793	2930.81
696.982	2816.13
697.171	3006.59
697.36	2922.62
697.549	2955.39
697.738	2971.77
697.927	2832.51
698.116	2838.66
698.305	2908.29
698.494	2889.85
698.683	2924.67
698.872	2898.05
699.061	2773.12
699.25	2689.15
699.438	2756.74
699.627	2881.66
699.816	2957.44
700.005	2859.14
700.193	2793.6
700.382	2746.5
700.571	2822.27
700.76	2842.75
700.948	2799.74
701.137	2795.65
701.326	2840.7
701.514	2803.84
701.703	2660.48
701.892	2826.37
702.08	2848.9
702.269	2775.17
702.457	2777.22
702.646	2873.47
702.834	2754.69
703.023	2766.98
703.212	2680.96
703.4	2730.11
703.589	2732.16
703.777	2879.61
703.965	2783.36
704.154	2838.66
704.342	2830.46
704.531	2793.6
704.719	2652.29
704.907	2687.11
705.096	2713.73
705.284	2676.87
705.472	2842.75
705.661	2705.54
705.849	2799.74
706.037	2779.26
706.226	2640
706.414	2635.91
706.602	2709.63
706.79	2678.91
706.979	2797.7
707.167	2736.26
707.355	2515.08
707.543	2693.25
707.731	2640
707.919	2631.81
708.107	2699.39
708.296	2689.15
708.484	2623.62
708.672	2758.78
708.86	2625.67
709.048	2695.3
709.236	2771.07
709.424	2668.67
709.612	2732.16
709.8	2637.95
709.988	2613.38
710.176	2662.53
710.364	2687.11
710.551	2648.19
710.739	2633.86
710.927	2726.02
711.115	2676.87
711.303	2816.13
711.491	2648.19
711.679	2599.04
711.866	2611.33
712.054	2633.86
712.242	2592.9
712.43	2629.76
712.617	2650.24
712.805	2578.56
712.993	2678.91
713.181	2687.11
713.368	2560.13
713.556	2584.71
713.744	2564.23
713.931	2683.01
714.119	2584.71
714.306	2656.39
714.494	2601.09
714.682	2640
714.869	2601.09
715.057	2648.19
715.244	2631.81
715.432	2672.77
715.619	2564.23
715.807	2594.95
715.994	2674.82
716.182	2664.58
716.369	2640
716.556	2769.02
716.744	2541.7
716.931	2535.56
717.119	2613.38
717.306	2769.02
717.493	2711.68
717.681	2633.86
717.868	2658.43
718.055	2609.28
718.242	2640
718.43	2713.73
718.617	2603.14
718.804	2685.06
718.991	2601.09
719.179	2597
719.366	2580.61
719.553	2556.04
719.74	2660.48
719.927	2742.4
720.114	2613.38
720.301	2627.71
720.488	2533.51
720.676	2564.23
720.863	2551.94
721.05	2652.29
721.237	2726.02
721.424	2627.71
721.611	2586.76
721.798	2685.06
721.985	2549.89
722.172	2680.96
722.358	2570.37
722.545	2658.43
722.732	2599.04
722.919	2580.61
723.106	2478.21
723.293	2668.67
723.48	2697.35
723.667	2510.98
723.853	2506.88
724.04	2678.91
724.227	2551.94
724.414	2492.55
724.6	2484.36
724.787	2730.11
724.974	2627.71
725.161	2510.98
725.347	2504.84
725.534	2582.66
725.72	2691.2
725.907	2578.56
726.094	2590.85
726.28	2672.77
726.467	2662.53
726.653	2640
726.84	2680.96
727.027	2668.67
727.213	2637.95
727.4	2609.28
727.586	2683.01
727.773	2588.8
727.959	2672.77
728.145	2709.63
728.332	2519.17
728.518	2635.91
728.705	2599.04
728.891	2586.76
729.077	2603.14
729.264	2551.94
729.45	2683.01
729.636	2611.33
729.823	2678.91
730.009	2668.67
730.195	2584.71
730.382	2689.15
730.568	2541.7
730.754	2619.52
730.94	2668.67
731.126	2748.54
731.313	2685.06
731.499	2592.9
731.685	2674.82
731.871	2629.76
732.057	2625.67
732.243	2697.35
732.429	2730.11
732.615	2736.26
732.801	2605.19
732.987	2599.04
733.173	2703.49
733.359	2748.54
733.545	2640
733.731	2707.59
733.917	2795.65
734.103	2875.52
734.289	2732.16
734.475	2607.23
734.661	2795.65
734.847	2680.96
735.033	2693.25
735.219	2646.15
735.404	2834.56
735.59	2648.19
735.776	2668.67
735.962	2822.27
736.148	2590.85
736.333	2805.89
736.519	2695.3
736.705	2795.65
736.89	2791.55
737.076	2744.45
737.262	2607.23
737.447	2672.77
737.633	2627.71
737.819	2707.59
738.004	2640
738.19	2629.76
738.375	2545.8
738.561	2637.95
738.747	2654.34
738.932	2601.09
739.118	2721.92
739.303	2744.45
739.489	2568.32
739.674	2588.8
739.859	2783.36
740.045	2633.86
740.23	2642.05
740.416	2597
740.601	2697.35
740.786	2523.27
740.972	2637.95
741.157	2637.95
741.342	2551.94
741.528	2594.95
741.713	2601.09
741.898	2584.71
742.084	2459.78
742.269	2666.63
742.454	2551.94
742.639	2584.71
742.824	2594.95
743.01	2676.87
743.195	2562.18
743.38	2660.48
743.565	2683.01
743.75	2609.28
743.935	2699.39
744.12	2588.8
744.305	2521.22
744.49	2506.88
744.675	2429.06
744.86	2599.04
745.045	2551.94
745.23	2429.06
745.415	2488.45
745.6	2531.46
745.785	2474.12
745.97	2496.64
746.155	2427.01
746.34	2420.87
746.525	2506.88
746.71	2451.59
746.895	2433.16
747.079	2336.9
747.264	2437.25
747.449	2420.87
747.634	2369.67
747.819	2396.29
748.003	2295.94
748.188	2304.14
748.373	2320.52
748.557	2281.61
748.742	2310.28
748.927	2248.84
749.111	2197.64
749.296	2226.31
749.481	2250.89
749.665	2338.95
749.85	2125.96
750.034	2279.56
750.219	2252.94
750.404	2244.74
750.588	2173.07
750.773	2123.91
750.957	2263.18
751.141	2164.87
751.326	2062.48
751.51	2023.56
751.695	2044.04
751.879	2185.35
752.064	2095.24
752.248	1996.94
752.432	2107.53
752.617	2095.24
752.801	2025.61
752.985	1982.6
753.17	2089.1
753.354	2003.08
753.538	1974.41
753.722	1908.88
753.907	1931.41
754.091	1919.12
754.275	1884.3
754.459	1972.36
754.643	1894.54
754.828	1919.12
755.012	1933.45
755.196	1822.86
755.38	1843.34
755.564	1839.25
755.748	1874.06
755.932	1908.88
756.116	1775.76
756.3	1837.2
756.484	1759.38
756.668	1863.82
756.852	1781.9
757.036	1771.66
757.22	1687.7
757.404	1812.62
757.588	1699.98
757.772	1759.38
757.956	1814.67
758.14	1644.69
758.323	1710.22
758.507	1611.92
758.691	1650.83
758.875	1728.66
759.059	1747.09
759.242	1622.16
759.426	1593.49
759.61	1665.17
759.794	1699.98
759.977	1702.03
760.161	1575.06
760.345	1677.46
760.528	1665.17
760.712	1581.2
760.895	1525.91
761.079	1560.72
761.263	1439.89
761.446	1501.33
761.63	1534.1
761.813	1634.45
761.997	1480.85
762.18	1396.89
762.364	1509.52
762.547	1452.18
762.731	1450.13
762.914	1519.76
763.098	1435.8
763.281	1474.71
763.464	1448.08
763.648	1441.94
763.831	1380.5
764.015	1386.65
764.198	1448.08
764.381	1409.17
764.564	1466.52
764.748	1372.31
764.931	1380.5
765.114	1376.41
765.297	1431.7
765.481	1321.11
765.664	1382.55
765.847	1243.29
766.03	1405.08
766.213	1321.11
766.397	1437.84
766.58	1335.45
766.763	1337.49
766.946	1294.49
767.129	1411.22
767.312	1149.08
767.495	1210.52
767.678	1286.3
767.861	1314.97
768.044	1251.48
768.227	1253.53
768.41	1292.44
768.593	1222.81
768.776	1327.25
768.959	1331.35
769.142	1310.87
769.324	1202.33
769.507	1269.91
769.69	1257.62
769.873	1196.18
770.056	1212.57
770.239	1247.38
770.421	1204.38
770.604	1269.91
770.787	1198.23
770.97	1288.34
771.152	1126.55
771.335	1190.04
771.518	1093.79
771.7	1126.55
771.883	1165.46
772.066	1140.89
772.248	1118.36
772.431	1228.95
772.613	1048.73
772.796	1087.64
772.978	1185.94
773.161	1032.35
773.343	1077.4
773.526	1134.75
773.708	1099.93
773.891	972.96
774.073	1054.87
774.256	1075.35
774.438	1050.78
774.621	1046.68
774.803	1048.73
774.985	981.15
775.168	946.33
775.35	1042.59
775.532	1036.44
775.715	977.05
775.897	956.57
776.079	979.1
776.261	1081.5
776.444	1058.97
776.626	1018.01
776.808	989.34
776.99	960.67
777.173	979.1
777.355	932
777.537	968.86
777.719	925.85
777.901	991.39
778.083	876.7
778.265	888.99
778.447	833.69
778.629	815.26
778.811	850.08
778.993	880.8
779.175	921.76
779.357	905.37
779.539	841.89
779.721	721.06
779.903	841.89
780.085	843.93
780.267	823.45
780.449	876.7
780.631	723.1
780.812	860.32
780.994	825.5
781.176	723.1
781.358	809.12
781.54	866.46
781.721	874.65
781.903	835.74
782.085	706.72
782.267	716.96
782.448	688.29
782.63	665.76
782.812	735.39
782.993	680.1
783.175	733.34
783.357	626.85
783.538	655.52
783.72	665.76
783.901	723.1
784.083	645.28
784.264	669.86
784.446	659.62
784.627	592.03
784.809	702.62
784.99	581.79
785.172	655.52
785.353	620.71
785.535	653.47
785.716	600.23
785.897	589.99
786.079	565.41
786.26	579.75
786.441	592.03
786.623	612.51
786.804	665.76
786.985	624.8
787.167	632.99
787.348	510.11
787.529	618.66
787.71	661.66
787.891	569.51
788.073	536.74
788.254	506.02
788.435	581.79
788.616	567.46
788.797	497.83
788.978	557.22
789.159	501.92
789.34	542.88
789.522	460.96
789.703	411.81
789.884	516.26
790.065	587.94
790.246	577.7
790.427	463.01
790.607	514.21
790.788	542.88
790.969	438.44
791.15	399.52
791.331	506.02
791.512	434.34
791.693	499.88
791.874	448.68
792.054	499.88
792.235	528.55
792.416	354.47
792.597	409.76
792.778	450.72
792.958	413.86
793.139	436.39
793.32	456.87
793.5	372.9
793.681	526.5
793.862	387.24
794.042	379.04
794.223	411.81
794.404	399.52
794.584	356.52
794.765	438.44
794.945	348.33
795.126	346.28
795.306	370.85
795.487	325.8
795.667	477.35
795.848	336.04
796.028	393.38
796.209	354.47
796.389	411.81
796.57	346.28
796.75	393.38
796.93	430.24
797.111	340.13
797.291	321.7
797.471	368.81
797.652	413.86
797.832	305.32
798.012	424.1
798.192	278.69
798.373	342.18
798.553	342.18
798.733	372.9
798.913	346.28
799.093	315.56
799.274	426.15
799.454	391.33
799.634	368.81
799.814	348.33
799.994	372.9
800.174	399.52
800.354	329.89
800.534	307.37
800.714	346.28
800.894	356.52
801.074	317.61
801.254	282.79
801.434	352.42
801.614	372.9
801.794	311.46
801.974	956.57
802.154	241.83
802.334	299.17
802.514	290.98
802.693	276.65
802.873	227.5
803.053	282.79
803.233	272.55
803.413	237.74
803.592	229.54
803.772	331.94
803.952	266.41
804.131	260.26
804.311	293.03
804.491	325.8
804.67	254.12
804.85	299.17
805.03	309.41
805.209	278.69
805.389	215.21
805.568	237.74
805.748	274.6
805.928	288.93
806.107	254.12
806.287	317.61
806.466	264.36
806.646	241.83
806.825	276.65
807.004	239.78
807.184	223.4
807.363	303.27
807.543	268.45
807.722	233.64
807.901	333.99
808.081	295.08
808.26	166.06
808.439	209.06
808.619	219.3
808.798	204.97
808.977	260.26
809.156	284.84
809.336	186.54
809.515	207.02
809.694	239.78
809.873	207.02
810.052	166.06
810.231	262.31
810.411	176.3
810.59	260.26
810.769	182.44
810.948	211.11
811.127	153.77
811.306	178.34
811.485	225.45
811.664	237.74
811.843	282.79
812.022	200.87
812.201	164.01
812.38	247.97
812.559	147.62
812.737	168.1
812.916	182.44
813.095	180.39
813.274	178.34
813.453	186.54
813.632	159.91
813.811	196.78
813.989	196.78
814.168	170.15
814.347	153.77
814.526	188.58
814.704	221.35
814.883	196.78
815.062	235.69
815.24	231.59
815.419	143.53
815.598	166.06
815.776	133.29
815.955	155.82
816.133	102.57
816.312	190.63
816.49	217.26
816.669	143.53
816.847	123.05
817.026	202.92
817.204	118.95
817.383	131.24
817.561	108.71
817.74	211.11
817.918	123.05
818.097	168.1
818.275	194.73
818.453	221.35
818.632	112.81
818.81	184.49
818.988	182.44
819.167	159.91
819.345	188.58
819.523	174.25
819.701	164.01
819.879	172.2
820.058	219.3
820.236	202.92
820.414	217.26
820.592	139.43
820.77	161.96
820.948	190.63
821.127	196.78
821.305	166.06
821.483	149.67
821.661	131.24
821.839	84.14
822.017	123.05
822.195	139.43
822.373	155.82
822.551	92.33
822.729	151.72
822.907	139.43
823.085	211.11
823.262	110.76
823.44	55.47
823.618	82.09
823.796	161.96
823.974	51.37
824.152	147.62
824.329	108.71
824.507	116.9
824.685	127.14
824.863	127.14
825.04	127.14
825.218	166.06
825.396	30.89
825.574	123.05
825.751	73.9
825.929	170.15
826.107	75.95
826.284	149.67
826.462	116.9
826.639	94.38
826.817	90.28
826.994	153.77
827.172	92.33
827.349	112.81
827.527	145.58
827.704	75.95
827.882	106.67
828.059	84.14
828.237	55.47
828.414	217.26
828.591	98.47
828.769	104.62
828.946	-34.64
829.124	143.53
829.301	151.72
829.478	145.58
829.655	100.52
829.833	100.52
830.01	6.31
830.187	157.86
830.364	34.99
830.542	116.9
830.719	121
830.896	102.57
831.073	59.56
831.25	96.43
831.427	67.75
831.604	61.61
831.782	59.56
831.959	110.76
832.136	43.18
832.313	94.38
832.49	51.37
832.667	41.13
832.844	112.81
833.021	22.7
833.198	102.57
833.374	123.05
833.551	65.71
833.728	80.04
833.905	84.14
834.082	96.43
834.259	80.04
834.436	172.2
834.612	51.37
834.789	112.81
834.966	75.95
835.143	127.14
835.319	92.33
835.496	84.14
835.673	112.81
835.85	37.03
836.026	94.38
836.203	39.08
836.38	84.14
836.556	100.52
836.733	43.18
836.909	141.48
837.086	41.13
837.262	34.99
837.439	34.99
837.616	63.66
837.792	114.86
837.968	77.99
838.145	16.55
838.321	100.52
838.498	108.71
838.674	43.18
838.851	133.29
839.027	10.41
839.203	80.04
839.38	53.42
839.556	71.85
839.732	131.24
839.909	28.84
840.085	108.71
840.261	43.18
840.437	47.27
840.614	32.94
840.79	137.38
840.966	-55.12
841.142	116.9
841.318	16.55
841.494	129.19
841.671	14.51
841.847	80.04
842.023	53.42
842.199	61.61
842.375	94.38
842.551	12.46
842.727	-8.02
842.903	143.53
843.079	2.22
843.255	90.28
843.431	14.51
843.607	51.37
843.783	12.46
843.959	51.37
844.134	-24.4
844.31	75.95
844.486	-5.97
844.662	2.22
844.838	96.43
845.013	92.33
845.189	63.66
845.365	77.99
845.541	18.6
845.716	22.7
845.892	55.47
846.068	65.71
846.244	53.42
846.419	10.41
846.595	2.22
846.77	2.22
846.946	71.85
847.122	67.75
847.297	88.23
847.473	121
847.648	10.41
847.824	6.31
847.999	-57.17
848.175	67.75
848.35	63.66
848.526	118.95
848.701	112.81
848.876	102.57
849.052	28.84
849.227	-22.36
849.403	22.7
849.578	65.71
849.753	77.99
849.929	65.71
850.104	67.75
850.279	-30.55
850.454	6.31
850.63	-8.02
850.805	30.89
850.98	-85.84
851.155	55.47
851.33	28.84
851.505	61.61
851.681	12.46
851.856	2.22
852.031	82.09
852.206	-26.45
852.381	4.27
852.556	41.13
852.731	51.37
852.906	37.03
853.081	57.51
853.256	55.47
853.431	14.51
853.606	-1.88
853.781	47.27
853.956	-26.45
854.131	6.31
854.305	-87.89
854.48	-8.02
854.655	20.65
854.83	-12.12
855.005	26.79
855.18	-3.93
855.354	-75.6
855.529	63.66
855.704	-20.31
855.879	-10.07
856.053	63.66
856.228	4.27
856.403	-30.55
856.577	26.79
856.752	-24.4
856.926	18.6
857.101	112.81
857.276	-8.02
857.45	-12.12
857.625	65.71
857.799	-20.31
857.974	-73.56
858.148	-46.93
858.323	39.08
858.497	20.65
858.672	-42.84
858.846	14.51
859.02	43.18
859.195	24.75
859.369	43.18
859.543	47.27
859.718	37.03
859.892	-91.99
860.066	67.75
860.241	14.51
860.415	6.31
860.589	37.03
860.763	-38.74
860.938	32.94
861.112	-14.17
861.286	28.84
861.46	-38.74
861.634	71.85
861.808	-8.02
861.982	-67.41
862.157	-36.69
862.331	39.08
862.505	12.46
862.679	51.37
862.853	67.75
863.027	-18.26
863.201	51.37
863.375	41.13
863.549	-61.27
863.722	84.14
863.896	82.09
864.07	-5.97
864.244	-14.17
864.418	-30.55
864.592	49.32
864.766	4.27
864.939	4.27
865.113	-116.56
865.287	2.22
865.461	14.51
865.634	20.65
865.808	-38.74
865.982	-48.98
866.156	-26.45
866.329	-36.69
866.503	-26.45
866.676	57.51
866.85	30.89
867.024	24.75
867.197	14.51
867.371	-26.45
867.544	34.99
867.718	0.17
867.891	94.38
868.065	-16.21
868.238	-10.07
868.412	84.14
868.585	-8.02
868.759	-30.55
868.932	-1.88
869.105	-32.6
869.279	34.99
869.452	-22.36
869.625	20.65
869.799	-30.55
869.972	-40.79
870.145	18.6
870.319	45.23
870.492	-18.26
870.665	-110.42
870.838	-53.08
871.011	0.17
871.185	-48.98
871.358	-67.41
871.531	-3.93
871.704	-36.69
871.877	16.55
872.05	45.23
872.223	10.41
872.396	39.08
872.569	16.55
872.742	-59.22
872.915	-34.64
873.088	22.7
873.261	-30.55
873.434	24.75
873.607	4.27
873.78	-1.88
873.953	2.22
874.126	-20.31
874.299	18.6
874.471	-1.88
874.644	37.03
874.817	49.32
874.99	12.46
875.163	53.42
875.335	4.27
875.508	18.6
875.681	116.9
875.853	-3.93
876.026	-55.12
876.199	10.41
876.371	-1.88
876.544	12.46
876.717	14.51
876.889	-8.02
877.062	-5.97
877.234	-65.36
877.407	-16.21
877.579	28.84
877.752	39.08
877.924	75.95
878.097	4.27
878.269	18.6
878.442	0.17
878.614	6.31
878.786	-69.46
878.959	2.22
879.131	12.46
879.303	8.36
879.476	-36.69
879.648	-48.98
879.82	-40.79
879.993	-24.4
880.165	30.89
880.337	-36.69
880.509	18.6
880.681	-55.12
880.854	-12.12
881.026	75.95
881.198	67.75
881.37	-73.56
881.542	-42.84
881.714	-3.93
881.886	16.55
882.058	-18.26
882.23	8.36
882.402	45.23
882.574	55.47
882.746	-8.02
882.918	71.85
883.09	51.37
883.262	-8.02
883.434	41.13
883.606	0.17
883.778	57.51
883.95	-44.88
884.122	8.36
884.293	-3.93
884.465	34.99
884.637	-14.17
884.809	-36.69
884.98	6.31
885.152	-46.93
885.324	-38.74
885.496	-30.55
885.667	-69.46
885.839	-1.88
886.011	39.08
886.182	-24.4
886.354	51.37
886.525	53.42
886.697	-44.88
886.869	-40.79
887.04	61.61
887.212	18.6
887.383	80.04
887.555	-59.22
887.726	51.37
887.897	-48.98
888.069	53.42
888.24	34.99
888.412	61.61
888.583	-14.17
888.754	-44.88
888.926	-69.46
889.097	-42.84
889.268	-46.93
889.44	47.27
889.611	18.6
889.782	-38.74
889.953	-55.12
890.125	18.6
890.296	-12.12
890.467	-1.88
890.638	-53.08
890.809	12.46
890.98	-20.31
891.151	20.65
891.323	73.9
891.494	22.7
891.665	26.79
891.836	-3.93
892.007	-30.55
892.178	86.19
892.349	41.13
892.52	-63.32
892.691	-3.93
892.862	-71.51
893.032	-1.88
893.203	-16.21
893.374	-42.84
893.545	90.28
893.716	-48.98
893.887	53.42
894.057	-38.74
894.228	49.32
894.399	47.27
894.57	98.47
894.74	-28.5
894.911	-5.97
895.082	-61.27
895.253	-65.36
895.423	-14.17
895.594	-36.69
895.764	0.17
895.935	-71.51
896.106	-77.65
896.276	41.13
896.447	37.03
896.617	-12.12
896.788	-32.6
896.958	-38.74
897.129	-12.12
897.299	2.22
897.47	28.84
897.64	-46.93
897.81	6.31
897.981	-71.51
898.151	0.17
898.322	14.51
898.492	2.22
898.662	-1.88
898.832	53.42
899.003	-14.17
899.173	22.7
899.343	-83.8
899.513	-102.23
