Data from USB4F104151__20__12-41-04-736.txt Node

Date: Fri Mar 14 12:41:04 EDT 2025
User: louis
Spectrometer: USB4F10415
Trigger mode: 4
Integration Time (sec): 3.000000E-2
Scans to average: 1
Electric dark correction enabled: true
Nonlinearity correction enabled: false
Boxcar width: 0
XAxis mode: Wavelengths
Number of Pixels in Spectrum: 3648
>>>>>Begin Spectral Data<<<<<
178.204	-144.04
178.424	-144.04
178.644	-144.04
178.864	-197.29
179.084	-96.94
179.304	-0.68
179.524	-4.78
179.744	9.56
179.964	7.51
180.184	-15.02
180.404	-21.16
180.624	9.56
180.844	-47.79
181.064	-12.97
181.283	11.61
181.503	1.37
181.723	62.8
181.943	-19.11
182.163	118.1
182.383	64.85
182.602	27.99
182.822	58.71
183.042	23.89
183.262	52.56
183.482	30.04
183.701	9.56
183.921	15.7
184.141	7.51
184.361	81.24
184.58	87.38
184.8	56.66
185.02	66.9
185.239	46.42
185.459	73.04
185.679	109.91
185.898	32.08
186.118	27.99
186.338	9.56
186.557	85.33
186.777	-10.92
186.997	68.95
187.216	56.66
187.436	120.15
187.655	64.85
187.875	64.85
188.095	50.52
188.314	66.9
188.534	27.99
188.753	46.42
188.973	-6.83
189.192	56.66
189.412	50.52
189.631	64.85
189.851	5.46
190.07	93.52
190.29	25.94
190.509	-49.83
190.729	83.28
190.948	83.28
191.168	128.34
191.387	81.24
191.607	48.47
191.826	46.42
192.045	60.76
192.265	36.18
192.484	25.94
192.704	23.89
192.923	23.89
193.142	32.08
193.362	50.52
193.581	85.33
193.8	71
194.02	134.48
194.239	23.89
194.458	11.61
194.678	77.14
194.897	36.18
195.116	34.13
195.335	87.38
195.555	19.8
195.774	64.85
195.993	75.09
196.212	30.04
196.432	79.19
196.651	42.32
196.87	38.23
197.089	79.19
197.308	62.8
197.528	101.72
197.747	44.37
197.966	103.76
198.185	1.37
198.404	48.47
198.623	56.66
198.842	62.8
199.062	58.71
199.281	99.67
199.5	-31.4
199.719	60.76
199.938	146.77
200.157	19.8
200.376	27.99
200.595	68.95
200.814	19.8
201.033	83.28
201.252	50.52
201.471	34.13
201.69	15.7
201.909	-43.69
202.128	71
202.347	3.41
202.566	11.61
202.785	71
203.004	34.13
203.223	124.24
203.442	60.76
203.661	25.94
203.879	5.46
204.098	5.46
204.317	-4.78
204.536	66.9
204.755	36.18
204.974	-6.83
205.193	42.32
205.411	157.01
205.63	19.8
205.849	58.71
206.068	32.08
206.287	25.94
206.505	60.76
206.724	42.32
206.943	44.37
207.162	-21.16
207.381	62.8
207.599	36.18
207.818	17.75
208.037	13.65
208.255	-19.11
208.474	44.37
208.693	-19.11
208.911	111.96
209.13	52.56
209.349	40.28
209.567	79.19
209.786	62.8
210.005	79.19
210.223	54.61
210.442	-6.83
210.661	60.76
210.879	40.28
211.098	87.38
211.316	30.04
211.535	48.47
211.753	-4.78
211.972	27.99
212.191	54.61
212.409	-23.21
212.628	30.04
212.846	85.33
213.065	87.38
213.283	122.2
213.502	-0.68
213.72	60.76
213.938	60.76
214.157	-0.68
214.375	60.76
214.594	71
214.812	62.8
215.031	56.66
215.249	30.04
215.467	7.51
215.686	105.81
215.904	56.66
216.122	71
216.341	30.04
216.559	52.56
216.778	73.04
216.996	85.33
217.214	44.37
217.432	19.8
217.651	11.61
217.869	77.14
218.087	56.66
218.306	7.51
218.524	-43.69
218.742	5.46
218.96	50.52
219.179	140.63
219.397	62.8
219.615	157.01
219.833	-49.83
220.051	58.71
220.27	62.8
220.488	120.15
220.706	23.89
220.924	42.32
221.142	103.76
221.36	19.8
221.578	75.09
221.796	36.18
222.015	66.9
222.233	73.04
222.451	64.85
222.669	73.04
222.887	71
223.105	15.7
223.323	64.85
223.541	42.32
223.759	87.38
223.977	62.8
224.195	77.14
224.413	71
224.631	-33.45
224.849	23.89
225.067	62.8
225.285	-19.11
225.503	81.24
225.721	-6.83
225.939	71
226.157	66.9
226.375	177.49
226.592	11.61
226.81	17.75
227.028	52.56
227.246	17.75
227.464	97.62
227.682	83.28
227.9	-27.31
228.117	54.61
228.335	73.04
228.553	62.8
228.771	116.05
228.989	-45.74
229.206	50.52
229.424	56.66
229.642	-17.07
229.86	52.56
230.077	68.95
230.295	58.71
230.513	32.08
230.731	75.09
230.948	-2.73
231.166	81.24
231.384	56.66
231.601	60.76
231.819	111.96
232.037	32.08
232.254	-10.92
232.472	7.51
232.689	52.56
232.907	7.51
233.125	52.56
233.342	73.04
233.56	25.94
233.777	64.85
233.995	-37.55
234.213	64.85
234.43	44.37
234.648	48.47
234.865	3.41
235.083	68.95
235.3	-19.11
235.518	40.28
235.735	50.52
235.953	116.05
236.17	89.43
236.388	68.95
236.605	91.48
236.822	9.56
237.04	48.47
237.257	81.24
237.475	-4.78
237.692	64.85
237.909	171.35
238.127	-17.07
238.344	46.42
238.562	21.85
238.779	58.71
238.996	48.47
239.214	38.23
239.431	50.52
239.648	11.61
239.865	107.86
240.083	23.89
240.3	-0.68
240.517	30.04
240.735	25.94
240.952	21.85
241.169	120.15
241.386	103.76
241.603	34.13
241.821	30.04
242.038	30.04
242.255	66.9
242.472	17.75
242.689	48.47
242.907	73.04
243.124	36.18
243.341	21.85
243.558	-31.4
243.775	21.85
243.992	50.52
244.209	27.99
244.426	54.61
244.643	13.65
244.86	-2.73
245.078	81.24
245.295	99.67
245.512	91.48
245.729	9.56
245.946	21.85
246.163	30.04
246.38	30.04
246.597	25.94
246.814	32.08
247.031	93.52
247.248	56.66
247.464	34.13
247.681	15.7
247.898	-55.98
248.115	15.7
248.332	-37.55
248.549	77.14
248.766	91.48
248.983	68.95
249.2	83.28
249.417	66.9
249.633	-25.26
249.85	17.75
250.067	15.7
250.284	56.66
250.501	111.96
250.717	114
250.934	-17.07
251.151	-29.35
251.368	-33.45
251.585	-2.73
251.801	85.33
252.018	30.04
252.235	101.72
252.451	32.08
252.668	1.37
252.885	5.46
253.102	73.04
253.318	-23.21
253.535	-19.11
253.752	23.89
253.968	30.04
254.185	-6.83
254.401	34.13
254.618	7.51
254.835	44.37
255.051	111.96
255.268	44.37
255.484	11.61
255.701	30.04
255.917	116.05
256.134	38.23
256.351	11.61
256.567	60.76
256.784	17.75
257	38.23
257.217	99.67
257.433	34.13
257.65	64.85
257.866	50.52
258.082	11.61
258.299	-43.69
258.515	42.32
258.732	46.42
258.948	50.52
259.165	66.9
259.381	-64.17
259.597	77.14
259.814	58.71
260.03	71
260.246	40.28
260.463	66.9
260.679	75.09
260.895	23.89
261.112	15.7
261.328	32.08
261.544	-4.78
261.761	79.19
261.977	13.65
262.193	32.08
262.409	64.85
262.626	-6.83
262.842	52.56
263.058	17.75
263.274	87.38
263.49	36.18
263.707	128.34
263.923	87.38
264.139	5.46
264.355	9.56
264.571	93.52
264.787	-19.11
265.004	21.85
265.22	52.56
265.436	3.41
265.652	9.56
265.868	5.46
266.084	-27.31
266.3	40.28
266.516	-43.69
266.732	54.61
266.948	30.04
267.164	-2.73
267.38	58.71
267.596	42.32
267.812	187.73
268.028	73.04
268.244	-8.87
268.46	87.38
268.676	62.8
268.892	89.43
269.108	58.71
269.324	23.89
269.54	7.51
269.756	34.13
269.972	21.85
270.188	3.41
270.403	-2.73
270.619	36.18
270.835	-4.78
271.051	66.9
271.267	-58.03
271.483	71
271.698	-2.73
271.914	62.8
272.13	89.43
272.346	87.38
272.562	101.72
272.777	3.41
272.993	38.23
273.209	25.94
273.425	87.38
273.64	30.04
273.856	93.52
274.072	66.9
274.287	11.61
274.503	23.89
274.719	15.7
274.934	56.66
275.15	-74.41
275.366	46.42
275.581	21.85
275.797	3.41
276.012	36.18
276.228	87.38
276.444	17.75
276.659	87.38
276.875	15.7
277.09	-8.87
277.306	56.66
277.521	-2.73
277.737	-17.07
277.952	71
278.168	3.41
278.383	-41.64
278.599	-10.92
278.814	89.43
279.03	93.52
279.245	134.48
279.461	-0.68
279.676	56.66
279.892	27.99
280.107	-33.45
280.322	-37.55
280.538	68.95
280.753	-12.97
280.969	15.7
281.184	42.32
281.399	114
281.615	87.38
281.83	130.39
282.045	9.56
282.26	83.28
282.476	32.08
282.691	68.95
282.906	116.05
283.122	-21.16
283.337	79.19
283.552	11.61
283.767	107.86
283.983	11.61
284.198	60.76
284.413	165.2
284.628	30.04
284.843	15.7
285.058	52.56
285.274	62.8
285.489	34.13
285.704	97.62
285.919	122.2
286.134	81.24
286.349	5.46
286.564	60.76
286.779	68.95
286.995	71
287.21	103.76
287.425	68.95
287.64	32.08
287.855	32.08
288.07	7.51
288.285	116.05
288.5	42.32
288.715	3.41
288.93	48.47
289.145	7.51
289.36	-4.78
289.575	-35.5
289.79	97.62
290.004	34.13
290.219	120.15
290.434	11.61
290.649	-10.92
290.864	48.47
291.079	-0.68
291.294	73.04
291.509	54.61
291.724	103.76
291.938	7.51
292.153	66.9
292.368	-43.69
292.583	99.67
292.798	21.85
293.012	97.62
293.227	40.28
293.442	79.19
293.657	38.23
293.871	77.14
294.086	9.56
294.301	71
294.516	64.85
294.73	60.76
294.945	25.94
295.16	32.08
295.374	122.2
295.589	9.56
295.804	27.99
296.018	91.48
296.233	17.75
296.447	81.24
296.662	-21.16
296.877	9.56
297.091	36.18
297.306	13.65
297.52	9.56
297.735	120.15
297.949	126.29
298.164	42.32
298.378	3.41
298.593	54.61
298.807	30.04
299.022	62.8
299.236	46.42
299.451	-6.83
299.665	58.71
299.88	7.51
300.094	60.76
300.309	-17.07
300.523	1.37
300.737	46.42
300.952	140.63
301.166	38.23
301.381	-35.5
301.595	52.56
301.809	11.61
302.024	-4.78
302.238	32.08
302.452	105.81
302.667	71
302.881	103.76
303.095	71
303.309	81.24
303.524	-17.07
303.738	36.18
303.952	56.66
304.166	95.57
304.381	3.41
304.595	56.66
304.809	-41.64
305.023	17.75
305.237	58.71
305.452	30.04
305.666	7.51
305.88	40.28
306.094	-8.87
306.308	42.32
306.522	52.56
306.736	68.95
306.95	75.09
307.164	19.8
307.379	30.04
307.593	62.8
307.807	68.95
308.021	85.33
308.235	-39.59
308.449	30.04
308.663	93.52
308.877	130.39
309.091	-33.45
309.305	105.81
309.519	-6.83
309.733	40.28
309.947	7.51
310.161	103.76
310.374	146.77
310.588	93.52
310.802	32.08
311.016	34.13
311.23	30.04
311.444	46.42
311.658	40.28
311.872	116.05
312.085	107.86
312.299	75.09
312.513	68.95
312.727	132.44
312.941	11.61
313.154	42.32
313.368	77.14
313.582	71
313.796	54.61
314.009	23.89
314.223	81.24
314.437	107.86
314.651	19.8
314.864	103.76
315.078	-15.02
315.292	46.42
315.505	15.7
315.719	97.62
315.933	40.28
316.146	93.52
316.36	52.56
316.573	42.32
316.787	77.14
317.001	114
317.214	-17.07
317.428	-8.87
317.641	71
317.855	73.04
318.068	71
318.282	56.66
318.495	87.38
318.709	97.62
318.922	38.23
319.136	38.23
319.349	97.62
319.563	13.65
319.776	52.56
319.99	40.28
320.203	48.47
320.417	105.81
320.63	38.23
320.843	50.52
321.057	46.42
321.27	15.7
321.483	13.65
321.697	-0.68
321.91	48.47
322.124	105.81
322.337	95.57
322.55	25.94
322.763	48.47
322.977	77.14
323.19	7.51
323.403	-17.07
323.617	56.66
323.83	50.52
324.043	36.18
324.256	126.29
324.469	81.24
324.683	73.04
324.896	62.8
325.109	95.57
325.322	34.13
325.535	71
325.748	66.9
325.962	30.04
326.175	48.47
326.388	111.96
326.601	81.24
326.814	56.66
327.027	66.9
327.24	68.95
327.453	13.65
327.666	25.94
327.879	79.19
328.092	107.86
328.305	-19.11
328.518	60.76
328.731	77.14
328.944	93.52
329.157	40.28
329.37	34.13
329.583	79.19
329.796	62.8
330.009	-31.4
330.222	103.76
330.435	32.08
330.648	-25.26
330.861	-29.35
331.073	95.57
331.286	83.28
331.499	48.47
331.712	75.09
331.925	9.56
332.138	27.99
332.35	68.95
332.563	23.89
332.776	154.96
332.989	11.61
333.202	87.38
333.414	89.43
333.627	73.04
333.84	144.72
334.053	52.56
334.265	21.85
334.478	15.7
334.691	79.19
334.903	50.52
335.116	-62.12
335.329	1.37
335.541	105.81
335.754	81.24
335.966	52.56
336.179	73.04
336.392	87.38
336.604	13.65
336.817	34.13
337.029	161.11
337.242	-0.68
337.454	52.56
337.667	66.9
337.88	52.56
338.092	81.24
338.305	46.42
338.517	34.13
338.729	25.94
338.942	91.48
339.154	89.43
339.367	30.04
339.579	68.95
339.792	17.75
340.004	81.24
340.217	5.46
340.429	83.28
340.641	34.13
340.854	30.04
341.066	7.51
341.278	56.66
341.491	5.46
341.703	132.44
341.915	5.46
342.128	71
342.34	81.24
342.552	1.37
342.764	34.13
342.977	66.9
343.189	13.65
343.401	13.65
343.613	56.66
343.826	79.19
344.038	-27.31
344.25	27.99
344.462	7.51
344.674	126.29
344.886	71
345.099	71
345.311	83.28
345.523	89.43
345.735	9.56
345.947	68.95
346.159	40.28
346.371	71
346.583	21.85
346.795	167.25
347.007	30.04
347.219	32.08
347.431	58.71
347.643	171.35
347.855	-21.16
348.067	107.86
348.279	101.72
348.491	46.42
348.703	97.62
348.915	11.61
349.127	-4.78
349.339	52.56
349.551	21.85
349.763	56.66
349.975	68.95
350.187	91.48
350.399	42.32
350.61	68.95
350.822	-39.59
351.034	54.61
351.246	60.76
351.458	1.37
351.669	46.42
351.881	56.66
352.093	89.43
352.305	111.96
352.517	9.56
352.728	73.04
352.94	64.85
353.152	75.09
353.363	32.08
353.575	134.48
353.787	136.53
353.999	-17.07
354.21	140.63
354.422	75.09
354.633	91.48
354.845	30.04
355.057	-4.78
355.268	105.81
355.48	79.19
355.692	13.65
355.903	9.56
356.115	-31.4
356.326	56.66
356.538	120.15
356.749	87.38
356.961	87.38
357.172	60.76
357.384	9.56
357.595	150.87
357.807	27.99
358.018	62.8
358.23	75.09
358.441	89.43
358.653	58.71
358.864	21.85
359.075	95.57
359.287	89.43
359.498	25.94
359.709	42.32
359.921	71
360.132	-23.21
360.344	52.56
360.555	3.41
360.766	73.04
360.977	46.42
361.189	187.73
361.4	87.38
361.611	50.52
361.823	103.76
362.034	3.41
362.245	52.56
362.456	-35.5
362.667	111.96
362.879	17.75
363.09	58.71
363.301	36.18
363.512	50.52
363.723	58.71
363.935	58.71
364.146	103.76
364.357	60.76
364.568	58.71
364.779	25.94
364.99	23.89
365.201	42.32
365.412	54.61
365.623	13.65
365.834	40.28
366.045	42.32
366.256	109.91
366.467	114
366.678	73.04
366.889	9.56
367.1	9.56
367.311	91.48
367.522	38.23
367.733	52.56
367.944	132.44
368.155	-23.21
368.366	79.19
368.577	48.47
368.788	23.89
368.999	3.41
369.209	79.19
369.42	54.61
369.631	175.44
369.842	58.71
370.053	54.61
370.264	71
370.474	-66.22
370.685	66.9
370.896	19.8
371.107	83.28
371.317	71
371.528	44.37
371.739	48.47
371.95	60.76
372.16	114
372.371	48.47
372.582	71
372.792	85.33
373.003	111.96
373.214	99.67
373.424	30.04
373.635	89.43
373.846	105.81
374.056	85.33
374.267	107.86
374.477	66.9
374.688	23.89
374.898	68.95
375.109	85.33
375.319	56.66
375.53	62.8
375.74	103.76
375.951	17.75
376.161	134.48
376.372	107.86
376.582	7.51
376.793	73.04
377.003	32.08
377.214	25.94
377.424	91.48
377.635	73.04
377.845	71
378.055	62.8
378.266	42.32
378.476	1.37
378.686	95.57
378.897	60.76
379.107	62.8
379.317	-10.92
379.528	81.24
379.738	32.08
379.948	30.04
380.158	116.05
380.369	42.32
380.579	54.61
380.789	40.28
380.999	73.04
381.21	30.04
381.42	177.49
381.63	97.62
381.84	79.19
382.05	1.37
382.261	165.2
382.471	42.32
382.681	23.89
382.891	77.14
383.101	95.57
383.311	73.04
383.521	38.23
383.731	89.43
383.941	161.11
384.151	126.29
384.361	81.24
384.571	116.05
384.781	79.19
384.991	77.14
385.201	154.96
385.411	105.81
385.621	40.28
385.831	97.62
386.041	81.24
386.251	79.19
386.461	97.62
386.671	23.89
386.881	46.42
387.091	62.8
387.301	68.95
387.511	107.86
387.72	126.29
387.93	132.44
388.14	13.65
388.35	48.47
388.56	109.91
388.769	81.24
388.979	132.44
389.189	50.52
389.399	50.52
389.609	68.95
389.818	46.42
390.028	109.91
390.238	25.94
390.447	68.95
390.657	183.63
390.867	11.61
391.076	23.89
391.286	122.2
391.496	79.19
391.705	79.19
391.915	130.39
392.125	120.15
392.334	101.72
392.544	91.48
392.753	64.85
392.963	52.56
393.172	81.24
393.382	-23.21
393.591	124.24
393.801	62.8
394.01	107.86
394.22	68.95
394.429	128.34
394.639	79.19
394.848	124.24
395.058	122.2
395.267	79.19
395.477	48.47
395.686	132.44
395.895	89.43
396.105	103.76
396.314	83.28
396.524	25.94
396.733	-23.21
396.942	150.87
397.152	126.29
397.361	154.96
397.57	111.96
397.78	83.28
397.989	71
398.198	114
398.407	118.1
398.617	103.76
398.826	140.63
399.035	71
399.244	77.14
399.453	87.38
399.663	50.52
399.872	126.29
400.081	73.04
400.29	93.52
400.499	105.81
400.708	185.68
400.917	120.15
401.127	105.81
401.336	91.48
401.545	150.87
401.754	93.52
401.963	111.96
402.172	66.9
402.381	99.67
402.59	148.82
402.799	101.72
403.008	138.58
403.217	163.15
403.426	56.66
403.635	91.48
403.844	87.38
404.053	163.15
404.262	165.2
404.471	152.91
404.68	169.3
404.888	114
405.097	114
405.306	126.29
405.515	179.54
405.724	236.88
405.933	122.2
406.142	118.1
406.35	193.87
406.559	187.73
406.768	218.45
406.977	212.31
407.185	171.35
407.394	249.17
407.603	193.87
407.812	197.97
408.02	281.94
408.229	259.41
408.438	261.46
408.646	236.88
408.855	226.64
409.064	257.36
409.272	232.79
409.481	230.74
409.69	382.29
409.898	298.32
410.107	314.7
410.315	271.7
410.524	271.7
410.733	343.38
410.941	292.18
411.15	363.86
411.358	372.05
411.567	429.39
411.775	312.66
411.984	367.95
412.192	449.87
412.401	392.53
412.609	476.49
412.818	515.41
413.026	488.78
413.234	437.58
413.443	456.01
413.651	521.55
413.86	591.18
414.068	640.33
414.276	613.71
414.485	509.26
414.693	640.33
414.901	728.39
415.11	687.43
415.318	687.43
415.526	623.95
415.734	699.72
415.943	789.83
416.151	734.54
416.359	724.3
416.567	736.59
416.776	781.64
416.984	925
417.192	914.76
417.4	970.05
417.608	972.1
417.817	1006.92
418.025	1099.08
418.233	1056.07
418.441	1088.84
418.649	1111.36
418.857	1232.19
419.065	1195.33
419.273	1248.58
419.481	1230.15
419.689	1275.2
419.897	1402.18
420.105	1418.56
420.313	1543.49
420.521	1379.65
420.729	1586.49
420.937	1555.77
421.145	1639.74
421.353	1654.08
421.561	1879.35
421.769	1834.3
421.977	1889.59
422.185	1981.75
422.393	2002.23
422.601	2180.4
422.809	2202.93
423.017	2170.16
423.224	2196.79
423.432	2247.99
423.64	2233.65
423.848	2649.39
424.056	2436.4
424.263	2573.61
424.471	2657.58
424.679	2749.74
424.887	2757.93
425.094	2864.43
425.302	2921.77
425.51	2958.63
425.718	3108.13
425.925	3048.74
426.133	3284.26
426.341	3431.71
426.548	3581.21
426.756	3685.66
426.964	3751.2
427.171	3839.26
427.379	3923.23
427.586	3951.9
427.794	4029.72
428.001	4384.02
428.209	4668.69
428.417	4381.97
428.624	4842.76
428.832	4830.48
429.039	4783.37
429.247	4838.67
429.454	5268.74
429.662	5664
429.869	5344.52
430.076	5766.4
430.284	5424.39
430.491	5700.86
430.699	5940.47
430.906	6032.63
431.114	6096.12
431.321	6247.67
431.528	6491.38
431.736	6743.28
431.943	7228.65
432.15	6923.5
432.358	7038.19
432.565	7314.66
432.772	7441.64
432.979	7763.17
433.187	7972.06
433.394	7953.63
433.601	8598.74
433.808	8531.16
434.016	8348.89
434.223	8678.61
434.43	9137.35
434.637	9104.59
434.844	9780.42
435.052	9802.94
435.259	9882.81
435.466	9950.4
435.673	9878.72
435.88	10642.61
436.087	11048.11
436.294	11031.73
436.501	10960.05
436.708	10988.72
436.915	11353.26
437.122	11963.55
437.329	11736.23
437.537	12244.12
437.743	12397.72
437.95	12299.42
438.157	12870.8
438.364	13524.1
438.571	13464.71
438.778	13515.91
438.985	14939.25
439.192	14169.21
439.399	14363.77
439.606	14292.09
439.813	15228.01
440.02	15975.52
440.227	15582.31
440.433	15645.8
440.64	16000.1
440.847	16012.38
441.054	16206.94
441.261	17282.13
441.467	17521.74
441.674	17624.14
441.881	18129.98
442.088	18437.18
442.294	18242.62
442.501	18455.61
442.708	18949.17
442.914	19594.28
443.121	20708.38
443.328	20184.1
443.534	21191.7
443.741	20544.54
443.948	20417.57
444.154	21865.48
444.361	21959.69
444.568	22035.46
444.774	21996.55
444.981	22236.16
445.187	22957.05
445.394	23895.02
445.6	23354.35
445.807	25842.63
446.013	24593.37
446.22	25109.46
446.426	26149.83
446.633	26282.95
446.839	27229.11
447.046	26121.16
447.252	27820.97
447.459	27753.39
447.665	27358.13
447.871	29033.37
448.078	29903.76
448.284	28550.05
448.491	29442.96
448.697	30069.64
448.903	30634.88
449.11	30815.1
449.316	30858.11
449.522	31007.61
449.728	32308.07
449.935	32457.57
450.141	32031.6
450.347	32828.26
450.553	31615.86
450.76	32643.94
450.966	33444.69
451.172	32756.58
451.378	33989.45
451.584	33182.55
451.791	34343.75
451.997	33739.6
452.203	34542.41
452.409	34507.59
452.615	34179.92
452.821	32975.71
453.027	32688.99
453.233	33956.69
453.44	32932.7
453.646	33180.51
453.852	33600.34
454.058	34110.28
454.264	32901.98
454.47	33833.81
454.676	32654.18
454.882	34181.96
455.088	30921.6
455.294	31781.74
455.5	32115.56
455.705	32189.29
455.911	30770.05
456.117	30374.79
456.323	30133.13
456.529	28496.8
456.735	29862.8
456.941	28844.96
457.147	28246.95
457.352	27364.28
457.558	27095.99
457.764	27421.62
457.97	26661.82
458.176	25789.39
458.381	26274.76
458.587	24878.04
458.793	24894.43
458.999	23190.52
459.204	25203.67
459.41	24556.51
459.616	22977.53
459.821	23170.04
460.027	23016.44
460.233	22465.53
460.438	21603.34
460.644	21341.2
460.85	20309.02
461.055	20157.47
461.261	20044.84
461.466	18631.74
461.672	18168.9
461.878	19344.43
462.083	18105.41
462.289	17761.35
462.494	17636.42
462.7	16987.22
462.905	16315.48
463.111	16878.68
463.316	17044.56
463.522	16454.75
463.727	16774.23
463.932	16807
464.138	16499.8
464.343	16499.8
464.549	16114.78
464.754	16694.36
464.959	16409.69
465.165	16288.86
465.37	15670.37
465.575	15344.75
465.781	16014.43
465.986	15963.23
466.191	15492.2
466.397	15156.33
466.602	14500.98
466.807	15035.5
467.012	15101.04
467.218	14828.66
467.423	14644.34
467.628	14627.96
467.833	15318.12
468.038	14824.56
468.244	14550.14
468.449	14984.3
468.654	14392.44
468.859	14206.08
469.064	14486.65
469.269	13448.33
469.474	13814.91
469.679	14240.89
469.885	13911.17
470.09	13870.21
470.295	13827.2
470.5	13460.62
470.705	13581.45
470.91	13366.41
471.115	13055.12
471.32	13167.76
471.525	13122.7
471.73	13112.46
471.935	12827.79
472.139	12280.99
472.344	12602.52
472.549	12422.3
472.754	12285.08
472.959	12006.56
473.164	11791.52
473.369	11922.59
473.574	12008.61
473.778	11969.69
473.983	11949.22
474.188	11936.93
474.393	11351.21
474.598	11414.7
474.802	11246.76
475.007	11066.54
475.212	11211.95
475.417	10812.59
475.621	10747.06
475.826	10777.78
476.031	10577.08
476.235	10468.53
476.44	10603.7
476.645	10271.93
476.849	10499.25
477.054	10355.9
477.259	10304.7
477.463	9938.11
477.668	9823.42
477.872	9919.68
478.077	9723.07
478.282	9530.56
478.486	9489.6
478.691	9192.65
478.895	9188.55
479.1	9288.9
479.304	9166.03
479.509	8901.84
479.713	9415.88
479.918	9000.14
480.122	8791.25
480.326	9116.87
480.531	9120.97
480.735	8879.31
480.94	8838.35
481.144	8942.8
481.348	8594.64
481.553	8862.93
481.757	8518.87
481.961	8682.7
482.166	8795.34
482.37	8770.77
482.574	8672.47
482.778	8572.11
482.983	8793.3
483.187	8660.18
483.391	8690.9
483.595	8674.51
483.8	8479.96
484.004	8656.08
484.208	8537.3
484.412	8654.03
484.616	8592.59
484.821	8682.7
485.025	8522.96
485.229	8854.73
485.433	8596.69
485.637	8586.45
485.841	8637.65
486.045	8623.31
486.249	8940.75
486.453	8666.32
486.657	8586.45
486.861	8492.24
487.065	8305.88
487.269	8504.53
487.473	8529.11
487.677	8844.49
487.881	8664.27
488.085	8613.07
488.289	8795.34
488.493	8467.67
488.697	8645.84
488.901	8682.7
489.105	8748.24
489.309	8690.9
489.512	8770.77
489.716	8619.22
489.92	8651.99
490.124	8518.87
490.328	9055.44
490.531	8508.63
490.735	8940.75
490.939	8871.12
491.143	8991.95
491.346	8834.25
491.55	8944.84
491.754	8869.07
491.958	9141.45
492.161	8973.52
492.365	9084.11
492.569	8924.37
492.772	8996.04
492.976	9102.54
493.18	9094.35
493.383	9200.84
493.587	9448.65
493.79	9383.11
493.994	9342.15
494.197	9403.59
494.401	9444.55
494.605	9549
494.808	9635.01
495.012	9710.79
495.215	9921.73
495.419	9864.38
495.622	9839.81
495.825	9927.87
496.029	9886.91
496.232	10124.47
496.436	10247.35
496.639	10319.03
496.843	10478.77
497.046	10583.22
497.249	10697.91
497.453	10513.59
497.656	10697.91
497.859	10810.54
498.063	11080.88
498.266	11064.49
498.469	11027.63
498.673	11142.32
498.876	11496.61
499.079	11525.29
499.282	11369.64
499.485	11926.69
499.689	11820.19
499.892	12151.96
500.095	11932.83
500.298	12227.74
500.501	12197.02
500.705	12412.06
500.908	12555.41
501.111	12747.92
501.314	12805.27
501.517	13061.26
501.72	13243.53
501.923	13178
502.126	13462.66
502.329	13704.32
502.532	13735.04
502.735	13597.83
502.938	13890.69
503.141	14253.18
503.344	14603.38
503.547	14253.18
503.75	14505.08
503.953	14738.55
504.156	14806.13
504.359	14926.96
504.562	15324.27
504.765	15547.5
504.968	15580.26
505.17	15801.44
505.373	15574.12
505.576	15862.88
505.779	16231.52
505.982	16110.69
506.185	16338.01
506.387	16815.19
506.59	16811.09
506.793	17224.78
506.996	16901.2
507.198	17646.66
507.401	17482.83
507.604	17534.03
507.807	17837.13
508.009	17849.41
508.212	18236.48
508.415	18213.95
508.617	18439.23
508.82	18615.35
509.022	18433.08
509.225	18934.84
509.428	19557.42
509.63	19352.62
509.833	19762.22
510.035	19878.95
510.238	19575.85
510.44	20225.06
510.643	20331.55
510.845	20403.23
511.048	20481.05
511.25	21050.39
511.453	20986.9
511.655	21672.97
511.858	21097.49
512.06	21572.62
512.262	22000.65
512.465	21679.11
512.667	22025.22
512.87	22832.12
513.072	22504.45
513.274	22770.68
513.477	23116.79
513.679	23438.32
513.881	23694.32
514.084	23645.16
514.286	23501.81
514.488	23950.31
514.69	24402.91
514.893	24576.99
515.095	24574.94
515.297	25035.74
515.499	24775.64
515.701	25048.02
515.904	25351.12
516.106	25531.34
516.308	25883.59
516.51	26334.15
516.712	26293.19
516.914	26237.89
517.116	26635.2
517.318	26893.24
517.52	27087.8
517.722	27161.53
517.925	27380.66
518.127	27911.08
518.329	27990.95
518.531	27988.91
518.733	28619.68
518.935	28797.85
519.136	28986.27
519.338	29041.56
519.54	29518.74
519.742	29330.33
519.944	29590.42
520.146	30233.48
520.348	30266.25
520.55	30374.79
520.752	30169.99
520.954	30899.07
521.155	30811.01
521.357	31263.61
521.559	31304.57
521.761	32117.61
521.963	31775.6
522.164	31974.25
522.366	32389.99
522.568	32377.7
522.77	32445.29
522.971	32596.84
523.173	32813.92
523.375	32895.84
523.576	33014.62
523.778	33164.12
523.98	33557.33
524.181	33561.43
524.383	34126.67
524.584	34145.1
524.786	34208.59
524.988	34378.57
525.189	34771.78
525.391	35064.64
525.592	34888.51
525.794	35138.37
525.995	35357.5
526.197	35246.91
526.398	35294.01
526.6	35472.18
526.801	35730.23
527.003	35722.04
527.204	35824.43
527.406	36078.38
527.607	36045.62
527.808	36430.63
528.01	36068.14
528.211	36451.11
528.412	37045.02
528.614	36774.69
528.815	36416.3
529.016	36961.06
529.218	36737.83
529.419	37020.45
529.62	36770.6
529.822	37169.95
530.023	37118.75
530.224	37239.58
530.425	37368.6
530.626	36875.04
530.828	37026.59
531.029	38132.5
531.23	37380.89
531.431	37262.11
531.632	37067.55
531.833	37669.65
532.035	37970.71
532.236	37679.89
532.437	37595.93
532.638	37542.68
532.839	37886.74
533.04	37827.35
533.241	37403.42
533.442	38486.79
533.643	37565.21
533.844	37956.37
534.045	38077.2
534.246	37595.93
534.447	38189.84
534.648	37727
534.849	38304.52
535.05	37722.9
535.251	37548.82
535.451	37706.52
535.652	37821.2
535.853	37991.19
536.054	37999.38
536.255	37935.89
536.456	37692.18
536.657	38425.35
536.857	38085.39
537.058	37896.98
537.259	38345.48
537.46	38034.19
537.66	37567.26
537.861	37937.94
538.062	38073.1
538.263	38038.29
538.463	38195.98
538.664	37624.6
538.865	37958.42
539.065	38531.85
539.266	37731.09
539.466	38193.93
539.667	37694.23
539.868	38212.37
540.068	37577.5
540.269	37835.54
540.469	38191.89
540.67	37856.02
540.87	37946.13
541.071	37896.98
541.271	38206.22
541.472	37798.68
541.672	37843.73
541.873	37587.74
542.073	37354.27
542.274	38124.3
542.474	37522.2
542.675	37575.45
542.875	38056.72
543.075	37612.31
543.276	37573.4
543.476	37942.03
543.676	37649.17
543.877	37778.2
544.077	37839.64
544.277	37985.04
544.478	37538.58
544.678	38040.34
544.878	37718.81
545.078	37917.46
545.279	37471
545.479	37282.59
545.679	37778.2
545.879	37307.16
546.079	37540.63
546.28	37778.2
546.48	37114.65
546.68	37901.07
546.88	37417.75
547.08	37649.17
547.28	37286.68
547.48	36973.35
547.68	37802.77
547.88	37141.28
548.081	38058.77
548.281	37305.12
548.481	37577.5
548.681	37335.84
548.881	37407.51
549.081	37124.89
549.28	37378.84
549.48	37542.68
549.68	37563.16
549.88	37509.91
550.08	37026.59
550.28	37448.47
550.48	37085.98
550.68	37669.65
550.88	36997.92
551.08	37389.08
551.279	37399.32
551.479	36885.28
551.679	37122.85
551.879	36922.15
552.079	37495.58
552.278	37018.4
552.478	36913.95
552.678	37227.29
552.878	37096.22
553.077	37098.27
553.277	36811.56
553.477	37272.35
553.676	36807.46
553.876	37182.24
554.076	36713.25
554.275	37012.26
554.475	36866.85
554.674	37206.81
554.874	36827.94
555.074	36672.29
555.273	36975.39
555.473	37047.07
555.672	36496.17
555.872	36770.6
556.071	36817.7
556.271	36965.15
556.47	36610.85
556.67	36481.83
556.869	36623.14
557.068	36840.23
557.268	36311.85
557.467	36836.13
557.667	36526.89
557.866	36348.71
558.065	36344.62
558.265	35879.73
558.464	36223.79
558.663	36332.33
558.863	35965.74
559.062	36555.56
559.261	35652.41
559.461	36414.25
559.66	35887.92
559.859	36033.33
560.058	35570.49
560.258	35783.48
560.457	35945.26
560.656	36205.36
560.855	35670.84
561.054	35783.48
561.253	35509.05
561.453	35849.01
561.652	35879.73
561.851	35689.27
562.05	35433.27
562.249	35078.97
562.448	35771.19
562.647	35461.94
562.846	35107.65
563.045	35365.69
563.244	34822.98
563.443	35251
563.642	34984.77
563.841	35107.65
564.04	34892.61
564.239	35113.79
564.438	34743.11
564.637	34788.16
564.836	34779.97
565.035	34454.34
565.234	34560.84
565.432	34579.27
565.631	34761.54
565.83	34290.51
566.029	34159.44
566.228	34595.65
566.427	34628.42
566.625	34104.14
566.824	33403.74
567.023	34280.27
567.222	33751.89
567.42	33999.69
567.619	33729.36
567.818	33801.04
568.016	33620.82
568.215	34028.37
568.414	33442.65
568.612	33520.47
568.811	33182.55
569.01	33674.07
569.208	32627.56
569.407	33536.85
569.605	32944.99
569.804	33338.2
570.002	32822.11
570.201	32850.78
570.4	32838.5
570.598	32881.5
570.797	32451.43
570.995	32658.27
571.193	32449.38
571.392	32500.58
571.59	32187.24
571.789	32396.13
571.987	32377.7
572.186	32682.85
572.384	31794.03
572.582	32047.98
572.781	32152.43
572.979	31660.91
573.177	32031.6
573.376	32109.42
573.574	31562.61
573.772	32013.16
573.971	31488.88
574.169	31390.58
574.367	31437.69
574.565	31646.58
574.763	31232.89
574.962	31535.99
575.16	31042.43
575.358	31277.94
575.556	30770.05
575.754	31216.5
575.952	30735.23
576.151	30798.72
576.349	30593.92
576.547	30512
576.745	31163.26
576.943	30587.78
577.141	30147.47
577.339	30602.11
577.537	30342.02
577.735	30184.33
577.933	29987.72
578.131	30425.99
578.329	29725.58
578.527	29881.23
578.725	29860.75
578.923	29909.9
579.121	29627.28
579.319	29385.62
579.516	29819.79
579.714	29758.35
579.912	29506.45
580.11	29195.16
580.308	29508.5
580.506	29512.59
580.704	28910.49
580.901	29131.67
581.099	29711.25
581.297	29016.99
581.495	28773.28
581.692	29023.13
581.89	28494.75
582.088	28957.6
582.285	28433.32
582.483	29070.23
582.681	28418.98
582.878	28545.95
583.076	28285.86
583.274	28253.09
583.471	27866.03
583.669	28259.24
583.866	28074.92
584.064	28255.14
584.262	27663.28
584.459	28111.78
584.657	27583.41
584.854	28087.21
585.052	27319.22
585.249	27872.17
585.447	27755.44
585.644	27095.99
585.841	27280.31
586.039	27284.4
586.236	26905.53
586.434	27407.28
586.631	26780.6
586.828	27055.03
587.026	27122.62
587.223	26962.87
587.42	26678.21
587.618	26938.3
587.815	26559.42
588.012	26086.34
588.21	26371.01
588.407	26366.92
588.604	26125.25
588.801	25963.47
588.999	25979.85
589.196	25883.59
589.393	26149.83
589.59	26102.73
589.787	25850.83
589.984	25471.95
590.182	25484.24
590.379	25959.37
590.576	25625.55
590.773	25543.63
590.97	25344.98
591.167	25451.47
591.364	25232.34
591.561	25418.71
591.758	25017.3
591.955	24910.81
592.152	25467.86
592.349	25062.36
592.546	24941.53
592.743	24865.75
592.94	24785.88
593.137	25031.64
593.334	24859.61
593.531	24269.79
593.727	24712.16
593.924	24515.55
594.121	24415.2
594.318	24409.06
594.515	24030.18
594.712	24364
594.908	24062.95
595.105	24210.4
595.302	24030.18
595.499	24296.42
595.696	23950.31
595.892	23665.64
596.089	23555.05
596.286	23442.42
596.482	23858.15
596.679	23700.46
596.876	23491.57
597.072	23372.78
597.269	23401.46
597.466	23342.07
597.662	23147.51
597.859	23286.77
598.055	23098.36
598.252	22981.62
598.448	23043.06
598.645	22746.11
598.841	22684.67
599.038	22725.63
599.234	22676.48
599.431	22680.57
599.627	22510.59
599.824	22543.36
600.02	22391.81
600.217	22363.14
600.413	22166.53
600.609	22330.37
600.806	22125.57
601.002	22094.85
601.198	22057.99
601.395	21744.65
601.591	21691.4
601.787	21820.42
601.984	21668.87
602.18	21965.83
602.376	21468.17
602.572	21502.99
602.769	21386.26
602.965	21466.13
603.161	21617.68
603.357	21181.46
603.553	21279.76
603.75	21093.4
603.946	20960.28
604.142	20939.8
604.338	20874.26
604.534	21042.2
604.73	20542.49
604.926	20784.15
605.122	20993.04
605.318	20548.64
605.514	20466.72
605.71	20419.61
605.906	20665.37
606.102	20372.51
606.298	20427.81
606.494	20419.61
606.69	20489.24
606.886	20206.62
607.082	20143.14
607.278	20093.99
607.474	19827.75
607.67	20167.71
607.866	19805.22
608.062	20270.11
608.257	19868.71
608.453	19872.81
608.649	20040.74
608.845	19668.01
609.041	19948.58
609.236	19688.49
609.432	19786.79
609.628	19647.53
609.824	19530.8
610.019	19409.97
610.215	19393.58
610.411	19723.3
610.606	19364.91
610.802	19057.71
610.998	19246.13
611.193	19141.68
611.389	19018.8
611.584	19000.37
611.78	18981.94
611.976	19092.53
612.171	19282.99
612.367	19321.9
612.562	18879.54
612.758	18654.26
612.953	18809.91
613.149	18957.36
613.344	18697.27
613.539	19215.41
613.735	18852.92
613.93	18797.62
614.126	18676.79
614.321	18840.63
614.517	18697.27
614.712	18615.35
614.907	18551.87
615.103	18660.41
615.298	18605.11
615.493	18678.84
615.688	18304.06
615.884	18576.44
616.079	18351.17
616.274	18510.91
616.47	18336.83
616.665	18420.8
616.86	18082.88
617.055	18252.86
617.25	18246.72
617.445	17966.15
617.641	17835.08
617.836	18060.35
618.031	17914.95
618.226	18136.13
618.421	17753.16
618.616	17890.37
618.811	17675.34
619.006	17960
619.201	17669.19
619.396	17706.06
619.591	17224.78
619.786	17282.13
619.981	17132.62
620.176	17415.24
620.371	17067.09
620.566	17300.56
620.761	17048.66
620.956	17382.48
621.151	16841.81
621.346	17177.68
621.541	16768.09
621.735	16817.24
621.93	16397.4
622.125	16682.07
622.32	16432.22
622.515	16487.51
622.709	16247.9
622.904	16229.47
623.099	15697
623.294	16200.8
623.488	15922.27
623.683	16055.39
623.878	15830.12
624.072	15676.52
624.267	15701.09
624.462	15633.51
624.656	15490.15
624.851	15531.11
625.046	15193.2
625.24	15221.87
625.435	15084.66
625.629	15053.94
625.824	14988.4
626.018	14922.87
626.213	14767.22
626.407	14711.92
626.602	14509.18
626.796	14662.77
626.991	14539.9
627.185	14351.48
627.38	14398.59
627.574	14134.4
627.768	13857.92
627.963	14001.28
628.157	13935.74
628.352	13882.5
628.546	13913.22
628.74	13653.12
628.935	13577.35
629.129	13829.25
629.323	13464.71
629.517	13495.43
629.712	13503.62
629.906	13468.81
630.1	13253.77
630.294	13388.94
630.489	13393.03
630.683	13235.34
630.877	13028.49
631.071	13038.73
631.265	12870.8
631.459	12905.62
631.653	12848.27
631.848	12657.81
632.042	12614.8
632.236	12448.92
632.43	12508.31
632.624	12414.1
632.818	12491.93
633.012	12504.21
633.206	12272.79
633.4	12233.88
633.594	12199.07
633.788	11996.32
633.982	12276.89
634.176	12012.7
634.369	11977.89
634.563	12076.19
634.757	11914.4
634.951	11703.46
635.145	11652.26
635.339	11711.65
635.533	11551.91
635.726	11689.12
635.92	11365.54
636.114	11343.02
636.308	11386.02
636.501	11408.55
636.695	11297.96
636.889	11142.32
637.083	11166.89
637.276	11003.05
637.47	10890.42
637.664	10775.73
637.857	11074.73
638.051	10859.7
638.244	10615.99
638.438	10804.4
638.632	10695.86
638.825	10491.06
639.019	10491.06
639.212	10486.97
639.406	10443.96
639.599	10417.33
639.793	10359.99
639.986	10325.18
640.18	10147
640.373	10294.46
640.567	9946.3
640.76	9995.45
640.954	10073.28
641.147	9807.04
641.34	9755.84
641.534	9843.9
641.727	9802.94
641.92	9723.07
642.114	9776.32
642.307	9577.67
642.5	9688.26
642.694	9366.73
642.887	9290.95
643.08	9559.24
643.273	9358.53
643.467	9317.58
643.66	9288.9
643.853	9258.18
644.046	9174.22
644.239	9301.19
644.432	9129.16
644.626	9043.15
644.819	8942.8
645.012	8887.5
645.205	8824.01
645.398	8756.43
645.591	8799.44
645.784	9034.96
645.977	8492.24
646.17	8676.56
646.363	8508.63
646.556	8377.56
646.749	8561.87
646.942	8570.07
647.135	8400.09
647.328	8529.11
647.521	8352.98
647.714	8283.35
647.907	8510.68
648.099	8328.41
648.292	8369.37
648.485	8035.55
648.678	8047.83
648.871	8129.75
649.064	8223.96
649.256	8047.83
649.449	7931.1
649.642	7828.7
649.835	7888.09
650.027	7929.05
650.22	7959.77
650.413	7748.83
650.605	7650.53
650.798	7541.99
650.991	7521.51
651.183	7718.11
651.376	7640.29
651.568	7738.59
651.761	7537.89
651.954	7435.49
652.146	7449.83
652.339	7277.8
652.531	7435.49
652.724	7089.39
652.916	7161.06
653.109	7197.93
653.301	7273.7
653.494	7085.29
653.686	6905.07
653.879	7093.48
654.071	7017.71
654.263	6886.64
654.456	7007.47
654.648	6974.7
654.84	6853.87
655.033	6817.01
655.225	6706.41
655.417	6530.29
655.61	6864.11
655.802	6677.74
655.994	6636.78
656.186	6606.06
656.379	6649.07
656.571	6751.47
656.763	6618.35
656.955	6370.55
657.148	6499.57
657.34	6425.84
657.532	6438.13
657.724	6311.16
657.916	6489.33
658.108	6339.83
658.3	6360.31
658.492	6358.26
658.684	6030.59
658.876	6171.9
659.068	6092.02
659.26	6178.04
659.452	5979.39
659.644	6096.12
659.836	6171.9
660.028	6104.31
660.22	6001.91
660.412	5895.42
660.604	5956.86
660.796	5862.65
660.988	5760.25
661.18	5952.76
661.372	5756.16
661.563	5967.1
661.755	5702.91
661.947	5569.79
662.139	5680.38
662.331	5661.95
662.522	5647.62
662.714	5635.33
662.906	5442.82
663.097	5395.71
663.289	5397.76
663.481	5426.43
663.673	5520.64
663.864	5487.87
664.056	5264.64
664.247	5235.97
664.439	5319.94
664.631	5356.8
664.822	5313.8
665.014	5358.85
665.205	5256.45
665.397	5221.64
665.588	5362.95
665.78	5162.25
665.971	5235.97
666.163	5137.67
666.354	5115.14
666.546	5094.66
666.737	5000.46
666.929	5145.86
667.12	5043.46
667.311	5018.89
667.503	4916.49
667.694	5012.74
667.885	4969.74
668.077	4936.97
668.268	4838.67
668.459	4885.77
668.651	4824.33
668.842	4832.52
669.033	4904.2
669.224	4838.67
669.416	4891.91
669.607	4705.55
669.798	4734.22
669.989	4805.9
670.18	4801.8
670.371	4594.96
670.563	4611.34
670.754	4805.9
670.945	4629.77
671.136	4703.5
671.327	4648.21
671.518	4633.87
671.709	4510.99
671.9	4527.38
672.091	4656.4
672.282	4646.16
672.473	4549.9
672.664	4658.45
672.855	4648.21
673.046	4578.58
673.237	4357.39
673.428	4592.91
673.619	4365.59
673.809	4431.12
674	4267.28
674.191	4412.69
674.382	4367.63
674.573	4482.32
674.764	4273.43
674.954	4504.85
675.145	4441.36
675.336	4248.85
675.527	4400.4
675.717	4406.55
675.908	4113.69
676.099	4420.88
676.289	4250.9
676.48	4234.52
676.671	4199.7
676.861	4078.87
677.052	4117.78
677.243	4252.95
677.433	4160.79
677.624	4189.46
677.814	4117.78
678.005	4144.41
678.195	4130.07
678.386	4080.92
678.576	4054.3
678.767	4099.35
678.957	4132.12
679.148	4099.35
679.338	4152.6
679.529	4138.26
679.719	4072.73
679.909	4111.64
680.1	4125.97
680.29	4107.54
680.481	4050.2
680.671	4064.54
680.861	4013.34
681.052	4105.49
681.242	3888.41
681.432	4089.11
681.622	4037.91
681.813	4003.1
682.003	4103.45
682.193	3996.95
682.383	3908.89
682.573	3968.28
682.764	3935.51
682.954	4029.72
683.144	3923.23
683.334	3777.82
683.524	3876.12
683.714	4017.43
683.904	3853.59
684.094	3939.61
684.284	3980.57
684.474	3986.71
684.664	3886.36
684.854	3960.09
685.044	3863.83
685.234	3814.68
685.424	3896.6
685.614	3888.41
685.804	3945.75
685.994	3919.13
686.184	3915.03
686.374	3865.88
686.564	3831.07
686.753	3708.19
686.943	3634.46
687.133	3708.19
687.323	3620.13
687.513	3865.88
687.702	3753.24
687.892	3665.18
688.082	3800.35
688.272	3570.97
688.461	3679.52
688.651	3683.61
688.841	3642.65
689.03	3683.61
689.22	3564.83
689.41	3587.36
689.599	3579.17
689.789	3499.3
689.979	3530.02
690.168	3431.71
690.358	3452.19
690.547	3400.99
690.737	3532.06
690.926	3517.73
691.116	3405.09
691.305	3560.73
691.495	3343.65
691.684	3409.19
691.874	3349.79
692.063	3362.08
692.252	3241.25
692.442	3261.73
692.631	3331.36
692.82	3400.99
693.01	3276.07
693.199	3286.31
693.388	3071.27
693.578	3114.28
693.767	3198.24
693.956	3167.52
694.146	2972.97
694.335	3042.6
694.524	3097.89
694.713	3091.75
694.902	2956.58
695.092	3106.09
695.281	3030.31
695.47	3026.22
695.659	3093.8
695.848	2966.82
696.037	3018.02
696.226	3003.69
696.415	2936.1
696.604	3106.09
696.793	2995.5
696.982	2995.5
697.171	3179.81
697.36	2921.77
697.549	2956.58
697.738	3054.89
697.927	3013.93
698.116	2948.39
698.305	2944.3
698.494	3001.64
698.683	2952.49
698.872	2940.2
699.061	2786.6
699.25	2985.26
699.438	2938.15
699.627	3005.74
699.816	2999.59
700.005	2837.8
700.193	2850.09
700.382	2977.06
700.571	2874.67
700.76	2915.62
700.948	2925.86
701.137	2848.04
701.326	2866.47
701.514	2778.41
701.703	2891.05
701.892	2712.88
702.08	2964.78
702.269	2864.43
702.457	2790.7
702.646	2807.08
702.834	2725.16
703.023	2719.02
703.212	2749.74
703.4	2882.86
703.589	2815.27
703.777	2862.38
703.965	2864.43
704.154	2852.14
704.342	2845.99
704.531	2798.89
704.719	2952.49
704.907	2911.53
705.096	2749.74
705.284	2770.22
705.472	2827.56
705.661	2819.37
705.849	2874.67
706.037	2721.07
706.226	2770.22
706.414	2727.21
706.602	2778.41
706.79	2809.13
706.979	2739.5
707.167	2745.64
707.355	2692.4
707.543	2811.18
707.731	2770.22
707.919	2817.32
708.107	2659.63
708.296	2692.4
708.484	2745.64
708.672	2714.92
708.86	2823.47
709.048	2913.58
709.236	2721.07
709.424	2843.95
709.612	2823.47
709.8	2755.88
709.988	2663.72
710.176	2739.5
710.364	2880.81
710.551	2741.55
710.739	2727.21
710.927	2721.07
711.115	2805.03
711.303	2782.51
711.491	2647.34
711.679	2622.77
711.866	2702.64
712.054	2784.55
712.242	2702.64
712.43	2762.03
712.617	2784.55
712.805	2719.02
712.993	2776.36
713.181	2657.58
713.368	2788.65
713.556	2731.31
713.744	2688.3
713.931	2802.99
714.119	2673.96
714.306	2733.36
714.494	2665.77
714.682	2815.27
714.869	2620.72
715.057	2743.6
715.244	2688.3
715.432	2770.22
715.619	2630.96
715.807	2686.25
715.994	2798.89
716.182	2678.06
716.369	2688.3
716.556	2749.74
716.744	2696.49
716.931	2512.18
717.119	2719.02
717.306	2727.21
717.493	2635.05
717.681	2757.93
717.868	2723.12
718.055	2669.87
718.242	2649.39
718.43	2737.45
718.617	2669.87
718.804	2692.4
718.991	2655.53
719.179	2821.42
719.366	2714.92
719.553	2661.68
719.74	2643.24
719.927	2598.19
720.114	2655.53
720.301	2710.83
720.488	2534.7
720.676	2635.05
720.863	2690.35
721.05	2706.73
721.237	2641.2
721.424	2788.65
721.611	2630.96
721.798	2635.05
721.985	2759.98
722.172	2590
722.358	2686.25
722.545	2696.49
722.732	2686.25
722.919	2700.59
723.106	2751.79
723.293	2661.68
723.48	2673.96
723.667	2667.82
723.853	2604.33
724.04	2723.12
724.227	2676.01
724.414	2714.92
724.6	2708.78
724.787	2643.24
724.974	2827.56
725.161	2716.97
725.347	2622.77
725.534	2768.17
725.72	2528.56
725.907	2764.08
726.094	2708.78
726.28	2762.03
726.467	2637.1
726.653	2755.88
726.84	2626.86
727.027	2837.8
727.213	2651.44
727.4	2753.84
727.586	2721.07
727.773	2702.64
727.959	2692.4
728.145	2809.13
728.332	2716.97
728.518	2569.52
728.705	2768.17
728.891	2755.88
729.077	2708.78
729.264	2708.78
729.45	2743.6
729.636	2819.37
729.823	2676.01
730.009	2712.88
730.195	2635.05
730.382	2821.42
730.568	2618.67
730.754	2800.94
730.94	2690.35
731.126	2745.64
731.313	2616.62
731.499	2678.06
731.685	2723.12
731.871	2780.46
732.057	2831.66
732.243	2835.75
732.429	2676.01
732.615	2848.04
732.801	2657.58
732.987	2694.44
733.173	2798.89
733.359	2751.79
733.545	2665.77
733.731	2772.27
733.917	2776.36
734.103	2751.79
734.289	2850.09
734.475	2811.18
734.661	2929.96
734.847	2731.31
735.033	2747.69
735.219	2688.3
735.404	2716.97
735.59	2673.96
735.776	2630.96
735.962	2743.6
736.148	2798.89
736.333	2735.4
736.519	2708.78
736.705	2897.19
736.89	2637.1
737.076	2719.02
737.262	2915.62
737.447	2817.32
737.633	2745.64
737.819	2747.69
738.004	2792.75
738.19	2821.42
738.375	2737.45
738.561	2860.33
738.747	2815.27
738.932	2723.12
739.118	2755.88
739.303	2735.4
739.489	2690.35
739.674	2639.15
739.859	2776.36
740.045	2884.91
740.23	2782.51
740.416	2649.39
740.601	2727.21
740.786	2708.78
740.972	2696.49
741.157	2821.42
741.342	2696.49
741.528	2794.79
741.713	2889
741.898	2735.4
742.084	2817.32
742.269	2690.35
742.454	2587.95
742.639	2704.68
742.824	2661.68
743.01	2727.21
743.195	2700.59
743.38	2606.38
743.565	2678.06
743.75	2798.89
743.935	2690.35
744.12	2614.57
744.305	2716.97
744.49	2637.1
744.675	2626.86
744.86	2680.11
745.045	2614.57
745.23	2614.57
745.415	2620.72
745.6	2702.64
745.785	2477.36
745.97	2536.75
746.155	2563.37
746.34	2487.6
746.525	2485.55
746.71	2635.05
746.895	2512.18
747.079	2422.06
747.264	2479.41
747.449	2557.23
747.634	2602.29
747.819	2536.75
748.003	2542.89
748.188	2428.21
748.373	2331.95
748.557	2413.87
748.742	2370.87
748.927	2393.39
749.111	2393.39
749.296	2372.91
749.481	2530.61
749.665	2338.1
749.85	2295.09
750.034	2327.86
750.219	2331.95
750.404	2313.52
750.588	2215.22
750.773	2170.16
750.957	2336.05
751.141	2299.19
751.326	2262.32
751.51	2116.92
751.695	2245.94
751.879	2157.88
752.064	2112.82
752.248	2202.93
752.432	2215.22
752.617	2200.88
752.801	2145.59
752.985	2190.64
753.17	2102.58
753.354	2155.83
753.538	2139.44
753.722	1977.66
753.907	1936.7
754.091	1854.78
754.275	2002.23
754.459	1987.89
754.643	1987.89
754.828	1860.92
755.012	1975.61
755.196	1977.66
755.38	1942.84
755.564	1936.7
755.748	1922.36
755.932	1897.78
756.116	1914.17
756.3	1908.02
756.484	1822.01
756.668	1910.07
756.852	1795.39
757.036	1934.65
757.22	1817.91
757.404	1813.82
757.588	1830.2
757.772	1848.63
757.956	1787.19
758.14	1748.28
758.323	1660.22
758.507	1690.94
758.691	1645.88
758.875	1826.11
759.059	1844.54
759.242	1721.66
759.426	1674.56
759.61	1641.79
759.794	1682.75
759.977	1619.26
760.161	1682.75
760.345	1660.22
760.528	1658.17
760.712	1549.63
760.895	1697.08
761.079	1633.6
761.263	1586.49
761.446	1531.2
761.63	1613.12
761.813	1584.45
761.997	1496.38
762.18	1502.53
762.364	1664.32
762.547	1500.48
762.731	1586.49
762.914	1551.68
763.098	1484.09
763.281	1477.95
763.464	1625.4
763.648	1381.7
763.831	1520.96
764.015	1518.91
764.198	1510.72
764.381	1506.62
764.564	1518.91
764.748	1539.39
764.931	1500.48
765.114	1443.14
765.297	1416.51
765.481	1424.7
765.664	1369.41
765.847	1287.49
766.03	1410.37
766.213	1342.78
766.397	1275.2
766.58	1441.09
766.763	1434.94
766.946	1371.46
767.129	1365.31
767.312	1412.42
767.495	1381.7
767.678	1389.89
767.861	1285.44
768.044	1432.9
768.227	1301.83
768.41	1416.51
768.593	1291.59
768.776	1348.93
768.959	1260.87
769.142	1283.39
769.324	1275.2
769.507	1199.43
769.69	1291.59
769.873	1215.81
770.056	1400.13
770.239	1254.72
770.421	1334.59
770.604	1318.21
770.787	1242.43
770.97	1275.2
771.152	1183.04
771.335	1176.9
771.518	1144.13
771.7	1363.26
771.883	1224
772.066	1230.15
772.248	1230.15
772.431	1256.77
772.613	1207.62
772.796	1148.23
772.978	1092.93
773.161	1269.06
773.343	1234.24
773.526	1232.19
773.708	1152.32
773.891	1129.8
774.073	1133.89
774.256	1176.9
774.438	1123.65
774.621	972.1
774.803	1105.22
774.985	1084.74
775.168	1066.31
775.35	1086.79
775.532	1119.56
775.715	1058.12
775.897	1011.01
776.079	990.53
776.261	1023.3
776.444	1051.97
776.626	1017.16
776.808	974.15
776.99	961.86
777.173	1008.97
777.355	1004.87
777.537	963.91
777.719	918.86
777.901	947.53
778.083	984.39
778.265	898.38
778.447	927.05
778.629	904.52
778.811	908.62
778.993	869.7
779.175	974.15
779.357	941.38
779.539	843.08
779.721	902.47
779.903	847.18
780.085	902.47
780.267	777.55
780.449	802.12
780.631	898.38
780.812	904.52
780.994	894.28
781.176	806.22
781.358	832.84
781.54	861.51
781.721	787.79
781.903	779.59
782.085	779.59
782.267	732.49
782.448	826.7
782.63	791.88
782.812	699.72
782.993	773.45
783.175	728.39
783.357	761.16
783.538	814.41
783.72	748.87
783.901	769.35
784.083	787.79
784.264	824.65
784.446	603.47
784.627	634.19
784.809	671.05
784.99	642.38
785.172	636.24
785.353	605.52
785.535	724.3
785.716	712.01
785.897	660.81
786.079	638.28
786.26	722.25
786.441	609.61
786.623	656.72
786.804	648.52
786.985	601.42
787.167	619.85
787.348	531.79
787.529	615.76
787.71	720.2
787.891	605.52
788.073	548.17
788.254	552.27
788.435	607.56
788.616	597.32
788.797	499.02
788.978	570.7
789.159	544.08
789.34	527.69
789.522	574.8
789.703	652.62
789.884	552.27
790.065	503.12
790.246	634.19
790.427	480.59
790.607	499.02
790.788	539.98
790.969	486.73
791.15	564.56
791.331	499.02
791.512	435.53
791.693	474.45
791.874	476.49
792.054	539.98
792.235	472.4
792.416	431.44
792.597	413.01
792.778	466.25
792.958	511.31
793.139	517.45
793.32	453.97
793.5	408.91
793.681	503.12
793.862	523.6
794.042	437.58
794.223	302.42
794.404	408.91
794.584	460.11
794.765	374.1
794.945	413.01
795.126	427.34
795.306	517.45
795.487	468.3
795.667	494.93
795.848	406.86
796.028	433.49
796.209	468.3
796.389	466.25
796.57	449.87
796.75	427.34
796.93	447.82
797.111	347.47
797.291	431.44
797.471	421.2
797.652	388.43
797.832	468.3
798.012	417.1
798.192	425.29
798.373	413.01
798.553	277.84
798.733	388.43
798.913	406.86
799.093	437.58
799.274	361.81
799.454	396.62
799.634	386.38
799.814	365.9
799.994	404.82
800.174	417.1
800.354	464.21
800.534	349.52
800.714	318.8
800.894	300.37
801.074	359.76
801.254	335.18
801.434	359.76
801.614	339.28
801.794	320.85
801.974	994.63
802.154	370
802.334	394.58
802.514	357.71
802.693	343.38
802.873	296.27
803.053	337.23
803.233	351.57
803.413	376.14
803.592	306.51
803.772	298.32
803.952	347.47
804.131	267.6
804.311	310.61
804.491	306.51
804.67	331.09
804.85	290.13
805.03	425.29
805.209	310.61
805.389	240.98
805.568	265.55
805.748	257.36
805.928	310.61
806.107	361.81
806.287	388.43
806.466	290.13
806.646	308.56
806.825	271.7
807.004	286.03
807.184	306.51
807.363	281.94
807.543	245.07
807.722	277.84
807.901	286.03
808.081	316.75
808.26	249.17
808.439	300.37
808.619	314.7
808.798	265.55
808.977	306.51
809.156	281.94
809.336	310.61
809.515	312.66
809.694	228.69
809.873	230.74
810.052	304.46
810.231	345.42
810.411	310.61
810.59	310.61
810.769	202.07
810.948	230.74
811.127	189.78
811.306	236.88
811.485	204.11
811.664	298.32
811.843	226.64
812.022	253.27
812.201	230.74
812.38	265.55
812.559	245.07
812.737	296.27
812.916	269.65
813.095	200.02
813.274	279.89
813.453	292.18
813.632	249.17
813.811	267.6
813.989	249.17
814.168	157.01
814.347	247.12
814.526	226.64
814.704	257.36
814.883	200.02
815.062	200.02
815.24	240.98
815.419	236.88
815.598	245.07
815.776	220.5
815.955	200.02
816.133	234.83
816.312	210.26
816.49	189.78
816.669	173.39
816.847	185.68
817.026	191.83
817.204	261.46
817.383	230.74
817.561	189.78
817.74	175.44
817.918	146.77
818.097	185.68
818.275	200.02
818.453	167.25
818.632	185.68
818.81	101.72
818.988	187.73
819.167	173.39
819.345	228.69
819.523	208.21
819.701	179.54
819.879	152.91
820.058	202.07
820.236	236.88
820.414	157.01
820.592	181.59
820.77	259.41
820.948	193.87
821.127	130.39
821.305	109.91
821.483	216.4
821.661	187.73
821.839	163.15
822.017	128.34
822.195	134.48
822.373	101.72
822.551	171.35
822.729	157.01
822.907	171.35
823.085	179.54
823.262	171.35
823.44	109.91
823.618	212.31
823.796	105.81
823.974	101.72
824.152	193.87
824.329	118.1
824.507	124.24
824.685	175.44
824.863	173.39
825.04	136.53
825.218	144.72
825.396	126.29
825.574	165.2
825.751	114
825.929	193.87
826.107	116.05
826.284	210.26
826.462	134.48
826.639	107.86
826.817	109.91
826.994	111.96
827.172	111.96
827.349	208.21
827.527	167.25
827.704	99.67
827.882	157.01
828.059	185.68
828.237	197.97
828.414	152.91
828.591	154.96
828.769	240.98
828.946	204.11
829.124	179.54
829.301	161.11
829.478	105.81
829.655	189.78
829.833	185.68
830.01	120.15
830.187	122.2
830.364	103.76
830.542	144.72
830.719	175.44
830.896	93.52
831.073	187.73
831.25	132.44
831.427	118.1
831.604	101.72
831.782	114
831.959	132.44
832.136	95.57
832.313	140.63
832.49	152.91
832.667	124.24
832.844	97.62
833.021	120.15
833.198	191.83
833.374	144.72
833.551	73.04
833.728	152.91
833.905	138.58
834.082	99.67
834.259	40.28
834.436	159.06
834.612	91.48
834.789	169.3
834.966	111.96
835.143	107.86
835.319	83.28
835.496	120.15
835.673	124.24
835.85	126.29
836.026	103.76
836.203	146.77
836.38	91.48
836.556	144.72
836.733	128.34
836.909	134.48
837.086	42.32
837.262	83.28
837.439	130.39
837.616	111.96
837.792	122.2
837.968	191.83
838.145	83.28
838.321	40.28
838.498	99.67
838.674	136.53
838.851	116.05
839.027	52.56
839.203	-17.07
839.38	75.09
839.556	58.71
839.732	89.43
839.909	21.85
840.085	103.76
840.261	58.71
840.437	83.28
840.614	71
840.79	87.38
840.966	212.31
841.142	97.62
841.318	75.09
841.494	79.19
841.671	114
841.847	54.61
842.023	120.15
842.199	107.86
842.375	138.58
842.551	132.44
842.727	3.41
842.903	114
843.079	19.8
843.255	109.91
843.431	97.62
843.607	105.81
843.783	122.2
843.959	73.04
844.134	60.76
844.31	97.62
844.486	95.57
844.662	-25.26
844.838	142.68
845.013	79.19
845.189	91.48
845.365	27.99
845.541	66.9
845.716	77.14
845.892	83.28
846.068	73.04
846.244	71
846.419	124.24
846.595	114
846.77	30.04
846.946	114
847.122	93.52
847.297	97.62
847.473	85.33
847.648	9.56
847.824	56.66
847.999	-17.07
848.175	83.28
848.35	154.96
848.526	73.04
848.701	46.42
848.876	105.81
849.052	99.67
849.227	56.66
849.403	42.32
849.578	79.19
849.753	9.56
849.929	34.13
850.104	97.62
850.279	142.68
850.454	116.05
850.63	40.28
850.805	103.76
850.98	101.72
851.155	83.28
851.33	30.04
851.505	23.89
851.681	79.19
851.856	44.37
852.031	46.42
852.206	58.71
852.381	-8.87
852.556	-0.68
852.731	195.92
852.906	89.43
853.081	89.43
853.256	109.91
853.431	89.43
853.606	-2.73
853.781	23.89
853.956	25.94
854.131	124.24
854.305	27.99
854.48	101.72
854.655	73.04
854.83	54.61
855.005	-8.87
855.18	13.65
855.354	64.85
855.529	62.8
855.704	-60.07
855.879	79.19
856.053	5.46
856.228	114
856.403	27.99
856.577	118.1
856.752	68.95
856.926	32.08
857.101	30.04
857.276	-43.69
857.45	-25.26
857.625	58.71
857.799	21.85
857.974	95.57
858.148	30.04
858.323	-25.26
858.497	-17.07
858.672	38.23
858.846	44.37
859.02	138.58
859.195	27.99
859.369	66.9
859.543	58.71
859.718	109.91
859.892	-6.83
860.066	21.85
860.241	-15.02
860.415	118.1
860.589	48.47
860.763	23.89
860.938	-17.07
861.112	60.76
861.286	77.14
861.46	109.91
861.634	44.37
861.808	50.52
861.982	60.76
862.157	62.8
862.331	116.05
862.505	79.19
862.679	-15.02
862.853	132.44
863.027	54.61
863.201	66.9
863.375	101.72
863.549	-2.73
863.722	15.7
863.896	60.76
864.07	13.65
864.244	66.9
864.418	58.71
864.592	118.1
864.766	44.37
864.939	27.99
865.113	25.94
865.287	42.32
865.461	52.56
865.634	107.86
865.808	114
865.982	114
866.156	7.51
866.329	83.28
866.503	48.47
866.676	38.23
866.85	-41.64
867.024	-15.02
867.197	101.72
867.371	21.85
867.544	48.47
867.718	11.61
867.891	13.65
868.065	-49.83
868.238	30.04
868.412	99.67
868.585	1.37
868.759	58.71
868.932	1.37
869.105	54.61
869.279	15.7
869.452	25.94
869.625	-4.78
869.799	46.42
869.972	-29.35
870.145	48.47
870.319	-0.68
870.492	25.94
870.665	7.51
870.838	54.61
871.011	21.85
871.185	111.96
871.358	19.8
871.531	9.56
871.704	38.23
871.877	-0.68
872.05	-27.31
872.223	-4.78
872.396	-39.59
872.569	79.19
872.742	79.19
872.915	17.75
873.088	25.94
873.261	21.85
873.434	46.42
873.607	34.13
873.78	40.28
873.953	42.32
874.126	66.9
874.299	40.28
874.471	77.14
874.644	21.85
874.817	93.52
874.99	56.66
875.163	62.8
875.335	42.32
875.508	27.99
875.681	58.71
875.853	-15.02
876.026	50.52
876.199	-27.31
876.371	48.47
876.544	15.7
876.717	58.71
876.889	91.48
877.062	34.13
877.234	-2.73
877.407	44.37
877.579	54.61
877.752	-19.11
877.924	40.28
878.097	15.7
878.269	-15.02
878.442	-17.07
878.614	11.61
878.786	62.8
878.959	5.46
879.131	44.37
879.303	-6.83
879.476	23.89
879.648	85.33
879.82	21.85
879.993	11.61
880.165	-21.16
880.337	42.32
880.509	48.47
880.681	-23.21
880.854	9.56
881.026	19.8
881.198	23.89
881.37	52.56
881.542	-45.74
881.714	46.42
881.886	36.18
882.058	58.71
882.23	32.08
882.402	-37.55
882.574	91.48
882.746	9.56
882.918	66.9
883.09	83.28
883.262	15.7
883.434	-76.46
883.606	-6.83
883.778	58.71
883.95	75.09
884.122	46.42
884.293	40.28
884.465	58.71
884.637	60.76
884.809	7.51
884.98	75.09
885.152	34.13
885.324	66.9
885.496	48.47
885.667	75.09
885.839	48.47
886.011	56.66
886.182	-0.68
886.354	48.47
886.525	-0.68
886.697	-33.45
886.869	62.8
887.04	19.8
887.212	21.85
887.383	120.15
887.555	-19.11
887.726	3.41
887.897	52.56
888.069	42.32
888.24	64.85
888.412	5.46
888.583	52.56
888.754	-0.68
888.926	-17.07
889.097	44.37
889.268	17.75
889.44	50.52
889.611	-4.78
889.782	-15.02
889.953	19.8
890.125	42.32
890.296	-8.87
890.467	7.51
890.638	21.85
890.809	25.94
890.98	48.47
891.151	21.85
891.323	48.47
891.494	11.61
891.665	66.9
891.836	54.61
892.007	46.42
892.178	66.9
892.349	27.99
892.52	25.94
892.691	3.41
892.862	-55.98
893.032	-0.68
893.203	46.42
893.374	7.51
893.545	-6.83
893.716	17.75
893.887	-49.83
894.057	-29.35
894.228	30.04
894.399	-35.5
894.57	-8.87
894.74	54.61
894.911	34.13
895.082	-51.88
895.253	-37.55
895.423	52.56
895.594	-15.02
895.764	1.37
895.935	-33.45
896.106	42.32
896.276	56.66
896.447	25.94
896.617	36.18
896.788	34.13
896.958	-10.92
897.129	-10.92
897.299	42.32
897.47	48.47
897.64	-23.21
897.81	-19.11
897.981	13.65
898.151	56.66
898.322	66.9
898.492	64.85
898.662	-21.16
898.832	-76.46
899.003	3.41
899.173	44.37
899.343	-115.37
899.513	-17.07
