Data from USB4F104151__47__12-41-38-782.txt Node

Date: Fri Mar 14 12:41:38 EDT 2025
User: louis
Spectrometer: USB4F10415
Trigger mode: 4
Integration Time (sec): 3.000000E-2
Scans to average: 1
Electric dark correction enabled: true
Nonlinearity correction enabled: false
Boxcar width: 0
XAxis mode: Wavelengths
Number of Pixels in Spectrum: 3648
>>>>>Begin Spectral Data<<<<<
178.204	-76.97
178.424	-76.97
178.644	-76.97
178.864	-74.92
179.084	-156.84
179.304	2.9
179.524	-5.29
179.744	19.29
179.964	9.05
180.184	0.85
180.404	-11.43
180.624	33.62
180.844	-29.87
181.064	2.9
181.283	-72.87
181.503	45.91
181.723	4.95
181.943	-19.63
182.163	113.49
182.383	23.38
182.602	0.85
182.822	111.44
183.042	35.67
183.262	80.72
183.482	99.16
183.701	2.9
183.921	39.76
184.141	19.29
184.361	39.76
184.58	-7.34
184.8	11.09
185.02	-25.77
185.239	58.2
185.459	-1.19
185.679	133.97
185.898	-83.11
186.118	52.05
186.338	64.34
186.557	15.19
186.777	-52.39
186.997	-25.77
187.216	15.19
187.436	107.35
187.655	70.48
187.875	21.33
188.095	-3.24
188.314	17.24
188.534	52.05
188.753	25.43
188.973	-1.19
189.192	119.64
189.412	64.34
189.631	11.09
189.851	-15.53
190.07	78.68
190.29	29.52
190.509	13.14
190.729	-15.53
190.948	95.06
191.168	117.59
191.387	33.62
191.607	29.52
191.826	43.86
192.045	39.76
192.265	47.96
192.484	13.14
192.704	-29.87
192.923	-13.48
193.142	78.68
193.362	54.1
193.581	60.24
193.8	2.9
194.02	21.33
194.239	45.91
194.458	142.16
194.678	-11.43
194.897	113.49
195.116	119.64
195.335	39.76
195.555	-58.54
195.774	82.77
195.993	64.34
196.212	88.92
196.432	-50.35
196.651	78.68
196.87	39.76
197.089	136.02
197.308	50
197.528	29.52
197.747	23.38
197.966	111.44
198.185	88.92
198.404	37.72
198.623	35.67
198.842	68.44
199.062	60.24
199.281	95.06
199.5	15.19
199.719	78.68
199.938	-7.34
200.157	29.52
200.376	23.38
200.595	140.12
200.814	-3.24
201.033	68.44
201.252	54.1
201.471	62.29
201.69	41.81
201.909	-44.2
202.128	31.57
202.347	7
202.566	47.96
202.785	62.29
203.004	11.09
203.223	88.92
203.442	50
203.661	37.72
203.879	19.29
204.098	-11.43
204.317	-38.06
204.536	70.48
204.755	4.95
204.974	50
205.193	-5.29
205.411	82.77
205.63	4.95
205.849	52.05
206.068	62.29
206.287	-19.63
206.505	60.24
206.724	64.34
206.943	31.57
207.162	23.38
207.381	21.33
207.599	54.1
207.818	19.29
208.037	80.72
208.255	17.24
208.474	13.14
208.693	37.72
208.911	41.81
209.13	58.2
209.349	88.92
209.567	62.29
209.786	50
210.005	88.92
210.223	-19.63
210.442	-66.73
210.661	47.96
210.879	111.44
211.098	33.62
211.316	-33.96
211.535	74.58
211.753	95.06
211.972	64.34
212.191	9.05
212.409	78.68
212.628	56.15
212.846	70.48
213.065	82.77
213.283	68.44
213.502	119.64
213.72	17.24
213.938	-9.39
214.157	13.14
214.375	15.19
214.594	2.9
214.812	99.16
215.031	60.24
215.249	21.33
215.467	107.35
215.686	35.67
215.904	66.39
216.122	52.05
216.341	13.14
216.559	95.06
216.778	90.96
216.996	54.1
217.214	25.43
217.432	54.1
217.651	60.24
217.869	-19.63
218.087	86.87
218.306	88.92
218.524	-50.35
218.742	19.29
218.96	156.5
219.179	29.52
219.397	27.48
219.615	148.31
219.833	45.91
220.051	-15.53
220.27	29.52
220.488	-3.24
220.706	0.85
220.924	2.9
221.142	39.76
221.36	76.63
221.578	21.33
221.796	47.96
222.015	97.11
222.233	29.52
222.451	131.92
222.669	-9.39
222.887	64.34
223.105	93.01
223.323	27.48
223.541	25.43
223.759	54.1
223.977	35.67
224.195	115.54
224.413	47.96
224.631	105.3
224.849	101.2
225.067	45.91
225.285	84.82
225.503	-13.48
225.721	2.9
225.939	58.2
226.157	76.63
226.375	99.16
226.592	-1.19
226.81	47.96
227.028	76.63
227.246	93.01
227.464	39.76
227.682	54.1
227.9	19.29
228.117	-9.39
228.335	11.09
228.553	58.2
228.771	68.44
228.989	-1.19
229.206	-7.34
229.424	7
229.642	29.52
229.86	31.57
230.077	86.87
230.295	74.58
230.513	17.24
230.731	25.43
230.948	39.76
231.166	107.35
231.384	29.52
231.601	56.15
231.819	113.49
232.037	-9.39
232.254	-97.45
232.472	-7.34
232.689	9.05
232.907	45.91
233.125	-25.77
233.342	47.96
233.56	-44.2
233.777	103.25
233.995	23.38
234.213	123.73
234.43	70.48
234.648	-3.24
234.865	68.44
235.083	78.68
235.3	43.86
235.518	25.43
235.735	74.58
235.953	62.29
236.17	125.78
236.388	111.44
236.605	15.19
236.822	56.15
237.04	23.38
237.257	68.44
237.475	7
237.692	86.87
237.909	43.86
238.127	23.38
238.344	-15.53
238.562	93.01
238.779	2.9
238.996	-44.2
239.214	56.15
239.431	2.9
239.648	-5.29
239.865	-9.39
240.083	133.97
240.3	56.15
240.517	-56.49
240.735	68.44
240.952	127.83
241.169	19.29
241.386	82.77
241.603	13.14
241.821	27.48
242.038	97.11
242.255	0.85
242.472	2.9
242.689	76.63
242.907	54.1
243.124	86.87
243.341	19.29
243.558	-5.29
243.775	52.05
243.992	29.52
244.209	29.52
244.426	129.88
244.643	15.19
244.86	33.62
245.078	-11.43
245.295	70.48
245.512	80.72
245.729	23.38
245.946	97.11
246.163	72.53
246.38	54.1
246.597	109.4
246.814	19.29
247.031	76.63
247.248	19.29
247.464	21.33
247.681	62.29
247.898	64.34
248.115	39.76
248.332	68.44
248.549	82.77
248.766	109.4
248.983	41.81
249.2	13.14
249.417	90.96
249.633	-11.43
249.85	39.76
250.067	-13.48
250.284	56.15
250.501	68.44
250.717	99.16
250.934	56.15
251.151	113.49
251.368	-5.29
251.585	31.57
251.801	119.64
252.018	37.72
252.235	109.4
252.451	-21.67
252.668	-19.63
252.885	39.76
253.102	146.26
253.318	31.57
253.535	54.1
253.752	2.9
253.968	66.39
254.185	4.95
254.401	-36.01
254.618	60.24
254.835	31.57
255.051	107.35
255.268	31.57
255.484	105.3
255.701	86.87
255.917	7
256.134	-72.87
256.351	45.91
256.567	17.24
256.784	17.24
257	15.19
257.217	103.25
257.433	50
257.65	138.07
257.866	111.44
258.082	-19.63
258.299	7
258.515	82.77
258.732	43.86
258.948	13.14
259.165	13.14
259.381	31.57
259.597	60.24
259.814	-17.58
260.03	4.95
260.246	7
260.463	11.09
260.679	54.1
260.895	43.86
261.112	64.34
261.328	35.67
261.544	-23.72
261.761	62.29
261.977	-42.15
262.193	68.44
262.409	43.86
262.626	-46.25
262.842	-11.43
263.058	35.67
263.274	113.49
263.49	97.11
263.707	78.68
263.923	101.2
264.139	9.05
264.355	74.58
264.571	82.77
264.787	54.1
265.004	156.5
265.22	41.81
265.436	76.63
265.652	25.43
265.868	0.85
266.084	15.19
266.3	50
266.516	-56.49
266.732	17.24
266.948	15.19
267.164	43.86
267.38	86.87
267.596	64.34
267.812	117.59
268.028	86.87
268.244	27.48
268.46	84.82
268.676	31.57
268.892	17.24
269.108	29.52
269.324	-50.35
269.54	-40.11
269.756	74.58
269.972	-25.77
270.188	41.81
270.403	60.24
270.619	11.09
270.835	52.05
271.051	54.1
271.267	9.05
271.483	111.44
271.698	56.15
271.914	37.72
272.13	90.96
272.346	-11.43
272.562	-29.87
272.777	54.1
272.993	66.39
273.209	0.85
273.425	35.67
273.64	37.72
273.856	35.67
274.072	60.24
274.287	-25.77
274.503	15.19
274.719	60.24
274.934	66.39
275.15	-19.63
275.366	62.29
275.581	50
275.797	11.09
276.012	41.81
276.228	107.35
276.444	66.39
276.659	64.34
276.875	-17.58
277.09	15.19
277.306	-52.39
277.521	64.34
277.737	35.67
277.952	90.96
278.168	47.96
278.383	27.48
278.599	27.48
278.814	50
279.03	29.52
279.245	125.78
279.461	78.68
279.676	66.39
279.892	9.05
280.107	37.72
280.322	-11.43
280.538	78.68
280.753	-46.25
280.969	21.33
281.184	33.62
281.399	21.33
281.615	109.4
281.83	41.81
282.045	23.38
282.26	45.91
282.476	-21.67
282.691	37.72
282.906	66.39
283.122	-1.19
283.337	2.9
283.552	78.68
283.767	-11.43
283.983	0.85
284.198	50
284.413	62.29
284.628	86.87
284.843	47.96
285.058	43.86
285.274	-76.97
285.489	50
285.704	93.01
285.919	17.24
286.134	15.19
286.349	9.05
286.564	-19.63
286.779	84.82
286.995	23.38
287.21	-87.21
287.425	95.06
287.64	27.48
287.855	62.29
288.07	-48.3
288.285	95.06
288.5	90.96
288.715	123.73
288.93	25.43
289.145	31.57
289.36	93.01
289.575	50
289.79	84.82
290.004	60.24
290.219	72.53
290.434	54.1
290.649	11.09
290.864	90.96
291.079	50
291.294	56.15
291.509	11.09
291.724	56.15
291.938	76.63
292.153	-13.48
292.368	-7.34
292.583	60.24
292.798	101.2
293.012	-7.34
293.227	72.53
293.442	29.52
293.657	50
293.871	78.68
294.086	52.05
294.301	25.43
294.516	50
294.73	43.86
294.945	-40.11
295.16	54.1
295.374	56.15
295.589	95.06
295.804	-21.67
296.018	56.15
296.233	-42.15
296.447	-17.58
296.662	-11.43
296.877	82.77
297.091	35.67
297.306	-3.24
297.52	45.91
297.735	39.76
297.949	-50.35
298.164	70.48
298.378	7
298.593	23.38
298.807	-40.11
299.022	52.05
299.236	86.87
299.451	68.44
299.665	-48.3
299.88	47.96
300.094	50
300.309	13.14
300.523	33.62
300.737	27.48
300.952	31.57
301.166	97.11
301.381	58.2
301.595	21.33
301.809	29.52
302.024	-13.48
302.238	23.38
302.452	58.2
302.667	15.19
302.881	23.38
303.095	47.96
303.309	82.77
303.524	-13.48
303.738	-23.72
303.952	29.52
304.166	27.48
304.381	-19.63
304.595	93.01
304.809	23.38
305.023	105.3
305.237	23.38
305.452	74.58
305.666	47.96
305.88	97.11
306.094	56.15
306.308	60.24
306.522	33.62
306.736	97.11
306.95	0.85
307.164	66.39
307.379	-27.82
307.593	7
307.807	74.58
308.021	103.25
308.235	90.96
308.449	-25.77
308.663	84.82
308.877	107.35
309.091	13.14
309.305	99.16
309.519	54.1
309.733	136.02
309.947	50
310.161	31.57
310.374	17.24
310.588	109.4
310.802	25.43
311.016	43.86
311.23	-7.34
311.444	-31.91
311.658	86.87
311.872	80.72
312.085	115.54
312.299	95.06
312.513	43.86
312.727	54.1
312.941	15.19
313.154	60.24
313.368	31.57
313.582	23.38
313.796	47.96
314.009	72.53
314.223	60.24
314.437	72.53
314.651	47.96
314.864	-19.63
315.078	54.1
315.292	11.09
315.505	33.62
315.719	27.48
315.933	47.96
316.146	68.44
316.36	74.58
316.573	33.62
316.787	25.43
317.001	15.19
317.214	9.05
317.428	72.53
317.641	-21.67
317.855	60.24
318.068	25.43
318.282	45.91
318.495	37.72
318.709	62.29
318.922	29.52
319.136	97.11
319.349	76.63
319.563	17.24
319.776	15.19
319.99	-33.96
320.203	123.73
320.417	58.2
320.63	125.78
320.843	95.06
321.057	23.38
321.27	50
321.483	54.1
321.697	47.96
321.91	39.76
322.124	13.14
322.337	27.48
322.55	-40.11
322.763	31.57
322.977	60.24
323.19	47.96
323.403	25.43
323.617	19.29
323.83	131.92
324.043	7
324.256	76.63
324.469	-21.67
324.683	95.06
324.896	-9.39
325.109	0.85
325.322	15.19
325.535	64.34
325.748	125.78
325.962	-31.91
326.175	21.33
326.388	105.3
326.601	95.06
326.814	111.44
327.027	37.72
327.24	95.06
327.453	43.86
327.666	19.29
327.879	129.88
328.092	66.39
328.305	45.91
328.518	2.9
328.731	58.2
328.944	50
329.157	-11.43
329.37	-11.43
329.583	74.58
329.796	109.4
330.009	-17.58
330.222	43.86
330.435	35.67
330.648	127.83
330.861	86.87
331.073	76.63
331.286	76.63
331.499	-13.48
331.712	0.85
331.925	101.2
332.138	54.1
332.35	109.4
332.563	50
332.776	88.92
332.989	60.24
333.202	39.76
333.414	52.05
333.627	31.57
333.84	103.25
334.053	97.11
334.265	15.19
334.478	97.11
334.691	88.92
334.903	70.48
335.116	7
335.329	54.1
335.541	72.53
335.754	11.09
335.966	4.95
336.179	39.76
336.392	-9.39
336.604	62.29
336.817	86.87
337.029	82.77
337.242	90.96
337.454	86.87
337.667	19.29
337.88	160.59
338.092	68.44
338.305	60.24
338.517	19.29
338.729	37.72
338.942	31.57
339.154	78.68
339.367	19.29
339.579	52.05
339.792	-17.58
340.004	88.92
340.217	2.9
340.429	52.05
340.641	-5.29
340.854	56.15
341.066	39.76
341.278	54.1
341.491	125.78
341.703	93.01
341.915	-9.39
342.128	33.62
342.34	86.87
342.552	86.87
342.764	60.24
342.977	35.67
343.189	86.87
343.401	13.14
343.613	-23.72
343.826	15.19
344.038	-19.63
344.25	25.43
344.462	-42.15
344.674	95.06
344.886	25.43
345.099	4.95
345.311	50
345.523	56.15
345.735	-74.92
345.947	93.01
346.159	78.68
346.371	105.3
346.583	19.29
346.795	99.16
347.007	0.85
347.219	15.19
347.431	-5.29
347.643	37.72
347.855	60.24
348.067	88.92
348.279	58.2
348.491	56.15
348.703	129.88
348.915	27.48
349.127	37.72
349.339	-1.19
349.551	23.38
349.763	19.29
349.975	50
350.187	47.96
350.399	72.53
350.61	47.96
350.822	39.76
351.034	162.64
351.246	99.16
351.458	39.76
351.669	119.64
351.881	97.11
352.093	54.1
352.305	80.72
352.517	127.83
352.728	70.48
352.94	23.38
353.152	84.82
353.363	21.33
353.575	101.2
353.787	129.88
353.999	78.68
354.21	78.68
354.422	58.2
354.633	17.24
354.845	21.33
355.057	88.92
355.268	66.39
355.48	17.24
355.692	21.33
355.903	76.63
356.115	-29.87
356.326	-33.96
356.538	56.15
356.749	25.43
356.961	54.1
357.172	56.15
357.384	-3.24
357.595	45.91
357.807	99.16
358.018	4.95
358.23	82.77
358.441	117.59
358.653	-25.77
358.864	93.01
359.075	21.33
359.287	31.57
359.498	88.92
359.709	119.64
359.921	43.86
360.132	60.24
360.344	101.2
360.555	17.24
360.766	-36.01
360.977	-42.15
361.189	52.05
361.4	9.05
361.611	45.91
361.823	58.2
362.034	41.81
362.245	-44.2
362.456	82.77
362.667	41.81
362.879	-52.39
363.09	-13.48
363.301	113.49
363.512	66.39
363.723	-9.39
363.935	43.86
364.146	64.34
364.357	13.14
364.568	27.48
364.779	-1.19
364.99	195.41
365.201	-5.29
365.412	58.2
365.623	2.9
365.834	131.92
366.045	-56.49
366.256	62.29
366.467	-17.58
366.678	60.24
366.889	-9.39
367.1	13.14
367.311	2.9
367.522	74.58
367.733	58.2
367.944	176.98
368.155	27.48
368.366	74.58
368.577	33.62
368.788	37.72
368.999	15.19
369.209	43.86
369.42	103.25
369.631	136.02
369.842	117.59
370.053	23.38
370.264	133.97
370.474	43.86
370.685	125.78
370.896	66.39
371.107	60.24
371.317	93.01
371.528	0.85
371.739	101.2
371.95	52.05
372.16	95.06
372.371	60.24
372.582	82.77
372.792	60.24
373.003	17.24
373.214	17.24
373.424	103.25
373.635	41.81
373.846	99.16
374.056	68.44
374.267	88.92
374.477	17.24
374.688	54.1
374.898	47.96
375.109	84.82
375.319	62.29
375.53	148.31
375.74	74.58
375.951	62.29
376.161	146.26
376.372	121.68
376.582	-11.43
376.793	47.96
377.003	76.63
377.214	47.96
377.424	-5.29
377.635	113.49
377.845	23.38
378.055	62.29
378.266	4.95
378.476	109.4
378.686	70.48
378.897	107.35
379.107	58.2
379.317	105.3
379.528	74.58
379.738	107.35
379.948	4.95
380.158	162.64
380.369	37.72
380.579	70.48
380.789	64.34
380.999	31.57
381.21	62.29
381.42	103.25
381.63	80.72
381.84	146.26
382.05	103.25
382.261	95.06
382.471	82.77
382.681	84.82
382.891	125.78
383.101	-9.39
383.311	70.48
383.521	29.52
383.731	78.68
383.941	160.59
384.151	-21.67
384.361	90.96
384.571	54.1
384.781	76.63
384.991	150.36
385.201	56.15
385.411	50
385.621	27.48
385.831	58.2
386.041	31.57
386.251	68.44
386.461	127.83
386.671	41.81
386.881	172.88
387.091	76.63
387.301	93.01
387.511	109.4
387.72	101.2
387.93	109.4
388.14	23.38
388.35	88.92
388.56	35.67
388.769	99.16
388.979	80.72
389.189	54.1
389.399	33.62
389.609	19.29
389.818	109.4
390.028	39.76
390.238	39.76
390.447	15.19
390.657	97.11
390.867	7
391.076	93.01
391.286	103.25
391.496	54.1
391.705	-9.39
391.915	80.72
392.125	125.78
392.334	150.36
392.544	84.82
392.753	78.68
392.963	35.67
393.172	146.26
393.382	-60.59
393.591	138.07
393.801	111.44
394.01	88.92
394.22	113.49
394.429	70.48
394.639	62.29
394.848	60.24
395.058	88.92
395.267	138.07
395.477	86.87
395.686	93.01
395.895	164.69
396.105	129.88
396.314	62.29
396.524	64.34
396.733	88.92
396.942	101.2
397.152	156.5
397.361	101.2
397.57	136.02
397.78	74.58
397.989	123.73
398.198	183.12
398.407	138.07
398.617	54.1
398.826	162.64
399.035	111.44
399.244	33.62
399.453	111.44
399.663	99.16
399.872	64.34
400.081	150.36
400.29	170.83
400.499	54.1
400.708	115.54
400.917	125.78
401.127	39.76
401.336	90.96
401.545	56.15
401.754	183.12
401.963	191.31
402.172	84.82
402.381	54.1
402.59	109.4
402.799	176.98
403.008	136.02
403.217	123.73
403.426	103.25
403.635	95.06
403.844	176.98
404.053	213.84
404.262	148.31
404.471	285.52
404.68	197.46
404.888	109.4
405.097	154.45
405.306	84.82
405.515	121.68
405.724	111.44
405.933	201.55
406.142	187.22
406.35	174.93
406.559	246.61
406.768	115.54
406.977	166.74
407.185	191.31
407.394	207.7
407.603	238.42
407.812	236.37
408.02	238.42
408.229	267.09
408.438	195.41
408.646	222.03
408.855	236.37
409.064	244.56
409.272	244.56
409.481	273.23
409.69	291.66
409.898	299.86
410.107	299.86
410.315	377.68
410.524	316.24
410.733	355.15
410.941	328.53
411.15	426.83
411.358	432.97
411.567	392.02
411.775	379.73
411.984	420.69
412.192	510.8
412.401	369.49
412.609	426.83
412.818	455.5
413.026	559.95
413.234	473.93
413.443	539.47
413.651	504.65
413.86	596.81
414.068	637.77
414.276	682.83
414.485	596.81
414.693	736.07
414.901	750.41
415.11	711.5
415.318	754.51
415.526	807.75
415.734	742.22
415.943	820.04
416.151	887.62
416.359	893.77
416.567	1002.31
416.776	947.01
416.984	1020.74
417.192	963.4
417.4	1010.5
417.608	1039.17
417.817	1053.51
418.025	1076.04
418.233	1200.96
418.441	1123.14
418.649	1274.69
418.857	1307.46
419.065	1434.43
419.273	1327.94
419.481	1311.55
419.689	1538.88
419.897	1641.28
420.105	1555.26
420.313	1682.24
420.521	1731.39
420.729	1751.87
420.937	1833.79
421.145	1766.2
421.353	1925.94
421.561	2016.05
421.769	2097.97
421.977	2165.56
422.185	2224.95
422.393	2257.71
422.601	2413.36
422.809	2351.92
423.017	2378.55
423.224	2519.85
423.432	2712.36
423.64	2644.78
423.848	2812.71
424.056	2790.19
424.263	3023.66
424.471	2937.64
424.679	3091.24
424.887	3285.8
425.094	3359.52
425.302	3369.76
425.51	3427.11
425.718	3666.72
425.925	3633.95
426.133	3687.2
426.341	3910.43
426.548	4094.74
426.756	4090.65
426.964	4234
427.171	4373.27
427.379	4498.19
427.586	4573.97
427.794	4659.98
428.001	4961.03
428.209	5206.79
428.417	5057.29
428.624	5466.88
428.832	5522.18
429.039	5491.46
429.247	5489.41
429.454	5921.53
429.662	6257.4
429.869	5862.14
430.076	6400.76
430.284	6054.65
430.491	6415.09
430.699	7009
430.906	6877.93
431.114	6906.6
431.321	7097.07
431.528	7453.41
431.736	7846.62
431.943	8190.68
432.15	7893.72
432.358	8043.23
432.565	8293.08
432.772	8340.18
432.979	8786.64
433.187	9056.97
433.394	8995.53
433.601	9659.07
433.808	9706.18
434.016	9460.42
434.223	9945.79
434.43	10365.62
434.637	10597.04
434.844	11197.1
435.052	11199.15
435.259	11272.87
435.466	11391.66
435.673	11066.03
435.88	12040.86
436.087	12317.34
436.294	12583.57
436.501	12288.67
436.708	12677.78
436.915	12849.81
437.122	13576.84
437.329	13406.86
437.537	13791.87
437.743	14045.82
437.95	14144.13
438.157	14756.47
438.364	15377
438.571	15264.36
438.778	15444.59
438.985	16853.59
439.192	16169.57
439.399	16462.43
439.606	15891.04
439.813	17228.37
440.02	18500.16
440.227	17693.26
440.433	17678.92
440.64	18629.18
440.847	18041.41
441.054	18758.2
441.261	19745.32
441.467	19696.17
441.674	19903.01
441.881	20705.82
442.088	20820.5
442.294	20423.2
442.501	21213.71
442.708	21322.26
442.914	22022.66
443.121	23478.77
443.328	22493.69
443.534	24349.15
443.741	23382.51
443.948	23251.44
444.154	25004.5
444.361	24785.37
444.568	24943.06
444.774	25272.79
444.981	25305.56
445.187	26079.69
445.394	27029.94
445.6	27138.49
445.807	29352.34
446.013	28109.22
446.22	28733.85
446.426	29735.31
446.633	30054.79
446.839	31240.57
447.046	29800.85
447.252	31369.59
447.459	31383.93
447.665	31195.51
447.871	32758.11
448.078	34265.42
448.284	32420.2
448.491	33501.53
448.697	34595.14
448.903	35191.1
449.11	35676.47
449.316	34763.07
449.522	35522.87
449.728	36340.01
449.935	37124.38
450.141	36589.86
450.347	37495.07
450.553	36598.05
450.76	36993.31
450.966	37816.6
451.172	37593.37
451.378	38363.4
451.584	38154.51
451.791	38801.67
451.997	38285.58
452.203	39297.28
452.409	39266.56
452.615	38916.36
452.821	37450.01
453.027	37036.32
453.233	39305.47
453.44	37570.84
453.646	38144.27
453.852	38392.08
454.058	39047.43
454.264	37431.58
454.47	38830.34
454.676	37531.93
454.882	38961.41
455.088	35658.04
455.294	36000.05
455.5	36546.86
455.705	36743.46
455.911	35481.91
456.117	34926.91
456.323	34079.05
456.529	32493.93
456.735	33990.99
456.941	33286.49
457.147	32391.53
457.352	31439.22
457.558	30982.52
457.764	31103.35
457.97	30775.68
458.176	29780.37
458.381	29933.96
458.587	28557.73
458.793	28621.22
458.999	26767.8
459.204	29290.9
459.41	28086.7
459.616	26466.75
459.821	26538.43
460.027	26577.34
460.233	25516.5
460.438	24435.17
460.644	24662.49
460.85	23566.83
461.055	23065.08
461.261	22821.37
461.466	21592.59
461.672	20683.29
461.878	22227.46
462.083	20906.52
462.289	20261.41
462.494	20150.82
462.7	19474.99
462.905	18842.17
463.111	19532.33
463.316	19591.72
463.522	18977.33
463.727	19067.44
463.932	18846.26
464.138	18977.33
464.343	18989.62
464.549	18516.54
464.754	19241.52
464.959	18893.37
465.165	18782.77
465.37	17859.14
465.575	17451.6
465.781	18158.14
465.986	18383.42
466.191	17635.91
466.397	17267.28
466.602	16507.48
466.807	17125.97
467.012	17025.62
467.218	16908.88
467.423	16925.27
467.628	17023.57
467.833	17713.74
468.038	16904.79
468.244	16331.36
468.449	17142.35
468.654	16609.88
468.859	16487
469.064	16366.17
469.269	15688.29
469.474	15866.47
469.679	16382.56
469.885	15579.75
470.09	15823.46
470.295	15807.08
470.5	15678.05
470.705	15428.2
470.91	15229.55
471.115	14901.87
471.32	15194.73
471.525	15016.56
471.73	14934.64
471.935	14692.98
472.139	14209.66
472.344	14418.55
472.549	14307.96
472.754	14037.63
472.959	13617.8
473.164	13816.45
473.369	13392.52
473.574	13742.72
473.778	13771.4
473.983	13554.31
474.188	13617.8
474.393	12987.02
474.598	13060.75
474.802	12788.37
475.007	12819.09
475.212	12829.33
475.417	12413.59
475.621	12333.72
475.826	12417.69
476.031	11905.7
476.235	11782.82
476.44	12118.68
476.645	11903.65
476.849	11813.54
477.054	11514.53
477.259	11549.35
477.463	11571.88
477.668	11211.43
477.872	11248.3
478.077	11027.12
478.282	10773.17
478.486	11025.07
478.691	10705.59
478.895	10758.83
479.1	10597.04
479.304	10705.59
479.509	10269.37
479.713	10582.71
479.918	10320.57
480.122	10359.48
480.326	10476.21
480.531	10289.85
480.735	10134.2
480.94	10113.72
481.144	10281.66
481.348	9697.99
481.553	10025.66
481.757	9720.51
481.961	9964.22
482.166	9958.08
482.37	9966.27
482.574	9781.95
482.778	9573.06
482.983	9884.35
483.187	9788.1
483.391	9808.58
483.595	9695.94
483.8	9882.3
484.004	9829.06
484.208	9937.6
484.412	9745.09
484.616	9898.69
484.821	9882.3
485.025	9736.9
485.229	9784
485.433	9759.42
485.637	9833.15
485.841	9693.89
486.045	9771.71
486.249	9771.71
486.453	9745.09
486.657	10015.42
486.861	9984.7
487.065	9415.37
487.269	9896.64
487.473	9640.64
487.677	10050.24
487.881	10015.42
488.085	9853.63
488.289	9800.38
488.493	9908.93
488.697	9892.54
488.901	9913.02
489.105	9784
489.309	9859.77
489.512	10042.04
489.716	9695.94
489.92	9745.09
490.124	9876.16
490.328	10021.56
490.531	10035.9
490.735	10037.95
490.939	10011.32
491.143	10068.67
491.346	9996.99
491.55	10365.62
491.754	10126.01
491.958	10252.98
492.161	10158.78
492.365	10224.31
492.569	10488.5
492.772	10255.03
492.976	10197.69
493.18	10291.9
493.383	10508.98
493.587	10478.26
493.79	10762.93
493.994	10535.6
494.197	10613.43
494.401	10775.22
494.605	10957.49
494.808	11055.79
495.012	11106.99
495.215	11233.96
495.419	11129.52
495.622	11313.83
495.825	11338.41
496.029	11352.74
496.232	11582.12
496.436	11391.66
496.639	11684.52
496.843	11588.26
497.046	12094.11
497.249	12116.64
497.453	11967.13
497.656	12253.85
497.859	12147.36
498.063	12274.33
498.266	12704.4
498.469	12663.44
498.673	12561.05
498.876	12829.33
499.079	12944.02
499.282	13093.52
499.485	13474.44
499.689	13357.71
499.892	13597.32
500.095	13478.54
500.298	13810.31
500.501	13730.44
500.705	14074.49
500.908	14475.9
501.111	14283.39
501.314	14523
501.517	14664.31
501.72	15137.39
501.923	14789.24
502.126	15237.74
502.329	15094.38
502.532	15481.45
502.735	15432.3
502.938	15843.94
503.141	16054.88
503.344	16161.37
503.547	16155.23
503.75	16251.49
503.953	16763.48
504.156	16659.03
504.359	16769.62
504.562	17193.55
504.765	17412.68
504.968	17594.95
505.17	17965.64
505.373	17635.91
505.576	17889.86
505.779	18102.85
505.982	18250.3
506.185	18743.86
506.387	18408
506.59	18741.82
506.793	19157.55
506.996	18928.18
507.198	19616.3
507.401	19786.28
507.604	19784.23
507.807	20320.8
508.009	20257.31
508.212	20070.95
508.415	20603.42
508.617	20890.13
508.82	20992.53
509.022	21115.41
509.225	21623.31
509.428	21721.61
509.63	21795.34
509.833	21828.1
510.035	22127.11
510.238	22053.38
510.44	22413.82
510.643	22956.54
510.845	22790.65
511.048	22929.91
511.25	23085.56
511.453	23337.46
511.655	24650.21
511.858	23888.36
512.06	23874.03
512.262	24234.47
512.465	24213.99
512.667	24740.32
512.87	25049.56
513.072	24793.56
513.274	25489.87
513.477	25694.67
513.679	25938.38
513.881	26241.48
514.084	26048.97
514.286	26147.27
514.488	26493.38
514.69	27199.93
514.893	27068.86
515.095	27310.52
515.297	27464.11
515.499	27660.72
515.701	27992.49
515.904	28029.35
516.106	28441
516.308	28524.96
516.51	28785.05
516.712	28527.01
516.914	29227.42
517.116	29841.81
517.318	29608.34
517.52	29790.61
517.722	29841.81
517.925	30159.24
518.127	30460.29
518.329	30851.45
518.531	30931.33
518.733	31740.27
518.935	31330.68
519.136	31269.24
519.338	31922.54
519.54	32235.88
519.742	32233.83
519.944	32717.15
520.146	32577.89
520.348	32979.29
520.55	32899.42
520.752	33327.45
520.954	33698.13
521.155	33454.42
521.357	34031.95
521.559	34435.4
521.761	34742.6
521.963	34324.81
522.164	34652.48
522.366	34818.37
522.568	35422.52
522.77	35402.04
522.971	35762.48
523.173	35318.07
523.375	35897.65
523.576	35723.57
523.778	35647.8
523.98	36653.35
524.181	36639.01
524.383	36206.89
524.584	36888.87
524.786	36819.24
524.988	36684.07
525.189	37060.9
525.391	37370.14
525.592	37830.93
525.794	37685.53
525.995	37404.95
526.197	37859.6
526.398	37964.05
526.6	37878.04
526.801	38045.97
527.003	38037.78
527.204	38162.7
527.406	38695.17
527.607	38588.68
527.808	38371.6
528.01	37912.85
528.211	38891.78
528.412	39612.66
528.614	39100.67
528.815	39219.45
529.016	39121.15
529.218	39100.67
529.419	39076.1
529.62	39160.06
529.822	39731.45
530.023	39389.44
530.224	39391.48
530.425	39512.31
530.626	39188.74
530.828	39059.71
531.029	40079.6
531.23	38959.36
531.431	39489.79
531.632	39790.84
531.833	39944.44
532.035	39557.37
532.236	39672.06
532.437	40012.02
532.638	39645.43
532.839	39522.55
533.04	40399.08
533.241	39641.34
533.442	40069.36
533.643	39694.58
533.844	39723.26
534.045	39858.42
534.246	39434.49
534.447	40098.03
534.648	39856.37
534.849	39911.67
535.05	39799.03
535.251	40018.16
535.451	39936.24
535.652	40227.06
535.853	40038.64
536.054	39551.23
536.255	40268.01
536.456	39649.53
536.657	40366.32
536.857	39753.97
537.058	39874.8
537.259	39897.33
537.46	39909.62
537.66	39928.05
537.861	39981.3
538.062	39553.27
538.263	39842.04
538.463	39899.38
538.664	39923.96
538.865	39862.52
539.065	40095.99
539.266	39670.01
539.466	40098.03
539.667	39366.91
539.868	40337.65
540.068	39973.11
540.269	39422.2
540.469	39823.61
540.67	39590.14
540.87	40112.37
541.071	39653.62
541.271	39751.93
541.472	39663.86
541.672	39500.03
541.873	39411.96
542.073	39383.29
542.274	39727.35
542.474	39280.89
542.675	39256.32
542.875	39536.89
543.075	39235.84
543.276	39037.19
543.476	40012.02
543.676	39440.64
543.877	39446.78
544.077	39303.42
544.277	39473.4
544.478	39465.21
544.678	39588.09
544.878	39233.79
545.078	39514.36
545.279	39037.19
545.479	39133.44
545.679	39444.73
545.879	39266.56
546.079	39108.86
546.28	39139.58
546.48	38856.96
546.68	39026.95
546.88	39051.52
547.08	39182.59
547.28	39088.38
547.48	38928.64
547.68	38854.92
547.88	38805.77
548.081	39387.39
548.281	38828.29
548.481	38998.27
548.681	39153.92
548.881	39014.66
549.081	39098.62
549.28	38773
549.48	38906.12
549.68	38887.68
549.88	39633.14
550.08	38961.41
550.28	38834.44
550.48	39158.02
550.68	39500.03
550.88	38854.92
551.08	38580.49
551.279	38848.77
551.479	38517
551.679	39176.45
551.879	38877.44
552.079	38533.39
552.278	38799.62
552.478	38744.33
552.678	38961.41
552.878	38607.11
553.077	38361.36
553.277	38480.14
553.477	38686.98
553.676	38639.88
553.876	38586.63
554.076	38195.47
554.275	38357.26
554.475	38394.12
554.674	38316.3
554.874	38662.41
555.074	38007.06
555.273	38510.86
555.473	38785.29
555.672	38105.36
555.872	38050.06
556.071	38115.6
556.271	38146.32
556.47	38023.44
556.67	38007.06
556.869	37929.23
557.068	38174.99
557.268	38062.35
557.467	38027.54
557.667	38021.39
557.866	37757.21
558.065	37867.8
558.265	38009.11
558.464	37972.24
558.663	38074.64
558.863	37407
559.062	38240.53
559.261	37509.4
559.461	38080.78
559.66	37370.14
559.859	37789.97
560.058	37570.84
560.258	37208.35
560.457	37028.13
560.656	37595.42
560.855	36897.06
561.054	37339.42
561.253	37298.46
561.453	37050.66
561.652	37257.5
561.851	37392.67
562.05	37093.66
562.249	37108
562.448	37310.75
562.647	37730.58
562.846	37116.19
563.045	36815.14
563.244	36839.72
563.443	37079.33
563.642	36636.97
563.841	36765.99
564.04	36299.05
564.239	36684.07
564.438	36548.9
564.637	36610.34
564.836	36634.92
565.035	36145.45
565.234	36294.96
565.432	36491.56
565.631	36362.54
565.83	36524.33
566.029	36499.75
566.228	36053.3
566.427	36002.1
566.625	35772.72
566.824	35825.97
567.023	36024.62
567.222	35672.37
567.42	36405.55
567.619	35645.75
567.818	35692.85
568.016	35641.65
568.215	35725.62
568.414	35723.57
568.612	36102.45
568.811	35297.59
569.01	35815.73
569.208	35053.89
569.407	35168.57
569.605	35033.41
569.804	35477.82
570.002	35017.02
570.201	34965.82
570.4	34947.39
570.598	34988.35
570.797	34685.25
570.995	35057.98
571.193	34457.93
571.392	35092.8
571.59	34060.62
571.789	34621.77
571.987	34390.34
572.186	34183.5
572.384	34333
572.582	34795.84
572.781	34345.29
572.979	33749.33
573.177	34177.36
573.376	34625.86
573.574	33929.55
573.772	34079.05
573.971	33702.23
574.169	34036.05
574.367	33622.36
574.565	33810.77
574.763	33372.5
574.962	33374.55
575.16	33278.3
575.358	33593.68
575.556	33065.31
575.754	33608.02
575.952	32913.76
576.151	33126.75
576.349	32897.38
576.547	32938.33
576.745	32901.47
576.943	33636.69
577.141	32751.97
577.339	32926.05
577.537	32840.03
577.735	32797.02
577.933	32303.46
578.131	32477.54
578.329	32799.07
578.527	32282.98
578.725	32561.51
578.923	32516.45
579.121	32158.06
579.319	31992.17
579.516	32754.02
579.714	32151.91
579.912	31988.08
580.11	31658.35
580.308	31791.47
580.506	32194.92
580.704	31359.35
580.901	31420.79
581.099	31773.04
581.297	31297.91
581.495	31164.79
581.692	31582.58
581.89	31443.32
582.088	31400.31
582.285	31064.44
582.483	31074.68
582.681	31338.87
582.878	30796.16
583.076	30566.79
583.274	30839.17
583.471	30411.14
583.669	30935.42
583.866	30671.23
584.064	30534.02
584.262	30577.03
584.459	30798.21
584.657	30298.5
584.854	30544.26
585.052	30075.27
585.249	30257.54
585.447	30007.69
585.644	29755.79
585.841	29862.29
586.039	29866.38
586.236	29665.68
586.434	29432.21
586.631	29452.69
586.828	29620.63
587.026	29538.71
587.223	29364.63
587.42	29061.53
587.618	29454.74
587.815	29092.25
588.012	29041.05
588.21	28621.22
588.407	29106.59
588.604	29034.91
588.801	28541.35
588.999	28889.5
589.196	28541.35
589.393	28588.45
589.59	28555.68
589.787	28340.64
589.984	28397.99
590.182	28336.55
590.379	28193.19
590.576	28107.18
590.773	28041.64
590.97	27799.98
591.167	28285.35
591.364	27744.69
591.561	27541.94
591.758	27546.03
591.955	27654.58
592.152	27732.4
592.349	27425.2
592.546	26894.78
592.743	27408.82
592.94	26915.26
593.137	27496.88
593.334	27509.17
593.531	26980.79
593.727	27285.94
593.924	27222.45
594.121	26597.82
594.318	26689.98
594.515	26284.48
594.712	26730.94
594.908	26417.6
595.105	26778.04
595.302	26282.44
595.499	26446.27
595.696	26315.2
595.892	26161.61
596.089	26227.14
596.286	26212.81
596.482	25870.79
596.679	25866.7
596.876	25764.3
597.072	25536.98
597.269	25616.85
597.466	25444.82
597.662	25334.23
597.859	25547.22
598.055	25541.07
598.252	24889.82
598.448	25364.95
598.645	25170.39
598.841	24936.92
599.038	25137.62
599.234	25078.23
599.431	24560.09
599.627	24838.62
599.824	24949.21
600.02	24500.7
600.217	24263.14
600.413	24777.18
600.609	24644.06
600.806	24455.65
601.002	24488.42
601.198	24246.76
601.395	23812.59
601.591	23812.59
601.787	24046.05
601.984	23609.84
602.18	23951.85
602.376	23863.79
602.572	23661.04
602.769	23589.36
602.965	23335.41
603.161	23579.12
603.357	23446
603.553	23415.28
603.75	23497.2
603.946	23368.18
604.142	23257.59
604.338	23003.64
604.534	23194.1
604.73	22835.7
604.926	23048.69
605.122	23181.81
605.318	22837.75
605.514	22446.59
605.71	22475.26
605.906	22655.48
606.102	22569.47
606.298	22548.99
606.494	22284.8
606.69	22712.83
606.886	22473.21
607.082	22278.66
607.278	22381.06
607.474	21864.97
607.67	22395.39
607.866	21891.59
608.062	22198.79
608.257	22071.81
608.453	21889.54
608.649	22118.92
608.845	21897.74
609.041	21895.69
609.236	21776.91
609.432	21658.12
609.628	22026.76
609.824	21537.29
610.019	21277.2
610.215	21811.72
610.411	21553.68
610.606	21557.77
610.802	21627.4
610.998	21488.14
611.193	21545.48
611.389	21287.44
611.584	21330.45
611.78	20992.53
611.976	21361.17
612.171	21367.31
612.367	21240.34
612.562	21062.16
612.758	21082.64
612.953	21123.6
613.149	21142.03
613.344	20484.64
613.539	20939.29
613.735	21064.21
613.93	21058.07
614.126	20806.17
614.321	20957.72
614.517	20847.13
614.712	20517.4
614.907	20288.03
615.103	20836.89
615.298	20582.94
615.493	20920.85
615.688	20509.21
615.884	20740.63
616.079	20099.62
616.274	20671
616.47	20576.8
616.665	20568.6
616.86	20394.53
617.055	20226.59
617.25	20238.88
617.445	20343.33
617.641	19970.6
617.836	20148.77
618.031	19761.7
618.226	20009.51
618.421	20070.95
618.616	19874.34
618.811	19737.13
619.006	19980.84
619.201	19417.65
619.396	19726.89
619.591	19266.1
619.786	19495.47
619.981	18772.53
620.176	19341.87
620.371	19053.11
620.566	19147.31
620.761	18930.23
620.956	19206.7
621.151	18838.07
621.346	18922.04
621.541	18725.43
621.735	18840.12
621.93	18420.28
622.125	18563.64
622.32	18100.8
622.515	18031.17
622.709	18135.62
622.904	17947.2
623.099	18022.98
623.294	17556.04
623.488	17568.33
623.683	17805.89
623.878	17414.73
624.072	17541.71
624.267	17676.87
624.462	17117.78
624.656	17150.54
624.851	17220.17
625.046	17295.95
625.24	16949.84
625.435	16726.61
625.629	16585.3
625.824	16585.3
626.018	16786.01
626.213	16302.68
626.407	16153.18
626.602	16343.64
626.796	16349.79
626.991	16286.3
627.185	16181.85
627.38	15915.62
627.574	15800.93
627.768	15886.95
627.963	15932
628.157	15413.87
628.352	15645.29
628.546	15641.19
628.74	15796.84
628.935	15010.42
629.129	15307.37
629.323	15207.02
629.517	15278.7
629.712	15161.97
629.906	14944.88
630.1	14817.91
630.294	14955.12
630.489	14793.33
630.683	14840.43
630.877	14441.08
631.071	14588.53
631.265	14582.39
631.459	14353.02
631.653	14369.4
631.848	14219.9
632.042	13998.72
632.236	14142.08
632.43	13931.14
632.624	13941.38
632.818	14047.87
633.012	13638.28
633.206	13773.44
633.4	13726.34
633.594	13619.85
633.788	13623.94
633.982	13474.44
634.176	13302.41
634.369	13296.27
634.563	13369.99
634.757	13372.04
634.951	13034.13
635.145	13124.24
635.339	13077.13
635.533	12917.39
635.726	12814.99
635.92	12851.86
636.114	12749.46
636.308	12714.64
636.501	12757.65
636.695	12710.55
636.889	12472.98
637.083	12266.14
637.276	12264.09
637.47	12311.19
637.664	12227.23
637.857	12190.36
638.051	12047.01
638.244	11969.18
638.438	12034.72
638.632	11881.12
638.825	11776.67
639.019	12065.44
639.212	11774.63
639.406	11997.85
639.599	11545.25
639.793	11526.82
639.986	11524.77
640.18	11702.95
640.373	11412.14
640.567	11236.01
640.76	11389.61
640.954	11166.38
641.147	11188.91
641.34	11055.79
641.534	11236.01
641.727	10963.63
641.92	10810.03
642.114	10744.5
642.307	10736.31
642.5	10814.13
642.694	10658.48
642.887	10842.8
643.08	10388.15
643.273	10586.8
643.467	10775.22
643.66	10568.37
643.853	10453.69
644.046	10197.69
644.239	10216.12
644.432	10025.66
644.626	10019.52
644.819	10279.61
645.012	10220.22
645.205	10015.42
645.398	10087.1
645.591	9990.84
645.784	10007.23
645.977	9884.35
646.17	9738.94
646.363	9925.31
646.556	9693.89
646.749	9847.49
646.942	9452.23
647.135	9648.83
647.328	9509.57
647.521	9368.26
647.714	9411.27
647.907	9327.3
648.099	9292.49
648.292	9274.06
648.485	9173.71
648.678	9071.31
648.871	9003.72
649.064	8970.96
649.256	9192.14
649.449	9142.99
649.642	8995.53
649.835	8688.34
650.027	8919.76
650.22	8979.15
650.413	8757.97
650.605	8788.69
650.798	8880.85
650.991	8405.72
651.183	8667.86
651.376	8635.09
651.568	8497.88
651.761	8456.92
651.954	8479.44
652.146	8268.5
652.339	8241.88
652.531	8262.36
652.724	8315.61
652.916	8069.85
653.109	8121.05
653.301	8270.55
653.494	7918.3
653.686	7860.96
653.879	8053.47
654.071	7994.08
654.263	7930.59
654.456	7916.25
654.648	7985.88
654.84	7682.78
655.033	7619.3
655.225	7647.97
655.417	7557.86
655.61	7449.32
655.802	7652.06
655.994	7394.02
656.186	7559.91
656.379	7529.19
656.571	7553.76
656.763	7322.34
656.955	7324.39
657.148	7207.66
657.34	7299.81
657.532	7320.29
657.724	7127.78
657.916	7207.66
658.108	6986.47
658.3	7183.08
658.492	7125.74
658.684	7033.58
658.876	6890.22
659.068	6841.07
659.26	7013.1
659.452	6714.09
659.644	7000.81
659.836	6650.61
660.028	6867.69
660.22	6621.94
660.412	6685.42
660.604	6632.18
660.796	6691.57
660.988	6542.07
661.18	6492.91
661.372	6673.14
661.563	6591.22
661.755	6411
661.947	6269.69
662.139	6327.03
662.331	6288.12
662.522	6265.59
662.714	6271.73
662.906	6347.51
663.097	6296.31
663.289	6224.63
663.481	6050.55
663.673	6087.42
663.864	5882.62
664.056	5933.82
664.247	6062.84
664.439	5958.39
664.631	5960.44
664.822	6003.45
665.014	5958.39
665.205	5882.62
665.397	5835.52
665.588	5772.03
665.78	5819.13
665.971	5751.55
666.163	5939.96
666.354	5921.53
666.546	5657.34
666.737	5636.86
666.929	5653.25
667.12	5606.14
667.311	5522.18
667.503	5450.5
667.694	5606.14
667.885	5411.59
668.077	5591.81
668.268	5430.02
668.459	5606.14
668.651	5387.01
668.842	5477.12
669.033	5255.94
669.224	5491.46
669.416	5397.25
669.607	5200.65
669.798	5229.32
669.989	5296.9
670.18	5231.37
670.371	5282.56
670.563	5194.5
670.754	5133.06
670.945	5182.21
671.136	5174.02
671.327	5253.89
671.518	5104.39
671.709	5135.11
671.9	5081.86
672.091	5067.53
672.282	5040.9
672.473	5038.86
672.664	5010.18
672.855	4911.88
673.046	4954.89
673.237	4858.64
673.428	4844.3
673.619	4866.83
673.809	4868.88
674	4868.88
674.191	4834.06
674.382	4944.65
674.573	4868.88
674.764	4725.52
674.954	4672.27
675.145	4709.13
675.336	4670.22
675.527	4645.65
675.717	4705.04
675.908	4604.69
676.099	4594.45
676.289	4698.89
676.48	4477.71
676.671	4547.34
676.861	4434.71
677.052	4573.97
677.243	4428.56
677.433	4545.3
677.624	4545.3
677.814	4420.37
678.005	4608.78
678.195	4643.6
678.386	4492.05
678.576	4528.91
678.767	4358.93
678.957	4453.14
679.148	4358.93
679.338	4463.38
679.529	4305.68
679.719	4328.21
679.909	4428.56
680.1	4406.03
680.29	4274.96
680.481	4324.12
680.671	4188.95
680.861	4352.79
681.052	4238.1
681.242	4207.38
681.432	4322.07
681.622	4291.35
681.813	4229.91
682.003	4250.39
682.193	4262.68
682.383	4207.38
682.573	4168.47
682.764	4086.55
682.954	4205.33
683.144	4203.29
683.334	4109.08
683.524	4121.37
683.714	4162.33
683.904	4068.12
684.094	4131.61
684.284	4111.13
684.474	4182.81
684.664	3947.29
684.854	3967.77
685.044	4141.85
685.234	4023.06
685.424	4008.73
685.614	3914.52
685.804	3922.71
685.994	3978.01
686.184	3978.01
686.374	3863.32
686.564	3869.47
686.753	3875.61
686.943	3848.99
687.133	3918.62
687.323	3824.41
687.513	3851.03
687.702	3760.92
687.892	3746.59
688.082	3791.64
688.272	3838.75
688.461	3719.96
688.651	3873.56
688.841	3740.44
689.03	3744.54
689.22	3717.92
689.41	3636
689.599	3726.11
689.789	3623.71
689.979	3676.96
690.168	3533.6
690.358	3576.61
690.547	3623.71
690.737	3543.84
690.926	3494.69
691.116	3509.02
691.305	3504.93
691.495	3431.2
691.684	3439.39
691.874	3408.67
692.063	3367.71
692.252	3320.61
692.442	3287.84
692.631	3171.11
692.82	3330.85
693.01	3230.5
693.199	3349.28
693.388	3152.68
693.578	3240.74
693.767	3205.92
693.956	3154.73
694.146	3339.04
694.335	3195.68
694.524	3136.29
694.713	3179.3
694.902	3107.62
695.092	3205.92
695.281	3017.51
695.47	3091.24
695.659	3023.66
695.848	3130.15
696.037	3089.19
696.226	3089.19
696.415	3013.42
696.604	3017.51
696.793	2958.12
696.982	2999.08
697.171	2908.97
697.36	2956.07
697.549	3025.7
697.738	2771.76
697.927	2970.41
698.116	2954.02
698.305	3035.94
698.494	2964.26
698.683	2796.33
698.872	2941.74
699.061	2779.95
699.25	2806.57
699.438	2837.29
699.627	2835.24
699.816	2878.25
700.005	2718.51
700.193	2732.84
700.382	2925.35
700.571	2788.14
700.76	2841.39
700.948	2757.42
701.137	2847.53
701.326	2804.52
701.514	2698.03
701.703	2730.8
701.892	2798.38
702.08	2667.31
702.269	2607.92
702.457	2593.58
702.646	2669.36
702.834	2579.25
703.023	2681.64
703.212	2634.54
703.4	2628.4
703.589	2687.79
703.777	2689.84
703.965	2745.13
704.154	2552.62
704.342	2597.68
704.531	2718.51
704.719	2669.36
704.907	2650.92
705.096	2489.14
705.284	2628.4
705.472	2566.96
705.661	2562.86
705.849	2546.48
706.037	2550.57
706.226	2644.78
706.414	2562.86
706.602	2485.04
706.79	2528.05
706.979	2528.05
707.167	2399.02
707.355	2433.84
707.543	2497.33
707.731	2558.77
707.919	2437.94
708.107	2462.51
708.296	2530.09
708.484	2464.56
708.672	2515.76
708.86	2464.56
709.048	2507.57
709.236	2411.31
709.424	2583.34
709.612	2409.26
709.8	2464.56
709.988	2452.27
710.176	2491.18
710.364	2554.67
710.551	2491.18
710.739	2478.9
710.927	2380.59
711.115	2439.98
711.303	2446.13
711.491	2482.99
711.679	2456.37
711.866	2472.75
712.054	2474.8
712.242	2423.6
712.43	2446.13
712.617	2345.78
712.805	2476.85
712.993	2439.98
713.181	2405.17
713.368	2456.37
713.556	2415.41
713.744	2349.87
713.931	2374.45
714.119	2272.05
714.306	2227
714.494	2431.79
714.682	2370.35
714.869	2372.4
715.057	2388.78
715.244	2245.43
715.432	2423.6
715.619	2396.98
715.807	2509.62
715.994	2421.55
716.182	2444.08
716.369	2382.64
716.556	2442.03
716.744	2417.46
716.931	2300.72
717.119	2407.22
717.306	2448.18
717.493	2362.16
717.681	2372.4
717.868	2392.88
718.055	2446.13
718.242	2292.53
718.43	2405.17
718.617	2429.74
718.804	2435.89
718.991	2362.16
719.179	2372.4
719.366	2353.97
719.553	2349.87
719.74	2429.74
719.927	2351.92
720.114	2399.02
720.301	2321.2
720.488	2394.93
720.676	2405.17
720.863	2396.98
721.05	2458.42
721.237	2476.85
721.424	2433.84
721.611	2292.53
721.798	2390.83
721.985	2419.5
722.172	2409.26
722.358	2396.98
722.545	2353.97
722.732	2351.92
722.919	2468.66
723.106	2384.69
723.293	2509.62
723.48	2376.5
723.667	2378.55
723.853	2439.98
724.04	2482.99
724.227	2376.5
724.414	2399.02
724.6	2437.94
724.787	2501.42
724.974	2482.99
725.161	2319.15
725.347	2372.4
725.534	2431.79
725.72	2396.98
725.907	2376.5
726.094	2349.87
726.28	2439.98
726.467	2360.11
726.653	2495.28
726.84	2419.5
727.027	2468.66
727.213	2396.98
727.4	2513.71
727.586	2403.12
727.773	2491.18
727.959	2466.61
728.145	2399.02
728.332	2364.21
728.518	2454.32
728.705	2458.42
728.891	2444.08
729.077	2523.95
729.264	2439.98
729.45	2437.94
729.636	2528.05
729.823	2403.12
730.009	2425.65
730.195	2573.1
730.382	2579.25
730.568	2423.6
730.754	2523.95
730.94	2489.14
731.126	2603.82
731.313	2521.9
731.499	2478.9
731.685	2614.06
731.871	2528.05
732.057	2519.85
732.243	2661.16
732.429	2726.7
732.615	2556.72
732.801	2648.88
732.987	2540.33
733.173	2509.62
733.359	2591.53
733.545	2564.91
733.731	2468.66
733.917	2624.3
734.103	2689.84
734.289	2616.11
734.475	2601.77
734.661	2685.74
734.847	2618.16
735.033	2487.09
735.219	2591.53
735.404	2591.53
735.59	2601.77
735.776	2501.42
735.962	2618.16
736.148	2616.11
736.333	2648.88
736.519	2556.72
736.705	2769.71
736.89	2618.16
737.076	2599.73
737.262	2626.35
737.447	2669.36
737.633	2734.89
737.819	2552.62
738.004	2691.88
738.19	2597.68
738.375	2679.6
738.561	2693.93
738.747	2657.07
738.932	2595.63
739.118	2583.34
739.303	2675.5
739.489	2673.45
739.674	2607.92
739.859	2575.15
740.045	2673.45
740.23	2683.69
740.416	2710.32
740.601	2767.66
740.786	2622.25
740.972	2659.12
741.157	2732.84
741.342	2569.01
741.528	2661.16
741.713	2734.89
741.898	2669.36
742.084	2548.53
742.269	2693.93
742.454	2626.35
742.639	2777.9
742.824	2638.64
743.01	2681.64
743.195	2708.27
743.38	2632.49
743.565	2542.38
743.75	2759.47
743.935	2454.32
744.12	2599.73
744.305	2640.69
744.49	2595.63
744.675	2538.29
744.86	2507.57
745.045	2620.21
745.23	2644.78
745.415	2560.81
745.6	2581.29
745.785	2564.91
745.97	2558.77
746.155	2628.4
746.34	2538.29
746.525	2597.68
746.71	2534.19
746.895	2470.7
747.079	2454.32
747.264	2407.22
747.449	2423.6
747.634	2593.58
747.819	2485.04
748.003	2523.95
748.188	2388.78
748.373	2497.33
748.557	2487.09
748.742	2409.26
748.927	2464.56
749.111	2491.18
749.296	2362.16
749.481	2511.66
749.665	2343.73
749.85	2339.63
750.034	2382.64
750.219	2313.01
750.404	2403.12
750.588	2366.26
750.773	2247.48
750.957	2317.11
751.141	2304.82
751.326	2378.55
751.51	2319.15
751.695	2188.08
751.879	2263.86
752.064	2276.15
752.248	2261.81
752.432	2267.95
752.617	2208.56
752.801	2181.94
752.985	2085.69
753.17	2153.27
753.354	2147.12
753.538	2179.89
753.722	2065.21
753.907	2097.97
754.091	2083.64
754.275	2093.88
754.459	2155.32
754.643	2040.63
754.828	2095.93
755.012	1909.56
755.196	1940.28
755.38	2016.05
755.564	1962.81
755.748	1977.14
755.932	2054.97
756.116	1948.47
756.3	1973.05
756.484	1938.23
756.668	2026.29
756.852	1932.09
757.036	1846.07
757.22	1995.57
757.404	1971
757.588	1927.99
757.772	1866.55
757.956	1825.59
758.14	1872.7
758.323	1827.64
758.507	1858.36
758.691	1817.4
758.875	1721.15
759.059	1878.84
759.242	1753.91
759.426	1854.27
759.61	1743.67
759.794	1790.78
759.977	1766.2
760.161	1831.74
760.345	1715
760.528	1719.1
760.712	1729.34
760.895	1835.83
761.079	1735.48
761.263	1747.77
761.446	1661.76
761.63	1608.51
761.813	1674.04
761.997	1633.08
762.18	1620.8
762.364	1653.56
762.547	1647.42
762.731	1700.67
762.914	1612.6
763.098	1563.45
763.281	1499.97
763.464	1524.54
763.648	1512.25
763.831	1583.93
764.015	1612.6
764.198	1602.36
764.381	1571.65
764.564	1540.93
764.748	1536.83
764.931	1534.78
765.114	1542.97
765.297	1594.17
765.481	1522.49
765.664	1448.77
765.847	1516.35
766.03	1506.11
766.213	1514.3
766.397	1512.25
766.58	1528.64
766.763	1508.16
766.946	1520.45
767.129	1575.74
767.312	1413.95
767.495	1411.9
767.678	1473.34
767.861	1428.29
768.044	1450.82
768.227	1477.44
768.41	1487.68
768.593	1442.62
768.776	1446.72
768.959	1473.34
769.142	1514.3
769.324	1350.46
769.507	1346.37
769.69	1360.7
769.873	1346.37
770.056	1434.43
770.239	1448.77
770.421	1450.82
770.604	1409.86
770.787	1272.64
770.97	1444.67
771.152	1319.75
771.335	1383.23
771.518	1375.04
771.7	1381.18
771.883	1387.33
772.066	1295.17
772.248	1278.79
772.431	1207.11
772.613	1217.35
772.796	1444.67
772.978	1235.78
773.161	1336.13
773.343	1221.44
773.526	1256.26
773.708	1143.62
773.891	1205.06
774.073	1123.14
774.256	1203.01
774.438	1186.63
774.621	1186.63
774.803	1160
774.985	1317.7
775.168	1217.35
775.35	1127.24
775.532	1194.82
775.715	1092.42
775.897	1123.14
776.079	1121.09
776.261	1110.85
776.444	1114.95
776.626	1108.8
776.808	1112.9
776.99	1047.37
777.173	1086.28
777.355	1157.96
777.537	1033.03
777.719	1037.13
777.901	983.88
778.083	1100.61
778.265	979.78
778.447	1133.38
778.629	967.49
778.811	1020.74
778.993	1014.6
779.175	994.12
779.357	1047.37
779.539	975.69
779.721	957.25
779.903	1010.5
780.085	895.82
780.267	994.12
780.449	865.1
780.631	930.63
780.812	877.38
780.994	936.78
781.176	942.92
781.358	877.38
781.54	955.21
781.721	889.67
781.903	840.52
782.085	805.71
782.267	854.86
782.448	822.09
782.63	809.8
782.812	799.56
782.993	799.56
783.175	842.57
783.357	740.17
783.538	906.06
783.72	703.31
783.901	840.52
784.083	766.79
784.264	836.42
784.446	785.23
784.627	654.16
784.809	760.65
784.99	746.31
785.172	695.11
785.353	746.31
785.535	789.32
785.716	721.74
785.897	705.35
786.079	672.59
786.26	658.25
786.441	717.64
786.623	635.72
786.804	713.55
786.985	680.78
787.167	615.24
787.348	643.92
787.529	645.96
787.71	672.59
787.891	676.68
788.073	643.92
788.254	701.26
788.435	664.4
788.616	731.98
788.797	549.71
788.978	623.44
789.159	605
789.34	605
789.522	543.57
789.703	611.15
789.884	568.14
790.065	576.33
790.246	547.66
790.427	553.8
790.607	602.96
790.788	586.57
790.969	416.59
791.15	590.67
791.331	525.13
791.512	535.37
791.693	527.18
791.874	512.85
792.054	623.44
792.235	578.38
792.416	478.03
792.597	496.46
792.778	559.95
792.958	486.22
793.139	531.28
793.32	566.09
793.5	559.95
793.681	496.46
793.862	463.69
794.042	521.04
794.223	496.46
794.404	508.75
794.584	531.28
794.765	471.89
794.945	449.36
795.126	527.18
795.306	502.61
795.487	512.85
795.667	402.26
795.848	426.83
796.028	361.3
796.209	428.88
796.389	445.26
796.57	400.21
796.75	414.54
796.93	467.79
797.111	420.69
797.291	465.74
797.471	461.65
797.652	420.69
797.832	461.65
798.012	361.3
798.192	363.34
798.373	426.83
798.553	353.1
798.733	410.45
798.913	303.95
799.093	465.74
799.274	387.92
799.454	381.78
799.634	279.38
799.814	439.12
799.994	392.02
800.174	387.92
800.354	389.97
800.534	367.44
800.714	369.49
800.894	340.82
801.074	396.11
801.254	406.35
801.434	353.1
801.614	351.06
801.794	385.87
801.974	1002.31
802.154	289.62
802.334	357.2
802.514	320.34
802.693	359.25
802.873	375.63
803.053	385.87
803.233	381.78
803.413	332.62
803.592	367.44
803.772	306
803.952	303.95
804.131	285.52
804.311	338.77
804.491	285.52
804.67	271.19
804.85	373.58
805.03	326.48
805.209	336.72
805.389	373.58
805.568	351.06
805.748	346.96
805.928	324.43
806.107	295.76
806.287	265.04
806.466	330.58
806.646	312.14
806.825	316.24
807.004	267.09
807.184	279.38
807.363	314.19
807.543	308.05
807.722	232.27
807.901	326.48
808.081	260.95
808.26	256.85
808.439	303.95
808.619	258.9
808.798	271.19
808.977	267.09
809.156	301.9
809.336	330.58
809.515	273.23
809.694	254.8
809.873	256.85
810.052	236.37
810.231	299.86
810.411	297.81
810.59	293.71
810.769	226.13
810.948	244.56
811.127	158.55
811.306	289.62
811.485	205.65
811.664	258.9
811.843	168.79
812.022	242.51
812.201	297.81
812.38	193.36
812.559	117.59
812.737	291.66
812.916	295.76
813.095	295.76
813.274	252.75
813.453	273.23
813.632	224.08
813.811	230.23
813.989	183.12
814.168	260.95
814.347	127.83
814.526	193.36
814.704	240.47
814.883	240.47
815.062	189.27
815.24	170.83
815.419	224.08
815.598	246.61
815.776	260.95
815.955	242.51
816.133	195.41
816.312	275.28
816.49	244.56
816.669	303.95
816.847	197.46
817.026	246.61
817.204	285.52
817.383	156.5
817.561	138.07
817.74	224.08
817.918	203.6
818.097	232.27
818.275	189.27
818.453	181.07
818.632	215.89
818.81	129.88
818.988	185.17
819.167	219.99
819.345	222.03
819.523	176.98
819.701	113.49
819.879	152.4
820.058	197.46
820.236	217.94
820.414	150.36
820.592	195.41
820.77	234.32
820.948	170.83
821.127	154.45
821.305	176.98
821.483	176.98
821.661	193.36
821.839	185.17
822.017	125.78
822.195	174.93
822.373	195.41
822.551	76.63
822.729	168.79
822.907	115.54
823.085	211.79
823.262	105.3
823.44	125.78
823.618	99.16
823.796	152.4
823.974	136.02
824.152	162.64
824.329	142.16
824.507	219.99
824.685	93.01
824.863	136.02
825.04	189.27
825.218	136.02
825.396	107.35
825.574	160.59
825.751	64.34
825.929	176.98
826.107	119.64
826.284	172.88
826.462	152.4
826.639	9.05
826.817	111.44
826.994	166.74
827.172	111.44
827.349	252.75
827.527	103.25
827.704	136.02
827.882	158.55
828.059	115.54
828.237	88.92
828.414	127.83
828.591	82.77
828.769	138.07
828.946	127.83
829.124	252.75
829.301	156.5
829.478	148.31
829.655	119.64
829.833	86.87
830.01	45.91
830.187	136.02
830.364	82.77
830.542	148.31
830.719	209.75
830.896	119.64
831.073	115.54
831.25	154.45
831.427	150.36
831.604	113.49
831.782	39.76
831.959	33.62
832.136	95.06
832.313	156.5
832.49	90.96
832.667	162.64
832.844	105.3
833.021	127.83
833.198	142.16
833.374	127.83
833.551	115.54
833.728	111.44
833.905	138.07
834.082	56.15
834.259	99.16
834.436	101.2
834.612	35.67
834.789	62.29
834.966	179.03
835.143	154.45
835.319	76.63
835.496	121.68
835.673	129.88
835.85	170.83
836.026	72.53
836.203	148.31
836.38	142.16
836.556	86.87
836.733	80.72
836.909	125.78
837.086	103.25
837.262	37.72
837.439	97.11
837.616	52.05
837.792	101.2
837.968	189.27
838.145	31.57
838.321	97.11
838.498	84.82
838.674	185.17
838.851	84.82
839.027	70.48
839.203	90.96
839.38	138.07
839.556	45.91
839.732	66.39
839.909	154.45
840.085	111.44
840.261	152.4
840.437	107.35
840.614	35.67
840.79	84.82
840.966	23.38
841.142	136.02
841.318	82.77
841.494	117.59
841.671	76.63
841.847	88.92
842.023	70.48
842.199	93.01
842.375	156.5
842.551	111.44
842.727	31.57
842.903	113.49
843.079	93.01
843.255	68.44
843.431	103.25
843.607	76.63
843.783	11.09
843.959	127.83
844.134	11.09
844.31	179.03
844.486	107.35
844.662	86.87
844.838	41.81
845.013	76.63
845.189	158.55
845.365	39.76
845.541	107.35
845.716	129.88
845.892	129.88
846.068	56.15
846.244	66.39
846.419	133.97
846.595	52.05
846.77	-5.29
846.946	105.3
847.122	52.05
847.297	39.76
847.473	50
847.648	45.91
847.824	84.82
847.999	37.72
848.175	52.05
848.35	2.9
848.526	109.4
848.701	76.63
848.876	82.77
849.052	62.29
849.227	27.48
849.403	74.58
849.578	33.62
849.753	66.39
849.929	133.97
850.104	11.09
850.279	13.14
850.454	82.77
850.63	144.21
850.805	31.57
850.98	39.76
851.155	-11.43
851.33	74.58
851.505	-38.06
851.681	107.35
851.856	62.29
852.031	37.72
852.206	-23.72
852.381	15.19
852.556	41.81
852.731	129.88
852.906	113.49
853.081	13.14
853.256	64.34
853.431	72.53
853.606	56.15
853.781	88.92
853.956	-74.92
854.131	88.92
854.305	58.2
854.48	80.72
854.655	-9.39
854.83	103.25
855.005	86.87
855.18	107.35
855.354	88.92
855.529	-3.24
855.704	7
855.879	82.77
856.053	-66.73
856.228	115.54
856.403	0.85
856.577	99.16
856.752	17.24
856.926	93.01
857.101	74.58
857.276	-3.24
857.45	66.39
857.625	101.2
857.799	45.91
857.974	45.91
858.148	-50.35
858.323	47.96
858.497	78.68
858.672	80.72
858.846	-31.91
859.02	74.58
859.195	74.58
859.369	21.33
859.543	33.62
859.718	29.52
859.892	68.44
860.066	95.06
860.241	31.57
860.415	47.96
860.589	115.54
860.763	39.76
860.938	17.24
861.112	15.19
861.286	107.35
861.46	19.29
861.634	7
861.808	80.72
861.982	88.92
862.157	78.68
862.331	21.33
862.505	45.91
862.679	-19.63
862.853	31.57
863.027	9.05
863.201	88.92
863.375	23.38
863.549	0.85
863.722	2.9
863.896	80.72
864.07	-44.2
864.244	17.24
864.418	-7.34
864.592	52.05
864.766	-33.96
864.939	70.48
865.113	52.05
865.287	52.05
865.461	35.67
865.634	4.95
865.808	-17.58
865.982	25.43
866.156	-11.43
866.329	21.33
866.503	52.05
866.676	2.9
866.85	-19.63
867.024	103.25
867.197	62.29
867.371	9.05
867.544	4.95
867.718	-31.91
867.891	50
868.065	-13.48
868.238	21.33
868.412	70.48
868.585	25.43
868.759	-13.48
868.932	9.05
869.105	31.57
869.279	35.67
869.452	25.43
869.625	74.58
869.799	90.96
869.972	-17.58
870.145	62.29
870.319	50
870.492	43.86
870.665	27.48
870.838	78.68
871.011	-60.59
871.185	-11.43
871.358	-19.63
871.531	21.33
871.704	84.82
871.877	45.91
872.05	27.48
872.223	25.43
872.396	60.24
872.569	47.96
872.742	39.76
872.915	-23.72
873.088	-19.63
873.261	39.76
873.434	4.95
873.607	-3.24
873.78	35.67
873.953	-31.91
874.126	23.38
874.299	37.72
874.471	-76.97
874.644	60.24
874.817	23.38
874.99	93.01
875.163	-15.53
875.335	68.44
875.508	-21.67
875.681	64.34
875.853	2.9
876.026	2.9
876.199	43.86
876.371	43.86
876.544	58.2
876.717	0.85
876.889	23.38
877.062	64.34
877.234	-70.83
877.407	11.09
877.579	31.57
877.752	68.44
877.924	72.53
878.097	41.81
878.269	-27.82
878.442	29.52
878.614	27.48
878.786	35.67
878.959	50
879.131	-27.82
879.303	7
879.476	72.53
879.648	84.82
879.82	7
879.993	7
880.165	80.72
880.337	-36.01
880.509	-38.06
880.681	-7.34
880.854	21.33
881.026	-3.24
881.198	66.39
881.37	0.85
881.542	23.38
881.714	76.63
881.886	45.91
882.058	-3.24
882.23	56.15
882.402	-25.77
882.574	-93.35
882.746	95.06
882.918	109.4
883.09	-3.24
883.262	-72.87
883.434	33.62
883.606	62.29
883.778	33.62
883.95	88.92
884.122	72.53
884.293	54.1
884.465	37.72
884.637	17.24
884.809	-23.72
884.98	7
885.152	45.91
885.324	31.57
885.496	-11.43
885.667	-25.77
885.839	4.95
886.011	68.44
886.182	17.24
886.354	11.09
886.525	11.09
886.697	56.15
886.869	-50.35
887.04	-38.06
887.212	-19.63
887.383	52.05
887.555	41.81
887.726	80.72
887.897	50
888.069	19.29
888.24	41.81
888.412	47.96
888.583	0.85
888.754	-21.67
888.926	35.67
889.097	41.81
889.268	70.48
889.44	37.72
889.611	9.05
889.782	-1.19
889.953	54.1
890.125	43.86
890.296	50
890.467	35.67
890.638	-17.58
890.809	-42.15
890.98	-40.11
891.151	64.34
891.323	45.91
891.494	-1.19
891.665	-42.15
891.836	-23.72
892.007	7
892.178	90.96
892.349	29.52
892.52	11.09
892.691	43.86
892.862	62.29
893.032	-83.11
893.203	-48.3
893.374	45.91
893.545	68.44
893.716	43.86
893.887	113.49
894.057	-19.63
894.228	39.76
894.399	-56.49
894.57	-3.24
894.74	47.96
894.911	84.82
895.082	-42.15
895.253	-9.39
895.423	-70.83
895.594	-13.48
895.764	-97.45
895.935	33.62
896.106	15.19
896.276	-23.72
896.447	66.39
896.617	9.05
896.788	-85.16
896.958	33.62
897.129	11.09
897.299	-1.19
897.47	31.57
897.64	66.39
897.81	-42.15
897.981	86.87
898.151	43.86
898.322	35.67
898.492	17.24
898.662	-13.48
898.832	-3.24
899.003	47.96
899.173	50
899.343	-11.43
899.513	-44.2
