Data from USB4F104151__10__12-40-58-646.txt Node

Date: Fri Mar 14 12:40:58 EDT 2025
User: louis
Spectrometer: USB4F10415
Trigger mode: 4
Integration Time (sec): 3.000000E-2
Scans to average: 1
Electric dark correction enabled: true
Nonlinearity correction enabled: false
Boxcar width: 0
XAxis mode: Wavelengths
Number of Pixels in Spectrum: 3648
>>>>>Begin Spectral Data<<<<<
178.204	-100.52
178.424	-100.52
178.644	-100.52
178.864	-118.95
179.084	-84.14
179.304	-39.08
179.524	-20.65
179.744	3.93
179.964	61.27
180.184	-0.17
180.404	73.56
180.624	-39.08
180.844	-4.27
181.064	-28.84
181.283	53.08
181.503	-49.32
181.723	-10.41
181.943	-14.51
182.163	69.46
182.383	-32.94
182.602	3.93
182.822	61.27
183.042	36.69
183.262	5.97
183.482	18.26
183.701	94.04
183.921	61.27
184.141	-55.47
184.361	55.12
184.58	100.18
184.8	112.47
185.02	-28.84
185.239	63.32
185.459	12.12
185.679	96.08
185.898	-32.94
186.118	102.23
186.338	51.03
186.557	87.89
186.777	63.32
186.997	73.56
187.216	26.45
187.436	89.94
187.655	-20.65
187.875	24.4
188.095	26.45
188.314	61.27
188.534	63.32
188.753	30.55
188.973	104.28
189.192	96.08
189.412	-18.6
189.631	77.65
189.851	3.93
190.07	42.84
190.29	46.93
190.509	22.36
190.729	-34.99
190.948	20.31
191.168	124.76
191.387	153.43
191.607	91.99
191.826	57.17
192.045	63.32
192.265	-30.89
192.484	59.22
192.704	59.22
192.923	-18.6
193.142	94.04
193.362	-22.7
193.581	104.28
193.8	38.74
194.02	81.75
194.239	46.93
194.458	26.45
194.678	3.93
194.897	57.17
195.116	61.27
195.335	67.41
195.555	108.37
195.774	3.93
195.993	46.93
196.212	20.31
196.432	55.12
196.651	32.6
196.87	91.99
197.089	48.98
197.308	104.28
197.528	48.98
197.747	16.21
197.966	-43.18
198.185	65.36
198.404	-18.6
198.623	69.46
198.842	71.51
199.062	112.47
199.281	120.66
199.5	65.36
199.719	-18.6
199.938	89.94
200.157	53.08
200.376	38.74
200.595	24.4
200.814	102.23
201.033	-32.94
201.252	89.94
201.471	30.55
201.69	42.84
201.909	79.7
202.128	14.17
202.347	59.22
202.566	34.64
202.785	-34.99
203.004	22.36
203.223	67.41
203.442	-8.36
203.661	40.79
203.879	53.08
204.098	-0.17
204.317	38.74
204.536	38.74
204.755	8.02
204.974	22.36
205.193	83.8
205.411	112.47
205.63	-2.22
205.849	34.64
206.068	5.97
206.287	-12.46
206.505	71.51
206.724	51.03
206.943	-14.51
207.162	14.17
207.381	14.17
207.599	40.79
207.818	36.69
208.037	-43.18
208.255	40.79
208.474	65.36
208.693	69.46
208.911	5.97
209.13	40.79
209.349	30.55
209.567	28.5
209.786	71.51
210.005	-37.03
210.223	102.23
210.442	-34.99
210.661	61.27
210.879	77.65
211.098	-34.99
211.316	14.17
211.535	112.47
211.753	91.99
211.972	46.93
212.191	-10.41
212.409	38.74
212.628	87.89
212.846	14.17
213.065	3.93
213.283	22.36
213.502	61.27
213.72	44.88
213.938	44.88
214.157	77.65
214.375	12.12
214.594	14.17
214.812	79.7
215.031	73.56
215.249	59.22
215.467	44.88
215.686	8.02
215.904	3.93
216.122	108.37
216.341	79.7
216.559	-69.8
216.778	30.55
216.996	94.04
217.214	61.27
217.432	28.5
217.651	-30.89
217.869	46.93
218.087	-4.27
218.306	-6.31
218.524	12.12
218.742	48.98
218.96	32.6
219.179	94.04
219.397	-22.7
219.615	102.23
219.833	-12.46
220.051	-26.79
220.27	79.7
220.488	89.94
220.706	48.98
220.924	-18.6
221.142	20.31
221.36	53.08
221.578	-55.47
221.796	28.5
222.015	38.74
222.233	26.45
222.451	128.85
222.669	-10.41
222.887	122.71
223.105	16.21
223.323	3.93
223.541	53.08
223.759	79.7
223.977	16.21
224.195	175.95
224.413	102.23
224.631	38.74
224.849	46.93
225.067	79.7
225.285	-32.94
225.503	-20.65
225.721	-69.8
225.939	63.32
226.157	1.88
226.375	124.76
226.592	36.69
226.81	5.97
227.028	-0.17
227.246	96.08
227.464	96.08
227.682	118.61
227.9	-39.08
228.117	85.84
228.335	104.28
228.553	8.02
228.771	36.69
228.989	61.27
229.206	24.4
229.424	16.21
229.642	-24.75
229.86	1.88
230.077	69.46
230.295	85.84
230.513	67.41
230.731	32.6
230.948	79.7
231.166	63.32
231.384	40.79
231.601	12.12
231.819	87.89
232.037	-12.46
232.254	-39.08
232.472	-24.75
232.689	14.17
232.907	81.75
233.125	83.8
233.342	106.32
233.56	16.21
233.777	51.03
233.995	79.7
234.213	61.27
234.43	14.17
234.648	40.79
234.865	69.46
235.083	106.32
235.3	-16.55
235.518	26.45
235.735	81.75
235.953	40.79
236.17	34.64
236.388	3.93
236.605	44.88
236.822	155.47
237.04	16.21
237.257	71.51
237.475	12.12
237.692	8.02
237.909	36.69
238.127	63.32
238.344	-4.27
238.562	22.36
238.779	3.93
238.996	20.31
239.214	44.88
239.431	75.6
239.648	61.27
239.865	65.36
240.083	91.99
240.3	36.69
240.517	28.5
240.735	79.7
240.952	30.55
241.169	85.84
241.386	10.07
241.603	-26.79
241.821	46.93
242.038	51.03
242.255	69.46
242.472	5.97
242.689	30.55
242.907	28.5
243.124	34.64
243.341	112.47
243.558	5.97
243.775	10.07
243.992	-16.55
244.209	38.74
244.426	79.7
244.643	-28.84
244.86	-104.62
245.078	-37.03
245.295	57.17
245.512	53.08
245.729	-2.22
245.946	81.75
246.163	59.22
246.38	104.28
246.597	46.93
246.814	75.6
247.031	73.56
247.248	42.84
247.464	94.04
247.681	12.12
247.898	135
248.115	112.47
248.332	-12.46
248.549	18.26
248.766	100.18
248.983	38.74
249.2	106.32
249.417	-8.36
249.633	-10.41
249.85	46.93
250.067	83.8
250.284	28.5
250.501	18.26
250.717	-4.27
250.934	-18.6
251.151	10.07
251.368	-2.22
251.585	36.69
251.801	59.22
252.018	1.88
252.235	53.08
252.451	36.69
252.668	59.22
252.885	100.18
253.102	51.03
253.318	30.55
253.535	46.93
253.752	-4.27
253.968	38.74
254.185	3.93
254.401	91.99
254.618	67.41
254.835	-77.99
255.051	149.33
255.268	16.21
255.484	-24.75
255.701	3.93
255.917	22.36
256.134	44.88
256.351	36.69
256.567	-4.27
256.784	24.4
257	-8.36
257.217	46.93
257.433	42.84
257.65	67.41
257.866	42.84
258.082	22.36
258.299	108.37
258.515	22.36
258.732	22.36
258.948	-26.79
259.165	79.7
259.381	1.88
259.597	40.79
259.814	-0.17
260.03	-61.61
260.246	18.26
260.463	61.27
260.679	44.88
260.895	67.41
261.112	81.75
261.328	24.4
261.544	24.4
261.761	16.21
261.977	22.36
262.193	-18.6
262.409	75.6
262.626	5.97
262.842	-6.31
263.058	-22.7
263.274	-28.84
263.49	-10.41
263.707	-0.17
263.923	20.31
264.139	-41.13
264.355	32.6
264.571	79.7
264.787	20.31
265.004	77.65
265.22	14.17
265.436	-6.31
265.652	-49.32
265.868	51.03
266.084	-12.46
266.3	44.88
266.516	12.12
266.732	-8.36
266.948	57.17
267.164	-47.27
267.38	28.5
267.596	55.12
267.812	28.5
268.028	42.84
268.244	10.07
268.46	-51.37
268.676	14.17
268.892	46.93
269.108	-16.55
269.324	32.6
269.54	5.97
269.756	44.88
269.972	-0.17
270.188	14.17
270.403	55.12
270.619	42.84
270.835	102.23
271.051	16.21
271.267	65.36
271.483	22.36
271.698	85.84
271.914	20.31
272.13	32.6
272.346	8.02
272.562	36.69
272.777	94.04
272.993	-0.17
273.209	36.69
273.425	63.32
273.64	3.93
273.856	18.26
274.072	-30.89
274.287	59.22
274.503	32.6
274.719	-12.46
274.934	-10.41
275.15	-43.18
275.366	3.93
275.581	14.17
275.797	16.21
276.012	51.03
276.228	-10.41
276.444	28.5
276.659	89.94
276.875	77.65
277.09	20.31
277.306	73.56
277.521	-14.51
277.737	32.6
277.952	26.45
278.168	63.32
278.383	-4.27
278.599	73.56
278.814	94.04
279.03	61.27
279.245	32.6
279.461	-32.94
279.676	34.64
279.892	3.93
280.107	-30.89
280.322	53.08
280.538	40.79
280.753	-24.75
280.969	61.27
281.184	30.55
281.399	73.56
281.615	44.88
281.83	87.89
282.045	-34.99
282.26	-6.31
282.476	-41.13
282.691	40.79
282.906	24.4
283.122	-32.94
283.337	-4.27
283.552	24.4
283.767	94.04
283.983	22.36
284.198	12.12
284.413	44.88
284.628	55.12
284.843	40.79
285.058	55.12
285.274	91.99
285.489	24.4
285.704	-16.55
285.919	-32.94
286.134	53.08
286.349	32.6
286.564	55.12
286.779	63.32
286.995	46.93
287.21	-45.23
287.425	61.27
287.64	14.17
287.855	40.79
288.07	-18.6
288.285	94.04
288.5	36.69
288.715	87.89
288.93	83.8
289.145	104.28
289.36	85.84
289.575	63.32
289.79	61.27
290.004	32.6
290.219	100.18
290.434	-4.27
290.649	89.94
290.864	36.69
291.079	55.12
291.294	46.93
291.509	77.65
291.724	81.75
291.938	89.94
292.153	34.64
292.368	-28.84
292.583	20.31
292.798	-8.36
293.012	-0.17
293.227	22.36
293.442	89.94
293.657	-22.7
293.871	8.02
294.086	51.03
294.301	28.5
294.516	77.65
294.73	83.8
294.945	14.17
295.16	87.89
295.374	48.98
295.589	12.12
295.804	34.64
296.018	65.36
296.233	14.17
296.447	40.79
296.662	28.5
296.877	69.46
297.091	112.47
297.306	59.22
297.52	46.93
297.735	59.22
297.949	-6.31
298.164	22.36
298.378	10.07
298.593	28.5
298.807	26.45
299.022	89.94
299.236	118.61
299.451	40.79
299.665	-18.6
299.88	53.08
300.094	26.45
300.309	67.41
300.523	48.98
300.737	75.6
300.952	38.74
301.166	30.55
301.381	18.26
301.595	-26.79
301.809	8.02
302.024	-49.32
302.238	-26.79
302.452	71.51
302.667	32.6
302.881	55.12
303.095	94.04
303.309	32.6
303.524	24.4
303.738	36.69
303.952	40.79
304.166	65.36
304.381	30.55
304.595	91.99
304.809	-18.6
305.023	38.74
305.237	42.84
305.452	14.17
305.666	42.84
305.88	108.37
306.094	63.32
306.308	36.69
306.522	40.79
306.736	32.6
306.95	69.46
307.164	122.71
307.379	67.41
307.593	149.33
307.807	98.13
308.021	-39.08
308.235	116.56
308.449	-20.65
308.663	89.94
308.877	65.36
309.091	57.17
309.305	28.5
309.519	3.93
309.733	85.84
309.947	-24.75
310.161	69.46
310.374	-37.03
310.588	106.32
310.802	-8.36
311.016	85.84
311.23	10.07
311.444	-0.17
311.658	3.93
311.872	24.4
312.085	91.99
312.299	32.6
312.513	67.41
312.727	61.27
312.941	14.17
313.154	34.64
313.368	73.56
313.582	77.65
313.796	34.64
314.009	85.84
314.223	12.12
314.437	46.93
314.651	114.52
314.864	-8.36
315.078	63.32
315.292	57.17
315.505	71.51
315.719	57.17
315.933	55.12
316.146	26.45
316.36	-6.31
316.573	73.56
316.787	55.12
317.001	63.32
317.214	32.6
317.428	46.93
317.641	1.88
317.855	57.17
318.068	16.21
318.282	46.93
318.495	124.76
318.709	18.26
318.922	3.93
319.136	118.61
319.349	40.79
319.563	34.64
319.776	65.36
319.99	-24.75
320.203	63.32
320.417	85.84
320.63	61.27
320.843	135
321.057	67.41
321.27	10.07
321.483	53.08
321.697	116.56
321.91	-0.17
322.124	10.07
322.337	-34.99
322.55	83.8
322.763	16.21
322.977	-6.31
323.19	24.4
323.403	24.4
323.617	81.75
323.83	57.17
324.043	5.97
324.256	-24.75
324.469	-22.7
324.683	194.39
324.896	16.21
325.109	-14.51
325.322	3.93
325.535	57.17
325.748	42.84
325.962	132.95
326.175	57.17
326.388	-37.03
326.601	69.46
326.814	24.4
327.027	46.93
327.24	85.84
327.453	30.55
327.666	98.13
327.879	94.04
328.092	91.99
328.305	163.67
328.518	77.65
328.731	14.17
328.944	26.45
329.157	-32.94
329.37	-2.22
329.583	96.08
329.796	128.85
330.009	-30.89
330.222	124.76
330.435	30.55
330.648	73.56
330.861	1.88
331.073	22.36
331.286	135
331.499	20.31
331.712	32.6
331.925	40.79
332.138	-12.46
332.35	63.32
332.563	-22.7
332.776	46.93
332.989	46.93
333.202	-0.17
333.414	-28.84
333.627	83.8
333.84	-0.17
334.053	34.64
334.265	53.08
334.478	22.36
334.691	8.02
334.903	79.7
335.116	14.17
335.329	42.84
335.541	5.97
335.754	157.52
335.966	48.98
336.179	53.08
336.392	20.31
336.604	24.4
336.817	53.08
337.029	22.36
337.242	10.07
337.454	10.07
337.667	24.4
337.88	59.22
338.092	48.98
338.305	83.8
338.517	34.64
338.729	102.23
338.942	57.17
339.154	20.31
339.367	-26.79
339.579	44.88
339.792	3.93
340.004	94.04
340.217	67.41
340.429	34.64
340.641	69.46
340.854	-0.17
341.066	51.03
341.278	85.84
341.491	83.8
341.703	16.21
341.915	10.07
342.128	14.17
342.34	30.55
342.552	22.36
342.764	32.6
342.977	-14.51
343.189	73.56
343.401	40.79
343.613	-34.99
343.826	14.17
344.038	24.4
344.25	73.56
344.462	51.03
344.674	53.08
344.886	16.21
345.099	22.36
345.311	73.56
345.523	48.98
345.735	26.45
345.947	26.45
346.159	73.56
346.371	5.97
346.583	44.88
346.795	112.47
347.007	40.79
347.219	96.08
347.431	69.46
347.643	53.08
347.855	36.69
348.067	85.84
348.279	-59.56
348.491	40.79
348.703	36.69
348.915	59.22
349.127	73.56
349.339	38.74
349.551	14.17
349.763	118.61
349.975	51.03
350.187	124.76
350.399	30.55
350.61	91.99
350.822	-6.31
351.034	55.12
351.246	104.28
351.458	53.08
351.669	143.19
351.881	48.98
352.093	57.17
352.305	132.95
352.517	32.6
352.728	155.47
352.94	69.46
353.152	-14.51
353.363	-8.36
353.575	71.51
353.787	40.79
353.999	40.79
354.21	48.98
354.422	-0.17
354.633	-20.65
354.845	118.61
355.057	61.27
355.268	114.52
355.48	141.14
355.692	42.84
355.903	83.8
356.115	-14.51
356.326	-8.36
356.538	139.09
356.749	59.22
356.961	102.23
357.172	-2.22
357.384	36.69
357.595	143.19
357.807	135
358.018	53.08
358.23	40.79
358.441	57.17
358.653	22.36
358.864	42.84
359.075	-32.94
359.287	110.42
359.498	89.94
359.709	124.76
359.921	-0.17
360.132	67.41
360.344	16.21
360.555	96.08
360.766	71.51
360.977	28.5
361.189	51.03
361.4	24.4
361.611	114.52
361.823	71.51
362.034	51.03
362.245	57.17
362.456	67.41
362.667	77.65
362.879	57.17
363.09	75.6
363.301	26.45
363.512	26.45
363.723	-55.47
363.935	-14.51
364.146	40.79
364.357	59.22
364.568	46.93
364.779	-49.32
364.99	89.94
365.201	16.21
365.412	-14.51
365.623	36.69
365.834	53.08
366.045	89.94
366.256	128.85
366.467	42.84
366.678	51.03
366.889	-2.22
367.1	38.74
367.311	30.55
367.522	-47.27
367.733	85.84
367.944	42.84
368.155	53.08
368.366	55.12
368.577	38.74
368.788	89.94
368.999	5.97
369.209	-12.46
369.42	135
369.631	83.8
369.842	63.32
370.053	-14.51
370.264	96.08
370.474	1.88
370.685	81.75
370.896	46.93
371.107	128.85
371.317	85.84
371.528	98.13
371.739	46.93
371.95	79.7
372.16	53.08
372.371	63.32
372.582	-12.46
372.792	61.27
373.003	96.08
373.214	100.18
373.424	42.84
373.635	18.26
373.846	96.08
374.056	26.45
374.267	77.65
374.477	69.46
374.688	73.56
374.898	96.08
375.109	104.28
375.319	28.5
375.53	18.26
375.74	75.6
375.951	120.66
376.161	36.69
376.372	75.6
376.582	-2.22
376.793	75.6
377.003	77.65
377.214	22.36
377.424	149.33
377.635	36.69
377.845	-49.32
378.055	141.14
378.266	5.97
378.476	5.97
378.686	32.6
378.897	81.75
379.107	57.17
379.317	69.46
379.528	128.85
379.738	40.79
379.948	10.07
380.158	46.93
380.369	46.93
380.579	85.84
380.789	102.23
380.999	69.46
381.21	63.32
381.42	118.61
381.63	53.08
381.84	48.98
382.05	83.8
382.261	40.79
382.471	130.9
382.681	3.93
382.891	34.64
383.101	69.46
383.311	-2.22
383.521	16.21
383.731	102.23
383.941	24.4
384.151	48.98
384.361	63.32
384.571	85.84
384.781	83.8
384.991	85.84
385.201	132.95
385.411	71.51
385.621	67.41
385.831	38.74
386.041	67.41
386.251	67.41
386.461	57.17
386.671	36.69
386.881	149.33
387.091	44.88
387.301	32.6
387.511	24.4
387.72	69.46
387.93	73.56
388.14	24.4
388.35	46.93
388.56	128.85
388.769	167.76
388.979	48.98
389.189	20.31
389.399	73.56
389.609	89.94
389.818	12.12
390.028	40.79
390.238	110.42
390.447	57.17
390.657	65.36
390.867	-61.61
391.076	98.13
391.286	135
391.496	63.32
391.705	53.08
391.915	83.8
392.125	44.88
392.334	44.88
392.544	63.32
392.753	65.36
392.963	22.36
393.172	26.45
393.382	57.17
393.591	53.08
393.801	135
394.01	145.24
394.22	-2.22
394.429	147.28
394.639	159.57
394.848	36.69
395.058	126.8
395.267	132.95
395.477	91.99
395.686	85.84
395.895	96.08
396.105	165.71
396.314	28.5
396.524	69.46
396.733	42.84
396.942	112.47
397.152	75.6
397.361	175.95
397.57	91.99
397.78	96.08
397.989	89.94
398.198	98.13
398.407	85.84
398.617	61.27
398.826	102.23
399.035	81.75
399.244	122.71
399.453	102.23
399.663	83.8
399.872	186.19
400.081	53.08
400.29	229.2
400.499	38.74
400.708	126.8
400.917	102.23
401.127	59.22
401.336	149.33
401.545	145.24
401.754	85.84
401.963	190.29
402.172	81.75
402.381	55.12
402.59	94.04
402.799	94.04
403.008	75.6
403.217	114.52
403.426	91.99
403.635	44.88
403.844	157.52
404.053	83.8
404.262	44.88
404.471	128.85
404.68	180.05
404.888	178
405.097	126.8
405.306	137.04
405.515	165.71
405.724	143.19
405.933	143.19
406.142	151.38
406.35	167.76
406.559	132.95
406.768	145.24
406.977	243.54
407.185	157.52
407.394	194.39
407.603	208.72
407.812	159.57
408.02	208.72
408.229	180.05
408.438	151.38
408.646	169.81
408.855	229.2
409.064	276.31
409.272	235.35
409.481	239.44
409.69	204.63
409.898	249.68
410.107	300.88
410.315	223.06
410.524	204.63
410.733	296.78
410.941	259.92
411.15	304.98
411.358	264.02
411.567	393.04
411.775	327.5
411.984	356.18
412.192	331.6
412.401	345.94
412.609	440.14
412.818	378.7
413.026	423.76
413.234	341.84
413.443	376.66
413.651	425.81
413.86	390.99
414.068	466.77
414.276	517.97
414.485	421.71
414.693	524.11
414.901	675.66
415.11	560.97
415.318	554.83
415.526	667.47
415.734	681.8
415.943	581.45
416.151	716.62
416.359	735.05
416.567	698.19
416.776	780.11
416.984	753.48
417.192	804.68
417.4	874.31
417.608	747.34
417.817	819.02
418.025	939.85
418.233	952.13
418.441	888.65
418.649	1138.5
418.857	1048.39
419.065	1046.34
419.273	1046.34
419.481	1001.29
419.689	1175.36
419.897	1177.41
420.105	1208.13
420.313	1247.04
420.521	1308.48
420.729	1347.39
420.937	1308.48
421.145	1378.11
421.353	1533.76
421.561	1572.67
421.769	1546.05
421.977	1691.45
422.185	1646.4
422.393	1812.28
422.601	1836.86
422.809	1826.62
423.017	1849.15
423.224	1894.2
423.432	1922.87
423.64	2043.7
423.848	2129.72
424.056	1959.74
424.263	2150.2
424.471	2279.22
424.679	2285.36
424.887	2447.15
425.094	2506.54
425.302	2596.65
425.51	2576.17
425.718	2598.7
425.925	2756.4
426.133	2758.44
426.341	2936.62
426.548	2993.96
426.756	3086.12
426.964	3198.76
427.171	3258.15
427.379	3462.94
427.586	3335.97
427.794	3589.92
428.001	3737.37
428.209	3813.15
428.417	3841.82
428.624	4050.71
428.832	4083.48
429.039	4063
429.247	4042.52
429.454	4476.69
429.662	4607.76
429.869	4519.7
430.076	4669.2
430.284	4652.81
430.491	4861.71
430.699	5111.56
430.906	5009.16
431.114	5148.42
431.321	5291.78
431.528	5377.8
431.736	5764.86
431.943	6027
432.15	5719.81
432.358	6065.91
432.565	6123.26
432.772	6289.14
432.979	6536.95
433.187	6682.35
433.394	6874.86
433.601	7212.78
433.808	7280.36
434.016	7155.43
434.223	7530.21
434.43	7911.13
434.637	7839.45
434.844	8249.05
435.052	8617.68
435.259	8296.15
435.466	8326.87
435.673	8335.06
435.88	8939.21
436.087	9193.16
436.294	9412.29
436.501	9123.53
436.708	9400.01
436.915	9533.12
437.122	10055.36
437.329	10041.02
437.537	10440.37
437.743	10665.65
437.95	10598.07
438.157	11163.31
438.364	11550.37
438.571	11177.64
438.778	11507.37
438.985	12431
439.192	12031.65
439.399	12349.08
439.606	11937.44
439.813	12938.9
440.02	13678.21
440.227	13022.86
440.433	13317.77
440.64	13467.27
440.847	13475.46
441.054	13868.67
441.261	14843.51
441.467	14374.52
441.674	14696.05
441.881	15349.36
442.088	15171.18
442.294	15326.83
442.501	15568.49
442.708	16146.01
442.914	16635.48
443.121	17528.39
443.328	17045.07
443.534	18167.36
443.741	17452.62
443.948	17223.25
444.154	18671.16
444.361	18460.22
444.568	18669.11
444.774	18654.78
444.981	18814.52
445.187	19260.98
445.394	20184.61
445.6	20080.16
445.807	21511.69
446.013	20782.62
446.22	21028.37
446.426	22224.39
446.633	22386.18
446.839	23272.95
447.046	22267.39
447.252	23191.03
447.459	23594.48
447.665	23025.14
447.871	24425.95
448.078	25447.89
448.284	24471.01
448.491	24688.09
448.697	25863.63
448.903	26400.19
449.11	26316.23
449.316	25959.88
449.522	26129.86
449.728	27411.89
449.935	27463.09
450.141	27252.15
450.347	28233.13
450.553	26955.19
450.76	27311.54
450.966	28476.83
451.172	28083.62
451.378	28804.51
451.584	27989.42
451.791	28945.82
451.997	28708.26
452.203	29283.73
452.409	29357.46
452.615	29048.22
452.821	28263.85
453.027	27923.88
453.233	29085.08
453.44	28132.78
453.646	28241.32
453.852	28417.44
454.058	28796.32
454.264	28310.95
454.47	29023.64
454.676	28003.75
454.882	28876.19
455.088	26443.2
455.294	26635.71
455.5	27145.66
455.705	27854.25
455.911	26185.16
456.117	25970.12
456.323	25630.16
456.529	24108.52
456.735	25284.05
456.941	24702.43
457.147	24384.99
457.352	23334.39
457.558	23215.6
457.764	23545.33
457.97	22709.75
458.176	22504.96
458.381	22173.19
458.587	21093.91
458.793	21505.55
458.999	20020.77
459.204	21511.69
459.41	21059.09
459.616	19648.04
459.821	19738.15
460.027	19340.85
460.233	19082.8
460.438	18415.16
460.644	18384.44
460.85	17595.98
461.055	17266.25
461.261	17485.39
461.466	15781.48
461.672	15636.07
461.878	16481.88
462.083	15384.17
462.289	14982.77
462.494	14978.67
462.7	14315.13
462.905	14188.16
463.111	14646.9
463.316	14528.12
463.522	14323.32
463.727	14167.68
463.932	14057.09
464.138	14067.33
464.343	14055.04
464.549	13627.01
464.754	14052.99
464.959	13989.5
465.165	13958.78
465.37	13414.02
465.575	13117.07
465.781	13586.05
465.986	13715.08
466.191	13160.08
466.397	12967.57
466.602	12136.09
466.807	12742.29
467.012	12918.42
467.218	12734.1
467.423	12603.03
467.628	12549.78
467.833	13061.77
468.038	12379.8
468.244	12465.82
468.449	12523.16
468.654	12306.07
468.859	12347.03
469.064	12170.91
469.269	12023.45
469.474	11777.7
469.679	12115.61
469.885	11724.45
470.09	11732.64
470.295	11568.8
470.5	11720.35
470.705	11521.7
470.91	11306.66
471.115	11212.46
471.32	11333.29
471.525	11366.06
471.73	11042.48
471.935	10747.57
472.139	10679.99
472.344	10679.99
472.549	10583.73
472.754	10598.07
472.959	10305.21
473.164	10041.02
473.369	10006.2
473.574	10426.04
473.778	10069.69
473.983	10153.66
474.188	9957.05
474.393	9731.78
474.598	9801.41
474.802	9332.42
475.007	9561.8
475.212	9572.04
475.417	9320.14
475.621	9389.77
475.826	9311.94
476.031	9139.91
476.235	8881.87
476.44	8967.88
476.645	8713.94
476.849	8822.48
477.054	8672.98
477.259	8625.87
477.463	8529.62
477.668	8318.68
477.872	8591.06
478.077	8273.62
478.282	8253.14
478.486	8177.37
478.691	7900.89
478.895	7968.48
479.1	8070.87
479.304	8042.2
479.509	7704.29
479.713	7761.63
479.918	7550.69
480.122	7644.9
480.326	7823.07
480.531	7753.44
480.735	7837.41
480.94	7737.06
481.144	7603.94
481.348	7593.7
481.553	7440.1
481.757	7511.78
481.961	7544.55
482.166	7446.24
482.37	7622.37
482.574	7423.72
482.778	7366.37
482.983	7380.71
483.187	7386.85
483.391	7696.1
483.595	7309.03
483.8	7347.94
484.004	7427.81
484.208	7454.44
484.412	7227.11
484.616	7352.04
484.821	7352.04
485.025	7372.52
485.229	7325.41
485.433	7220.97
485.637	7456.48
485.841	7483.11
486.045	7239.4
486.249	7364.32
486.453	7159.53
486.657	7513.83
486.861	7456.48
487.065	7278.31
487.269	7157.48
487.473	7304.93
487.677	7329.51
487.881	7532.26
488.085	7356.13
488.289	7325.41
488.493	7366.37
488.697	7368.42
488.901	7503.59
489.105	7413.48
489.309	7345.89
489.512	7589.6
489.716	7427.81
489.92	7464.68
490.124	7452.39
490.328	7585.51
490.531	7372.52
490.735	7552.74
490.939	7524.07
491.143	7536.35
491.346	7612.13
491.55	7767.77
491.754	7618.27
491.958	7581.41
492.161	7593.7
492.365	7814.88
492.569	7818.97
492.772	7792.35
492.976	7831.26
493.18	7825.12
493.383	8074.97
493.587	7995.1
493.79	8048.35
493.994	8001.24
494.197	8103.64
494.401	8203.99
494.605	8103.64
494.808	8277.72
495.012	8320.73
495.215	8339.16
495.419	8472.28
495.622	8337.11
495.825	8480.47
496.029	8371.93
496.232	8726.22
496.436	8672.98
496.639	8834.77
496.843	8789.71
497.046	8812.24
497.249	9244.36
497.453	9266.89
497.656	9322.18
497.859	9412.29
498.063	9408.2
498.266	9481.92
498.469	9416.39
498.673	9699.01
498.876	9852.61
499.079	9803.46
499.282	9899.71
499.485	9977.53
499.689	10067.64
499.892	10331.83
500.095	10167.99
500.298	10423.99
500.501	10557.11
500.705	10632.88
500.908	10837.68
501.111	10790.58
501.314	11099.82
501.517	11153.07
501.72	11271.85
501.923	11423.4
502.126	11527.85
502.329	11509.41
502.532	11724.45
502.735	11730.59
502.938	12048.03
503.141	12115.61
503.344	12189.34
503.547	12322.46
503.75	12557.97
503.953	12574.36
504.156	12643.99
504.359	12955.28
504.562	12873.36
504.765	13125.26
504.968	13313.67
505.17	13336.2
505.373	13442.7
505.576	13899.39
505.779	13803.14
505.982	13921.92
506.185	14059.13
506.387	14366.33
506.59	14378.62
506.793	14583.41
506.996	14536.31
507.198	14788.21
507.401	14759.54
507.604	15076.98
507.807	15265.39
508.009	15480.43
508.212	15437.42
508.415	15722.09
508.617	15973.99
508.82	15916.64
509.022	15779.43
509.225	16262.75
509.428	16502.36
509.63	16539.22
509.833	16522.84
510.035	17178.19
510.238	17055.31
510.44	17147.47
510.643	17253.97
510.845	17557.07
511.048	17561.16
511.25	17532.49
511.453	17968.71
511.655	18527.8
511.858	18337.34
512.06	18316.86
512.262	18732.6
512.465	18499.13
512.667	19031.6
512.87	19195.44
513.072	19232.3
513.274	19607.08
513.477	19564.07
513.679	19830.31
513.881	20069.92
514.084	19945
514.286	19926.57
514.488	20475.42
514.69	20583.96
514.893	21040.66
515.095	21036.56
515.297	21134.87
515.499	21433.87
515.701	21610
515.904	21851.66
516.106	21894.66
516.308	22222.34
516.51	22320.64
516.712	22294.02
516.914	22701.56
517.116	22957.56
517.318	22986.23
517.52	22844.92
517.722	23100.92
517.925	23408.11
518.127	23961.06
518.329	23635.44
518.531	23662.06
518.733	24399.33
518.935	24405.47
519.136	24542.69
519.338	24827.35
519.54	24845.79
519.742	25083.35
519.944	25325.01
520.146	25568.72
520.348	25667.02
520.55	26009.03
520.752	26035.66
520.954	26398.15
521.155	26090.95
521.357	26457.54
521.559	26670.53
521.761	26977.72
521.963	26994.11
522.164	27246.01
522.366	27354.55
522.568	27530.67
522.77	27534.77
522.971	28100.01
523.173	27633.07
523.375	27999.66
523.576	27925.93
523.778	28188.07
523.98	28728.73
524.181	28683.68
524.383	28812.7
524.584	29015.45
524.786	29175.19
524.988	28935.58
525.189	29173.14
525.391	29396.37
525.592	29820.3
525.794	29767.06
525.995	29851.02
526.197	29859.21
526.398	29769.1
526.6	30248.33
526.801	30346.63
527.003	30449.03
527.204	30395.78
527.406	30770.56
527.607	30827.9
527.808	30979.45
528.01	29824.4
528.211	30920.06
528.412	31657.33
528.614	31272.31
528.815	31327.61
529.016	31698.29
529.218	30891.39
529.419	31198.59
529.62	31378.81
529.822	31624.56
530.023	31599.99
530.224	31251.83
530.425	31346.04
530.626	31255.93
530.828	31364.47
531.029	31798.64
531.23	31419.77
531.431	31690.1
531.632	31835.5
531.833	31890.8
532.035	31907.18
532.236	32077.16
532.437	32128.36
532.638	31700.34
532.839	32333.16
533.04	32028.01
533.241	31894.89
533.442	32281.96
533.643	31870.32
533.844	31765.87
534.045	32032.11
534.246	31763.82
534.447	32243.05
534.648	31999.34
534.849	32081.26
535.05	31870.32
535.251	32056.68
535.451	31796.59
535.652	32478.57
535.853	31976.81
536.054	32197.99
536.255	32531.81
536.456	31919.47
536.657	32605.54
536.857	32423.27
537.058	32017.77
537.259	32034.16
537.46	32183.66
537.66	31944.05
537.861	32169.32
538.062	31864.18
538.263	32374.12
538.463	32169.32
538.664	31995.25
538.865	32447.85
539.065	32525.67
539.266	31849.84
539.466	32267.62
539.667	31716.72
539.868	32109.93
540.068	31794.54
540.269	31980.91
540.469	32146.79
540.67	31958.38
540.87	32128.36
541.071	31671.67
541.271	31989.1
541.472	32208.23
541.672	31952.24
541.873	31888.75
542.073	31575.41
542.274	32181.61
542.474	31978.86
542.675	31708.53
542.875	32089.45
543.075	32169.32
543.276	31333.75
543.476	32144.75
543.676	31552.88
543.877	31868.27
544.077	31978.86
544.277	31722.87
544.478	31409.53
544.678	32165.23
544.878	31716.72
545.078	31995.25
545.279	31358.33
545.479	31892.85
545.679	31681.91
545.879	31618.42
546.079	31782.26
546.28	31430.01
546.48	31769.97
546.68	31962.48
546.88	31894.89
547.08	31638.9
547.28	31554.93
547.48	31481.2
547.68	31759.73
547.88	31575.41
548.081	31751.54
548.281	31780.21
548.481	31298.94
548.681	31927.66
548.881	31552.88
549.081	31477.11
549.28	31591.8
549.48	31667.57
549.68	31382.9
549.88	32056.68
550.08	31268.22
550.28	31626.61
550.48	31688.05
550.68	31917.42
550.88	31337.85
551.08	31495.54
551.279	31425.91
551.479	31206.78
551.679	31217.02
551.879	31202.68
552.079	31849.84
552.278	31675.76
552.478	31628.66
552.678	31376.76
552.878	31690.1
553.077	31298.94
553.277	31038.84
553.477	31866.22
553.676	31456.63
553.876	31288.7
554.076	31505.78
554.275	31604.08
554.475	30875.01
554.674	31462.77
554.874	31210.87
555.074	31251.83
555.273	31053.18
555.473	31239.54
555.672	30911.87
555.872	31071.61
556.071	30875.01
556.271	31196.54
556.47	31067.52
556.67	30774.66
556.869	30946.69
557.068	31075.71
557.268	30950.78
557.467	30610.82
557.667	30807.42
557.866	30846.33
558.065	30727.55
558.265	30416.26
558.464	30539.14
558.663	31073.66
558.863	30244.23
559.062	31077.76
559.261	30465.41
559.461	31034.75
559.66	30203.27
559.859	30588.29
560.058	29824.4
560.258	30535.04
560.457	30158.22
560.656	30465.41
560.855	30223.75
561.054	30309.77
561.253	30168.46
561.453	29961.61
561.652	30027.15
561.851	30285.19
562.05	29525.39
562.249	29918.6
562.448	29978
562.647	29668.75
562.846	30080.39
563.045	29861.26
563.244	29552.02
563.443	29951.37
563.642	29500.82
563.841	29951.37
564.04	29363.61
564.239	29699.47
564.438	29238.68
564.637	29545.87
564.836	29486.48
565.035	29271.45
565.234	29425.04
565.432	29302.17
565.631	29070.75
565.83	29322.65
566.029	29111.71
566.228	28695.97
566.427	29080.99
566.625	28949.92
566.824	28532.13
567.023	29003.16
567.222	28433.83
567.42	28784.03
567.619	28394.92
567.818	28540.32
568.016	28456.36
568.215	28794.27
568.414	28540.32
568.612	28747.17
568.811	28433.83
569.01	28499.36
569.208	28179.88
569.407	28786.08
569.605	28093.86
569.804	28032.43
570.002	28212.65
570.201	28239.27
570.4	28016.04
570.598	27846.06
570.797	27620.78
570.995	27915.69
571.193	27520.43
571.392	27850.16
571.59	27461.04
571.789	27768.24
571.987	27745.71
572.186	27510.19
572.384	27225.53
572.582	27631.02
572.781	27372.98
572.979	26949.05
573.177	27217.33
573.376	27358.64
573.574	26777.02
573.772	27188.66
573.971	26699.2
574.169	26709.44
574.367	26932.67
574.565	27180.47
574.763	26680.77
574.962	26561.98
575.16	26502.59
575.358	26484.16
575.556	26078.66
575.754	26486.21
575.952	26179.01
576.151	26555.84
576.349	26025.42
576.547	25830.86
576.745	26107.33
576.943	26279.36
577.141	25951.69
577.339	25855.43
577.537	26113.48
577.735	25802.19
577.933	25548.24
578.131	25980.36
578.329	25472.46
578.527	25359.83
578.725	25740.75
578.923	25861.58
579.121	25419.22
579.319	25480.66
579.516	25447.89
579.714	25451.98
579.912	25167.32
580.11	24720.86
580.308	25451.98
580.506	25073.11
580.704	24450.53
580.901	24974.81
581.099	24962.52
581.297	24743.39
581.495	24393.19
581.692	24829.4
581.89	24456.67
582.088	24595.93
582.285	24483.3
582.483	24720.86
582.681	24196.58
582.878	24516.06
583.076	24088.04
583.274	24516.06
583.471	24114.66
583.669	24247.78
583.866	23713.26
584.064	24233.44
584.262	23533.04
584.459	24169.96
584.657	23526.89
584.854	23842.28
585.052	23266.8
585.249	23799.27
585.447	23442.93
585.644	23229.94
585.841	23406.06
586.039	23369.2
586.236	23309.81
586.434	23324.15
586.631	22986.23
586.828	23291.38
587.026	22982.13
587.223	22937.08
587.42	23250.42
587.618	23037.43
587.815	22889.98
588.012	22730.23
588.21	22769.15
588.407	23047.67
588.604	22511.1
588.801	22435.33
588.999	22605.31
589.196	22515.2
589.393	22244.87
589.59	22222.34
589.787	22210.05
589.984	22267.39
590.182	22109.7
590.379	22093.32
590.576	21788.17
590.773	22089.22
590.97	21620.24
591.167	21659.15
591.364	21448.21
591.561	22093.32
591.758	21421.58
591.955	21763.59
592.152	21704.2
592.349	21220.88
592.546	21288.46
592.743	21622.28
592.94	21024.28
593.137	21231.12
593.334	21454.35
593.531	20776.47
593.727	21163.54
593.924	21016.08
594.121	20913.69
594.318	20958.74
594.515	21063.19
594.712	20755.99
594.908	20987.41
595.105	20463.13
595.302	20596.25
595.499	20610.59
595.696	20454.94
595.892	20383.26
596.089	20622.87
596.286	20370.97
596.482	20233.76
596.679	20327.97
596.876	20031.01
597.072	19709.48
597.269	20016.68
597.466	19961.38
597.662	19947.04
597.859	19568.17
598.055	19863.08
598.252	19660.33
598.448	19635.75
598.645	19590.7
598.841	19527.21
599.038	19547.69
599.234	19463.72
599.431	19279.41
599.627	19267.12
599.824	19369.52
600.02	19125.81
600.217	19152.43
600.413	19076.66
600.609	18820.66
600.806	19000.88
601.002	18841.14
601.198	19015.22
601.395	18568.76
601.591	18509.37
601.787	18914.87
601.984	18546.23
602.18	18615.87
602.376	18484.8
602.572	18744.89
602.769	18302.53
602.965	18157.12
603.161	18331.2
603.357	18114.11
603.553	18204.22
603.75	18347.58
603.946	18046.53
604.142	18036.29
604.338	17940.04
604.534	18175.55
604.73	18001.47
604.926	17841.73
605.122	17686.09
605.318	17790.53
605.514	17716.81
605.71	17688.14
605.906	17909.32
606.102	17471.05
606.298	17546.83
606.494	17692.23
606.69	17426
606.886	17350.22
607.082	17260.11
607.278	17401.42
607.474	16977.49
607.67	17542.73
607.866	17239.63
608.062	17372.75
608.257	16989.78
608.453	17040.98
608.649	17114.7
608.845	16907.86
609.041	16750.17
609.236	16997.97
609.432	16864.85
609.628	17014.35
609.824	16838.23
610.019	16664.15
610.215	16819.8
610.411	16565.85
610.606	16703.06
610.802	16664.15
610.998	16621.14
611.193	16651.86
611.389	16492.12
611.584	16645.72
611.78	16301.66
611.976	16600.66
612.171	16447.07
612.367	16397.92
612.562	16418.39
612.758	16113.25
612.953	16373.34
613.149	16434.78
613.344	16074.34
613.539	16256.61
613.735	16189.02
613.93	16004.71
614.126	16201.31
614.321	16408.15
614.517	15990.37
614.712	16078.43
614.907	16092.77
615.103	15928.93
615.298	16060
615.493	16221.79
615.688	15806.05
615.884	16309.85
616.079	15484.52
616.274	15550.06
616.47	15814.24
616.665	15730.28
616.86	15898.21
617.055	15738.47
617.25	15533.67
617.445	15933.03
617.641	15308.4
617.836	15623.78
618.031	15353.45
618.226	15693.41
618.421	15521.38
618.616	15398.51
618.811	15255.15
619.006	15466.09
619.201	14970.48
619.396	15193.71
619.591	14816.88
619.786	15036.02
619.981	14710.39
620.176	14896.75
620.371	14954.1
620.566	14739.06
620.761	14667.38
620.956	14843.51
621.151	14124.67
621.346	14560.89
621.541	14276.22
621.735	14673.53
621.93	14227.07
622.125	14272.12
622.32	14243.45
622.515	14057.09
622.709	14030.46
622.904	13852.29
623.099	14104.19
623.294	13954.69
623.488	13823.62
623.683	13880.96
623.878	13491.85
624.072	13602.44
624.267	13448.84
624.462	13233.8
624.656	13223.56
624.851	13416.07
625.046	13268.62
625.24	13213.32
625.435	12983.95
625.629	12959.38
625.824	12738.19
626.018	12969.62
626.213	12650.13
626.407	12553.88
626.602	12603.03
626.796	12582.55
626.991	12594.84
627.185	12396.18
627.38	12267.16
627.574	12218.01
627.768	12172.96
627.963	12220.06
628.157	11974.3
628.352	12209.82
628.546	11945.63
628.74	11857.57
628.935	11712.16
629.129	11730.59
629.323	11577
629.517	11572.9
629.712	11507.37
629.906	11669.16
630.1	11523.75
630.294	11423.4
630.489	11595.43
630.683	11349.67
630.877	11355.82
631.071	11071.15
631.265	11280.04
631.459	11005.61
631.653	10925.74
631.848	11093.68
632.042	10972.85
632.236	10909.36
632.43	10770.1
632.624	10974.89
632.818	10817.2
633.012	10510
633.206	10587.83
633.4	10585.78
633.594	10522.29
633.788	10305.21
633.982	10534.58
634.176	10485.43
634.369	10434.23
634.563	10327.74
634.757	10321.59
634.951	10120.89
635.145	10135.23
635.339	10127.03
635.533	10041.02
635.726	9875.13
635.92	9651.91
636.114	9864.89
636.308	9965.25
636.501	9510.6
636.695	9459.4
636.889	9842.37
637.083	9670.34
637.276	9471.68
637.47	9676.48
637.664	9301.7
637.857	9574.08
638.051	9240.26
638.244	9397.96
638.438	9252.55
638.632	8990.41
638.825	9119.43
639.019	9023.18
639.212	9256.65
639.406	8949.45
639.599	9033.42
639.793	8806.09
639.986	8871.63
640.18	8763.09
640.373	8892.11
640.567	8654.55
640.76	8849.1
640.954	8640.21
641.147	8781.52
641.34	8648.4
641.534	8535.76
641.727	8507.09
641.92	8525.52
642.114	8316.63
642.307	8525.52
642.5	8146.65
642.694	8322.77
642.887	8021.72
643.08	8218.33
643.273	8326.87
643.467	8152.79
643.66	8003.29
643.853	8025.82
644.046	7831.26
644.239	7841.5
644.432	7861.98
644.626	7763.68
644.819	7786.21
645.012	7771.87
645.205	7857.89
645.398	7704.29
645.591	7542.5
645.784	7626.46
645.977	7534.31
646.17	7526.11
646.363	7548.64
646.556	7345.89
646.749	7388.9
646.942	7280.36
647.135	7388.9
647.328	7306.98
647.521	7354.09
647.714	7151.34
647.907	7165.67
648.099	7057.13
648.292	7253.73
648.485	7007.98
648.678	7278.31
648.871	6876.91
649.064	7034.6
649.256	6977.26
649.449	6848.24
649.642	6762.22
649.835	6612.72
650.027	6899.44
650.22	6860.52
650.413	6608.62
650.605	6618.86
650.798	6473.46
650.991	6502.13
651.183	6608.62
651.376	6573.81
651.568	6399.73
651.761	6407.92
651.954	6596.34
652.146	6297.33
652.339	6366.96
652.531	6418.16
652.724	6188.79
652.916	6098.68
653.109	6182.65
653.301	6211.32
653.494	6289.14
653.686	6174.46
653.879	6270.71
654.071	6149.88
654.263	6098.68
654.456	5975.8
654.648	6045.43
654.84	5926.65
655.033	5986.04
655.225	5961.47
655.417	6002.43
655.61	5822.2
655.802	5951.23
655.994	5678.85
656.186	5754.62
656.379	5785.34
656.571	5719.81
656.763	5584.64
656.955	5566.21
657.148	5656.32
657.34	5535.49
657.532	5412.61
657.724	5428.99
657.916	5426.95
658.108	5510.91
658.3	5496.58
658.492	5379.84
658.684	5269.25
658.876	5412.61
659.068	5347.08
659.26	5199.62
659.452	5263.11
659.644	5230.34
659.836	5050.12
660.028	5256.97
660.22	5046.02
660.412	5279.49
660.604	5050.12
660.796	4957.96
660.988	5046.02
661.18	4996.87
661.372	4851.47
661.563	5062.41
661.755	4912.91
661.947	4925.19
662.139	4867.85
662.331	4808.46
662.522	4822.8
662.714	4808.46
662.906	4873.99
663.097	4892.43
663.289	4710.16
663.481	4669.2
663.673	4773.64
663.864	4638.48
664.056	4632.33
664.247	4669.2
664.439	4736.78
664.631	4552.46
664.822	4611.85
665.014	4491.02
665.205	4525.84
665.397	4417.3
665.588	4579.09
665.78	4380.43
665.971	4568.85
666.163	4540.18
666.354	4445.97
666.546	4421.39
666.737	4382.48
666.929	4110.1
667.12	4302.61
667.311	4337.43
667.503	4325.14
667.694	4372.24
667.885	4161.3
668.077	4212.5
668.268	4140.82
668.459	4130.58
668.651	4019.99
668.842	4218.64
669.033	4146.97
669.224	4189.97
669.416	4357.91
669.607	4120.34
669.798	4327.19
669.989	4142.87
670.18	4175.64
670.371	4042.52
670.563	3960.6
670.754	4036.38
670.945	4075.29
671.136	3995.42
671.327	4030.23
671.518	3931.93
671.709	4042.52
671.9	3843.87
672.091	3876.63
672.282	3884.83
672.473	3761.95
672.664	3876.63
672.855	3856.15
673.046	3866.39
673.237	3761.95
673.428	3905.31
673.619	3833.63
673.809	3624.73
674	3792.67
674.191	3768.09
674.382	3602.21
674.573	3710.75
674.764	3669.79
674.954	3630.88
675.145	3604.25
675.336	3600.16
675.527	3663.65
675.717	3694.36
675.908	3639.07
676.099	3624.73
676.289	3512.1
676.48	3677.98
676.671	3655.45
676.861	3589.92
677.052	3651.36
677.243	3630.88
677.433	3514.14
677.624	3639.07
677.814	3499.81
678.005	3348.26
678.195	3624.73
678.386	3438.37
678.576	3477.28
678.767	3477.28
678.957	3548.96
679.148	3321.63
679.338	3399.46
679.529	3469.09
679.719	3430.18
679.909	3497.76
680.1	3512.1
680.29	3405.6
680.481	3477.28
680.671	3362.59
680.861	3405.6
681.052	3493.66
681.242	3403.55
681.432	3528.48
681.622	3360.55
681.813	3350.31
682.003	3411.75
682.193	3335.97
682.383	3333.92
682.573	3446.56
682.764	3276.58
682.954	3309.35
683.144	3327.78
683.334	3395.36
683.524	3245.86
683.714	3446.56
683.904	3319.59
684.094	3401.51
684.284	3299.11
684.474	3321.63
684.664	3114.79
684.854	3266.34
685.044	3219.24
685.234	3247.91
685.424	3163.94
685.614	3182.37
685.804	3307.3
685.994	3086.12
686.184	3196.71
686.374	3149.61
686.564	3092.26
686.753	3129.13
686.943	3129.13
687.133	3069.73
687.323	3067.69
687.513	3077.93
687.702	3010.34
687.892	2907.94
688.082	2998.06
688.272	3092.26
688.461	3002.15
688.651	2973.48
688.841	2883.37
689.03	2871.08
689.22	2881.32
689.41	2938.66
689.599	2920.23
689.789	3024.68
689.979	2877.23
690.168	2856.75
690.358	2938.66
690.547	2823.98
690.737	2785.07
690.926	2864.94
691.116	2819.88
691.305	2852.65
691.495	2791.21
691.684	2748.2
691.874	2613.04
692.063	2733.87
692.252	2815.79
692.442	2832.17
692.631	2619.18
692.82	2664.24
693.01	2578.22
693.199	2688.81
693.388	2672.43
693.578	2658.09
693.767	2666.28
693.956	2631.47
694.146	2572.08
694.335	2719.53
694.524	2545.45
694.713	2594.61
694.902	2570.03
695.092	2604.85
695.281	2443.06
695.47	2406.19
695.659	2481.97
695.848	2537.26
696.037	2668.33
696.226	2510.64
696.415	2561.84
696.604	2615.09
696.793	2455.34
696.982	2504.5
697.171	2543.41
697.36	2477.87
697.549	2537.26
697.738	2436.91
697.927	2398
698.116	2406.19
698.305	2389.81
698.494	2547.5
698.683	2277.17
698.872	2383.66
699.061	2457.39
699.25	2387.76
699.438	2367.28
699.627	2424.62
699.816	2346.8
700.005	2359.09
700.193	2322.23
700.382	2469.68
700.571	2232.12
700.76	2352.95
700.948	2398
701.137	2297.65
701.326	2420.53
701.514	2404.14
701.703	2363.19
701.892	2299.7
702.08	2412.34
702.269	2361.14
702.457	2365.23
702.646	2301.75
702.834	2178.87
703.023	2318.13
703.212	2422.58
703.4	2238.26
703.589	2248.5
703.777	2242.36
703.965	2230.07
704.154	2268.98
704.342	2283.31
704.531	2289.46
704.719	2236.21
704.907	2320.18
705.096	2309.94
705.284	2103.09
705.472	2234.16
705.661	2383.66
705.849	2277.17
706.037	2287.41
706.226	2303.79
706.414	2318.13
706.602	2221.88
706.79	2338.61
706.979	2240.31
707.167	2252.59
707.355	2281.27
707.543	2199.35
707.731	2242.36
707.919	2187.06
708.107	2076.47
708.296	2248.5
708.484	2297.65
708.672	2275.12
708.86	2201.4
709.048	2121.52
709.236	2166.58
709.424	2256.69
709.612	2238.26
709.8	2080.57
709.988	2160.44
710.176	2158.39
710.364	2197.3
710.551	2328.37
710.739	2195.25
710.927	2207.54
711.115	2150.2
711.303	2275.12
711.491	2221.88
711.679	2123.57
711.866	2109.24
712.054	2197.3
712.242	2207.54
712.43	2058.04
712.617	2158.39
712.805	2176.82
712.993	2215.73
713.181	2121.52
713.368	2250.55
713.556	2168.63
713.744	2129.72
713.931	2254.64
714.119	2123.57
714.306	2205.49
714.494	2092.85
714.682	2281.27
714.869	2053.94
715.057	2105.14
715.244	2111.29
715.432	2262.83
715.619	2117.43
715.807	2096.95
715.994	2213.68
716.182	2127.67
716.369	2178.87
716.556	2084.66
716.744	2078.52
716.931	2129.72
717.119	2228.02
717.306	2279.22
717.493	2008.89
717.681	2170.68
717.868	2127.67
718.055	2275.12
718.242	2119.48
718.43	2129.72
718.617	2142
718.804	2166.58
718.991	2072.37
719.179	2168.63
719.366	2084.66
719.553	2193.2
719.74	2283.31
719.927	2135.86
720.114	2062.13
720.301	2064.18
720.488	2162.48
720.676	2090.81
720.863	2047.8
721.05	2135.86
721.237	2096.95
721.424	2170.68
721.611	2205.49
721.798	2127.67
721.985	2115.38
722.172	2154.29
722.358	2187.06
722.545	2228.02
722.732	2119.48
722.919	2170.68
723.106	2152.24
723.293	2074.42
723.48	2156.34
723.667	1994.55
723.853	2092.85
724.04	2262.83
724.227	2228.02
724.414	2146.1
724.6	2060.09
724.787	2193.2
724.974	2152.24
725.161	2121.52
725.347	2041.65
725.534	2172.72
725.72	2203.44
725.907	2133.81
726.094	2146.1
726.28	2055.99
726.467	2170.68
726.653	2121.52
726.84	2074.42
727.027	2154.29
727.213	2070.33
727.4	2195.25
727.586	2049.85
727.773	2088.76
727.959	2176.82
728.145	2195.25
728.332	2168.63
728.518	2086.71
728.705	2154.29
728.891	2082.61
729.077	2129.72
729.264	2154.29
729.45	2258.74
729.636	2287.41
729.823	2123.57
730.009	2176.82
730.195	2320.18
730.382	2193.2
730.568	2199.35
730.754	2201.4
730.94	2230.07
731.126	2127.67
731.313	2203.44
731.499	2107.19
731.685	2197.3
731.871	2205.49
732.057	2092.85
732.243	2309.94
732.429	2297.65
732.615	2225.97
732.801	2166.58
732.987	2223.92
733.173	2172.72
733.359	2242.36
733.545	2301.75
733.731	2142
733.917	2199.35
734.103	2236.21
734.289	2316.08
734.475	2123.57
734.661	2164.53
734.847	2266.93
735.033	2203.44
735.219	2256.69
735.404	2199.35
735.59	2094.9
735.776	2266.93
735.962	2287.41
736.148	2223.92
736.333	2182.96
736.519	2217.78
736.705	2238.26
736.89	2232.12
737.076	2219.83
737.262	2273.07
737.447	2238.26
737.633	2170.68
737.819	2189.11
738.004	2211.64
738.19	2178.87
738.375	2207.54
738.561	2158.39
738.747	2150.2
738.932	2170.68
739.118	2301.75
739.303	2148.15
739.489	2199.35
739.674	2225.97
739.859	2150.2
740.045	2182.96
740.23	2131.76
740.416	2144.05
740.601	2193.2
740.786	2170.68
740.972	2105.14
741.157	2121.52
741.342	2133.81
741.528	2072.37
741.713	2232.12
741.898	2094.9
742.084	2168.63
742.269	2185.01
742.454	2125.62
742.639	2189.11
742.824	2076.47
743.01	2223.92
743.195	2146.1
743.38	2060.09
743.565	2201.4
743.75	2174.77
743.935	2049.85
744.12	2144.05
744.305	2051.89
744.49	2135.86
744.675	2074.42
744.86	1945.4
745.045	1959.74
745.23	2103.09
745.415	2099
745.6	2012.98
745.785	2010.93
745.97	2012.98
746.155	1994.55
746.34	1998.65
746.525	2035.51
746.71	2156.34
746.895	1967.93
747.079	1986.36
747.264	1929.02
747.449	2119.48
747.634	2031.41
747.819	1947.45
748.003	2008.89
748.188	1959.74
748.373	1933.11
748.557	2029.37
748.742	1990.45
748.927	1951.54
749.111	1926.97
749.296	1931.06
749.481	1906.49
749.665	1947.45
749.85	1859.38
750.034	1908.54
750.219	1888.06
750.404	1838.91
750.588	1865.53
750.773	1883.96
750.957	1759.03
751.141	1824.57
751.326	1730.36
751.51	1793.85
751.695	1707.84
751.879	1816.38
752.064	1787.71
752.248	1771.32
752.432	1695.55
752.617	1703.74
752.801	1722.17
752.985	1711.93
753.17	1799.99
753.354	1716.03
753.538	1642.3
753.722	1634.11
753.907	1568.57
754.091	1570.62
754.275	1656.64
754.459	1554.24
754.643	1615.68
754.828	1578.81
755.012	1560.38
755.196	1531.71
755.38	1562.43
755.564	1652.54
755.748	1472.32
755.932	1537.85
756.116	1531.71
756.3	1527.61
756.484	1488.7
756.668	1529.66
756.852	1498.94
757.036	1464.13
757.22	1421.12
757.404	1365.82
757.588	1421.12
757.772	1435.46
757.956	1466.17
758.14	1482.56
758.323	1447.74
758.507	1404.74
758.691	1359.68
758.875	1388.35
759.059	1427.26
759.242	1384.26
759.426	1414.98
759.61	1328.96
759.794	1169.22
759.977	1449.79
760.161	1455.94
760.345	1326.91
760.528	1320.77
760.712	1310.53
760.895	1234.75
761.079	1443.65
761.263	1242.95
761.446	1183.56
761.63	1390.4
761.813	1294.15
761.997	1255.23
762.18	1296.19
762.364	1226.56
762.547	1218.37
762.731	1318.72
762.914	1122.12
763.098	1161.03
763.281	1152.84
763.464	1152.84
763.648	1140.55
763.831	1191.75
764.015	1271.62
764.198	1288
764.381	1187.65
764.564	1206.08
764.748	1271.62
764.931	1240.9
765.114	1150.79
765.297	1150.79
765.481	1136.45
765.664	1240.9
765.847	1138.5
766.03	1216.32
766.213	1179.46
766.397	1169.22
766.58	1140.55
766.763	1148.74
766.946	1095.49
767.129	1109.83
767.312	1158.98
767.495	1066.82
767.678	1134.4
767.861	1048.39
768.044	1023.81
768.227	1062.73
768.41	1017.67
768.593	1072.96
768.776	1001.29
768.959	1064.77
769.142	1099.59
769.324	1027.91
769.507	1140.55
769.69	1054.53
769.873	1081.16
770.056	1173.32
770.239	1077.06
770.421	1099.59
770.604	1075.01
770.787	1021.77
770.97	1023.81
771.152	989
771.335	1019.72
771.518	1021.77
771.7	997.19
771.883	1056.58
772.066	1060.68
772.248	991.05
772.431	978.76
772.613	1042.25
772.796	919.37
772.978	958.28
773.161	933.7
773.343	1011.53
773.526	898.89
773.708	876.36
773.891	888.65
774.073	898.89
774.256	870.22
774.438	989
774.621	970.57
774.803	913.22
774.985	970.57
775.168	962.37
775.35	902.98
775.532	855.88
775.715	823.11
775.897	814.92
776.079	874.31
776.261	890.7
776.444	880.46
776.626	841.54
776.808	847.69
776.99	851.78
777.173	831.3
777.355	827.21
777.537	827.21
777.719	825.16
777.901	718.67
778.083	739.15
778.265	739.15
778.447	825.16
778.629	827.21
778.811	747.34
778.993	778.06
779.175	769.87
779.357	810.82
779.539	689.99
779.721	763.72
779.903	692.04
780.085	696.14
780.267	737.1
780.449	667.47
780.631	659.28
780.812	757.58
780.994	673.61
781.176	702.28
781.358	651.08
781.54	692.04
781.721	579.4
781.903	681.8
782.085	730.95
782.267	673.61
782.448	563.02
782.63	630.6
782.812	718.67
782.993	626.51
783.175	558.92
783.357	665.42
783.538	571.21
783.72	563.02
783.901	677.71
784.083	589.64
784.264	642.89
784.446	618.32
784.627	505.68
784.809	649.04
784.99	511.82
785.172	538.45
785.353	577.36
785.535	544.59
785.716	499.53
785.897	507.73
786.079	591.69
786.26	522.06
786.441	468.81
786.623	497.49
786.804	495.44
786.985	587.6
787.167	505.68
787.348	526.16
787.529	489.29
787.71	548.68
787.891	567.12
788.073	552.78
788.254	458.57
788.435	429.9
788.616	511.82
788.797	487.25
788.978	444.24
789.159	515.92
789.34	487.25
789.522	423.76
789.703	495.44
789.884	399.18
790.065	431.95
790.246	468.81
790.427	485.2
790.607	452.43
790.788	413.52
790.969	440.14
791.15	452.43
791.331	442.19
791.512	409.42
791.693	325.46
791.874	497.49
792.054	497.49
792.235	530.25
792.416	454.48
792.597	413.52
792.778	503.63
792.958	296.78
793.139	419.66
793.32	401.23
793.5	362.32
793.681	468.81
793.862	376.66
794.042	417.61
794.223	411.47
794.404	337.74
794.584	329.55
794.765	360.27
794.945	343.89
795.126	388.94
795.306	436.05
795.487	397.14
795.667	384.85
795.848	360.27
796.028	358.22
796.209	298.83
796.389	368.46
796.57	311.12
796.75	378.7
796.93	358.22
797.111	280.4
797.291	362.32
797.471	257.87
797.652	362.32
797.832	356.18
798.012	354.13
798.192	319.31
798.373	298.83
798.553	264.02
798.733	327.5
798.913	304.98
799.093	333.65
799.274	335.7
799.454	343.89
799.634	292.69
799.814	331.6
799.994	302.93
800.174	276.31
800.354	370.51
800.534	286.54
800.714	292.69
800.894	335.7
801.074	145.24
801.254	274.26
801.434	347.98
801.614	274.26
801.794	247.63
801.974	929.61
802.154	225.11
802.334	294.74
802.514	284.5
802.693	319.31
802.873	296.78
803.053	368.46
803.233	237.39
803.413	315.22
803.592	229.2
803.772	255.83
803.952	311.12
804.131	210.77
804.311	345.94
804.491	288.59
804.67	339.79
804.85	245.59
805.03	268.11
805.209	247.63
805.389	200.53
805.568	286.54
805.748	239.44
805.928	311.12
806.107	337.74
806.287	278.35
806.466	233.3
806.646	239.44
806.825	235.35
807.004	208.72
807.184	253.78
807.363	249.68
807.543	184.15
807.722	225.11
807.901	317.26
808.081	335.7
808.26	112.47
808.439	243.54
808.619	198.48
808.798	188.24
808.977	282.45
809.156	229.2
809.336	169.81
809.515	278.35
809.694	214.87
809.873	155.47
810.052	214.87
810.231	178
810.411	233.3
810.59	261.97
810.769	161.62
810.948	173.91
811.127	120.66
811.306	190.29
811.485	270.16
811.664	210.77
811.843	212.82
812.022	178
812.201	221.01
812.38	161.62
812.559	231.25
812.737	227.15
812.916	118.61
813.095	143.19
813.274	159.57
813.453	184.15
813.632	198.48
813.811	227.15
813.989	214.87
814.168	214.87
814.347	165.71
814.526	171.86
814.704	163.67
814.883	237.39
815.062	73.56
815.24	208.72
815.419	210.77
815.598	231.25
815.776	163.67
815.955	91.99
816.133	104.28
816.312	208.72
816.49	175.95
816.669	149.33
816.847	178
817.026	206.67
817.204	145.24
817.383	198.48
817.561	149.33
817.74	192.34
817.918	184.15
818.097	96.08
818.275	141.14
818.453	163.67
818.632	151.38
818.81	165.71
818.988	137.04
819.167	184.15
819.345	126.8
819.523	120.66
819.701	141.14
819.879	130.9
820.058	124.76
820.236	143.19
820.414	135
820.592	100.18
820.77	135
820.948	167.76
821.127	163.67
821.305	161.62
821.483	87.89
821.661	227.15
821.839	91.99
822.017	44.88
822.195	122.71
822.373	225.11
822.551	157.52
822.729	227.15
822.907	169.81
823.085	178
823.262	110.42
823.44	145.24
823.618	149.33
823.796	122.71
823.974	153.43
824.152	194.39
824.329	167.76
824.507	147.28
824.685	79.7
824.863	108.37
825.04	139.09
825.218	128.85
825.396	128.85
825.574	182.1
825.751	143.19
825.929	171.86
826.107	139.09
826.284	147.28
826.462	163.67
826.639	126.8
826.817	83.8
826.994	143.19
827.172	165.71
827.349	159.57
827.527	143.19
827.704	36.69
827.882	61.27
828.059	108.37
828.237	130.9
828.414	94.04
828.591	71.51
828.769	110.42
828.946	91.99
829.124	89.94
829.301	130.9
829.478	102.23
829.655	128.85
829.833	106.32
830.01	85.84
830.187	73.56
830.364	102.23
830.542	188.24
830.719	81.75
830.896	61.27
831.073	126.8
831.25	145.24
831.427	10.07
831.604	128.85
831.782	75.6
831.959	63.32
832.136	118.61
832.313	159.57
832.49	87.89
832.667	128.85
832.844	104.28
833.021	110.42
833.198	75.6
833.374	145.24
833.551	114.52
833.728	171.86
833.905	112.47
834.082	55.12
834.259	63.32
834.436	100.18
834.612	110.42
834.789	151.38
834.966	126.8
835.143	124.76
835.319	44.88
835.496	89.94
835.673	122.71
835.85	157.52
836.026	116.56
836.203	120.66
836.38	124.76
836.556	116.56
836.733	3.93
836.909	145.24
837.086	126.8
837.262	40.79
837.439	96.08
837.616	42.84
837.792	57.17
837.968	69.46
838.145	40.79
838.321	53.08
838.498	59.22
838.674	69.46
838.851	122.71
839.027	36.69
839.203	110.42
839.38	132.95
839.556	94.04
839.732	81.75
839.909	94.04
840.085	128.85
840.261	135
840.437	53.08
840.614	26.45
840.79	38.74
840.966	120.66
841.142	137.04
841.318	65.36
841.494	130.9
841.671	114.52
841.847	18.26
842.023	40.79
842.199	102.23
842.375	149.33
842.551	59.22
842.727	48.98
842.903	128.85
843.079	65.36
843.255	85.84
843.431	65.36
843.607	118.61
843.783	110.42
843.959	110.42
844.134	67.41
844.31	128.85
844.486	102.23
844.662	10.07
844.838	77.65
845.013	89.94
845.189	91.99
845.365	28.5
845.541	14.17
845.716	69.46
845.892	147.28
846.068	-2.22
846.244	55.12
846.419	36.69
846.595	14.17
846.77	8.02
846.946	100.18
847.122	61.27
847.297	89.94
847.473	83.8
847.648	22.36
847.824	128.85
847.999	51.03
848.175	48.98
848.35	16.21
848.526	89.94
848.701	30.55
848.876	18.26
849.052	65.36
849.227	61.27
849.403	118.61
849.578	42.84
849.753	59.22
849.929	71.51
850.104	-0.17
850.279	46.93
850.454	102.23
850.63	69.46
850.805	14.17
850.98	57.17
851.155	16.21
851.33	57.17
851.505	46.93
851.681	83.8
851.856	22.36
852.031	79.7
852.206	-0.17
852.381	3.93
852.556	10.07
852.731	128.85
852.906	87.89
853.081	98.13
853.256	132.95
853.431	42.84
853.606	40.79
853.781	26.45
853.956	-8.36
854.131	14.17
854.305	69.46
854.48	12.12
854.655	-20.65
854.83	44.88
855.005	69.46
855.18	130.9
855.354	24.4
855.529	63.32
855.704	75.6
855.879	104.28
856.053	-4.27
856.228	36.69
856.403	-20.65
856.577	51.03
856.752	-39.08
856.926	24.4
857.101	77.65
857.276	71.51
857.45	53.08
857.625	91.99
857.799	14.17
857.974	112.47
858.148	-30.89
858.323	53.08
858.497	-16.55
858.672	46.93
858.846	53.08
859.02	3.93
859.195	28.5
859.369	89.94
859.543	96.08
859.718	130.9
859.892	1.88
860.066	61.27
860.241	42.84
860.415	30.55
860.589	40.79
860.763	8.02
860.938	5.97
861.112	46.93
861.286	53.08
861.46	126.8
861.634	-8.36
861.808	57.17
861.982	28.5
862.157	57.17
862.331	30.55
862.505	44.88
862.679	-26.79
862.853	98.13
863.027	16.21
863.201	59.22
863.375	32.6
863.549	79.7
863.722	-34.99
863.896	124.76
864.07	1.88
864.244	147.28
864.418	28.5
864.592	-8.36
864.766	63.32
864.939	22.36
865.113	-45.23
865.287	22.36
865.461	-20.65
865.634	46.93
865.808	-2.22
865.982	-45.23
866.156	34.64
866.329	3.93
866.503	20.31
866.676	24.4
866.85	-12.46
867.024	-34.99
867.197	-49.32
867.371	57.17
867.544	12.12
867.718	8.02
867.891	79.7
868.065	-45.23
868.238	5.97
868.412	69.46
868.585	-4.27
868.759	73.56
868.932	12.12
869.105	3.93
869.279	67.41
869.452	79.7
869.625	5.97
869.799	30.55
869.972	-30.89
870.145	-57.51
870.319	-10.41
870.492	-28.84
870.665	22.36
870.838	-6.31
871.011	-8.36
871.185	-2.22
871.358	34.64
871.531	77.65
871.704	-45.23
871.877	69.46
872.05	3.93
872.223	-24.75
872.396	40.79
872.569	38.74
872.742	-47.27
872.915	30.55
873.088	87.89
873.261	28.5
873.434	114.52
873.607	38.74
873.78	8.02
873.953	-16.55
874.126	98.13
874.299	63.32
874.471	-8.36
874.644	-0.17
874.817	40.79
874.99	3.93
875.163	-6.31
875.335	18.26
875.508	32.6
875.681	8.02
875.853	-41.13
876.026	46.93
876.199	36.69
876.371	18.26
876.544	61.27
876.717	5.97
876.889	30.55
877.062	36.69
877.234	42.84
877.407	-10.41
877.579	-8.36
877.752	26.45
877.924	-12.46
878.097	48.98
878.269	-32.94
878.442	44.88
878.614	16.21
878.786	-34.99
878.959	-24.75
879.131	44.88
879.303	-34.99
879.476	-43.18
879.648	53.08
879.82	44.88
879.993	-65.71
880.165	5.97
880.337	22.36
880.509	69.46
880.681	-34.99
880.854	36.69
881.026	65.36
881.198	46.93
881.37	28.5
881.542	-6.31
881.714	22.36
881.886	77.65
882.058	59.22
882.23	61.27
882.402	22.36
882.574	-24.75
882.746	-8.36
882.918	-12.46
883.09	81.75
883.262	51.03
883.434	18.26
883.606	16.21
883.778	-8.36
883.95	42.84
884.122	71.51
884.293	40.79
884.465	3.93
884.637	69.46
884.809	57.17
884.98	94.04
885.152	-30.89
885.324	36.69
885.496	-73.9
885.667	77.65
885.839	-37.03
886.011	38.74
886.182	-22.7
886.354	18.26
886.525	38.74
886.697	46.93
886.869	-34.99
887.04	44.88
887.212	69.46
887.383	75.6
887.555	59.22
887.726	46.93
887.897	24.4
888.069	-16.55
888.24	55.12
888.412	38.74
888.583	55.12
888.754	38.74
888.926	-6.31
889.097	36.69
889.268	-12.46
889.44	1.88
889.611	-47.27
889.782	104.28
889.953	-28.84
890.125	-4.27
890.296	61.27
890.467	69.46
890.638	-45.23
890.809	-0.17
890.98	16.21
891.151	42.84
891.323	3.93
891.494	-24.75
891.665	-12.46
891.836	20.31
892.007	-28.84
892.178	46.93
892.349	40.79
892.52	12.12
892.691	-2.22
892.862	14.17
893.032	-26.79
893.203	40.79
893.374	65.36
893.545	51.03
893.716	28.5
893.887	-39.08
894.057	-61.61
894.228	67.41
894.399	96.08
894.57	28.5
894.74	-28.84
894.911	20.31
895.082	34.64
895.253	1.88
895.423	18.26
895.594	12.12
895.764	12.12
895.935	32.6
896.106	28.5
896.276	10.07
896.447	53.08
896.617	16.21
896.788	32.6
896.958	-55.47
897.129	-12.46
897.299	-22.7
897.47	22.36
897.64	28.5
897.81	38.74
897.981	44.88
898.151	67.41
898.322	-6.31
898.492	67.41
898.662	34.64
898.832	-24.75
899.003	36.69
899.173	10.07
899.343	-14.51
899.513	5.97
