Data from USB4F104151__74__12-42-20-387.txt Node

Date: Fri Mar 14 12:42:20 EDT 2025
User: louis
Spectrometer: USB4F10415
Trigger mode: 4
Integration Time (sec): 3.000000E-2
Scans to average: 1
Electric dark correction enabled: true
Nonlinearity correction enabled: false
Boxcar width: 0
XAxis mode: Wavelengths
Number of Pixels in Spectrum: 3648
>>>>>Begin Spectral Data<<<<<
178.204	-78.33
178.424	-78.33
178.644	-78.33
178.864	-178.69
179.084	-133.63
179.304	-6.66
179.524	-23.04
179.744	-43.52
179.964	40.45
180.184	-6.66
180.404	11.78
180.624	-25.09
180.844	-6.66
181.064	-12.8
181.283	46.59
181.503	-39.42
181.723	65.02
181.943	-35.33
182.163	-4.61
182.383	30.21
182.602	-4.61
182.822	144.89
183.042	34.3
183.262	-20.99
183.482	67.07
183.701	-8.7
183.921	58.88
184.141	-2.56
184.361	54.78
184.58	7.68
184.8	15.87
185.02	28.16
185.239	134.65
185.459	118.27
185.679	48.64
185.898	11.78
186.118	89.6
186.338	144.89
186.557	95.74
186.777	-8.7
186.997	60.93
187.216	42.5
187.436	32.26
187.655	87.55
187.875	58.88
188.095	-25.09
188.314	46.59
188.534	67.07
188.753	5.63
188.973	89.6
189.192	42.5
189.412	60.93
189.631	85.5
189.851	24.06
190.07	-4.61
190.29	-16.9
190.509	99.84
190.729	138.75
190.948	62.98
191.168	204.28
191.387	151.04
191.607	32.26
191.826	71.17
192.045	56.83
192.265	101.89
192.484	67.07
192.704	83.45
192.923	58.88
193.142	153.09
193.362	-16.9
193.581	99.84
193.8	87.55
194.02	65.02
194.239	56.83
194.458	108.03
194.678	-25.09
194.897	50.69
195.116	54.78
195.335	40.45
195.555	87.55
195.774	34.3
195.993	79.36
196.212	5.63
196.432	60.93
196.651	44.54
196.87	50.69
197.089	122.37
197.308	44.54
197.528	34.3
197.747	-8.7
197.966	15.87
198.185	128.51
198.404	65.02
198.623	32.26
198.842	62.98
199.062	116.22
199.281	46.59
199.5	44.54
199.719	22.02
199.938	87.55
200.157	103.93
200.376	19.97
200.595	34.3
200.814	62.98
201.033	46.59
201.252	97.79
201.471	17.92
201.69	93.69
201.909	60.93
202.128	-2.56
202.347	112.13
202.566	-41.47
202.785	7.68
203.004	40.45
203.223	140.8
203.442	87.55
203.661	67.07
203.879	28.16
204.098	153.09
204.317	54.78
204.536	30.21
204.755	-8.7
204.974	50.69
205.193	54.78
205.411	97.79
205.63	58.88
205.849	3.58
206.068	46.59
206.287	-51.71
206.505	65.02
206.724	126.46
206.943	38.4
207.162	-20.99
207.381	60.93
207.599	69.12
207.818	95.74
208.037	30.21
208.255	48.64
208.474	19.97
208.693	60.93
208.911	81.41
209.13	71.17
209.349	114.17
209.567	93.69
209.786	50.69
210.005	17.92
210.223	62.98
210.442	-57.86
210.661	69.12
210.879	44.54
211.098	103.93
211.316	54.78
211.535	101.89
211.753	22.02
211.972	93.69
212.191	26.11
212.409	50.69
212.628	91.65
212.846	34.3
213.065	128.51
213.283	58.88
213.502	15.87
213.72	28.16
213.938	-14.85
214.157	91.65
214.375	17.92
214.594	11.78
214.812	101.89
215.031	87.55
215.249	85.5
215.467	50.69
215.686	81.41
215.904	87.55
216.122	36.35
216.341	54.78
216.559	24.06
216.778	91.65
216.996	126.46
217.214	50.69
217.432	52.74
217.651	19.97
217.869	-49.66
218.087	-4.61
218.306	69.12
218.524	11.78
218.742	50.69
218.96	50.69
219.179	77.31
219.397	-10.75
219.615	114.17
219.833	85.5
220.051	48.64
220.27	22.02
220.488	77.31
220.706	93.69
220.924	26.11
221.142	67.07
221.36	32.26
221.578	38.4
221.796	24.06
222.015	38.4
222.233	54.78
222.451	65.02
222.669	28.16
222.887	15.87
223.105	3.58
223.323	19.97
223.541	42.5
223.759	62.98
223.977	17.92
224.195	110.08
224.413	103.93
224.631	171.52
224.849	58.88
225.067	60.93
225.285	50.69
225.503	-8.7
225.721	1.54
225.939	42.5
226.157	75.26
226.375	114.17
226.592	34.3
226.81	77.31
227.028	85.5
227.246	122.37
227.464	-25.09
227.682	42.5
227.9	122.37
228.117	56.83
228.335	81.41
228.553	124.41
228.771	95.74
228.989	79.36
229.206	58.88
229.424	-12.8
229.642	28.16
229.86	87.55
230.077	52.74
230.295	34.3
230.513	81.41
230.731	148.99
230.948	50.69
231.166	132.61
231.384	44.54
231.601	26.11
231.819	73.21
232.037	46.59
232.254	-43.52
232.472	48.64
232.689	77.31
232.907	73.21
233.125	22.02
233.342	62.98
233.56	56.83
233.777	5.63
233.995	95.74
234.213	77.31
234.43	73.21
234.648	-10.75
234.865	-12.8
235.083	56.83
235.3	79.36
235.518	42.5
235.735	151.04
235.953	132.61
236.17	22.02
236.388	11.78
236.605	122.37
236.822	130.56
237.04	5.63
237.257	81.41
237.475	60.93
237.692	81.41
237.909	91.65
238.127	15.87
238.344	48.64
238.562	65.02
238.779	65.02
238.996	30.21
239.214	85.5
239.431	28.16
239.648	52.74
239.865	157.18
240.083	77.31
240.3	77.31
240.517	-47.62
240.735	85.5
240.952	142.85
241.169	110.08
241.386	79.36
241.603	50.69
241.821	60.93
242.038	62.98
242.255	42.5
242.472	40.45
242.689	87.55
242.907	71.17
243.124	28.16
243.341	54.78
243.558	-64
243.775	38.4
243.992	9.73
244.209	126.46
244.426	112.13
244.643	75.26
244.86	13.82
245.078	91.65
245.295	32.26
245.512	28.16
245.729	65.02
245.946	50.69
246.163	118.27
246.38	128.51
246.597	85.5
246.814	15.87
247.031	44.54
247.248	79.36
247.464	-6.66
247.681	60.93
247.898	110.08
248.115	50.69
248.332	7.68
248.549	99.84
248.766	93.69
248.983	116.22
249.2	67.07
249.417	62.98
249.633	28.16
249.85	83.45
250.067	56.83
250.284	5.63
250.501	69.12
250.717	26.11
250.934	42.5
251.151	54.78
251.368	-10.75
251.585	54.78
251.801	65.02
252.018	38.4
252.235	77.31
252.451	-16.9
252.668	52.74
252.885	103.93
253.102	65.02
253.318	5.63
253.535	22.02
253.752	60.93
253.968	30.21
254.185	48.64
254.401	52.74
254.618	79.36
254.835	13.82
255.051	112.13
255.268	89.6
255.484	30.21
255.701	101.89
255.917	54.78
256.134	79.36
256.351	97.79
256.567	28.16
256.784	36.35
257	89.6
257.217	116.22
257.433	36.35
257.65	54.78
257.866	95.74
258.082	-2.56
258.299	-8.7
258.515	58.88
258.732	11.78
258.948	13.82
259.165	34.3
259.381	38.4
259.597	15.87
259.814	65.02
260.03	26.11
260.246	42.5
260.463	44.54
260.679	81.41
260.895	105.98
261.112	77.31
261.328	28.16
261.544	32.26
261.761	122.37
261.977	-14.85
262.193	52.74
262.409	1.54
262.626	46.59
262.842	-18.94
263.058	89.6
263.274	159.23
263.49	75.26
263.707	36.35
263.923	116.22
264.139	11.78
264.355	83.45
264.571	44.54
264.787	52.74
265.004	67.07
265.22	13.82
265.436	52.74
265.652	32.26
265.868	108.03
266.084	-0.51
266.3	60.93
266.516	-47.62
266.732	97.79
266.948	54.78
267.164	24.06
267.38	101.89
267.596	77.31
267.812	44.54
268.028	26.11
268.244	52.74
268.46	91.65
268.676	1.54
268.892	130.56
269.108	26.11
269.324	-0.51
269.54	-33.28
269.756	75.26
269.972	24.06
270.188	97.79
270.403	77.31
270.619	50.69
270.835	93.69
271.051	52.74
271.267	122.37
271.483	99.84
271.698	58.88
271.914	101.89
272.13	91.65
272.346	34.3
272.562	26.11
272.777	99.84
272.993	87.55
273.209	67.07
273.425	91.65
273.64	48.64
273.856	58.88
274.072	52.74
274.287	34.3
274.503	89.6
274.719	124.41
274.934	62.98
275.15	-8.7
275.366	42.5
275.581	42.5
275.797	48.64
276.012	-0.51
276.228	-6.66
276.444	-4.61
276.659	67.07
276.875	-8.7
277.09	32.26
277.306	-20.99
277.521	75.26
277.737	17.92
277.952	44.54
278.168	105.98
278.383	114.17
278.599	17.92
278.814	52.74
279.03	71.17
279.245	89.6
279.461	-25.09
279.676	91.65
279.892	-20.99
280.107	26.11
280.322	87.55
280.538	130.56
280.753	15.87
280.969	17.92
281.184	11.78
281.399	83.45
281.615	97.79
281.83	95.74
282.045	54.78
282.26	110.08
282.476	30.21
282.691	85.5
282.906	69.12
283.122	-2.56
283.337	9.73
283.552	44.54
283.767	65.02
283.983	120.32
284.198	71.17
284.413	148.99
284.628	-18.94
284.843	99.84
285.058	-2.56
285.274	24.06
285.489	67.07
285.704	75.26
285.919	30.21
286.134	60.93
286.349	11.78
286.564	30.21
286.779	118.27
286.995	65.02
287.21	36.35
287.425	28.16
287.64	54.78
287.855	32.26
288.07	67.07
288.285	93.69
288.5	54.78
288.715	62.98
288.93	77.31
289.145	1.54
289.36	122.37
289.575	11.78
289.79	91.65
290.004	-25.09
290.219	32.26
290.434	171.52
290.649	1.54
290.864	81.41
291.079	79.36
291.294	52.74
291.509	62.98
291.724	28.16
291.938	30.21
292.153	103.93
292.368	9.73
292.583	52.74
292.798	67.07
293.012	-2.56
293.227	91.65
293.442	44.54
293.657	120.32
293.871	83.45
294.086	54.78
294.301	62.98
294.516	110.08
294.73	83.45
294.945	56.83
295.16	40.45
295.374	101.89
295.589	165.37
295.804	-29.18
296.018	46.59
296.233	171.52
296.447	120.32
296.662	58.88
296.877	17.92
297.091	50.69
297.306	73.21
297.52	67.07
297.735	73.21
297.949	83.45
298.164	130.56
298.378	1.54
298.593	44.54
298.807	87.55
299.022	79.36
299.236	83.45
299.451	73.21
299.665	-10.75
299.88	116.22
300.094	132.61
300.309	87.55
300.523	46.59
300.737	42.5
300.952	-12.8
301.166	122.37
301.381	-0.51
301.595	40.45
301.809	50.69
302.024	71.17
302.238	44.54
302.452	124.41
302.667	67.07
302.881	124.41
303.095	112.13
303.309	65.02
303.524	5.63
303.738	38.4
303.952	52.74
304.166	19.97
304.381	56.83
304.595	93.69
304.809	40.45
305.023	75.26
305.237	93.69
305.452	77.31
305.666	128.51
305.88	36.35
306.094	108.03
306.308	28.16
306.522	87.55
306.736	67.07
306.95	60.93
307.164	52.74
307.379	13.82
307.593	85.5
307.807	93.69
308.021	5.63
308.235	-6.66
308.449	-14.85
308.663	-14.85
308.877	171.52
309.091	42.5
309.305	114.17
309.519	-14.85
309.733	32.26
309.947	-43.52
310.161	50.69
310.374	77.31
310.588	85.5
310.802	-20.99
311.016	54.78
311.23	128.51
311.444	-10.75
311.658	112.13
311.872	101.89
312.085	83.45
312.299	52.74
312.513	58.88
312.727	95.74
312.941	34.3
313.154	62.98
313.368	97.79
313.582	120.32
313.796	91.65
314.009	116.22
314.223	101.89
314.437	99.84
314.651	103.93
314.864	48.64
315.078	91.65
315.292	-41.47
315.505	58.88
315.719	146.94
315.933	54.78
316.146	83.45
316.36	54.78
316.573	89.6
316.787	122.37
317.001	42.5
317.214	17.92
317.428	97.79
317.641	17.92
317.855	50.69
318.068	52.74
318.282	101.89
318.495	19.97
318.709	32.26
318.922	34.3
319.136	114.17
319.349	108.03
319.563	79.36
319.776	91.65
319.99	17.92
320.203	24.06
320.417	71.17
320.63	60.93
320.843	60.93
321.057	52.74
321.27	101.89
321.483	105.98
321.697	128.51
321.91	5.63
322.124	99.84
322.337	54.78
322.55	5.63
322.763	93.69
322.977	56.83
323.19	165.37
323.403	122.37
323.617	34.3
323.83	67.07
324.043	19.97
324.256	56.83
324.469	46.59
324.683	89.6
324.896	67.07
325.109	69.12
325.322	11.78
325.535	101.89
325.748	126.46
325.962	5.63
326.175	50.69
326.388	114.17
326.601	62.98
326.814	56.83
327.027	87.55
327.24	157.18
327.453	73.21
327.666	81.41
327.879	75.26
328.092	48.64
328.305	75.26
328.518	95.74
328.731	48.64
328.944	142.85
329.157	46.59
329.37	34.3
329.583	116.22
329.796	13.82
330.009	36.35
330.222	60.93
330.435	91.65
330.648	81.41
330.861	85.5
331.073	42.5
331.286	73.21
331.499	36.35
331.712	28.16
331.925	32.26
332.138	67.07
332.35	122.37
332.563	44.54
332.776	42.5
332.989	19.97
333.202	85.5
333.414	-18.94
333.627	108.03
333.84	81.41
334.053	97.79
334.265	60.93
334.478	24.06
334.691	77.31
334.903	93.69
335.116	-6.66
335.329	22.02
335.541	65.02
335.754	34.3
335.966	105.98
336.179	99.84
336.392	7.68
336.604	93.69
336.817	91.65
337.029	110.08
337.242	32.26
337.454	99.84
337.667	85.5
337.88	126.46
338.092	77.31
338.305	-20.99
338.517	-4.61
338.729	75.26
338.942	58.88
339.154	19.97
339.367	-25.09
339.579	32.26
339.792	81.41
340.004	11.78
340.217	67.07
340.429	124.41
340.641	50.69
340.854	-4.61
341.066	108.03
341.278	48.64
341.491	136.7
341.703	24.06
341.915	28.16
342.128	99.84
342.34	85.5
342.552	65.02
342.764	85.5
342.977	19.97
343.189	114.17
343.401	77.31
343.613	54.78
343.826	144.89
344.038	32.26
344.25	40.45
344.462	9.73
344.674	58.88
344.886	118.27
345.099	52.74
345.311	17.92
345.523	67.07
345.735	48.64
345.947	103.93
346.159	58.88
346.371	79.36
346.583	93.69
346.795	138.75
347.007	132.61
347.219	136.7
347.431	19.97
347.643	58.88
347.855	71.17
348.067	83.45
348.279	24.06
348.491	77.31
348.703	62.98
348.915	32.26
349.127	118.27
349.339	54.78
349.551	24.06
349.763	110.08
349.975	75.26
350.187	58.88
350.399	77.31
350.61	44.54
350.822	52.74
351.034	73.21
351.246	30.21
351.458	101.89
351.669	46.59
351.881	81.41
352.093	9.73
352.305	77.31
352.517	118.27
352.728	69.12
352.94	142.85
353.152	101.89
353.363	83.45
353.575	58.88
353.787	144.89
353.999	46.59
354.21	9.73
354.422	44.54
354.633	69.12
354.845	116.22
355.057	99.84
355.268	112.13
355.48	54.78
355.692	-57.86
355.903	112.13
356.115	30.21
356.326	138.75
356.538	151.04
356.749	114.17
356.961	91.65
357.172	9.73
357.384	-23.04
357.595	108.03
357.807	50.69
358.018	83.45
358.23	142.85
358.441	110.08
358.653	103.93
358.864	19.97
359.075	171.52
359.287	46.59
359.498	67.07
359.709	132.61
359.921	110.08
360.132	67.07
360.344	146.94
360.555	22.02
360.766	36.35
360.977	17.92
361.189	118.27
361.4	79.36
361.611	142.85
361.823	134.65
362.034	58.88
362.245	28.16
362.456	81.41
362.667	91.65
362.879	44.54
363.09	87.55
363.301	97.79
363.512	101.89
363.723	97.79
363.935	91.65
364.146	79.36
364.357	108.03
364.568	93.69
364.779	1.54
364.99	99.84
365.201	38.4
365.412	122.37
365.623	11.78
365.834	69.12
366.045	58.88
366.256	198.14
366.467	136.7
366.678	142.85
366.889	58.88
367.1	69.12
367.311	38.4
367.522	87.55
367.733	120.32
367.944	116.22
368.155	40.45
368.366	95.74
368.577	159.23
368.788	65.02
368.999	15.87
369.209	89.6
369.42	108.03
369.631	159.23
369.842	138.75
370.053	87.55
370.264	116.22
370.474	169.47
370.685	60.93
370.896	108.03
371.107	130.56
371.317	97.79
371.528	46.59
371.739	101.89
371.95	177.66
372.16	28.16
372.371	97.79
372.582	65.02
372.792	118.27
373.003	148.99
373.214	91.65
373.424	132.61
373.635	75.26
373.846	91.65
374.056	116.22
374.267	28.16
374.477	52.74
374.688	81.41
374.898	36.35
375.109	65.02
375.319	85.5
375.53	126.46
375.74	77.31
375.951	60.93
376.161	112.13
376.372	48.64
376.582	54.78
376.793	83.45
377.003	3.58
377.214	52.74
377.424	65.02
377.635	89.6
377.845	93.69
378.055	91.65
378.266	58.88
378.476	105.98
378.686	99.84
378.897	142.85
379.107	54.78
379.317	87.55
379.528	32.26
379.738	83.45
379.948	87.55
380.158	159.23
380.369	65.02
380.579	138.75
380.789	65.02
380.999	105.98
381.21	134.65
381.42	153.09
381.63	26.11
381.84	181.76
382.05	112.13
382.261	87.55
382.471	120.32
382.681	83.45
382.891	124.41
383.101	93.69
383.311	7.68
383.521	56.83
383.731	167.42
383.941	58.88
384.151	58.88
384.361	114.17
384.571	48.64
384.781	69.12
384.991	140.8
385.201	67.07
385.411	124.41
385.621	89.6
385.831	89.6
386.041	77.31
386.251	40.45
386.461	138.75
386.671	99.84
386.881	114.17
387.091	81.41
387.301	130.56
387.511	105.98
387.72	89.6
387.93	99.84
388.14	9.73
388.35	-2.56
388.56	159.23
388.769	183.81
388.979	71.17
389.189	56.83
389.399	81.41
389.609	105.98
389.818	108.03
390.028	79.36
390.238	97.79
390.447	75.26
390.657	81.41
390.867	7.68
391.076	38.4
391.286	132.61
391.496	144.89
391.705	38.4
391.915	155.13
392.125	50.69
392.334	67.07
392.544	130.56
392.753	122.37
392.963	65.02
393.172	75.26
393.382	112.13
393.591	77.31
393.801	105.98
394.01	187.9
394.22	130.56
394.429	151.04
394.639	116.22
394.848	65.02
395.058	144.89
395.267	108.03
395.477	105.98
395.686	91.65
395.895	181.76
396.105	183.81
396.314	110.08
396.524	126.46
396.733	103.93
396.942	83.45
397.152	159.23
397.361	175.61
397.57	146.94
397.78	126.46
397.989	99.84
398.198	212.48
398.407	142.85
398.617	144.89
398.826	75.26
399.035	144.89
399.244	177.66
399.453	167.42
399.663	101.89
399.872	142.85
400.081	-0.51
400.29	210.43
400.499	50.69
400.708	173.57
400.917	159.23
401.127	124.41
401.336	77.31
401.545	200.19
401.754	142.85
401.963	132.61
402.172	165.37
402.381	142.85
402.59	185.85
402.799	146.94
403.008	179.71
403.217	101.89
403.426	114.17
403.635	114.17
403.844	212.48
404.053	132.61
404.262	101.89
404.471	206.33
404.68	73.21
404.888	136.7
405.097	153.09
405.306	214.52
405.515	173.57
405.724	136.7
405.933	273.92
406.142	151.04
406.35	167.42
406.559	218.62
406.768	345.59
406.977	185.85
407.185	212.48
407.394	269.82
407.603	161.28
407.812	253.44
408.02	232.96
408.229	226.81
408.438	278.01
408.646	300.54
408.855	265.72
409.064	323.07
409.272	267.77
409.481	347.64
409.69	253.44
409.898	310.78
410.107	343.55
410.315	267.77
410.524	296.44
410.733	398.84
410.941	364.03
411.15	419.32
411.358	425.47
411.567	472.57
411.775	423.42
411.984	380.41
412.192	495.1
412.401	398.84
412.609	572.92
412.818	581.11
413.026	495.1
413.234	503.29
413.443	564.73
413.651	560.63
413.86	591.35
414.068	609.78
414.276	675.32
414.485	568.82
414.693	628.21
414.901	763.38
415.11	740.85
415.318	656.89
415.526	747
415.734	706.04
415.943	701.94
416.151	869.87
416.359	822.77
416.567	888.31
416.776	865.78
416.984	1029.62
417.192	935.41
417.4	982.51
417.608	992.75
417.817	1005.04
418.025	1023.47
418.233	1222.13
418.441	1037.81
418.649	1109.49
418.857	1258.99
419.065	1299.95
419.273	1172.97
419.481	1293.8
419.689	1342.96
419.897	1418.73
420.105	1390.06
420.313	1615.34
420.521	1576.42
420.729	1619.43
420.937	1592.81
421.145	1711.59
421.353	1723.88
421.561	1691.11
421.769	1885.67
421.977	1955.3
422.185	1977.83
422.393	2080.22
422.601	2201.05
422.809	2211.29
423.017	2184.67
423.224	2262.49
423.432	2303.45
423.64	2416.09
423.848	2549.21
424.056	2459.1
424.263	2706.9
424.471	2754.01
424.679	2762.2
424.887	2989.52
425.094	2962.9
425.302	3010
425.51	3143.12
425.718	3091.92
425.925	3249.61
426.133	3339.73
426.341	3452.36
426.548	3573.19
426.756	3743.17
426.964	3757.51
427.171	4044.23
427.379	4074.95
427.586	4013.51
427.794	4191.68
428.001	4636.09
428.209	4623.8
428.417	4511.16
428.624	4773.3
428.832	4949.43
429.039	4791.73
429.247	4806.07
429.454	5232.05
429.662	5576.11
429.869	5383.6
430.076	5772.71
430.284	5385.65
430.491	5653.93
430.699	6065.57
430.906	6041
431.114	6278.56
431.321	6247.84
431.528	6569.37
431.736	6978.97
431.943	7214.48
432.15	7017.88
432.358	7054.74
432.565	7583.12
432.772	7318.93
432.979	7929.22
433.187	7884.17
433.394	7943.56
433.601	8709.5
433.808	8490.37
434.016	8613.24
434.223	8895.86
434.43	9411.95
434.637	9500.02
434.844	9786.73
435.052	10050.92
435.259	10055.01
435.466	10069.35
435.673	10038.63
435.88	10605.92
436.087	11285.84
436.294	11119.96
436.501	11085.14
436.708	11119.96
436.915	11533.65
437.122	12162.37
437.329	11963.72
437.537	12385.6
437.743	12711.23
437.95	12391.75
438.157	13284.66
438.364	13612.34
438.571	13491.51
438.778	13581.62
438.985	14929.18
439.192	14120.23
439.399	14519.59
439.606	14458.15
439.813	15152.41
440.02	16190.73
440.227	15858.96
440.433	15889.68
440.64	16289.03
440.847	16413.96
441.054	16557.32
441.261	17648.88
441.467	17523.96
441.674	17833.2
441.881	18361.58
442.088	18599.14
442.294	17997.04
442.501	18906.34
442.708	18969.82
442.914	19895.5
443.121	20747.46
443.328	20036.81
443.534	21693.62
443.741	20894.91
443.948	20718.79
444.154	21953.71
444.361	21947.57
444.568	22080.69
444.774	22123.69
444.981	22506.66
445.187	23110.82
445.394	24065.17
445.6	24001.68
445.807	25867.38
446.013	24642.7
446.22	25603.19
446.426	26483.82
446.633	26596.46
446.839	27346.01
447.046	26362.99
447.252	27862.1
447.459	27780.18
447.665	27790.42
447.871	28845.13
448.078	30217.27
448.284	28611.66
448.491	29377.6
448.697	30665.77
448.903	31073.32
449.11	31380.51
449.316	31474.72
449.522	31736.86
449.728	32404.5
449.935	32543.76
450.141	32377.87
450.347	33248.26
450.553	32506.9
450.76	32717.84
450.966	34024.44
451.172	33457.15
451.378	34200.57
451.584	33588.22
451.791	34606.06
451.997	34534.39
452.203	34999.27
452.409	34614.26
452.615	34659.31
452.821	33649.66
453.027	33086.47
453.233	35218.41
453.44	33754.11
453.646	33862.65
453.852	34460.66
454.058	34782.19
454.264	33702.91
454.47	34659.31
454.676	33383.43
454.882	34724.85
455.088	32007.19
455.294	32293.91
455.5	32797.71
455.705	32791.56
455.911	31632.41
456.117	31249.44
456.323	30743.59
456.529	28939.33
456.735	30546.99
456.941	29613.12
457.147	29373.5
457.352	28322.9
457.558	27901.01
457.764	28066.9
457.97	27317.34
458.176	27040.87
458.381	26887.27
458.587	25840.76
458.793	25693.3
458.999	24249.49
459.204	25898.1
459.41	25822.33
459.616	23626.9
459.821	23422.11
460.027	23493.79
460.233	22869.16
460.438	21912.75
460.644	22336.68
460.85	21241.02
461.055	20632.77
461.261	20829.38
461.466	19064.03
461.672	18558.18
461.878	19918.03
462.083	18734.31
462.289	18300.14
462.494	18414.82
462.7	17280.25
462.905	16866.56
463.111	17413.37
463.316	17503.48
463.522	16991.48
463.727	17188.09
463.932	16973.05
464.138	16887.04
464.343	17079.55
464.549	16569.6
464.754	16993.53
464.959	16747.78
465.165	16977.15
465.37	16157.96
465.575	15564.05
465.781	16313.61
465.986	16266.5
466.191	15856.91
466.397	15465.75
466.602	14751.01
466.807	15508.76
467.012	15273.24
467.218	15340.82
467.423	15240.47
467.628	14867.74
467.833	15748.37
468.038	15074.59
468.244	14734.62
468.449	15256.86
468.654	14968.09
468.859	14626.08
469.064	14693.66
469.269	13921.58
469.474	14314.79
469.679	14581.03
469.885	14148.9
470.09	14392.61
470.295	14365.99
470.5	13991.21
470.705	13778.22
470.91	13649.2
471.115	13395.25
471.32	13741.36
471.525	13569.33
471.73	13194.55
471.935	13206.84
472.139	12899.64
472.344	13016.38
472.549	12948.79
472.754	12631.36
472.959	12449.09
473.164	12313.92
473.369	12348.74
473.574	12518.72
473.778	12397.89
473.983	12186.95
474.188	12219.72
474.393	11728.21
474.598	11820.36
474.802	11531.6
475.007	11447.63
475.212	11519.31
475.417	10980.7
475.621	11111.77
475.826	11392.34
476.031	10976.6
476.235	10749.28
476.44	10712.41
476.645	10442.08
476.849	10579.29
477.054	10462.56
477.259	10421.6
477.463	10339.68
477.668	10171.75
477.872	10268
478.077	10112.36
478.282	9938.28
478.486	9733.48
478.691	9762.16
478.895	9747.82
479.1	9729.39
479.304	9893.23
479.509	9383.28
479.713	9405.81
479.918	9303.41
480.122	9088.37
480.326	9295.22
480.531	9233.78
480.735	9186.68
480.94	9092.47
481.144	9317.75
481.348	9055.61
481.553	8951.16
481.757	8752.51
481.961	9071.99
482.166	9137.52
482.37	9018.74
482.574	8541.57
482.778	8953.21
482.983	9178.48
483.187	8799.61
483.391	8859
483.595	8818.04
483.8	8889.72
484.004	8951.16
484.208	9016.69
484.412	8912.25
484.616	8885.62
484.821	8783.23
485.025	8619.39
485.229	8924.54
485.433	8754.55
485.637	9022.84
485.841	8748.41
486.045	8777.08
486.249	8754.55
486.453	8650.11
486.657	8992.12
486.861	8848.76
487.065	8598.91
487.269	8764.79
487.473	8715.64
487.677	8705.4
487.881	9012.6
488.085	8908.15
488.289	8916.34
488.493	8848.76
488.697	8764.79
488.901	8746.36
489.105	8881.53
489.309	8787.32
489.512	9012.6
489.716	9006.45
489.92	8936.82
490.124	8873.34
490.328	9229.68
490.531	8836.47
490.735	9131.38
490.939	9155.96
491.143	8965.5
491.346	9071.99
491.55	9211.25
491.754	9184.63
491.958	9213.3
492.161	9383.28
492.365	9383.28
492.569	9213.3
492.772	9309.55
492.976	9493.87
493.18	9452.91
493.383	9491.82
493.587	9655.66
493.79	9778.54
493.994	9530.73
494.197	9534.83
494.401	9815.4
494.605	9770.35
494.808	9919.85
495.012	9760.11
495.215	10067.3
495.419	10014.06
495.622	10177.89
495.825	10177.89
496.029	10145.13
496.232	10351.97
496.436	10296.67
496.639	10763.61
496.843	10509.66
497.046	10923.35
497.249	11033.94
497.453	10935.64
497.656	10958.17
497.859	10990.94
498.063	11251.03
498.266	11384.15
498.469	11285.84
498.673	11554.13
498.876	11760.97
499.079	11873.61
499.282	11619.66
499.485	12004.68
499.689	12023.11
499.892	12215.62
500.095	12342.6
500.298	12553.54
500.501	12528.96
500.705	12721.47
500.908	12868.92
501.111	13135.16
501.314	13188.41
501.517	13331.76
501.72	13493.55
501.923	13305.14
502.126	13606.19
502.329	14200.1
502.532	13921.58
502.735	14134.57
502.938	14478.63
503.141	14396.71
503.344	14495.01
503.547	14740.77
503.75	14841.12
503.953	15097.11
504.156	15363.35
504.359	15324.44
504.562	15412.5
504.765	15637.78
504.968	15842.57
505.17	16084.23
505.373	15918.35
505.576	16299.27
505.779	16551.17
505.982	16606.47
506.185	16993.53
506.387	16983.29
506.59	16948.48
506.793	17573.11
506.996	17341.69
507.198	17927.41
507.401	17761.52
507.604	17804.53
507.807	18431.21
508.009	18402.54
508.212	18269.42
508.415	18552.04
508.617	18758.88
508.82	19074.27
509.022	18818.27
509.225	19401.94
509.428	19561.69
509.63	19670.23
509.833	19807.44
510.035	20223.18
510.238	19915.98
510.44	20839.62
510.643	20829.38
510.845	20714.69
511.048	20968.64
511.25	21519.54
511.453	21103.81
511.655	21976.24
511.858	21796.02
512.06	22088.88
512.262	21984.43
512.465	22142.13
512.667	22545.58
512.87	22903.97
513.072	22766.76
513.274	23262.37
513.477	23409.82
513.679	23798.93
513.881	23782.55
514.084	23921.81
514.286	24153.23
514.488	24265.87
514.69	24767.62
514.893	24669.32
515.095	24888.45
515.297	25169.02
515.499	25113.73
515.701	25533.56
515.904	25889.91
516.106	25869.43
516.308	25781.37
516.51	26340.46
516.712	26369.13
516.914	26883.17
517.116	27298.91
517.318	27243.62
517.52	27309.15
517.722	27337.82
517.925	27944.02
518.127	28032.08
518.329	28159.06
518.531	28220.5
518.733	28857.42
518.935	28800.07
519.136	29133.89
519.338	28955.72
519.54	29619.26
519.742	29731.9
519.944	29783.1
520.146	30241.84
520.348	30485.55
520.55	30620.72
520.752	30401.58
520.954	31124.52
521.155	30624.81
521.357	31114.28
521.559	31667.23
521.761	31786.01
521.963	32037.91
522.164	31904.79
522.366	31896.6
522.568	32062.49
522.77	32646.16
522.971	32822.28
523.173	32934.92
523.375	32992.26
523.576	32869.39
523.778	32836.62
523.98	33162.25
524.181	33629.18
524.383	33598.46
524.584	33903.61
524.786	34098.17
524.988	33971.19
525.189	34382.84
525.391	34831.34
525.592	34558.96
525.794	34640.88
525.995	34659.31
526.197	34841.58
526.398	35173.35
526.6	35361.76
526.801	35234.79
527.003	35341.28
527.204	35341.28
527.406	35625.95
527.607	35468.26
527.808	36062.17
528.01	35275.75
528.211	35812.32
528.412	36717.52
528.614	36314.07
528.815	36172.76
529.016	36770.77
529.218	35918.81
529.419	36404.18
529.62	36463.57
529.822	36422.61
530.023	36404.18
530.224	36156.38
530.425	36508.63
530.626	36299.73
530.828	36488.15
531.029	37368.77
531.23	36508.63
531.431	36627.41
531.632	36932.56
531.833	37137.35
532.035	36758.48
532.236	36971.47
532.437	37276.62
532.638	36920.27
532.839	37352.39
533.04	37811.14
533.241	36764.62
533.442	37626.82
533.643	37370.82
533.844	37139.4
534.045	37258.18
534.246	36735.95
534.447	37374.92
534.648	36969.42
534.849	37403.59
535.05	37141.45
535.251	37467.08
535.451	37325.77
535.652	37475.27
535.853	37258.18
536.054	37213.13
536.255	37172.17
536.456	37231.56
536.657	37686.21
536.857	37037
537.058	36901.84
537.259	37221.32
537.46	36936.65
537.66	36901.84
537.861	37495.75
538.062	37026.76
538.263	37065.67
538.463	37102.54
538.664	37045.19
538.865	37321.67
539.065	37327.81
539.266	37114.83
539.466	37303.24
539.667	36760.53
539.868	37518.28
540.068	36959.18
540.269	37278.66
540.469	37704.64
540.67	36856.78
540.87	37180.36
541.071	37004.24
541.271	37534.66
541.472	36752.34
541.672	36793.29
541.873	36637.65
542.073	36406.23
542.274	37157.83
542.474	37012.43
542.675	36844.49
542.875	37313.48
543.075	36963.28
543.276	36682.7
543.476	36932.56
543.676	36789.2
543.877	36789.2
544.077	36922.32
544.277	36682.7
544.478	36752.34
544.678	36742.1
544.878	36742.1
545.078	36670.42
545.279	36629.46
545.479	36772.81
545.679	36725.71
545.879	36948.94
546.079	36570.07
546.28	36809.68
546.48	36660.18
546.68	36727.76
546.88	36744.14
547.08	36846.54
547.28	36967.37
547.48	36414.42
547.68	36709.33
547.88	36496.34
548.081	36611.03
548.281	36180.95
548.481	36326.36
548.681	36842.45
548.881	36385.75
549.081	36768.72
549.28	36436.95
549.48	36520.91
549.68	36449.24
549.88	36887.5
550.08	36520.91
550.28	36228.06
550.48	36228.06
550.68	36555.73
550.88	36217.82
551.08	36357.08
551.279	36600.79
551.479	36316.12
551.679	36320.21
551.879	36340.69
552.079	36666.32
552.278	36115.42
552.478	36355.03
552.678	36187.1
552.878	36416.47
553.077	36285.4
553.277	36094.94
553.477	36420.56
553.676	36203.48
553.876	36015.07
554.076	36105.18
554.275	36305.88
554.475	35623.9
554.674	36518.87
554.874	36266.97
555.074	35951.58
555.273	35943.39
555.473	35720.16
555.672	35988.44
555.872	36127.7
556.071	35800.03
556.271	35843.04
556.47	35738.59
556.67	35705.82
556.869	35765.21
557.068	35611.62
557.268	35570.66
557.467	35464.16
557.667	35445.73
557.866	35628
558.065	35132.39
558.265	35032.04
558.464	35226.6
558.663	35556.32
558.863	35204.07
559.062	35920.86
559.261	35118.06
559.461	35423.2
559.66	34894.83
559.859	35189.74
560.058	34970.6
560.258	35222.5
560.457	34601.97
560.656	34952.17
560.855	34962.41
561.054	35226.6
561.253	34591.73
561.453	34896.88
561.652	34860.01
561.851	35066.86
562.05	34683.89
562.249	34444.27
562.448	35013.61
562.647	34808.81
562.846	34358.26
563.045	34730.99
563.244	34501.62
563.443	34974.7
563.642	34038.78
563.841	34354.16
564.04	33813.5
564.239	34509.81
564.438	34223.09
564.637	34182.13
564.836	34399.22
565.035	34014.2
565.234	34489.33
565.432	33960.95
565.631	33715.2
565.83	34063.35
566.029	33903.61
566.228	33643.52
566.427	33684.48
566.625	33555.46
566.824	33051.66
567.023	33489.92
567.222	33139.72
567.42	33389.57
567.619	33496.06
567.818	33256.45
568.016	33395.71
568.215	33690.62
568.414	33119.24
568.612	33180.68
568.811	33123.33
569.01	33006.6
569.208	32474.13
569.407	33127.43
569.605	32621.58
569.804	32766.99
570.002	32797.71
570.201	32738.32
570.4	32369.68
570.598	32257.04
570.797	32277.52
570.995	32574.48
571.193	32238.61
571.392	32306.2
571.59	32089.11
571.789	31929.37
571.987	32064.53
572.186	31882.27
572.384	31960.09
572.582	31880.22
572.781	32064.53
572.979	31290.4
573.177	31724.57
573.376	32091.16
573.574	31558.69
573.772	31732.76
573.971	31769.63
574.169	31269.92
574.367	31466.53
574.565	31675.42
574.763	31190.05
574.962	31095.85
575.16	30964.78
575.358	31063.08
575.556	30850.09
575.754	31208.48
575.952	30893.1
576.151	30870.57
576.349	30569.52
576.547	30569.52
576.745	30655.53
576.943	30452.78
577.141	30456.88
577.339	30549.04
577.537	30268.47
577.735	30155.83
577.933	30194.74
578.131	29922.36
578.329	30092.34
578.527	29615.16
578.725	30114.87
578.923	29881.4
579.121	29948.98
579.319	29672.51
579.516	29875.26
579.714	29656.12
579.912	29703.23
580.11	29645.88
580.308	29533.25
580.506	29404.22
580.704	29113.41
580.901	29119.56
581.099	29264.96
581.297	29090.88
581.495	29066.31
581.692	29146.18
581.89	28808.26
582.088	28798.02
582.285	28873.8
582.483	28855.37
582.681	28777.54
582.878	28716.11
583.076	28437.58
583.274	28392.53
583.471	28197.97
583.669	28253.26
583.866	27884.63
584.064	28478.54
584.262	27798.62
584.459	28322.9
584.657	27663.45
584.854	28101.72
585.052	27890.77
585.249	27991.12
585.447	28007.51
585.644	27745.37
585.841	27640.92
586.039	27890.77
586.236	27659.35
586.434	27368.54
586.631	26913.89
586.828	27481.18
587.026	27098.21
587.223	27014.24
587.42	27090.02
587.618	27196.51
587.815	26877.03
588.012	26690.66
588.21	26920.04
588.407	26813.54
588.604	26592.36
588.801	26580.07
588.999	26508.4
589.196	26362.99
589.393	26461.29
589.59	26313.84
589.787	25973.88
589.984	26236.02
590.182	25799.8
590.379	26250.35
590.576	26002.55
590.773	25764.98
590.97	25461.88
591.167	25902.2
591.364	25500.79
591.561	25844.85
591.758	25476.22
591.955	25695.35
592.152	25779.32
592.349	24949.89
592.546	25513.08
592.743	25349.25
592.94	24937.6
593.137	24777.86
593.334	25060.48
593.531	24761.48
593.727	25148.54
593.924	25089.15
594.121	24509.58
594.318	24964.23
594.515	24394.89
594.712	24589.45
594.908	24452.23
595.105	24403.08
595.302	24218.77
595.499	24186
595.696	24403.08
595.892	23854.23
596.089	23999.63
596.286	23848.08
596.482	23989.39
596.679	23954.58
596.876	23901.33
597.072	23757.97
597.269	23712.92
597.466	23385.24
597.662	23401.63
597.859	23454.87
598.055	23325.85
598.252	23100.58
598.448	23346.33
598.645	23030.94
598.841	22844.58
599.038	23278.75
599.234	23123.1
599.431	23026.85
599.627	22795.43
599.824	23104.67
600.02	22944.93
600.217	22809.76
600.413	22578.34
600.609	22449.32
600.806	22332.59
601.002	22641.83
601.198	22283.44
601.395	22383.79
601.591	22029.49
601.787	22058.16
601.984	22150.32
602.18	22299.82
602.376	21744.82
602.572	21671.09
602.769	21882.03
602.965	21548.22
603.161	21728.44
603.357	21722.29
603.553	21720.24
603.75	21642.42
603.946	21261.5
604.142	21386.43
604.338	21204.16
604.534	21431.48
604.73	21351.61
604.926	20982.98
605.122	20935.87
605.318	21273.79
605.514	20862.15
605.71	20876.48
605.906	20788.42
606.102	20812.99
606.298	20993.22
606.494	21032.13
606.69	20894.91
606.886	20657.35
607.082	20315.34
607.278	20610.25
607.474	20239.56
607.67	20692.16
607.866	20075.73
608.062	20610.25
608.257	20301
608.453	20233.42
608.649	20319.43
608.845	19973.33
609.041	19999.95
609.236	20200.65
609.432	20040.91
609.628	20131.02
609.824	19991.76
610.019	19592.41
610.215	19958.99
610.411	20178.12
610.606	19545.3
610.802	19795.15
610.998	19600.6
611.193	19782.87
611.389	19711.19
611.584	19461.34
611.78	19678.42
611.976	19571.93
612.171	19608.79
612.367	19725.52
612.562	19455.19
612.758	19156.19
612.953	19246.3
613.149	19578.07
613.344	19209.43
613.539	19524.82
613.735	19412.18
613.93	19602.64
614.126	19164.38
614.321	19098.84
614.517	19100.89
614.712	18851.04
614.907	18918.62
615.103	19111.13
615.298	18873.57
615.493	19057.89
615.688	18607.33
615.884	19268.83
616.079	18730.21
616.274	18924.77
616.47	19000.54
616.665	18744.55
616.86	18484.45
617.055	18523.37
617.25	18527.46
617.445	18531.56
617.641	18212.07
617.836	18416.87
618.031	18298.09
618.226	18529.51
618.421	18140.4
618.616	18525.41
618.811	17851.63
619.006	18015.47
619.201	18025.71
619.396	18177.26
619.591	17890.54
619.786	17861.87
619.981	17710.32
620.176	17732.85
620.371	17595.64
620.566	17761.52
620.761	17923.31
620.956	17439.99
621.151	16975.1
621.346	17595.64
621.541	17265.91
621.735	17374.45
621.93	17106.17
622.125	17085.69
622.32	16762.11
622.515	16958.72
622.709	16602.37
622.904	16657.67
623.099	16612.61
623.294	16876.8
623.488	16532.74
623.683	16502.02
623.878	16157.96
624.072	15944.97
624.267	16080.14
624.462	16020.75
624.656	15719.7
624.851	15861.01
625.046	15869.2
625.24	15641.87
625.435	15578.39
625.629	15504.66
625.824	15535.38
626.018	15408.4
626.213	15232.28
626.407	15291.67
626.602	15080.73
626.796	15170.84
626.991	15150.36
627.185	14777.63
627.38	14851.36
627.574	14646.56
627.768	14624.03
627.963	14671.14
628.157	14574.88
628.352	14548.26
628.546	14306.6
628.74	14603.55
628.935	14089.51
629.129	14253.35
629.323	14064.94
629.517	14030.12
629.712	14091.56
629.906	13870.38
630.1	13655.34
630.294	13741.36
630.489	13501.75
630.683	13763.89
630.877	13333.81
631.071	13409.59
631.265	13403.44
631.459	13262.13
631.653	13174.07
631.848	13380.92
632.042	13014.33
632.236	13159.74
632.43	12875.07
632.624	13106.49
632.818	12873.02
633.012	12694.85
633.206	12578.11
633.4	12612.93
633.594	12590.4
633.788	12414.27
633.982	12541.25
634.176	12426.56
634.369	12064.07
634.563	12315.97
634.757	12287.3
634.951	12092.74
635.145	11967.82
635.339	12072.26
635.533	11846.99
635.726	11920.71
635.92	11642.19
636.114	11922.76
636.308	11793.74
636.501	11541.84
636.695	11625.81
636.889	11488.59
637.083	11312.47
637.276	11433.3
637.47	11382.1
637.664	11302.23
637.857	11310.42
638.051	11371.86
638.244	11255.12
638.438	10952.02
638.632	11023.7
638.825	10954.07
639.019	11001.18
639.212	10868.06
639.406	10810.72
639.599	10806.62
639.793	10863.96
639.986	10708.32
640.18	10730.84
640.373	10599.77
640.567	10489.18
640.76	10511.71
640.954	10425.7
641.147	10243.43
641.34	10257.76
641.534	10095.97
641.727	10169.7
641.92	10204.52
642.114	10155.37
642.307	10036.58
642.5	10052.97
642.694	9866.6
642.887	9930.09
643.08	9835.88
643.273	9819.5
643.467	9594.22
643.66	9651.56
643.853	9620.85
644.046	9457.01
644.239	9491.82
644.432	9432.43
644.626	9358.71
644.819	9291.12
645.012	9319.79
645.205	9139.57
645.398	9264.5
645.591	9127.28
645.784	9102.71
645.977	9035.13
646.17	9133.43
646.363	9014.65
646.556	8691.07
646.749	8760.7
646.942	8871.29
647.135	8635.77
647.328	8809.85
647.521	8695.16
647.714	8742.27
647.907	8779.13
648.099	8588.67
648.292	8615.29
648.485	8564.09
648.678	8410.5
648.871	8330.62
649.064	8412.54
649.256	8385.92
649.449	8426.88
649.642	8230.27
649.835	8244.61
650.027	8131.97
650.22	8172.93
650.413	7869.83
650.605	8152.45
650.798	8017.29
650.991	7912.84
651.183	8082.82
651.376	7912.84
651.568	7898.5
651.761	7757.19
651.954	7835.02
652.146	7816.58
652.339	7632.27
652.531	7685.51
652.724	7607.69
652.916	7437.71
653.109	7493.01
653.301	7452.05
653.494	7595.4
653.686	7374.22
653.879	7312.78
654.071	7353.74
654.263	7243.15
654.456	7208.34
654.648	7304.59
654.84	7095.7
655.033	7155.09
655.225	7052.69
655.417	6935.96
655.61	7128.47
655.802	7069.08
655.994	6899.09
656.186	7038.36
656.379	6835.61
656.571	6917.53
656.763	6761.88
656.955	6856.09
657.148	6835.61
657.34	6819.22
657.532	6622.62
657.724	6639
657.916	6530.46
658.108	6770.07
658.3	6493.6
658.492	6602.14
658.684	6505.88
658.876	6356.38
659.068	6417.82
659.26	6346.14
659.452	6329.76
659.644	6383.01
659.836	6186.4
660.028	6350.24
660.22	6034.85
660.412	6174.11
660.604	6014.37
660.796	6161.83
660.988	6137.25
661.18	6059.43
661.372	5924.26
661.563	6022.56
661.755	6026.66
661.947	5954.98
662.139	5889.45
662.331	5860.77
662.522	5756.33
662.714	5965.22
662.906	5739.94
663.097	5791.14
663.289	5850.53
663.481	5782.95
663.673	5615.02
663.864	5467.56
664.056	5692.84
664.247	5559.72
664.439	5592.49
664.631	5481.9
664.822	5457.32
665.014	5559.72
665.205	5412.27
665.397	5258.67
665.588	5508.52
665.78	5340.59
665.971	5381.55
666.163	5408.17
666.354	5410.22
666.546	5268.91
666.737	5072.31
666.929	5250.48
667.12	5363.12
667.311	5121.46
667.503	5096.88
667.694	5168.56
667.885	5129.65
668.077	5047.73
668.268	4877.75
668.459	4988.34
668.651	5094.83
668.842	5041.59
669.033	4971.96
669.224	4867.51
669.416	5010.87
669.607	4840.89
669.798	4834.74
669.989	4736.44
670.18	4761.02
670.371	4736.44
670.563	4804.02
670.754	4763.06
670.945	4750.78
671.136	4771.26
671.327	4861.37
671.518	4699.58
671.709	4722.1
671.9	4658.62
672.091	4746.68
672.282	4687.29
672.473	4660.66
672.664	4781.5
672.855	4535.74
673.046	4595.13
673.237	4570.55
673.428	4419
673.619	4621.75
673.809	4443.58
674	4478.4
674.191	4398.52
674.382	4494.78
674.573	4349.37
674.764	4388.29
674.954	4376
675.145	4328.89
675.336	4406.72
675.527	4249.02
675.717	4298.17
675.908	4289.98
676.099	4189.63
676.289	4269.5
676.48	4296.13
676.671	4193.73
676.861	4453.82
677.052	4236.74
677.243	4312.51
677.433	4150.72
677.624	3999.17
677.814	3999.17
678.005	4199.87
678.195	4138.43
678.386	4128.19
678.576	4222.4
678.767	3954.12
678.957	4050.37
679.148	4036.03
679.338	4099.52
679.529	4007.36
679.719	4156.86
679.909	4097.47
680.1	4011.46
680.29	3947.97
680.481	4081.09
680.671	4007.36
680.861	3886.53
681.052	3972.55
681.242	3937.73
681.432	3960.26
681.622	3794.37
681.813	3786.18
682.003	4007.36
682.193	3884.48
682.383	3921.35
682.573	3917.25
682.764	3900.87
682.954	3933.64
683.144	3943.88
683.334	3917.25
683.524	3804.61
683.714	3859.91
683.904	3839.43
684.094	3907.01
684.284	3792.33
684.474	3728.84
684.664	3839.43
684.854	3775.94
685.044	3687.88
685.234	3687.88
685.424	3767.75
685.614	3601.87
685.804	3661.26
685.994	3677.64
686.184	3782.09
686.374	3601.87
686.564	3612.1
686.753	3651.02
686.943	3651.02
687.133	3575.24
687.323	3485.13
687.513	3573.19
687.702	3521.99
687.892	3507.66
688.082	3507.66
688.272	3556.81
688.461	3503.56
688.651	3595.72
688.841	3556.81
689.03	3370.44
689.22	3407.31
689.41	3487.18
689.599	3423.69
689.789	3294.67
689.979	3370.44
690.168	3247.57
690.358	3261.9
690.547	3366.35
690.737	3384.78
690.926	3157.46
691.116	3192.27
691.305	3352.01
691.495	3169.74
691.684	3153.36
691.874	3196.37
692.063	3173.84
692.252	3239.37
692.442	3239.37
692.631	3147.22
692.82	3136.98
693.01	3175.89
693.199	3053.01
693.388	2956.75
693.578	3104.21
693.767	3091.92
693.956	3050.96
694.146	3204.56
694.335	3069.39
694.524	2899.41
694.713	2997.71
694.902	3059.15
695.092	2936.28
695.281	2856.4
695.47	2960.85
695.659	2885.08
695.848	2921.94
696.037	2893.27
696.226	2928.08
696.415	2928.08
696.604	2969.04
696.793	2944.47
696.982	2874.84
697.171	2819.54
697.36	2823.64
697.549	2805.21
697.738	2784.73
697.927	2940.37
698.116	2829.78
698.305	2827.73
698.494	2835.92
698.683	2827.73
698.872	2782.68
699.061	2747.86
699.25	2758.1
699.438	2831.83
699.627	2737.62
699.816	2821.59
700.005	2676.18
700.193	2790.87
700.382	2784.73
700.571	2735.57
700.76	2579.93
700.948	2813.4
701.137	2704.85
701.326	2659.8
701.514	2684.38
701.703	2684.38
701.892	2624.98
702.08	2688.47
702.269	2602.46
702.457	2624.98
702.646	2694.61
702.834	2518.49
703.023	2624.98
703.212	2594.26
703.4	2573.78
703.589	2631.13
703.777	2704.85
703.965	2590.17
704.154	2520.54
704.342	2614.74
704.531	2627.03
704.719	2684.38
704.907	2608.6
705.096	2592.22
705.284	2553.31
705.472	2563.54
705.661	2600.41
705.849	2600.41
706.037	2622.94
706.226	2612.7
706.414	2579.93
706.602	2502.11
706.79	2541.02
706.979	2608.6
707.167	2541.02
707.355	2401.76
707.543	2594.26
707.731	2754.01
707.919	2434.52
708.107	2530.78
708.296	2518.49
708.484	2475.48
708.672	2524.63
708.86	2545.11
709.048	2459.1
709.236	2557.4
709.424	2602.46
709.612	2577.88
709.8	2584.02
709.988	2624.98
710.176	2491.87
710.364	2602.46
710.551	2479.58
710.739	2512.35
710.927	2565.59
711.115	2559.45
711.303	2479.58
711.491	2555.35
711.679	2479.58
711.866	2457.05
712.054	2610.65
712.242	2500.06
712.43	2604.5
712.617	2518.49
712.805	2483.67
712.993	2514.39
713.181	2465.24
713.368	2434.52
713.556	2598.36
713.744	2598.36
713.931	2547.16
714.119	2495.96
714.306	2434.52
714.494	2450.91
714.682	2573.78
714.869	2467.29
715.057	2520.54
715.244	2538.97
715.432	2620.89
715.619	2493.91
715.807	2565.59
715.994	2629.08
716.182	2530.78
716.369	2493.91
716.556	2512.35
716.744	2409.95
716.931	2637.27
717.119	2491.87
717.306	2477.53
717.493	2577.88
717.681	2522.59
717.868	2573.78
718.055	2608.6
718.242	2551.26
718.43	2485.72
718.617	2559.45
718.804	2504.15
718.991	2594.26
719.179	2416.09
719.366	2555.35
719.553	2422.24
719.74	2551.26
719.927	2557.4
720.114	2491.87
720.301	2395.61
720.488	2368.99
720.676	2469.34
720.863	2661.85
721.05	2543.07
721.237	2385.37
721.424	2661.85
721.611	2477.53
721.798	2450.91
721.985	2450.91
722.172	2600.41
722.358	2598.36
722.545	2438.62
722.732	2514.39
722.919	2571.74
723.106	2571.74
723.293	2522.59
723.48	2506.2
723.667	2631.13
723.853	2498.01
724.04	2643.42
724.227	2557.4
724.414	2639.32
724.6	2633.18
724.787	2684.38
724.974	2563.54
725.161	2610.65
725.347	2512.35
725.534	2670.04
725.72	2604.5
725.907	2559.45
726.094	2604.5
726.28	2588.12
726.467	2606.55
726.653	2590.17
726.84	2596.31
727.027	2696.66
727.213	2631.13
727.4	2639.32
727.586	2596.31
727.773	2518.49
727.959	2702.81
728.145	2581.98
728.332	2571.74
728.518	2612.7
728.705	2584.02
728.891	2622.94
729.077	2604.5
729.264	2594.26
729.45	2633.18
729.636	2645.46
729.823	2612.7
730.009	2680.28
730.195	2756.05
730.382	2670.04
730.568	2719.19
730.754	2688.47
730.94	2661.85
731.126	2633.18
731.313	2731.48
731.499	2665.94
731.685	2823.64
731.871	2756.05
732.057	2737.62
732.243	2813.4
732.429	2678.23
732.615	2704.85
732.801	2614.74
732.987	2692.57
733.173	2651.61
733.359	2737.62
733.545	2706.9
733.731	2745.81
733.917	2766.29
734.103	2700.76
734.289	2844.12
734.475	2756.05
734.661	2762.2
734.847	2770.39
735.033	2674.14
735.219	2825.68
735.404	2815.45
735.59	2809.3
735.776	2764.25
735.962	2950.61
736.148	2811.35
736.333	2801.11
736.519	2876.88
736.705	2751.96
736.89	2713.05
737.076	2868.69
737.262	2809.3
737.447	2790.87
737.633	2715.09
737.819	2809.3
738.004	2827.73
738.19	2880.98
738.375	2778.58
738.561	2817.49
738.747	2774.49
738.932	2768.34
739.118	2887.12
739.303	2864.6
739.489	2866.64
739.674	2833.88
739.859	2848.21
740.045	2700.76
740.23	2768.34
740.416	2719.19
740.601	2872.79
740.786	2768.34
740.972	2704.85
741.157	2747.86
741.342	2819.54
741.528	2831.83
741.713	2870.74
741.898	2837.97
742.084	2725.33
742.269	2794.97
742.454	2690.52
742.639	2780.63
742.824	2844.12
743.01	2768.34
743.195	2647.51
743.38	2754.01
743.565	2715.09
743.75	2776.53
743.935	2733.53
744.12	2854.36
744.305	2809.3
744.49	2711
744.675	2622.94
744.86	2727.38
745.045	2690.52
745.23	2661.85
745.415	2645.46
745.6	2745.81
745.785	2721.24
745.97	2549.21
746.155	2713.05
746.34	2719.19
746.525	2627.03
746.71	2747.86
746.895	2663.9
747.079	2670.04
747.264	2616.79
747.449	2852.31
747.634	2620.89
747.819	2688.47
748.003	2711
748.188	2598.36
748.373	2590.17
748.557	2485.72
748.742	2506.2
748.927	2483.67
749.111	2543.07
749.296	2483.67
749.481	2557.4
749.665	2362.84
749.85	2491.87
750.034	2502.11
750.219	2432.47
750.404	2385.37
750.588	2516.44
750.773	2362.84
750.957	2434.52
751.141	2461.15
751.326	2297.31
751.51	2463.19
751.695	2393.56
751.879	2426.33
752.064	2371.04
752.248	2321.88
752.432	2475.48
752.617	2360.8
752.801	2368.99
752.985	2239.97
753.17	2323.93
753.354	2348.51
753.538	2389.47
753.722	2100.7
753.907	2160.1
754.091	2166.24
754.275	2344.41
754.459	2205.15
754.643	2121.18
754.828	2104.8
755.012	2143.71
755.196	2106.85
755.38	2078.18
755.564	2059.74
755.748	2080.22
755.932	2041.31
756.116	2110.94
756.3	1945.06
756.484	2172.38
756.668	2096.61
756.852	1977.83
757.036	2051.55
757.22	2004.45
757.404	1938.91
757.588	1900
757.772	1932.77
757.956	1885.67
758.14	1914.34
758.323	1906.15
758.507	1957.35
758.691	1977.83
758.875	1936.87
759.059	1967.59
759.242	1955.3
759.426	1828.32
759.61	1818.08
759.794	1781.22
759.977	1830.37
760.161	1912.29
760.345	1904.1
760.528	1852.9
760.712	1906.15
760.895	1844.71
761.079	1691.11
761.263	1777.12
761.446	1797.6
761.63	1713.64
761.813	1727.97
761.997	1680.87
762.18	1758.69
762.364	1777.12
762.547	1811.94
762.731	1828.32
762.914	1750.5
763.098	1676.77
763.281	1709.54
763.464	1660.39
763.648	1572.33
763.831	1703.4
764.015	1611.24
764.198	1648.1
764.381	1664.49
764.564	1637.86
764.748	1689.06
764.931	1674.73
765.114	1662.44
765.297	1674.73
765.481	1531.37
765.664	1582.57
765.847	1545.7
766.03	1590.76
766.213	1545.7
766.397	1469.93
766.58	1494.51
766.763	1705.45
766.946	1658.34
767.129	1492.46
767.312	1594.86
767.495	1629.67
767.678	1547.75
767.861	1578.47
768.044	1521.13
768.227	1459.69
768.41	1605.1
768.593	1435.11
768.776	1584.62
768.959	1496.55
769.142	1431.02
769.324	1551.85
769.507	1390.06
769.69	1412.59
769.873	1521.13
770.056	1529.32
770.239	1441.26
770.421	1508.84
770.604	1396.2
770.787	1424.87
770.97	1396.2
771.152	1412.59
771.335	1445.35
771.518	1367.53
771.7	1457.64
771.883	1431.02
772.066	1285.61
772.248	1381.87
772.431	1420.78
772.613	1359.34
772.796	1234.41
772.978	1345
773.161	1420.78
773.343	1330.67
773.526	1244.65
773.708	1258.99
773.891	1261.04
774.073	1304.04
774.256	1365.48
774.438	1293.8
774.621	1297.9
774.803	1236.46
774.985	1232.37
775.168	1277.42
775.35	1170.93
775.532	1230.32
775.715	1172.97
775.897	1263.08
776.079	1152.49
776.261	1302
776.444	1236.46
776.626	1142.25
776.808	1242.61
776.99	1138.16
777.173	1207.79
777.355	1134.06
777.537	1117.68
777.719	1109.49
777.901	1170.93
778.083	1017.33
778.265	1086.96
778.447	1078.77
778.629	1066.48
778.811	1107.44
778.993	1111.54
779.175	957.94
779.357	1019.38
779.539	951.79
779.721	974.32
779.903	1054.19
780.085	1015.28
780.267	812.53
780.449	966.13
780.631	951.79
780.812	1072.62
780.994	998.9
781.176	974.32
781.358	945.65
781.54	902.64
781.721	945.65
781.903	886.26
782.085	910.83
782.267	908.79
782.448	904.69
782.63	910.83
782.812	818.68
782.993	845.3
783.175	878.07
783.357	902.64
783.538	925.17
783.72	849.4
783.901	851.44
784.083	830.96
784.264	814.58
784.446	845.3
784.627	732.66
784.809	818.68
784.99	828.92
785.172	777.72
785.353	781.81
785.535	769.52
785.716	765.43
785.897	804.34
786.079	740.85
786.26	785.91
786.441	822.77
786.623	681.46
786.804	771.57
786.985	790
787.167	779.76
787.348	648.69
787.529	757.24
787.71	769.52
787.891	714.23
788.073	665.08
788.254	546.3
788.435	714.23
788.616	599.54
788.797	622.07
788.978	613.88
789.159	587.26
789.34	632.31
789.522	611.83
789.703	706.04
789.884	634.36
790.065	654.84
790.246	714.23
790.427	572.92
790.607	712.18
790.788	660.98
790.969	605.69
791.15	710.13
791.331	550.39
791.512	548.34
791.693	519.67
791.874	601.59
792.054	591.35
792.235	624.12
792.416	542.2
792.597	683.51
792.778	622.07
792.958	601.59
793.139	564.73
793.32	620.02
793.5	593.4
793.681	675.32
793.862	534.01
794.042	531.96
794.223	425.47
794.404	497.14
794.584	411.13
794.765	470.52
794.945	531.96
795.126	505.34
795.306	534.01
795.487	611.83
795.667	466.42
795.848	501.24
796.028	443.9
796.209	583.16
796.389	470.52
796.57	546.3
796.75	462.33
796.93	493.05
797.111	450.04
797.291	445.95
797.471	554.49
797.652	519.67
797.832	495.1
798.012	474.62
798.192	464.38
798.373	505.34
798.553	417.27
798.733	456.19
798.913	419.32
799.093	407.03
799.274	474.62
799.454	415.23
799.634	525.82
799.814	527.86
799.994	491
800.174	372.22
800.354	460.28
800.534	378.36
800.714	437.75
800.894	337.4
801.074	384.51
801.254	388.6
801.434	404.99
801.614	472.57
801.794	404.99
801.974	1052.14
802.154	392.7
802.334	359.93
802.514	312.83
802.693	335.35
802.873	331.26
803.053	433.66
803.233	370.17
803.413	290.3
803.592	433.66
803.772	327.16
803.952	353.79
804.131	316.92
804.311	345.59
804.491	464.38
804.67	327.16
804.85	417.27
805.03	333.31
805.209	378.36
805.389	329.21
805.568	396.79
805.748	374.27
805.928	318.97
806.107	355.83
806.287	327.16
806.466	378.36
806.646	343.55
806.825	333.31
807.004	302.59
807.184	388.6
807.363	364.03
807.543	314.88
807.722	300.54
807.901	425.47
808.081	337.4
808.26	263.68
808.439	355.83
808.619	327.16
808.798	339.45
808.977	380.41
809.156	351.74
809.336	411.13
809.515	345.59
809.694	245.24
809.873	294.4
810.052	204.28
810.231	357.88
810.411	343.55
810.59	382.46
810.769	333.31
810.948	247.29
811.127	251.39
811.306	304.64
811.485	249.34
811.664	378.36
811.843	355.83
812.022	318.97
812.201	304.64
812.38	308.73
812.559	294.4
812.737	316.92
812.916	312.83
813.095	226.81
813.274	284.16
813.453	318.97
813.632	327.16
813.811	337.4
813.989	273.92
814.168	325.12
814.347	278.01
814.526	290.3
814.704	310.78
814.883	343.55
815.062	249.34
815.24	286.2
815.419	200.19
815.598	253.44
815.776	298.49
815.955	288.25
816.133	198.14
816.312	292.35
816.49	202.24
816.669	253.44
816.847	214.52
817.026	241.15
817.204	163.33
817.383	228.86
817.561	161.28
817.74	237.05
817.918	222.72
818.097	208.38
818.275	290.3
818.453	235
818.632	308.73
818.81	208.38
818.988	249.34
819.167	259.58
819.345	271.87
819.523	241.15
819.701	257.53
819.879	380.41
820.058	189.95
820.236	259.58
820.414	251.39
820.592	173.57
820.77	169.47
820.948	265.72
821.127	206.33
821.305	220.67
821.483	159.23
821.661	194.05
821.839	243.2
822.017	214.52
822.195	237.05
822.373	151.04
822.551	173.57
822.729	288.25
822.907	249.34
823.085	196.09
823.262	144.89
823.44	181.76
823.618	292.35
823.796	251.39
823.974	204.28
824.152	216.57
824.329	241.15
824.507	185.85
824.685	218.62
824.863	210.43
825.04	187.9
825.218	206.33
825.396	249.34
825.574	169.47
825.751	79.36
825.929	200.19
826.107	122.37
826.284	185.85
826.462	202.24
826.639	140.8
826.817	214.52
826.994	163.33
827.172	159.23
827.349	218.62
827.527	132.61
827.704	159.23
827.882	230.91
828.059	128.51
828.237	95.74
828.414	249.34
828.591	151.04
828.769	224.76
828.946	204.28
829.124	216.57
829.301	247.29
829.478	192
829.655	140.8
829.833	153.09
830.01	89.6
830.187	204.28
830.364	175.61
830.542	155.13
830.719	220.67
830.896	128.51
831.073	179.71
831.25	173.57
831.427	144.89
831.604	220.67
831.782	161.28
831.959	187.9
832.136	175.61
832.313	142.85
832.49	116.22
832.667	185.85
832.844	132.61
833.021	185.85
833.198	181.76
833.374	136.7
833.551	132.61
833.728	124.41
833.905	165.37
834.082	151.04
834.259	226.81
834.436	165.37
834.612	110.08
834.789	204.28
834.966	95.74
835.143	142.85
835.319	85.5
835.496	171.52
835.673	151.04
835.85	112.13
836.026	144.89
836.203	124.41
836.38	52.74
836.556	136.7
836.733	122.37
836.909	165.37
837.086	132.61
837.262	134.65
837.439	93.69
837.616	122.37
837.792	159.23
837.968	142.85
838.145	52.74
838.321	103.93
838.498	202.24
838.674	132.61
838.851	69.12
839.027	148.99
839.203	177.66
839.38	185.85
839.556	116.22
839.732	187.9
839.909	146.94
840.085	118.27
840.261	81.41
840.437	148.99
840.614	132.61
840.79	146.94
840.966	146.94
841.142	167.42
841.318	89.6
841.494	148.99
841.671	122.37
841.847	73.21
842.023	87.55
842.199	118.27
842.375	179.71
842.551	95.74
842.727	54.78
842.903	77.31
843.079	103.93
843.255	101.89
843.431	177.66
843.607	165.37
843.783	95.74
843.959	112.13
844.134	155.13
844.31	144.89
844.486	77.31
844.662	13.82
844.838	142.85
845.013	112.13
845.189	105.98
845.365	38.4
845.541	101.89
845.716	110.08
845.892	91.65
846.068	69.12
846.244	89.6
846.419	114.17
846.595	83.45
846.77	181.76
846.946	130.56
847.122	112.13
847.297	114.17
847.473	93.69
847.648	56.83
847.824	110.08
847.999	54.78
848.175	91.65
848.35	28.16
848.526	153.09
848.701	87.55
848.876	124.41
849.052	38.4
849.227	11.78
849.403	46.59
849.578	116.22
849.753	144.89
849.929	157.18
850.104	116.22
850.279	101.89
850.454	46.59
850.63	140.8
850.805	151.04
850.98	32.26
851.155	87.55
851.33	62.98
851.505	46.59
851.681	136.7
851.856	44.54
852.031	75.26
852.206	116.22
852.381	83.45
852.556	44.54
852.731	56.83
852.906	136.7
853.081	112.13
853.256	54.78
853.431	122.37
853.606	71.17
853.781	1.54
853.956	-6.66
854.131	89.6
854.305	-2.56
854.48	-6.66
854.655	54.78
854.83	79.36
855.005	116.22
855.18	128.51
855.354	-18.94
855.529	65.02
855.704	30.21
855.879	73.21
856.053	91.65
856.228	32.26
856.403	71.17
856.577	118.27
856.752	22.02
856.926	-4.61
857.101	54.78
857.276	36.35
857.45	87.55
857.625	122.37
857.799	60.93
857.974	132.61
858.148	91.65
858.323	95.74
858.497	77.31
858.672	95.74
858.846	110.08
859.02	79.36
859.195	30.21
859.369	3.58
859.543	58.88
859.718	112.13
859.892	75.26
860.066	69.12
860.241	24.06
860.415	89.6
860.589	-10.75
860.763	87.55
860.938	108.03
861.112	87.55
861.286	91.65
861.46	32.26
861.634	7.68
861.808	13.82
861.982	24.06
862.157	11.78
862.331	50.69
862.505	17.92
862.679	93.69
862.853	128.51
863.027	-8.7
863.201	81.41
863.375	34.3
863.549	81.41
863.722	161.28
863.896	130.56
864.07	85.5
864.244	40.45
864.418	103.93
864.592	13.82
864.766	81.41
864.939	79.36
865.113	46.59
865.287	83.45
865.461	15.87
865.634	81.41
865.808	46.59
865.982	17.92
866.156	11.78
866.329	101.89
866.503	67.07
866.676	38.4
866.85	52.74
867.024	44.54
867.197	-8.7
867.371	73.21
867.544	30.21
867.718	93.69
867.891	24.06
868.065	22.02
868.238	28.16
868.412	65.02
868.585	48.64
868.759	67.07
868.932	87.55
869.105	30.21
869.279	101.89
869.452	24.06
869.625	89.6
869.799	95.74
869.972	19.97
870.145	40.45
870.319	103.93
870.492	120.32
870.665	-20.99
870.838	15.87
871.011	56.83
871.185	7.68
871.358	-20.99
871.531	67.07
871.704	13.82
871.877	46.59
872.05	83.45
872.223	30.21
872.396	1.54
872.569	17.92
872.742	-55.81
872.915	177.66
873.088	15.87
873.261	50.69
873.434	65.02
873.607	83.45
873.78	71.17
873.953	52.74
874.126	130.56
874.299	30.21
874.471	56.83
874.644	79.36
874.817	32.26
874.99	85.5
875.163	62.98
875.335	65.02
875.508	22.02
875.681	56.83
875.853	7.68
876.026	105.98
876.199	44.54
876.371	30.21
876.544	28.16
876.717	38.4
876.889	32.26
877.062	99.84
877.234	5.63
877.407	11.78
877.579	1.54
877.752	85.5
877.924	46.59
878.097	65.02
878.269	34.3
878.442	85.5
878.614	17.92
878.786	44.54
878.959	71.17
879.131	110.08
879.303	-27.14
879.476	7.68
879.648	24.06
879.82	28.16
879.993	91.65
880.165	54.78
880.337	-43.52
880.509	3.58
880.681	32.26
880.854	-10.75
881.026	36.35
881.198	103.93
881.37	99.84
881.542	105.98
881.714	34.3
881.886	-16.9
882.058	-8.7
882.23	26.11
882.402	34.3
882.574	69.12
882.746	54.78
882.918	56.83
883.09	11.78
883.262	-20.99
883.434	42.5
883.606	42.5
883.778	26.11
883.95	126.46
884.122	81.41
884.293	58.88
884.465	-39.42
884.637	114.17
884.809	5.63
884.98	17.92
885.152	38.4
885.324	114.17
885.496	-14.85
885.667	24.06
885.839	-16.9
886.011	95.74
886.182	-14.85
886.354	89.6
886.525	22.02
886.697	138.75
886.869	-12.8
887.04	11.78
887.212	101.89
887.383	83.45
887.555	-2.56
887.726	73.21
887.897	36.35
888.069	28.16
888.24	71.17
888.412	52.74
888.583	9.73
888.754	50.69
888.926	73.21
889.097	56.83
889.268	36.35
889.44	17.92
889.611	-10.75
889.782	-10.75
889.953	52.74
890.125	87.55
890.296	-35.33
890.467	54.78
890.638	28.16
890.809	28.16
890.98	-31.23
891.151	-6.66
891.323	54.78
891.494	73.21
891.665	42.5
891.836	17.92
892.007	19.97
892.178	22.02
892.349	-4.61
892.52	42.5
892.691	13.82
892.862	-6.66
893.032	-14.85
893.203	24.06
893.374	60.93
893.545	89.6
893.716	44.54
893.887	75.26
894.057	26.11
894.228	83.45
894.399	22.02
894.57	60.93
894.74	7.68
894.911	108.03
895.082	52.74
895.253	73.21
895.423	-29.18
895.594	60.93
895.764	11.78
895.935	42.5
896.106	44.54
896.276	-0.51
896.447	46.59
896.617	19.97
896.788	110.08
896.958	5.63
897.129	22.02
897.299	48.64
897.47	11.78
897.64	-23.04
897.81	19.97
897.981	48.64
898.151	17.92
898.322	58.88
898.492	79.36
898.662	89.6
898.832	60.93
899.003	-12.8
899.173	52.74
899.343	15.87
899.513	-31.23
