Data from USB4F104151__54__12-41-53-900.txt Node

Date: Fri Mar 14 12:41:53 EDT 2025
User: louis
Spectrometer: USB4F10415
Trigger mode: 4
Integration Time (sec): 3.000000E-2
Scans to average: 1
Electric dark correction enabled: true
Nonlinearity correction enabled: false
Boxcar width: 0
XAxis mode: Wavelengths
Number of Pixels in Spectrum: 3648
>>>>>Begin Spectral Data<<<<<
178.204	-124.24
178.424	-124.24
178.644	-124.24
178.864	-95.57
179.084	-50.52
179.304	-32.08
179.524	31.4
179.744	17.07
179.964	53.93
180.184	45.74
180.404	45.74
180.624	-7.51
180.844	-5.46
181.064	-126.29
181.283	-21.84
181.503	-75.09
181.723	74.41
181.943	-40.28
182.163	70.31
182.383	-1.37
182.602	10.92
182.822	72.36
183.042	27.31
183.262	-7.51
183.482	53.93
183.701	-9.56
183.921	70.31
184.141	25.26
184.361	107.18
184.58	31.4
184.8	-15.7
185.02	2.73
185.239	33.45
185.459	0.68
185.679	39.59
185.898	12.97
186.118	66.22
186.338	51.88
186.557	43.69
186.777	29.35
186.997	82.6
187.216	6.83
187.436	101.03
187.655	90.79
187.875	86.7
188.095	0.68
188.314	62.12
188.534	37.55
188.753	62.12
188.973	31.4
189.192	133.8
189.412	-13.65
189.631	-25.94
189.851	2.73
190.07	33.45
190.29	2.73
190.509	17.07
190.729	-30.04
190.948	49.83
191.168	199.34
191.387	19.11
191.607	23.21
191.826	37.55
192.045	-1.37
192.265	15.02
192.484	55.98
192.704	-9.56
192.923	-13.65
193.142	64.17
193.362	10.92
193.581	58.03
193.8	10.92
194.02	-23.89
194.239	58.03
194.458	90.79
194.678	12.97
194.897	0.68
195.116	-23.89
195.335	94.89
195.555	60.07
195.774	96.94
195.993	41.64
196.212	45.74
196.432	29.35
196.651	23.21
196.87	-1.37
197.089	98.99
197.308	105.13
197.528	45.74
197.747	27.31
197.966	-36.18
198.185	72.36
198.404	62.12
198.623	84.65
198.842	49.83
199.062	47.79
199.281	103.08
199.5	47.79
199.719	49.83
199.938	-32.08
200.157	53.93
200.376	152.23
200.595	39.59
200.814	60.07
201.033	-54.61
201.252	53.93
201.471	10.92
201.69	62.12
201.909	37.55
202.128	66.22
202.347	25.26
202.566	17.07
202.785	33.45
203.004	-50.52
203.223	62.12
203.442	47.79
203.661	0.68
203.879	107.18
204.098	66.22
204.317	31.4
204.536	101.03
204.755	33.45
204.974	76.46
205.193	-17.75
205.411	139.94
205.63	45.74
205.849	25.26
206.068	4.78
206.287	80.55
206.505	70.31
206.724	105.13
206.943	17.07
207.162	33.45
207.381	25.26
207.599	84.65
207.818	66.22
208.037	-5.46
208.255	19.11
208.474	33.45
208.693	96.94
208.911	35.5
209.13	31.4
209.349	-9.56
209.567	-3.41
209.786	62.12
210.005	-11.61
210.223	84.65
210.442	19.11
210.661	45.74
210.879	74.41
211.098	-7.51
211.316	35.5
211.535	6.83
211.753	90.79
211.972	21.16
212.191	-25.94
212.409	58.03
212.628	76.46
212.846	41.64
213.065	146.09
213.283	119.46
213.502	66.22
213.72	90.79
213.938	109.23
214.157	103.08
214.375	31.4
214.594	2.73
214.812	12.97
215.031	37.55
215.249	37.55
215.467	29.35
215.686	53.93
215.904	92.84
216.122	107.18
216.341	51.88
216.559	-3.41
216.778	41.64
216.996	101.03
217.214	-11.61
217.432	15.02
217.651	2.73
217.869	19.11
218.087	29.35
218.306	70.31
218.524	66.22
218.742	-3.41
218.96	15.02
219.179	113.32
219.397	10.92
219.615	80.55
219.833	80.55
220.051	-42.32
220.27	53.93
220.488	-9.56
220.706	39.59
220.924	17.07
221.142	80.55
221.36	12.97
221.578	37.55
221.796	-11.61
222.015	43.69
222.233	19.11
222.451	21.16
222.669	17.07
222.887	121.51
223.105	45.74
223.323	0.68
223.541	45.74
223.759	39.59
223.977	45.74
224.195	76.46
224.413	66.22
224.631	53.93
224.849	80.55
225.067	60.07
225.285	19.11
225.503	6.83
225.721	53.93
225.939	15.02
226.157	70.31
226.375	156.33
226.592	-48.47
226.81	-1.37
227.028	72.36
227.246	119.46
227.464	33.45
227.682	-23.89
227.9	-21.84
228.117	33.45
228.335	84.65
228.553	33.45
228.771	66.22
228.989	19.11
229.206	55.98
229.424	-3.41
229.642	-9.56
229.86	62.12
230.077	33.45
230.295	74.41
230.513	23.21
230.731	17.07
230.948	-17.75
231.166	66.22
231.384	19.11
231.601	-34.13
231.819	90.79
232.037	41.64
232.254	-27.99
232.472	4.78
232.689	-60.76
232.907	8.87
233.125	39.59
233.342	62.12
233.56	60.07
233.777	-15.7
233.995	-3.41
234.213	117.42
234.43	23.21
234.648	10.92
234.865	25.26
235.083	84.65
235.3	121.51
235.518	66.22
235.735	62.12
235.953	78.51
236.17	84.65
236.388	25.26
236.605	-44.37
236.822	96.94
237.04	49.83
237.257	37.55
237.475	-52.56
237.692	127.66
237.909	66.22
238.127	17.07
238.344	6.83
238.562	6.83
238.779	23.21
238.996	-44.37
239.214	-11.61
239.431	19.11
239.648	8.87
239.865	86.7
240.083	94.89
240.3	60.07
240.517	-48.47
240.735	2.73
240.952	45.74
241.169	37.55
241.386	15.02
241.603	74.41
241.821	66.22
242.038	39.59
242.255	41.64
242.472	-36.18
242.689	144.04
242.907	45.74
243.124	33.45
243.341	78.51
243.558	-11.61
243.775	-9.56
243.992	49.83
244.209	37.55
244.426	119.46
244.643	76.46
244.86	39.59
245.078	19.11
245.295	105.13
245.512	55.98
245.729	-25.94
245.946	84.65
246.163	-23.89
246.38	92.84
246.597	-25.94
246.814	70.31
247.031	12.97
247.248	-23.89
247.464	2.73
247.681	-3.41
247.898	82.6
248.115	111.27
248.332	113.32
248.549	146.09
248.766	49.83
248.983	103.08
249.2	23.21
249.417	98.99
249.633	-15.7
249.85	88.75
250.067	60.07
250.284	105.13
250.501	39.59
250.717	-13.65
250.934	21.16
251.151	-9.56
251.368	-5.46
251.585	60.07
251.801	-27.99
252.018	8.87
252.235	-5.46
252.451	-11.61
252.668	33.45
252.885	51.88
253.102	8.87
253.318	125.61
253.535	-48.47
253.752	80.55
253.968	39.59
254.185	-9.56
254.401	82.6
254.618	-11.61
254.835	19.11
255.051	37.55
255.268	74.41
255.484	94.89
255.701	6.83
255.917	35.5
256.134	-25.94
256.351	37.55
256.567	21.16
256.784	31.4
257	62.12
257.217	10.92
257.433	43.69
257.65	23.21
257.866	101.03
258.082	4.78
258.299	-46.42
258.515	23.21
258.732	6.83
258.948	-21.84
259.165	53.93
259.381	-1.37
259.597	66.22
259.814	-5.46
260.03	-1.37
260.246	6.83
260.463	23.21
260.679	45.74
260.895	27.31
261.112	25.26
261.328	-11.61
261.544	53.93
261.761	58.03
261.977	-48.47
262.193	-7.51
262.409	98.99
262.626	70.31
262.842	127.66
263.058	-11.61
263.274	23.21
263.49	10.92
263.707	115.37
263.923	41.64
264.139	68.27
264.355	33.45
264.571	27.31
264.787	49.83
265.004	55.98
265.22	72.36
265.436	80.55
265.652	0.68
265.868	15.02
266.084	-32.08
266.3	43.69
266.516	-25.94
266.732	51.88
266.948	-25.94
267.164	55.98
267.38	43.69
267.596	29.35
267.812	62.12
268.028	17.07
268.244	33.45
268.46	88.75
268.676	17.07
268.892	-36.18
269.108	-32.08
269.324	35.5
269.54	105.13
269.756	129.7
269.972	19.11
270.188	90.79
270.403	-25.94
270.619	35.5
270.835	47.79
271.051	103.08
271.267	23.21
271.483	76.46
271.698	6.83
271.914	78.51
272.13	103.08
272.346	101.03
272.562	4.78
272.777	-3.41
272.993	4.78
273.209	-58.71
273.425	111.27
273.64	29.35
273.856	80.55
274.072	8.87
274.287	94.89
274.503	86.7
274.719	27.31
274.934	62.12
275.15	-7.51
275.366	76.46
275.581	55.98
275.797	55.98
276.012	60.07
276.228	6.83
276.444	35.5
276.659	51.88
276.875	58.03
277.09	-3.41
277.306	35.5
277.521	6.83
277.737	6.83
277.952	6.83
278.168	55.98
278.383	55.98
278.599	15.02
278.814	64.17
279.03	62.12
279.245	53.93
279.461	-25.94
279.676	84.65
279.892	-46.42
280.107	43.69
280.322	-15.7
280.538	76.46
280.753	19.11
280.969	2.73
281.184	53.93
281.399	55.98
281.615	23.21
281.83	47.79
282.045	-13.65
282.26	-25.94
282.476	45.74
282.691	53.93
282.906	0.68
283.122	29.35
283.337	74.41
283.552	4.78
283.767	62.12
283.983	4.78
284.198	49.83
284.413	58.03
284.628	27.31
284.843	78.51
285.058	51.88
285.274	62.12
285.489	33.45
285.704	141.99
285.919	43.69
286.134	15.02
286.349	-1.37
286.564	88.75
286.779	123.56
286.995	33.45
287.21	6.83
287.425	60.07
287.64	10.92
287.855	47.79
288.07	27.31
288.285	98.99
288.5	88.75
288.715	31.4
288.93	43.69
289.145	41.64
289.36	45.74
289.575	-15.7
289.79	92.84
290.004	82.6
290.219	51.88
290.434	60.07
290.649	74.41
290.864	-3.41
291.079	17.07
291.294	41.64
291.509	43.69
291.724	25.26
291.938	15.02
292.153	78.51
292.368	-36.18
292.583	60.07
292.798	74.41
293.012	68.27
293.227	101.03
293.442	0.68
293.657	62.12
293.871	66.22
294.086	0.68
294.301	64.17
294.516	113.32
294.73	98.99
294.945	2.73
295.16	121.51
295.374	105.13
295.589	-3.41
295.804	55.98
296.018	78.51
296.233	43.69
296.447	-27.99
296.662	-66.9
296.877	88.75
297.091	41.64
297.306	23.21
297.52	53.93
297.735	68.27
297.949	41.64
298.164	6.83
298.378	25.26
298.593	31.4
298.807	49.83
299.022	45.74
299.236	47.79
299.451	78.51
299.665	37.55
299.88	-21.84
300.094	37.55
300.309	53.93
300.523	60.07
300.737	23.21
300.952	-32.08
301.166	55.98
301.381	4.78
301.595	-13.65
301.809	43.69
302.024	12.97
302.238	-48.47
302.452	58.03
302.667	10.92
302.881	80.55
303.095	66.22
303.309	111.27
303.524	80.55
303.738	70.31
303.952	45.74
304.166	111.27
304.381	-46.42
304.595	86.7
304.809	76.46
305.023	68.27
305.237	37.55
305.452	-13.65
305.666	88.75
305.88	31.4
306.094	58.03
306.308	68.27
306.522	90.79
306.736	47.79
306.95	31.4
307.164	-13.65
307.379	31.4
307.593	96.94
307.807	160.42
308.021	33.45
308.235	96.94
308.449	41.64
308.663	-23.89
308.877	84.65
309.091	-7.51
309.305	70.31
309.519	-58.71
309.733	94.89
309.947	10.92
310.161	2.73
310.374	6.83
310.588	113.32
310.802	6.83
311.016	25.26
311.23	45.74
311.444	80.55
311.658	98.99
311.872	217.77
312.085	90.79
312.299	88.75
312.513	113.32
312.727	66.22
312.941	21.16
313.154	66.22
313.368	58.03
313.582	78.51
313.796	58.03
314.009	94.89
314.223	70.31
314.437	121.51
314.651	68.27
314.864	21.16
315.078	43.69
315.292	66.22
315.505	29.35
315.719	47.79
315.933	78.51
316.146	-9.56
316.36	-48.47
316.573	21.16
316.787	80.55
317.001	60.07
317.214	-68.95
317.428	72.36
317.641	12.97
317.855	-25.94
318.068	82.6
318.282	37.55
318.495	96.94
318.709	37.55
318.922	-5.46
319.136	55.98
319.349	60.07
319.563	76.46
319.776	19.11
319.99	-21.84
320.203	15.02
320.417	23.21
320.63	53.93
320.843	80.55
321.057	53.93
321.27	23.21
321.483	6.83
321.697	80.55
321.91	68.27
322.124	68.27
322.337	43.69
322.55	-3.41
322.763	25.26
322.977	8.87
323.19	-11.61
323.403	27.31
323.617	17.07
323.83	129.7
324.043	72.36
324.256	80.55
324.469	88.75
324.683	-21.84
324.896	70.31
325.109	37.55
325.322	-71
325.535	94.89
325.748	-36.18
325.962	2.73
326.175	-15.7
326.388	80.55
326.601	47.79
326.814	-3.41
327.027	25.26
327.24	92.84
327.453	10.92
327.666	107.18
327.879	103.08
328.092	96.94
328.305	74.41
328.518	29.35
328.731	31.4
328.944	117.42
329.157	80.55
329.37	15.02
329.583	82.6
329.796	74.41
330.009	45.74
330.222	31.4
330.435	68.27
330.648	53.93
330.861	43.69
331.073	117.42
331.286	49.83
331.499	117.42
331.712	29.35
331.925	39.59
332.138	19.11
332.35	45.74
332.563	10.92
332.776	80.55
332.989	2.73
333.202	55.98
333.414	-36.18
333.627	88.75
333.84	6.83
334.053	78.51
334.265	19.11
334.478	29.35
334.691	-1.37
334.903	41.64
335.116	60.07
335.329	115.37
335.541	101.03
335.754	41.64
335.966	33.45
336.179	31.4
336.392	92.84
336.604	31.4
336.817	82.6
337.029	45.74
337.242	-15.7
337.454	12.97
337.667	37.55
337.88	31.4
338.092	86.7
338.305	29.35
338.517	2.73
338.729	25.26
338.942	90.79
339.154	8.87
339.367	101.03
339.579	80.55
339.792	53.93
340.004	0.68
340.217	-58.71
340.429	-13.65
340.641	8.87
340.854	-40.28
341.066	84.65
341.278	-30.04
341.491	94.89
341.703	82.6
341.915	90.79
342.128	72.36
342.34	47.79
342.552	66.22
342.764	-9.56
342.977	6.83
343.189	27.31
343.401	-11.61
343.613	125.61
343.826	25.26
344.038	68.27
344.25	88.75
344.462	2.73
344.674	101.03
344.886	-23.89
345.099	53.93
345.311	74.41
345.523	45.74
345.735	-15.7
345.947	47.79
346.159	62.12
346.371	45.74
346.583	74.41
346.795	37.55
347.007	31.4
347.219	135.85
347.431	-38.23
347.643	37.55
347.855	-7.51
348.067	27.31
348.279	-21.84
348.491	68.27
348.703	29.35
348.915	-1.37
349.127	94.89
349.339	96.94
349.551	-1.37
349.763	43.69
349.975	49.83
350.187	41.64
350.399	-5.46
350.61	60.07
350.822	41.64
351.034	64.17
351.246	-21.84
351.458	121.51
351.669	33.45
351.881	131.75
352.093	49.83
352.305	86.7
352.517	31.4
352.728	117.42
352.94	80.55
353.152	62.12
353.363	12.97
353.575	105.13
353.787	117.42
353.999	23.21
354.21	49.83
354.422	39.59
354.633	51.88
354.845	19.11
355.057	70.31
355.268	113.32
355.48	62.12
355.692	10.92
355.903	78.51
356.115	35.5
356.326	35.5
356.538	107.18
356.749	94.89
356.961	60.07
357.172	2.73
357.384	12.97
357.595	133.8
357.807	78.51
358.018	37.55
358.23	41.64
358.441	125.61
358.653	123.56
358.864	90.79
359.075	0.68
359.287	121.51
359.498	62.12
359.709	51.88
359.921	19.11
360.132	10.92
360.344	2.73
360.555	12.97
360.766	43.69
360.977	64.17
361.189	19.11
361.4	-3.41
361.611	-11.61
361.823	103.08
362.034	84.65
362.245	17.07
362.456	-17.75
362.667	70.31
362.879	80.55
363.09	64.17
363.301	94.89
363.512	2.73
363.723	37.55
363.935	6.83
364.146	66.22
364.357	31.4
364.568	133.8
364.779	39.59
364.99	29.35
365.201	15.02
365.412	107.18
365.623	25.26
365.834	127.66
366.045	82.6
366.256	41.64
366.467	64.17
366.678	80.55
366.889	88.75
367.1	115.37
367.311	96.94
367.522	21.16
367.733	78.51
367.944	105.13
368.155	10.92
368.366	76.46
368.577	101.03
368.788	168.62
368.999	62.12
369.209	-9.56
369.42	127.66
369.631	41.64
369.842	74.41
370.053	66.22
370.264	55.98
370.474	80.55
370.685	31.4
370.896	109.23
371.107	72.36
371.317	4.78
371.528	35.5
371.739	-3.41
371.95	92.84
372.16	109.23
372.371	-3.41
372.582	92.84
372.792	105.13
373.003	35.5
373.214	129.7
373.424	12.97
373.635	33.45
373.846	43.69
374.056	41.64
374.267	80.55
374.477	27.31
374.688	55.98
374.898	70.31
375.109	43.69
375.319	98.99
375.53	113.32
375.74	37.55
375.951	25.26
376.161	25.26
376.372	137.9
376.582	35.5
376.793	82.6
377.003	10.92
377.214	-17.75
377.424	15.02
377.635	53.93
377.845	43.69
378.055	98.99
378.266	60.07
378.476	45.74
378.686	31.4
378.897	19.11
379.107	105.13
379.317	74.41
379.528	51.88
379.738	78.51
379.948	33.45
380.158	96.94
380.369	33.45
380.579	72.36
380.789	72.36
380.999	45.74
381.21	156.33
381.42	80.55
381.63	60.07
381.84	8.87
382.05	84.65
382.261	12.97
382.471	166.57
382.681	60.07
382.891	125.61
383.101	43.69
383.311	15.02
383.521	27.31
383.731	98.99
383.941	58.03
384.151	84.65
384.361	39.59
384.571	119.46
384.781	107.18
384.991	121.51
385.201	111.27
385.411	39.59
385.621	86.7
385.831	76.46
386.041	98.99
386.251	21.16
386.461	103.08
386.671	137.9
386.881	109.23
387.091	-9.56
387.301	29.35
387.511	72.36
387.72	144.04
387.93	101.03
388.14	84.65
388.35	119.46
388.56	76.46
388.769	101.03
388.979	88.75
389.189	15.02
389.399	78.51
389.609	58.03
389.818	68.27
390.028	6.83
390.238	92.84
390.447	82.6
390.657	86.7
390.867	21.16
391.076	33.45
391.286	66.22
391.496	84.65
391.705	51.88
391.915	86.7
392.125	121.51
392.334	62.12
392.544	174.76
392.753	51.88
392.963	-13.65
393.172	72.36
393.382	43.69
393.591	76.46
393.801	60.07
394.01	137.9
394.22	164.52
394.429	94.89
394.639	127.66
394.848	78.51
395.058	123.56
395.267	96.94
395.477	123.56
395.686	123.56
395.895	33.45
396.105	105.13
396.314	94.89
396.524	88.75
396.733	146.09
396.942	96.94
397.152	164.52
397.361	82.6
397.57	96.94
397.78	119.46
397.989	189.1
398.198	170.66
398.407	49.83
398.617	119.46
398.826	215.72
399.035	53.93
399.244	191.14
399.453	160.42
399.663	129.7
399.872	109.23
400.081	109.23
400.29	125.61
400.499	156.33
400.708	141.99
400.917	172.71
401.127	115.37
401.336	115.37
401.545	223.91
401.754	82.6
401.963	98.99
402.172	137.9
402.381	47.79
402.59	148.14
402.799	123.56
403.008	174.76
403.217	131.75
403.426	121.51
403.635	88.75
403.844	150.18
404.053	74.41
404.262	144.04
404.471	230.06
404.68	182.95
404.888	133.8
405.097	121.51
405.306	170.66
405.515	191.14
405.724	150.18
405.933	101.03
406.142	236.2
406.35	160.42
406.559	215.72
406.768	219.82
406.977	254.63
407.185	135.85
407.394	209.58
407.603	189.1
407.812	236.2
408.02	228.01
408.229	211.62
408.438	303.78
408.646	154.28
408.855	258.73
409.064	240.3
409.272	295.59
409.481	307.88
409.69	334.5
409.898	246.44
410.107	338.6
410.315	408.23
410.524	348.84
410.733	332.45
410.941	318.12
411.15	385.7
411.358	414.37
411.567	395.94
411.775	363.17
411.984	350.89
412.192	424.61
412.401	416.42
412.609	529.06
412.818	438.95
413.026	537.25
413.234	475.81
413.443	592.55
413.651	545.44
413.86	549.54
414.068	680.61
414.276	572.07
414.485	678.56
414.693	629.41
414.901	676.51
415.11	717.47
415.318	709.28
415.526	707.23
415.734	803.49
415.943	766.62
416.151	776.86
416.359	901.79
416.567	836.25
416.776	885.41
416.984	950.94
417.192	1088.15
417.4	1094.3
417.608	1075.87
417.817	1012.38
418.025	1168.02
418.233	1247.9
418.441	1155.74
418.649	1237.66
418.857	1284.76
419.065	1338.01
419.273	1264.28
419.481	1342.1
419.689	1495.7
419.897	1520.28
420.105	1454.74
420.313	1671.83
420.521	1649.3
420.729	1610.39
420.937	1737.36
421.145	1743.5
421.353	1811.09
421.561	2046.6
421.769	1936.01
421.977	2071.18
422.185	1985.16
422.393	2144.91
422.601	2499.2
422.809	2337.41
423.017	2398.85
423.224	2472.58
423.432	2552.45
423.64	2448.01
423.848	2830.98
424.056	2622.08
424.263	2896.51
424.471	2880.13
424.679	3009.15
424.887	3144.31
425.094	3259
425.302	3310.2
425.51	3312.25
425.718	3457.65
425.925	3609.2
426.133	3699.31
426.341	3875.44
426.548	4049.52
426.756	3986.03
426.964	3986.03
427.171	4330.09
427.379	4395.62
427.586	4506.21
427.794	4592.23
428.001	4878.94
428.209	4858.46
428.417	4794.98
428.624	5374.55
428.832	5261.91
429.039	5263.96
429.247	5249.63
429.454	5816.91
429.662	6187.6
429.869	5798.48
430.076	6122.06
430.284	5900.88
430.491	6367.82
430.699	6541.89
430.906	6537.8
431.114	6640.2
431.321	6877.76
431.528	7238.2
431.736	7512.63
431.943	7782.96
432.15	7823.92
432.358	7713.33
432.565	8196.65
432.772	8041.01
432.979	8774.18
433.187	8710.69
433.394	8753.7
433.601	9196.06
433.808	9615.9
434.016	9490.97
434.223	9796.12
434.43	10162.7
434.637	10148.37
434.844	10734.09
435.052	10996.23
435.259	10732.04
435.466	11014.66
435.673	10686.98
435.88	11667.96
436.087	11903.48
436.294	12378.61
436.501	12171.76
436.708	12055.03
436.915	12593.64
437.122	13234.66
437.329	12976.61
437.537	13355.49
437.743	13906.39
437.95	13779.42
438.157	14217.68
438.364	14754.25
438.571	14776.78
438.778	14696.91
438.985	16497.07
439.192	15614.4
439.399	16103.86
439.606	15985.08
439.813	16982.44
440.02	17670.56
440.227	17555.87
440.433	17213.86
440.64	17858.97
440.847	17697.18
441.054	18121.11
441.261	19370.37
441.467	19077.51
441.674	19335.56
441.881	20087.16
442.088	20212.09
442.294	20083.06
442.501	20724.08
442.708	20892.01
442.914	21797.21
443.121	22835.53
443.328	22116.7
443.534	23454.02
443.741	22860.11
443.948	22597.97
444.154	24086.84
444.361	24111.42
444.568	24449.33
444.774	24299.83
444.981	24654.13
445.187	25329.96
445.394	26491.16
445.6	26093.85
445.807	28561.65
446.013	27031.82
446.22	27961.6
446.426	28782.84
446.633	29151.47
446.839	30212.32
447.046	28905.71
447.252	30447.83
447.459	30492.89
447.665	30769.37
447.871	32051.39
448.078	32950.45
448.284	31727.81
448.491	32547
448.697	33904.81
448.903	34345.12
449.11	34547.87
449.316	33958.05
449.522	34381.98
449.728	35235.99
449.935	35713.16
450.141	35774.6
450.347	36739.19
450.553	35719.31
450.76	35758.22
450.966	37009.53
451.172	36538.49
451.378	37474.41
451.584	36726.91
451.791	37771.37
451.997	37546.09
452.203	38254.69
452.409	38527.07
452.615	37879.91
452.821	36649.08
453.027	36337.79
453.233	38097
453.44	36716.67
453.646	37038.2
453.852	37539.95
454.058	37800.04
454.264	36843.64
454.47	37781.61
454.676	36675.71
454.882	37933.16
455.088	34685.08
455.294	35149.97
455.5	35766.41
455.705	36032.64
455.911	34451.61
456.117	33951.91
456.323	33642.67
456.529	32065.73
456.735	32968.88
456.941	32190.66
457.147	31752.39
457.352	30933.2
457.558	30546.14
457.764	30705.88
457.97	30218.46
458.176	29815.01
458.381	29550.82
458.587	27771.14
458.793	28010.75
458.999	26095.9
459.204	28604.66
459.41	27801.86
459.616	25993.5
459.821	25813.28
460.027	25729.31
460.233	25006.38
460.438	23933.25
460.644	24015.16
460.85	23218.5
461.055	22929.74
461.261	22786.38
461.466	21111.14
461.672	20207.99
461.878	21936.48
462.083	20484.47
462.289	19853.69
462.494	19870.08
462.7	18772.36
462.905	18346.39
463.111	19034.5
463.316	19083.66
463.522	18811.28
463.727	18979.21
463.932	18735.5
464.138	18477.46
464.343	18731.4
464.549	17961.37
464.754	18524.56
464.959	18243.99
465.165	18344.34
465.37	17602.97
465.575	17021.35
465.781	17791.39
465.986	17967.51
466.191	17332.64
466.397	17045.93
466.602	16224.69
466.807	16648.62
467.012	16839.08
467.218	16599.47
467.423	16349.62
467.628	16507.31
467.833	17387.94
468.038	16744.88
468.244	16112.05
468.449	16847.27
468.654	16200.12
468.859	16019.89
469.064	16148.92
469.269	15440.32
469.474	15557.05
469.679	15985.08
469.885	15333.82
470.09	15528.38
470.295	15526.33
470.5	15004.1
470.705	15104.45
470.91	14997.96
471.115	14780.87
471.32	15057.35
471.525	14844.36
471.73	14686.67
471.935	14522.83
472.139	13976.02
472.344	14305.74
472.549	14021.08
472.754	14051.8
472.959	13754.84
473.164	13423.07
473.369	13281.76
473.574	13674.97
473.778	13414.88
473.983	13392.35
474.188	13205.99
474.393	12810.73
474.598	12728.81
474.802	12409.33
475.007	12577.26
475.212	12675.56
475.417	12098.03
475.621	12179.95
475.826	12182
476.031	11799.03
476.235	11624.95
476.44	11952.63
476.645	11467.26
476.849	11547.13
477.054	11639.29
477.259	11301.37
477.463	11352.57
477.668	10942.98
477.872	11117.06
478.077	11160.06
478.282	10664.46
478.486	10748.42
478.691	10441.23
478.895	10582.54
479.1	10510.86
479.304	10488.33
479.509	10121.74
479.713	10459.66
479.918	10170.9
480.122	10226.19
480.326	10191.38
480.531	10138.13
480.735	9916.95
480.94	9902.61
481.144	10183.18
481.348	9832.98
481.553	9857.56
481.757	9630.23
481.961	9822.74
482.166	9904.66
482.37	9824.79
482.574	9703.96
482.778	9718.29
482.983	9751.06
483.187	9703.96
483.391	9837.08
483.595	9716.25
483.8	9832.98
484.004	9792.02
484.208	9789.97
484.412	9515.55
484.616	9679.38
484.821	9906.71
485.025	9585.18
485.229	9689.62
485.433	9738.77
485.637	9822.74
485.841	9507.35
486.045	9726.49
486.249	9744.92
486.453	9595.42
486.657	9566.74
486.861	9859.6
487.065	9579.03
487.269	9693.72
487.473	9601.56
487.677	9839.12
487.881	9701.91
488.085	9671.19
488.289	9687.57
488.493	9714.2
488.697	9896.47
488.901	9732.63
489.105	9777.69
489.309	9835.03
489.512	9832.98
489.716	9818.64
489.92	10031.63
490.124	9697.81
490.328	10023.44
490.531	9886.23
490.735	9919
490.939	9908.76
491.143	10031.63
491.346	10052.11
491.55	10191.38
491.754	10181.14
491.958	10107.41
492.161	10250.77
492.365	10244.62
492.569	10177.04
492.772	10332.69
492.976	10355.21
493.18	10383.88
493.383	10213.9
493.587	10406.41
493.79	10891.78
493.994	10385.93
494.197	10603.02
494.401	10805.77
494.605	10766.85
494.808	10869.25
495.012	10924.55
495.215	11010.56
495.419	11047.43
495.622	10918.4
495.825	11377.15
496.029	11069.95
496.232	11483.64
496.436	11452.92
496.639	11788.79
496.843	11653.62
497.046	11659.77
497.249	11751.93
497.453	12028.4
497.656	12214.77
497.859	12075.51
498.063	12440.04
498.266	12648.94
498.469	12622.31
498.673	12726.76
498.876	12655.08
499.079	12827.11
499.282	12732.9
499.485	13050.34
499.689	13496.8
499.892	13361.63
500.095	13273.57
500.298	13775.32
500.501	13480.41
500.705	14066.13
500.908	14213.59
501.111	14045.65
501.314	14258.64
501.517	14574.03
501.72	14692.81
501.923	14678.47
502.126	15118.79
502.329	15274.43
502.532	15374.78
502.735	15286.72
502.938	15864.25
503.141	15772.09
503.344	15978.93
503.547	15950.26
503.75	16208.31
503.953	16386.48
504.156	16574.89
504.359	16961.96
504.562	16867.75
504.765	17394.08
504.968	17107.37
505.17	17240.48
505.373	17506.72
505.576	18119.06
505.779	18104.73
505.982	18033.05
506.185	18542.99
506.387	18438.55
506.59	18901.39
506.793	18966.92
506.996	18962.83
507.198	19480.96
507.401	19345.8
507.604	19478.91
507.807	19954.04
508.009	20062.58
508.212	20175.22
508.415	20531.57
508.617	20668.78
508.82	20484.47
509.022	20595.06
509.225	21389.67
509.428	21262.69
509.63	21600.61
509.833	21385.57
510.035	22407.51
510.238	21901.66
510.44	22290.77
510.643	22845.77
510.845	22851.92
511.048	22634.83
511.25	23005.52
511.453	23368.01
511.655	24088.89
511.858	23800.13
512.06	24004.92
512.262	24457.53
512.465	24242.49
512.667	24557.88
512.87	24760.62
513.072	24688.95
513.274	25370.92
513.477	25407.78
513.679	25878.82
513.881	25921.82
514.084	26249.5
514.286	26224.92
514.488	26401.05
514.69	27224.33
514.893	26997.01
515.095	27117.84
515.297	27494.66
515.499	27164.94
515.701	27795.71
515.904	27879.68
516.106	27971.84
516.308	28709.11
516.51	28678.39
516.712	28489.98
516.914	28836.08
517.116	29235.44
517.318	29716.71
517.52	29878.5
517.722	29886.69
517.925	30001.38
518.127	30609.62
518.329	30871.76
518.531	30634.2
518.733	30632.15
518.935	31015.12
519.136	31103.18
519.338	31695.05
519.54	31809.73
519.742	32114.88
519.944	32266.43
520.146	33026.23
520.348	32676.02
520.55	32870.58
520.752	33087.67
520.954	33716.39
521.155	33595.56
521.357	34125.99
521.559	34107.55
521.761	34304.16
521.963	34295.97
522.164	34427.04
522.366	34637.98
522.568	35281.04
522.77	35012.76
522.971	35854.47
523.173	35119.25
523.375	35489.93
523.576	35598.48
523.778	35676.3
523.98	36155.52
524.181	36384.9
524.383	36464.77
524.584	36595.84
524.786	36687.99
524.988	36477.05
525.189	36677.75
525.391	37036.15
525.592	37314.67
525.794	37267.57
525.995	37773.42
526.197	37433.46
526.398	37666.92
526.6	37924.97
526.801	38094.95
527.003	37861.48
527.204	38203.49
527.406	38594.65
527.607	38293.6
527.808	38500.45
528.01	37795.95
528.211	38596.7
528.412	39028.82
528.614	38875.23
528.815	39110.74
529.016	39364.69
529.218	38932.57
529.419	39075.93
529.62	39082.07
529.822	38729.82
530.023	39247.96
530.224	39442.51
530.425	39557.2
530.626	38912.09
530.828	39141.46
531.029	39424.08
531.23	39368.79
531.431	39606.35
531.632	40022.09
531.833	39782.48
532.035	39376.98
532.236	39921.74
532.437	39686.22
532.638	39417.94
532.839	40104.01
533.04	39940.17
533.241	39604.3
533.442	40282.18
533.643	39854.15
533.844	39848.01
534.045	39946.31
534.246	39434.32
534.447	39968.84
534.648	39993.42
534.849	40026.18
535.05	39718.99
535.251	40317
535.451	39538.77
535.652	39944.27
535.853	39831.63
536.054	39944.27
536.255	40022.09
536.456	39436.37
536.657	40003.66
536.857	39700.56
537.058	39716.94
537.259	40022.09
537.46	40230.98
537.66	39712.84
537.861	40081.48
538.062	39823.43
538.263	39704.65
538.463	39704.65
538.664	39446.61
538.865	39571.53
539.065	40237.12
539.266	39311.44
539.466	40052.81
539.667	39499.86
539.868	40212.55
540.068	39594.06
540.269	39542.86
540.469	39821.39
540.67	39465.04
540.87	39446.61
541.071	39678.03
541.271	39635.02
541.472	39399.51
541.672	39239.76
541.873	39704.65
542.073	39059.54
542.274	39823.43
542.474	39336.02
542.675	39266.39
542.875	40126.53
543.075	39501.9
543.276	39059.54
543.476	39673.93
543.676	39467.09
543.877	39635.02
544.077	40038.47
544.277	39354.45
544.478	39004.25
544.678	39497.81
544.878	39553.1
545.078	39170.13
545.279	39020.63
545.479	39024.73
545.679	39370.83
545.879	39290.96
546.079	39086.17
546.28	39061.59
546.48	39325.78
546.68	39311.44
546.88	39258.2
547.08	39037.01
547.28	39256.15
547.48	38985.82
547.68	39268.44
547.88	38715.48
548.081	38668.38
548.281	39184.47
548.481	38994.01
548.681	39393.36
548.881	39004.25
549.081	38830.17
549.28	38936.66
549.48	38955.1
549.68	38631.52
549.88	39331.92
550.08	38885.47
550.28	38991.96
550.48	38918.23
550.68	39497.81
550.88	38611.04
551.08	38989.91
551.279	39082.07
551.479	38588.51
551.679	39139.41
551.879	38660.19
552.079	39030.87
552.278	38713.44
552.478	39034.97
552.678	38899.8
552.878	39049.3
553.077	38633.57
553.277	38322.27
553.477	39268.44
553.676	38357.09
553.876	38862.94
554.076	38477.92
554.275	38475.87
554.475	38092.9
554.674	38531.17
554.874	38324.32
555.074	38846.55
555.273	38393.95
555.473	38770.78
555.672	38326.37
555.872	38445.15
556.071	38441.06
556.271	38635.61
556.47	38334.56
556.67	37888.1
556.869	37924.97
557.068	38082.66
557.268	38137.96
557.467	38492.26
557.667	37855.34
557.866	38350.95
558.065	38017.13
558.265	37953.64
558.464	37597.29
558.663	38219.88
558.863	37425.26
559.062	37918.82
559.261	37918.82
559.461	38025.32
559.66	37542
559.859	37531.76
560.058	37468.27
560.258	37656.68
560.457	37259.38
560.656	37689.45
560.855	37230.71
561.054	37429.36
561.253	37398.64
561.453	37230.71
561.652	37494.89
561.851	37613.68
562.05	37671.02
562.249	37126.26
562.448	37501.04
562.647	37333.1
562.846	36999.29
563.045	37142.64
563.244	36708.47
563.443	37470.32
563.642	36577.4
563.841	36569.21
564.04	36634.75
564.239	37017.72
564.438	36475.01
564.637	37068.92
564.836	37038.2
565.035	36184.19
565.234	36581.5
565.432	36483.2
565.631	36655.23
565.83	36470.91
566.029	35983.49
566.228	36327.55
566.427	36280.45
566.625	35885.19
566.824	35903.62
567.023	36057.22
567.222	35602.57
567.42	36135.04
567.619	36044.93
567.818	35725.45
568.016	35641.48
568.215	36264.07
568.414	35858.57
568.612	36003.97
568.811	35772.55
569.01	35754.12
569.208	35389.58
569.407	35448.97
569.605	35268.75
569.804	35573.9
570.002	35192.98
570.201	35358.86
570.4	34883.73
570.598	34916.5
570.797	34877.59
570.995	34990.23
571.193	34545.82
571.392	35211.41
571.59	34592.92
571.789	34640.03
571.987	34574.49
572.186	34480.28
572.384	34488.48
572.582	34551.96
572.781	34627.74
572.979	33808.55
573.177	34138.27
573.376	34298.02
573.574	34134.18
573.772	34166.95
573.971	33833.13
574.169	34119.84
574.367	33568.94
574.565	34070.69
574.763	33849.51
574.962	33558.7
575.16	33466.54
575.358	33564.84
575.556	33267.89
575.754	33652.91
575.952	33458.35
576.151	33577.13
576.349	33218.74
576.547	32999.6
576.745	33484.97
576.943	33247.41
577.141	33239.22
577.339	32983.22
577.537	33095.86
577.735	32694.46
577.933	32342.21
578.131	32628.92
578.329	32516.28
578.527	32321.73
578.725	32487.61
578.923	32692.41
579.121	32639.16
579.319	32141.5
579.516	32553.15
579.714	32288.96
579.912	31815.88
580.11	32045.25
580.308	32024.77
580.506	31998.15
580.704	31451.34
580.901	31789.25
581.099	31938.76
581.297	31770.82
581.495	31549.64
581.692	31699.14
581.89	31484.11
582.088	31725.77
582.285	31135.95
582.483	31475.91
582.681	31465.67
582.878	31240.4
583.076	30802.13
583.274	31320.27
583.471	30574.81
583.669	30892.24
583.866	30892.24
584.064	31060.18
584.262	30048.48
584.459	30730.45
584.657	30537.94
584.854	30712.02
585.052	29888.74
585.249	30068.96
585.447	30609.62
585.644	29984.99
585.841	30120.16
586.039	30228.7
586.236	29847.78
586.434	29710.57
586.631	29606.12
586.828	29690.09
587.026	29630.69
587.223	29530.34
587.42	29540.58
587.618	29397.23
587.815	29100.27
588.012	29360.36
588.21	29249.77
588.407	29343.98
588.604	29026.54
588.801	28897.52
588.999	29051.12
589.196	28938.48
589.393	28709.11
589.59	28909.81
589.787	28283.13
589.984	28467.45
590.182	28348.67
590.379	28774.64
590.576	27908.35
590.773	28334.33
590.97	27998.46
591.167	28078.33
591.364	28061.95
591.561	28199.16
591.758	27808
591.955	27732.23
592.152	27631.88
592.349	27590.92
592.546	27842.82
592.743	27597.06
592.94	27271.43
593.137	27410.7
593.334	27537.67
593.531	26896.66
593.727	27388.17
593.924	27142.41
594.121	26745.11
594.318	27011.34
594.515	26614.04
594.712	27029.77
594.908	26650.9
595.105	26636.56
595.302	26048.8
595.499	26439.96
595.696	26405.14
595.892	26122.52
596.089	26708.24
596.286	26001.69
596.482	26202.39
596.679	26315.03
596.876	26044.7
597.072	25563.43
597.269	25993.5
597.466	25454.89
597.662	25686.31
597.859	25723.17
598.055	25649.44
598.252	25415.97
598.448	25612.58
598.645	25205.03
598.841	24822.06
599.038	25100.59
599.234	25424.17
599.431	24951.09
599.627	24762.67
599.824	25014.57
600.02	24705.33
600.217	24568.12
600.413	24793.39
600.609	24785.2
600.806	24541.49
601.002	24469.81
601.198	24410.42
601.395	24158.52
601.591	24320.31
601.787	24049.98
601.984	24389.94
602.18	24342.84
602.376	24035.64
602.572	23601.47
602.769	23982.4
602.965	23583.04
603.161	23646.53
603.357	23468.36
603.553	23505.22
603.75	23703.87
603.946	23288.14
604.142	23294.28
604.338	22976.84
604.534	23288.14
604.73	23257.42
604.926	22991.18
605.122	23179.59
605.318	22853.97
605.514	22923.6
605.71	22849.87
605.906	22856.01
606.102	22722.9
606.298	22819.15
606.494	22704.46
606.69	22806.86
606.886	22813.01
607.082	22290.77
607.278	22524.24
607.474	22397.27
607.67	22225.24
607.866	21907.8
608.062	22239.58
608.257	22573.39
608.453	22235.48
608.649	22413.65
608.845	21971.29
609.041	21983.58
609.236	22147.42
609.432	21643.62
609.628	22233.43
609.824	21807.45
610.019	21690.72
610.215	21213.54
610.411	21832.03
610.606	21393.76
610.802	21569.89
610.998	21352.8
611.193	21594.47
611.389	21608.8
611.584	21465.44
611.78	21137.77
611.976	21313.89
612.171	21354.85
612.367	21358.95
612.562	20996.46
612.758	21105
612.953	21268.84
613.149	21514.59
613.344	20998.51
613.539	21383.52
613.735	21266.79
613.93	21244.26
614.126	20773.23
614.321	21313.89
614.517	21123.43
614.712	21031.27
614.907	21016.94
615.103	20885.87
615.298	20556.15
615.493	21074.28
615.688	20566.38
615.884	20646.26
616.079	20523.38
616.274	20660.59
616.47	20578.67
616.665	20502.9
616.86	20377.97
617.055	20498.8
617.25	20087.16
617.445	20205.94
617.641	19999.1
617.836	20142.46
618.031	20195.7
618.226	20154.74
618.421	19962.23
618.616	20304.24
618.811	19730.81
619.006	20083.06
619.201	19681.66
619.396	19913.08
619.591	19501.44
619.786	19431.81
619.981	19280.26
620.176	19771.77
620.371	19442.05
620.566	19329.41
620.761	19042.7
620.956	19229.06
621.151	18946.44
621.346	19149.19
621.541	18618.77
621.735	19001.74
621.93	18512.27
622.125	18631.05
622.32	18624.91
622.515	18573.71
622.709	18233.75
622.904	18368.91
623.099	18495.89
623.294	18063.77
623.488	18010.52
623.683	17930.65
623.878	17732
624.072	17549.73
624.267	17684.89
624.462	17574.3
624.656	17318.31
624.851	17265.06
625.046	17336.74
625.24	17250.72
625.435	17113.51
625.629	17019.3
625.824	17060.26
626.018	16964.01
626.213	16503.21
626.407	16464.3
626.602	16314.8
626.796	16482.74
626.991	16263.6
627.185	16138.68
627.38	16200.12
627.574	16093.62
627.768	16308.66
627.963	16011.7
628.157	15817.15
628.352	15694.27
628.546	15425.98
628.74	15397.31
628.935	15561.15
629.129	15700.41
629.323	15327.68
629.517	15376.83
629.712	15466.94
629.906	15268.29
630.1	15077.83
630.294	15014.34
630.489	14805.45
630.683	14733.77
630.877	14707.15
631.071	14762.44
631.265	14899.66
631.459	14342.61
631.653	14721.48
631.848	14225.87
632.042	14229.97
632.236	14172.63
632.43	14152.15
632.624	13984.21
632.818	14090.71
633.012	14086.61
633.206	13750.74
633.4	14062.04
633.594	13701.59
633.788	13724.12
633.982	13799.9
634.176	13763.03
634.369	13621.72
634.563	13601.24
634.757	13535.71
634.951	13365.73
635.145	12925.41
635.339	13298.14
635.533	12947.94
635.726	13162.98
635.92	12892.65
636.114	12890.6
636.308	12685.8
636.501	12835.3
636.695	12833.25
636.889	12399.09
637.083	12663.27
637.276	12603.88
637.47	12251.63
637.664	12411.37
637.857	12397.04
638.051	12394.99
638.244	12085.75
638.438	12167.67
638.632	12077.55
638.825	11895.29
639.019	11837.94
639.212	11971.06
639.406	11655.67
639.599	11753.98
639.793	11733.5
639.986	11485.69
640.18	11510.27
640.373	11692.54
640.567	11299.33
640.76	11684.34
640.954	11422.2
641.147	11375.1
641.34	11379.2
641.534	11282.94
641.727	11010.56
641.92	11309.57
642.114	10992.13
642.307	10988.03
642.5	10793.48
642.694	10856.97
642.887	10664.46
643.08	10879.49
643.273	10777.09
643.467	10781.19
643.66	10633.74
643.853	10729.99
644.046	10392.08
644.239	10256.91
644.432	10463.76
644.626	10234.38
644.819	10295.82
645.012	10209.81
645.205	10359.31
645.398	10189.33
645.591	9880.08
645.784	10226.19
645.977	10064.4
646.17	9783.83
646.363	9841.17
646.556	9828.88
646.749	9679.38
646.942	9916.95
647.135	9636.38
647.328	9650.71
647.521	9513.5
647.714	9452.06
647.907	9658.9
648.099	9402.91
648.292	9501.21
648.485	9257.5
648.678	9095.71
648.871	9062.94
649.064	9169.44
649.256	9290.27
649.449	9161.25
649.642	8958.5
649.835	9247.26
650.027	8847.91
650.22	8911.39
650.413	8804.9
650.605	8874.53
650.798	8532.52
650.991	8686.12
651.183	8784.42
651.376	8618.54
651.568	8690.21
651.761	8608.3
651.954	8532.52
652.146	8438.31
652.339	8491.56
652.531	8428.07
652.724	8247.85
652.916	8149.55
653.109	8161.84
653.301	8100.4
653.494	8131.12
653.686	8084.02
653.879	8190.51
654.071	8045.1
654.263	8012.34
654.456	8008.24
654.648	8004.14
654.84	7860.79
655.033	7932.47
655.225	7776.82
655.417	7805.49
655.61	7821.88
655.802	7709.24
655.994	7885.36
656.186	7748.15
656.379	7475.77
656.571	7584.31
656.763	7305.79
656.955	7309.88
657.148	7504.44
657.34	7606.84
657.532	7324.22
657.724	7184.96
657.916	7348.79
658.108	7199.29
658.3	7117.37
658.492	7119.42
658.684	7205.44
658.876	7176.77
659.068	7019.07
659.26	7023.17
659.452	7029.31
659.644	6986.3
659.836	6898.24
660.028	6941.25
660.22	6804.03
660.412	6658.63
660.604	6621.77
660.796	6513.22
660.988	6556.23
661.18	6562.37
661.372	6640.2
661.563	6566.47
661.755	6572.61
661.947	6476.36
662.139	6378.06
662.331	6517.32
662.522	6533.7
662.714	6480.46
662.906	6314.57
663.097	6218.32
663.289	6318.67
663.481	6195.79
663.673	6265.42
663.864	6181.45
664.056	6156.88
664.247	6195.79
664.439	6087.25
664.631	6050.38
664.822	6210.12
665.014	5982.8
665.205	6003.28
665.397	6091.34
665.588	5986.9
665.78	6083.15
665.971	5833.3
666.163	5718.61
666.354	5827.15
666.546	5933.65
666.737	5771.86
666.929	5634.64
667.12	5659.22
667.311	5741.14
667.503	5612.12
667.694	5579.35
667.885	5593.69
668.077	5528.15
668.268	5603.93
668.459	5560.92
668.651	5511.77
668.842	5661.27
669.033	5444.18
669.224	5378.65
669.416	5552.73
669.607	5411.42
669.798	5487.19
669.989	5476.95
670.18	5352.02
670.371	5290.59
670.563	5153.37
670.754	5145.18
670.945	5214.81
671.136	5255.77
671.327	5247.58
671.518	5200.48
671.709	5173.85
671.9	5235.29
672.091	5192.28
672.282	5100.12
672.473	5079.65
672.664	5149.28
672.855	5026.4
673.046	4944.48
673.237	5069.41
673.428	5032.54
673.619	4956.77
673.809	4911.71
674	4823.65
674.191	4977.25
674.382	4975.2
674.573	4909.66
674.764	4921.95
674.954	4760.16
675.145	4786.79
675.336	4643.43
675.527	4823.65
675.717	4674.15
675.908	4684.39
676.099	4919.9
676.289	4668
676.48	4649.57
676.671	4717.15
676.861	4688.48
677.052	4604.52
677.243	4543.08
677.433	4567.65
677.624	4604.52
677.814	4547.17
678.005	4715.11
678.195	4541.03
678.386	4545.13
678.576	4487.78
678.767	4448.87
678.957	4518.5
679.148	4719.2
679.338	4487.78
679.529	4424.3
679.719	4467.3
679.909	4264.55
680.1	4512.36
680.29	4364.9
680.481	4420.2
680.671	4373.1
680.861	4428.39
681.052	4391.53
681.242	4305.51
681.432	4364.9
681.622	4266.6
681.813	4364.9
682.003	4350.57
682.193	4072.04
682.383	4233.83
682.573	4299.37
682.764	4366.95
682.954	4180.59
683.144	4287.08
683.334	4166.25
683.524	4127.34
683.714	4373.1
683.904	4108.91
684.094	4184.68
684.284	4145.77
684.474	4369
684.664	4024.94
684.854	4059.76
685.044	4133.48
685.234	4074.09
685.424	4180.59
685.614	4158.06
685.804	4049.52
685.994	4041.32
686.184	3945.07
686.374	4035.18
686.564	4031.09
686.753	3900.02
686.943	3891.82
687.133	3910.26
687.323	3947.12
687.513	3861.1
687.702	3992.17
687.892	3906.16
688.082	3871.34
688.272	3873.39
688.461	3828.34
688.651	3887.73
688.841	3844.72
689.03	3861.1
689.22	3691.12
689.41	3766.9
689.599	3744.37
689.789	3834.48
689.979	3795.57
690.168	3682.93
690.358	3658.35
690.547	3615.35
690.737	3639.92
690.926	3682.93
691.116	3539.57
691.305	3558
691.495	3504.76
691.684	3437.17
691.874	3537.52
692.063	3545.72
692.252	3496.57
692.442	3515
692.631	3488.37
692.82	3324.54
693.01	3326.58
693.199	3414.65
693.388	3359.35
693.578	3316.34
693.767	3353.21
693.956	3375.74
694.146	3336.82
694.335	3250.81
694.524	3236.47
694.713	3361.4
694.902	3248.76
695.092	3207.8
695.281	3138.17
695.47	3105.4
695.659	3117.69
695.848	3213.95
696.037	3068.54
696.226	3199.61
696.415	3121.79
696.604	3093.12
696.793	3027.58
696.982	3000.96
697.171	3107.45
697.36	3000.96
697.549	2976.38
697.738	2941.57
697.927	2857.6
698.116	3121.79
698.305	2925.18
698.494	2988.67
698.683	2859.65
698.872	3052.16
699.061	2828.93
699.25	2923.13
699.438	2902.65
699.627	2929.28
699.816	2890.37
700.005	2820.74
700.193	2744.96
700.382	2900.61
700.571	2845.31
700.76	2839.17
700.948	2867.84
701.137	2962.05
701.326	2654.85
701.514	2847.36
701.703	2808.45
701.892	2857.6
702.08	2822.78
702.269	2830.98
702.457	2704
702.646	2681.47
702.834	2630.27
703.023	2671.23
703.212	2726.53
703.4	2699.91
703.589	2656.9
703.777	2742.91
703.965	2697.86
704.154	2613.89
704.342	2589.32
704.531	2644.61
704.719	2605.7
704.907	2726.53
705.096	2577.03
705.284	2632.32
705.472	2628.23
705.661	2599.56
705.849	2642.56
706.037	2617.99
706.226	2529.92
706.414	2650.75
706.602	2611.84
706.79	2511.49
706.979	2609.79
707.167	2581.12
707.355	2497.16
707.543	2521.73
707.731	2658.95
707.919	2654.85
708.107	2536.07
708.296	2456.2
708.484	2433.67
708.672	2671.23
708.86	2493.06
709.048	2529.92
709.236	2574.98
709.424	2585.22
709.612	2448.01
709.8	2566.79
709.988	2448.01
710.176	2642.56
710.364	2607.75
710.551	2544.26
710.739	2388.61
710.927	2443.91
711.115	2513.54
711.303	2601.6
711.491	2568.84
711.679	2417.29
711.866	2519.68
712.054	2484.87
712.242	2448.01
712.43	2650.75
712.617	2413.19
712.805	2531.97
712.993	2497.16
713.181	2431.62
713.368	2519.68
713.556	2411.14
713.744	2515.59
713.931	2425.48
714.119	2431.62
714.306	2556.55
714.494	2411.14
714.682	2445.96
714.869	2388.61
715.057	2503.3
715.244	2396.81
715.432	2505.35
715.619	2443.91
715.807	2386.57
715.994	2460.29
716.182	2445.96
716.369	2521.73
716.556	2359.94
716.744	2454.15
716.931	2460.29
717.119	2468.49
717.306	2437.77
717.493	2515.59
717.681	2452.1
717.868	2394.76
718.055	2425.48
718.242	2468.49
718.43	2468.49
718.617	2527.88
718.804	2558.6
718.991	2382.47
719.179	2429.57
719.366	2540.16
719.553	2429.57
719.74	2493.06
719.927	2460.29
720.114	2466.44
720.301	2443.91
720.488	2437.77
720.676	2388.61
720.863	2439.81
721.05	2419.33
721.237	2390.66
721.424	2454.15
721.611	2337.41
721.798	2452.1
721.985	2425.48
722.172	2325.13
722.358	2431.62
722.545	2439.81
722.732	2513.54
722.919	2351.75
723.106	2460.29
723.293	2407.05
723.48	2443.91
723.667	2450.05
723.853	2427.53
724.04	2460.29
724.227	2456.2
724.414	2318.98
724.6	2413.19
724.787	2558.6
724.974	2402.95
725.161	2402.95
725.347	2478.72
725.534	2470.53
725.72	2417.29
725.907	2566.79
726.094	2511.49
726.28	2429.57
726.467	2429.57
726.653	2448.01
726.84	2525.83
727.027	2503.3
727.213	2337.41
727.4	2577.03
727.586	2470.53
727.773	2470.53
727.959	2486.92
728.145	2642.56
728.332	2544.26
728.518	2448.01
728.705	2501.25
728.891	2585.22
729.077	2400.9
729.264	2562.69
729.45	2579.08
729.636	2521.73
729.823	2581.12
730.009	2542.21
730.195	2480.77
730.382	2601.6
730.568	2568.84
730.754	2564.74
730.94	2511.49
731.126	2577.03
731.313	2525.83
731.499	2667.14
731.685	2603.65
731.871	2673.28
732.057	2640.51
732.243	2640.51
732.429	2609.79
732.615	2622.08
732.801	2681.47
732.987	2622.08
733.173	2642.56
733.359	2597.51
733.545	2607.75
733.731	2577.03
733.917	2630.27
734.103	2720.39
734.289	2654.85
734.475	2587.27
734.661	2638.47
734.847	2642.56
735.033	2624.13
735.219	2599.56
735.404	2611.84
735.59	2634.37
735.776	2574.98
735.962	2568.84
736.148	2744.96
736.333	2802.3
736.519	2568.84
736.705	2660.99
736.89	2679.43
737.076	2628.23
737.262	2560.64
737.447	2572.93
737.633	2632.32
737.819	2753.15
738.004	2734.72
738.19	2615.94
738.375	2572.93
738.561	2667.14
738.747	2675.33
738.932	2601.6
739.118	2835.07
739.303	2708.1
739.489	2755.2
739.674	2609.79
739.859	2687.62
740.045	2871.93
740.23	2658.95
740.416	2654.85
740.601	2771.58
740.786	2708.1
740.972	2617.99
741.157	2720.39
741.342	2554.5
741.528	2761.34
741.713	2597.51
741.898	2658.95
742.084	2583.17
742.269	2620.03
742.454	2734.72
742.639	2689.67
742.824	2620.03
743.01	2708.1
743.195	2802.3
743.38	2568.84
743.565	2644.61
743.75	2706.05
743.935	2638.47
744.12	2617.99
744.305	2679.43
744.49	2585.22
744.675	2658.95
744.86	2570.88
745.045	2536.07
745.23	2556.55
745.415	2552.45
745.6	2527.88
745.785	2493.06
745.97	2570.88
746.155	2503.3
746.34	2572.93
746.525	2507.4
746.71	2462.34
746.895	2611.84
747.079	2515.59
747.264	2472.58
747.449	2609.79
747.634	2593.41
747.819	2570.88
748.003	2425.48
748.188	2579.08
748.373	2560.64
748.557	2437.77
748.742	2501.25
748.927	2501.25
749.111	2517.64
749.296	2390.66
749.481	2374.28
749.665	2396.81
749.85	2394.76
750.034	2450.05
750.219	2452.1
750.404	2382.47
750.588	2398.85
750.773	2347.65
750.957	2333.32
751.141	2448.01
751.326	2325.13
751.51	2370.18
751.695	2298.5
751.879	2183.82
752.064	2368.13
752.248	2302.6
752.432	2286.22
752.617	2269.83
752.801	2214.54
752.985	2226.82
753.17	2112.14
753.354	2161.29
753.538	2155.15
753.722	2271.88
753.907	2149
754.091	2046.6
754.275	2167.43
754.459	2171.53
754.643	2099.85
754.828	2065.04
755.012	2169.48
755.196	2034.32
755.38	2189.96
755.564	1962.64
755.748	2001.55
755.932	2089.61
756.116	1886.86
756.3	1991.31
756.484	1993.36
756.668	1931.92
756.852	1933.97
757.036	1837.71
757.22	1962.64
757.404	1948.3
757.588	1921.68
757.772	1933.97
757.956	1991.31
758.14	1858.19
758.323	1866.38
758.507	1919.63
758.691	1770.13
758.875	1886.86
759.059	1837.71
759.242	1878.67
759.426	1901.2
759.61	1790.61
759.794	1815.18
759.977	1874.57
760.161	1788.56
760.345	1763.98
760.528	1755.79
760.712	1780.37
760.895	1786.51
761.079	1686.16
761.263	1637.01
761.446	1741.46
761.63	1708.69
761.813	1800.85
761.997	1626.77
762.18	1745.55
762.364	1677.97
762.547	1675.92
762.731	1653.39
762.914	1616.53
763.098	1661.59
763.281	1667.73
763.464	1684.11
763.648	1677.97
763.831	1536.66
764.015	1630.87
764.198	1628.82
764.381	1766.03
764.564	1614.48
764.748	1671.83
764.931	1591.95
765.114	1518.23
765.297	1610.39
765.481	1456.79
765.664	1540.76
765.847	1596.05
766.03	1495.7
766.213	1505.94
766.397	1534.61
766.58	1440.4
766.763	1614.48
766.946	1462.93
767.129	1456.79
767.312	1546.9
767.495	1442.45
767.678	1458.84
767.861	1530.52
768.044	1440.4
768.227	1415.83
768.41	1385.11
768.593	1415.83
768.776	1464.98
768.959	1409.69
769.142	1426.07
769.324	1424.02
769.507	1403.54
769.69	1403.54
769.873	1378.97
770.056	1434.26
770.239	1378.97
770.421	1462.93
770.604	1378.97
770.787	1405.59
770.97	1424.02
771.152	1338.01
771.335	1323.67
771.518	1282.71
771.7	1299.09
771.883	1333.91
772.066	1247.9
772.248	1313.43
772.431	1331.86
772.613	1249.94
772.796	1344.15
772.978	1208.98
773.161	1243.8
773.343	1288.86
773.526	1278.62
773.708	1297.05
773.891	1182.36
774.073	1274.52
774.256	1135.26
774.438	1184.41
774.621	1118.87
774.803	1233.56
774.985	1204.89
775.168	1149.59
775.35	1176.22
775.532	1237.66
775.715	1032.86
775.897	1129.11
776.079	1065.63
776.261	1204.89
776.444	1125.02
776.626	1065.63
776.808	1096.35
776.99	1006.24
777.173	1061.53
777.355	1100.44
777.537	1135.26
777.719	985.76
777.901	1018.52
778.083	975.52
778.265	1047.19
778.447	985.76
778.629	973.47
778.811	1010.33
778.993	1004.19
779.175	1061.53
779.357	1020.57
779.539	1026.72
779.721	903.84
779.903	989.85
780.085	938.65
780.267	848.54
780.449	975.52
780.631	975.52
780.812	922.27
780.994	942.75
781.176	832.16
781.358	879.26
781.54	772.77
781.721	819.87
781.903	969.37
782.085	871.07
782.267	873.12
782.448	748.19
782.63	811.68
782.812	832.16
782.993	750.24
783.175	758.43
783.357	828.06
783.538	830.11
783.72	813.73
783.901	809.63
784.083	813.73
784.264	692.9
784.446	740
784.627	801.44
784.809	748.19
784.99	799.39
785.172	770.72
785.353	682.66
785.535	768.67
785.716	717.47
785.897	668.32
786.079	694.94
786.26	785.05
786.441	760.48
786.623	660.13
786.804	707.23
786.985	705.18
787.167	676.51
787.348	649.89
787.529	737.95
787.71	613.03
787.891	709.28
788.073	608.93
788.254	576.16
788.435	639.65
788.616	633.51
788.797	660.13
788.978	615.07
789.159	561.83
789.34	709.28
789.522	574.11
789.703	619.17
789.884	608.93
790.065	610.98
790.246	740
790.427	576.16
790.607	608.93
790.788	590.5
790.969	563.87
791.15	572.07
791.331	594.59
791.512	561.83
791.693	436.9
791.874	602.79
792.054	627.36
792.235	582.31
792.416	572.07
792.597	422.56
792.778	588.45
792.958	524.96
793.139	506.53
793.32	475.81
793.5	488.1
793.681	416.42
793.862	481.96
794.042	561.83
794.223	410.28
794.404	432.8
794.584	449.19
794.765	402.08
794.945	510.63
795.126	488.1
795.306	498.34
795.487	549.54
795.667	428.71
795.848	441
796.028	461.48
796.209	490.15
796.389	420.52
796.57	459.43
796.75	416.42
796.93	453.28
797.111	395.94
797.291	455.33
797.471	461.48
797.652	381.6
797.832	481.96
798.012	529.06
798.192	402.08
798.373	361.13
798.553	416.42
798.733	424.61
798.913	404.13
799.093	404.13
799.274	400.04
799.454	416.42
799.634	449.19
799.814	406.18
799.994	326.31
800.174	447.14
800.354	314.02
800.534	354.98
800.714	373.41
800.894	320.17
801.074	397.99
801.254	352.93
801.434	443.04
801.614	494.24
801.794	346.79
801.974	1000.09
802.154	436.9
802.334	379.56
802.514	336.55
802.693	279.21
802.873	311.97
803.053	326.31
803.233	379.56
803.413	346.79
803.592	277.16
803.772	318.12
803.952	352.93
804.131	320.17
804.311	402.08
804.491	316.07
804.67	318.12
804.85	330.41
805.03	367.27
805.209	340.65
805.389	320.17
805.568	287.4
805.748	273.06
805.928	305.83
806.107	289.45
806.287	316.07
806.466	297.64
806.646	205.48
806.825	328.36
807.004	238.25
807.184	311.97
807.363	336.55
807.543	307.88
807.722	197.29
807.901	322.21
808.081	338.6
808.26	264.87
808.439	244.39
808.619	359.08
808.798	305.83
808.977	277.16
809.156	326.31
809.336	285.35
809.515	191.14
809.694	213.67
809.873	264.87
810.052	346.79
810.231	299.69
810.411	242.34
810.59	275.11
810.769	205.48
810.948	240.3
811.127	252.58
811.306	258.73
811.485	266.92
811.664	252.58
811.843	244.39
812.022	256.68
812.201	252.58
812.38	262.82
812.559	197.29
812.737	314.02
812.916	193.19
813.095	223.91
813.274	273.06
813.453	193.19
813.632	236.2
813.811	287.4
813.989	240.3
814.168	211.62
814.347	266.92
814.526	246.44
814.704	277.16
814.883	219.82
815.062	187.05
815.24	268.97
815.419	217.77
815.598	191.14
815.776	168.62
815.955	144.04
816.133	209.58
816.312	187.05
816.49	191.14
816.669	238.25
816.847	203.43
817.026	201.38
817.204	228.01
817.383	219.82
817.561	170.66
817.74	191.14
817.918	230.06
818.097	260.77
818.275	201.38
818.453	252.58
818.632	197.29
818.81	189.1
818.988	230.06
819.167	187.05
819.345	193.19
819.523	152.23
819.701	154.28
819.879	195.24
820.058	193.19
820.236	197.29
820.414	187.05
820.592	148.14
820.77	164.52
820.948	203.43
821.127	209.58
821.305	246.44
821.483	139.94
821.661	205.48
821.839	154.28
822.017	133.8
822.195	123.56
822.373	209.58
822.551	201.38
822.729	189.1
822.907	146.09
823.085	168.62
823.262	125.61
823.44	156.33
823.618	152.23
823.796	211.62
823.974	133.8
824.152	156.33
824.329	160.42
824.507	92.84
824.685	213.67
824.863	201.38
825.04	228.01
825.218	197.29
825.396	111.27
825.574	182.95
825.751	148.14
825.929	164.52
826.107	103.08
826.284	109.23
826.462	232.1
826.639	144.04
826.817	82.6
826.994	148.14
827.172	117.42
827.349	209.58
827.527	262.82
827.704	135.85
827.882	176.81
828.059	174.76
828.237	109.23
828.414	137.9
828.591	166.57
828.769	146.09
828.946	119.46
829.124	213.67
829.301	174.76
829.478	154.28
829.655	78.51
829.833	117.42
830.01	117.42
830.187	150.18
830.364	156.33
830.542	121.51
830.719	80.55
830.896	158.38
831.073	109.23
831.25	60.07
831.427	137.9
831.604	127.66
831.782	123.56
831.959	168.62
832.136	96.94
832.313	121.51
832.49	103.08
832.667	80.55
832.844	88.75
833.021	127.66
833.198	80.55
833.374	137.9
833.551	105.13
833.728	123.56
833.905	127.66
834.082	47.79
834.259	123.56
834.436	174.76
834.612	78.51
834.789	158.38
834.966	160.42
835.143	101.03
835.319	76.46
835.496	199.34
835.673	174.76
835.85	170.66
836.026	115.37
836.203	168.62
836.38	94.89
836.556	185
836.733	74.41
836.909	64.17
837.086	139.94
837.262	47.79
837.439	78.51
837.616	92.84
837.792	55.98
837.968	156.33
838.145	62.12
838.321	55.98
838.498	160.42
838.674	45.74
838.851	78.51
839.027	39.59
839.203	180.9
839.38	115.37
839.556	80.55
839.732	141.99
839.909	96.94
840.085	117.42
840.261	31.4
840.437	70.31
840.614	12.97
840.79	127.66
840.966	125.61
841.142	98.99
841.318	84.65
841.494	109.23
841.671	148.14
841.847	125.61
842.023	21.16
842.199	78.51
842.375	135.85
842.551	8.87
842.727	2.73
842.903	127.66
843.079	62.12
843.255	125.61
843.431	70.31
843.607	86.7
843.783	117.42
843.959	70.31
844.134	62.12
844.31	127.66
844.486	68.27
844.662	41.64
844.838	60.07
845.013	76.46
845.189	47.79
845.365	139.94
845.541	49.83
845.716	66.22
845.892	68.27
846.068	37.55
846.244	-11.61
846.419	37.55
846.595	137.9
846.77	101.03
846.946	144.04
847.122	78.51
847.297	82.6
847.473	176.81
847.648	78.51
847.824	103.08
847.999	2.73
848.175	25.26
848.35	55.98
848.526	187.05
848.701	64.17
848.876	117.42
849.052	127.66
849.227	37.55
849.403	-13.65
849.578	43.69
849.753	39.59
849.929	72.36
850.104	66.22
850.279	88.75
850.454	51.88
850.63	80.55
850.805	125.61
850.98	37.55
851.155	33.45
851.33	86.7
851.505	41.64
851.681	80.55
851.856	31.4
852.031	185
852.206	146.09
852.381	-13.65
852.556	17.07
852.731	2.73
852.906	115.37
853.081	62.12
853.256	72.36
853.431	-11.61
853.606	58.03
853.781	17.07
853.956	-13.65
854.131	178.86
854.305	10.92
854.48	19.11
854.655	98.99
854.83	23.21
855.005	90.79
855.18	23.21
855.354	45.74
855.529	31.4
855.704	35.5
855.879	105.13
856.053	31.4
856.228	105.13
856.403	-48.47
856.577	58.03
856.752	68.27
856.926	55.98
857.101	15.02
857.276	25.26
857.45	72.36
857.625	68.27
857.799	49.83
857.974	68.27
858.148	-1.37
858.323	92.84
858.497	15.02
858.672	23.21
858.846	39.59
859.02	70.31
859.195	15.02
859.369	12.97
859.543	-3.41
859.718	21.16
859.892	33.45
860.066	37.55
860.241	92.84
860.415	33.45
860.589	12.97
860.763	92.84
860.938	-3.41
861.112	17.07
861.286	41.64
861.46	111.27
861.634	62.12
861.808	19.11
861.982	31.4
862.157	-46.42
862.331	55.98
862.505	45.74
862.679	6.83
862.853	39.59
863.027	-5.46
863.201	111.27
863.375	49.83
863.549	94.89
863.722	43.69
863.896	23.21
864.07	82.6
864.244	-19.8
864.418	37.55
864.592	15.02
864.766	-3.41
864.939	70.31
865.113	-46.42
865.287	37.55
865.461	2.73
865.634	123.56
865.808	17.07
865.982	17.07
866.156	45.74
866.329	12.97
866.503	15.02
866.676	107.18
866.85	60.07
867.024	60.07
867.197	105.13
867.371	27.31
867.544	62.12
867.718	41.64
867.891	31.4
868.065	64.17
868.238	49.83
868.412	58.03
868.585	19.11
868.759	17.07
868.932	-7.51
869.105	12.97
869.279	15.02
869.452	-1.37
869.625	66.22
869.799	4.78
869.972	-23.89
870.145	-13.65
870.319	43.69
870.492	-15.7
870.665	25.26
870.838	29.35
871.011	45.74
871.185	-13.65
871.358	-46.42
871.531	-40.28
871.704	6.83
871.877	21.16
872.05	74.41
872.223	-1.37
872.396	29.35
872.569	33.45
872.742	45.74
872.915	96.94
873.088	29.35
873.261	27.31
873.434	-11.61
873.607	-7.51
873.78	12.97
873.953	-11.61
874.126	21.16
874.299	4.78
874.471	-5.46
874.644	47.79
874.817	29.35
874.99	27.31
875.163	68.27
875.335	78.51
875.508	60.07
875.681	64.17
875.853	-15.7
876.026	45.74
876.199	8.87
876.371	25.26
876.544	0.68
876.717	23.21
876.889	15.02
877.062	12.97
877.234	-1.37
877.407	19.11
877.579	94.89
877.752	82.6
877.924	-19.8
878.097	70.31
878.269	-5.46
878.442	2.73
878.614	25.26
878.786	-3.41
878.959	-13.65
879.131	33.45
879.303	23.21
879.476	15.02
879.648	74.41
879.82	39.59
879.993	-7.51
880.165	6.83
880.337	17.07
880.509	-1.37
880.681	-46.42
880.854	43.69
881.026	78.51
881.198	6.83
881.37	25.26
881.542	-42.32
881.714	84.65
881.886	19.11
882.058	23.21
882.23	131.75
882.402	-5.46
882.574	66.22
882.746	25.26
882.918	90.79
883.09	17.07
883.262	27.31
883.434	-9.56
883.606	21.16
883.778	-23.89
883.95	101.03
884.122	49.83
884.293	-23.89
884.465	58.03
884.637	15.02
884.809	-42.32
884.98	0.68
885.152	98.99
885.324	74.41
885.496	-38.23
885.667	17.07
885.839	-34.13
886.011	51.88
886.182	105.13
886.354	58.03
886.525	-11.61
886.697	-36.18
886.869	-3.41
887.04	-30.04
887.212	55.98
887.383	-1.37
887.555	-19.8
887.726	-7.51
887.897	39.59
888.069	-36.18
888.24	94.89
888.412	-36.18
888.583	88.75
888.754	2.73
888.926	-73.04
889.097	-15.7
889.268	-91.48
889.44	12.97
889.611	-30.04
889.782	19.11
889.953	-27.99
890.125	45.74
890.296	-54.61
890.467	-3.41
890.638	-13.65
890.809	27.31
890.98	2.73
891.151	39.59
891.323	64.17
891.494	-5.46
891.665	21.16
891.836	10.92
892.007	17.07
892.178	43.69
892.349	-1.37
892.52	-34.13
892.691	-17.75
892.862	12.97
893.032	-13.65
893.203	66.22
893.374	-19.8
893.545	39.59
893.716	27.31
893.887	35.5
894.057	66.22
894.228	6.83
894.399	15.02
894.57	53.93
894.74	86.7
894.911	-25.94
895.082	6.83
895.253	41.64
895.423	2.73
895.594	47.79
895.764	15.02
895.935	53.93
896.106	-85.33
896.276	82.6
896.447	70.31
896.617	-50.52
896.788	-36.18
896.958	-9.56
897.129	-5.46
897.299	4.78
897.47	37.55
897.64	70.31
897.81	-27.99
897.981	49.83
898.151	-73.04
898.322	51.88
898.492	25.26
898.662	68.27
898.832	-5.46
899.003	70.31
899.173	-1.37
899.343	6.83
899.513	41.64
