Data from USB4F104151__72__12-42-15-528.txt Node

Date: Fri Mar 14 12:42:15 EDT 2025
User: louis
Spectrometer: USB4F10415
Trigger mode: 4
Integration Time (sec): 3.000000E-2
Scans to average: 1
Electric dark correction enabled: true
Nonlinearity correction enabled: false
Boxcar width: 0
XAxis mode: Wavelengths
Number of Pixels in Spectrum: 3648
>>>>>Begin Spectral Data<<<<<
178.204	-146.43
178.424	-146.43
178.644	-146.43
178.864	-123.9
179.084	-115.71
179.304	-25.6
179.524	-74.75
179.744	-11.26
179.964	35.84
180.184	-11.26
180.404	9.22
180.624	33.79
180.844	-7.17
181.064	-29.7
181.283	37.89
181.503	11.26
181.723	31.74
181.943	-44.03
182.163	50.18
182.383	41.98
182.602	-7.17
182.822	97.28
183.042	39.94
183.262	-19.46
183.482	21.5
183.701	23.55
183.921	52.22
184.141	-3.07
184.361	41.98
184.58	48.13
184.8	82.94
185.02	46.08
185.239	21.5
185.459	50.18
185.679	37.89
185.898	-39.94
186.118	74.75
186.338	66.56
186.557	111.61
186.777	-13.31
186.997	56.32
187.216	56.32
187.436	31.74
187.655	-19.46
187.875	95.23
188.095	-35.84
188.314	-5.12
188.534	84.99
188.753	-1.02
188.973	84.99
189.192	27.65
189.412	68.61
189.631	66.56
189.851	82.94
190.07	39.94
190.29	-5.12
190.509	56.32
190.729	68.61
190.948	31.74
191.168	156.67
191.387	46.08
191.607	39.94
191.826	-13.31
192.045	-105.47
192.265	35.84
192.484	15.36
192.704	39.94
192.923	-66.56
193.142	87.04
193.362	-11.26
193.581	78.85
193.8	31.74
194.02	11.26
194.239	-13.31
194.458	56.32
194.678	44.03
194.897	5.12
195.116	11.26
195.335	-25.6
195.555	23.55
195.774	-9.22
195.993	44.03
196.212	62.46
196.432	-11.26
196.651	39.94
196.87	-17.41
197.089	84.99
197.308	87.04
197.528	-13.31
197.747	3.07
197.966	68.61
198.185	91.13
198.404	3.07
198.623	41.98
198.842	41.98
199.062	74.75
199.281	111.61
199.5	1.02
199.719	41.98
199.938	46.08
200.157	93.18
200.376	25.6
200.595	56.32
200.814	-29.7
201.033	41.98
201.252	64.51
201.471	25.6
201.69	52.22
201.909	37.89
202.128	93.18
202.347	50.18
202.566	35.84
202.785	3.07
203.004	-9.22
203.223	160.77
203.442	72.7
203.661	44.03
203.879	66.56
204.098	31.74
204.317	33.79
204.536	123.9
204.755	13.31
204.974	-9.22
205.193	48.13
205.411	62.46
205.63	46.08
205.849	31.74
206.068	46.08
206.287	15.36
206.505	33.79
206.724	17.41
206.943	-23.55
207.162	-23.55
207.381	44.03
207.599	23.55
207.818	39.94
208.037	9.22
208.255	37.89
208.474	-11.26
208.693	39.94
208.911	-1.02
209.13	31.74
209.349	78.85
209.567	103.42
209.786	95.23
210.005	21.5
210.223	9.22
210.442	-68.61
210.661	60.42
210.879	1.02
211.098	52.22
211.316	27.65
211.535	54.27
211.753	109.57
211.972	68.61
212.191	-37.89
212.409	56.32
212.628	37.89
212.846	25.6
213.065	44.03
213.283	101.37
213.502	64.51
213.72	72.7
213.938	31.74
214.157	-1.02
214.375	89.09
214.594	31.74
214.812	21.5
215.031	74.75
215.249	11.26
215.467	44.03
215.686	-15.36
215.904	41.98
216.122	52.22
216.341	31.74
216.559	29.7
216.778	70.65
216.996	35.84
217.214	-11.26
217.432	80.89
217.651	-7.17
217.869	17.41
218.087	7.17
218.306	1.02
218.524	-5.12
218.742	-35.84
218.96	17.41
219.179	-1.02
219.397	1.02
219.615	134.14
219.833	62.46
220.051	52.22
220.27	31.74
220.488	9.22
220.706	48.13
220.924	41.98
221.142	-15.36
221.36	29.7
221.578	134.14
221.796	33.79
222.015	35.84
222.233	125.95
222.451	48.13
222.669	-39.94
222.887	82.94
223.105	-21.5
223.323	35.84
223.541	-21.5
223.759	9.22
223.977	54.27
224.195	72.7
224.413	68.61
224.631	19.46
224.849	33.79
225.067	60.42
225.285	21.5
225.503	17.41
225.721	-37.89
225.939	-17.41
226.157	144.38
226.375	80.89
226.592	-7.17
226.81	15.36
227.028	41.98
227.246	84.99
227.464	56.32
227.682	13.31
227.9	27.65
228.117	35.84
228.335	-33.79
228.553	29.7
228.771	113.66
228.989	46.08
229.206	107.52
229.424	41.98
229.642	-13.31
229.86	-15.36
230.077	39.94
230.295	11.26
230.513	68.61
230.731	31.74
230.948	52.22
231.166	138.24
231.384	-35.84
231.601	33.79
231.819	97.28
232.037	64.51
232.254	87.04
232.472	68.61
232.689	9.22
232.907	95.23
233.125	33.79
233.342	-33.79
233.56	-66.56
233.777	1.02
233.995	74.75
234.213	128
234.43	48.13
234.648	19.46
234.865	23.55
235.083	60.42
235.3	46.08
235.518	46.08
235.735	19.46
235.953	29.7
236.17	3.07
236.388	27.65
236.605	23.55
236.822	68.61
237.04	87.04
237.257	41.98
237.475	-25.6
237.692	-39.94
237.909	33.79
238.127	-1.02
238.344	52.22
238.562	101.37
238.779	89.09
238.996	-23.55
239.214	80.89
239.431	46.08
239.648	-7.17
239.865	9.22
240.083	91.13
240.3	31.74
240.517	48.13
240.735	17.41
240.952	35.84
241.169	41.98
241.386	9.22
241.603	101.37
241.821	76.8
242.038	66.56
242.255	11.26
242.472	3.07
242.689	117.76
242.907	89.09
243.124	-7.17
243.341	54.27
243.558	60.42
243.775	-5.12
243.992	29.7
244.209	-5.12
244.426	35.84
244.643	99.33
244.86	128
245.078	37.89
245.295	74.75
245.512	62.46
245.729	5.12
245.946	50.18
246.163	107.52
246.38	60.42
246.597	54.27
246.814	48.13
247.031	15.36
247.248	-5.12
247.464	44.03
247.681	23.55
247.898	35.84
248.115	33.79
248.332	-33.79
248.549	72.7
248.766	107.52
248.983	13.31
249.2	35.84
249.417	97.28
249.633	64.51
249.85	66.56
250.067	-27.65
250.284	29.7
250.501	84.99
250.717	95.23
250.934	-60.42
251.151	29.7
251.368	58.37
251.585	95.23
251.801	58.37
252.018	9.22
252.235	33.79
252.451	7.17
252.668	-44.03
252.885	11.26
253.102	33.79
253.318	27.65
253.535	62.46
253.752	68.61
253.968	76.8
254.185	-1.02
254.401	-19.46
254.618	58.37
254.835	76.8
255.051	93.18
255.268	-13.31
255.484	89.09
255.701	37.89
255.917	115.71
256.134	29.7
256.351	27.65
256.567	-13.31
256.784	48.13
257	91.13
257.217	-27.65
257.433	-17.41
257.65	13.31
257.866	113.66
258.082	-15.36
258.299	80.89
258.515	74.75
258.732	35.84
258.948	23.55
259.165	123.9
259.381	64.51
259.597	17.41
259.814	72.7
260.03	41.98
260.246	111.61
260.463	62.46
260.679	70.65
260.895	84.99
261.112	13.31
261.328	115.71
261.544	41.98
261.761	128
261.977	54.27
262.193	23.55
262.409	80.89
262.626	56.32
262.842	62.46
263.058	-74.75
263.274	115.71
263.49	58.37
263.707	-1.02
263.923	17.41
264.139	11.26
264.355	11.26
264.571	33.79
264.787	-31.74
265.004	56.32
265.22	39.94
265.436	-9.22
265.652	48.13
265.868	46.08
266.084	48.13
266.3	64.51
266.516	3.07
266.732	-33.79
266.948	50.18
267.164	33.79
267.38	70.65
267.596	3.07
267.812	101.37
268.028	95.23
268.244	-21.5
268.46	7.17
268.676	44.03
268.892	31.74
269.108	54.27
269.324	39.94
269.54	-11.26
269.756	58.37
269.972	82.94
270.188	37.89
270.403	-80.89
270.619	17.41
270.835	11.26
271.051	23.55
271.267	54.27
271.483	54.27
271.698	80.89
271.914	62.46
272.13	44.03
272.346	39.94
272.562	52.22
272.777	48.13
272.993	64.51
273.209	89.09
273.425	-1.02
273.64	-46.08
273.856	101.37
274.072	93.18
274.287	39.94
274.503	29.7
274.719	46.08
274.934	19.46
275.15	35.84
275.366	31.74
275.581	11.26
275.797	11.26
276.012	60.42
276.228	-11.26
276.444	89.09
276.659	39.94
276.875	-3.07
277.09	54.27
277.306	58.37
277.521	60.42
277.737	13.31
277.952	46.08
278.168	-13.31
278.383	39.94
278.599	23.55
278.814	13.31
279.03	-13.31
279.245	111.61
279.461	9.22
279.676	74.75
279.892	-7.17
280.107	82.94
280.322	-7.17
280.538	66.56
280.753	-29.7
280.969	44.03
281.184	-5.12
281.399	21.5
281.615	13.31
281.83	1.02
282.045	-3.07
282.26	91.13
282.476	3.07
282.691	-7.17
282.906	117.76
283.122	-21.5
283.337	48.13
283.552	64.51
283.767	-54.27
283.983	-9.22
284.198	50.18
284.413	70.65
284.628	-46.08
284.843	17.41
285.058	82.94
285.274	-33.79
285.489	-29.7
285.704	17.41
285.919	72.7
286.134	19.46
286.349	31.74
286.564	9.22
286.779	91.13
286.995	44.03
287.21	35.84
287.425	52.22
287.64	23.55
287.855	5.12
288.07	50.18
288.285	44.03
288.5	3.07
288.715	113.66
288.93	35.84
289.145	70.65
289.36	78.85
289.575	-21.5
289.79	11.26
290.004	72.7
290.219	76.8
290.434	-50.18
290.649	70.65
290.864	35.84
291.079	19.46
291.294	64.51
291.509	23.55
291.724	29.7
291.938	68.61
292.153	91.13
292.368	29.7
292.583	84.99
292.798	95.23
293.012	56.32
293.227	21.5
293.442	-44.03
293.657	33.79
293.871	111.61
294.086	33.79
294.301	76.8
294.516	50.18
294.73	29.7
294.945	23.55
295.16	68.61
295.374	91.13
295.589	60.42
295.804	-41.98
296.018	23.55
296.233	37.89
296.447	39.94
296.662	62.46
296.877	111.61
297.091	35.84
297.306	99.33
297.52	39.94
297.735	72.7
297.949	132.09
298.164	91.13
298.378	58.37
298.593	13.31
298.807	60.42
299.022	33.79
299.236	37.89
299.451	27.65
299.665	25.6
299.88	3.07
300.094	89.09
300.309	37.89
300.523	-11.26
300.737	23.55
300.952	41.98
301.166	87.04
301.381	-52.22
301.595	-39.94
301.809	25.6
302.024	27.65
302.238	-9.22
302.452	78.85
302.667	29.7
302.881	80.89
303.095	1.02
303.309	78.85
303.524	25.6
303.738	54.27
303.952	21.5
304.166	48.13
304.381	-11.26
304.595	31.74
304.809	48.13
305.023	-15.36
305.237	25.6
305.452	19.46
305.666	68.61
305.88	66.56
306.094	-9.22
306.308	56.32
306.522	31.74
306.736	41.98
306.95	109.57
307.164	82.94
307.379	15.36
307.593	9.22
307.807	68.61
308.021	-35.84
308.235	105.47
308.449	-15.36
308.663	31.74
308.877	101.37
309.091	52.22
309.305	23.55
309.519	-68.61
309.733	37.89
309.947	-7.17
310.161	68.61
310.374	48.13
310.588	72.7
310.802	11.26
311.016	72.7
311.23	23.55
311.444	13.31
311.658	44.03
311.872	132.09
312.085	60.42
312.299	54.27
312.513	101.37
312.727	70.65
312.941	39.94
313.154	91.13
313.368	68.61
313.582	72.7
313.796	35.84
314.009	1.02
314.223	64.51
314.437	95.23
314.651	-29.7
314.864	19.46
315.078	15.36
315.292	-1.02
315.505	-35.84
315.719	31.74
315.933	52.22
316.146	35.84
316.36	7.17
316.573	107.52
316.787	21.5
317.001	54.27
317.214	15.36
317.428	3.07
317.641	13.31
317.855	37.89
318.068	58.37
318.282	11.26
318.495	50.18
318.709	54.27
318.922	33.79
319.136	123.9
319.349	39.94
319.563	35.84
319.776	33.79
319.99	109.57
320.203	52.22
320.417	37.89
320.63	97.28
320.843	93.18
321.057	68.61
321.27	15.36
321.483	70.65
321.697	97.28
321.91	99.33
322.124	21.5
322.337	-9.22
322.55	58.37
322.763	1.02
322.977	35.84
323.19	78.85
323.403	27.65
323.617	70.65
323.83	72.7
324.043	9.22
324.256	54.27
324.469	70.65
324.683	74.75
324.896	23.55
325.109	44.03
325.322	-25.6
325.535	93.18
325.748	37.89
325.962	31.74
326.175	70.65
326.388	68.61
326.601	52.22
326.814	-1.02
327.027	-15.36
327.24	50.18
327.453	-15.36
327.666	15.36
327.879	23.55
328.092	33.79
328.305	-44.03
328.518	3.07
328.731	82.94
328.944	25.6
329.157	13.31
329.37	89.09
329.583	50.18
329.796	70.65
330.009	-11.26
330.222	29.7
330.435	3.07
330.648	66.56
330.861	1.02
331.073	48.13
331.286	41.98
331.499	48.13
331.712	33.79
331.925	-19.46
332.138	-48.13
332.35	35.84
332.563	70.65
332.776	111.61
332.989	78.85
333.202	19.46
333.414	23.55
333.627	29.7
333.84	25.6
334.053	17.41
334.265	-21.5
334.478	11.26
334.691	99.33
334.903	93.18
335.116	11.26
335.329	39.94
335.541	52.22
335.754	66.56
335.966	13.31
336.179	41.98
336.392	21.5
336.604	89.09
336.817	115.71
337.029	41.98
337.242	21.5
337.454	23.55
337.667	39.94
337.88	60.42
338.092	-1.02
338.305	66.56
338.517	56.32
338.729	27.65
338.942	128
339.154	62.46
339.367	23.55
339.579	-5.12
339.792	21.5
340.004	23.55
340.217	17.41
340.429	13.31
340.641	-3.07
340.854	-9.22
341.066	13.31
341.278	33.79
341.491	103.42
341.703	97.28
341.915	-23.55
342.128	-5.12
342.34	-25.6
342.552	70.65
342.764	50.18
342.977	39.94
343.189	21.5
343.401	3.07
343.613	-11.26
343.826	64.51
344.038	17.41
344.25	41.98
344.462	-21.5
344.674	21.5
344.886	31.74
345.099	82.94
345.311	74.75
345.523	52.22
345.735	-56.32
345.947	46.08
346.159	11.26
346.371	99.33
346.583	23.55
346.795	89.09
347.007	56.32
347.219	113.66
347.431	-48.13
347.643	99.33
347.855	-3.07
348.067	41.98
348.279	41.98
348.491	64.51
348.703	-23.55
348.915	35.84
349.127	80.89
349.339	113.66
349.551	19.46
349.763	41.98
349.975	15.36
350.187	80.89
350.399	103.42
350.61	48.13
350.822	91.13
351.034	35.84
351.246	33.79
351.458	74.75
351.669	105.47
351.881	78.85
352.093	105.47
352.305	76.8
352.517	123.9
352.728	44.03
352.94	66.56
353.152	89.09
353.363	-7.17
353.575	35.84
353.787	115.71
353.999	123.9
354.21	27.65
354.422	58.37
354.633	66.56
354.845	74.75
355.057	99.33
355.268	50.18
355.48	89.09
355.692	-48.13
355.903	37.89
356.115	87.04
356.326	-35.84
356.538	72.7
356.749	7.17
356.961	115.71
357.172	84.99
357.384	27.65
357.595	175.1
357.807	93.18
358.018	13.31
358.23	97.28
358.441	89.09
358.653	82.94
358.864	5.12
359.075	-33.79
359.287	-7.17
359.498	-33.79
359.709	76.8
359.921	76.8
360.132	-17.41
360.344	33.79
360.555	9.22
360.766	1.02
360.977	62.46
361.189	48.13
361.4	-23.55
361.611	119.81
361.823	64.51
362.034	5.12
362.245	-52.22
362.456	56.32
362.667	56.32
362.879	-9.22
363.09	107.52
363.301	58.37
363.512	-1.02
363.723	89.09
363.935	-19.46
364.146	76.8
364.357	35.84
364.568	101.37
364.779	17.41
364.99	97.28
365.201	-3.07
365.412	121.85
365.623	5.12
365.834	29.7
366.045	13.31
366.256	-13.31
366.467	37.89
366.678	31.74
366.889	13.31
367.1	31.74
367.311	56.32
367.522	-15.36
367.733	35.84
367.944	76.8
368.155	82.94
368.366	58.37
368.577	113.66
368.788	46.08
368.999	21.5
369.209	121.85
369.42	103.42
369.631	142.33
369.842	117.76
370.053	84.99
370.264	48.13
370.474	3.07
370.685	56.32
370.896	-33.79
371.107	84.99
371.317	80.89
371.528	56.32
371.739	105.47
371.95	72.7
372.16	95.23
372.371	-31.74
372.582	74.75
372.792	72.7
373.003	27.65
373.214	44.03
373.424	91.13
373.635	23.55
373.846	62.46
374.056	25.6
374.267	15.36
374.477	19.46
374.688	5.12
374.898	-29.7
375.109	21.5
375.319	17.41
375.53	56.32
375.74	62.46
375.951	48.13
376.161	23.55
376.372	87.04
376.582	48.13
376.793	91.13
377.003	-11.26
377.214	-3.07
377.424	19.46
377.635	27.65
377.845	-25.6
378.055	130.05
378.266	-9.22
378.476	1.02
378.686	95.23
378.897	52.22
379.107	101.37
379.317	52.22
379.528	39.94
379.738	89.09
379.948	52.22
380.158	105.47
380.369	138.24
380.579	95.23
380.789	113.66
380.999	142.33
381.21	33.79
381.42	93.18
381.63	113.66
381.84	56.32
382.05	48.13
382.261	101.37
382.471	109.57
382.681	109.57
382.891	105.47
383.101	15.36
383.311	44.03
383.521	54.27
383.731	52.22
383.941	148.48
384.151	72.7
384.361	7.17
384.571	103.42
384.781	117.76
384.991	95.23
385.201	185.34
385.411	23.55
385.621	46.08
385.831	19.46
386.041	54.27
386.251	60.42
386.461	72.7
386.671	48.13
386.881	39.94
387.091	56.32
387.301	66.56
387.511	76.8
387.72	121.85
387.93	39.94
388.14	66.56
388.35	76.8
388.56	125.95
388.769	105.47
388.979	80.89
389.189	37.89
389.399	91.13
389.609	97.28
389.818	11.26
390.028	-25.6
390.238	72.7
390.447	89.09
390.657	66.56
390.867	140.29
391.076	72.7
391.286	101.37
391.496	84.99
391.705	103.42
391.915	50.18
392.125	121.85
392.334	60.42
392.544	115.71
392.753	25.6
392.963	84.99
393.172	78.85
393.382	-23.55
393.591	72.7
393.801	41.98
394.01	197.63
394.22	91.13
394.429	52.22
394.639	41.98
394.848	56.32
395.058	164.86
395.267	123.9
395.477	140.29
395.686	89.09
395.895	144.38
396.105	125.95
396.314	101.37
396.524	7.17
396.733	89.09
396.942	134.14
397.152	142.33
397.361	70.65
397.57	150.53
397.78	72.7
397.989	76.8
398.198	150.53
398.407	-1.02
398.617	95.23
398.826	128
399.035	72.7
399.244	158.72
399.453	160.77
399.663	125.95
399.872	152.57
400.081	103.42
400.29	68.61
400.499	68.61
400.708	175.1
400.917	101.37
401.127	132.09
401.336	119.81
401.545	195.58
401.754	111.61
401.963	125.95
402.172	91.13
402.381	84.99
402.59	117.76
402.799	91.13
403.008	164.86
403.217	95.23
403.426	72.7
403.635	101.37
403.844	199.68
404.053	152.57
404.262	164.86
404.471	168.96
404.68	156.67
404.888	171.01
405.097	181.25
405.306	156.67
405.515	218.11
405.724	119.81
405.933	160.77
406.142	107.52
406.35	173.05
406.559	177.15
406.768	216.06
406.977	218.11
407.185	181.25
407.394	203.77
407.603	150.53
407.812	189.44
408.02	201.72
408.229	248.83
408.438	224.25
408.646	166.91
408.855	164.86
409.064	297.98
409.272	148.48
409.481	302.08
409.69	300.03
409.898	334.84
410.107	283.64
410.315	351.23
410.524	367.61
410.733	338.94
410.941	347.13
411.15	398.33
411.358	355.32
411.567	424.95
411.775	351.23
411.984	353.27
412.192	439.29
412.401	431.1
412.609	449.53
412.818	506.87
413.026	447.48
413.234	560.12
413.443	494.58
413.651	525.3
413.86	504.82
414.068	621.56
414.276	564.22
414.485	568.31
414.693	613.37
414.901	773.11
415.11	656.37
415.318	691.19
415.526	777.2
415.734	744.44
415.943	621.56
416.151	799.73
416.359	693.24
416.567	791.54
416.776	895.99
416.984	1014.77
417.192	969.71
417.4	932.85
417.608	863.22
417.817	1145.84
418.025	977.91
418.233	1162.22
418.441	1147.89
418.649	1115.12
418.857	1260.52
419.065	1235.95
419.273	1211.37
419.481	1217.52
419.689	1487.85
419.897	1459.18
420.105	1367.02
420.313	1461.23
420.521	1600.49
420.729	1512.42
420.937	1604.58
421.145	1608.68
421.353	1844.2
421.561	1823.72
421.769	1862.63
421.977	1985.51
422.185	1852.39
422.393	1993.7
422.601	2173.92
422.809	2059.23
423.017	2194.4
423.224	2218.97
423.432	2327.52
423.64	2405.34
423.848	2593.75
424.056	2462.68
424.263	2681.82
424.471	2726.87
424.679	2816.98
424.887	2907.09
425.094	2921.43
425.302	2993.11
425.51	3036.11
425.718	3195.86
425.925	3128.27
426.133	3296.21
426.341	3529.67
426.548	3623.88
426.756	3734.47
426.964	3892.16
427.171	3881.92
427.379	4062.15
427.586	4062.15
427.794	4428.73
428.001	4275.13
428.209	4723.64
428.417	4666.3
428.624	4881.33
428.832	4936.63
429.039	4871.09
429.247	4897.72
429.454	5221.3
429.662	5643.18
429.869	5245.87
430.076	5755.82
430.284	5442.48
430.491	5761.96
430.699	6073.25
430.906	6126.5
431.114	6210.47
431.321	6353.82
431.528	6544.28
431.736	6910.87
431.943	7494.54
432.15	6935.45
432.358	7054.23
432.565	7617.42
432.772	7685
432.979	7963.53
433.187	8004.49
433.394	8063.88
433.601	8555.39
433.808	8600.44
434.016	8676.22
434.223	9001.85
434.43	9421.68
434.637	9374.58
434.844	9886.57
435.052	10140.52
435.259	10171.24
435.466	10273.64
435.673	10109.8
435.88	10609.5
436.087	11027.29
436.294	11324.24
436.501	11178.84
436.708	11176.79
436.915	11430.74
437.122	12077.9
437.329	12147.53
437.537	12391.23
437.743	12616.51
437.95	12720.96
438.157	13218.61
438.364	13712.17
438.571	13742.89
438.778	13857.58
438.985	15049.5
439.192	14533.41
439.399	14807.84
439.606	14674.72
439.813	15403.8
440.02	16259.85
440.227	15835.92
440.433	15772.43
440.64	16339.72
440.847	16069.39
441.054	16755.46
441.261	17631.99
441.467	17480.44
441.674	17881.84
441.881	18422.5
442.088	18453.22
442.294	18006.77
442.501	18926.3
442.708	19137.24
442.914	19761.87
443.121	20667.08
443.328	20175.56
443.534	21873.33
443.741	21019.33
443.948	20454.09
444.154	22504.1
444.361	22289.07
444.568	22198.96
444.774	22340.27
444.981	22680.23
445.187	23509.66
445.394	23906.96
445.6	24011.41
445.807	26116.72
446.013	25133.7
446.22	25531
446.426	26448.49
446.633	26684.01
446.839	27734.62
447.046	26368.62
447.252	28058.2
447.459	28060.24
447.665	28066.39
447.871	29364.8
448.078	30458.42
448.284	29035.08
448.491	29794.87
448.697	31263.27
448.903	31586.85
449.11	31562.27
449.316	31158.82
449.522	31863.32
449.728	32668.17
449.935	32600.59
450.141	32891.4
450.347	33450.5
450.553	32293.4
450.76	33165.83
450.966	34423.28
451.172	33309.19
451.378	34341.36
451.584	33792.51
451.791	34626.03
451.997	34945.51
452.203	35129.83
452.409	35162.6
452.615	34826.73
452.821	33851.9
453.027	33133.06
453.233	35537.38
453.44	33878.52
453.646	34157.05
453.852	34433.52
454.058	34972.14
454.264	33671.68
454.47	34861.55
454.676	33743.36
454.882	34902.51
455.088	31924.76
455.294	32436.75
455.5	33122.82
455.705	33217.03
455.911	31885.85
456.117	30964.26
456.323	30847.53
456.529	29647.42
456.735	30595.63
456.941	29958.71
457.147	29190.72
457.352	28291.66
457.558	28002.9
457.764	28437.07
457.97	27650.65
458.176	27060.84
458.381	26964.58
458.587	25549.43
458.793	25868.92
458.999	24222.35
459.204	26337.9
459.41	25502.33
459.616	23689.88
459.821	23667.35
460.027	23517.85
460.233	23472.79
460.438	22035.12
460.644	22178.48
460.85	21504.7
461.055	21045.95
461.261	20904.64
461.466	19280.6
461.672	18907.87
461.878	20280.01
462.083	18758.37
462.289	18416.36
462.494	18404.07
462.7	17199.87
462.905	16902.91
463.111	17740.53
463.316	17707.76
463.522	17316.6
463.727	17470.2
463.932	17257.21
464.138	16835.33
464.343	17189.63
464.549	16755.46
464.754	17023.74
464.959	17025.79
465.165	16839.42
465.37	16069.39
465.575	15616.79
465.781	16354.05
465.986	16679.68
466.191	16044.81
466.397	15747.86
466.602	14867.23
466.807	15469.33
467.012	15317.78
467.218	15246.1
467.423	15129.37
467.628	15436.56
467.833	15948.56
468.038	15393.56
468.244	14836.51
468.449	15444.76
468.654	15110.94
468.859	14893.85
469.064	14469.92
469.269	13998.89
469.474	14484.26
469.679	14754.59
469.885	14383.91
470.09	14310.18
470.295	14160.68
470.5	13923.12
470.705	14261.03
470.91	13716.27
471.115	13388.6
471.32	13855.53
471.525	13728.56
471.73	13466.42
471.935	13443.89
472.139	12868.41
472.344	12911.42
472.549	13019.96
472.754	12655.42
472.959	12450.63
473.164	12051.27
473.369	12081.99
473.574	12383.04
473.778	12284.74
473.983	12467.01
474.188	12254.02
474.393	11617.1
474.598	11907.91
474.802	11594.58
475.007	11610.96
475.212	11629.39
475.417	11180.89
475.621	11127.64
475.826	11227.99
476.031	10789.72
476.235	10691.42
476.44	11123.54
476.645	10812.25
476.849	10873.69
477.054	10576.73
477.259	10597.21
477.463	10431.33
477.668	10275.68
477.872	10400.61
478.077	10206.05
478.282	10007.4
478.486	10122.09
478.691	9773.93
478.895	9657.2
479.1	9720.68
479.304	9661.29
479.509	9261.94
479.713	9649
479.918	9327.47
480.122	9051
480.326	9376.62
480.531	9227.12
480.735	9329.52
480.94	9091.96
481.144	9433.97
481.348	8944.5
481.553	8887.16
481.757	8915.83
481.961	8938.36
482.166	9327.47
482.37	9024.37
482.574	8872.82
482.778	8911.74
482.983	9108.34
483.187	9020.28
483.391	9073.53
483.595	8981.37
483.8	8897.4
484.004	8913.78
484.208	8964.98
484.412	8989.56
484.616	8913.78
484.821	8833.91
485.025	8864.63
485.229	8973.18
485.433	8782.71
485.637	8932.22
485.841	9071.48
486.045	8821.63
486.249	8876.92
486.453	8729.47
486.657	8973.18
486.861	9104.25
487.065	8577.92
487.269	8739.71
487.473	8557.44
487.677	8932.22
487.881	9065.33
488.085	8756.09
488.289	8938.36
488.493	8911.74
488.697	8862.58
488.901	9075.57
489.105	9010.04
489.309	8960.89
489.512	9118.58
489.716	8924.02
489.92	8993.65
490.124	9051
490.328	9116.53
490.531	8981.37
490.735	9177.97
490.939	9141.11
491.143	9280.37
491.346	8919.93
491.55	9167.73
491.754	9147.25
491.958	9366.39
492.161	9235.32
492.365	9296.75
492.569	9481.07
492.772	9300.85
492.976	9345.91
493.18	9526.13
493.383	9739.12
493.587	9665.39
493.79	9888.62
493.994	9474.93
494.197	9745.26
494.401	9823.08
494.605	9896.81
494.808	9931.62
495.012	10107.75
495.215	10093.41
495.419	10255.2
495.622	10251.11
495.825	10179.43
496.029	10449.76
496.232	10644.32
496.436	10333.03
496.639	10697.56
496.843	10677.09
497.046	10613.6
497.249	10840.92
497.453	10742.62
497.656	11137.88
497.859	11121.49
498.063	11227.99
498.266	11426.64
498.469	11502.42
498.673	11610.96
498.876	11754.32
499.079	11780.94
499.282	11807.56
499.485	12303.17
499.689	12075.85
499.892	12251.97
500.095	12440.39
500.298	12946.23
500.501	12649.28
500.705	12739.39
500.908	12966.71
501.111	13013.82
501.314	13212.47
501.517	13431.6
501.72	13593.39
501.923	13738.8
502.126	13980.46
502.329	14156.58
502.532	14021.42
502.735	14091.05
502.938	14252.84
503.141	14553.89
503.344	14730.02
503.547	14658.34
503.75	15002.4
503.953	15135.51
504.156	15211.29
504.359	15360.79
504.562	15678.22
504.765	15903.5
504.968	15981.32
505.17	16022.28
505.373	16513.8
505.576	16501.51
505.779	16444.17
505.982	16730.88
506.185	16980.73
506.387	17306.36
506.59	17093.37
506.793	17847.02
506.996	17476.34
507.198	17869.55
507.401	18010.86
507.604	17949.42
507.807	18268.91
508.009	18586.34
508.212	18741.99
508.415	18805.47
508.617	18903.78
508.82	19032.8
509.022	19198.68
509.225	19579.61
509.428	19690.2
509.63	20073.17
509.833	20038.35
510.035	20542.15
510.238	20320.97
510.44	20495.05
510.643	20796.1
510.845	21273.28
511.048	20943.55
511.25	21443.26
511.453	21406.39
511.655	22108.85
511.858	21717.68
512.06	22131.37
512.262	22434.47
512.465	22305.45
512.667	22813.35
512.87	22694.57
513.072	23028.38
513.274	23495.32
513.477	23675.54
513.679	23947.92
513.881	24109.71
514.084	24226.45
514.286	24291.98
514.488	24445.58
514.69	25051.78
514.893	25143.94
515.095	24982.15
515.297	25504.38
515.499	25254.53
515.701	25854.58
515.904	26182.26
516.106	26440.3
516.308	26632.81
516.51	26864.23
516.712	26604.14
516.914	27169.38
517.116	27705.95
517.318	27284.06
517.52	27476.57
517.722	27785.82
517.925	27902.55
518.127	28144.21
518.329	28465.74
518.531	28136.02
518.733	28965.45
518.935	29006.41
519.136	29125.19
519.338	29563.45
519.54	29964.85
519.742	29962.81
519.944	29893.18
520.146	30747.18
520.348	30409.26
520.55	30736.94
520.752	31003.17
520.954	31619.61
521.155	30863.91
521.357	31848.99
521.559	31605.28
521.761	32379.41
521.963	32506.38
522.164	32279.06
522.366	32688.65
522.568	32293.4
522.77	32711.18
522.971	33690.11
523.173	33212.93
523.375	33290.76
523.576	33665.53
523.778	33698.3
523.98	33745.41
524.181	33884.67
524.383	34052.6
524.584	34681.33
524.786	34550.26
524.988	34570.74
525.189	34605.55
525.391	34689.52
525.592	35287.53
525.794	35152.36
525.995	35248.61
526.197	34978.28
526.398	35779.04
526.6	35535.33
526.801	35611.1
527.003	35617.25
527.204	35774.94
527.406	36393.43
527.607	36186.58
527.808	36590.03
528.01	35688.93
528.211	36248.02
528.412	36938.19
528.614	36813.26
528.815	36645.33
529.016	37319.11
529.218	36833.74
529.419	37038.54
529.62	37085.64
529.822	36825.55
530.023	37142.99
530.224	37177.8
530.425	37261.77
530.626	36923.85
530.828	37239.24
531.029	37982.65
531.23	37024.2
531.431	37259.72
531.632	37519.81
531.833	37765.57
532.035	37345.73
532.236	37763.52
532.437	37910.97
532.638	37667.27
532.839	37566.91
533.04	37816.77
533.241	37286.34
533.442	38259.13
533.643	38007.23
533.844	37532.1
534.045	37890.49
534.246	37882.3
534.447	37702.08
534.648	37562.82
534.849	38072.76
535.05	37388.74
535.251	37777.86
535.451	37616.07
535.652	37726.66
535.853	37824.96
536.054	38164.92
536.255	38017.47
536.456	37441.99
536.657	38035.9
536.857	37663.17
537.058	37648.83
537.259	38033.85
537.46	38013.37
537.66	37722.56
537.861	37876.16
538.062	37566.91
538.263	38183.35
538.463	37949.88
538.664	37630.4
538.865	37587.39
539.065	37712.32
539.266	37747.14
539.466	37984.7
539.667	37677.51
539.868	38328.76
540.068	38144.44
540.269	37640.64
540.469	38046.14
540.67	37593.54
540.87	37978.56
541.071	37747.14
541.271	38218.17
541.472	37624.26
541.672	37693.89
541.873	37390.79
542.073	36901.32
542.274	37902.78
542.474	37503.43
542.675	37657.03
542.875	37546.44
543.075	37554.63
543.276	37317.06
543.476	37755.33
543.676	37339.59
543.877	37630.4
544.077	37505.48
544.277	37538.24
544.478	37689.79
544.678	37462.47
544.878	37700.03
545.078	37521.86
545.279	37530.05
545.479	37251.53
545.679	37267.91
545.879	37255.62
546.079	37485
546.28	37222.86
546.48	36993.48
546.68	37509.57
546.88	37345.73
547.08	37519.81
547.28	37312.97
547.48	37026.25
547.68	37749.18
547.88	37337.54
548.081	37564.87
548.281	36936.14
548.481	37388.74
548.681	37659.07
548.881	37413.32
549.081	37474.76
549.28	36913.61
549.48	37218.76
549.68	37116.36
549.88	37827.01
550.08	36817.36
550.28	37401.03
550.48	37382.6
550.68	37497.28
550.88	36968.91
551.08	37419.46
551.279	37499.33
551.479	36921.8
551.679	37278.15
551.879	36749.78
552.079	37206.47
552.278	37091.79
552.478	37114.31
552.678	37126.6
552.878	37038.54
553.077	36684.24
553.277	36651.47
553.477	37018.06
553.676	36989.39
553.876	36450.77
554.076	36862.41
554.275	36692.43
554.475	36436.44
554.674	37059.02
554.874	36692.43
555.074	36706.77
555.273	36604.37
555.473	36731.34
555.672	36579.79
555.872	36706.77
556.071	36428.24
556.271	36891.09
556.47	36112.86
556.67	35873.24
556.869	36059.61
557.068	36370.9
557.268	36430.29
557.467	36561.36
557.667	36293.08
557.866	36641.23
558.065	36200.92
558.265	35908.06
558.464	36137.43
558.663	36317.65
558.863	35803.61
559.062	36110.81
559.261	35824.09
559.461	36501.97
559.66	35670.5
559.859	35598.82
560.058	35465.7
560.258	35899.87
560.457	35764.7
560.656	36028.89
560.855	35660.26
561.054	35942.88
561.253	35437.03
561.453	35971.55
561.652	35858.91
561.851	35477.99
562.05	35109.35
562.249	35267.05
562.448	35695.07
562.647	35316.2
562.846	35303.91
563.045	35281.38
563.244	35140.07
563.443	35602.91
563.642	34822.64
563.841	35002.86
564.04	35095.02
564.239	35318.25
564.438	34830.83
564.637	35002.86
564.836	35219.94
565.035	34365.94
565.234	34710
565.432	34349.56
565.631	34865.64
565.83	34771.44
566.029	34259.45
566.228	33829.37
566.427	34298.36
566.625	33954.3
566.824	33733.12
567.023	34030.07
567.222	33696.25
567.42	34085.37
567.619	34126.33
567.818	33831.42
568.016	34032.12
568.215	34099.7
568.414	33780.22
568.612	33937.91
568.811	33821.18
569.01	33364.48
569.208	33174.02
569.407	33559.04
569.605	33155.59
569.804	33462.79
570.002	32895.5
570.201	33292.8
570.4	33024.52
570.598	32860.68
570.797	32872.97
570.995	33010.18
571.193	32524.82
571.392	32975.37
571.59	32598.54
571.789	32893.45
571.987	32537.1
572.186	32295.44
572.384	32383.51
572.582	32909.83
572.781	32746
572.979	32207.38
573.177	32238.1
573.376	32565.78
573.574	32057.88
573.772	31969.82
573.971	31926.81
574.169	31982.1
574.367	31777.31
574.565	31853.08
574.763	31623.71
574.962	31767.07
575.16	31560.22
575.358	31728.16
575.556	31234.6
575.754	31857.18
575.952	31033.89
576.151	31812.12
576.349	31031.85
576.547	31224.36
576.745	31033.89
576.943	31134.24
577.141	31005.22
577.339	30915.11
577.537	30569.01
577.735	30749.23
577.933	30425.65
578.131	31164.96
578.329	30507.57
578.527	30186.04
578.725	30222.9
578.923	30560.81
579.121	30147.12
579.319	30181.94
579.516	30345.78
579.714	30464.56
579.912	30222.9
580.11	29755.96
580.308	30067.25
580.506	29946.42
580.704	29633.08
580.901	29788.73
581.099	30005.81
581.297	29428.29
581.495	29444.67
581.692	29495.87
581.89	29309.5
582.088	29846.07
582.285	29448.77
582.483	29258.31
582.681	29282.88
582.878	29049.41
583.076	28744.27
583.274	28889.67
583.471	28711.5
583.669	28549.71
583.866	28820.04
584.064	28961.35
584.262	28428.88
584.459	28633.68
584.657	28668.49
584.854	28676.68
585.052	27562.59
585.249	28107.35
585.447	28295.76
585.644	28021.33
585.841	28127.83
586.039	28486.22
586.236	27601.5
586.434	27513.44
586.631	27740.76
586.828	27806.3
587.026	27589.21
587.223	27314.78
587.42	27562.59
587.618	27540.06
587.815	27138.66
588.012	27230.82
588.21	27193.95
588.407	27210.34
588.604	26954.34
588.801	26819.17
588.999	26835.56
589.196	26804.84
589.393	27152.99
589.59	26661.48
589.787	26423.92
589.984	26421.87
590.182	25961.08
590.379	26450.54
590.576	26430.06
590.773	26208.88
590.97	26389.1
591.167	26278.51
591.364	26200.69
591.561	26268.27
591.758	25809.53
591.955	25858.68
592.152	25772.66
592.349	25592.44
592.546	25588.35
592.743	25426.56
592.94	25432.7
593.137	25342.59
593.334	25535.1
593.531	25057.92
593.727	25565.82
593.924	25430.65
594.121	24933
594.318	25246.33
594.515	24664.71
594.712	25035.39
594.908	24855.17
595.105	24898.18
595.302	24730.25
595.499	24834.69
595.696	24431.24
595.892	24607.37
596.089	24560.27
596.286	24740.49
596.482	24066.7
596.679	24396.43
596.876	24208.01
597.072	24103.57
597.269	24304.27
597.466	23825.04
597.662	23624.34
597.859	24144.53
598.055	23933.59
598.252	23876.24
598.448	23464.6
598.645	23712.41
598.841	23464.6
599.038	23648.92
599.234	23429.79
599.431	23112.35
599.627	23118.5
599.824	23216.8
600.02	22997.67
600.217	23030.43
600.413	22938.27
600.609	22854.31
600.806	22934.18
601.002	22983.33
601.198	22518.44
601.395	22575.78
601.591	22475.43
601.787	22557.35
601.984	22493.86
602.18	22700.71
602.376	22424.23
602.572	22270.64
602.769	22264.49
602.965	22186.67
603.161	21932.72
603.357	21789.36
603.553	22133.42
603.75	21969.58
603.946	21611.19
604.142	21695.16
604.338	21232.32
604.534	21715.64
604.73	21619.38
604.926	21281.47
605.122	21779.12
605.318	21349.05
605.514	21279.42
605.71	21232.32
605.906	21381.82
606.102	21015.23
606.298	21287.61
606.494	21062.33
606.69	21080.77
606.886	21088.96
607.082	20536.01
607.278	21021.38
607.474	20259.53
607.67	20929.22
607.866	20314.83
608.062	20898.5
608.257	20406.98
608.453	20304.59
608.649	20609.73
608.845	20378.31
609.041	20685.51
609.236	20609.73
609.432	20210.38
609.628	20388.55
609.824	20128.46
610.019	20204.24
610.215	20427.46
610.411	19899.09
610.606	19847.89
610.802	20073.17
610.998	19952.34
611.193	19837.65
611.389	19892.94
611.584	19751.63
611.78	19794.64
611.976	19940.05
612.171	19890.9
612.367	19823.31
612.562	19507.93
612.758	19624.66
612.953	19395.29
613.149	19944.14
613.344	19370.71
613.539	19821.27
613.735	19403.48
613.93	19534.55
614.126	19315.42
614.321	19663.57
614.517	19405.53
614.712	19262.17
614.907	19401.43
615.103	19604.18
615.298	19102.43
615.493	19682
615.688	18903.78
615.884	19442.39
616.079	18940.64
616.274	19237.59
616.47	19180.25
616.665	19233.5
616.86	18766.56
617.055	18731.75
617.25	18678.5
617.445	18899.68
617.641	18442.98
617.836	18647.78
618.031	18602.72
618.226	18692.83
618.421	18244.33
618.616	18666.21
618.811	18406.12
619.006	18791.14
619.201	18416.36
619.396	18078.44
619.591	18090.73
619.786	18395.88
619.981	17793.78
620.176	18246.38
620.371	17609.46
620.566	17875.7
620.761	17830.64
620.956	17894.13
621.151	17521.4
621.346	17732.34
621.541	17404.66
621.735	17558.26
621.93	17320.7
622.125	17226.49
622.32	16886.53
622.515	16999.16
622.709	17046.27
622.904	16714.5
623.099	16960.25
623.294	16714.5
623.488	16659.2
623.683	16788.22
623.878	16612.1
624.072	16569.09
624.267	16288.52
624.462	16376.58
624.656	16026.38
624.851	16343.81
625.046	15917.84
625.24	16063.24
625.435	15760.14
625.629	15766.29
625.824	15588.11
626.018	15575.83
626.213	15250.2
626.407	15411.99
626.602	15229.72
626.796	15334.17
626.991	15178.52
627.185	15092.51
627.38	14836.51
627.574	14971.68
627.768	14910.24
627.963	14887.71
628.157	14807.84
628.352	14725.92
628.546	14320.42
628.74	14492.45
628.935	14054.19
629.129	14424.87
629.323	14033.71
629.517	14342.95
629.712	14187.3
629.906	13888.3
630.1	13906.73
630.294	13925.16
630.489	13982.51
630.683	13908.78
630.877	13482.8
631.071	13673.26
631.265	13527.86
631.459	13447.99
631.653	13325.11
631.848	13511.47
632.042	13398.84
632.236	13212.47
632.43	13183.8
632.624	13019.96
632.818	13046.58
633.012	12747.58
633.206	12737.34
633.4	12849.98
633.594	12809.02
633.788	12714.81
633.982	12464.96
634.176	12606.27
634.369	12577.6
634.563	12452.67
634.757	12288.84
634.951	12256.07
635.145	12245.83
635.339	12217.16
635.533	12133.19
635.726	12133.19
635.92	11840.33
636.114	11891.53
636.308	11922.25
636.501	12139.33
636.695	11715.41
636.889	11586.38
637.083	11451.22
637.276	11608.91
637.47	11682.64
637.664	11314
637.857	11328.34
638.051	11324.24
638.244	11291.48
638.438	11322.2
638.632	11076.44
638.825	11107.16
639.019	11078.49
639.212	10908.51
639.406	11117.4
639.599	10834.78
639.793	10730.33
639.986	10746.72
640.18	10765.15
640.373	10687.32
640.567	10558.3
640.76	10576.73
640.954	10603.36
641.147	10328.93
641.34	10361.7
641.534	10447.71
641.727	10343.27
641.92	10230.63
642.114	10210.15
642.307	10101.61
642.5	10044.26
642.694	9798.51
642.887	9950.06
643.08	10105.7
643.273	9894.76
643.467	9835.37
643.66	9552.75
643.853	9634.67
644.046	9775.98
644.239	9597.81
644.432	9538.41
644.626	9417.58
644.819	9487.22
645.012	9458.54
645.205	9517.93
645.398	9296.75
645.591	9450.35
645.784	9319.28
645.977	9261.94
646.17	9130.87
646.363	8987.51
646.556	9024.37
646.749	9118.58
646.942	8954.74
647.135	8971.13
647.328	8745.85
647.521	8915.83
647.714	8627.07
647.907	8682.36
648.099	8625.02
648.292	8680.32
648.485	8571.77
648.678	8618.88
648.871	8459.13
649.064	8598.4
649.256	8502.14
649.449	8297.35
649.642	8307.59
649.835	8283.01
650.027	8123.27
650.22	8346.5
650.413	8186.76
650.605	8303.49
650.798	8213.38
650.991	7996.29
651.183	7879.56
651.376	8047.49
651.568	7965.57
651.761	7914.38
651.954	7938.95
652.146	7865.22
652.339	7703.43
652.531	7803.78
652.724	7662.48
652.916	7545.74
653.109	7701.39
653.301	7701.39
653.494	7549.84
653.686	7353.23
653.879	7383.95
654.071	7330.7
654.263	7439.25
654.456	7347.09
654.648	7453.58
654.84	7144.34
655.033	7152.53
655.225	7256.98
655.417	7130
655.61	7107.48
655.802	7142.29
655.994	7103.38
656.186	7175.06
656.379	7066.52
656.571	6810.52
656.763	6736.79
656.955	6687.64
657.148	7029.65
657.34	6900.63
657.532	6755.22
657.724	6968.21
657.916	6837.14
658.108	6773.66
658.3	6566.81
658.492	6599.58
658.684	6388.64
658.876	6527.9
659.068	6556.57
659.26	6405.02
659.452	6382.49
659.644	6468.51
659.836	6448.03
660.028	6458.27
660.22	6206.37
660.412	6230.94
660.604	6282.14
660.796	6124.45
660.988	6237.09
661.18	6056.87
661.372	5944.23
661.563	6083.49
661.755	6013.86
661.947	6009.76
662.139	6167.46
662.331	5950.37
662.522	5712.81
662.714	5911.46
662.906	5858.21
663.097	5802.92
663.289	5800.87
663.481	5807.02
663.673	5911.46
663.864	5745.58
664.056	5751.72
664.247	5620.65
664.439	5641.13
664.631	5708.71
664.822	5655.47
665.014	5704.62
665.205	5454.76
665.397	5585.83
665.588	5583.79
665.78	5368.75
665.971	5596.07
666.163	5329.84
666.354	5381.04
666.546	5264.3
666.737	5190.58
666.929	5282.74
667.12	5317.55
667.311	5206.96
667.503	5243.82
667.694	5221.3
667.885	5163.95
668.077	5178.29
668.268	4977.59
668.459	5022.64
668.651	5030.84
668.842	5053.36
669.033	5032.88
669.224	5041.08
669.416	4996.02
669.607	5110.71
669.798	4942.77
669.989	4897.72
670.18	5049.27
670.371	4842.42
670.563	4905.91
670.754	4895.67
670.945	4844.47
671.136	4795.32
671.327	4776.89
671.518	4772.79
671.709	4756.41
671.9	4813.75
672.091	4713.4
672.282	4654.01
672.473	4791.22
672.664	4797.37
672.855	4555.71
673.046	4688.82
673.237	4666.3
673.428	4500.41
673.619	4522.94
673.809	4664.25
674	4565.95
674.191	4461.5
674.382	4340.67
674.573	4580.28
674.764	4592.57
674.954	4516.8
675.145	4430.78
675.336	4373.44
675.527	4355.01
675.717	4451.26
675.908	4424.64
676.099	4447.16
676.289	4379.58
676.48	4324.29
676.671	4412.35
676.861	4490.17
677.052	4430.78
677.243	4088.77
677.433	4191.17
677.624	4373.44
677.814	4252.61
678.005	4312
678.195	4285.37
678.386	4164.54
678.576	4240.32
678.767	4223.94
678.957	4144.06
679.148	4225.98
679.338	4205.5
679.529	4060.1
679.719	4043.71
679.909	4211.65
680.1	3980.23
680.29	4174.78
680.481	4066.24
680.671	4203.46
680.861	4139.97
681.052	4068.29
681.242	4125.63
681.432	4142.02
681.622	4066.24
681.813	4111.3
682.003	4125.63
682.193	3914.69
682.383	4107.2
682.573	4019.14
682.764	3965.89
682.954	3953.6
683.144	4101.06
683.334	4012.99
683.524	3965.89
683.714	4006.85
683.904	3912.64
684.094	3890.12
684.284	3881.92
684.474	3969.99
684.664	3879.88
684.854	3951.56
685.044	3877.83
685.234	3865.54
685.424	3859.4
685.614	3873.73
685.804	4017.09
685.994	3703.75
686.184	3744.71
686.374	3865.54
686.564	3783.62
686.753	3804.1
686.943	3707.85
687.133	3822.53
687.323	3593.16
687.513	3773.38
687.702	3810.25
687.892	3580.87
688.082	3558.35
688.272	3568.59
688.461	3554.25
688.651	3744.71
688.841	3484.62
689.03	3574.73
689.22	3480.52
689.41	3558.35
689.599	3498.95
689.789	3537.87
689.979	3638.22
690.168	3541.96
690.358	3380.17
690.547	3503.05
690.737	3376.08
690.926	3541.96
691.116	3380.17
691.305	3378.12
691.495	3341.26
691.684	3371.98
691.874	3331.02
692.063	3292.11
692.252	3322.83
692.442	3328.97
692.631	3273.68
692.82	3232.72
693.01	3218.38
693.199	3173.33
693.388	3236.81
693.578	3093.46
693.767	3249.1
693.956	3138.51
694.146	3158.99
694.335	2980.82
694.524	3167.18
694.713	3105.74
694.902	3136.46
695.092	3089.36
695.281	3054.55
695.47	2907.09
695.659	3173.33
695.848	3054.55
696.037	2976.72
696.226	2974.67
696.415	3062.74
696.604	3036.11
696.793	3070.93
696.982	3060.69
697.171	2964.43
697.36	3032.02
697.549	2989.01
697.738	2919.38
697.927	2859.99
698.116	3001.3
698.305	2841.56
698.494	2921.43
698.683	2849.75
698.872	3019.73
699.061	2866.13
699.25	2941.91
699.438	2888.66
699.627	2886.61
699.816	2937.81
700.005	2982.87
700.193	3013.59
700.382	2757.59
700.571	2859.99
700.76	2931.67
700.948	2814.93
701.137	2741.21
701.326	2853.84
701.514	2821.08
701.703	2845.65
701.892	2745.3
702.08	2816.98
702.269	2726.87
702.457	2759.64
702.646	2669.53
702.834	2802.65
703.023	2786.26
703.212	2702.29
703.4	2692.05
703.589	2683.86
703.777	2622.42
703.965	2825.17
704.154	2681.82
704.342	2866.13
704.531	2614.23
704.719	2640.86
704.907	2720.73
705.096	2601.94
705.284	2593.75
705.472	2700.25
705.661	2706.39
705.849	2630.62
706.037	2714.58
706.226	2597.85
706.414	2681.82
706.602	2661.34
706.79	2714.58
706.979	2718.68
707.167	2728.92
707.355	2780.12
707.543	2765.78
707.731	2704.34
707.919	2560.98
708.107	2681.82
708.296	2597.85
708.484	2548.7
708.672	2663.38
708.86	2612.18
709.048	2720.73
709.236	2644.95
709.424	2636.76
709.612	2808.79
709.8	2573.27
709.988	2681.82
710.176	2765.78
710.364	2634.71
710.551	2677.72
710.739	2638.81
710.927	2526.17
711.115	2595.8
711.303	2733.01
711.491	2694.1
711.679	2597.85
711.866	2608.09
712.054	2718.68
712.242	2587.61
712.43	2718.68
712.617	2612.18
712.805	2618.33
712.993	2659.29
713.181	2591.7
713.368	2610.14
713.556	2702.29
713.744	2565.08
713.931	2683.86
714.119	2632.66
714.306	2573.27
714.494	2741.21
714.682	2595.8
714.869	2579.42
715.057	2556.89
715.244	2706.39
715.432	2773.97
715.619	2599.9
715.807	2614.23
715.994	2679.77
716.182	2593.75
716.369	2683.86
716.556	2769.88
716.744	2548.7
716.931	2599.9
717.119	2659.29
717.306	2554.84
717.493	2595.8
717.681	2704.34
717.868	2579.42
718.055	2636.76
718.242	2638.81
718.43	2644.95
718.617	2663.38
718.804	2671.58
718.991	2649.05
719.179	2810.84
719.366	2718.68
719.553	2649.05
719.74	2616.28
719.927	2659.29
720.114	2776.02
720.301	2667.48
720.488	2622.42
720.676	2495.45
720.863	2608.09
721.05	2671.58
721.237	2638.81
721.424	2655.19
721.611	2790.36
721.798	2726.87
721.985	2569.18
722.172	2694.1
722.358	2626.52
722.545	2673.62
722.732	2728.92
722.919	2741.21
723.106	2710.49
723.293	2667.48
723.48	2706.39
723.667	2640.86
723.853	2706.39
724.04	2716.63
724.227	2673.62
724.414	2628.57
724.6	2683.86
724.787	2753.49
724.974	2743.25
725.161	2647
725.347	2626.52
725.534	2700.25
725.72	2669.53
725.907	2730.97
726.094	2794.45
726.28	2857.94
726.467	2698.2
726.653	2702.29
726.84	2802.65
727.027	2720.73
727.213	2606.04
727.4	2753.49
727.586	2821.08
727.773	2743.25
727.959	2780.12
728.145	2753.49
728.332	2784.21
728.518	2819.03
728.705	2751.45
728.891	2757.59
729.077	2890.71
729.264	2816.98
729.45	2749.4
729.636	2903
729.823	2761.69
730.009	2923.48
730.195	2804.69
730.382	2874.32
730.568	2843.6
730.754	2749.4
730.94	2831.32
731.126	2952.15
731.313	2792.41
731.499	2917.33
731.685	2970.58
731.871	2819.03
732.057	2790.36
732.243	2819.03
732.429	2862.04
732.615	2841.56
732.801	2845.65
732.987	2890.71
733.173	2954.19
733.359	2999.25
733.545	2929.62
733.731	2853.84
733.917	2859.99
734.103	2974.67
734.289	2946
734.475	2927.57
734.661	2952.15
734.847	2915.28
735.033	2909.14
735.219	2866.13
735.404	2911.19
735.59	2888.66
735.776	2847.7
735.962	3013.59
736.148	3017.68
736.333	3015.63
736.519	2927.57
736.705	2964.43
736.89	2931.67
737.076	2984.91
737.262	3109.84
737.447	3009.49
737.633	2970.58
737.819	2929.62
738.004	3017.68
738.19	2966.48
738.375	2907.09
738.561	3015.63
738.747	2952.15
738.932	3013.59
739.118	3091.41
739.303	2982.87
739.489	2882.52
739.674	3103.7
739.859	2966.48
740.045	3029.97
740.23	2952.15
740.416	2952.15
740.601	2972.63
740.786	2862.04
740.972	2886.61
741.157	3128.27
741.342	2866.13
741.528	3025.87
741.713	2982.87
741.898	2941.91
742.084	2921.43
742.269	2909.14
742.454	2917.33
742.639	2958.29
742.824	3064.79
743.01	2954.19
743.195	3021.78
743.38	2978.77
743.565	2878.42
743.75	2948.05
743.935	2843.6
744.12	3005.39
744.305	2859.99
744.49	2831.32
744.675	2960.34
744.86	2907.09
745.045	2876.37
745.23	2825.17
745.415	2812.89
745.6	2767.83
745.785	2884.56
745.97	2825.17
746.155	2776.02
746.34	2939.86
746.525	2726.87
746.71	2792.41
746.895	2769.88
747.079	2716.63
747.264	2735.06
747.449	2751.45
747.634	2677.72
747.819	2694.1
748.003	2827.22
748.188	2782.17
748.373	2792.41
748.557	2716.63
748.742	2700.25
748.927	2692.05
749.111	2632.66
749.296	2653.14
749.481	2679.77
749.665	2638.81
749.85	2597.85
750.034	2491.35
750.219	2509.79
750.404	2655.19
750.588	2491.35
750.773	2466.78
750.957	2603.99
751.141	2464.73
751.326	2618.33
751.51	2552.79
751.695	2399.2
751.879	2509.79
752.064	2540.51
752.248	2446.3
752.432	2505.69
752.617	2370.52
752.801	2419.68
752.985	2348
753.17	2477.02
753.354	2413.53
753.538	2417.63
753.722	2272.22
753.907	2272.22
754.091	2333.66
754.275	2247.65
754.459	2317.28
754.643	2202.59
754.828	2286.56
755.012	2251.74
755.196	2212.83
755.38	2114.53
755.564	2208.73
755.748	2182.11
755.932	2229.21
756.116	2135.01
756.3	2098.14
756.484	2153.44
756.668	2044.9
756.852	2087.9
757.036	2034.66
757.22	2018.27
757.404	2085.86
757.588	1985.51
757.772	2085.86
757.956	2077.66
758.14	2114.53
758.323	1903.59
758.507	1917.92
758.691	1936.35
758.875	1952.74
759.059	2063.33
759.242	1946.59
759.426	2089.95
759.61	1866.72
759.794	1897.44
759.977	1958.88
760.161	1958.88
760.345	1913.83
760.528	1838.05
760.712	1850.34
760.895	1829.86
761.079	1848.29
761.263	1801.19
761.446	1852.39
761.63	1786.85
761.813	1864.68
761.997	1833.96
762.18	1854.44
762.364	1793
762.547	1774.56
762.731	1749.99
762.914	1825.76
763.098	1770.47
763.281	1737.7
763.464	1747.94
763.648	1754.09
763.831	1731.56
764.015	1729.51
764.198	1666.02
764.381	1706.98
764.564	1764.33
764.748	1684.45
764.931	1795.04
765.114	1711.08
765.297	1686.5
765.481	1598.44
765.664	1776.61
765.847	1682.41
766.03	1711.08
766.213	1571.82
766.397	1547.24
766.58	1668.07
766.763	1573.86
766.946	1623.02
767.129	1692.65
767.312	1485.8
767.495	1575.91
767.678	1489.9
767.861	1571.82
768.044	1414.12
768.227	1520.62
768.41	1508.33
768.593	1582.06
768.776	1577.96
768.959	1502.19
769.142	1580.01
769.324	1508.33
769.507	1477.61
769.69	1493.99
769.873	1561.58
770.056	1604.58
770.239	1440.75
770.421	1465.32
770.604	1471.47
770.787	1430.51
770.97	1369.07
771.152	1457.13
771.335	1450.99
771.518	1305.58
771.7	1387.5
771.883	1391.59
772.066	1391.59
772.248	1438.7
772.431	1403.88
772.613	1326.06
772.796	1450.99
772.978	1448.94
773.161	1381.35
773.343	1342.44
773.526	1385.45
773.708	1211.37
773.891	1211.37
774.073	1252.33
774.256	1272.81
774.438	1324.01
774.621	1272.81
774.803	1262.57
774.985	1135.6
775.168	1344.49
775.35	1219.57
775.532	1194.99
775.715	1203.18
775.897	1324.01
776.079	1223.66
776.261	1295.34
776.444	1225.71
776.626	1096.69
776.808	1123.31
776.99	1090.54
777.173	1162.22
777.355	1094.64
777.537	1123.31
777.719	1149.93
777.901	1108.98
778.083	1213.42
778.265	1033.2
778.447	1182.7
778.629	1059.82
778.811	1016.82
778.993	1086.45
779.175	1045.49
779.357	1037.3
779.539	1068.02
779.721	1082.35
779.903	1039.34
780.085	1031.15
780.267	1070.06
780.449	936.95
780.631	1004.53
780.812	979.95
780.994	914.42
781.176	975.86
781.358	932.85
781.54	900.08
781.721	957.43
781.903	904.18
782.085	938.99
782.267	965.62
782.448	842.74
782.63	785.4
782.812	930.8
782.993	879.6
783.175	924.66
783.357	838.64
783.538	773.11
783.72	881.65
783.901	852.98
784.083	818.16
784.264	816.12
784.446	795.64
784.627	762.87
784.809	769.01
784.99	799.73
785.172	863.22
785.353	740.34
785.535	715.77
785.716	842.74
785.897	736.24
786.079	717.81
786.26	734.2
786.441	750.58
786.623	713.72
786.804	715.77
786.985	777.2
787.167	734.2
787.348	740.34
787.529	791.54
787.71	783.35
787.891	629.75
788.073	617.46
788.254	680.95
788.435	650.23
788.616	652.28
788.797	637.94
788.978	642.04
789.159	664.57
789.34	646.13
789.522	508.92
789.703	654.33
789.884	609.27
790.065	742.39
790.246	693.24
790.427	644.09
790.607	658.42
790.788	660.47
790.969	631.8
791.15	625.65
791.331	619.51
791.512	556.02
791.693	607.22
791.874	441.34
792.054	562.17
792.235	607.22
792.416	506.87
792.597	476.15
792.778	594.93
792.958	650.23
793.139	572.41
793.32	441.34
793.5	539.64
793.681	619.51
793.862	611.32
794.042	480.25
794.223	484.34
794.404	553.98
794.584	470.01
794.765	496.63
794.945	504.82
795.126	570.36
795.306	551.93
795.487	490.49
795.667	463.86
795.848	543.74
796.028	429.05
796.209	513.02
796.389	480.25
796.57	451.58
796.75	386.04
796.93	498.68
797.111	455.67
797.291	453.63
797.471	502.78
797.652	424.95
797.832	451.58
798.012	443.39
798.192	433.15
798.373	488.44
798.553	488.44
798.733	445.43
798.913	443.39
799.093	435.19
799.274	414.71
799.454	533.5
799.634	410.62
799.814	463.86
799.994	402.43
800.174	406.52
800.354	476.15
800.534	478.2
800.714	414.71
800.894	418.81
801.074	351.23
801.254	363.51
801.434	408.57
801.614	388.09
801.794	355.32
801.974	1045.49
802.154	320.51
802.334	429.05
802.514	302.08
802.693	367.61
802.873	322.56
803.053	334.84
803.233	377.85
803.413	332.79
803.592	371.71
803.772	400.38
803.952	369.66
804.131	324.6
804.311	392.19
804.491	398.33
804.67	359.42
804.85	359.42
805.03	355.32
805.209	343.03
805.389	263.16
805.568	338.94
805.748	293.88
805.928	302.08
806.107	379.9
806.287	285.69
806.466	332.79
806.646	351.23
806.825	324.6
807.004	252.92
807.184	300.03
807.363	273.4
807.543	369.66
807.722	248.83
807.901	369.66
808.081	308.22
808.26	312.32
808.439	338.94
808.619	236.54
808.798	326.65
808.977	312.32
809.156	361.47
809.336	240.64
809.515	287.74
809.694	279.55
809.873	279.55
810.052	310.27
810.231	353.27
810.411	281.6
810.59	232.44
810.769	246.78
810.948	347.13
811.127	259.07
811.306	279.55
811.485	326.65
811.664	273.4
811.843	283.64
812.022	269.31
812.201	150.53
812.38	226.3
812.559	111.61
812.737	287.74
812.916	257.02
813.095	224.25
813.274	257.02
813.453	234.49
813.632	289.79
813.811	230.4
813.989	209.92
814.168	267.26
814.347	232.44
814.526	154.62
814.704	244.73
814.883	269.31
815.062	252.92
815.24	267.26
815.419	207.87
815.598	214.01
815.776	203.77
815.955	224.25
816.133	205.82
816.312	287.74
816.49	222.2
816.669	230.4
816.847	250.88
817.026	304.12
817.204	238.59
817.383	195.58
817.561	252.92
817.74	244.73
817.918	232.44
818.097	209.92
818.275	175.1
818.453	189.44
818.632	269.31
818.81	214.01
818.988	199.68
819.167	130.05
819.345	193.53
819.523	148.48
819.701	240.64
819.879	195.58
820.058	240.64
820.236	187.39
820.414	197.63
820.592	248.83
820.77	177.15
820.948	230.4
821.127	152.57
821.305	238.59
821.483	201.72
821.661	269.31
821.839	177.15
822.017	130.05
822.195	171.01
822.373	216.06
822.551	121.85
822.729	183.29
822.907	95.23
823.085	193.53
823.262	175.1
823.44	232.44
823.618	138.24
823.796	214.01
823.974	218.11
824.152	222.2
824.329	171.01
824.507	224.25
824.685	214.01
824.863	193.53
825.04	199.68
825.218	214.01
825.396	244.73
825.574	187.39
825.751	193.53
825.929	228.35
826.107	99.33
826.284	115.71
826.462	140.29
826.639	164.86
826.817	195.58
826.994	128
827.172	123.9
827.349	189.44
827.527	150.53
827.704	222.2
827.882	164.86
828.059	171.01
828.237	46.08
828.414	199.68
828.591	164.86
828.769	95.23
828.946	72.7
829.124	132.09
829.301	117.76
829.478	193.53
829.655	189.44
829.833	80.89
830.01	87.04
830.187	185.34
830.364	19.46
830.542	171.01
830.719	138.24
830.896	171.01
831.073	166.91
831.25	158.72
831.427	171.01
831.604	189.44
831.782	125.95
831.959	211.96
832.136	156.67
832.313	113.66
832.49	93.18
832.667	162.81
832.844	132.09
833.021	220.16
833.198	189.44
833.374	187.39
833.551	171.01
833.728	125.95
833.905	134.14
834.082	125.95
834.259	105.47
834.436	162.81
834.612	89.09
834.789	115.71
834.966	93.18
835.143	72.7
835.319	140.29
835.496	119.81
835.673	117.76
835.85	162.81
836.026	97.28
836.203	144.38
836.38	156.67
836.556	66.56
836.733	103.42
836.909	183.29
837.086	164.86
837.262	29.7
837.439	44.03
837.616	56.32
837.792	84.99
837.968	84.99
838.145	91.13
838.321	97.28
838.498	115.71
838.674	101.37
838.851	107.52
839.027	111.61
839.203	89.09
839.38	150.53
839.556	152.57
839.732	121.85
839.909	56.32
840.085	117.76
840.261	95.23
840.437	78.85
840.614	113.66
840.79	125.95
840.966	148.48
841.142	103.42
841.318	101.37
841.494	193.53
841.671	105.47
841.847	193.53
842.023	62.46
842.199	123.9
842.375	136.19
842.551	84.99
842.727	68.61
842.903	146.43
843.079	60.42
843.255	105.47
843.431	195.58
843.607	171.01
843.783	33.79
843.959	160.77
844.134	58.37
844.31	121.85
844.486	99.33
844.662	121.85
844.838	107.52
845.013	48.13
845.189	58.37
845.365	97.28
845.541	74.75
845.716	41.98
845.892	144.38
846.068	119.81
846.244	203.77
846.419	60.42
846.595	111.61
846.77	123.9
846.946	101.37
847.122	177.15
847.297	46.08
847.473	54.27
847.648	-31.74
847.824	84.99
847.999	66.56
848.175	74.75
848.35	111.61
848.526	105.47
848.701	68.61
848.876	25.6
849.052	44.03
849.227	64.51
849.403	89.09
849.578	-27.65
849.753	48.13
849.929	132.09
850.104	72.7
850.279	60.42
850.454	70.65
850.63	87.04
850.805	44.03
850.98	119.81
851.155	41.98
851.33	56.32
851.505	82.94
851.681	146.43
851.856	48.13
852.031	31.74
852.206	78.85
852.381	9.22
852.556	113.66
852.731	154.62
852.906	115.71
853.081	78.85
853.256	97.28
853.431	76.8
853.606	15.36
853.781	74.75
853.956	-58.37
854.131	21.5
854.305	89.09
854.48	11.26
854.655	107.52
854.83	17.41
855.005	97.28
855.18	72.7
855.354	33.79
855.529	11.26
855.704	54.27
855.879	148.48
856.053	-27.65
856.228	37.89
856.403	60.42
856.577	87.04
856.752	9.22
856.926	99.33
857.101	52.22
857.276	19.46
857.45	56.32
857.625	62.46
857.799	48.13
857.974	9.22
858.148	-31.74
858.323	37.89
858.497	5.12
858.672	37.89
858.846	11.26
859.02	62.46
859.195	68.61
859.369	29.7
859.543	109.57
859.718	84.99
859.892	39.94
860.066	72.7
860.241	21.5
860.415	87.04
860.589	29.7
860.763	52.22
860.938	-52.22
861.112	7.17
861.286	19.46
861.46	33.79
861.634	35.84
861.808	84.99
861.982	-13.31
862.157	-1.02
862.331	23.55
862.505	50.18
862.679	-15.36
862.853	56.32
863.027	101.37
863.201	31.74
863.375	9.22
863.549	15.36
863.722	66.56
863.896	117.76
864.07	89.09
864.244	62.46
864.418	-13.31
864.592	56.32
864.766	52.22
864.939	39.94
865.113	44.03
865.287	74.75
865.461	-13.31
865.634	-13.31
865.808	15.36
865.982	39.94
866.156	25.6
866.329	105.47
866.503	44.03
866.676	7.17
866.85	33.79
867.024	52.22
867.197	66.56
867.371	25.6
867.544	109.57
867.718	-29.7
867.891	119.81
868.065	35.84
868.238	35.84
868.412	39.94
868.585	23.55
868.759	72.7
868.932	33.79
869.105	-52.22
869.279	39.94
869.452	-50.18
869.625	58.37
869.799	48.13
869.972	62.46
870.145	1.02
870.319	89.09
870.492	-15.36
870.665	21.5
870.838	-5.12
871.011	-5.12
871.185	62.46
871.358	-27.65
871.531	70.65
871.704	5.12
871.877	19.46
872.05	19.46
872.223	1.02
872.396	15.36
872.569	48.13
872.742	13.31
872.915	70.65
873.088	-21.5
873.261	35.84
873.434	31.74
873.607	115.71
873.78	46.08
873.953	-50.18
874.126	78.85
874.299	87.04
874.471	-35.84
874.644	-5.12
874.817	37.89
874.99	93.18
875.163	62.46
875.335	44.03
875.508	19.46
875.681	17.41
875.853	19.46
876.026	-58.37
876.199	74.75
876.371	44.03
876.544	-46.08
876.717	87.04
876.889	41.98
877.062	-1.02
877.234	80.89
877.407	21.5
877.579	-9.22
877.752	37.89
877.924	-35.84
878.097	19.46
878.269	37.89
878.442	-17.41
878.614	41.98
878.786	97.28
878.959	31.74
879.131	74.75
879.303	-17.41
879.476	52.22
879.648	-13.31
879.82	39.94
879.993	64.51
880.165	58.37
880.337	-13.31
880.509	-11.26
880.681	-17.41
880.854	64.51
881.026	5.12
881.198	72.7
881.37	-11.26
881.542	25.6
881.714	-35.84
881.886	-5.12
882.058	1.02
882.23	60.42
882.402	-17.41
882.574	11.26
882.746	33.79
882.918	25.6
883.09	31.74
883.262	-29.7
883.434	19.46
883.606	-19.46
883.778	60.42
883.95	68.61
884.122	7.17
884.293	107.52
884.465	113.66
884.637	132.09
884.809	33.79
884.98	33.79
885.152	5.12
885.324	7.17
885.496	-5.12
885.667	72.7
885.839	-19.46
886.011	13.31
886.182	58.37
886.354	5.12
886.525	52.22
886.697	74.75
886.869	9.22
887.04	35.84
887.212	37.89
887.383	101.37
887.555	9.22
887.726	-25.6
887.897	33.79
888.069	48.13
888.24	68.61
888.412	-3.07
888.583	-21.5
888.754	-11.26
888.926	50.18
889.097	-31.74
889.268	21.5
889.44	-35.84
889.611	-72.7
889.782	31.74
889.953	-25.6
890.125	97.28
890.296	-44.03
890.467	-5.12
890.638	5.12
890.809	33.79
890.98	-11.26
891.151	19.46
891.323	93.18
891.494	-25.6
891.665	66.56
891.836	3.07
892.007	-11.26
892.178	23.55
892.349	-3.07
892.52	-9.22
892.691	25.6
892.862	50.18
893.032	13.31
893.203	-52.22
893.374	56.32
893.545	91.13
893.716	78.85
893.887	21.5
894.057	-3.07
894.228	41.98
894.399	-35.84
894.57	48.13
894.74	-23.55
894.911	41.98
895.082	-72.7
895.253	-35.84
895.423	54.27
895.594	93.18
895.764	37.89
895.935	-39.94
896.106	66.56
896.276	39.94
896.447	19.46
896.617	-31.74
896.788	35.84
896.958	27.65
897.129	-13.31
897.299	41.98
897.47	29.7
897.64	70.65
897.81	-27.65
897.981	44.03
898.151	27.65
898.322	15.36
898.492	82.94
898.662	23.55
898.832	23.55
899.003	5.12
899.173	105.47
899.343	-19.46
899.513	15.36
