Data from USB4F104151__49__12-41-43-191.txt Node

Date: Fri Mar 14 12:41:43 EDT 2025
User: louis
Spectrometer: USB4F10415
Trigger mode: 4
Integration Time (sec): 3.000000E-2
Scans to average: 1
Electric dark correction enabled: true
Nonlinearity correction enabled: false
Boxcar width: 0
XAxis mode: Wavelengths
Number of Pixels in Spectrum: 3648
>>>>>Begin Spectral Data<<<<<
178.204	-108.2
178.424	-108.2
178.644	-108.2
178.864	-165.54
179.084	-118.44
179.304	-61.1
179.524	8.53
179.744	-1.71
179.964	49.49
180.184	45.4
180.404	-20.14
180.624	-40.62
180.844	-22.19
181.064	-7.85
181.283	-30.38
181.503	16.73
181.723	63.83
181.943	24.92
182.163	92.5
182.383	35.16
182.602	24.92
182.822	14.68
183.042	14.68
183.262	29.01
183.482	53.59
183.701	59.73
183.921	-40.62
184.141	14.68
184.361	61.78
184.58	41.3
184.8	14.68
185.02	6.49
185.239	12.63
185.459	-18.09
185.679	53.59
185.898	-9.9
186.118	31.06
186.338	-5.8
186.557	100.69
186.777	-36.52
186.997	2.39
187.216	2.39
187.436	57.68
187.655	0.34
187.875	24.92
188.095	31.06
188.314	47.44
188.534	51.54
188.753	33.11
188.973	45.4
189.192	98.64
189.412	8.53
189.631	55.64
189.851	-9.9
190.07	72.02
190.29	59.73
190.509	-40.62
190.729	2.39
190.948	31.06
191.168	59.73
191.387	47.44
191.607	4.44
191.826	-7.85
192.045	-28.33
192.265	18.77
192.484	29.01
192.704	53.59
192.923	6.49
193.142	57.68
193.362	-3.75
193.581	51.54
193.8	12.63
194.02	90.45
194.239	-9.9
194.458	33.11
194.678	10.58
194.897	-9.9
195.116	-69.29
195.335	37.2
195.555	37.2
195.774	37.2
195.993	92.5
196.212	14.68
196.432	76.12
196.651	-3.75
196.87	43.35
197.089	117.08
197.308	92.5
197.528	65.88
197.747	-46.76
197.966	-11.95
198.185	106.84
198.404	45.4
198.623	59.73
198.842	4.44
199.062	24.92
199.281	92.5
199.5	0.34
199.719	78.16
199.938	43.35
200.157	0.34
200.376	84.31
200.595	63.83
200.814	24.92
201.033	10.58
201.252	-9.9
201.471	0.34
201.69	41.3
201.909	78.16
202.128	20.82
202.347	14.68
202.566	69.97
202.785	37.2
203.004	24.92
203.223	86.36
203.442	22.87
203.661	8.53
203.879	-54.95
204.098	39.25
204.317	-83.63
204.536	57.68
204.755	-5.8
204.974	0.34
205.193	-26.28
205.411	80.21
205.63	8.53
205.849	31.06
206.068	90.45
206.287	2.39
206.505	59.73
206.724	-46.76
206.943	31.06
207.162	-28.33
207.381	-24.23
207.599	-3.75
207.818	-18.09
208.037	31.06
208.255	39.25
208.474	49.49
208.693	33.11
208.911	39.25
209.13	96.6
209.349	4.44
209.567	37.2
209.786	-13.99
210.005	16.73
210.223	12.63
210.442	12.63
210.661	41.3
210.879	51.54
211.098	-1.71
211.316	100.69
211.535	94.55
211.753	22.87
211.972	-40.62
212.191	47.44
212.409	65.88
212.628	39.25
212.846	41.3
213.065	41.3
213.283	45.4
213.502	0.34
213.72	33.11
213.938	22.87
214.157	80.21
214.375	14.68
214.594	-7.85
214.812	-22.19
215.031	12.63
215.249	-24.23
215.467	31.06
215.686	82.26
215.904	78.16
216.122	47.44
216.341	106.84
216.559	41.3
216.778	41.3
216.996	37.2
217.214	-20.14
217.432	51.54
217.651	20.82
217.869	26.96
218.087	12.63
218.306	14.68
218.524	6.49
218.742	-20.14
218.96	-9.9
219.179	33.11
219.397	55.64
219.615	18.77
219.833	6.49
220.051	-54.95
220.27	61.78
220.488	20.82
220.706	74.07
220.924	22.87
221.142	39.25
221.36	22.87
221.578	33.11
221.796	20.82
222.015	78.16
222.233	86.36
222.451	26.96
222.669	18.77
222.887	8.53
223.105	-13.99
223.323	8.53
223.541	0.34
223.759	59.73
223.977	18.77
224.195	133.46
224.413	55.64
224.631	-16.04
224.849	2.39
225.067	96.6
225.285	-59.05
225.503	53.59
225.721	-26.28
225.939	67.92
226.157	74.07
226.375	80.21
226.592	-32.43
226.81	45.4
227.028	29.01
227.246	-5.8
227.464	55.64
227.682	-3.75
227.9	-24.23
228.117	47.44
228.335	12.63
228.553	49.49
228.771	33.11
228.989	-13.99
229.206	-22.19
229.424	-1.71
229.642	4.44
229.86	45.4
230.077	100.69
230.295	-5.8
230.513	94.55
230.731	12.63
230.948	43.35
231.166	16.73
231.384	39.25
231.601	-40.62
231.819	88.4
232.037	31.06
232.254	6.49
232.472	4.44
232.689	-13.99
232.907	37.2
233.125	8.53
233.342	37.2
233.56	65.88
233.777	-5.8
233.995	2.39
234.213	51.54
234.43	6.49
234.648	43.35
234.865	0.34
235.083	45.4
235.3	-7.85
235.518	29.01
235.735	-5.8
235.953	12.63
236.17	41.3
236.388	43.35
236.605	45.4
236.822	0.34
237.04	24.92
237.257	-1.71
237.475	14.68
237.692	47.44
237.909	8.53
238.127	-26.28
238.344	2.39
238.562	-18.09
238.779	14.68
238.996	-44.71
239.214	4.44
239.431	106.84
239.648	-1.71
239.865	35.16
240.083	-40.62
240.3	-18.09
240.517	-1.71
240.735	-1.71
240.952	41.3
241.169	106.84
241.386	6.49
241.603	69.97
241.821	-13.99
242.038	69.97
242.255	-54.95
242.472	-28.33
242.689	14.68
242.907	12.63
243.124	31.06
243.341	-28.33
243.558	41.3
243.775	-18.09
243.992	18.77
244.209	20.82
244.426	112.98
244.643	76.12
244.86	-1.71
245.078	41.3
245.295	96.6
245.512	31.06
245.729	-1.71
245.946	22.87
246.163	-1.71
246.38	20.82
246.597	59.73
246.814	29.01
247.031	-16.04
247.248	65.88
247.464	80.21
247.681	22.87
247.898	-18.09
248.115	37.2
248.332	22.87
248.549	59.73
248.766	131.41
248.983	53.59
249.2	72.02
249.417	51.54
249.633	-54.95
249.85	74.07
250.067	47.44
250.284	4.44
250.501	59.73
250.717	57.68
250.934	35.16
251.151	6.49
251.368	98.64
251.585	84.31
251.801	76.12
252.018	-28.33
252.235	47.44
252.451	-30.38
252.668	31.06
252.885	88.4
253.102	29.01
253.318	74.07
253.535	18.77
253.752	57.68
253.968	-9.9
254.185	-20.14
254.401	43.35
254.618	6.49
254.835	16.73
255.051	61.78
255.268	69.97
255.484	53.59
255.701	65.88
255.917	43.35
256.134	-18.09
256.351	47.44
256.567	-61.1
256.784	6.49
257	31.06
257.217	49.49
257.433	29.01
257.65	57.68
257.866	72.02
258.082	8.53
258.299	-9.9
258.515	33.11
258.732	76.12
258.948	53.59
259.165	43.35
259.381	33.11
259.597	65.88
259.814	37.2
260.03	76.12
260.246	76.12
260.463	74.07
260.679	96.6
260.895	24.92
261.112	45.4
261.328	74.07
261.544	16.73
261.761	33.11
261.977	-11.95
262.193	-9.9
262.409	67.92
262.626	33.11
262.842	8.53
263.058	22.87
263.274	94.55
263.49	35.16
263.707	4.44
263.923	43.35
264.139	65.88
264.355	57.68
264.571	106.84
264.787	139.6
265.004	31.06
265.22	2.39
265.436	-34.47
265.652	37.2
265.868	14.68
266.084	-7.85
266.3	47.44
266.516	37.2
266.732	-13.99
266.948	20.82
267.164	-30.38
267.38	57.68
267.596	33.11
267.812	166.23
268.028	112.98
268.244	-34.47
268.46	67.92
268.676	-42.67
268.892	22.87
269.108	24.92
269.324	-20.14
269.54	-7.85
269.756	18.77
269.972	37.2
270.188	-20.14
270.403	43.35
270.619	22.87
270.835	43.35
271.051	39.25
271.267	78.16
271.483	-16.04
271.698	16.73
271.914	-20.14
272.13	2.39
272.346	-18.09
272.562	14.68
272.777	6.49
272.993	45.4
273.209	22.87
273.425	37.2
273.64	26.96
273.856	112.98
274.072	-11.95
274.287	-46.76
274.503	-40.62
274.719	57.68
274.934	-11.95
275.15	18.77
275.366	-5.8
275.581	0.34
275.797	-24.23
276.012	33.11
276.228	-77.48
276.444	8.53
276.659	102.74
276.875	55.64
277.09	20.82
277.306	59.73
277.521	39.25
277.737	8.53
277.952	129.36
278.168	33.11
278.383	22.87
278.599	12.63
278.814	47.44
279.03	61.78
279.245	78.16
279.461	-20.14
279.676	-7.85
279.892	35.16
280.107	29.01
280.322	-20.14
280.538	37.2
280.753	-16.04
280.969	43.35
281.184	78.16
281.399	20.82
281.615	-38.57
281.83	88.4
282.045	-61.1
282.26	57.68
282.476	20.82
282.691	37.2
282.906	14.68
283.122	16.73
283.337	8.53
283.552	16.73
283.767	16.73
283.983	-5.8
284.198	14.68
284.413	76.12
284.628	-28.33
284.843	51.54
285.058	121.17
285.274	0.34
285.489	31.06
285.704	86.36
285.919	49.49
286.134	29.01
286.349	43.35
286.564	39.25
286.779	59.73
286.995	47.44
287.21	4.44
287.425	69.97
287.64	26.96
287.855	22.87
288.07	-32.43
288.285	45.4
288.5	45.4
288.715	65.88
288.93	-16.04
289.145	-36.52
289.36	59.73
289.575	-16.04
289.79	31.06
290.004	72.02
290.219	90.45
290.434	4.44
290.649	6.49
290.864	74.07
291.079	10.58
291.294	49.49
291.509	26.96
291.724	-20.14
291.938	-24.23
292.153	33.11
292.368	24.92
292.583	10.58
292.798	-28.33
293.012	35.16
293.227	-32.43
293.442	-28.33
293.657	39.25
293.871	39.25
294.086	-40.62
294.301	63.83
294.516	72.02
294.73	33.11
294.945	-18.09
295.16	8.53
295.374	61.78
295.589	104.79
295.804	-36.52
296.018	59.73
296.233	-9.9
296.447	24.92
296.662	-24.23
296.877	-5.8
297.091	31.06
297.306	29.01
297.52	-36.52
297.735	43.35
297.949	94.55
298.164	24.92
298.378	22.87
298.593	47.44
298.807	18.77
299.022	14.68
299.236	-18.09
299.451	43.35
299.665	57.68
299.88	-16.04
300.094	53.59
300.309	39.25
300.523	-13.99
300.737	22.87
300.952	8.53
301.166	-11.95
301.381	33.11
301.595	29.01
301.809	18.77
302.024	39.25
302.238	12.63
302.452	131.41
302.667	-24.23
302.881	51.54
303.095	12.63
303.309	4.44
303.524	-40.62
303.738	20.82
303.952	-5.8
304.166	14.68
304.381	-5.8
304.595	131.41
304.809	-16.04
305.023	-3.75
305.237	45.4
305.452	31.06
305.666	31.06
305.88	53.59
306.094	67.92
306.308	0.34
306.522	29.01
306.736	51.54
306.95	4.44
307.164	-20.14
307.379	41.3
307.593	67.92
307.807	112.98
308.021	72.02
308.235	65.88
308.449	31.06
308.663	41.3
308.877	92.5
309.091	18.77
309.305	35.16
309.519	-73.39
309.733	4.44
309.947	0.34
310.161	65.88
310.374	33.11
310.588	-5.8
310.802	-50.86
311.016	45.4
311.23	59.73
311.444	59.73
311.658	55.64
311.872	82.26
312.085	6.49
312.299	96.6
312.513	119.12
312.727	39.25
312.941	35.16
313.154	74.07
313.368	14.68
313.582	112.98
313.796	12.63
314.009	76.12
314.223	74.07
314.437	49.49
314.651	-5.8
314.864	-7.85
315.078	63.83
315.292	26.96
315.505	12.63
315.719	41.3
315.933	35.16
316.146	69.97
316.36	-1.71
316.573	102.74
316.787	110.93
317.001	53.59
317.214	47.44
317.428	-11.95
317.641	55.64
317.855	-26.28
318.068	31.06
318.282	86.36
318.495	53.59
318.709	45.4
318.922	63.83
319.136	33.11
319.349	72.02
319.563	-69.29
319.776	69.97
319.99	45.4
320.203	26.96
320.417	57.68
320.63	-34.47
320.843	119.12
321.057	76.12
321.27	-3.75
321.483	53.59
321.697	2.39
321.91	55.64
322.124	12.63
322.337	10.58
322.55	69.97
322.763	45.4
322.977	16.73
323.19	4.44
323.403	41.3
323.617	4.44
323.83	110.93
324.043	41.3
324.256	39.25
324.469	-34.47
324.683	26.96
324.896	-9.9
325.109	41.3
325.322	-13.99
325.535	96.6
325.748	29.01
325.962	135.51
326.175	90.45
326.388	82.26
326.601	67.92
326.814	55.64
327.027	112.98
327.24	135.51
327.453	-7.85
327.666	33.11
327.879	112.98
328.092	16.73
328.305	76.12
328.518	63.83
328.731	65.88
328.944	14.68
329.157	4.44
329.37	45.4
329.583	108.88
329.796	55.64
330.009	35.16
330.222	76.12
330.435	16.73
330.648	-18.09
330.861	90.45
331.073	-52.91
331.286	20.82
331.499	29.01
331.712	14.68
331.925	14.68
332.138	-5.8
332.35	41.3
332.563	-18.09
332.776	33.11
332.989	61.78
333.202	47.44
333.414	61.78
333.627	-16.04
333.84	82.26
334.053	57.68
334.265	67.92
334.478	16.73
334.691	121.17
334.903	18.77
335.116	33.11
335.329	45.4
335.541	55.64
335.754	18.77
335.966	6.49
336.179	65.88
336.392	57.68
336.604	31.06
336.817	26.96
337.029	41.3
337.242	22.87
337.454	24.92
337.667	-18.09
337.88	88.4
338.092	39.25
338.305	84.31
338.517	29.01
338.729	61.78
338.942	33.11
339.154	90.45
339.367	39.25
339.579	80.21
339.792	-13.99
340.004	-11.95
340.217	47.44
340.429	35.16
340.641	78.16
340.854	29.01
341.066	-1.71
341.278	112.98
341.491	65.88
341.703	-13.99
341.915	8.53
342.128	39.25
342.34	-18.09
342.552	41.3
342.764	24.92
342.977	-13.99
343.189	80.21
343.401	80.21
343.613	-16.04
343.826	18.77
344.038	72.02
344.25	106.84
344.462	41.3
344.674	12.63
344.886	-52.91
345.099	20.82
345.311	74.07
345.523	-9.9
345.735	16.73
345.947	100.69
346.159	59.73
346.371	26.96
346.583	0.34
346.795	147.8
347.007	125.27
347.219	110.93
347.431	-9.9
347.643	104.79
347.855	4.44
348.067	24.92
348.279	-5.8
348.491	72.02
348.703	39.25
348.915	16.73
349.127	14.68
349.339	43.35
349.551	47.44
349.763	26.96
349.975	49.49
350.187	88.4
350.399	98.64
350.61	63.83
350.822	29.01
351.034	121.17
351.246	43.35
351.458	67.92
351.669	49.49
351.881	145.75
352.093	2.39
352.305	80.21
352.517	-11.95
352.728	106.84
352.94	14.68
353.152	35.16
353.363	2.39
353.575	24.92
353.787	86.36
353.999	72.02
354.21	106.84
354.422	-30.38
354.633	-7.85
354.845	57.68
355.057	-3.75
355.268	115.03
355.48	74.07
355.692	10.58
355.903	61.78
356.115	63.83
356.326	-36.52
356.538	139.6
356.749	-7.85
356.961	131.41
357.172	-38.57
357.384	-61.1
357.595	129.36
357.807	6.49
358.018	35.16
358.23	53.59
358.441	86.36
358.653	69.97
358.864	-5.8
359.075	-28.33
359.287	69.97
359.498	41.3
359.709	-40.62
359.921	-18.09
360.132	14.68
360.344	51.54
360.555	31.06
360.766	55.64
360.977	39.25
361.189	90.45
361.4	8.53
361.611	51.54
361.823	33.11
362.034	-9.9
362.245	-18.09
362.456	31.06
362.667	24.92
362.879	-3.75
363.09	65.88
363.301	45.4
363.512	80.21
363.723	-32.43
363.935	61.78
364.146	49.49
364.357	-7.85
364.568	29.01
364.779	67.92
364.99	164.18
365.201	31.06
365.412	72.02
365.623	37.2
365.834	-20.14
366.045	65.88
366.256	67.92
366.467	33.11
366.678	127.32
366.889	100.69
367.1	-52.91
367.311	92.5
367.522	78.16
367.733	-40.62
367.944	4.44
368.155	39.25
368.366	104.79
368.577	65.88
368.788	92.5
368.999	92.5
369.209	6.49
369.42	104.79
369.631	65.88
369.842	53.59
370.053	67.92
370.264	-28.33
370.474	61.78
370.685	26.96
370.896	-30.38
371.107	94.55
371.317	39.25
371.528	35.16
371.739	108.88
371.95	18.77
372.16	94.55
372.371	-28.33
372.582	31.06
372.792	8.53
373.003	-9.9
373.214	-18.09
373.424	47.44
373.635	35.16
373.846	65.88
374.056	90.45
374.267	-36.52
374.477	8.53
374.688	31.06
374.898	84.31
375.109	78.16
375.319	55.64
375.53	108.88
375.74	37.2
375.951	47.44
376.161	10.58
376.372	88.4
376.582	35.16
376.793	82.26
377.003	29.01
377.214	82.26
377.424	59.73
377.635	45.4
377.845	26.96
378.055	78.16
378.266	43.35
378.476	33.11
378.686	63.83
378.897	-22.19
379.107	80.21
379.317	37.2
379.528	29.01
379.738	39.25
379.948	33.11
380.158	72.02
380.369	10.58
380.579	63.83
380.789	20.82
380.999	55.64
381.21	80.21
381.42	45.4
381.63	-1.71
381.84	86.36
382.05	51.54
382.261	65.88
382.471	-32.43
382.681	18.77
382.891	57.68
383.101	6.49
383.311	-22.19
383.521	80.21
383.731	16.73
383.941	18.77
384.151	78.16
384.361	26.96
384.571	72.02
384.781	49.49
384.991	100.69
385.201	121.17
385.411	20.82
385.621	78.16
385.831	65.88
386.041	127.32
386.251	82.26
386.461	63.83
386.671	2.39
386.881	39.25
387.091	-24.23
387.301	96.6
387.511	51.54
387.72	94.55
387.93	45.4
388.14	47.44
388.35	92.5
388.56	59.73
388.769	125.27
388.979	90.45
389.189	31.06
389.399	41.3
389.609	131.41
389.818	117.08
390.028	110.93
390.238	31.06
390.447	37.2
390.657	41.3
390.867	47.44
391.076	14.68
391.286	117.08
391.496	106.84
391.705	59.73
391.915	106.84
392.125	35.16
392.334	55.64
392.544	26.96
392.753	72.02
392.963	47.44
393.172	43.35
393.382	20.82
393.591	92.5
393.801	16.73
394.01	98.64
394.22	72.02
394.429	94.55
394.639	39.25
394.848	29.01
395.058	39.25
395.267	108.88
395.477	35.16
395.686	31.06
395.895	184.66
396.105	164.18
396.314	53.59
396.524	133.46
396.733	65.88
396.942	61.78
397.152	92.5
397.361	121.17
397.57	102.74
397.78	45.4
397.989	57.68
398.198	194.9
398.407	88.4
398.617	53.59
398.826	96.6
399.035	98.64
399.244	127.32
399.453	88.4
399.663	149.84
399.872	112.98
400.081	29.01
400.29	112.98
400.499	29.01
400.708	123.22
400.917	53.59
401.127	90.45
401.336	110.93
401.545	108.88
401.754	121.17
401.963	172.37
402.172	149.84
402.381	92.5
402.59	139.6
402.799	98.64
403.008	100.69
403.217	141.65
403.426	74.07
403.635	162.13
403.844	84.31
404.053	242
404.262	108.88
404.471	168.27
404.68	143.7
404.888	153.94
405.097	76.12
405.306	227.67
405.515	190.8
405.724	178.51
405.933	178.51
406.142	178.51
406.35	180.56
406.559	188.75
406.768	192.85
406.977	223.57
407.185	223.57
407.394	242
407.603	151.89
407.812	201.04
408.02	155.99
408.229	211.28
408.438	188.75
408.646	231.76
408.855	225.62
409.064	196.95
409.272	272.72
409.481	229.71
409.69	285.01
409.898	258.39
410.107	307.54
410.315	330.06
410.524	362.83
410.733	340.3
410.941	395.6
411.15	387.41
411.358	391.5
411.567	424.27
411.775	387.41
411.984	465.23
412.192	424.27
412.401	469.33
412.609	473.42
412.818	530.77
413.026	481.61
413.234	387.41
413.443	530.77
413.651	504.14
413.86	612.68
414.068	655.69
414.276	684.36
414.485	641.36
414.693	557.39
414.901	717.13
415.11	794.95
415.318	604.49
415.526	762.19
415.734	833.86
415.943	686.41
416.151	794.95
416.359	903.5
416.567	840.01
416.776	999.75
416.984	926.02
417.192	1096
417.4	1120.58
417.608	979.27
417.817	1036.61
418.025	1044.81
418.233	1253.7
418.441	1169.73
418.649	1186.12
418.857	1347.9
419.065	1362.24
419.273	1292.61
419.481	1380.67
419.689	1501.5
419.897	1433.92
420.105	1577.28
420.313	1567.04
420.521	1605.95
420.729	1657.15
420.937	1712.44
421.145	1632.57
421.353	1939.77
421.561	1990.97
421.769	1915.19
421.977	2074.93
422.185	2031.93
422.393	2240.82
422.601	2316.59
422.809	2312.5
423.017	2384.18
423.224	2480.43
423.432	2457.9
423.64	2597.17
423.848	2930.98
424.056	2885.93
424.263	2924.84
424.471	2898.22
424.679	3111.21
424.887	3119.4
425.094	3176.74
425.302	3258.66
425.51	3445.02
425.718	3479.84
425.925	3516.7
426.133	3555.62
426.341	3821.85
426.548	4051.22
426.756	3889.43
426.964	4108.57
427.171	4352.27
427.379	4448.53
427.586	4501.78
427.794	4645.13
428.001	4763.92
428.209	5261.57
428.417	4976.91
428.624	5265.67
428.832	5304.58
429.039	5425.41
429.247	5171.46
429.454	5773.57
429.662	6070.52
429.869	5808.38
430.076	6174.97
430.284	6004.99
430.491	6414.58
430.699	6723.82
430.906	6721.77
431.114	6746.35
431.321	7174.38
431.528	7207.14
431.736	7626.98
431.943	8046.81
432.15	7772.38
432.358	7915.74
432.565	8284.37
432.772	8237.27
432.979	8620.24
433.187	8798.42
433.394	8794.32
433.601	9431.24
433.808	9564.36
434.016	9386.18
434.223	10002.62
434.43	10436.79
434.637	10369.21
434.844	10997.93
435.052	11020.46
435.259	10971.31
435.466	11030.7
435.673	10975.41
435.88	11724.96
436.087	12284.06
436.294	12482.71
436.501	12138.65
436.708	12417.18
436.915	12888.21
437.122	13203.6
437.329	13297.8
437.537	13686.92
437.743	14121.09
437.95	13797.51
438.157	14620.79
438.364	14897.27
438.571	15069.3
438.778	14997.62
438.985	16617.56
439.192	15743.08
439.399	16347.23
439.606	15767.65
439.813	16799.83
440.02	17860.68
440.227	17588.3
440.433	17352.78
440.64	18110.53
440.847	17840.2
441.054	18389.05
441.261	19449.9
441.467	19087.41
441.674	19689.51
441.881	20264.99
442.088	20295.71
442.294	19974.18
442.501	20920.34
442.708	21202.96
442.914	21854.22
443.121	22962.17
443.328	22398.98
443.534	23912.42
443.741	22982.65
443.948	22632.44
444.154	24551.39
444.361	24176.61
444.568	24643.55
444.774	24688.6
444.981	24852.44
445.187	25515.98
445.394	26824.64
445.6	26478.53
445.807	28770.21
446.013	27721.65
446.22	27969.45
446.426	29282.2
446.633	29400.98
446.839	30359.43
447.046	28970.91
447.252	31037.31
447.459	30834.56
447.665	30506.88
447.871	31729.52
448.078	33621.84
448.284	31823.73
448.491	32640.87
448.697	34312.01
448.903	34398.02
449.11	34836.29
449.316	34232.14
449.522	34778.95
449.728	35456.82
449.935	35704.63
450.141	35948.34
450.347	36671.27
450.553	35376.95
450.76	36099.89
450.966	37373.72
451.172	36908.83
451.378	37695.25
451.584	37017.38
451.791	37711.64
451.997	37762.84
452.203	38610.7
452.409	38424.33
452.615	38549.26
452.821	37115.68
453.027	36679.46
453.233	38665.99
453.44	37156.64
453.646	37179.17
453.852	37465.88
454.058	37834.52
454.264	36802.34
454.47	37541.66
454.676	36480.81
454.882	37842.71
455.088	35098.43
455.294	35356.47
455.5	35796.79
455.705	36718.37
455.911	34551.62
456.117	34101.07
456.323	33380.18
456.529	32110.44
456.735	33617.75
456.941	32161.64
457.147	31727.47
457.352	30861.18
457.558	30676.87
457.764	30885.76
457.97	30183.3
458.176	29278.1
458.381	29560.72
458.587	27686.83
458.793	28116.9
458.999	26353.6
459.204	28415.91
459.41	27666.35
459.616	25798.6
459.821	25763.79
460.027	25696.21
460.233	25081.81
460.438	24039.4
460.644	24342.5
460.85	23257.07
461.055	22738.94
461.261	23070.71
461.466	21149.71
461.672	20357.15
461.878	21682.19
462.083	20348.96
462.289	19947.56
462.494	19912.74
462.7	18804.79
462.905	18294.85
463.111	19214.38
463.316	19105.84
463.522	18620.47
463.727	18882.61
463.932	18821.17
464.138	18499.64
464.343	18751.54
464.549	17944.64
464.754	18778.17
464.959	18387
465.165	18442.3
465.37	17510.47
465.575	17074.26
465.781	18030.66
465.986	17821.77
466.191	17205.33
466.397	16844.88
466.602	16126.05
466.807	16599.13
467.012	16980.05
467.218	16830.55
467.423	16310.36
467.628	16660.57
467.833	17012.82
468.038	16537.69
468.244	16316.51
468.449	16726.1
468.654	16105.57
468.859	16191.58
469.064	16091.23
469.269	15530.09
469.474	15419.5
469.679	15908.96
469.885	15353.96
470.09	15800.42
470.295	15394.92
470.5	15118.45
470.705	15149.17
470.91	14844.02
471.115	14680.18
471.32	14927.99
471.525	14872.69
471.73	14549.11
471.935	14467.19
472.139	13897.86
472.344	14078.08
472.549	13768.84
472.754	13684.87
472.959	13629.57
473.164	13314.19
473.369	13015.18
473.574	13449.35
473.778	13463.69
473.983	13258.89
474.188	13291.66
474.393	12472.47
474.598	12572.82
474.802	12894.35
475.007	12736.66
475.212	12286.11
475.417	12116.12
475.621	12253.34
475.826	12138.65
476.031	11878.56
476.235	11550.89
476.44	11716.77
476.645	11800.74
476.849	11511.97
477.054	11509.93
477.259	11143.34
477.463	11333.8
477.668	10901.68
477.872	10924.21
478.077	10832.05
478.282	10741.94
478.486	10549.43
478.691	10465.46
478.895	10549.43
479.1	10404.02
479.304	10582.2
479.509	10019
479.713	10528.95
479.918	10193.08
480.122	9881.79
480.326	10195.13
480.531	10080.44
480.735	9715.91
480.94	9763.01
481.144	10070.2
481.348	9797.82
481.553	9851.07
481.757	9810.11
481.961	9834.69
482.166	10068.16
482.37	9693.38
482.574	9652.42
482.778	9625.79
482.983	9705.67
483.187	9842.88
483.391	9994.43
483.595	9810.11
483.8	9599.17
484.004	9838.78
484.208	9789.63
484.412	9507.01
484.616	9752.77
484.821	9613.51
485.025	9498.82
485.229	9738.43
485.433	9631.94
485.637	9818.3
485.841	9662.66
486.045	9697.47
486.249	9887.93
486.453	9599.17
486.657	9617.6
486.861	9730.24
487.065	9525.44
487.269	9715.91
487.473	9550.02
487.677	9513.16
487.881	9656.51
488.085	9654.47
488.289	9720
488.493	9656.51
488.697	9795.78
488.901	9691.33
489.105	9756.86
489.309	9787.58
489.512	9703.62
489.716	9881.79
489.92	9894.08
490.124	9629.89
490.328	10041.53
490.531	9820.35
490.735	9736.38
490.939	9939.13
491.143	9846.98
491.346	9857.21
491.55	10064.06
491.754	10074.3
491.958	10084.54
492.161	9947.33
492.365	10148.03
492.569	9990.33
492.772	10137.79
492.976	10363.06
493.18	10469.56
493.383	10387.64
493.587	10129.59
493.79	10561.72
493.994	10277.05
494.197	10543.28
494.401	10598.58
494.605	10655.92
494.808	10817.71
495.012	10954.93
495.215	10997.93
495.419	10938.54
495.622	11038.89
495.825	11268.27
496.029	11243.69
496.232	11335.85
496.436	11245.74
496.639	11665.57
496.843	11335.85
497.046	11806.88
497.249	11864.22
497.453	11784.35
497.656	12163.23
497.859	11913.38
498.063	12230.81
498.266	12454.04
498.469	12122.27
498.673	12558.49
498.876	12755.09
499.079	12796.05
499.282	12595.35
499.485	13160.59
499.689	13052.05
499.892	13416.58
500.095	13379.72
500.298	13518.98
500.501	13680.77
500.705	13944.96
500.908	14033.02
501.111	14073.98
501.314	14485.62
501.517	14594.17
501.72	14588.02
501.923	14612.6
502.126	14891.12
502.329	15106.16
502.532	15106.16
502.735	15386.73
502.938	15534.18
503.141	15624.29
503.344	16054.37
503.547	15958.11
503.75	16240.73
503.953	16349.28
504.156	16447.58
504.359	16631.9
504.562	16820.31
504.765	16982.1
504.968	17279.05
505.17	17594.44
505.373	17410.12
505.576	17739.85
505.779	18292.8
505.982	18368.57
506.185	18481.21
506.387	18350.14
506.59	18294.85
506.793	18833.46
506.996	18720.82
507.198	19355.69
507.401	19503.15
507.604	19634.22
507.807	19869.73
508.009	19986.47
508.212	19810.34
508.415	20301.86
508.617	20574.24
508.82	20477.98
509.022	20783.13
509.225	21067.8
509.428	21211.15
509.63	21475.34
509.833	21663.75
510.035	21979.14
510.238	21776.39
510.44	22089.73
510.643	22415.36
510.845	22599.68
511.048	23078.9
511.25	22851.58
511.453	23226.35
511.655	23807.98
511.858	23390.19
512.06	23926.76
512.262	24045.54
512.465	24000.49
512.667	24412.13
512.87	24424.42
513.072	24842.2
513.274	25006.04
513.477	25147.35
513.679	25321.43
513.881	25688.01
514.084	25753.55
514.286	25835.47
514.488	26097.61
514.69	27062.2
514.893	26775.48
515.095	26918.84
515.297	27121.59
515.499	27062.2
515.701	27709.36
515.904	28073.9
516.106	27879.34
516.308	28227.49
516.51	28172.2
516.712	28528.55
516.914	28561.31
517.116	29507.48
517.318	29147.03
517.52	29675.41
517.722	29540.24
517.925	30173.06
518.127	30162.83
518.329	30334.85
518.531	30345.09
518.733	30992.25
518.935	31131.51
519.136	31057.79
519.338	31666.03
519.54	31706.99
519.742	31733.62
519.944	31838.06
520.146	32456.55
520.348	32415.59
520.55	32628.58
520.752	32606.05
520.954	33142.62
521.155	33177.44
521.357	33419.1
521.559	33929.04
521.761	34279.24
521.963	34342.73
522.164	34008.91
522.366	34242.38
522.568	34459.46
522.77	35008.32
522.971	35485.5
523.173	35151.68
523.375	35417.91
523.576	35485.5
523.778	35215.16
523.98	35950.38
524.181	35749.68
524.383	36159.28
524.584	36468.52
524.786	36515.62
524.988	36179.76
525.189	36955.94
525.391	36855.59
525.592	37134.11
525.794	37396.25
525.995	36968.23
526.197	37035.81
526.398	37271.32
526.6	37568.28
526.801	37560.09
527.003	37732.12
527.204	37617.43
527.406	38309.64
527.607	38338.32
527.808	38326.03
528.01	37869.33
528.211	38272.78
528.412	38500.11
528.614	38715.14
528.815	38731.53
529.016	39081.73
529.218	38512.39
529.419	38385.42
529.62	38579.98
529.822	38510.35
530.023	38682.38
530.224	38938.37
530.425	38975.23
530.626	38682.38
530.828	38321.93
531.029	39667.45
531.23	38786.82
531.431	39059.2
531.632	39116.54
531.833	39419.64
532.035	39341.82
532.236	39194.37
532.437	39200.51
532.638	39296.77
532.839	39491.32
533.04	39245.57
533.241	39087.87
533.442	39673.59
533.643	39767.8
533.844	39352.06
534.045	39216.89
534.246	38969.09
534.447	39683.83
534.648	39249.66
534.849	39573.24
535.05	39081.73
535.251	39421.69
535.451	39108.35
535.652	39560.95
535.853	39491.32
536.054	39423.74
536.255	39608.06
536.456	39188.22
536.657	39792.37
536.857	39196.42
537.058	39384.83
537.259	39214.85
537.46	39571.19
537.66	39245.57
537.861	39372.54
538.062	39900.92
538.263	39276.29
538.463	39350.01
538.664	39046.91
538.865	39563
539.065	39569.15
539.266	38977.28
539.466	39923.44
539.667	38850.31
539.868	39634.68
540.068	39362.3
540.269	39186.18
540.469	39450.36
540.67	38866.69
540.87	39356.16
541.071	39020.29
541.271	39204.61
541.472	39251.71
541.672	38977.28
541.873	38891.27
542.073	38639.37
542.274	39560.95
542.474	38932.23
542.675	38770.44
542.875	39317.25
543.075	39083.78
543.276	38526.73
543.476	38891.27
543.676	38739.72
543.877	38606.6
544.077	38907.65
544.277	38971.14
544.478	38780.68
544.678	38760.2
544.878	38991.62
545.078	38788.87
545.279	38749.96
545.479	38594.31
545.679	39089.92
545.879	38782.73
546.079	38596.36
546.28	38788.87
546.48	38430.47
546.68	38743.81
546.88	38893.32
547.08	38453
547.28	38473.48
547.48	38037.26
547.68	38788.87
547.88	38412.04
548.081	38610.7
548.281	38305.55
548.481	38596.36
548.681	38571.78
548.881	38541.07
549.081	38522.63
549.28	38145.81
549.48	38203.15
549.68	38371.08
549.88	38844.16
550.08	38395.66
550.28	38577.93
550.48	38145.81
550.68	38719.24
550.88	38414.09
551.08	38221.58
551.279	38043.41
551.479	38321.93
551.679	38440.71
551.879	38549.26
552.079	38733.57
552.278	38244.11
552.478	38100.75
552.678	38391.56
552.878	38297.36
553.077	37981.97
553.277	38039.31
553.477	38727.43
553.676	38108.94
553.876	38072.08
554.076	37732.12
554.275	37988.11
554.475	37400.35
554.674	37887.76
554.874	38143.76
555.074	37957.39
555.273	37592.86
555.473	38215.44
555.672	37988.11
555.872	37406.49
556.071	37418.78
556.271	38227.73
556.47	37285.66
556.67	37435.16
556.869	37609.24
557.068	38063.89
557.268	37693.21
557.467	37426.97
557.667	37633.82
557.866	37478.17
558.065	37271.32
558.265	37592.86
558.464	37310.24
558.663	37664.53
558.863	36888.35
559.062	37736.21
559.261	37105.44
559.461	37605.14
559.66	36632.36
559.859	37422.87
560.058	36831.01
560.258	37039.9
560.457	36693.8
560.656	36998.94
560.855	36722.47
561.054	36896.55
561.253	36734.76
561.453	36841.25
561.652	37142.3
561.851	36906.79
562.05	36540.2
562.249	36534.06
562.448	36755.24
562.647	36568.87
562.846	36544.3
563.045	36349.74
563.244	36110.13
563.443	36794.15
563.642	36300.59
563.841	36253.48
564.04	36589.35
564.239	36681.51
564.438	35745.59
564.637	36683.56
564.836	35981.1
565.035	35940.14
565.234	36063.02
565.432	35788.6
565.631	35837.75
565.83	35972.91
566.029	35505.98
566.228	35796.79
566.427	35589.94
566.625	35563.32
566.824	35137.34
567.023	35688.24
567.222	35063.61
567.42	35602.23
567.619	35370.81
567.818	35268.41
568.016	35036.99
568.215	35360.57
568.414	35180.35
568.612	35510.07
568.811	35080
569.01	34924.35
569.208	35073.85
569.407	34950.98
569.605	34406.22
569.804	34977.6
570.002	34664.26
570.201	34912.06
570.4	34383.69
570.598	34402.12
570.797	34414.41
570.995	34606.92
571.193	34221.9
571.392	34359.11
571.59	34109.26
571.789	34131.79
571.987	34129.74
572.186	33701.72
572.384	33675.09
572.582	34197.32
572.781	33980.24
572.979	33789.78
573.177	33785.68
573.376	33877.84
573.574	33759.06
573.772	33582.93
573.971	33398.62
574.169	33535.83
574.367	33052.51
574.565	33531.73
574.763	33326.94
574.962	32950.11
575.16	33015.65
575.358	32882.53
575.556	32710.5
575.754	33288.03
575.952	32583.52
576.151	32819.04
576.349	32612.2
576.547	32456.55
576.745	32685.92
576.943	32546.66
577.141	32599.91
577.339	32616.29
577.537	32581.48
577.735	32329.58
577.933	32089.96
578.131	32431.97
578.329	32018.28
578.527	31625.07
578.725	31909.74
578.923	32108.4
579.121	31651.7
579.319	31524.72
579.516	31559.54
579.714	31717.23
579.912	31684.47
580.11	31203.19
580.308	31469.43
580.506	31428.47
580.704	31018.88
580.901	31387.51
581.099	31520.63
581.297	30887.81
581.495	30969.72
581.692	30959.48
581.89	30721.92
582.088	31008.64
582.285	30840.7
582.483	30707.58
582.681	30803.84
582.878	30871.42
583.076	30244.74
583.274	30549.89
583.471	30144.39
583.669	30343.05
583.866	30269.32
584.064	30297.99
584.262	29919.12
584.459	30328.71
584.657	29851.53
584.854	30111.63
585.052	29888.4
585.249	29675.41
585.447	29575.06
585.644	29267.86
585.841	29611.92
586.039	30125.96
586.236	29317.01
586.434	29247.38
586.631	29104.03
586.828	29405.08
587.026	29495.19
587.223	28829.6
587.42	28946.33
587.618	29106.07
587.815	28467.11
588.012	28522.4
588.21	28499.87
588.407	28673.95
588.604	28530.59
588.801	28290.98
588.999	28432.29
589.196	28000.17
589.393	28297.13
589.59	27946.92
589.787	28262.31
589.984	27713.45
590.182	27555.76
590.379	28137.38
590.576	27467.7
590.773	27858.86
590.97	27537.33
591.167	27862.96
591.364	27406.26
591.561	27369.4
591.758	27137.98
591.955	27039.67
592.152	27383.73
592.349	26881.98
592.546	27248.57
592.743	26838.97
592.94	26535.87
593.137	26783.68
593.334	27049.91
593.531	26216.39
593.727	26841.02
593.924	26456
594.121	26253.25
594.318	26351.56
594.515	26296.26
594.712	26140.61
594.908	26202.05
595.105	26206.15
595.302	25847.75
595.499	25837.52
595.696	26046.41
595.892	25649.1
596.089	25778.12
596.286	25857.99
596.482	25520.08
596.679	25558.99
596.876	25794.51
597.072	25208.79
597.269	25296.85
597.466	25178.07
597.662	25214.93
597.859	25159.64
598.055	25239.51
598.252	24819.67
598.448	25161.69
598.645	24573.92
598.841	24664.03
599.038	24629.21
599.234	24684.51
599.431	24451.04
599.627	24397.79
599.824	24596.45
600.02	24127.46
600.217	24403.94
600.413	23912.42
600.609	24051.69
600.806	23941.1
601.002	23893.99
601.198	23683.05
601.395	23953.38
601.591	23891.94
601.787	23648.24
601.984	23418.86
602.18	23951.34
602.376	23619.56
602.572	23449.58
602.769	23064.57
602.965	22984.69
603.161	23404.53
603.357	22757.37
603.553	23119.86
603.75	23054.33
603.946	22960.12
604.142	23005.17
604.338	22456.32
604.534	23066.61
604.73	22536.19
604.926	22358.02
605.122	22667.26
605.318	22446.08
605.514	22220.8
605.71	22583.29
605.906	22583.29
606.102	22157.32
606.298	22386.69
606.494	21829.64
606.69	22280.19
606.886	22130.69
607.082	21882.89
607.278	22355.97
607.474	21647.37
607.67	21684.23
607.866	21737.48
608.062	21764.11
608.257	21688.33
608.453	21921.8
608.649	21811.21
608.845	21401.61
609.041	21649.42
609.236	21616.65
609.432	21555.21
609.628	21661.71
609.824	21010.45
610.019	21342.22
610.215	21235.73
610.411	21162
610.606	20940.82
610.802	21499.92
610.998	21389.33
611.193	21020.69
611.389	20828.18
611.584	20940.82
611.78	20762.65
611.976	20852.76
612.171	20693.02
612.367	20920.34
612.562	20764.7
612.758	20776.98
612.953	20607
613.149	20609.05
613.344	20287.52
613.539	20615.19
613.735	20584.48
613.93	20396.06
614.126	20334.62
614.321	20611.1
614.517	20494.36
614.712	20221.98
614.907	20113.44
615.103	20543.52
615.298	20117.54
615.493	20389.92
615.688	20109.35
615.884	20408.35
616.079	19908.65
616.274	20144.16
616.47	20121.63
616.665	19935.27
616.86	20041.76
617.055	19808.3
617.25	19632.17
617.445	20047.91
617.641	19531.82
617.836	19789.86
618.031	19601.45
618.226	19933.22
618.421	19791.91
618.616	19662.89
618.811	19302.45
619.006	19445.8
619.201	19277.87
619.396	19339.31
619.591	18851.89
619.786	19462.19
619.981	18784.31
620.176	18939.96
620.371	18532.41
620.566	18915.38
620.761	18843.7
620.956	18847.8
621.151	18556.99
621.346	18706.49
621.541	18204.74
621.735	18329.66
621.93	18169.92
622.125	18188.35
622.32	17928.26
622.515	18077.76
622.709	17768.52
622.904	17737.8
623.099	17514.57
623.294	17637.45
623.488	17422.41
623.683	17752.13
623.878	17553.48
624.072	17418.32
624.267	17061.97
624.462	17092.69
624.656	16969.81
624.851	16861.27
625.046	16754.77
625.24	16918.61
625.435	16566.36
625.629	16638.04
625.824	16633.94
626.018	16556.12
626.213	16007.27
626.407	16085.09
626.602	16179.29
626.796	15954.02
626.991	16119.9
627.185	15984.74
627.38	15745.13
627.574	15831.14
627.768	15665.25
627.963	15454.31
628.157	15261.8
628.352	15497.32
628.546	15007.86
628.74	15360.11
628.935	14973.04
629.129	15192.17
629.323	14966.9
629.517	14938.23
629.712	14909.55
629.906	14696.57
630.1	14628.98
630.294	14489.72
630.489	14559.35
630.683	14393.47
630.877	14200.96
631.071	14272.64
631.265	14145.66
631.459	14325.88
631.653	14006.4
631.848	14012.54
632.042	14020.74
632.236	13912.19
632.43	13697.16
632.624	13858.95
632.818	13668.48
633.012	13652.1
633.206	13561.99
633.4	13498.5
633.594	13297.8
633.788	13342.86
633.982	13398.15
634.176	13322.38
634.369	13211.79
634.563	13297.8
634.757	12980.37
634.951	13181.07
635.145	13076.62
635.339	13052.05
635.533	12716.18
635.726	12830.87
635.92	12558.49
636.114	12658.84
636.308	12413.08
636.501	12439.7
636.695	12576.92
636.889	12490.9
637.083	12136.6
637.276	12196
637.47	12095.64
637.664	11884.7
637.857	11983.01
638.051	11962.53
638.244	11786.4
638.438	11573.41
638.632	11686.05
638.825	11778.21
639.019	11610.28
639.212	11430.05
639.406	11475.11
639.599	11434.15
639.793	11309.22
639.986	11083.95
640.18	11487.4
640.373	11151.53
640.567	11090.09
640.76	11133.1
640.954	10961.07
641.147	11036.84
641.34	10944.69
641.534	10985.65
641.727	10928.3
641.92	10868.91
642.114	10483.89
642.307	10784.94
642.5	10795.18
642.694	10424.5
642.887	10391.73
643.08	10512.56
643.273	10389.69
643.467	10180.79
643.66	10401.97
643.853	10307.77
644.046	10035.39
644.239	10197.18
644.432	10053.82
644.626	10035.39
644.819	9836.74
645.012	10045.63
645.205	9734.34
645.398	9945.28
645.591	9818.3
645.784	9550.02
645.977	9572.55
646.17	9797.82
646.363	9513.16
646.556	9474.24
646.749	9715.91
646.942	9547.97
647.135	9369.8
647.328	9425.09
647.521	9392.33
647.714	9111.75
647.907	9492.68
648.099	9230.54
648.292	9222.34
648.485	9033.93
648.678	8798.42
648.871	8890.57
649.064	8775.89
649.256	8984.78
649.449	8665.3
649.642	8702.16
649.835	8667.35
650.027	8624.34
650.22	8708.3
650.413	8595.67
650.605	8610
650.798	8571.09
650.991	8622.29
651.183	8472.79
651.376	8394.97
651.568	8474.84
651.761	8409.3
651.954	8341.72
652.146	8270.04
652.339	8063.19
652.531	8091.87
652.724	8034.52
652.916	7913.69
653.109	7991.52
653.301	7854.3
653.494	7829.73
653.686	7942.36
653.879	7715.04
654.071	7704.8
654.263	7577.83
654.456	7852.25
654.648	7592.16
654.84	7690.46
655.033	7588.07
655.225	7598.31
655.417	7309.54
655.61	7506.15
655.802	7413.99
655.994	7348.45
656.186	7205.1
656.379	7225.58
656.571	7332.07
656.763	7262.44
656.955	7217.38
657.148	7020.78
657.34	7010.54
657.532	7028.97
657.724	7037.16
657.916	6945
658.108	6961.39
658.3	6994.15
658.492	6902
658.684	6928.62
658.876	6863.08
659.068	6691.06
659.26	6619.38
659.452	6775.02
659.644	6701.3
659.836	6748.4
660.028	6641.9
660.22	6609.14
660.412	6476.02
660.604	6510.83
660.796	6545.65
660.988	6484.21
661.18	6445.3
661.372	6461.68
661.563	6260.98
661.755	6336.76
661.947	6381.81
662.139	6265.08
662.331	6220.02
662.522	6308.09
662.714	6215.93
662.906	6045.95
663.097	6033.66
663.289	6168.82
663.481	5902.59
663.673	5929.21
663.864	5955.83
664.056	5908.73
664.247	6021.37
664.439	5908.73
664.631	5890.3
664.822	5933.31
665.014	5718.27
665.205	5748.99
665.397	5886.2
665.588	5857.53
665.78	5576.96
665.971	5632.26
666.163	5689.6
666.354	5726.46
666.546	5644.54
666.737	5501.19
666.929	5669.12
667.12	5529.86
667.311	5519.62
667.503	5488.9
667.694	5482.75
667.885	5546.24
668.077	5433.6
668.268	5404.93
668.459	5445.89
668.651	5218.57
668.842	5253.38
669.033	5253.38
669.224	5292.29
669.416	5376.26
669.607	5124.36
669.798	5148.93
669.989	5304.58
670.18	5189.89
670.371	5169.41
670.563	5087.5
670.754	5089.54
670.945	5040.39
671.136	4935.95
671.327	5021.96
671.518	5062.92
671.709	4962.57
671.9	5034.25
672.091	5124.36
672.282	4819.21
672.473	4792.59
672.664	4970.76
672.855	4923.66
673.046	4870.41
673.237	4884.75
673.428	4749.58
673.619	4722.96
673.809	4851.98
674	4774.16
674.191	4890.89
674.382	4743.44
674.573	4512.02
674.764	4587.79
674.954	4757.77
675.145	4632.85
675.336	4618.51
675.527	4643.09
675.717	4649.23
675.908	4481.3
676.099	4507.92
676.289	4536.59
676.48	4604.18
676.671	4426
676.861	4475.15
677.052	4376.85
677.243	4479.25
677.433	4489.49
677.624	4399.38
677.814	4436.24
678.005	4421.91
678.195	4430.1
678.386	4364.56
678.576	4165.91
678.767	4354.32
678.957	4272.4
679.148	4301.08
679.338	4344.08
679.529	4272.4
679.719	4325.65
679.909	4348.18
680.1	4319.51
680.29	4393.23
680.481	4366.61
680.671	4329.75
680.861	4282.64
681.052	4247.83
681.242	4034.84
681.432	4278.55
681.622	4114.71
681.813	4098.33
682.003	4149.53
682.193	4137.24
682.383	4227.35
682.573	4077.85
682.764	4159.77
682.954	4106.52
683.144	4157.72
683.334	4167.96
683.524	4149.53
683.714	4188.44
683.904	3852.57
684.094	4106.52
684.284	4028.7
684.474	4210.97
684.664	4053.27
684.854	4065.56
685.044	3922.2
685.234	3924.25
685.424	3993.88
685.614	4075.8
685.804	4026.65
685.994	3959.06
686.184	4083.99
686.374	3930.39
686.564	3914.01
686.753	3731.74
686.943	3748.12
687.133	3756.32
687.323	3795.23
687.513	3701.02
687.702	3776.8
687.892	3811.61
688.082	3684.64
688.272	3723.55
688.461	3633.44
688.651	3713.31
688.841	3768.6
689.03	3643.68
689.22	3535.14
689.41	3545.38
689.599	3647.77
689.789	3737.88
689.979	3602.72
690.168	3451.17
690.358	3461.41
690.547	3430.69
690.737	3363.11
690.926	3432.74
691.116	3561.76
691.305	3559.71
691.495	3320.1
691.684	3406.11
691.874	3348.77
692.063	3330.34
692.252	3346.72
692.442	3313.95
692.631	3262.76
692.82	3260.71
693.01	3316
693.199	3240.23
693.388	3330.34
693.578	3195.17
693.767	3258.66
693.956	3166.5
694.146	3051.81
694.335	3125.54
694.524	3098.92
694.713	3172.64
694.902	3109.16
695.092	3025.19
695.281	3010.86
695.47	3045.67
695.659	3074.34
695.848	3031.34
696.037	2947.37
696.226	3041.57
696.415	2971.94
696.604	2976.04
696.793	2926.89
696.982	3053.86
697.171	2982.18
697.36	2986.28
697.549	2900.27
697.738	2906.41
697.927	2844.97
698.116	2961.7
698.305	2752.81
698.494	2822.44
698.683	2851.11
698.872	2978.09
699.061	2826.54
699.25	2781.48
699.438	2783.53
699.627	2777.39
699.816	2836.78
700.005	2879.79
700.193	2820.39
700.382	2689.32
700.571	2718
700.76	2828.59
700.948	2713.9
701.137	2738.48
701.326	2687.28
701.514	2689.32
701.703	2650.41
701.892	2660.65
702.08	2722.09
702.269	2752.81
702.457	2591.02
702.646	2648.36
702.834	2554.16
703.023	2644.27
703.212	2570.54
703.4	2609.45
703.589	2658.6
703.777	2560.3
703.965	2437.42
704.154	2662.7
704.342	2404.66
704.531	2578.73
704.719	2588.97
704.907	2568.49
705.096	2400.56
705.284	2560.3
705.472	2548.01
705.661	2466.1
705.849	2421.04
706.037	2605.36
706.226	2459.95
706.414	2482.48
706.602	2470.19
706.79	2416.94
706.979	2515.25
707.167	2494.77
707.355	2531.63
707.543	2453.81
707.731	2500.91
707.919	2513.2
708.107	2486.58
708.296	2394.42
708.484	2482.48
708.672	2502.96
708.86	2449.71
709.048	2496.82
709.236	2396.46
709.424	2418.99
709.612	2449.71
709.8	2410.8
709.988	2453.81
710.176	2505.01
710.364	2431.28
710.551	2421.04
710.739	2400.56
710.927	2425.14
711.115	2373.94
711.303	2306.35
711.491	2369.84
711.679	2365.75
711.866	2431.28
712.054	2382.13
712.242	2437.42
712.43	2441.52
712.617	2246.96
712.805	2410.8
712.993	2474.29
713.181	2369.84
713.368	2433.33
713.556	2416.94
713.744	2373.94
713.931	2441.52
714.119	2396.46
714.306	2316.59
714.494	2337.07
714.682	2351.41
714.869	2220.34
715.057	2404.66
715.244	2298.16
715.432	2439.47
715.619	2457.9
715.807	2367.79
715.994	2324.79
716.182	2427.18
716.369	2330.93
716.556	2281.78
716.744	2451.76
716.931	2242.87
717.119	2410.8
717.306	2375.99
717.493	2287.92
717.681	2396.46
717.868	2353.46
718.055	2369.84
718.242	2412.85
718.43	2302.26
718.617	2369.84
718.804	2218.29
718.991	2289.97
719.179	2410.8
719.366	2371.89
719.553	2349.36
719.74	2300.21
719.927	2263.35
720.114	2396.46
720.301	2353.46
720.488	2328.88
720.676	2285.87
720.863	2294.07
721.05	2429.23
721.237	2292.02
721.424	2441.52
721.611	2437.42
721.798	2351.41
721.985	2332.98
722.172	2359.6
722.358	2253.11
722.545	2470.19
722.732	2402.61
722.919	2363.7
723.106	2408.75
723.293	2388.27
723.48	2345.27
723.667	2429.23
723.853	2484.53
724.04	2418.99
724.227	2470.19
724.414	2236.72
724.6	2478.38
724.787	2410.8
724.974	2400.56
725.161	2404.66
725.347	2421.04
725.534	2390.32
725.72	2394.42
725.907	2433.33
726.094	2447.66
726.28	2324.79
726.467	2384.18
726.653	2466.1
726.84	2464.05
727.027	2427.18
727.213	2371.89
727.4	2425.14
727.586	2437.42
727.773	2484.53
727.959	2363.7
728.145	2451.76
728.332	2433.33
728.518	2431.28
728.705	2332.98
728.891	2474.29
729.077	2566.45
729.264	2470.19
729.45	2416.94
729.636	2580.78
729.823	2470.19
730.009	2515.25
730.195	2576.69
730.382	2431.28
730.568	2525.49
730.754	2531.63
730.94	2576.69
731.126	2543.92
731.313	2480.43
731.499	2478.38
731.685	2435.38
731.871	2674.99
732.057	2545.97
732.243	2582.83
732.429	2615.6
732.615	2591.02
732.801	2480.43
732.987	2367.79
733.173	2500.91
733.359	2492.72
733.545	2494.77
733.731	2502.96
733.917	2545.97
734.103	2451.76
734.289	2533.68
734.475	2502.96
734.661	2668.84
734.847	2619.69
735.033	2488.62
735.219	2611.5
735.404	2545.97
735.59	2564.4
735.776	2607.41
735.962	2597.17
736.148	2625.84
736.333	2615.6
736.519	2586.93
736.705	2631.98
736.89	2746.67
737.076	2455.86
737.262	2582.83
737.447	2615.6
737.633	2595.12
737.819	2588.97
738.004	2560.3
738.19	2599.21
738.375	2597.17
738.561	2695.47
738.747	2656.56
738.932	2654.51
739.118	2638.13
739.303	2597.17
739.489	2681.13
739.674	2654.51
739.859	2584.88
740.045	2586.93
740.23	2650.41
740.416	2562.35
740.601	2560.3
740.786	2601.26
740.972	2548.01
741.157	2562.35
741.342	2550.06
741.528	2640.17
741.713	2668.84
741.898	2658.6
742.084	2613.55
742.269	2685.23
742.454	2615.6
742.639	2588.97
742.824	2738.48
743.01	2631.98
743.195	2597.17
743.38	2511.15
743.565	2617.65
743.75	2509.1
743.935	2658.6
744.12	2597.17
744.305	2562.35
744.49	2451.76
744.675	2494.77
744.86	2593.07
745.045	2660.65
745.23	2593.07
745.415	2511.15
745.6	2572.59
745.785	2556.21
745.97	2486.58
746.155	2578.73
746.34	2550.06
746.525	2380.08
746.71	2654.51
746.895	2539.82
747.079	2353.46
747.264	2384.18
747.449	2498.86
747.634	2453.81
747.819	2464.05
748.003	2488.62
748.188	2507.06
748.373	2480.43
748.557	2400.56
748.742	2396.46
748.927	2359.6
749.111	2345.27
749.296	2292.02
749.481	2369.84
749.665	2382.13
749.85	2335.03
750.034	2500.91
750.219	2292.02
750.404	2357.55
750.588	2406.7
750.773	2255.15
750.957	2208.05
751.141	2304.31
751.326	2210.1
751.51	2318.64
751.695	2271.54
751.879	2169.14
752.064	2296.11
752.248	2132.28
752.432	2244.92
752.617	2226.48
752.801	2181.43
752.985	2226.48
753.17	2271.54
753.354	2197.81
753.538	2113.85
753.722	2222.39
753.907	2056.5
754.091	2054.45
754.275	2027.83
754.459	2054.45
754.643	2003.25
754.828	2089.27
755.012	2048.31
755.196	2076.98
755.38	1878.33
755.564	2132.28
755.748	1880.38
755.932	2066.74
756.116	1925.43
756.3	1950.01
756.484	1972.54
756.668	1929.53
756.852	1880.38
757.036	1962.3
757.22	1872.18
757.404	1884.47
757.588	1911.1
757.772	1915.19
757.956	1913.14
758.14	1939.77
758.323	1851.71
758.507	1917.24
758.691	1935.67
758.875	1773.88
759.059	1843.51
759.242	1876.28
759.426	1790.27
759.61	1814.84
759.794	1782.07
759.977	1771.83
760.161	1782.07
760.345	1730.87
760.528	1718.59
760.712	1784.12
760.895	1784.12
761.079	1585.47
761.263	1702.2
761.446	1651
761.63	1608
761.813	1696.06
761.997	1663.29
762.18	1681.72
762.364	1679.68
762.547	1538.37
762.731	1653.05
762.914	1673.53
763.098	1653.05
763.281	1579.33
763.464	1593.66
763.648	1581.37
763.831	1521.98
764.015	1505.6
764.198	1550.65
764.381	1517.89
764.564	1618.24
764.748	1489.21
764.931	1521.98
765.114	1526.08
765.297	1528.13
765.481	1493.31
765.664	1544.51
765.847	1497.41
766.03	1562.94
766.213	1511.74
766.397	1429.82
766.58	1503.55
766.763	1474.88
766.946	1515.84
767.129	1415.49
767.312	1519.93
767.495	1491.26
767.678	1403.2
767.861	1446.21
768.044	1417.54
768.227	1417.54
768.41	1405.25
768.593	1362.24
768.776	1376.58
768.959	1366.34
769.142	1554.75
769.324	1392.96
769.507	1464.64
769.69	1356.1
769.873	1302.85
770.056	1464.64
770.239	1401.15
770.421	1354.05
770.604	1337.66
770.787	1317.19
770.97	1296.71
771.152	1222.98
771.335	1276.23
771.518	1245.51
771.7	1292.61
771.883	1343.81
772.066	1313.09
772.248	1294.66
772.431	1345.86
772.613	1296.71
772.796	1214.79
772.978	1249.6
773.161	1243.46
773.343	1126.72
773.526	1165.64
773.708	1263.94
773.891	1143.11
774.073	1278.27
774.256	1182.02
774.438	1190.21
774.621	1163.59
774.803	1145.16
774.985	1253.7
775.168	1026.37
775.35	1184.07
775.532	1075.52
775.715	1085.76
775.897	1130.82
776.079	1132.87
776.261	1108.29
776.444	1167.68
776.626	1081.67
776.808	993.61
776.99	1057.09
777.173	1112.39
777.355	1042.76
777.537	1012.04
777.719	1081.67
777.901	1048.9
778.083	995.65
778.265	1012.04
778.447	1024.33
778.629	989.51
778.811	934.22
778.993	979.27
779.175	1016.13
779.357	971.08
779.539	880.97
779.721	966.98
779.903	966.98
780.085	930.12
780.267	891.21
780.449	964.93
780.631	905.54
780.812	899.4
780.994	864.58
781.176	801.1
781.358	833.86
781.54	780.62
781.721	893.26
781.903	897.35
782.085	850.25
782.267	874.82
782.448	815.43
782.63	776.52
782.812	731.47
782.993	784.71
783.175	794.95
783.357	758.09
783.538	719.18
783.72	829.77
783.901	776.52
784.083	770.38
784.264	688.46
784.446	719.18
784.627	672.08
784.809	717.13
784.99	696.65
785.172	762.19
785.353	801.1
785.535	717.13
785.716	692.55
785.897	686.41
786.079	698.7
786.26	733.51
786.441	706.89
786.623	655.69
786.804	590.16
786.985	616.78
787.167	719.18
787.348	649.55
787.529	579.92
787.71	696.65
787.891	612.68
788.073	596.3
788.254	643.4
788.435	627.02
788.616	524.62
788.797	532.81
788.978	604.49
789.159	602.44
789.34	526.67
789.522	588.11
789.703	598.35
789.884	649.55
790.065	622.92
790.246	608.59
790.427	534.86
790.607	581.96
790.788	506.19
790.969	536.91
791.15	610.64
791.331	420.17
791.512	520.53
791.693	551.24
791.874	534.86
792.054	520.53
792.235	483.66
792.416	463.18
792.597	473.42
792.778	520.53
792.958	448.85
793.139	512.33
793.32	561.48
793.5	549.2
793.681	520.53
793.862	510.29
794.042	561.48
794.223	452.94
794.404	541.01
794.584	436.56
794.765	428.37
794.945	528.72
795.126	516.43
795.306	516.43
795.487	444.75
795.667	428.37
795.848	440.65
796.028	403.79
796.209	422.22
796.389	502.09
796.57	442.7
796.75	440.65
796.93	379.22
797.111	403.79
797.291	375.12
797.471	405.84
797.652	395.6
797.832	391.5
798.012	323.92
798.192	395.6
798.373	411.98
798.553	430.41
798.733	465.23
798.913	325.97
799.093	254.29
799.274	348.5
799.454	332.11
799.634	393.55
799.814	350.54
799.994	440.65
800.174	383.31
800.354	377.17
800.534	317.78
800.714	358.74
800.894	291.15
801.074	250.19
801.254	325.97
801.434	315.73
801.614	362.83
801.794	321.87
801.974	1036.61
802.154	325.97
802.334	325.97
802.514	346.45
802.693	291.15
802.873	311.63
803.053	436.56
803.233	328.02
803.413	289.1
803.592	383.31
803.772	334.16
803.952	323.92
804.131	299.34
804.311	280.91
804.491	338.26
804.67	317.78
804.85	311.63
805.03	358.74
805.209	325.97
805.389	291.15
805.568	278.87
805.748	297.3
805.928	256.34
806.107	356.69
806.287	301.39
806.466	270.67
806.646	303.44
806.825	291.15
807.004	313.68
807.184	309.58
807.363	338.26
807.543	258.39
807.722	233.81
807.901	295.25
808.081	340.3
808.26	235.86
808.439	223.57
808.619	280.91
808.798	233.81
808.977	264.53
809.156	225.62
809.336	297.3
809.515	371.02
809.694	276.82
809.873	256.34
810.052	289.1
810.231	301.39
810.411	280.91
810.59	233.81
810.769	196.95
810.948	332.11
811.127	213.33
811.306	270.67
811.485	242
811.664	289.1
811.843	233.81
812.022	219.47
812.201	244.05
812.38	178.51
812.559	207.19
812.737	301.39
812.916	174.42
813.095	194.9
813.274	217.43
813.453	254.29
813.632	291.15
813.811	274.77
813.989	205.14
814.168	207.19
814.347	139.6
814.526	229.71
814.704	254.29
814.883	295.25
815.062	217.43
815.24	201.04
815.419	164.18
815.598	219.47
815.776	207.19
815.955	237.91
816.133	184.66
816.312	250.19
816.49	233.81
816.669	213.33
816.847	198.99
817.026	209.23
817.204	149.84
817.383	233.81
817.561	145.75
817.74	268.63
817.918	272.72
818.097	121.17
818.275	198.99
818.453	178.51
818.632	190.8
818.81	194.9
818.988	178.51
819.167	184.66
819.345	192.85
819.523	147.8
819.701	184.66
819.879	244.05
820.058	129.36
820.236	211.28
820.414	205.14
820.592	182.61
820.77	133.46
820.948	168.27
821.127	123.22
821.305	237.91
821.483	180.56
821.661	190.8
821.839	219.47
822.017	160.08
822.195	98.64
822.373	174.42
822.551	211.28
822.729	151.89
822.907	158.03
823.085	147.8
823.262	192.85
823.44	127.32
823.618	86.36
823.796	170.32
823.974	139.6
824.152	125.27
824.329	119.12
824.507	141.65
824.685	203.09
824.863	215.38
825.04	139.6
825.218	160.08
825.396	133.46
825.574	16.73
825.751	147.8
825.929	201.04
826.107	110.93
826.284	106.84
826.462	160.08
826.639	158.03
826.817	51.54
826.994	188.75
827.172	164.18
827.349	155.99
827.527	69.97
827.704	147.8
827.882	176.47
828.059	158.03
828.237	141.65
828.414	117.08
828.591	78.16
828.769	151.89
828.946	117.08
829.124	127.32
829.301	137.56
829.478	104.79
829.655	108.88
829.833	201.04
830.01	86.36
830.187	188.75
830.364	104.79
830.542	207.19
830.719	127.32
830.896	180.56
831.073	121.17
831.25	141.65
831.427	74.07
831.604	123.22
831.782	24.92
831.959	227.67
832.136	53.59
832.313	135.51
832.49	127.32
832.667	178.51
832.844	139.6
833.021	86.36
833.198	88.4
833.374	92.5
833.551	119.12
833.728	147.8
833.905	149.84
834.082	133.46
834.259	123.22
834.436	129.36
834.612	37.2
834.789	98.64
834.966	143.7
835.143	80.21
835.319	24.92
835.496	123.22
835.673	115.03
835.85	80.21
836.026	67.92
836.203	137.56
836.38	8.53
836.556	94.55
836.733	69.97
836.909	78.16
837.086	78.16
837.262	72.02
837.439	53.59
837.616	84.31
837.792	98.64
837.968	78.16
838.145	63.83
838.321	143.7
838.498	102.74
838.674	137.56
838.851	98.64
839.027	92.5
839.203	90.45
839.38	123.22
839.556	147.8
839.732	69.97
839.909	139.6
840.085	102.74
840.261	102.74
840.437	112.98
840.614	98.64
840.79	100.69
840.966	78.16
841.142	45.4
841.318	112.98
841.494	123.22
841.671	143.7
841.847	61.78
842.023	29.01
842.199	31.06
842.375	121.17
842.551	84.31
842.727	-3.75
842.903	158.03
843.079	0.34
843.255	123.22
843.431	82.26
843.607	69.97
843.783	57.68
843.959	55.64
844.134	112.98
844.31	67.92
844.486	29.01
844.662	80.21
844.838	12.63
845.013	37.2
845.189	82.26
845.365	86.36
845.541	108.88
845.716	86.36
845.892	84.31
846.068	12.63
846.244	20.82
846.419	135.51
846.595	74.07
846.77	-9.9
846.946	35.16
847.122	31.06
847.297	22.87
847.473	121.17
847.648	16.73
847.824	94.55
847.999	6.49
848.175	69.97
848.35	61.78
848.526	61.78
848.701	121.17
848.876	63.83
849.052	82.26
849.227	61.78
849.403	37.2
849.578	76.12
849.753	8.53
849.929	92.5
850.104	-11.95
850.279	33.11
850.454	47.44
850.63	67.92
850.805	26.96
850.98	57.68
851.155	22.87
851.33	41.3
851.505	2.39
851.681	80.21
851.856	39.25
852.031	24.92
852.206	55.64
852.381	69.97
852.556	-9.9
852.731	94.55
852.906	125.27
853.081	80.21
853.256	69.97
853.431	67.92
853.606	-32.43
853.781	65.88
853.956	-7.85
854.131	10.58
854.305	8.53
854.48	-34.47
854.655	82.26
854.83	67.92
855.005	-11.95
855.18	55.64
855.354	53.59
855.529	47.44
855.704	-24.23
855.879	72.02
856.053	18.77
856.228	78.16
856.403	45.4
856.577	22.87
856.752	31.06
856.926	-1.71
857.101	57.68
857.276	8.53
857.45	8.53
857.625	49.49
857.799	-9.9
857.974	18.77
858.148	-44.71
858.323	65.88
858.497	18.77
858.672	31.06
858.846	33.11
859.02	59.73
859.195	41.3
859.369	37.2
859.543	-3.75
859.718	-3.75
859.892	8.53
860.066	18.77
860.241	22.87
860.415	-52.91
860.589	78.16
860.763	96.6
860.938	4.44
861.112	8.53
861.286	22.87
861.46	43.35
861.634	0.34
861.808	80.21
861.982	-11.95
862.157	-11.95
862.331	33.11
862.505	18.77
862.679	-16.04
862.853	53.59
863.027	20.82
863.201	65.88
863.375	-40.62
863.549	20.82
863.722	78.16
863.896	-11.95
864.07	49.49
864.244	-20.14
864.418	35.16
864.592	45.4
864.766	4.44
864.939	72.02
865.113	-59.05
865.287	55.64
865.461	-32.43
865.634	123.22
865.808	51.54
865.982	-11.95
866.156	8.53
866.329	-61.1
866.503	-44.71
866.676	47.44
866.85	-1.71
867.024	47.44
867.197	125.27
867.371	45.4
867.544	61.78
867.718	16.73
867.891	106.84
868.065	53.59
868.238	-32.43
868.412	10.58
868.585	72.02
868.759	35.16
868.932	20.82
869.105	35.16
869.279	-48.81
869.452	10.58
869.625	35.16
869.799	8.53
869.972	16.73
870.145	63.83
870.319	76.12
870.492	-42.67
870.665	-5.8
870.838	55.64
871.011	18.77
871.185	-67.24
871.358	31.06
871.531	45.4
871.704	45.4
871.877	18.77
872.05	115.03
872.223	-75.43
872.396	31.06
872.569	24.92
872.742	-65.19
872.915	12.63
873.088	-5.8
873.261	61.78
873.434	2.39
873.607	53.59
873.78	-44.71
873.953	24.92
874.126	57.68
874.299	84.31
874.471	53.59
874.644	-46.76
874.817	-9.9
874.99	82.26
875.163	24.92
875.335	45.4
875.508	76.12
875.681	43.35
875.853	61.78
876.026	53.59
876.199	-22.19
876.371	39.25
876.544	-9.9
876.717	-20.14
876.889	-48.81
877.062	61.78
877.234	-18.09
877.407	-32.43
877.579	-87.72
877.752	-18.09
877.924	-7.85
878.097	-24.23
878.269	-26.28
878.442	31.06
878.614	-5.8
878.786	-3.75
878.959	-3.75
879.131	67.92
879.303	-75.43
879.476	29.01
879.648	53.59
879.82	-16.04
879.993	-13.99
880.165	10.58
880.337	-18.09
880.509	-30.38
880.681	-26.28
880.854	37.2
881.026	61.78
881.198	125.27
881.37	-34.47
881.542	29.01
881.714	-22.19
881.886	-3.75
882.058	-28.33
882.23	-28.33
882.402	-3.75
882.574	61.78
882.746	6.49
882.918	43.35
883.09	112.98
883.262	-28.33
883.434	18.77
883.606	14.68
883.778	22.87
883.95	43.35
884.122	18.77
884.293	37.2
884.465	-65.19
884.637	-1.71
884.809	-13.99
884.98	2.39
885.152	-26.28
885.324	31.06
885.496	-67.24
885.667	10.58
885.839	37.2
886.011	29.01
886.182	-34.47
886.354	61.78
886.525	-11.95
886.697	2.39
886.869	-73.39
887.04	-57
887.212	51.54
887.383	84.31
887.555	39.25
887.726	-18.09
887.897	-11.95
888.069	-28.33
888.24	-48.81
888.412	31.06
888.583	-3.75
888.754	-3.75
888.926	-30.38
889.097	-36.52
889.268	2.39
889.44	14.68
889.611	-7.85
889.782	-38.57
889.953	16.73
890.125	-18.09
890.296	-52.91
890.467	-30.38
890.638	-36.52
890.809	12.63
890.98	26.96
891.151	14.68
891.323	45.4
891.494	47.44
891.665	100.69
891.836	26.96
892.007	-83.63
892.178	61.78
892.349	-11.95
892.52	26.96
892.691	-7.85
892.862	-30.38
893.032	-11.95
893.203	-57
893.374	-38.57
893.545	67.92
893.716	-11.95
893.887	-1.71
894.057	20.82
894.228	41.3
894.399	26.96
894.57	-20.14
894.74	0.34
894.911	76.12
895.082	-81.58
895.253	-7.85
895.423	-26.28
895.594	102.74
895.764	-24.23
895.935	-85.67
896.106	8.53
896.276	-40.62
896.447	24.92
896.617	-52.91
896.788	-24.23
896.958	-3.75
897.129	-3.75
897.299	-7.85
897.47	59.73
897.64	43.35
897.81	-24.23
897.981	-11.95
898.151	33.11
898.322	14.68
898.492	67.92
898.662	4.44
898.832	-18.09
899.003	-20.14
899.173	51.54
899.343	-32.43
899.513	-75.43
