Data from USB4F104151__90__12-42-41-685.txt Node

Date: Fri Mar 14 12:42:41 EDT 2025
User: louis
Spectrometer: USB4F10415
Trigger mode: 4
Integration Time (sec): 3.000000E-2
Scans to average: 1
Electric dark correction enabled: true
Nonlinearity correction enabled: false
Boxcar width: 0
XAxis mode: Wavelengths
Number of Pixels in Spectrum: 3648
>>>>>Begin Spectral Data<<<<<
178.204	-119.64
178.424	-119.64
178.644	-119.64
178.864	-158.55
179.084	-162.64
179.304	-17.24
179.524	44.2
179.744	11.43
179.964	-52.05
180.184	7.34
180.404	36.01
180.624	-29.52
180.844	33.96
181.064	17.58
181.283	-9.05
181.503	-11.09
181.723	-31.57
181.943	-37.72
182.163	56.49
182.383	66.73
182.602	115.88
182.822	17.58
183.042	1.19
183.262	36.01
183.482	15.53
183.701	-7
183.921	-0.85
184.141	9.39
184.361	126.12
184.58	19.63
184.8	64.68
185.02	-17.24
185.239	54.44
185.459	52.39
185.679	74.92
185.898	-64.34
186.118	115.88
186.338	3.24
186.557	54.44
186.777	-25.43
186.997	95.4
187.216	-19.29
187.436	91.31
187.655	15.53
187.875	38.06
188.095	25.77
188.314	124.07
188.534	89.26
188.753	-29.52
188.973	13.48
189.192	60.59
189.412	3.24
189.631	3.24
189.851	-17.24
190.07	46.25
190.29	-21.33
190.509	70.83
190.729	5.29
190.948	40.11
191.168	134.31
191.387	40.11
191.607	9.39
191.826	56.49
192.045	-50
192.265	38.06
192.484	85.16
192.704	62.63
192.923	-19.29
193.142	117.93
193.362	-27.48
193.581	66.73
193.8	62.63
194.02	68.78
194.239	64.68
194.458	-7
194.678	31.91
194.897	17.58
195.116	-9.05
195.335	-11.09
195.555	-15.19
195.774	29.87
195.993	19.63
196.212	42.15
196.432	13.48
196.651	3.24
196.87	42.15
197.089	76.97
197.308	31.91
197.528	42.15
197.747	-7
197.966	-52.05
198.185	105.64
198.404	33.96
198.623	38.06
198.842	15.53
199.062	91.31
199.281	21.67
199.5	25.77
199.719	87.21
199.938	19.63
200.157	29.87
200.376	56.49
200.595	62.63
200.814	13.48
201.033	15.53
201.252	54.44
201.471	48.3
201.69	-7
201.909	58.54
202.128	7.34
202.347	46.25
202.566	76.97
202.785	52.39
203.004	13.48
203.223	99.5
203.442	-7
203.661	23.72
203.879	33.96
204.098	87.21
204.317	68.78
204.536	36.01
204.755	21.67
204.974	58.54
205.193	23.72
205.411	130.22
205.63	52.39
205.849	21.67
206.068	27.82
206.287	33.96
206.505	144.55
206.724	29.87
206.943	3.24
207.162	107.69
207.381	-4.95
207.599	76.97
207.818	1.19
208.037	-19.29
208.255	-23.38
208.474	7.34
208.693	74.92
208.911	7.34
209.13	17.58
209.349	5.29
209.567	5.29
209.786	33.96
210.005	70.83
210.223	11.43
210.442	29.87
210.661	52.39
210.879	1.19
211.098	54.44
211.316	23.72
211.535	27.82
211.753	1.19
211.972	9.39
212.191	52.39
212.409	36.01
212.628	9.39
212.846	64.68
213.065	29.87
213.283	83.11
213.502	54.44
213.72	-25.43
213.938	-31.57
214.157	101.55
214.375	40.11
214.594	17.58
214.812	-11.09
215.031	54.44
215.249	9.39
215.467	3.24
215.686	93.35
215.904	23.72
216.122	46.25
216.341	25.77
216.559	33.96
216.778	21.67
216.996	-7
217.214	27.82
217.432	-41.81
217.651	3.24
217.869	117.93
218.087	-15.19
218.306	9.39
218.524	89.26
218.742	64.68
218.96	38.06
219.179	23.72
219.397	27.82
219.615	95.4
219.833	48.3
220.051	-4.95
220.27	21.67
220.488	29.87
220.706	122.02
220.924	1.19
221.142	-19.29
221.36	5.29
221.578	74.92
221.796	17.58
222.015	46.25
222.233	40.11
222.451	62.63
222.669	3.24
222.887	25.77
223.105	-54.1
223.323	11.43
223.541	1.19
223.759	50.35
223.977	91.31
224.195	21.67
224.413	-2.9
224.631	31.91
224.849	-31.57
225.067	103.59
225.285	-2.9
225.503	19.63
225.721	23.72
225.939	64.68
226.157	25.77
226.375	87.21
226.592	13.48
226.81	91.31
227.028	50.35
227.246	144.55
227.464	48.3
227.682	46.25
227.9	54.44
228.117	1.19
228.335	1.19
228.553	-50
228.771	64.68
228.989	11.43
229.206	-17.24
229.424	-2.9
229.642	25.77
229.86	21.67
230.077	-47.96
230.295	91.31
230.513	52.39
230.731	68.78
230.948	25.77
231.166	66.73
231.384	-29.52
231.601	-4.95
231.819	9.39
232.037	91.31
232.254	-4.95
232.472	48.3
232.689	27.82
232.907	79.02
233.125	19.63
233.342	-31.57
233.56	93.35
233.777	15.53
233.995	29.87
234.213	62.63
234.43	-4.95
234.648	68.78
234.865	-76.63
235.083	38.06
235.3	36.01
235.518	42.15
235.735	91.31
235.953	25.77
236.17	5.29
236.388	3.24
236.605	33.96
236.822	40.11
237.04	27.82
237.257	62.63
237.475	-25.43
237.692	44.2
237.909	23.72
238.127	-0.85
238.344	60.59
238.562	38.06
238.779	33.96
238.996	36.01
239.214	50.35
239.431	76.97
239.648	25.77
239.865	-29.52
240.083	-11.09
240.3	38.06
240.517	-39.76
240.735	72.87
240.952	48.3
241.169	66.73
241.386	33.96
241.603	15.53
241.821	-4.95
242.038	-2.9
242.255	46.25
242.472	-11.09
242.689	44.2
242.907	19.63
243.124	-7
243.341	105.64
243.558	-7
243.775	-43.86
243.992	25.77
244.209	52.39
244.426	95.4
244.643	70.83
244.86	11.43
245.078	95.4
245.295	11.43
245.512	66.73
245.729	9.39
245.946	40.11
246.163	-9.05
246.38	70.83
246.597	54.44
246.814	38.06
247.031	83.11
247.248	38.06
247.464	72.87
247.681	23.72
247.898	40.11
248.115	68.78
248.332	-11.09
248.549	54.44
248.766	29.87
248.983	3.24
249.2	72.87
249.417	60.59
249.633	46.25
249.85	99.5
250.067	42.15
250.284	85.16
250.501	9.39
250.717	-39.76
250.934	-25.43
251.151	-25.43
251.368	115.88
251.585	74.92
251.801	46.25
252.018	13.48
252.235	-15.19
252.451	44.2
252.668	-45.91
252.885	36.01
253.102	17.58
253.318	15.53
253.535	11.43
253.752	-62.29
253.968	3.24
254.185	-47.96
254.401	7.34
254.618	62.63
254.835	74.92
255.051	62.63
255.268	52.39
255.484	87.21
255.701	5.29
255.917	-11.09
256.134	23.72
256.351	95.4
256.567	23.72
256.784	-19.29
257	-58.2
257.217	58.54
257.433	-50
257.65	60.59
257.866	162.98
258.082	52.39
258.299	-25.43
258.515	64.68
258.732	97.45
258.948	-39.76
259.165	5.29
259.381	-13.14
259.597	-33.62
259.814	60.59
260.03	11.43
260.246	27.82
260.463	9.39
260.679	93.35
260.895	44.2
261.112	46.25
261.328	9.39
261.544	11.43
261.761	64.68
261.977	11.43
262.193	-37.72
262.409	99.5
262.626	105.64
262.842	95.4
263.058	15.53
263.274	56.49
263.49	-2.9
263.707	79.02
263.923	62.63
264.139	-13.14
264.355	40.11
264.571	36.01
264.787	21.67
265.004	99.5
265.22	-66.39
265.436	3.24
265.652	-15.19
265.868	42.15
266.084	-9.05
266.3	132.26
266.516	7.34
266.732	85.16
266.948	-9.05
267.164	-23.38
267.38	109.74
267.596	76.97
267.812	81.07
268.028	93.35
268.244	-19.29
268.46	27.82
268.676	60.59
268.892	15.53
269.108	21.67
269.324	-9.05
269.54	3.24
269.756	76.97
269.972	-47.96
270.188	-2.9
270.403	-2.9
270.619	-15.19
270.835	-43.86
271.051	48.3
271.267	17.58
271.483	87.21
271.698	-29.52
271.914	50.35
272.13	5.29
272.346	13.48
272.562	36.01
272.777	58.54
272.993	52.39
273.209	9.39
273.425	11.43
273.64	7.34
273.856	54.44
274.072	23.72
274.287	64.68
274.503	36.01
274.719	93.35
274.934	50.35
275.15	7.34
275.366	74.92
275.581	-27.48
275.797	101.55
276.012	66.73
276.228	-15.19
276.444	19.63
276.659	9.39
276.875	46.25
277.09	3.24
277.306	3.24
277.521	23.72
277.737	-7
277.952	29.87
278.168	-9.05
278.383	99.5
278.599	31.91
278.814	70.83
279.03	-39.76
279.245	58.54
279.461	40.11
279.676	31.91
279.892	7.34
280.107	-7
280.322	-23.38
280.538	46.25
280.753	44.2
280.969	46.25
281.184	27.82
281.399	56.49
281.615	79.02
281.83	17.58
282.045	17.58
282.26	-45.91
282.476	113.83
282.691	68.78
282.906	21.67
283.122	-45.91
283.337	44.2
283.552	81.07
283.767	-0.85
283.983	50.35
284.198	25.77
284.413	70.83
284.628	-27.48
284.843	-0.85
285.058	19.63
285.274	-2.9
285.489	-47.96
285.704	7.34
285.919	60.59
286.134	36.01
286.349	-0.85
286.564	-35.67
286.779	128.17
286.995	19.63
287.21	19.63
287.425	101.55
287.64	-13.14
287.855	-27.48
288.07	62.63
288.285	-2.9
288.5	15.53
288.715	54.44
288.93	54.44
289.145	-19.29
289.36	74.92
289.575	42.15
289.79	97.45
290.004	7.34
290.219	25.77
290.434	15.53
290.649	52.39
290.864	-70.48
291.079	46.25
291.294	17.58
291.509	46.25
291.724	7.34
291.938	33.96
292.153	95.4
292.368	-9.05
292.583	23.72
292.798	81.07
293.012	48.3
293.227	44.2
293.442	119.98
293.657	79.02
293.871	56.49
294.086	-17.24
294.301	99.5
294.516	72.87
294.73	-21.33
294.945	74.92
295.16	152.74
295.374	156.84
295.589	27.82
295.804	42.15
296.018	3.24
296.233	15.53
296.447	66.73
296.662	-15.19
296.877	52.39
297.091	15.53
297.306	-11.09
297.52	99.5
297.735	21.67
297.949	85.16
298.164	64.68
298.378	58.54
298.593	11.43
298.807	17.58
299.022	29.87
299.236	58.54
299.451	58.54
299.665	21.67
299.88	-27.48
300.094	17.58
300.309	66.73
300.523	103.59
300.737	9.39
300.952	-13.14
301.166	74.92
301.381	-19.29
301.595	23.72
301.809	25.77
302.024	-2.9
302.238	-9.05
302.452	46.25
302.667	23.72
302.881	74.92
303.095	64.68
303.309	29.87
303.524	-7
303.738	85.16
303.952	-60.24
304.166	52.39
304.381	-17.24
304.595	66.73
304.809	-13.14
305.023	56.49
305.237	76.97
305.452	-29.52
305.666	70.83
305.88	68.78
306.094	56.49
306.308	-72.53
306.522	85.16
306.736	150.7
306.95	38.06
307.164	68.78
307.379	-17.24
307.593	13.48
307.807	68.78
308.021	81.07
308.235	58.54
308.449	85.16
308.663	-13.14
308.877	117.93
309.091	36.01
309.305	21.67
309.519	115.88
309.733	97.45
309.947	3.24
310.161	113.83
310.374	74.92
310.588	23.72
310.802	-19.29
311.016	-2.9
311.23	79.02
311.444	46.25
311.658	46.25
311.872	91.31
312.085	103.59
312.299	19.63
312.513	-7
312.727	7.34
312.941	42.15
313.154	50.35
313.368	91.31
313.582	54.44
313.796	1.19
314.009	103.59
314.223	44.2
314.437	89.26
314.651	40.11
314.864	29.87
315.078	-11.09
315.292	3.24
315.505	-17.24
315.719	40.11
315.933	1.19
316.146	31.91
316.36	33.96
316.573	27.82
316.787	64.68
317.001	79.02
317.214	62.63
317.428	9.39
317.641	54.44
317.855	9.39
318.068	50.35
318.282	70.83
318.495	81.07
318.709	23.72
318.922	58.54
319.136	48.3
319.349	64.68
319.563	-19.29
319.776	11.43
319.99	-17.24
320.203	72.87
320.417	27.82
320.63	42.15
320.843	38.06
321.057	117.93
321.27	31.91
321.483	130.22
321.697	97.45
321.91	111.78
322.124	44.2
322.337	44.2
322.55	44.2
322.763	140.46
322.977	23.72
323.19	-47.96
323.403	33.96
323.617	72.87
323.83	7.34
324.043	58.54
324.256	64.68
324.469	-54.1
324.683	136.36
324.896	33.96
325.109	54.44
325.322	1.19
325.535	103.59
325.748	44.2
325.962	42.15
326.175	-9.05
326.388	79.02
326.601	44.2
326.814	64.68
327.027	72.87
327.24	105.64
327.453	25.77
327.666	99.5
327.879	-35.67
328.092	50.35
328.305	60.59
328.518	13.48
328.731	-13.14
328.944	31.91
329.157	36.01
329.37	-56.15
329.583	52.39
329.796	91.31
330.009	9.39
330.222	60.59
330.435	31.91
330.648	68.78
330.861	52.39
331.073	15.53
331.286	36.01
331.499	136.36
331.712	-13.14
331.925	9.39
332.138	25.77
332.35	50.35
332.563	15.53
332.776	111.78
332.989	23.72
333.202	25.77
333.414	17.58
333.627	5.29
333.84	48.3
334.053	124.07
334.265	-15.19
334.478	-27.48
334.691	-7
334.903	21.67
335.116	7.34
335.329	21.67
335.541	60.59
335.754	17.58
335.966	60.59
336.179	48.3
336.392	-4.95
336.604	111.78
336.817	25.77
337.029	72.87
337.242	-7
337.454	25.77
337.667	60.59
337.88	89.26
338.092	19.63
338.305	42.15
338.517	3.24
338.729	99.5
338.942	89.26
339.154	31.91
339.367	25.77
339.579	83.11
339.792	-4.95
340.004	68.78
340.217	66.73
340.429	58.54
340.641	109.74
340.854	5.29
341.066	-21.33
341.278	105.64
341.491	74.92
341.703	21.67
341.915	-17.24
342.128	52.39
342.34	130.22
342.552	60.59
342.764	33.96
342.977	107.69
343.189	93.35
343.401	31.91
343.613	-41.81
343.826	-23.38
344.038	-66.39
344.25	107.69
344.462	21.67
344.674	33.96
344.886	5.29
345.099	38.06
345.311	68.78
345.523	42.15
345.735	-70.48
345.947	42.15
346.159	-0.85
346.371	17.58
346.583	-0.85
346.795	50.35
347.007	42.15
347.219	87.21
347.431	107.69
347.643	130.22
347.855	52.39
348.067	91.31
348.279	-2.9
348.491	19.63
348.703	33.96
348.915	95.4
349.127	-7
349.339	70.83
349.551	99.5
349.763	70.83
349.975	-9.05
350.187	124.07
350.399	50.35
350.61	70.83
350.822	81.07
351.034	7.34
351.246	46.25
351.458	38.06
351.669	74.92
351.881	72.87
352.093	48.3
352.305	74.92
352.517	130.22
352.728	70.83
352.94	19.63
353.152	42.15
353.363	36.01
353.575	60.59
353.787	42.15
353.999	119.98
354.21	171.18
354.422	44.2
354.633	68.78
354.845	87.21
355.057	66.73
355.268	23.72
355.48	132.26
355.692	-35.67
355.903	21.67
356.115	23.72
356.326	48.3
356.538	126.12
356.749	60.59
356.961	95.4
357.172	-23.38
357.384	46.25
357.595	31.91
357.807	38.06
358.018	44.2
358.23	64.68
358.441	126.12
358.653	146.6
358.864	87.21
359.075	44.2
359.287	40.11
359.498	62.63
359.709	33.96
359.921	117.93
360.132	52.39
360.344	1.19
360.555	60.59
360.766	76.97
360.977	31.91
361.189	56.49
361.4	27.82
361.611	105.64
361.823	87.21
362.034	38.06
362.245	-41.81
362.456	95.4
362.667	72.87
362.879	68.78
363.09	31.91
363.301	113.83
363.512	64.68
363.723	140.46
363.935	19.63
364.146	83.11
364.357	19.63
364.568	64.68
364.779	-21.33
364.99	95.4
365.201	44.2
365.412	33.96
365.623	-50
365.834	136.36
366.045	36.01
366.256	83.11
366.467	99.5
366.678	40.11
366.889	158.89
367.1	56.49
367.311	105.64
367.522	-39.76
367.733	101.55
367.944	117.93
368.155	62.63
368.366	31.91
368.577	64.68
368.788	128.17
368.999	89.26
369.209	64.68
369.42	54.44
369.631	144.55
369.842	124.07
370.053	23.72
370.264	111.78
370.474	101.55
370.685	46.25
370.896	134.31
371.107	-17.24
371.317	58.54
371.528	85.16
371.739	130.22
371.95	60.59
372.16	97.45
372.371	70.83
372.582	122.02
372.792	5.29
373.003	81.07
373.214	42.15
373.424	89.26
373.635	-13.14
373.846	76.97
374.056	52.39
374.267	101.55
374.477	68.78
374.688	46.25
374.898	31.91
375.109	81.07
375.319	42.15
375.53	76.97
375.74	7.34
375.951	85.16
376.161	44.2
376.372	115.88
376.582	13.48
376.793	81.07
377.003	-2.9
377.214	62.63
377.424	134.31
377.635	91.31
377.845	38.06
378.055	99.5
378.266	40.11
378.476	64.68
378.686	91.31
378.897	66.73
379.107	79.02
379.317	81.07
379.528	124.07
379.738	115.88
379.948	11.43
380.158	72.87
380.369	74.92
380.579	52.39
380.789	76.97
380.999	76.97
381.21	158.89
381.42	101.55
381.63	56.49
381.84	93.35
382.05	72.87
382.261	46.25
382.471	103.59
382.681	27.82
382.891	124.07
383.101	74.92
383.311	38.06
383.521	95.4
383.731	101.55
383.941	58.54
384.151	38.06
384.361	58.54
384.571	97.45
384.781	42.15
384.991	70.83
385.201	126.12
385.411	52.39
385.621	62.63
385.831	74.92
386.041	89.26
386.251	50.35
386.461	85.16
386.671	60.59
386.881	128.17
387.091	7.34
387.301	107.69
387.511	-97.11
387.72	23.72
387.93	74.92
388.14	124.07
388.35	72.87
388.56	138.41
388.769	107.69
388.979	83.11
389.189	74.92
389.399	99.5
389.609	70.83
389.818	103.59
390.028	70.83
390.238	117.93
390.447	11.43
390.657	76.97
390.867	93.35
391.076	-0.85
391.286	132.26
391.496	76.97
391.705	11.43
391.915	154.79
392.125	107.69
392.334	23.72
392.544	177.32
392.753	87.21
392.963	83.11
393.172	97.45
393.382	50.35
393.591	171.18
393.801	195.75
394.01	79.02
394.22	152.74
394.429	97.45
394.639	66.73
394.848	128.17
395.058	95.4
395.267	115.88
395.477	122.02
395.686	79.02
395.895	185.51
396.105	169.13
396.314	115.88
396.524	119.98
396.733	13.48
396.942	183.46
397.152	91.31
397.361	130.22
397.57	103.59
397.78	79.02
397.989	113.83
398.198	183.46
398.407	119.98
398.617	132.26
398.826	167.08
399.035	50.35
399.244	111.78
399.453	93.35
399.663	181.42
399.872	101.55
400.081	70.83
400.29	169.13
400.499	134.31
400.708	103.59
400.917	183.46
401.127	128.17
401.336	144.55
401.545	208.04
401.754	210.09
401.963	224.42
402.172	173.22
402.381	162.98
402.59	162.98
402.799	210.09
403.008	191.66
403.217	150.7
403.426	150.7
403.635	134.31
403.844	181.42
404.053	236.71
404.262	154.79
404.471	228.52
404.68	124.07
404.888	171.18
405.097	214.18
405.306	177.32
405.515	234.66
405.724	199.85
405.933	357.54
406.142	236.71
406.35	279.72
406.559	197.8
406.768	310.44
406.977	269.48
407.185	253.09
407.394	267.43
407.603	253.09
407.812	246.95
408.02	304.29
408.229	316.58
408.438	312.49
408.646	263.33
408.855	353.45
409.064	367.78
409.272	400.55
409.481	363.69
409.69	363.69
409.898	400.55
410.107	449.7
410.315	447.65
410.524	404.64
410.733	492.71
410.941	431.27
411.15	496.8
411.358	574.63
411.567	588.96
411.775	558.24
411.984	582.82
412.192	640.16
412.401	552.1
412.609	720.03
412.818	625.83
413.026	658.59
413.234	691.36
413.443	760.99
413.651	773.28
413.86	855.2
414.068	834.72
414.276	867.49
414.485	818.33
414.693	847.01
414.901	1051.8
415.11	976.03
415.318	963.74
415.526	1070.23
415.734	1019.04
415.943	1119.39
416.151	1080.47
416.359	1189.02
416.567	1260.7
416.776	1250.46
416.984	1359
417.192	1334.42
417.4	1424.53
417.608	1336.47
417.817	1485.97
418.025	1567.89
418.233	1631.38
418.441	1598.61
418.649	1741.97
418.857	1805.46
419.065	1832.08
419.273	1795.22
419.481	1891.47
419.689	2108.55
419.897	2167.95
420.105	2196.62
420.313	2202.76
420.521	2423.94
420.729	2339.97
420.937	2469
421.145	2616.45
421.353	2589.83
421.561	2872.45
421.769	2817.15
421.977	2946.17
422.185	2827.39
422.393	3089.53
422.601	3253.37
422.809	3298.42
423.017	3335.29
423.224	3429.49
423.432	3548.28
423.64	3544.18
423.848	3918.96
424.056	3834.99
424.263	4052.08
424.471	4105.32
424.679	4228.2
424.887	4455.53
425.094	4576.36
425.302	4535.4
425.51	4766.82
425.718	4998.24
425.925	5016.67
426.133	5037.15
426.341	5346.39
426.548	5479.51
426.756	5737.56
426.964	5790.8
427.171	5975.12
427.379	6276.17
427.586	6394.95
427.794	6497.35
428.001	6835.27
428.209	7216.19
428.417	7085.12
428.624	7394.36
428.832	7398.46
429.039	7328.83
429.247	7498.81
429.454	8121.39
429.662	8692.77
429.869	8035.38
430.076	8692.77
430.284	8643.62
430.491	8879.14
430.699	9421.85
430.906	9573.4
431.114	9647.13
431.321	9958.42
431.528	10050.58
431.736	10603.53
431.943	11205.63
432.15	10839.05
432.358	11131.9
432.565	11633.66
432.772	11678.71
432.979	12311.53
433.187	12405.74
433.394	12504.04
433.601	13259.74
433.808	13263.84
434.016	13454.3
434.223	13923.29
434.43	14711.75
434.637	14275.54
434.844	15211.46
435.052	15532.99
435.259	15698.88
435.466	15645.63
435.673	15582.14
435.88	16411.57
436.087	17234.85
436.294	17290.15
436.501	16890.79
436.708	17609.63
436.915	18088.85
437.122	18752.4
437.329	18561.94
437.537	19317.64
437.743	19567.49
437.95	19483.52
438.157	20353.91
438.364	21009.26
438.571	21285.73
438.778	20908.91
438.985	23323.46
439.192	22145.88
439.399	22903.63
439.606	22502.23
439.813	23612.23
440.02	25369.38
440.227	24642.35
440.433	24535.86
440.64	25623.33
440.847	25418.53
441.054	25672.48
441.261	27478.79
441.467	26987.28
441.674	27679.49
441.881	28480.25
442.088	28709.62
442.294	28472.06
442.501	29360.87
442.708	29862.63
442.914	30995.15
443.121	32330.43
443.328	30995.15
443.534	33655.47
443.741	32543.42
443.948	32312
444.154	34587.29
444.361	34106.02
444.568	34710.17
444.774	34452.12
444.981	34691.74
445.187	35756.68
445.394	37087.86
445.6	36637.31
445.807	40362.56
446.013	39062.1
446.22	39459.41
446.426	40565.31
446.633	40911.42
446.839	42893.85
447.046	41077.3
447.252	42967.58
447.459	43381.27
447.665	43266.58
447.871	44560.9
448.078	47016.41
448.284	44653.06
448.491	45713.91
448.697	47618.52
448.903	48445.9
449.11	48540.1
449.316	47712.72
449.522	48630.21
449.728	49588.66
449.935	49922.48
450.141	50221.48
450.347	51214.75
450.553	49559.99
450.76	50295.21
450.966	51902.87
451.172	51362.2
451.378	52779.4
451.584	51650.97
451.791	52986.24
451.997	53328.25
452.203	53819.77
452.409	54135.15
452.615	53098.88
452.821	51644.82
453.027	51136.93
453.233	53723.51
453.44	51487.13
453.646	52320.65
453.852	52773.25
454.058	53174.66
454.264	51878.29
454.47	52656.52
454.676	51278.24
454.882	52965.76
455.088	48693.7
455.294	49412.54
455.5	50332.07
455.705	50850.21
455.911	48884.16
456.117	47851.98
456.323	47288.79
456.529	44835.33
456.735	47114.72
456.941	45808.11
457.147	44966.4
457.352	43543.06
457.558	43233.81
457.764	42914.33
457.97	42168.87
458.176	41341.49
458.381	41632.3
458.587	39168.6
458.793	39512.66
458.999	37534.32
459.204	40112.71
459.41	38906.46
459.616	36493.95
459.821	36643.45
460.027	36442.75
460.233	35779.21
460.438	33624.75
460.644	34493.08
460.85	32891.57
461.055	32342.72
461.261	32176.83
461.466	29821.67
461.672	28949.23
461.878	30851.8
462.083	28715.76
462.289	28603.13
462.494	27992.83
462.7	26917.65
462.905	25926.43
463.111	26972.94
463.316	26927.89
463.522	26399.51
463.727	26712.85
463.932	26639.12
464.138	26446.62
464.343	26022.69
464.549	25459.49
464.754	26409.75
464.959	26077.98
465.165	26032.93
465.37	24824.62
465.575	24400.69
465.781	25254.7
465.986	25178.92
466.191	24589.11
466.397	24005.44
466.602	22872.91
466.807	23837.5
467.012	23728.96
467.218	23493.44
467.423	23100.23
467.628	23368.52
467.833	24365.88
468.038	23366.47
468.244	23008.08
468.449	23575.36
468.654	22891.34
468.859	22653.78
469.064	22629.2
469.269	21885.79
469.474	21959.52
469.679	22322.01
469.885	22020.95
470.09	22029.15
470.295	21994.33
470.5	21134.18
470.705	21441.38
470.91	21007.21
471.115	20943.72
471.32	21058.41
471.525	20933.48
471.73	20620.14
471.935	20321.14
472.139	19751.81
472.344	19962.75
472.549	20126.58
472.754	19520.38
472.959	19252.1
473.164	18733.96
473.369	18637.71
473.574	19092.36
473.778	19172.23
473.983	18807.69
474.188	19114.89
474.393	18060.18
474.598	18172.82
474.802	17834.91
475.007	17791.9
475.212	17818.52
475.417	17140.65
475.621	17148.84
475.826	17433.5
476.031	16786.35
476.235	16677.8
476.44	16585.65
476.645	16696.24
476.849	16540.59
477.054	16417.71
477.259	16217.01
477.463	16020.41
477.668	15715.26
477.872	15991.73
478.077	15264.71
478.282	15193.03
478.486	15225.79
478.691	14945.22
478.895	15102.92
479.1	14967.75
479.304	15029.19
479.509	14283.73
479.713	14613.45
479.918	14449.61
480.122	14224.34
480.326	14398.41
480.531	14363.6
480.735	13984.73
480.94	14181.33
481.144	14255.06
481.348	13720.54
481.553	14017.49
481.757	13521.88
481.961	13911
482.166	14027.73
482.37	14074.84
482.574	13775.83
482.778	13614.04
482.983	13880.28
483.187	13736.92
483.391	13839.32
483.595	13622.23
483.8	13435.87
484.004	13603.8
484.208	13814.74
484.412	13628.38
484.616	13695.96
484.821	13620.19
485.025	13536.22
485.229	13769.69
485.433	13546.46
485.637	13632.47
485.841	13454.3
486.045	13638.62
486.249	13722.59
486.453	13497.31
486.657	13732.83
486.861	13743.06
487.065	13362.14
487.269	13620.19
487.473	13358.05
487.677	13632.47
487.881	13734.87
488.085	13523.93
488.289	13661.15
488.493	13794.26
488.697	13806.55
488.901	13659.1
489.105	13784.02
489.309	13745.11
489.512	13880.28
489.716	13865.94
489.92	13894.61
490.124	13548.51
490.328	14052.31
490.531	14093.27
490.735	14218.19
490.939	14322.64
491.143	13706.2
491.346	13954.01
491.55	14089.17
491.754	13925.33
491.958	14181.33
492.161	14232.53
492.365	14351.31
492.569	14425.04
492.772	14398.41
492.976	14681.03
493.18	14486.48
493.383	14705.61
493.587	14803.91
493.79	14953.41
493.994	14777.29
494.197	14982.09
494.401	14914.5
494.605	14932.93
494.808	15352.77
495.012	15320
495.215	15311.81
495.419	15760.31
495.622	15195.07
495.825	15981.49
496.029	15635.39
496.232	15971.25
496.436	15993.78
496.639	16198.58
496.843	16335.79
497.046	16692.14
497.249	16987.05
497.453	17030.05
497.656	16964.52
497.859	17148.84
498.063	17023.91
498.266	17660.83
498.469	17662.88
498.673	17648.54
498.876	17955.74
499.079	18178.97
499.282	17963.93
499.485	18547.6
499.689	18461.58
499.892	18736.01
500.095	18893.71
500.298	19534.72
500.501	19151.75
500.705	19905.4
500.908	19868.54
501.111	19946.36
501.314	20200.31
501.517	20487.03
501.72	20826.99
501.923	20710.25
502.126	20773.74
502.329	21570.4
502.532	21545.83
502.735	21439.33
502.938	21842.78
503.141	22266.71
503.344	22801.23
503.547	22565.71
503.75	23038.8
503.953	23284.55
504.156	23571.27
504.359	23432.01
504.562	23698.24
504.765	24177.47
504.968	24496.95
505.17	24677.17
505.373	24363.83
505.576	25082.67
505.779	25115.44
505.982	25623.33
506.185	25828.13
506.387	25914.14
506.59	26262.3
506.793	26827.54
506.996	26770.19
507.198	27454.22
507.401	27192.08
507.604	27497.22
507.807	28289.79
508.009	27960.06
508.212	28449.53
508.415	28695.28
508.617	28703.48
508.82	28871.41
509.022	29094.64
509.225	29555.43
509.428	30108.38
509.63	30282.46
509.833	30155.49
510.035	31169.23
510.238	30739.16
510.44	31607.5
510.643	31707.85
510.845	31974.08
511.048	31820.49
511.25	32422.59
511.453	32686.78
511.655	33749.67
511.858	33288.88
512.06	33350.32
512.262	33862.31
512.465	33886.89
512.667	34286.24
512.87	34753.18
513.072	34812.57
513.274	35306.13
513.477	35805.83
513.679	35895.94
513.881	36252.29
514.084	36844.15
514.286	36330.11
514.488	36887.16
514.69	37755.5
514.893	37812.84
515.095	38156.9
515.297	38570.59
515.499	38525.53
515.701	39109.21
515.904	39516.75
516.106	39787.08
516.308	39684.69
516.51	40434.24
516.712	40061.51
516.914	40809.02
517.116	41228.85
517.318	41232.95
517.52	41421.36
517.722	41482.8
517.925	42045.99
518.127	42533.41
518.329	43072.03
518.531	42504.74
518.733	43547.15
518.935	43846.16
519.136	43721.23
519.338	44069.39
519.54	44464.64
519.742	44866.05
519.944	44874.24
520.146	45906.41
520.348	45793.78
520.55	45937.13
520.752	45855.21
520.954	46551.52
521.155	46758.37
521.357	47012.32
521.559	47466.97
521.761	48419.27
521.963	47700.43
522.164	48333.26
522.366	48675.27
522.568	48701.89
522.77	48792
522.971	49093.05
523.173	48990.66
523.375	49392.06
523.576	49416.63
523.778	49670.58
523.98	50493.86
524.181	50299.31
524.383	50565.54
524.584	50944.42
524.786	51075.49
524.988	50805.16
525.189	51446.17
525.391	51581.34
525.592	52177.29
525.794	51917.2
525.995	52083.09
526.197	52126.1
526.398	52408.71
526.6	52912.52
526.801	52959.62
527.003	53158.27
527.204	52552.07
527.406	53334.4
527.607	53438.84
527.808	53725.56
528.01	52965.76
528.211	53160.32
528.412	54210.93
528.614	53897.59
528.815	54245.74
529.016	54550.89
529.218	53451.13
529.419	54159.73
529.62	54143.34
529.822	54546.79
530.023	54520.17
530.224	54595.95
530.425	54745.45
530.626	53961.08
530.828	53760.37
531.029	55482.72
531.23	54614.38
531.431	54518.12
531.632	54970.72
531.833	54778.21
532.035	54937.96
532.236	54860.13
532.437	55210.34
532.638	54346.09
532.839	55075.17
533.04	55165.28
533.241	54499.69
533.442	55773.53
533.643	55107.94
533.844	55501.15
534.045	55830.87
534.246	54528.36
534.447	55290.21
534.648	54606.19
534.849	55165.28
535.05	54714.73
535.251	55087.46
535.451	54942.05
535.652	55071.07
535.853	55177.57
536.054	55275.87
536.255	55220.58
536.456	54770.02
536.657	55597.4
536.857	55050.59
537.058	55079.27
537.259	54913.38
537.46	55083.36
537.66	55005.54
537.861	54690.15
538.062	54577.51
538.263	55118.18
538.463	54817.13
538.664	54794.6
538.865	55222.62
539.065	55679.32
539.266	54323.57
539.466	55388.51
539.667	54520.17
539.868	55257.44
540.068	54995.3
540.269	54638.95
540.469	55003.49
540.67	54591.85
540.87	54724.97
541.071	54704.49
541.271	55181.66
541.472	55259.49
541.672	54692.2
541.873	54663.53
542.073	54133.1
542.274	55226.72
542.474	54354.29
542.675	54284.65
542.875	55001.44
543.075	54880.61
543.276	54282.61
543.476	54604.14
543.676	54266.22
543.877	54589.8
544.077	54421.87
544.277	54290.8
544.478	54554.99
544.678	54550.89
544.878	54260.08
545.078	54432.11
545.279	54225.26
545.479	54073.71
545.679	54516.07
545.879	54505.83
546.079	53948.79
546.28	54057.33
546.48	54180.21
546.68	54202.74
546.88	54622.57
547.08	53836.15
547.28	54057.33
547.48	54034.8
547.68	54321.52
547.88	53942.64
548.081	54182.26
548.281	53870.96
548.481	54042.99
548.681	54702.44
548.881	54139.25
549.081	54040.95
549.28	53946.74
549.48	54057.33
549.68	53535.1
549.88	54342
550.08	53690.74
550.28	53940.6
550.48	53703.03
550.68	54143.34
550.88	53444.99
551.08	53584.25
551.279	53608.82
551.479	53590.39
551.679	54020.47
551.879	53565.82
552.079	54008.18
552.278	53363.07
552.478	53561.72
552.678	54020.47
552.878	53967.22
553.077	53268.86
553.277	53070.21
553.477	53766.52
553.676	53395.84
553.876	53395.84
554.076	53035.39
554.275	53410.17
554.475	52654.47
554.674	53778.81
554.874	53035.39
555.074	52918.66
555.273	53793.14
555.473	53299.58
555.672	52791.69
555.872	53268.86
556.071	53188.99
556.271	53467.51
556.47	53127.55
556.67	52232.59
556.869	52732.29
557.068	52822.4
557.268	52797.83
557.467	52343.18
557.667	52599.18
557.866	53047.68
558.065	52562.31
558.265	52627.85
558.464	52242.83
558.663	52918.66
558.863	51857.81
559.062	52582.79
559.261	52001.17
559.461	52771.21
559.66	51632.53
559.859	52378
560.058	51384.73
560.258	51700.12
560.457	51728.79
560.656	51845.52
560.855	51376.54
561.054	51599.77
561.253	51495.32
561.453	52087.18
561.652	52107.66
561.851	51726.74
562.05	51712.41
562.249	51294.62
562.448	52048.27
562.647	51374.49
562.846	51040.67
563.045	51280.28
563.244	50565.54
563.443	51650.97
563.642	50387.37
563.841	51255.71
564.04	50794.92
564.239	51046.82
564.438	50663.85
564.637	50653.61
564.836	50747.81
565.035	49877.43
565.234	50839.97
565.432	50342.31
565.631	50571.69
565.83	50586.02
566.029	50266.54
566.228	50223.53
566.427	49945.01
566.625	49578.42
566.824	49408.44
567.023	50309.55
567.222	49082.81
567.42	50346.41
567.619	49529.27
567.818	49529.27
568.016	49338.81
568.215	49742.26
568.414	49654.2
568.612	49795.51
568.811	49338.81
569.01	49351.1
569.208	48574.92
569.407	49205.69
569.605	48583.11
569.804	49375.67
570.002	48433.61
570.201	48783.81
570.4	48298.44
570.598	48103.88
570.797	48382.41
570.995	48462.28
571.193	47860.18
571.392	48411.08
571.59	48136.65
571.789	48300.49
571.987	48171.47
572.186	47806.93
572.384	47823.31
572.582	47925.71
572.781	48101.84
572.979	47206.87
573.177	47639
573.376	47688.15
573.574	47251.93
573.772	47292.89
573.971	47063.52
574.169	46957.02
574.367	46586.34
574.565	47190.49
574.763	46782.94
574.962	46508.52
575.16	46320.1
575.358	46502.37
575.556	45531.64
575.754	46862.82
575.952	45750.77
576.151	46475.75
576.349	45855.21
576.547	46033.39
576.745	45621.75
576.943	45791.73
577.141	45728.24
577.339	45851.12
577.537	45416.95
577.735	45720.05
577.933	45603.31
578.131	45441.53
578.329	44894.72
578.527	45177.34
578.725	44999.16
578.923	44972.54
579.121	44939.77
579.319	44763.65
579.516	44655.11
579.714	44544.51
579.912	44638.72
580.11	44280.33
580.308	44311.05
580.506	43954.7
580.704	43708.94
580.901	44218.89
581.099	44249.61
581.297	43649.55
581.495	43203.1
581.692	43516.43
581.89	43694.61
582.088	43729.42
582.285	43205.14
582.483	43637.26
582.681	43502.1
582.878	43166.23
583.076	42752.54
583.274	43223.58
583.471	42177.06
583.669	42433.06
583.866	42207.78
584.064	42553.89
584.262	41925.16
584.459	42760.73
584.657	41826.86
584.854	42422.82
585.052	41478.71
585.249	42000.94
585.447	42005.03
585.644	41239.09
585.841	41871.92
586.039	41626.16
586.236	41232.95
586.434	41073.21
586.631	41146.93
586.828	41306.68
587.026	41499.19
587.223	40700.48
587.42	40872.51
587.618	41267.76
587.815	40311.36
588.012	40653.37
588.21	40370.75
588.407	40360.51
588.604	40403.52
588.801	39969.35
588.999	40352.32
589.196	39776.84
589.393	40038.98
589.59	39653.97
589.787	39533.14
589.984	39565.9
590.182	39150.17
590.379	39207.51
590.576	38845.02
590.773	39330.39
590.97	39021.14
591.167	39193.17
591.364	38306.4
591.561	38564.45
591.758	38378.08
591.955	38193.76
592.152	38640.22
592.349	38156.9
592.546	37935.72
592.743	38208.1
592.94	37866.09
593.137	37833.32
593.334	38070.89
593.531	37024.37
593.727	37454.45
593.924	37896.81
594.121	37177.97
594.318	37206.64
594.515	36854.39
594.712	37507.69
594.908	36692.6
595.105	36983.41
595.302	36874.87
595.499	36788.86
595.696	36776.57
595.892	36147.84
596.089	36696.7
596.286	36518.53
596.482	36149.89
596.679	36043.4
596.876	35955.33
597.072	35791.5
597.269	35893.89
597.466	35238.54
597.662	35537.55
597.859	35773.06
598.055	35244.69
598.252	35076.76
598.448	35322.51
598.645	34886.29
598.841	35000.98
599.038	34585.24
599.234	34964.12
599.431	34194.08
599.627	34566.81
599.824	34687.64
600.02	34259.62
600.217	34314.91
600.413	33782.44
600.609	34038.44
600.806	34026.15
601.002	33972.9
601.198	33591.98
601.395	33329.84
601.591	33594.03
601.787	33774.25
601.984	33196.72
602.18	33190.58
602.376	32983.73
602.572	32961.2
602.769	33036.98
602.965	32623.29
603.161	32948.92
603.357	32957.11
603.553	32365.24
603.75	32654.01
603.946	32273.09
604.142	32862.9
604.338	32062.15
604.534	32209.6
604.73	31818.44
604.926	32256.7
605.122	31896.26
605.318	31888.07
605.514	31433.42
605.71	31400.65
605.906	31886.02
606.102	31552.2
606.298	31087.31
606.494	31015.63
606.69	31466.19
606.886	31410.89
607.082	31009.49
607.278	31122.13
607.474	30632.66
607.67	31105.74
607.866	30175.97
608.062	30896.85
608.257	30831.32
608.453	30491.35
608.649	30894.8
608.845	30419.67
609.041	30479.07
609.236	30685.91
609.432	30216.93
609.628	30280.41
609.824	30270.17
610.019	30182.11
610.215	30218.97
610.411	29999.84
610.606	29893.35
610.802	29940.45
610.998	29614.82
611.193	29827.81
611.389	29696.74
611.584	29721.32
611.78	29575.91
611.976	29463.27
612.171	29876.96
612.367	29596.39
612.562	29422.31
612.758	29078.25
612.953	28756.72
613.149	29317.87
613.344	28982
613.539	29582.06
613.735	29180.65
613.93	29199.09
614.126	28691.19
614.321	28992.24
614.517	28906.23
614.712	28668.66
614.907	28500.73
615.103	28928.75
615.298	28734.2
615.493	29213.42
615.688	28451.58
615.884	28898.03
616.079	28222.2
616.274	28570.36
616.47	28482.3
616.665	28209.92
616.86	28099.33
617.055	28037.89
617.25	27937.54
617.445	28166.91
617.641	27433.74
617.836	28214.01
618.031	27863.81
618.226	27794.18
618.421	27724.55
618.616	27642.63
618.811	27087.63
619.006	27927.3
619.201	27312.91
619.396	27505.41
619.591	26723.09
619.786	27251.47
619.981	26594.07
620.176	27054.86
620.371	26452.76
620.566	26630.93
620.761	26549.01
620.956	26522.39
621.151	26116.89
621.346	26305.31
621.541	25959.2
621.735	26069.79
621.93	25557.8
622.125	25297.7
622.32	25254.7
622.515	25387.82
622.709	25353
622.904	25068.33
623.099	24994.61
623.294	25045.8
623.488	24955.69
623.683	24695.6
623.878	24505.14
624.072	24615.73
624.267	24451.89
624.462	23989.05
624.656	23788.35
624.851	24046.4
625.046	23749.44
625.24	23677.76
625.435	23434.05
625.629	23591.75
625.824	23399.24
626.018	23241.54
626.213	22764.37
626.407	22956.88
626.602	22659.92
626.796	23085.9
626.991	22621.01
627.185	22543.19
627.38	22385.49
627.574	22334.29
627.768	22123.35
627.963	22117.21
628.157	21789.53
628.352	21971.8
628.546	21379.94
628.74	21644.13
628.935	21308.26
629.129	21461.86
629.323	21326.69
629.517	21171.05
629.712	20867.95
629.906	21031.79
630.1	20560.75
630.294	20783.98
630.489	20355.96
630.683	20626.29
630.877	20343.67
631.071	20243.32
631.265	20360.05
631.459	19893.12
631.653	20030.33
631.848	19841.92
632.042	19620.74
632.236	19837.82
632.43	19401.6
632.624	19766.14
632.818	19413.89
633.012	19139.46
633.206	19297.16
633.4	19030.92
633.594	18824.08
633.788	18621.33
633.982	18924.43
634.176	18764.68
634.369	18918.28
634.563	18557.84
634.757	18645.9
634.951	18537.36
635.145	18199.44
635.339	18256.79
635.533	18074.52
635.726	18183.06
635.92	17816.47
636.114	17779.61
636.308	17630.11
636.501	17558.43
636.695	17728.41
636.889	17482.66
637.083	17392.55
637.276	17212.32
637.47	17103.78
637.664	17195.94
637.857	17304.48
638.051	16937.9
638.244	16808.87
638.438	16882.6
638.632	16645.04
638.825	16485.3
639.019	16427.95
639.212	16528.3
639.406	16198.58
639.599	16346.03
639.793	16382.9
639.986	15995.83
640.18	16016.31
640.373	15854.52
640.567	15451.07
640.76	15829.95
640.954	15498.17
641.147	15526.85
641.34	15512.51
641.534	15461.31
641.727	15492.03
641.92	15078.34
642.114	15107.01
642.307	15209.41
642.5	15160.26
642.694	14867.4
642.887	14975.94
643.08	14773.19
643.273	14752.71
643.467	14525.39
643.66	14586.83
643.853	14517.2
644.046	14205.91
644.239	14373.84
644.432	14121.94
644.626	14019.54
644.819	14224.34
645.012	14191.57
645.205	13976.53
645.398	13810.65
645.591	13698.01
645.784	14017.49
645.977	13685.72
646.17	13708.25
646.363	13480.92
646.556	13304.8
646.749	13149.15
646.942	13360.09
647.135	13360.09
647.328	13329.38
647.521	13159.39
647.714	13097.95
647.907	13122.53
648.099	12870.63
648.292	12915.69
648.485	12884.97
648.678	12614.63
648.871	12565.48
649.064	12682.22
649.256	12622.83
649.449	12176.37
649.642	12456.94
649.835	12338.16
650.027	12151.79
650.22	12348.4
650.413	12174.32
650.605	12241.9
650.798	11901.94
650.991	11899.89
651.183	11983.86
651.376	11809.78
651.568	11736.06
651.761	11774.97
651.954	11768.82
652.146	11508.73
652.339	11525.11
652.531	11662.33
652.724	11523.07
652.916	11406.33
653.109	11428.86
653.301	11451.39
653.494	11142.14
653.686	10955.78
653.879	11357.18
654.071	11117.57
654.263	10988.55
654.456	10763.27
654.648	10873.86
654.84	10611.72
655.033	10636.3
655.225	10630.15
655.417	10718.22
655.61	10658.82
655.802	10589.19
655.994	10583.05
656.186	10505.23
656.379	10322.96
656.571	10312.72
656.763	10155.02
656.955	10230.8
657.148	10308.62
657.34	10023.95
657.532	9997.33
657.724	10089.49
657.916	10071.06
658.108	9937.94
658.3	9796.63
658.492	9788.44
658.684	9686.04
658.876	9630.74
659.068	9794.58
659.26	9749.53
659.452	9800.73
659.644	9479.19
659.836	9341.98
660.028	9522.2
660.22	9206.81
660.412	9329.69
660.604	9184.29
660.796	9237.53
660.988	9135.14
661.18	9112.61
661.372	9092.13
661.563	8911.91
661.755	9018.4
661.947	8946.72
662.139	8819.75
662.331	8842.28
662.522	8698.92
662.714	8651.81
662.906	8793.12
663.097	8580.14
663.289	8696.87
663.481	8522.79
663.673	8621.1
663.864	8447.02
664.056	8506.41
664.247	8363.05
664.439	8176.69
664.631	8449.07
664.822	8184.88
665.014	8367.15
665.205	8207.41
665.397	7965.75
665.588	8178.73
665.78	8092.72
665.971	7986.22
666.163	8092.72
666.354	7969.84
666.546	7885.87
666.737	7756.85
666.929	7826.48
667.12	7687.22
667.311	7701.56
667.503	7715.89
667.694	7746.61
667.885	7625.78
668.077	7689.27
668.268	7556.15
668.459	7566.39
668.651	7388.22
668.842	7326.78
669.033	7511.1
669.224	7578.68
669.416	7224.38
669.607	7408.7
669.798	7222.33
669.989	7214.14
670.18	7136.32
670.371	7199.8
670.563	7130.17
670.754	7023.68
670.945	7191.61
671.136	6974.53
671.327	7038.02
671.518	6990.91
671.709	6956.1
671.9	7054.4
672.091	7042.11
672.282	6726.72
672.473	6868.03
672.664	6988.86
672.855	6853.7
673.046	6861.89
673.237	6874.18
673.428	6792.26
673.619	6777.92
673.809	6562.89
674	6739.01
674.191	6720.58
674.382	6630.47
674.573	6579.27
674.764	6530.12
674.954	6661.19
675.145	6536.26
675.336	6376.52
675.527	6480.97
675.717	6523.98
675.908	6222.92
676.099	6247.5
676.289	6290.51
676.48	6296.65
676.671	6278.22
676.861	6259.79
677.052	6308.94
677.243	6235.21
677.433	6192.2
677.624	6130.77
677.814	6235.21
678.005	6169.68
678.195	6190.16
678.386	6116.43
678.576	6181.96
678.767	6007.89
678.957	6044.75
679.148	6235.21
679.338	6050.89
679.529	5944.4
679.719	5856.34
679.909	5901.39
680.1	5796.95
680.29	5973.07
680.481	5727.32
680.671	5858.39
680.861	5938.26
681.052	5686.36
681.242	5809.23
681.432	5858.39
681.622	5667.92
681.813	5674.07
682.003	5715.03
682.193	5661.78
682.383	5776.47
682.573	5725.27
682.764	5573.72
682.954	5596.25
683.144	5565.53
683.334	5659.73
683.524	5612.63
683.714	5565.53
683.904	5514.33
684.094	5416.02
684.284	5440.6
684.474	5557.33
684.664	5375.06
684.854	5479.51
685.044	5473.37
685.234	5432.41
685.424	5213.28
685.614	5350.49
685.804	5461.08
685.994	5332.06
686.184	5237.85
686.374	5272.67
686.564	5157.98
686.753	5307.48
686.943	5282.91
687.133	5207.13
687.323	5231.71
687.513	5084.25
687.702	5211.23
687.892	5151.84
688.082	5039.2
688.272	5051.49
688.461	4932.7
688.651	5039.2
688.841	4881.5
689.03	5026.91
689.22	5031.01
689.41	4969.57
689.599	4865.12
689.789	4865.12
689.979	4807.78
690.168	4916.32
690.358	4787.3
690.547	4705.38
690.737	4783.2
690.926	4822.11
691.116	4664.42
691.305	4699.23
691.495	4705.38
691.684	4443.24
691.874	4674.66
692.063	4732
692.252	4781.15
692.442	4549.73
692.631	4510.82
692.82	4484.2
693.01	4469.86
693.199	4406.38
693.388	4437.09
693.578	4238.44
693.767	4373.61
693.956	4365.42
694.146	4342.89
694.335	4308.07
694.524	4482.15
694.713	4377.7
694.902	4369.51
695.092	4314.22
695.281	4170.86
695.47	4340.84
695.659	4232.3
695.848	4144.24
696.037	4177
696.226	4179.05
696.415	4168.81
696.604	4129.9
696.793	4076.65
696.982	4082.8
697.171	4000.88
697.36	3988.59
697.549	4035.69
697.738	3998.83
697.927	3849.33
698.116	3968.11
698.305	4009.07
698.494	3898.48
698.683	3855.47
698.872	3939.44
699.061	3787.89
699.25	3912.81
699.438	3744.88
699.627	3759.22
699.816	3906.67
700.005	3837.04
700.193	3880.05
700.382	3859.57
700.571	3767.41
700.76	3576.95
700.948	3824.75
701.137	3585.14
701.326	3701.87
701.514	3640.44
701.703	3820.66
701.892	3673.2
702.08	3771.51
702.269	3683.44
702.457	3724.4
702.646	3669.11
702.834	3576.95
703.023	3624.05
703.212	3574.9
703.4	3705.97
703.589	3603.57
703.777	3617.91
703.965	3585.14
704.154	3497.08
704.342	3529.84
704.531	3636.34
704.719	3462.26
704.907	3617.91
705.096	3554.42
705.284	3464.31
705.472	3507.32
705.661	3421.3
705.849	3454.07
706.037	3488.89
706.226	3378.3
706.414	3454.07
706.602	3427.45
706.79	3363.96
706.979	3392.63
707.167	3511.41
707.355	3343.48
707.543	3298.42
707.731	3546.23
707.919	3513.46
708.107	3439.73
708.296	3533.94
708.484	3447.93
708.672	3400.82
708.86	3548.28
709.048	3458.17
709.236	3480.69
709.424	3464.31
709.612	3415.16
709.8	3236.99
709.988	3404.92
710.176	3306.62
710.364	3357.82
710.551	3363.96
710.739	3316.86
710.927	3253.37
711.115	3234.94
711.303	3349.62
711.491	3310.71
711.679	3302.52
711.866	3435.64
712.054	3323
712.242	3191.93
712.43	3318.9
712.617	3316.86
712.805	3347.58
712.993	3312.76
713.181	3261.56
713.368	3290.23
713.556	3341.43
713.744	3118.2
713.931	3349.62
714.119	3124.35
714.306	3306.62
714.494	3243.13
714.682	3146.87
714.869	3165.31
715.057	3345.53
715.244	3034.24
715.432	3196.03
715.619	3269.75
715.807	3411.06
715.994	3288.18
716.182	3112.06
716.369	3183.74
716.556	3124.35
716.744	3196.03
716.931	3208.31
717.119	3251.32
717.306	3279.99
717.493	3255.42
717.681	3323
717.868	3179.64
718.055	3165.31
718.242	3083.39
718.43	3112.06
718.617	3232.89
718.804	3191.93
718.991	3089.53
719.179	3081.34
719.366	3140.73
719.553	3216.51
719.74	3144.83
719.927	3142.78
720.114	3269.75
720.301	3153.02
720.488	3230.84
720.676	3206.27
720.863	3120.25
721.05	3224.7
721.237	3163.26
721.424	3081.34
721.611	3247.23
721.798	3067
721.985	3093.63
722.172	2960.51
722.358	3126.39
722.545	3122.3
722.732	3075.2
722.919	3206.27
723.106	3097.72
723.293	3095.68
723.48	3126.39
723.667	2991.23
723.853	3142.78
724.04	3216.51
724.227	3187.83
724.414	3191.93
724.6	3046.52
724.787	3236.99
724.974	3097.72
725.161	3060.86
725.347	3050.62
725.534	3054.72
725.72	3234.94
725.907	3189.88
726.094	3185.79
726.28	3140.73
726.467	3015.8
726.653	3062.91
726.84	3093.63
727.027	3173.5
727.213	3021.95
727.4	3249.27
727.586	3150.97
727.773	3206.27
727.959	3138.68
728.145	3200.12
728.332	3159.16
728.518	3087.48
728.705	3208.31
728.891	3255.42
729.077	3058.81
729.264	3118.2
729.45	3044.48
729.636	3214.46
729.823	3140.73
730.009	3146.87
730.195	3089.53
730.382	3304.57
730.568	3198.07
730.754	3148.92
730.94	3144.83
731.126	3259.51
731.313	3181.69
731.499	3204.22
731.685	3247.23
731.871	3171.45
732.057	3226.75
732.243	3193.98
732.429	3198.07
732.615	3290.23
732.801	3265.66
732.987	3267.7
733.173	3220.6
733.359	3372.15
733.545	3185.79
733.731	3200.12
733.917	3314.81
734.103	3359.86
734.289	3236.99
734.475	3304.57
734.661	3239.03
734.847	3284.09
735.033	3146.87
735.219	3279.99
735.404	3200.12
735.59	3202.17
735.776	3171.45
735.962	3239.03
736.148	3406.97
736.333	3363.96
736.519	3320.95
736.705	3239.03
736.89	3236.99
737.076	3306.62
737.262	3296.38
737.447	3247.23
737.633	3243.13
737.819	3349.62
738.004	3290.23
738.19	3271.8
738.375	3236.99
738.561	3220.6
738.747	3230.84
738.932	3216.51
739.118	3409.01
739.303	3265.66
739.489	3308.66
739.674	3239.03
739.859	3216.51
740.045	3222.65
740.23	3261.56
740.416	3300.47
740.601	3275.9
740.786	3298.42
740.972	3288.18
741.157	3126.39
741.342	3177.59
741.528	3181.69
741.713	3275.9
741.898	3112.06
742.084	3208.31
742.269	3294.33
742.454	3163.26
742.639	3261.56
742.824	3099.77
743.01	3378.3
743.195	3208.31
743.38	3224.7
743.565	3284.09
743.75	3243.13
743.935	3087.48
744.12	3167.35
744.305	3060.86
744.49	3208.31
744.675	3118.2
744.86	3150.97
745.045	3073.15
745.23	3118.2
745.415	3005.56
745.6	3126.39
745.785	3175.55
745.97	3173.5
746.155	3097.72
746.34	3050.62
746.525	2991.23
746.71	2958.46
746.895	3003.52
747.079	2915.45
747.264	2907.26
747.449	3095.68
747.634	2890.88
747.819	3005.56
748.003	3013.76
748.188	2987.13
748.373	2890.88
748.557	2919.55
748.742	2966.65
748.927	2931.84
749.111	2833.54
749.296	2995.32
749.481	2804.86
749.665	2835.58
749.85	2794.62
750.034	2811.01
750.219	2800.77
750.404	2768
750.588	2706.56
750.773	2755.71
750.957	2724.99
751.141	2800.77
751.326	2714.75
751.51	2698.37
751.695	2671.75
751.879	2714.75
752.064	2641.03
752.248	2626.69
752.432	2724.99
752.617	2704.51
752.801	2520.2
752.985	2608.26
753.17	2522.24
753.354	2604.16
753.538	2620.55
753.722	2436.23
753.907	2485.38
754.091	2434.18
754.275	2501.76
754.459	2466.95
754.643	2399.37
754.828	2389.13
755.012	2399.37
755.196	2399.37
755.38	2325.64
755.564	2321.54
755.748	2276.49
755.932	2399.37
756.116	2319.5
756.3	2405.51
756.484	2307.21
756.668	2391.17
756.852	2280.58
757.036	2223.24
757.22	2206.86
757.404	2126.99
757.588	2270.34
757.772	2335.88
757.956	2194.57
758.14	2339.97
758.323	2161.8
758.507	2184.33
758.691	2051.21
758.875	2133.13
759.059	2141.32
759.242	2133.13
759.426	2043.02
759.61	2038.92
759.794	2020.49
759.977	1942.67
760.161	2065.55
760.345	2002.06
760.528	1981.58
760.712	2006.16
760.895	2057.36
761.079	2034.83
761.263	1989.77
761.446	1936.53
761.63	1952.91
761.813	1891.47
761.997	1922.19
762.18	1942.67
762.364	1895.57
762.547	1832.08
762.731	1946.76
762.914	1893.52
763.098	1844.37
763.281	1920.14
763.464	1954.96
763.648	1903.76
763.831	1758.35
764.015	1827.98
764.198	1932.43
764.381	1805.46
764.564	1756.3
764.748	1834.13
764.931	1795.22
765.114	1709.2
765.297	1883.28
765.481	1784.98
765.664	1655.95
765.847	1762.45
766.03	1760.4
766.213	1707.15
766.397	1856.65
766.58	1819.79
766.763	1887.37
766.946	1676.43
767.129	1782.93
767.312	1684.62
767.495	1692.82
767.678	1658
767.861	1729.68
768.044	1713.3
768.227	1688.72
768.41	1717.39
768.593	1701.01
768.776	1670.29
768.959	1649.81
769.142	1608.85
769.324	1610.9
769.507	1672.34
769.69	1541.27
769.873	1666.19
770.056	1612.95
770.239	1559.7
770.421	1629.33
770.604	1610.9
770.787	1488.02
770.97	1614.99
771.152	1488.02
771.335	1571.99
771.518	1475.73
771.7	1555.6
771.883	1537.17
772.066	1637.52
772.248	1502.36
772.431	1467.54
772.613	1408.15
772.796	1528.98
772.978	1385.62
773.161	1547.41
773.343	1416.34
773.526	1451.16
773.708	1391.77
773.891	1305.75
774.073	1375.38
774.256	1359
774.438	1453.2
774.621	1324.18
774.803	1293.46
774.985	1391.77
775.168	1381.53
775.35	1320.09
775.532	1328.28
775.715	1238.17
775.897	1301.65
776.079	1293.46
776.261	1268.89
776.444	1260.7
776.626	1332.37
776.808	1346.71
776.99	1156.25
777.173	1176.73
777.355	1182.87
777.537	1213.59
777.719	1242.26
777.901	1258.65
778.083	1229.98
778.265	1156.25
778.447	1195.16
778.629	1137.82
778.811	1133.72
778.993	1186.97
779.175	1186.97
779.357	1094.81
779.539	1010.84
779.721	1088.67
779.903	1164.44
780.085	1000.6
780.267	1092.76
780.449	1117.34
780.631	1070.23
780.812	1135.77
780.994	1070.23
781.176	1004.7
781.358	963.74
781.54	996.51
781.721	1002.65
781.903	1092.76
782.085	1010.84
782.267	943.26
782.448	898.2
782.63	900.25
782.812	869.53
782.993	894.11
783.175	943.26
783.357	920.73
783.538	935.07
783.72	902.3
783.901	902.3
784.083	941.21
784.264	918.68
784.446	828.57
784.627	785.57
784.809	849.05
784.99	871.58
785.172	879.77
785.353	822.43
785.535	804
785.716	828.57
785.897	892.06
786.079	836.77
786.26	791.71
786.441	818.33
786.623	709.79
786.804	853.15
786.985	722.08
787.167	769.18
787.348	779.42
787.529	744.61
787.71	740.51
787.891	867.49
788.073	701.6
788.254	758.94
788.435	711.84
788.616	740.51
788.797	642.21
788.978	758.94
789.159	767.13
789.34	603.3
789.522	615.59
789.703	683.17
789.884	703.65
790.065	703.65
790.246	701.6
790.427	717.98
790.607	752.8
790.788	648.35
790.969	627.87
791.15	591.01
791.331	619.68
791.512	607.39
791.693	666.78
791.874	564.39
792.054	697.5
792.235	638.11
792.416	691.36
792.597	507.04
792.778	570.53
792.958	570.53
793.139	543.91
793.32	580.77
793.5	560.29
793.681	631.97
793.862	599.2
794.042	601.25
794.223	531.62
794.404	533.67
794.584	527.52
794.765	504.99
794.945	486.56
795.126	537.76
795.306	539.81
795.487	502.95
795.667	545.95
795.848	455.84
796.028	509.09
796.209	500.9
796.389	548
796.57	464.04
796.75	511.14
796.93	562.34
797.111	507.04
797.291	484.52
797.471	537.76
797.652	564.39
797.832	468.13
798.012	474.28
798.192	468.13
798.373	484.52
798.553	437.41
798.733	509.09
798.913	447.65
799.093	412.84
799.274	447.65
799.454	429.22
799.634	517.28
799.814	451.75
799.994	464.04
800.174	490.66
800.354	513.19
800.534	414.88
800.714	500.9
800.894	382.12
801.074	435.36
801.254	355.49
801.434	453.8
801.614	406.69
801.794	380.07
801.974	992.41
802.154	431.27
802.334	476.32
802.514	425.12
802.693	326.82
802.873	357.54
803.053	425.12
803.233	429.22
803.413	435.36
803.592	359.59
803.772	343.21
803.952	449.7
804.131	396.45
804.311	421.03
804.491	308.39
804.67	302.25
804.85	320.68
805.03	439.46
805.209	416.93
805.389	324.77
805.568	339.11
805.748	316.58
805.928	365.73
806.107	369.83
806.287	404.64
806.466	330.92
806.646	337.06
806.825	365.73
807.004	380.07
807.184	300.2
807.363	367.78
807.543	386.21
807.722	283.81
807.901	279.72
808.081	326.82
808.26	263.33
808.439	259.24
808.619	210.09
808.798	281.77
808.977	283.81
809.156	361.64
809.336	298.15
809.515	371.88
809.694	396.45
809.873	289.96
810.052	382.12
810.231	279.72
810.411	314.53
810.59	332.97
810.769	312.49
810.948	306.34
811.127	238.76
811.306	310.44
811.485	236.71
811.664	345.25
811.843	320.68
812.022	367.78
812.201	263.33
812.38	300.2
812.559	271.53
812.737	257.19
812.916	220.33
813.095	232.62
813.274	353.45
813.453	289.96
813.632	332.97
813.811	300.2
813.989	228.52
814.168	308.39
814.347	208.04
814.526	203.94
814.704	275.62
814.883	269.48
815.062	281.77
815.24	212.14
815.419	193.7
815.598	304.29
815.776	265.38
815.955	179.37
816.133	234.66
816.312	279.72
816.49	302.25
816.669	269.48
816.847	222.38
817.026	257.19
817.204	283.81
817.383	228.52
817.561	201.9
817.74	197.8
817.918	183.46
818.097	167.08
818.275	181.42
818.453	220.33
818.632	222.38
818.81	160.94
818.988	160.94
819.167	226.47
819.345	273.57
819.523	150.7
819.701	224.42
819.879	195.75
820.058	216.23
820.236	191.66
820.414	224.42
820.592	154.79
820.77	138.41
820.948	142.5
821.127	181.42
821.305	242.85
821.483	220.33
821.661	232.62
821.839	275.62
822.017	150.7
822.195	195.75
822.373	249
822.551	167.08
822.729	167.08
822.907	242.85
823.085	136.36
823.262	152.74
823.44	152.74
823.618	128.17
823.796	218.28
823.974	181.42
824.152	203.94
824.329	119.98
824.507	251.05
824.685	191.66
824.863	154.79
825.04	177.32
825.218	189.61
825.396	175.27
825.574	183.46
825.751	195.75
825.929	175.27
826.107	152.74
826.284	144.55
826.462	175.27
826.639	113.83
826.817	146.6
826.994	183.46
827.172	201.9
827.349	142.5
827.527	224.42
827.704	154.79
827.882	128.17
828.059	275.62
828.237	113.83
828.414	160.94
828.591	48.3
828.769	146.6
828.946	111.78
829.124	105.64
829.301	134.31
829.478	132.26
829.655	152.74
829.833	246.95
830.01	107.69
830.187	185.51
830.364	111.78
830.542	185.51
830.719	130.22
830.896	212.14
831.073	79.02
831.25	105.64
831.427	124.07
831.604	169.13
831.782	148.65
831.959	210.09
832.136	130.22
832.313	142.5
832.49	132.26
832.667	150.7
832.844	156.84
833.021	199.85
833.198	74.92
833.374	99.5
833.551	122.02
833.728	103.59
833.905	185.51
834.082	103.59
834.259	132.26
834.436	124.07
834.612	42.15
834.789	158.89
834.966	115.88
835.143	165.03
835.319	70.83
835.496	146.6
835.673	144.55
835.85	130.22
836.026	148.65
836.203	103.59
836.38	124.07
836.556	83.11
836.733	107.69
836.909	191.66
837.086	134.31
837.262	93.35
837.439	130.22
837.616	152.74
837.792	109.74
837.968	50.35
838.145	48.3
838.321	46.25
838.498	138.41
838.674	33.96
838.851	87.21
839.027	62.63
839.203	70.83
839.38	134.31
839.556	66.73
839.732	72.87
839.909	31.91
840.085	122.02
840.261	76.97
840.437	46.25
840.614	138.41
840.79	83.11
840.966	107.69
841.142	52.39
841.318	99.5
841.494	99.5
841.671	83.11
841.847	58.54
842.023	36.01
842.199	103.59
842.375	124.07
842.551	64.68
842.727	-7
842.903	150.7
843.079	115.88
843.255	124.07
843.431	56.49
843.607	52.39
843.783	50.35
843.959	-23.38
844.134	72.87
844.31	93.35
844.486	105.64
844.662	52.39
844.838	89.26
845.013	167.08
845.189	156.84
845.365	87.21
845.541	83.11
845.716	56.49
845.892	27.82
846.068	25.77
846.244	36.01
846.419	81.07
846.595	64.68
846.77	31.91
846.946	56.49
847.122	79.02
847.297	62.63
847.473	148.65
847.648	130.22
847.824	93.35
847.999	48.3
848.175	23.72
848.35	93.35
848.526	46.25
848.701	38.06
848.876	68.78
849.052	58.54
849.227	126.12
849.403	97.45
849.578	111.78
849.753	44.2
849.929	48.3
850.104	29.87
850.279	7.34
850.454	158.89
850.63	99.5
850.805	62.63
850.98	48.3
851.155	25.77
851.33	79.02
851.505	89.26
851.681	119.98
851.856	83.11
852.031	11.43
852.206	111.78
852.381	60.59
852.556	87.21
852.731	99.5
852.906	107.69
853.081	91.31
853.256	70.83
853.431	89.26
853.606	52.39
853.781	42.15
853.956	-23.38
854.131	89.26
854.305	74.92
854.48	52.39
854.655	58.54
854.83	19.63
855.005	117.93
855.18	76.97
855.354	50.35
855.529	-19.29
855.704	105.64
855.879	93.35
856.053	11.43
856.228	46.25
856.403	-7
856.577	27.82
856.752	124.07
856.926	91.31
857.101	21.67
857.276	72.87
857.45	38.06
857.625	64.68
857.799	25.77
857.974	42.15
858.148	15.53
858.323	29.87
858.497	46.25
858.672	70.83
858.846	40.11
859.02	33.96
859.195	5.29
859.369	31.91
859.543	36.01
859.718	36.01
859.892	44.2
860.066	87.21
860.241	19.63
860.415	-41.81
860.589	101.55
860.763	50.35
860.938	58.54
861.112	60.59
861.286	23.72
861.46	-25.43
861.634	7.34
861.808	50.35
861.982	27.82
862.157	-19.29
862.331	23.72
862.505	5.29
862.679	27.82
862.853	44.2
863.027	-35.67
863.201	72.87
863.375	-74.58
863.549	83.11
863.722	48.3
863.896	111.78
864.07	23.72
864.244	17.58
864.418	-4.95
864.592	7.34
864.766	-13.14
864.939	74.92
865.113	-17.24
865.287	-13.14
865.461	27.82
865.634	21.67
865.808	9.39
865.982	62.63
866.156	-29.52
866.329	-41.81
866.503	11.43
866.676	48.3
866.85	42.15
867.024	13.48
867.197	-7
867.371	19.63
867.544	70.83
867.718	9.39
867.891	58.54
868.065	64.68
868.238	60.59
868.412	29.87
868.585	38.06
868.759	27.82
868.932	44.2
869.105	33.96
869.279	36.01
869.452	-31.57
869.625	46.25
869.799	-37.72
869.972	-4.95
870.145	79.02
870.319	136.36
870.492	72.87
870.665	-35.67
870.838	15.53
871.011	-17.24
871.185	5.29
871.358	31.91
871.531	17.58
871.704	-45.91
871.877	3.24
872.05	-17.24
872.223	33.96
872.396	52.39
872.569	72.87
872.742	-11.09
872.915	19.63
873.088	-2.9
873.261	81.07
873.434	46.25
873.607	17.58
873.78	52.39
873.953	21.67
874.126	142.5
874.299	19.63
874.471	25.77
874.644	-9.05
874.817	-15.19
874.99	68.78
875.163	-56.15
875.335	52.39
875.508	-13.14
875.681	38.06
875.853	9.39
876.026	13.48
876.199	-11.09
876.371	5.29
876.544	-41.81
876.717	3.24
876.889	-2.9
877.062	1.19
877.234	36.01
877.407	27.82
877.579	3.24
877.752	105.64
877.924	-2.9
878.097	50.35
878.269	-43.86
878.442	13.48
878.614	-15.19
878.786	54.44
878.959	42.15
879.131	13.48
879.303	-21.33
879.476	44.2
879.648	50.35
879.82	29.87
879.993	-17.24
880.165	-19.29
880.337	7.34
880.509	27.82
880.681	-15.19
880.854	-50
881.026	-2.9
881.198	99.5
881.37	5.29
881.542	76.97
881.714	36.01
881.886	79.02
882.058	23.72
882.23	33.96
882.402	23.72
882.574	-43.86
882.746	72.87
882.918	-37.72
883.09	33.96
883.262	-19.29
883.434	7.34
883.606	-50
883.778	1.19
883.95	-29.52
884.122	40.11
884.293	72.87
884.465	-11.09
884.637	62.63
884.809	9.39
884.98	40.11
885.152	1.19
885.324	31.91
885.496	60.59
885.667	81.07
885.839	-2.9
886.011	52.39
886.182	3.24
886.354	23.72
886.525	17.58
886.697	13.48
886.869	-19.29
887.04	5.29
887.212	79.02
887.383	122.02
887.555	33.96
887.726	-84.82
887.897	-47.96
888.069	-9.05
888.24	21.67
888.412	-19.29
888.583	36.01
888.754	40.11
888.926	19.63
889.097	99.5
889.268	-9.05
889.44	-43.86
889.611	-64.34
889.782	-33.62
889.953	-17.24
890.125	36.01
890.296	-60.24
890.467	15.53
890.638	17.58
890.809	50.35
890.98	-50
891.151	64.68
891.323	29.87
891.494	-15.19
891.665	3.24
891.836	29.87
892.007	1.19
892.178	-25.43
892.349	42.15
892.52	-39.76
892.691	-9.05
892.862	5.29
893.032	-21.33
893.203	46.25
893.374	38.06
893.545	17.58
893.716	-52.05
893.887	48.3
894.057	25.77
894.228	-37.72
894.399	-39.76
894.57	33.96
894.74	60.59
894.911	23.72
895.082	-33.62
895.253	-47.96
895.423	-35.67
895.594	64.68
895.764	-41.81
895.935	-21.33
896.106	68.78
896.276	-64.34
896.447	-60.24
896.617	1.19
896.788	-29.52
896.958	7.34
897.129	-13.14
897.299	11.43
897.47	40.11
897.64	21.67
897.81	29.87
897.981	-23.38
898.151	1.19
898.322	3.24
898.492	-37.72
898.662	5.29
898.832	13.48
899.003	-9.05
899.173	-7
899.343	50.35
899.513	5.29
