Data from USB4F104151__5__12-40-53-247.txt Node

Date: Fri Mar 14 12:40:53 EDT 2025
User: louis
Spectrometer: USB4F10415
Trigger mode: 4
Integration Time (sec): 3.000000E-2
Scans to average: 1
Electric dark correction enabled: true
Nonlinearity correction enabled: false
Boxcar width: 0
XAxis mode: Wavelengths
Number of Pixels in Spectrum: 3648
>>>>>Begin Spectral Data<<<<<
178.204	-124.93
178.424	-124.93
178.644	-124.93
178.864	-120.83
179.084	-155.65
179.304	30.72
179.524	20.48
179.744	16.38
179.964	86.01
180.184	20.48
180.404	-45.06
180.624	-18.43
180.844	2.05
181.064	-55.3
181.283	12.29
181.503	-34.82
181.723	-34.82
181.943	24.58
182.163	-4.1
182.383	-20.48
182.602	30.72
182.822	8.19
183.042	73.73
183.262	-22.53
183.482	36.86
183.701	51.2
183.921	14.34
184.141	2.05
184.361	30.72
184.58	-10.24
184.8	28.67
185.02	22.53
185.239	73.73
185.459	65.53
185.679	-6.14
185.898	-108.54
186.118	49.15
186.338	18.43
186.557	18.43
186.777	43.01
186.997	81.92
187.216	45.06
187.436	49.15
187.655	67.58
187.875	36.86
188.095	-26.62
188.314	8.19
188.534	116.73
188.753	-73.73
188.973	-24.58
189.192	90.11
189.412	-4.1
189.631	16.38
189.851	28.67
190.07	112.64
190.29	51.2
190.509	67.58
190.729	-30.72
190.948	65.53
191.168	126.97
191.387	43.01
191.607	-45.06
191.826	77.82
192.045	14.34
192.265	20.48
192.484	26.62
192.704	55.3
192.923	-36.86
193.142	18.43
193.362	30.72
193.581	137.21
193.8	-4.1
194.02	16.38
194.239	18.43
194.458	28.67
194.678	-49.15
194.897	28.67
195.116	6.14
195.335	6.14
195.555	59.39
195.774	92.16
195.993	45.06
196.212	43.01
196.432	-18.43
196.651	83.97
196.87	51.2
197.089	45.06
197.308	53.25
197.528	36.86
197.747	-49.15
197.966	0
198.185	96.25
198.404	49.15
198.623	53.25
198.842	32.77
199.062	-18.43
199.281	57.34
199.5	-20.48
199.719	-69.63
199.938	-16.38
200.157	24.58
200.376	43.01
200.595	-38.91
200.814	36.86
201.033	-40.96
201.252	110.59
201.471	49.15
201.69	51.2
201.909	65.53
202.128	61.44
202.347	36.86
202.566	47.1
202.785	-75.77
203.004	-59.39
203.223	36.86
203.442	-32.77
203.661	-49.15
203.879	-45.06
204.098	92.16
204.317	32.77
204.536	4.1
204.755	-43.01
204.974	16.38
205.193	49.15
205.411	94.21
205.63	-30.72
205.849	-18.43
206.068	20.48
206.287	-77.82
206.505	75.77
206.724	-63.49
206.943	22.53
207.162	-61.44
207.381	26.62
207.599	-32.77
207.818	0
208.037	2.05
208.255	-4.1
208.474	0
208.693	83.97
208.911	71.68
209.13	43.01
209.349	12.29
209.567	32.77
209.786	-43.01
210.005	2.05
210.223	2.05
210.442	28.67
210.661	51.2
210.879	-30.72
211.098	-6.14
211.316	-4.1
211.535	57.34
211.753	14.34
211.972	73.73
212.191	69.63
212.409	-24.58
212.628	36.86
212.846	-6.14
213.065	20.48
213.283	86.01
213.502	40.96
213.72	51.2
213.938	63.49
214.157	71.68
214.375	69.63
214.594	26.62
214.812	100.35
215.031	22.53
215.249	0
215.467	-2.05
215.686	36.86
215.904	49.15
216.122	22.53
216.341	45.06
216.559	40.96
216.778	73.73
216.996	40.96
217.214	-34.82
217.432	-6.14
217.651	-2.05
217.869	22.53
218.087	16.38
218.306	36.86
218.524	55.3
218.742	-10.24
218.96	32.77
219.179	-75.77
219.397	40.96
219.615	69.63
219.833	43.01
220.051	-30.72
220.27	59.39
220.488	86.01
220.706	83.97
220.924	69.63
221.142	-16.38
221.36	47.1
221.578	28.67
221.796	26.62
222.015	14.34
222.233	57.34
222.451	79.87
222.669	-38.91
222.887	28.67
223.105	-38.91
223.323	2.05
223.541	-83.97
223.759	36.86
223.977	4.1
224.195	-2.05
224.413	49.15
224.631	-43.01
224.849	10.24
225.067	59.39
225.285	18.43
225.503	47.1
225.721	-49.15
225.939	38.91
226.157	-2.05
226.375	81.92
226.592	-26.62
226.81	26.62
227.028	83.97
227.246	137.21
227.464	10.24
227.682	24.58
227.9	4.1
228.117	-36.86
228.335	67.58
228.553	81.92
228.771	71.68
228.989	75.77
229.206	18.43
229.424	57.34
229.642	-30.72
229.86	45.06
230.077	57.34
230.295	18.43
230.513	32.77
230.731	45.06
230.948	96.25
231.166	67.58
231.384	-10.24
231.601	71.68
231.819	47.1
232.037	43.01
232.254	38.91
232.472	20.48
232.689	-6.14
232.907	-10.24
233.125	32.77
233.342	4.1
233.56	-18.43
233.777	38.91
233.995	-16.38
234.213	86.01
234.43	26.62
234.648	32.77
234.865	38.91
235.083	24.58
235.3	30.72
235.518	20.48
235.735	24.58
235.953	28.67
236.17	20.48
236.388	77.82
236.605	8.19
236.822	94.21
237.04	57.34
237.257	14.34
237.475	73.73
237.692	0
237.909	28.67
238.127	45.06
238.344	12.29
238.562	30.72
238.779	-65.54
238.996	-43.01
239.214	55.3
239.431	135.17
239.648	22.53
239.865	67.58
240.083	34.82
240.3	10.24
240.517	-14.34
240.735	32.77
240.952	6.14
241.169	40.96
241.386	6.14
241.603	-20.48
241.821	-10.24
242.038	47.1
242.255	71.68
242.472	-30.72
242.689	12.29
242.907	8.19
243.124	2.05
243.341	51.2
243.558	14.34
243.775	26.62
243.992	-32.77
244.209	59.39
244.426	63.49
244.643	75.77
244.86	-73.73
245.078	28.67
245.295	55.3
245.512	26.62
245.729	40.96
245.946	22.53
246.163	55.3
246.38	96.25
246.597	90.11
246.814	28.67
247.031	36.86
247.248	-40.96
247.464	14.34
247.681	-10.24
247.898	-24.58
248.115	124.93
248.332	26.62
248.549	24.58
248.766	126.97
248.983	53.25
249.2	18.43
249.417	-16.38
249.633	8.19
249.85	57.34
250.067	43.01
250.284	2.05
250.501	26.62
250.717	67.58
250.934	-32.77
251.151	47.1
251.368	47.1
251.585	79.87
251.801	86.01
252.018	28.67
252.235	77.82
252.451	10.24
252.668	-28.67
252.885	26.62
253.102	55.3
253.318	40.96
253.535	-16.38
253.752	96.25
253.968	-16.38
254.185	-28.67
254.401	-34.82
254.618	14.34
254.835	0
255.051	38.91
255.268	-6.14
255.484	61.44
255.701	-6.14
255.917	4.1
256.134	-8.19
256.351	-40.96
256.567	-4.1
256.784	-51.2
257	45.06
257.217	88.06
257.433	51.2
257.65	49.15
257.866	63.49
258.082	-38.91
258.299	-22.53
258.515	65.53
258.732	73.73
258.948	-36.86
259.165	67.58
259.381	34.82
259.597	-10.24
259.814	22.53
260.03	32.77
260.246	6.14
260.463	14.34
260.679	-20.48
260.895	28.67
261.112	-22.53
261.328	16.38
261.544	53.25
261.761	100.35
261.977	28.67
262.193	-22.53
262.409	69.63
262.626	20.48
262.842	2.05
263.058	36.86
263.274	118.78
263.49	-45.06
263.707	110.59
263.923	45.06
264.139	10.24
264.355	73.73
264.571	8.19
264.787	22.53
265.004	36.86
265.22	24.58
265.436	-22.53
265.652	77.82
265.868	49.15
266.084	-53.25
266.3	22.53
266.516	12.29
266.732	94.21
266.948	-16.38
267.164	2.05
267.38	-6.14
267.596	61.44
267.812	96.25
268.028	112.64
268.244	16.38
268.46	10.24
268.676	-26.62
268.892	36.86
269.108	-26.62
269.324	-10.24
269.54	-4.1
269.756	49.15
269.972	-36.86
270.188	10.24
270.403	-77.82
270.619	-18.43
270.835	79.87
271.051	47.1
271.267	-22.53
271.483	45.06
271.698	133.12
271.914	22.53
272.13	45.06
272.346	-24.58
272.562	63.49
272.777	124.93
272.993	28.67
273.209	38.91
273.425	73.73
273.64	-16.38
273.856	110.59
274.072	2.05
274.287	-24.58
274.503	51.2
274.719	53.25
274.934	65.53
275.15	18.43
275.366	12.29
275.581	0
275.797	2.05
276.012	67.58
276.228	26.62
276.444	-26.62
276.659	104.45
276.875	40.96
277.09	2.05
277.306	10.24
277.521	34.82
277.737	43.01
277.952	73.73
278.168	73.73
278.383	-24.58
278.599	28.67
278.814	55.3
279.03	0
279.245	63.49
279.461	110.59
279.676	20.48
279.892	43.01
280.107	8.19
280.322	-22.53
280.538	12.29
280.753	12.29
280.969	81.92
281.184	83.97
281.399	38.91
281.615	10.24
281.83	34.82
282.045	-30.72
282.26	28.67
282.476	-51.2
282.691	73.73
282.906	-14.34
283.122	16.38
283.337	61.44
283.552	26.62
283.767	83.97
283.983	38.91
284.198	75.77
284.413	38.91
284.628	86.01
284.843	6.14
285.058	88.06
285.274	6.14
285.489	30.72
285.704	118.78
285.919	61.44
286.134	0
286.349	36.86
286.564	0
286.779	75.77
286.995	-36.86
287.21	-18.43
287.425	0
287.64	86.01
287.855	8.19
288.07	-30.72
288.285	53.25
288.5	16.38
288.715	57.34
288.93	0
289.145	-28.67
289.36	77.82
289.575	-40.96
289.79	-10.24
290.004	18.43
290.219	0
290.434	-18.43
290.649	45.06
290.864	16.38
291.079	-49.15
291.294	83.97
291.509	61.44
291.724	16.38
291.938	24.58
292.153	22.53
292.368	-22.53
292.583	69.63
292.798	73.73
293.012	63.49
293.227	55.3
293.442	12.29
293.657	38.91
293.871	102.4
294.086	47.1
294.301	53.25
294.516	90.11
294.73	20.48
294.945	-24.58
295.16	36.86
295.374	122.88
295.589	63.49
295.804	4.1
296.018	34.82
296.233	65.53
296.447	104.45
296.662	-6.14
296.877	55.3
297.091	40.96
297.306	65.53
297.52	63.49
297.735	20.48
297.949	14.34
298.164	53.25
298.378	2.05
298.593	45.06
298.807	45.06
299.022	106.49
299.236	-28.67
299.451	12.29
299.665	0
299.88	16.38
300.094	-18.43
300.309	-55.3
300.523	94.21
300.737	77.82
300.952	14.34
301.166	-8.19
301.381	-4.1
301.595	88.06
301.809	0
302.024	-40.96
302.238	40.96
302.452	49.15
302.667	-2.05
302.881	67.58
303.095	28.67
303.309	36.86
303.524	0
303.738	-6.14
303.952	18.43
304.166	61.44
304.381	-45.06
304.595	149.5
304.809	81.92
305.023	63.49
305.237	38.91
305.452	10.24
305.666	-6.14
305.88	61.44
306.094	47.1
306.308	12.29
306.522	4.1
306.736	-14.34
306.95	40.96
307.164	-45.06
307.379	53.25
307.593	-24.58
307.807	57.34
308.021	81.92
308.235	47.1
308.449	22.53
308.663	-18.43
308.877	81.92
309.091	45.06
309.305	79.87
309.519	-38.91
309.733	30.72
309.947	34.82
310.161	49.15
310.374	24.58
310.588	43.01
310.802	49.15
311.016	71.68
311.23	4.1
311.444	47.1
311.658	77.82
311.872	40.96
312.085	102.4
312.299	51.2
312.513	55.3
312.727	-14.34
312.941	65.53
313.154	20.48
313.368	63.49
313.582	24.58
313.796	-53.25
314.009	133.12
314.223	124.93
314.437	63.49
314.651	2.05
314.864	55.3
315.078	30.72
315.292	10.24
315.505	36.86
315.719	38.91
315.933	12.29
316.146	55.3
316.36	-32.77
316.573	57.34
316.787	36.86
317.001	16.38
317.214	6.14
317.428	0
317.641	28.67
317.855	49.15
318.068	38.91
318.282	90.11
318.495	32.77
318.709	-12.29
318.922	20.48
319.136	65.53
319.349	77.82
319.563	47.1
319.776	4.1
319.99	-10.24
320.203	36.86
320.417	2.05
320.63	59.39
320.843	71.68
321.057	-40.96
321.27	75.77
321.483	51.2
321.697	137.21
321.91	-4.1
322.124	104.45
322.337	28.67
322.55	6.14
322.763	-10.24
322.977	4.1
323.19	-8.19
323.403	79.87
323.617	-6.14
323.83	63.49
324.043	108.54
324.256	-10.24
324.469	24.58
324.683	53.25
324.896	34.82
325.109	12.29
325.322	10.24
325.535	38.91
325.748	47.1
325.962	81.92
326.175	67.58
326.388	-22.53
326.601	-4.1
326.814	45.06
327.027	6.14
327.24	57.34
327.453	12.29
327.666	32.77
327.879	63.49
328.092	34.82
328.305	100.35
328.518	-34.82
328.731	34.82
328.944	55.3
329.157	153.6
329.37	53.25
329.583	106.49
329.796	38.91
330.009	-86.01
330.222	4.1
330.435	28.67
330.648	116.73
330.861	12.29
331.073	10.24
331.286	106.49
331.499	40.96
331.712	79.87
331.925	-34.82
332.138	61.44
332.35	28.67
332.563	24.58
332.776	108.54
332.989	28.67
333.202	47.1
333.414	73.73
333.627	79.87
333.84	40.96
334.053	12.29
334.265	65.53
334.478	-18.43
334.691	51.2
334.903	61.44
335.116	36.86
335.329	-18.43
335.541	34.82
335.754	43.01
335.966	57.34
336.179	55.3
336.392	-36.86
336.604	14.34
336.817	88.06
337.029	4.1
337.242	38.91
337.454	38.91
337.667	-47.1
337.88	143.36
338.092	61.44
338.305	55.3
338.517	22.53
338.729	47.1
338.942	79.87
339.154	20.48
339.367	49.15
339.579	0
339.792	77.82
340.004	-14.34
340.217	12.29
340.429	61.44
340.641	34.82
340.854	-20.48
341.066	24.58
341.278	98.3
341.491	12.29
341.703	-8.19
341.915	-6.14
342.128	24.58
342.34	40.96
342.552	14.34
342.764	49.15
342.977	96.25
343.189	-43.01
343.401	0
343.613	16.38
343.826	26.62
344.038	2.05
344.25	47.1
344.462	-2.05
344.674	10.24
344.886	53.25
345.099	20.48
345.311	67.58
345.523	59.39
345.735	22.53
345.947	102.4
346.159	-18.43
346.371	63.49
346.583	6.14
346.795	81.92
347.007	49.15
347.219	137.21
347.431	18.43
347.643	81.92
347.855	16.38
348.067	75.77
348.279	-28.67
348.491	59.39
348.703	53.25
348.915	67.58
349.127	-8.19
349.339	34.82
349.551	-12.29
349.763	0
349.975	40.96
350.187	16.38
350.399	75.77
350.61	47.1
350.822	10.24
351.034	98.3
351.246	118.78
351.458	-47.1
351.669	157.69
351.881	45.06
352.093	114.69
352.305	32.77
352.517	79.87
352.728	83.97
352.94	43.01
353.152	40.96
353.363	4.1
353.575	67.58
353.787	129.02
353.999	81.92
354.21	126.97
354.422	49.15
354.633	4.1
354.845	86.01
355.057	69.63
355.268	55.3
355.48	-10.24
355.692	90.11
355.903	47.1
356.115	77.82
356.326	16.38
356.538	30.72
356.749	-32.77
356.961	57.34
357.172	57.34
357.384	18.43
357.595	26.62
357.807	34.82
358.018	57.34
358.23	45.06
358.441	96.25
358.653	90.11
358.864	10.24
359.075	10.24
359.287	114.69
359.498	67.58
359.709	28.67
359.921	104.45
360.132	16.38
360.344	4.1
360.555	63.49
360.766	26.62
360.977	4.1
361.189	55.3
361.4	40.96
361.611	71.68
361.823	75.77
362.034	16.38
362.245	-61.44
362.456	69.63
362.667	65.53
362.879	-2.05
363.09	22.53
363.301	86.01
363.512	63.49
363.723	122.88
363.935	24.58
364.146	47.1
364.357	-4.1
364.568	28.67
364.779	36.86
364.99	102.4
365.201	40.96
365.412	120.83
365.623	59.39
365.834	43.01
366.045	34.82
366.256	75.77
366.467	73.73
366.678	32.77
366.889	28.67
367.1	69.63
367.311	8.19
367.522	63.49
367.733	120.83
367.944	-24.58
368.155	49.15
368.366	90.11
368.577	28.67
368.788	63.49
368.999	55.3
369.209	81.92
369.42	129.02
369.631	75.77
369.842	45.06
370.053	43.01
370.264	0
370.474	34.82
370.685	30.72
370.896	34.82
371.107	94.21
371.317	59.39
371.528	-10.24
371.739	92.16
371.95	34.82
372.16	92.16
372.371	88.06
372.582	92.16
372.792	96.25
373.003	69.63
373.214	65.53
373.424	43.01
373.635	75.77
373.846	67.58
374.056	106.49
374.267	73.73
374.477	112.64
374.688	16.38
374.898	102.4
375.109	-28.67
375.319	104.45
375.53	-22.53
375.74	55.3
375.951	81.92
376.161	30.72
376.372	61.44
376.582	65.53
376.793	51.2
377.003	114.69
377.214	40.96
377.424	122.88
377.635	49.15
377.845	-43.01
378.055	83.97
378.266	14.34
378.476	6.14
378.686	83.97
378.897	45.06
379.107	43.01
379.317	2.05
379.528	14.34
379.738	67.58
379.948	28.67
380.158	38.91
380.369	92.16
380.579	45.06
380.789	88.06
380.999	147.45
381.21	112.64
381.42	63.49
381.63	16.38
381.84	100.35
382.05	88.06
382.261	47.1
382.471	133.12
382.681	63.49
382.891	126.97
383.101	124.93
383.311	36.86
383.521	30.72
383.731	116.73
383.941	79.87
384.151	75.77
384.361	49.15
384.571	116.73
384.781	75.77
384.991	133.12
385.201	143.36
385.411	77.82
385.621	36.86
385.831	79.87
386.041	36.86
386.251	-36.86
386.461	110.59
386.671	81.92
386.881	108.54
387.091	83.97
387.301	83.97
387.511	98.3
387.72	59.39
387.93	51.2
388.14	55.3
388.35	98.3
388.56	159.74
388.769	22.53
388.979	116.73
389.189	61.44
389.399	131.07
389.609	36.86
389.818	34.82
390.028	47.1
390.238	71.68
390.447	61.44
390.657	63.49
390.867	92.16
391.076	30.72
391.286	61.44
391.496	108.54
391.705	83.97
391.915	116.73
392.125	69.63
392.334	49.15
392.544	81.92
392.753	75.77
392.963	16.38
393.172	67.58
393.382	30.72
393.591	98.3
393.801	20.48
394.01	174.08
394.22	40.96
394.429	114.69
394.639	75.77
394.848	77.82
395.058	45.06
395.267	106.49
395.477	135.17
395.686	120.83
395.895	165.89
396.105	167.93
396.314	161.79
396.524	92.16
396.733	108.54
396.942	88.06
397.152	131.07
397.361	135.17
397.57	55.3
397.78	172.03
397.989	8.19
398.198	169.98
398.407	98.3
398.617	77.82
398.826	124.93
399.035	73.73
399.244	100.35
399.453	63.49
399.663	172.03
399.872	202.75
400.081	147.45
400.29	196.61
400.499	88.06
400.708	133.12
400.917	98.3
401.127	202.75
401.336	133.12
401.545	169.98
401.754	100.35
401.963	153.6
402.172	100.35
402.381	81.92
402.59	190.46
402.799	196.61
403.008	208.89
403.217	151.55
403.426	190.46
403.635	133.12
403.844	118.78
404.053	239.61
404.262	225.28
404.471	247.8
404.68	155.65
404.888	186.37
405.097	194.56
405.306	194.56
405.515	212.99
405.724	233.47
405.933	245.76
406.142	190.46
406.35	223.23
406.559	204.8
406.768	260.09
406.977	280.57
407.185	194.56
407.394	241.66
407.603	233.47
407.812	274.43
408.02	319.48
408.229	307.2
408.438	239.61
408.646	231.42
408.855	231.42
409.064	251.9
409.272	251.9
409.481	466.94
409.69	403.45
409.898	299
410.107	395.26
410.315	366.59
410.524	423.93
410.733	462.84
410.941	407.55
411.15	405.5
411.358	550.9
411.567	555
411.775	460.79
411.984	540.66
412.192	538.62
412.401	563.19
412.609	653.3
412.818	649.21
413.026	675.83
413.234	636.92
413.443	612.34
413.651	647.16
413.86	710.65
414.068	755.7
414.276	759.8
414.485	794.61
414.693	833.52
414.901	983.02
415.11	964.59
415.318	937.97
415.526	858.1
415.734	1011.7
415.943	1046.51
416.151	1077.23
416.359	1077.23
416.567	1173.49
416.776	1214.45
416.984	1271.79
417.192	1331.18
417.4	1253.36
417.608	1249.26
417.817	1388.52
418.025	1406.95
418.233	1445.87
418.441	1456.11
418.649	1634.28
418.857	1667.05
419.065	1712.1
419.273	1621.99
419.481	1761.25
419.689	1906.66
419.897	1966.05
420.105	2062.3
420.313	2037.73
420.521	2097.12
420.729	2201.57
420.937	2267.1
421.145	2297.82
421.353	2406.36
421.561	2482.14
421.769	2615.26
421.977	2756.57
422.185	2703.32
422.393	2811.86
422.601	2944.98
422.809	2967.51
423.017	3059.67
423.224	3235.79
423.432	3307.47
423.64	3430.35
423.848	3514.31
424.056	3508.17
424.263	3760.07
424.471	3798.98
424.679	3809.22
424.887	4091.84
425.094	4222.91
425.302	4222.91
425.51	4403.13
425.718	4478.91
425.925	4601.79
426.133	4603.83
426.341	4972.47
426.548	5099.44
426.756	5242.8
426.964	5250.99
427.171	5533.61
427.379	5726.12
427.586	5855.14
427.794	5957.54
428.001	6188.96
428.209	6573.98
428.417	6502.3
428.624	6918.04
428.832	6875.03
429.039	6743.96
429.247	7047.06
429.454	7567.24
429.662	7962.5
429.869	7591.82
430.076	8052.61
430.284	7679.88
430.491	8189.83
430.699	8533.89
430.906	8736.63
431.114	8705.92
431.321	9029.49
431.528	9097.08
431.736	9836.39
431.943	10233.7
432.15	9971.56
432.358	10180.45
432.565	10856.28
432.772	10682.2
432.979	11122.52
433.187	11214.68
433.394	11368.27
433.601	11949.9
433.808	12328.77
434.016	12320.58
434.223	12689.21
434.43	13395.76
434.637	13195.06
434.844	14178.09
435.052	14362.4
435.259	13944.62
435.466	14085.93
435.673	14251.81
435.88	15269.65
436.087	15863.57
436.294	15892.24
436.501	15472.4
436.708	15773.46
436.915	16224.01
437.122	17311.48
437.329	17190.65
437.537	17473.27
437.743	17733.36
437.95	17465.08
438.157	18710.24
438.364	19302.11
438.571	19265.24
438.778	19453.66
438.985	21049.02
439.192	20240.08
439.399	21085.89
439.606	20567.75
439.813	21694.13
440.02	22884
440.227	22400.68
440.433	22425.26
440.64	23385.76
440.847	23037.6
441.054	23576.22
441.261	25177.73
441.467	24733.32
441.674	25200.26
441.881	26183.28
442.088	25964.15
442.294	26054.26
442.501	26484.33
442.708	27328.1
442.914	28417.61
443.121	29249.09
443.328	28696.14
443.534	30629.42
443.741	29773.37
443.948	29259.33
444.154	31764
444.361	31354.4
444.568	31731.23
444.774	31764
444.981	31837.72
445.187	32802.32
445.394	34135.54
445.6	33764.86
445.807	37141.96
446.013	35575.27
446.22	36400.6
446.426	37463.49
446.633	37936.57
446.839	39069.1
447.046	37621.19
447.252	39564.71
447.459	39577
447.665	39333.29
447.871	41342.35
448.078	42777.97
448.284	41307.53
448.491	42290.55
448.697	43554.15
448.903	44051.81
449.11	44359
449.316	43986.27
449.522	44475.74
449.728	45718.85
449.935	46009.67
450.141	46261.57
450.347	47390
450.553	45704.52
450.76	45903.17
450.966	47785.25
451.172	47582.51
451.378	48518.43
451.584	47666.47
451.791	48667.93
451.997	48305.44
452.203	49313.04
452.409	49515.79
452.615	49151.25
452.821	47568.17
453.027	46908.72
453.233	49325.33
453.44	47723.82
453.646	47770.92
453.852	48276.77
454.058	48968.98
454.264	47830.31
454.47	48557.34
454.676	47201.58
454.882	49130.77
455.088	44410.2
455.294	45301.07
455.5	46155.07
455.705	46794.04
455.911	44711.25
456.117	43924.83
456.323	43457.9
456.529	41225.61
456.735	42751.35
456.941	42038.65
457.147	41409.93
457.352	39845.28
457.558	39738.79
457.764	39693.73
457.97	38821.3
458.176	38167.99
458.381	38305.21
458.587	36158.94
458.793	36214.23
458.999	34061.82
459.204	36539.86
459.41	35692
459.616	33218.05
459.821	33492.48
460.027	33654.27
460.233	32355.86
460.438	30926.38
460.644	31421.98
460.85	29691.45
461.055	29658.68
461.261	29345.34
461.466	27348.57
461.672	26619.5
461.878	28282.45
462.083	26525.29
462.289	26187.38
462.494	25513.59
462.7	24680.07
462.905	23830.16
463.111	24899.2
463.316	24841.86
463.522	24237.71
463.727	24467.08
463.932	24510.09
464.138	24188.56
464.343	24088.21
464.549	23375.52
464.754	24086.16
464.959	23842.45
465.165	23488.15
465.37	22744.74
465.575	22191.79
465.781	23062.18
465.986	23303.84
466.191	22054.58
466.397	22208.17
466.602	21085.89
466.807	21966.51
467.012	21845.68
467.218	21554.87
467.423	21571.25
467.628	21386.94
467.833	22675.11
468.038	21556.92
468.244	20985.54
468.449	21921.46
468.654	21147.33
468.859	20938.43
469.064	20846.27
469.269	20172.49
469.474	20354.76
469.679	20668.1
469.885	19906.26
470.09	20422.34
470.295	20154.06
470.5	19502.81
470.705	19750.61
470.91	19365.59
471.115	19492.57
471.32	19513.05
471.525	19183.32
471.73	18851.55
471.935	18722.53
472.139	18210.54
472.344	18378.47
472.549	18239.21
472.754	17981.17
472.959	17624.82
473.164	17411.83
473.369	17366.78
473.574	17547
473.778	17493.75
473.983	17325.82
474.188	17422.07
474.393	16496.39
474.598	16731.9
474.802	16443.14
475.007	16692.99
475.212	16301.83
475.417	15785.74
475.621	15746.83
475.826	15925
476.031	15447.83
476.235	15195.93
476.44	15480.6
476.645	14896.92
476.849	15134.49
477.054	14812.96
477.259	14921.5
477.463	14761.76
477.668	14528.29
477.872	14583.59
478.077	14098.22
478.282	13952.81
478.486	13950.76
478.691	13915.95
478.895	13608.75
479.1	13711.15
479.304	13711.15
479.509	13352.76
479.713	13797.17
479.918	13121.34
480.122	13225.78
480.326	13100.86
480.531	13180.73
480.735	12941.11
480.94	12730.17
481.144	13487.92
481.348	12879.68
481.553	13082.42
481.757	12439.36
481.961	12896.06
482.166	12883.77
482.37	12773.18
482.574	12584.77
482.778	12783.42
482.983	12654.4
483.187	12644.16
483.391	12701.5
483.595	12844.86
483.8	12318.53
484.004	12465.99
484.208	12908.35
484.412	12627.78
484.616	12742.46
484.821	12674.88
485.025	12617.54
485.229	12724.03
485.433	12631.87
485.637	12769.09
485.841	12779.32
486.045	12398.4
486.249	12683.07
486.453	12545.86
486.657	12701.5
486.861	12715.84
487.065	12543.81
487.269	12607.3
487.473	12494.66
487.677	12676.93
487.881	12783.42
488.085	12431.17
488.289	12834.62
488.493	12441.41
488.697	12777.28
488.901	12681.02
489.105	12795.71
489.309	12832.57
489.512	12851
489.716	12681.02
489.92	12511.04
490.124	12670.78
490.328	13166.39
490.531	12836.67
490.735	12980.03
490.939	13123.38
491.143	12918.59
491.346	12949.31
491.55	13168.44
491.754	13403.96
491.958	12996.41
492.161	13100.86
492.365	13254.45
492.569	13213.49
492.772	13258.55
492.976	13315.89
493.18	13541.17
493.383	13631.28
493.587	13748.01
493.79	13971.24
493.994	13715.25
494.197	13887.28
494.401	13856.56
494.605	13872.94
494.808	14221.09
495.012	14157.61
495.215	14169.9
495.419	14692.13
495.622	14524.19
495.825	14497.57
496.029	14692.13
496.232	14866.21
496.436	14812.96
496.639	15130.39
496.843	15025.95
497.046	15345.43
497.249	15404.82
497.453	15451.92
497.656	16070.41
497.859	15894.29
498.063	16045.84
498.266	16389.89
498.469	16144.14
498.673	16668.42
498.876	16688.9
499.079	16885.5
499.282	16951.04
499.485	17278.71
499.689	17590
499.892	17544.95
500.095	17487.61
500.298	18061.04
500.501	17938.16
500.705	18409.19
500.908	18558.69
501.111	18804.45
501.314	19125.98
501.517	18986.72
501.72	19314.39
501.923	19394.26
502.126	19740.37
502.329	19947.22
502.532	20094.67
502.735	20272.84
502.938	20754.12
503.141	20508.36
503.344	21042.88
503.547	21098.17
503.75	21350.07
503.953	21968.56
504.156	22052.53
504.359	21941.94
504.562	22216.37
504.765	22800.04
504.968	22894.24
505.17	23303.84
505.373	23156.38
505.576	23506.59
505.779	23883.41
505.982	23819.92
506.185	24399.5
506.387	24551.05
506.59	24766.09
506.793	25114.24
506.996	25114.24
507.198	25572.99
507.401	25732.73
507.604	25949.81
507.807	26228.34
508.009	26562.15
508.212	26400.37
508.415	26988.13
508.617	27262.56
508.82	27407.97
509.022	27453.02
509.225	28044.88
509.428	28255.82
509.63	28835.4
509.833	28653.13
510.035	29273.67
510.238	28993.09
510.44	29646.4
510.643	29589.05
510.845	30441.01
511.048	29955.64
511.25	30420.53
511.453	30410.29
511.655	31532.57
511.858	31366.69
512.06	31788.57
512.262	32015.9
512.465	32243.22
512.667	32400.91
512.87	32611.85
513.072	32656.91
513.274	33431.04
513.477	33764.86
513.679	33748.48
513.881	34162.17
514.084	34426.35
514.286	34514.42
514.488	35130.86
514.69	35753.44
514.893	35818.97
515.095	36247
515.297	36478.42
515.499	36707.79
515.701	37070.28
515.904	37111.24
516.106	37905.85
516.308	37780.93
516.51	38272.44
516.712	38149.56
516.914	38649.27
517.116	39433.64
517.318	38948.27
517.52	39798.18
517.722	39843.23
517.925	40179.1
518.127	40330.65
518.329	40826.26
518.531	40650.13
518.733	41561.48
518.935	41590.15
519.136	41858.43
519.338	42239.36
519.54	42532.21
519.742	42866.03
519.944	42999.15
520.146	43685.22
520.348	43679.08
520.55	44328.28
520.752	44205.41
520.954	44875.09
521.155	44338.52
521.357	45309.26
521.559	45399.37
521.761	45948.23
521.963	46196.03
522.164	46202.17
522.366	46660.92
522.568	46599.48
522.77	47134
522.971	47652.14
523.173	47369.52
523.375	47699.24
523.576	47918.37
523.778	47621.42
523.98	48327.97
524.181	48594.2
524.383	49003.8
524.584	49208.59
524.786	48866.58
524.988	48729.37
525.189	49958.15
525.391	50013.44
525.592	50160.9
525.794	50146.56
525.995	50457.85
526.197	50167.04
526.398	50744.57
526.6	50857.21
526.801	51076.34
527.003	51361.01
527.204	50971.89
527.406	51844.33
527.607	51219.7
527.808	51717.35
528.01	50822.39
528.211	51981.54
528.412	52694.24
528.614	52382.94
528.815	52272.35
529.016	52810.97
529.218	52589.79
529.419	52307.17
529.62	52430.05
529.822	52567.26
530.023	52853.98
530.224	52720.86
530.425	52915.42
530.626	52806.87
530.828	52356.32
531.029	53507.28
531.23	53210.32
531.431	52804.83
531.632	53339.35
531.833	53316.82
532.035	53118.17
532.236	53480.66
532.437	53542.1
532.638	52931.8
532.839	53740.75
533.04	53923.02
533.241	53191.89
533.442	54181.06
533.643	53796.04
533.844	53687.5
534.045	53978.31
534.246	53415.12
534.447	53808.33
534.648	53652.69
534.849	53701.84
535.05	53748.94
535.251	53683.4
535.451	53697.74
535.652	53783.76
535.853	53927.11
536.054	54037.7
536.255	53837
536.456	53402.83
536.657	54672.57
536.857	53443.79
537.058	53308.63
537.259	54365.38
537.46	54009.03
537.66	53681.36
537.861	53765.32
538.062	53474.51
538.263	54228.16
538.463	53605.58
538.664	53738.7
538.865	53818.57
539.065	54398.15
539.266	53331.15
539.466	54537.41
539.667	53523.66
539.868	54455.49
540.068	54027.46
540.269	53527.76
540.469	53800.14
540.67	53413.07
540.87	53894.35
541.071	53544.14
541.271	53818.57
541.472	53562.57
541.672	53581.01
541.873	53648.59
542.073	53587.15
542.274	53933.26
542.474	53564.62
542.675	53263.57
542.875	54058.18
543.075	53212.37
543.276	53058.77
543.476	53963.98
543.676	53341.39
543.877	54004.94
544.077	53363.92
544.277	53585.1
544.478	53243.09
544.678	53667.02
544.878	53675.21
545.078	53755.08
545.279	53091.54
545.479	53239
545.679	53447.89
545.879	53597.39
546.079	53955.78
546.28	53300.43
546.48	52980.95
546.68	53572.81
546.88	53380.31
547.08	53548.24
547.28	53333.2
547.48	52923.61
547.68	53570.77
547.88	52821.21
548.081	53740.75
548.281	53533.9
548.481	53398.74
548.681	53664.97
548.881	53423.31
549.081	53445.84
549.28	53116.12
549.48	53179.6
549.68	53263.57
549.88	53796.04
550.08	52948.18
550.28	53484.75
550.48	53361.87
550.68	53617.87
550.88	53089.49
551.08	53085.4
551.279	53570.77
551.479	52847.83
551.679	53327.06
551.879	52929.75
552.079	53408.98
552.278	53175.51
552.478	53003.48
552.678	53159.12
552.878	53343.44
553.077	53128.41
553.277	52759.77
553.477	53562.57
553.676	52692.19
553.876	52923.61
554.076	53017.81
554.275	52948.18
554.475	52225.25
554.674	53140.69
554.874	53177.56
555.074	52714.72
555.273	53161.17
555.473	53206.23
555.672	52243.68
555.872	52575.45
556.071	52739.29
556.271	53322.96
556.47	52755.67
556.67	52425.95
556.869	52770.01
557.068	52700.38
557.268	52163.81
557.467	52411.62
557.667	52649.18
557.866	52294.88
558.065	52206.82
558.265	52280.55
558.464	52151.52
558.663	52440.29
558.863	51901.67
559.062	52337.89
559.261	52110.56
559.461	53089.49
559.66	51547.37
559.859	52206.82
560.058	51660.01
560.258	52288.74
560.457	51289.33
560.656	52124.9
560.855	51602.67
561.054	51934.44
561.253	51514.61
561.453	51610.86
561.652	51860.71
561.851	51870.95
562.05	51479.79
562.249	51203.31
562.448	51621.1
562.647	51338.48
562.846	51195.12
563.045	51553.52
563.244	51107.06
563.443	51410.16
563.642	50961.65
563.841	51776.75
564.04	50566.4
564.239	51803.37
564.438	50801.91
564.637	50922.74
564.836	50894.07
565.035	50640.12
565.234	51107.06
565.432	50599.16
565.631	50287.87
565.83	50707.71
566.029	50539.77
566.228	50552.06
566.427	50484.48
566.625	50449.66
566.824	49882.37
567.023	50539.77
567.222	49696.01
567.42	50111.75
567.619	50150.66
567.818	49579.28
568.016	49814.79
568.215	50414.85
568.414	49556.75
568.612	49966.34
568.811	49618.19
569.01	49589.52
569.208	49077.52
569.407	49356.05
569.605	49138.96
569.804	49534.22
570.002	48715.03
570.201	49347.85
570.4	49001.75
570.598	48749.85
570.797	48610.59
570.995	48868.63
571.193	48239.9
571.392	48543
571.59	48108.83
571.789	48686.36
571.987	48413.98
572.186	48350.49
572.384	48059.68
572.582	48512.28
572.781	48651.55
572.979	47611.18
573.177	47942.95
573.376	48379.17
573.574	47232.3
573.772	47752.49
573.971	47645.99
574.169	47195.44
574.367	47217.97
574.565	47840.55
574.763	47367.47
574.962	46947.64
575.16	47039.79
575.358	47129.9
575.556	46230.85
575.754	47303.98
575.952	46785.85
576.151	47238.45
576.349	46486.84
576.547	46535.99
576.745	46884.15
576.943	46284.09
577.141	46413.12
577.339	46280
577.537	46306.62
577.735	46372.16
577.933	45464.91
578.131	45837.64
578.329	45905.22
578.527	45364.56
578.725	45757.77
578.923	45794.63
579.121	45509.96
579.319	45153.61
579.516	45493.58
579.714	45610.31
579.912	44916.05
580.11	45462.86
580.308	45010.26
580.506	44905.81
580.704	44135.77
580.901	44969.3
581.099	44926.29
581.297	44156.25
581.495	44207.45
581.692	44703.06
581.89	43885.92
582.088	44086.62
582.285	44031.33
582.483	44582.23
582.681	44070.24
582.878	43752.8
583.076	43242.86
583.274	43777.38
583.471	43113.84
583.669	43421.03
583.866	43054.45
584.064	43881.83
584.262	42806.64
584.459	43046.26
584.657	42906.99
584.854	43408.75
585.052	41966.98
585.249	42763.64
585.447	42720.63
585.644	42302.84
585.841	42321.27
586.039	42919.28
586.236	41997.7
586.434	42083.71
586.631	41944.45
586.828	42268.03
587.026	41880.96
587.223	41526.66
587.42	41547.14
587.618	41637.25
587.815	41821.57
588.012	41534.85
588.21	41207.18
588.407	41647.49
588.604	41053.58
588.801	40912.27
588.999	40758.67
589.196	40951.18
589.393	40957.33
589.59	40682.9
589.787	40326.55
589.984	40605.08
590.182	40283.55
590.379	40514.97
590.576	40119.71
590.773	40215.96
590.97	39703.97
591.167	39742.88
591.364	39544.23
591.561	39816.61
591.758	39603.62
591.955	39212.46
592.152	39755.17
592.349	39351.72
592.546	39181.74
592.743	39501.22
592.94	38522.29
593.137	39243.18
593.334	39273.9
593.531	38419.89
593.727	38575.54
593.924	38913.45
594.121	38198.71
594.318	38393.27
594.515	38032.83
594.712	38483.38
594.908	38155.71
595.105	38151.61
595.302	37993.92
595.499	38006.2
595.696	37686.72
595.892	37699.01
596.089	37479.88
596.286	37713.34
596.482	36986.32
596.679	37258.7
596.876	37008.84
597.072	37012.94
597.269	36982.22
597.466	36756.94
597.662	36677.07
597.859	36834.77
598.055	36761.04
598.252	36179.42
598.448	36484.56
598.645	36244.95
598.841	36058.59
599.038	36216.28
599.234	36281.81
599.431	35417.57
599.627	35515.87
599.824	36441.56
600.02	35640.8
600.217	35976.67
600.413	35438.05
600.609	35319.27
600.806	35323.36
601.002	35479.01
601.198	35278.31
601.395	34422.26
601.591	34469.36
601.787	34913.77
601.984	34545.14
602.18	35050.99
602.376	34252.28
602.572	34276.85
602.769	34180.6
602.965	33945.08
603.161	34153.97
603.357	34166.26
603.553	33971.71
603.75	33801.72
603.946	34051.58
604.142	33418.75
604.338	33383.94
604.534	33547.78
604.73	33111.56
604.926	33168.9
605.122	33459.71
605.318	33050.12
605.514	33068.55
605.71	32988.68
605.906	32900.62
606.102	32644.62
606.298	32908.81
606.494	32882.19
606.69	32763.4
606.886	32734.73
607.082	32548.37
607.278	32409.11
607.474	32181.78
607.67	32243.22
607.866	31880.73
608.062	32415.25
608.257	32089.62
608.453	32034.33
608.649	32294.42
608.845	31720.99
609.041	31997.46
609.236	32286.23
609.432	31829.53
609.628	32224.79
609.824	31544.86
610.019	31323.68
610.215	31532.57
610.411	31854.11
610.606	31227.43
610.802	31462.94
610.998	31319.59
611.193	31626.78
611.389	30959.14
611.584	30871.08
611.78	30764.59
611.976	31358.5
612.171	31266.34
612.367	31075.88
612.562	30836.27
612.758	30490.16
612.953	30199.35
613.149	30991.91
613.344	30731.82
613.539	30780.97
613.735	30922.28
613.93	30516.78
614.126	30133.81
614.321	30664.24
614.517	30803.5
614.712	30309.94
614.907	29781.56
615.103	30598.7
615.298	30398
615.493	30260.79
615.688	29902.39
615.884	30563.89
616.079	29685.31
616.274	30203.44
616.47	29933.11
616.665	30039.61
616.86	29845.05
617.055	29382.21
617.25	29718.07
617.445	29920.82
617.641	29498.94
617.836	29388.35
618.031	29036.1
618.226	29480.51
618.421	29156.93
618.616	29263.43
618.811	28886.6
619.006	29363.78
619.201	28419.66
619.396	28923.46
619.591	28284.5
619.786	28806.73
619.981	28032.6
620.176	28827.21
620.371	28012.12
620.566	28411.47
620.761	28071.51
620.956	28479.05
621.151	27487.84
621.346	28161.62
621.541	27477.6
621.735	27711.07
621.93	26992.23
622.125	27407.97
622.32	26814.05
622.515	27149.92
622.709	26574.44
622.904	26521.2
623.099	26369.65
623.294	26631.79
623.488	26177.14
623.683	26050.16
623.878	25812.6
624.072	25865.85
624.267	25992.82
624.462	25656.95
624.656	25415.29
624.851	25476.73
625.046	25396.86
625.24	25470.59
625.435	25218.69
625.629	25175.68
625.824	24931.97
626.018	24829.57
626.213	24063.63
626.407	24686.22
626.602	24110.74
626.796	24301.2
626.991	24247.95
627.185	24120.98
627.38	23746.2
627.574	23813.78
627.768	23518.87
627.963	23121.57
628.157	23096.99
628.352	23076.51
628.546	22896.29
628.74	23168.67
628.935	23013.02
629.129	23144.09
629.323	22417.07
629.517	22382.25
629.712	22394.54
629.906	22466.22
630.1	21890.74
630.294	22073.01
630.489	21593.78
630.683	22038.19
630.877	21694.13
631.071	21677.75
631.265	21595.83
631.459	21317.31
631.653	21343.93
631.848	21358.27
632.042	20733.64
632.236	21208.76
632.43	20938.43
632.624	20889.28
632.818	20635.33
633.012	20416.2
633.206	20524.74
633.4	20328.14
633.594	20014.8
633.788	20258.51
633.982	20254.41
634.176	20301.51
634.369	19687.12
634.563	20102.86
634.757	19500.76
634.951	19795.67
635.145	19400.41
635.339	19459.8
635.533	19240.67
635.726	19314.39
635.92	19060.45
636.114	19293.91
636.308	18972.38
636.501	18884.32
636.695	18767.59
636.889	18487.01
637.083	18458.34
637.276	18251.5
637.47	18464.49
637.664	18269.93
637.857	18403.05
638.051	18466.53
638.244	18026.22
638.438	17979.12
638.632	17868.53
638.825	17802.99
639.019	17682.16
639.212	17678.07
639.406	17581.81
639.599	17493.75
639.793	17424.12
639.986	17153.79
640.18	17395.45
640.373	17186.55
640.567	16793.34
640.76	17106.68
640.954	17061.63
641.147	16602.88
641.34	16852.73
641.534	16463.62
641.727	16873.21
641.92	16537.35
642.114	16217.86
642.307	16189.19
642.5	16615.17
642.694	16043.79
642.887	15931.15
643.08	16088.84
643.273	15918.86
643.467	15693.58
643.66	15816.46
643.853	15415.06
644.046	15384.34
644.239	15462.16
644.432	15382.29
644.626	15114.01
644.819	15148.82
645.012	15488.79
645.205	15171.35
645.398	15048.47
645.591	14937.88
645.784	14956.32
645.977	14726.94
646.17	14864.16
646.363	14798.62
646.556	14257.96
646.749	14458.66
646.942	14415.65
647.135	14143.27
647.328	14462.76
647.521	14001.96
647.714	14055.21
647.907	14018.35
648.099	13913.9
648.292	14122.79
648.485	13612.85
648.678	13602.61
648.871	13907.76
649.064	13727.53
649.256	13715.25
649.449	13475.63
649.642	13264.69
649.835	13279.03
650.027	13088.57
650.22	13143.86
650.413	13268.79
650.605	13002.55
650.798	13000.51
650.991	12992.31
651.183	13061.94
651.376	12730.17
651.568	12887.87
651.761	12611.39
651.954	12638.02
652.146	12441.41
652.339	12285.76
652.531	12363.59
652.724	12289.86
652.916	12132.17
653.109	12320.58
653.301	12377.92
653.494	12103.5
653.686	11986.76
653.879	12226.37
654.071	11835.21
654.263	11861.83
654.456	11634.51
654.648	11919.18
654.84	11661.13
655.033	11634.51
655.225	11439.95
655.417	11353.94
655.61	11714.38
655.802	11380.56
655.994	11214.68
656.186	11220.82
656.379	11159.38
656.571	11269.97
656.763	11022.17
656.955	10960.73
657.148	10991.45
657.34	11032.41
657.532	10784.6
657.724	10846.04
657.916	10757.98
658.108	10684.25
658.3	10647.39
658.492	10555.23
658.684	10524.51
658.876	10465.12
659.068	10391.39
659.26	10510.18
659.452	10340.19
659.644	10301.28
659.836	10360.67
660.028	10178.4
660.22	9955.18
660.412	10028.9
660.604	9946.98
660.796	9924.46
660.988	9858.92
661.18	9797.48
661.372	9824.11
661.563	9938.79
661.755	9650.03
661.947	9826.15
662.139	9561.97
662.331	9711.47
662.522	9428.85
662.714	9330.55
662.906	9271.15
663.097	9465.71
663.289	9408.37
663.481	9117.56
663.673	9146.23
663.864	9219.96
664.056	9023.35
664.247	9138.04
664.439	8994.68
664.631	9021.3
664.822	8826.75
665.014	9027.45
665.205	8925.05
665.397	8947.58
665.588	8660.86
665.78	8849.27
665.971	8710.01
666.163	8644.48
666.354	8574.85
666.546	8587.13
666.737	8390.53
666.929	8578.94
667.12	8470.4
667.311	8503.17
667.503	8294.27
667.694	8396.67
667.885	8165.25
668.077	8355.71
668.268	8069
668.459	8269.7
668.651	8048.52
668.842	8048.52
669.033	8062.85
669.224	8085.38
669.416	7958.41
669.607	8097.67
669.798	7952.26
669.989	8040.33
670.18	7868.3
670.371	7798.66
670.563	7899.02
670.754	7872.39
670.945	7608.2
671.136	7694.22
671.327	7395.22
671.518	7585.68
671.709	7567.24
671.9	7724.94
672.091	7485.33
672.282	7692.17
672.473	7329.68
672.664	7479.18
672.855	7350.16
673.046	7425.93
673.237	7311.25
673.428	7219.09
673.619	7286.67
673.809	7100.31
674	7362.45
674.191	7126.93
674.382	7196.56
674.573	7085.97
674.764	7071.64
674.954	7169.94
675.145	6989.72
675.336	6922.13
675.527	6997.91
675.717	6944.66
675.908	6795.16
676.099	6772.63
676.289	6864.79
676.48	6668.19
676.671	6860.7
676.861	6897.56
677.052	6727.58
677.243	6705.05
677.433	6748.06
677.624	6793.11
677.814	6545.31
678.005	6750.11
678.195	6649.75
678.386	6670.23
678.576	6621.08
678.767	6463.39
678.957	6424.48
679.148	6504.35
679.338	6506.4
679.529	6569.88
679.719	6573.98
679.909	6539.16
680.1	6565.79
680.29	6430.62
680.481	6248.35
680.671	6461.34
680.861	6377.37
681.052	6336.42
681.242	6227.87
681.432	6494.11
681.622	6285.22
681.813	6188.96
682.003	6115.23
682.193	6186.91
682.383	6211.49
682.573	6107.04
682.764	6164.39
682.954	6223.78
683.144	6188.96
683.334	6088.61
683.524	6131.62
683.714	6201.25
683.904	5975.97
684.094	6109.09
684.284	6090.66
684.474	5945.25
684.664	5851.05
684.854	5984.16
685.044	5769.13
685.234	5697.45
685.424	5820.33
685.614	5830.57
685.804	5875.62
685.994	5795.75
686.184	6016.93
686.374	5975.97
686.564	5767.08
686.753	5945.25
686.943	5525.42
687.133	5664.68
687.323	5633.96
687.513	5601.19
687.702	5500.84
687.892	5547.95
688.082	5504.94
688.272	5623.72
688.461	5506.99
688.651	5472.17
688.841	5463.98
689.03	5572.52
689.22	5347.25
689.41	5314.48
689.599	5382.06
689.789	5400.49
689.979	5322.67
690.168	5291.95
690.358	5218.22
690.547	5191.6
690.737	5300.14
690.926	5154.74
691.116	5173.17
691.305	5138.35
691.495	5236.66
691.684	4915.12
691.874	5156.79
692.063	5029.81
692.252	4992.95
692.442	4990.9
692.631	4931.51
692.82	4956.08
693.01	4788.15
693.199	4849.59
693.388	4749.24
693.578	4822.97
693.767	4808.63
693.956	4837.3
694.146	4698.04
694.335	4683.7
694.524	4736.95
694.713	4743.1
694.902	4726.71
695.092	4784.06
695.281	4622.27
695.47	4673.46
695.659	4722.62
695.848	4573.11
696.037	4579.26
696.226	4558.78
696.415	4409.28
696.604	4546.49
696.793	4595.64
696.982	4507.58
697.171	4284.35
697.36	4405.18
697.549	4534.2
697.738	4323.26
697.927	4380.61
698.116	4280.25
698.305	4349.89
698.494	4231.1
698.683	4399.04
698.872	4317.12
699.061	4155.33
699.25	4274.11
699.438	4208.58
699.627	4390.85
699.816	4327.36
700.005	4243.39
700.193	4282.3
700.382	4300.73
700.571	4196.29
700.76	4261.82
700.948	4157.38
701.137	4220.86
701.326	4200.38
701.514	4003.78
701.703	4112.32
701.892	3983.3
702.08	4095.94
702.269	4200.38
702.457	4038.59
702.646	4073.41
702.834	4093.89
703.023	4054.98
703.212	4116.42
703.4	3944.39
703.589	4046.79
703.777	4216.77
703.965	3977.16
704.154	3966.92
704.342	3964.87
704.531	3944.39
704.719	3915.72
704.907	3882.95
705.096	3817.41
705.284	3882.95
705.472	4083.65
705.661	3985.35
705.849	3958.72
706.037	3964.87
706.226	3925.96
706.414	3923.91
706.602	3784.65
706.79	3739.59
706.979	3856.33
707.167	3889.09
707.355	3645.38
707.543	3815.37
707.731	3925.96
707.919	3833.8
708.107	3839.94
708.296	3862.47
708.484	3655.62
708.672	3751.88
708.86	3704.78
709.048	3696.58
709.236	3766.21
709.424	3770.31
709.612	3645.38
709.8	3715.02
709.988	3760.07
710.176	3772.36
710.364	3667.91
710.551	3745.73
710.739	3680.2
710.927	3764.17
711.115	3686.34
711.303	3649.48
711.491	3674.06
711.679	3645.38
711.866	3694.54
712.054	3733.45
712.242	3657.67
712.43	3665.86
712.617	3620.81
712.805	3622.86
712.993	3665.86
713.181	3512.27
713.368	3618.76
713.556	3655.62
713.744	3514.31
713.931	3559.37
714.119	3467.21
714.306	3524.55
714.494	3465.16
714.682	3532.75
714.869	3557.32
715.057	3567.56
715.244	3555.27
715.432	3596.23
715.619	3534.79
715.807	3411.92
715.994	3442.64
716.182	3422.16
716.369	3475.4
716.556	3506.12
716.744	3504.07
716.931	3538.89
717.119	3428.3
717.306	3454.92
717.493	3452.88
717.681	3440.59
717.868	3430.35
718.055	3401.68
718.242	3440.59
718.43	3499.98
718.617	3411.92
718.804	3407.82
718.991	3397.58
719.179	3401.68
719.366	3432.4
719.553	3401.68
719.74	3389.39
719.927	3325.9
720.114	3444.68
720.301	3332.05
720.488	3248.08
720.676	3354.57
720.863	3346.38
721.05	3411.92
721.237	3293.13
721.424	3364.81
721.611	3358.67
721.798	3200.98
721.985	3207.12
722.172	3358.67
722.358	3278.8
722.545	3364.81
722.732	3342.28
722.919	3241.93
723.106	3352.52
723.293	3360.72
723.48	3270.61
723.667	3260.37
723.853	3256.27
724.04	3344.33
724.227	3237.84
724.414	3282.89
724.6	3303.37
724.787	3416.01
724.974	3315.66
725.161	3133.39
725.347	3313.61
725.534	3418.06
725.72	3241.93
725.907	3297.23
726.094	3295.18
726.28	3276.75
726.467	3176.4
726.653	3315.66
726.84	3366.86
727.027	3336.14
727.213	3299.28
727.4	3211.22
727.586	3200.98
727.773	3297.23
727.959	3264.46
728.145	3178.45
728.332	3157.97
728.518	3334.09
728.705	3139.54
728.891	3106.77
729.077	3270.61
729.264	3258.32
729.45	3301.33
729.636	3223.5
729.823	3264.46
730.009	3229.65
730.195	3235.79
730.382	3286.99
730.568	3184.59
730.754	3141.58
730.94	3213.26
731.126	3311.57
731.313	3254.22
731.499	3235.79
731.685	3198.93
731.871	3225.55
732.057	3284.94
732.243	3166.16
732.429	3215.31
732.615	3280.85
732.801	3313.61
732.987	3188.69
733.173	3221.45
733.359	3203.02
733.545	3239.89
733.731	3303.37
733.917	3260.37
734.103	3246.03
734.289	3346.38
734.475	3270.61
734.661	3162.06
734.847	3198.93
735.033	3178.45
735.219	3160.02
735.404	3266.51
735.59	3301.33
735.776	3194.83
735.962	3358.67
736.148	3266.51
736.333	3182.54
736.519	3233.74
736.705	3254.22
736.89	3141.58
737.076	3176.4
737.262	3198.93
737.447	3311.57
737.633	3133.39
737.819	3207.12
738.004	3184.59
738.19	3225.55
738.375	3172.3
738.561	3260.37
738.747	3184.59
738.932	3262.41
739.118	3258.32
739.303	3213.26
739.489	3061.71
739.674	3117.01
739.859	3127.25
740.045	3168.21
740.23	3270.61
740.416	3063.76
740.601	3135.44
740.786	3106.77
740.972	3086.29
741.157	3241.93
741.342	3125.2
741.528	3092.43
741.713	3067.86
741.898	3114.96
742.084	3028.95
742.269	3080.15
742.454	2990.03
742.639	3178.45
742.824	3022.8
743.01	3131.34
743.195	3149.78
743.38	3039.19
743.565	2959.31
743.75	3082.19
743.935	2996.18
744.12	3057.62
744.305	3055.57
744.49	2963.41
744.675	3002.32
744.86	3082.19
745.045	2930.64
745.23	2959.31
745.415	2938.84
745.6	2858.96
745.785	2965.46
745.97	3014.61
746.155	2893.78
746.34	2873.3
746.525	2781.14
746.71	2981.84
746.895	2725.85
747.079	2961.36
747.264	2766.81
747.449	2824.15
747.634	2987.99
747.819	2881.49
748.003	2721.75
748.188	2842.58
748.373	2641.88
748.557	2729.94
748.742	2766.81
748.927	2756.57
749.111	2715.61
749.296	2766.81
749.481	2668.5
749.665	2701.27
749.85	2723.8
750.034	2783.19
750.219	2709.46
750.404	2566.1
750.588	2643.93
750.773	2596.82
750.957	2555.86
751.141	2754.52
751.326	2543.58
751.51	2531.29
751.695	2555.86
751.879	2566.1
752.064	2568.15
752.248	2615.26
752.432	2451.42
752.617	2338.78
752.801	2404.32
752.985	2312.16
753.17	2316.25
753.354	2443.23
753.538	2334.68
753.722	2387.93
753.907	2355.16
754.091	2275.29
754.275	2250.72
754.459	2306.01
754.643	2256.86
754.828	2228.19
755.012	2271.2
755.196	2297.82
755.38	2213.85
755.564	2179.04
755.748	2152.42
755.932	2203.61
756.116	2238.43
756.3	2260.96
756.484	2086.88
756.668	2183.13
756.852	2113.5
757.036	2138.08
757.22	2109.41
757.404	2105.31
757.588	1955.81
757.772	2058.21
757.956	1978.34
758.14	2090.98
758.323	2039.78
758.507	1970.15
758.691	1998.82
758.875	2084.83
759.059	2007.01
759.242	1994.72
759.426	1916.9
759.61	2043.87
759.794	1990.63
759.977	2007.01
760.161	2033.63
760.345	1890.28
760.528	1888.23
760.712	1937.38
760.895	1830.88
761.079	1851.36
761.263	1755.11
761.446	1904.61
761.63	1841.12
761.813	2050.02
761.997	1785.83
762.18	1794.02
762.364	1822.69
762.547	1834.98
762.731	1785.83
762.914	1783.78
763.098	1777.64
763.281	1818.6
763.464	1626.09
763.648	1718.25
763.831	1699.81
764.015	1652.71
764.198	1771.49
764.381	1783.78
764.564	1705.96
764.748	1630.18
764.931	1714.15
765.114	1693.67
765.297	1703.91
765.481	1632.23
765.664	1613.8
765.847	1583.08
766.03	1605.61
766.213	1619.94
766.397	1683.43
766.58	1599.46
766.763	1630.18
766.946	1495.02
767.129	1558.5
767.312	1597.42
767.495	1605.61
767.678	1515.5
767.861	1605.61
768.044	1515.5
768.227	1595.37
768.41	1638.37
768.593	1474.54
768.776	1648.61
768.959	1478.63
769.142	1558.5
769.324	1488.87
769.507	1474.54
769.69	1505.26
769.873	1509.35
770.056	1593.32
770.239	1492.97
770.421	1503.21
770.604	1460.2
770.787	1468.39
770.97	1490.92
771.152	1533.93
771.335	1474.54
771.518	1370.09
771.7	1609.7
771.883	1425.39
772.066	1525.74
772.248	1445.87
772.431	1466.35
772.613	1423.34
772.796	1427.43
772.978	1359.85
773.161	1419.24
773.343	1327.08
773.526	1366
773.708	1331.18
773.891	1263.6
774.073	1300.46
774.256	1296.36
774.438	1337.32
774.621	1349.61
774.803	1304.56
774.985	1355.76
775.168	1388.52
775.35	1431.53
775.532	1314.8
775.715	1277.93
775.897	1255.4
776.079	1286.12
776.261	1136.62
776.444	1132.53
776.626	1226.73
776.808	1179.63
776.99	1245.16
777.173	1202.16
777.355	1179.63
777.537	1196.01
777.719	1150.96
777.901	1101.81
778.083	1218.54
778.265	1136.62
778.447	1112.05
778.629	1193.97
778.811	1136.62
778.993	1046.51
779.175	1058.8
779.357	1179.63
779.539	1005.55
779.721	1073.14
779.903	1017.84
780.085	1023.98
780.267	1019.89
780.449	983.02
780.631	1007.6
780.812	962.55
780.994	1009.65
781.176	978.93
781.358	1026.03
781.54	1036.27
781.721	997.36
781.903	847.86
782.085	927.73
782.267	919.54
782.448	899.06
782.63	876.53
782.812	866.29
782.993	876.53
783.175	864.24
783.357	839.67
783.538	821.24
783.72	886.77
783.901	909.3
784.083	929.78
784.264	905.2
784.446	874.48
784.627	808.95
784.809	804.85
784.99	794.61
785.172	786.42
785.353	817.14
785.535	851.95
785.716	882.67
785.897	743.41
786.079	800.76
786.26	724.98
786.441	731.12
786.623	667.64
786.804	706.55
786.985	778.23
787.167	790.52
787.348	671.73
787.529	647.16
787.71	727.03
787.891	690.17
788.073	704.5
788.254	710.65
788.435	657.4
788.616	692.21
788.797	671.73
788.978	694.26
789.159	645.11
789.34	712.69
789.522	620.53
789.703	638.97
789.884	651.25
790.065	692.21
790.246	712.69
790.427	649.21
790.607	741.36
790.788	591.86
790.969	507.9
791.15	563.19
791.331	595.96
791.512	536.57
791.693	507.9
791.874	602.1
792.054	636.92
792.235	634.87
792.416	581.62
792.597	491.51
792.778	618.49
792.958	598.01
793.139	542.71
793.32	616.44
793.5	526.33
793.681	575.48
793.862	552.95
794.042	487.42
794.223	593.91
794.404	485.37
794.584	520.18
794.765	509.94
794.945	542.71
795.126	526.33
795.306	565.24
795.487	507.9
795.667	522.23
795.848	473.08
796.028	485.37
796.209	471.03
796.389	522.23
796.57	511.99
796.75	511.99
796.93	526.33
797.111	452.6
797.291	526.33
797.471	493.56
797.652	417.79
797.832	399.35
798.012	505.85
798.192	417.79
798.373	468.98
798.553	428.03
798.733	366.59
798.913	421.88
799.093	337.91
799.274	450.55
799.454	434.17
799.634	380.92
799.814	456.7
799.994	454.65
800.174	415.74
800.354	483.32
800.534	389.11
800.714	485.37
800.894	499.7
801.074	376.83
801.254	376.83
801.434	442.36
801.614	350.2
801.794	380.92
801.974	1060.85
802.154	235.52
802.334	360.44
802.514	327.67
802.693	325.63
802.873	403.45
803.053	389.11
803.233	395.26
803.413	366.59
803.592	370.68
803.772	331.77
803.952	370.68
804.131	317.44
804.311	397.31
804.491	385.02
804.67	301.05
804.85	432.12
805.03	309.24
805.209	456.7
805.389	346.11
805.568	393.21
805.748	251.9
805.928	296.96
806.107	335.87
806.287	274.43
806.466	346.11
806.646	352.25
806.825	378.87
807.004	305.15
807.184	323.58
807.363	376.83
807.543	307.2
807.722	339.96
807.901	333.82
808.081	299
808.26	303.1
808.439	303.1
808.619	284.67
808.798	335.87
808.977	272.38
809.156	260.09
809.336	321.53
809.515	329.72
809.694	311.29
809.873	286.72
810.052	264.19
810.231	335.87
810.411	288.76
810.59	344.06
810.769	194.56
810.948	294.91
811.127	268.28
811.306	206.84
811.485	358.39
811.664	294.91
811.843	258.04
812.022	243.71
812.201	278.52
812.38	231.42
812.559	303.1
812.737	352.25
812.916	299
813.095	198.65
813.274	233.47
813.453	333.82
813.632	309.24
813.811	233.47
813.989	243.71
814.168	290.81
814.347	276.48
814.526	200.7
814.704	249.85
814.883	333.82
815.062	270.33
815.24	270.33
815.419	210.94
815.598	180.22
815.776	256
815.955	206.84
816.133	174.08
816.312	260.09
816.49	227.32
816.669	223.23
816.847	186.37
817.026	174.08
817.204	172.03
817.383	239.61
817.561	104.45
817.74	200.7
817.918	231.42
818.097	139.26
818.275	225.28
818.453	135.17
818.632	196.61
818.81	264.19
818.988	104.45
819.167	172.03
819.345	215.04
819.523	159.74
819.701	217.08
819.879	317.44
820.058	157.69
820.236	141.31
820.414	178.17
820.592	153.6
820.77	174.08
820.948	172.03
821.127	217.08
821.305	182.27
821.483	202.75
821.661	210.94
821.839	122.88
822.017	159.74
822.195	190.46
822.373	278.52
822.551	178.17
822.729	157.69
822.907	202.75
823.085	210.94
823.262	210.94
823.44	161.79
823.618	155.65
823.796	174.08
823.974	172.03
824.152	163.84
824.329	137.21
824.507	258.04
824.685	198.65
824.863	153.6
825.04	212.99
825.218	143.36
825.396	172.03
825.574	192.51
825.751	192.51
825.929	192.51
826.107	69.63
826.284	188.41
826.462	167.93
826.639	165.89
826.817	116.73
826.994	180.22
827.172	73.73
827.349	215.04
827.527	141.31
827.704	198.65
827.882	131.07
828.059	122.88
828.237	126.97
828.414	186.37
828.591	43.01
828.769	159.74
828.946	108.54
829.124	180.22
829.301	129.02
829.478	106.49
829.655	114.69
829.833	159.74
830.01	172.03
830.187	106.49
830.364	141.31
830.542	120.83
830.719	96.25
830.896	167.93
831.073	196.61
831.25	88.06
831.427	159.74
831.604	192.51
831.782	92.16
831.959	120.83
832.136	57.34
832.313	114.69
832.49	61.44
832.667	174.08
832.844	116.73
833.021	96.25
833.198	53.25
833.374	106.49
833.551	98.3
833.728	116.73
833.905	153.6
834.082	77.82
834.259	137.21
834.436	145.41
834.612	102.4
834.789	71.68
834.966	114.69
835.143	102.4
835.319	116.73
835.496	116.73
835.673	135.17
835.85	133.12
836.026	24.58
836.203	77.82
836.38	59.39
836.556	131.07
836.733	129.02
836.909	180.22
837.086	94.21
837.262	143.36
837.439	45.06
837.616	108.54
837.792	6.14
837.968	86.01
838.145	118.78
838.321	124.93
838.498	100.35
838.674	139.26
838.851	110.59
839.027	43.01
839.203	81.92
839.38	79.87
839.556	114.69
839.732	75.77
839.909	106.49
840.085	139.26
840.261	-24.58
840.437	98.3
840.614	106.49
840.79	184.32
840.966	147.45
841.142	86.01
841.318	47.1
841.494	147.45
841.671	196.61
841.847	59.39
842.023	108.54
842.199	75.77
842.375	30.72
842.551	57.34
842.727	110.59
842.903	100.35
843.079	55.3
843.255	159.74
843.431	81.92
843.607	133.12
843.783	57.34
843.959	28.67
844.134	69.63
844.31	24.58
844.486	75.77
844.662	59.39
844.838	90.11
845.013	71.68
845.189	51.2
845.365	65.53
845.541	-49.15
845.716	73.73
845.892	112.64
846.068	53.25
846.244	90.11
846.419	18.43
846.595	65.53
846.77	32.77
846.946	57.34
847.122	77.82
847.297	20.48
847.473	81.92
847.648	77.82
847.824	20.48
847.999	26.62
848.175	53.25
848.35	53.25
848.526	75.77
848.701	102.4
848.876	104.45
849.052	14.34
849.227	86.01
849.403	71.68
849.578	2.05
849.753	67.58
849.929	51.2
850.104	-26.62
850.279	71.68
850.454	71.68
850.63	124.93
850.805	36.86
850.98	83.97
851.155	90.11
851.33	38.91
851.505	-32.77
851.681	106.49
851.856	32.77
852.031	18.43
852.206	106.49
852.381	-14.34
852.556	43.01
852.731	114.69
852.906	65.53
853.081	86.01
853.256	79.87
853.431	86.01
853.606	14.34
853.781	-18.43
853.956	8.19
854.131	43.01
854.305	14.34
854.48	28.67
854.655	67.58
854.83	-6.14
855.005	45.06
855.18	28.67
855.354	18.43
855.529	2.05
855.704	2.05
855.879	20.48
856.053	34.82
856.228	47.1
856.403	0
856.577	53.25
856.752	28.67
856.926	26.62
857.101	34.82
857.276	-14.34
857.45	-24.58
857.625	12.29
857.799	34.82
857.974	57.34
858.148	10.24
858.323	45.06
858.497	65.53
858.672	0
858.846	26.62
859.02	36.86
859.195	12.29
859.369	96.25
859.543	2.05
859.718	30.72
859.892	108.54
860.066	28.67
860.241	43.01
860.415	8.19
860.589	55.3
860.763	14.34
860.938	71.68
861.112	45.06
861.286	24.58
861.46	57.34
861.634	-45.06
861.808	30.72
861.982	-16.38
862.157	14.34
862.331	43.01
862.505	57.34
862.679	28.67
862.853	45.06
863.027	-16.38
863.201	49.15
863.375	-16.38
863.549	69.63
863.722	45.06
863.896	18.43
864.07	12.29
864.244	-2.05
864.418	79.87
864.592	30.72
864.766	75.77
864.939	-10.24
865.113	-38.91
865.287	81.92
865.461	79.87
865.634	-2.05
865.808	-49.15
865.982	45.06
866.156	-43.01
866.329	-65.54
866.503	-43.01
866.676	73.73
866.85	-47.1
867.024	-43.01
867.197	55.3
867.371	32.77
867.544	47.1
867.718	28.67
867.891	69.63
868.065	-63.49
868.238	22.53
868.412	30.72
868.585	-24.58
868.759	-6.14
868.932	43.01
869.105	57.34
869.279	-14.34
869.452	-49.15
869.625	81.92
869.799	36.86
869.972	-47.1
870.145	22.53
870.319	112.64
870.492	-43.01
870.665	-77.82
870.838	-40.96
871.011	-57.34
871.185	69.63
871.358	4.1
871.531	92.16
871.704	6.14
871.877	22.53
872.05	-38.91
872.223	40.96
872.396	32.77
872.569	14.34
872.742	-102.4
872.915	34.82
873.088	-55.3
873.261	-10.24
873.434	24.58
873.607	45.06
873.78	14.34
873.953	8.19
874.126	8.19
874.299	45.06
874.471	-69.63
874.644	-10.24
874.817	14.34
874.99	49.15
875.163	-34.82
875.335	20.48
875.508	4.1
875.681	32.77
875.853	34.82
876.026	28.67
876.199	4.1
876.371	36.86
876.544	-36.86
876.717	-14.34
876.889	-10.24
877.062	26.62
877.234	6.14
877.407	-36.86
877.579	36.86
877.752	-45.06
877.924	63.49
878.097	45.06
878.269	28.67
878.442	30.72
878.614	67.58
878.786	4.1
878.959	-28.67
879.131	40.96
879.303	-16.38
879.476	-8.19
879.648	47.1
879.82	-32.77
879.993	-6.14
880.165	6.14
880.337	-32.77
880.509	57.34
880.681	-40.96
880.854	-49.15
881.026	26.62
881.198	28.67
881.37	-47.1
881.542	71.68
881.714	-14.34
881.886	12.29
882.058	55.3
882.23	8.19
882.402	90.11
882.574	-10.24
882.746	20.48
882.918	28.67
883.09	4.1
883.262	10.24
883.434	-32.77
883.606	-40.96
883.778	-12.29
883.95	32.77
884.122	73.73
884.293	38.91
884.465	-8.19
884.637	69.63
884.809	-36.86
884.98	69.63
885.152	-43.01
885.324	79.87
885.496	-8.19
885.667	4.1
885.839	18.43
886.011	-61.44
886.182	-6.14
886.354	-20.48
886.525	-59.39
886.697	-30.72
886.869	2.05
887.04	47.1
887.212	-4.1
887.383	36.86
887.555	65.53
887.726	-108.54
887.897	28.67
888.069	16.38
888.24	22.53
888.412	71.68
888.583	-32.77
888.754	12.29
888.926	-108.54
889.097	-6.14
889.268	-67.58
889.44	0
889.611	2.05
889.782	-122.88
889.953	-10.24
890.125	34.82
890.296	-45.06
890.467	-24.58
890.638	-43.01
890.809	40.96
890.98	-28.67
891.151	-30.72
891.323	38.91
891.494	-32.77
891.665	-40.96
891.836	-14.34
892.007	-12.29
892.178	-14.34
892.349	-79.87
892.52	2.05
892.691	-16.38
892.862	4.1
893.032	-49.15
893.203	-20.48
893.374	36.86
893.545	14.34
893.716	16.38
893.887	-26.62
894.057	38.91
894.228	-8.19
894.399	-14.34
894.57	38.91
894.74	26.62
894.911	6.14
895.082	28.67
895.253	18.43
895.423	49.15
895.594	32.77
895.764	-34.82
895.935	4.1
896.106	49.15
896.276	-20.48
896.447	47.1
896.617	-4.1
896.788	-73.73
896.958	63.49
897.129	-12.29
897.299	-28.67
897.47	-8.19
897.64	36.86
897.81	-8.19
897.981	32.77
898.151	-24.58
898.322	69.63
898.492	-34.82
898.662	-2.05
898.832	18.43
899.003	24.58
899.173	-18.43
899.343	-51.2
899.513	-55.3
