Data from USB4F104151__37__12-41-22-403.txt Node

Date: Fri Mar 14 12:41:22 EDT 2025
User: louis
Spectrometer: USB4F10415
Trigger mode: 4
Integration Time (sec): 3.000000E-2
Scans to average: 1
Electric dark correction enabled: true
Nonlinearity correction enabled: false
Boxcar width: 0
XAxis mode: Wavelengths
Number of Pixels in Spectrum: 3648
>>>>>Begin Spectral Data<<<<<
178.204	-159.06
178.424	-159.06
178.644	-159.06
178.864	-85.33
179.084	-134.48
179.304	41.64
179.524	-36.18
179.744	-7.51
179.964	39.59
180.184	-36.18
180.404	19.11
180.624	74.41
180.844	19.11
181.064	-46.42
181.283	-7.51
181.503	-93.52
181.723	33.45
181.943	-44.37
182.163	113.32
182.383	-9.56
182.602	4.78
182.822	35.5
183.042	33.45
183.262	-7.51
183.482	-7.51
183.701	-21.85
183.921	33.45
184.141	4.78
184.361	27.31
184.58	12.97
184.8	23.21
185.02	29.35
185.239	60.07
185.459	47.79
185.679	78.51
185.898	-38.23
186.118	80.55
186.338	-19.8
186.557	-19.8
186.777	49.83
186.997	-13.65
187.216	-32.08
187.436	58.03
187.655	92.84
187.875	84.65
188.095	27.31
188.314	115.37
188.534	94.89
188.753	25.26
188.973	-34.13
189.192	27.31
189.412	-19.8
189.631	107.18
189.851	21.16
190.07	49.83
190.29	10.92
190.509	55.98
190.729	-17.75
190.948	35.5
191.168	123.56
191.387	101.03
191.607	17.07
191.826	84.65
192.045	-60.76
192.265	86.7
192.484	80.55
192.704	49.83
192.923	53.93
193.142	58.03
193.362	4.78
193.581	78.51
193.8	0.68
194.02	37.55
194.239	60.07
194.458	-15.7
194.678	76.46
194.897	8.87
195.116	19.11
195.335	0.68
195.555	27.31
195.774	-11.61
195.993	27.31
196.212	49.83
196.432	6.83
196.651	-25.94
196.87	58.03
197.089	117.42
197.308	86.7
197.528	78.51
197.747	15.02
197.966	0.68
198.185	60.07
198.404	72.36
198.623	37.55
198.842	58.03
199.062	111.27
199.281	53.93
199.5	10.92
199.719	2.73
199.938	103.08
200.157	78.51
200.376	-7.51
200.595	88.75
200.814	4.78
201.033	96.94
201.252	39.59
201.471	27.31
201.69	109.23
201.909	6.83
202.128	96.94
202.347	27.31
202.566	-36.18
202.785	-40.28
203.004	55.98
203.223	117.42
203.442	33.45
203.661	25.26
203.879	33.45
204.098	55.98
204.317	15.02
204.536	47.79
204.755	19.11
204.974	78.51
205.193	49.83
205.411	141.99
205.63	47.79
205.849	72.36
206.068	15.02
206.287	-60.76
206.505	76.46
206.724	15.02
206.943	-13.65
207.162	-42.32
207.381	8.87
207.599	17.07
207.818	60.07
208.037	19.11
208.255	-13.65
208.474	29.35
208.693	39.59
208.911	10.92
209.13	66.22
209.349	39.59
209.567	19.11
209.786	25.26
210.005	-5.46
210.223	37.55
210.442	17.07
210.661	33.45
210.879	43.69
211.098	35.5
211.316	47.79
211.535	-64.85
211.753	17.07
211.972	43.69
212.191	-40.28
212.409	137.9
212.628	21.16
212.846	74.41
213.065	25.26
213.283	84.65
213.502	62.12
213.72	35.5
213.938	-21.85
214.157	15.02
214.375	-15.7
214.594	117.42
214.812	-9.56
215.031	74.41
215.249	33.45
215.467	58.03
215.686	15.02
215.904	107.18
216.122	17.07
216.341	74.41
216.559	51.88
216.778	43.69
216.996	80.55
217.214	58.03
217.432	6.83
217.651	-5.46
217.869	-5.46
218.087	58.03
218.306	33.45
218.524	51.88
218.742	35.5
218.96	58.03
219.179	-13.65
219.397	-1.37
219.615	174.76
219.833	49.83
220.051	-38.23
220.27	105.13
220.488	92.84
220.706	-58.71
220.924	19.11
221.142	64.17
221.36	45.74
221.578	33.45
221.796	60.07
222.015	60.07
222.233	33.45
222.451	148.14
222.669	64.17
222.887	82.6
223.105	37.55
223.323	8.87
223.541	-66.9
223.759	82.6
223.977	31.4
224.195	21.16
224.413	78.51
224.631	76.46
224.849	88.75
225.067	105.13
225.285	29.35
225.503	19.11
225.721	-36.18
225.939	35.5
226.157	55.98
226.375	113.32
226.592	-3.41
226.81	68.27
227.028	94.89
227.246	80.55
227.464	-3.41
227.682	49.83
227.9	47.79
228.117	60.07
228.335	47.79
228.553	33.45
228.771	55.98
228.989	64.17
229.206	127.66
229.424	6.83
229.642	33.45
229.86	37.55
230.077	6.83
230.295	17.07
230.513	76.46
230.731	84.65
230.948	66.22
231.166	103.08
231.384	64.17
231.601	66.22
231.819	115.37
232.037	80.55
232.254	-1.37
232.472	101.03
232.689	2.73
232.907	82.6
233.125	8.87
233.342	47.79
233.56	-21.85
233.777	90.79
233.995	-77.14
234.213	82.6
234.43	47.79
234.648	53.93
234.865	27.31
235.083	6.83
235.3	-34.13
235.518	33.45
235.735	68.27
235.953	123.56
236.17	8.87
236.388	4.78
236.605	21.16
236.822	98.99
237.04	23.21
237.257	2.73
237.475	-27.99
237.692	117.42
237.909	29.35
238.127	80.55
238.344	-3.41
238.562	72.36
238.779	6.83
238.996	19.11
239.214	74.41
239.431	53.93
239.648	15.02
239.865	29.35
240.083	-5.46
240.3	39.59
240.517	25.26
240.735	29.35
240.952	74.41
241.169	82.6
241.386	27.31
241.603	55.98
241.821	64.17
242.038	68.27
242.255	53.93
242.472	-1.37
242.689	66.22
242.907	43.69
243.124	55.98
243.341	35.5
243.558	51.88
243.775	-7.51
243.992	41.64
244.209	35.5
244.426	47.79
244.643	51.88
244.86	88.75
245.078	19.11
245.295	33.45
245.512	19.11
245.729	72.36
245.946	121.51
246.163	21.16
246.38	45.74
246.597	21.16
246.814	35.5
247.031	-60.76
247.248	109.23
247.464	76.46
247.681	-1.37
247.898	27.31
248.115	-17.75
248.332	-34.13
248.549	27.31
248.766	90.79
248.983	80.55
249.2	62.12
249.417	21.16
249.633	39.59
249.85	60.07
250.067	66.22
250.284	21.16
250.501	53.93
250.717	86.7
250.934	0.68
251.151	21.16
251.368	92.84
251.585	41.64
251.801	37.55
252.018	-32.08
252.235	62.12
252.451	29.35
252.668	17.07
252.885	82.6
253.102	78.51
253.318	-5.46
253.535	90.79
253.752	-30.04
253.968	4.78
254.185	-11.61
254.401	6.83
254.618	84.65
254.835	19.11
255.051	70.31
255.268	0.68
255.484	47.79
255.701	23.21
255.917	33.45
256.134	33.45
256.351	45.74
256.567	6.83
256.784	55.98
257	-7.51
257.217	76.46
257.433	70.31
257.65	43.69
257.866	72.36
258.082	58.03
258.299	2.73
258.515	53.93
258.732	15.02
258.948	60.07
259.165	10.92
259.381	-5.46
259.597	19.11
259.814	39.59
260.03	74.41
260.246	68.27
260.463	43.69
260.679	121.51
260.895	98.99
261.112	133.8
261.328	51.88
261.544	33.45
261.761	170.66
261.977	88.75
262.193	4.78
262.409	6.83
262.626	33.45
262.842	19.11
263.058	-9.56
263.274	103.08
263.49	58.03
263.707	119.46
263.923	64.17
264.139	-9.56
264.355	37.55
264.571	29.35
264.787	6.83
265.004	68.27
265.22	19.11
265.436	82.6
265.652	6.83
265.868	17.07
266.084	-23.89
266.3	49.83
266.516	-34.13
266.732	111.27
266.948	17.07
267.164	-38.23
267.38	-11.61
267.596	21.16
267.812	70.31
268.028	17.07
268.244	23.21
268.46	45.74
268.676	-5.46
268.892	105.13
269.108	23.21
269.324	-7.51
269.54	8.87
269.756	189.1
269.972	2.73
270.188	25.26
270.403	29.35
270.619	64.17
270.835	62.12
271.051	27.31
271.267	-9.56
271.483	47.79
271.698	68.27
271.914	123.56
272.13	113.32
272.346	-5.46
272.562	17.07
272.777	117.42
272.993	55.98
273.209	27.31
273.425	55.98
273.64	74.41
273.856	92.84
274.072	-5.46
274.287	64.17
274.503	82.6
274.719	107.18
274.934	66.22
275.15	-5.46
275.366	58.03
275.581	27.31
275.797	-9.56
276.012	-3.41
276.228	-23.89
276.444	-46.42
276.659	23.21
276.875	58.03
277.09	53.93
277.306	-19.8
277.521	66.22
277.737	53.93
277.952	10.92
278.168	43.69
278.383	31.4
278.599	33.45
278.814	4.78
279.03	60.07
279.245	119.46
279.461	15.02
279.676	45.74
279.892	-23.89
280.107	55.98
280.322	84.65
280.538	45.74
280.753	31.4
280.969	35.5
281.184	47.79
281.399	117.42
281.615	43.69
281.83	107.18
282.045	23.21
282.26	0.68
282.476	47.79
282.691	25.26
282.906	76.46
283.122	62.12
283.337	45.74
283.552	39.59
283.767	-19.8
283.983	74.41
284.198	-5.46
284.413	49.83
284.628	-23.89
284.843	76.46
285.058	92.84
285.274	10.92
285.489	37.55
285.704	49.83
285.919	68.27
286.134	96.94
286.349	23.21
286.564	-48.47
286.779	51.88
286.995	51.88
287.21	35.5
287.425	43.69
287.64	25.26
287.855	58.03
288.07	4.78
288.285	-17.75
288.5	6.83
288.715	117.42
288.93	-40.28
289.145	98.99
289.36	51.88
289.575	6.83
289.79	62.12
290.004	8.87
290.219	90.79
290.434	19.11
290.649	33.45
290.864	55.98
291.079	15.02
291.294	92.84
291.509	55.98
291.724	66.22
291.938	31.4
292.153	76.46
292.368	76.46
292.583	19.11
292.798	-3.41
293.012	37.55
293.227	86.7
293.442	45.74
293.657	23.21
293.871	82.6
294.086	37.55
294.301	105.13
294.516	150.18
294.73	35.5
294.945	-58.71
295.16	25.26
295.374	125.61
295.589	60.07
295.804	19.11
296.018	64.17
296.233	117.42
296.447	-9.56
296.662	53.93
296.877	49.83
297.091	0.68
297.306	41.64
297.52	86.7
297.735	35.5
297.949	35.5
298.164	51.88
298.378	31.4
298.593	21.16
298.807	47.79
299.022	43.69
299.236	76.46
299.451	33.45
299.665	62.12
299.88	-5.46
300.094	101.03
300.309	64.17
300.523	74.41
300.737	47.79
300.952	-19.8
301.166	23.21
301.381	53.93
301.595	0.68
301.809	37.55
302.024	107.18
302.238	4.78
302.452	103.08
302.667	31.4
302.881	137.9
303.095	31.4
303.309	58.03
303.524	68.27
303.738	64.17
303.952	2.73
304.166	51.88
304.381	-87.38
304.595	47.79
304.809	33.45
305.023	84.65
305.237	2.73
305.452	68.27
305.666	8.87
305.88	47.79
306.094	125.61
306.308	27.31
306.522	70.31
306.736	-13.65
306.95	129.7
307.164	0.68
307.379	58.03
307.593	92.84
307.807	2.73
308.021	31.4
308.235	121.51
308.449	-5.46
308.663	39.59
308.877	154.28
309.091	45.74
309.305	33.45
309.519	-15.7
309.733	35.5
309.947	8.87
310.161	66.22
310.374	25.26
310.588	15.02
310.802	-7.51
311.016	19.11
311.23	51.88
311.444	-5.46
311.658	84.65
311.872	66.22
312.085	164.52
312.299	25.26
312.513	78.51
312.727	62.12
312.941	4.78
313.154	86.7
313.368	0.68
313.582	51.88
313.796	58.03
314.009	-36.18
314.223	51.88
314.437	121.51
314.651	62.12
314.864	19.11
315.078	-36.18
315.292	23.21
315.505	78.51
315.719	49.83
315.933	29.35
316.146	49.83
316.36	41.64
316.573	107.18
316.787	2.73
317.001	68.27
317.214	31.4
317.428	47.79
317.641	105.13
317.855	62.12
318.068	105.13
318.282	33.45
318.495	127.66
318.709	72.36
318.922	82.6
319.136	80.55
319.349	78.51
319.563	-1.37
319.776	86.7
319.99	41.64
320.203	103.08
320.417	62.12
320.63	58.03
320.843	-23.89
321.057	29.35
321.27	62.12
321.483	98.99
321.697	37.55
321.91	68.27
322.124	98.99
322.337	29.35
322.55	37.55
322.763	4.78
322.977	98.99
323.19	-9.56
323.403	74.41
323.617	-23.89
323.83	96.94
324.043	82.6
324.256	76.46
324.469	2.73
324.683	107.18
324.896	53.93
325.109	109.23
325.322	-17.75
325.535	33.45
325.748	148.14
325.962	6.83
326.175	101.03
326.388	90.79
326.601	4.78
326.814	45.74
327.027	62.12
327.24	64.17
327.453	-3.41
327.666	96.94
327.879	55.98
328.092	64.17
328.305	25.26
328.518	19.11
328.731	29.35
328.944	39.59
329.157	-1.37
329.37	74.41
329.583	94.89
329.796	113.32
330.009	29.35
330.222	131.75
330.435	43.69
330.648	60.07
330.861	86.7
331.073	58.03
331.286	82.6
331.499	17.07
331.712	78.51
331.925	88.75
332.138	47.79
332.35	41.64
332.563	58.03
332.776	43.69
332.989	19.11
333.202	4.78
333.414	-9.56
333.627	101.03
333.84	60.07
334.053	141.99
334.265	-68.95
334.478	25.26
334.691	92.84
334.903	37.55
335.116	107.18
335.329	37.55
335.541	39.59
335.754	-11.61
335.966	43.69
336.179	-5.46
336.392	92.84
336.604	39.59
336.817	62.12
337.029	19.11
337.242	86.7
337.454	76.46
337.667	35.5
337.88	76.46
338.092	15.02
338.305	-58.71
338.517	90.79
338.729	12.97
338.942	-48.47
339.154	-34.13
339.367	23.21
339.579	64.17
339.792	53.93
340.004	47.79
340.217	35.5
340.429	64.17
340.641	86.7
340.854	51.88
341.066	60.07
341.278	131.75
341.491	109.23
341.703	80.55
341.915	12.97
342.128	117.42
342.34	4.78
342.552	68.27
342.764	45.74
342.977	64.17
343.189	21.16
343.401	139.94
343.613	15.02
343.826	92.84
344.038	15.02
344.25	78.51
344.462	-50.52
344.674	180.9
344.886	105.13
345.099	84.65
345.311	86.7
345.523	25.26
345.735	8.87
345.947	60.07
346.159	25.26
346.371	21.16
346.583	109.23
346.795	127.66
347.007	68.27
347.219	76.46
347.431	82.6
347.643	72.36
347.855	64.17
348.067	68.27
348.279	45.74
348.491	66.22
348.703	33.45
348.915	49.83
349.127	-1.37
349.339	78.51
349.551	45.74
349.763	-7.51
349.975	39.59
350.187	78.51
350.399	133.8
350.61	45.74
350.822	129.7
351.034	66.22
351.246	129.7
351.458	58.03
351.669	90.79
351.881	41.64
352.093	64.17
352.305	37.55
352.517	31.4
352.728	117.42
352.94	109.23
353.152	72.36
353.363	45.74
353.575	66.22
353.787	74.41
353.999	96.94
354.21	55.98
354.422	80.55
354.633	49.83
354.845	-1.37
355.057	39.59
355.268	146.09
355.48	19.11
355.692	103.08
355.903	47.79
356.115	78.51
356.326	-30.04
356.538	53.93
356.749	96.94
356.961	154.28
357.172	84.65
357.384	78.51
357.595	141.99
357.807	51.88
358.018	29.35
358.23	78.51
358.441	25.26
358.653	45.74
358.864	68.27
359.075	-15.7
359.287	78.51
359.498	98.99
359.709	6.83
359.921	96.94
360.132	49.83
360.344	98.99
360.555	92.84
360.766	60.07
360.977	86.7
361.189	148.14
361.4	74.41
361.611	86.7
361.823	109.23
362.034	17.07
362.245	-23.89
362.456	-1.37
362.667	55.98
362.879	62.12
363.09	111.27
363.301	47.79
363.512	101.03
363.723	111.27
363.935	66.22
364.146	117.42
364.357	66.22
364.568	94.89
364.779	103.08
364.99	35.5
365.201	51.88
365.412	70.31
365.623	31.4
365.834	74.41
366.045	-7.51
366.256	107.18
366.467	94.89
366.678	117.42
366.889	25.26
367.1	39.59
367.311	62.12
367.522	96.94
367.733	27.31
367.944	62.12
368.155	55.98
368.366	74.41
368.577	105.13
368.788	96.94
368.999	-23.89
369.209	58.03
369.42	176.81
369.631	162.47
369.842	101.03
370.053	47.79
370.264	55.98
370.474	70.31
370.685	47.79
370.896	94.89
371.107	98.99
371.317	137.9
371.528	58.03
371.739	131.75
371.95	62.12
372.16	144.04
372.371	8.87
372.582	39.59
372.792	78.51
373.003	129.7
373.214	98.99
373.424	66.22
373.635	64.17
373.846	74.41
374.056	53.93
374.267	109.23
374.477	105.13
374.688	33.45
374.898	101.03
375.109	107.18
375.319	148.14
375.53	146.09
375.74	125.61
375.951	119.46
376.161	74.41
376.372	137.9
376.582	43.69
376.793	96.94
377.003	25.26
377.214	98.99
377.424	47.79
377.635	111.27
377.845	98.99
378.055	170.66
378.266	103.08
378.476	64.17
378.686	103.08
378.897	94.89
379.107	101.03
379.317	45.74
379.528	113.32
379.738	-5.46
379.948	80.55
380.158	53.93
380.369	80.55
380.579	62.12
380.789	64.17
380.999	111.27
381.21	139.94
381.42	74.41
381.63	121.51
381.84	90.79
382.05	148.14
382.261	96.94
382.471	144.04
382.681	19.11
382.891	92.84
383.101	33.45
383.311	60.07
383.521	62.12
383.731	135.85
383.941	80.55
384.151	76.46
384.361	68.27
384.571	72.36
384.781	162.47
384.991	146.09
385.201	160.42
385.411	191.14
385.621	86.7
385.831	31.4
386.041	129.7
386.251	29.35
386.461	105.13
386.671	12.97
386.881	164.52
387.091	131.75
387.301	82.6
387.511	123.56
387.72	23.21
387.93	53.93
388.14	78.51
388.35	88.75
388.56	113.32
388.769	101.03
388.979	121.51
389.189	62.12
389.399	117.42
389.609	148.14
389.818	103.08
390.028	78.51
390.238	29.35
390.447	92.84
390.657	131.75
390.867	66.22
391.076	66.22
391.286	105.13
391.496	39.59
391.705	195.24
391.915	105.13
392.125	84.65
392.334	58.03
392.544	254.63
392.753	39.59
392.963	88.75
393.172	94.89
393.382	60.07
393.591	146.09
393.801	135.85
394.01	133.8
394.22	141.99
394.429	111.27
394.639	33.45
394.848	152.23
395.058	96.94
395.267	55.98
395.477	174.76
395.686	111.27
395.895	246.44
396.105	197.29
396.314	185
396.524	94.89
396.733	80.55
396.942	121.51
397.152	123.56
397.361	148.14
397.57	60.07
397.78	146.09
397.989	139.94
398.198	197.29
398.407	131.75
398.617	205.48
398.826	111.27
399.035	127.66
399.244	158.38
399.453	127.66
399.663	135.85
399.872	141.99
400.081	221.86
400.29	148.14
400.499	109.23
400.708	182.95
400.917	162.47
401.127	150.18
401.336	228.01
401.545	178.86
401.754	168.62
401.963	223.91
402.172	141.99
402.381	187.05
402.59	123.56
402.799	213.67
403.008	240.3
403.217	248.49
403.426	223.91
403.635	152.23
403.844	225.96
404.053	242.34
404.262	209.58
404.471	234.15
404.68	230.06
404.888	133.8
405.097	283.3
405.306	285.35
405.515	246.44
405.724	195.24
405.933	215.72
406.142	307.88
406.35	273.06
406.559	238.25
406.768	256.68
406.977	338.6
407.185	305.83
407.394	225.96
407.603	363.17
407.812	301.73
408.02	387.75
408.229	334.5
408.438	451.24
408.646	336.55
408.855	381.6
409.064	400.04
409.272	402.08
409.481	422.56
409.69	451.24
409.898	318.12
410.107	486.05
410.315	455.33
410.524	457.38
410.733	484
410.941	553.63
411.15	463.52
411.358	557.73
411.567	604.83
411.775	582.31
411.984	610.98
412.192	707.23
412.401	621.22
412.609	789.15
412.818	783.01
413.026	832.16
413.234	742.05
413.443	727.71
413.651	791.2
413.86	940.7
414.068	996
414.276	1012.38
414.485	901.79
414.693	977.56
414.901	1073.82
415.11	1137.31
415.318	1108.63
415.526	1192.6
415.734	1141.4
415.943	1186.46
416.151	1301.14
416.359	1282.71
416.567	1417.88
416.776	1426.07
416.984	1413.78
417.192	1512.08
417.4	1467.03
417.608	1507.99
417.817	1657.49
418.025	1675.92
418.233	1802.9
418.441	1731.22
418.649	2073.23
418.857	1995.4
419.065	1876.62
419.273	2062.99
419.481	2185.87
419.689	2067.08
419.897	2400.9
420.105	2228.87
420.313	2570.88
420.521	2462.34
420.729	2648.71
420.937	2648.71
421.145	2812.54
421.353	2962.05
421.561	3017.34
421.769	3082.88
421.977	3203.71
422.185	3134.07
422.393	3381.88
422.601	3533.43
422.809	3539.57
423.017	3590.77
423.224	3781.23
423.432	3893.87
423.64	3857.01
423.848	4287.08
424.056	4237.93
424.263	4395.62
424.471	4450.92
424.679	4620.9
424.887	4883.04
425.094	5108.32
425.302	5134.94
425.51	5286.49
425.718	5372.5
425.925	5313.11
426.133	5673.56
426.341	5798.48
426.548	6158.92
426.756	6232.65
426.964	6183.5
427.171	6761.03
427.379	6447.69
427.586	6955.58
427.794	7060.03
428.001	7477.82
428.209	7887.41
428.417	7639.61
428.624	8133.17
428.832	8254
429.039	8135.21
429.247	8243.76
429.454	9044.51
429.662	9763.35
429.869	8929.83
430.076	9558.55
430.284	9290.27
430.491	9710.1
430.699	10424.84
430.906	10338.83
431.114	10437.13
431.321	10924.55
431.528	10988.03
431.736	11606.52
431.943	12249.58
432.15	11944.44
432.358	12134.9
432.565	12884.45
432.772	12685.8
432.979	13294.05
433.187	13543.9
433.394	13611.48
433.601	14725.58
433.808	14680.52
434.016	14582.22
434.223	15141.32
434.43	15899.06
434.637	15534.53
434.844	16378.29
435.052	17013.16
435.259	16658.86
435.466	17115.56
435.673	17021.35
435.88	17811.87
436.087	18874.76
436.294	18999.69
436.501	18737.55
436.708	18987.4
436.915	20031.87
437.122	20719.98
437.329	20484.47
437.537	21262.69
437.743	21262.69
437.95	21242.21
438.157	22315.35
438.364	23163.21
438.571	23099.72
438.778	23015.76
438.985	25227.56
439.192	24369.46
439.399	25022.76
439.606	24596.79
439.813	26204.44
440.02	27615.49
440.227	27113.74
440.433	26693.91
440.64	27816.19
440.847	27672.84
441.054	28006.66
441.261	29870.31
441.467	29356.27
441.674	30212.32
441.881	31471.82
442.088	31289.55
442.294	31011.03
442.501	31994.05
442.708	32848.05
442.914	33570.99
443.121	35094.68
443.328	33767.59
443.534	36731
443.741	35700.87
443.948	35199.12
444.154	37709.93
444.361	37286
444.568	37734.51
444.774	37644.4
444.981	38056.04
445.187	39395.41
445.394	40996.92
445.6	40296.52
445.807	44277.77
446.013	42565.67
446.22	43165.72
446.426	44501
446.633	44570.63
446.839	46632.93
447.046	45103.1
447.252	46997.47
447.459	47013.85
447.665	46860.26
447.871	49045.44
448.078	51306.4
448.284	48412.62
448.491	49942.45
448.697	51988.37
448.903	52357
449.11	52731.78
449.316	51496.86
449.522	52918.15
449.728	54048.63
449.935	54738.79
450.141	54593.39
450.347	55412.57
450.553	53946.23
450.76	54726.5
450.966	56874.82
451.172	56006.48
451.378	56997.7
451.584	56246.1
451.791	57343.81
451.997	57091.91
452.203	58093.36
452.409	57945.91
452.615	57851.7
452.821	55883.61
453.027	55193.44
453.233	58208.05
453.44	56217.42
453.646	56692.55
453.852	56682.31
454.058	57771.83
454.264	56045.4
454.47	56805.19
454.676	55773.02
454.882	57433.92
455.088	53116.8
455.294	53305.21
455.5	54351.73
455.705	54796.13
455.911	52938.63
456.117	52043.66
456.323	51384.22
456.529	48664.52
456.735	50931.62
456.941	49246.14
457.147	48359.37
457.352	47269.85
457.558	46999.52
457.764	46933.98
457.97	46073.84
458.176	45094.91
458.381	44939.26
458.587	42928.16
458.793	42842.14
458.999	40603.71
459.204	43966.48
459.41	42096.68
459.616	39651.41
459.821	39735.37
460.027	39419.99
460.233	38617.18
460.438	36761.72
460.644	37460.08
460.85	35070.1
461.055	34984.08
461.261	34797.72
461.466	32467.13
461.672	31533.26
461.878	33439.92
462.083	31103.18
462.289	30882
462.494	30294.24
462.7	29280.49
462.905	28307.71
463.111	29513.96
463.316	29442.28
463.522	28868.85
463.727	28780.79
463.932	28612.85
464.138	28803.32
464.343	28748.02
464.549	27625.73
464.754	29028.59
464.959	28107.01
465.165	28207.36
465.37	27306.25
465.575	26523.93
465.781	27480.33
465.986	27689.22
466.191	26431.77
466.397	26216.73
466.602	24881.46
466.807	25692.45
467.012	25919.78
467.218	25882.91
467.423	25471.27
467.628	25864.48
467.833	26753.3
468.038	25624.87
468.244	24791.34
468.449	25893.15
468.654	25067.82
468.859	24889.65
469.064	24918.32
469.269	23892.29
469.474	23636.29
469.679	24332.6
469.885	23667.01
470.09	23773.5
470.295	23955.77
470.5	23312.71
470.705	23560.52
470.91	23173.45
471.115	22821.2
471.32	23243.08
471.525	23081.29
471.73	22255.96
471.935	22489.43
472.139	21483.87
472.344	21829.98
472.549	21836.13
472.754	21526.88
472.959	20855.15
473.164	20416.88
473.369	20142.46
473.574	21043.56
473.778	20670.83
473.983	20332.92
474.188	20380.02
474.393	20083.06
474.598	19845.5
474.802	19511.68
475.007	19370.37
475.212	19724.67
475.417	18440.59
475.621	18921.87
475.826	18786.7
476.031	18141.59
476.235	18164.12
476.44	18370.96
476.645	17942.94
476.849	18065.82
477.054	17734.04
477.259	17635.74
477.463	17318.31
477.668	16849.32
477.872	17056.17
478.077	17047.97
478.282	16675.24
478.486	16349.62
478.691	16423.34
478.895	16329.14
479.1	16042.42
479.304	16177.59
479.509	15737.27
479.713	15964.6
479.918	15587.77
480.122	15430.08
480.326	15528.38
480.531	15630.78
480.735	15315.39
480.94	15344.06
481.144	15575.48
481.348	15055.3
481.553	15342.02
481.757	14778.83
481.961	15253.95
482.166	15370.69
482.37	15153.6
482.574	14713.29
482.778	15114.69
482.983	15372.74
483.187	14957
483.391	15155.65
483.595	14895.56
483.8	14678.47
484.004	14850.5
484.208	15055.3
484.412	14772.68
484.616	14944.71
484.821	14942.66
485.025	14565.84
485.229	15200.71
485.433	14680.52
485.637	14748.11
485.841	14803.4
486.045	14707.15
486.249	14926.28
486.453	14660.04
486.657	14957
486.861	14727.63
487.065	14885.32
487.269	14852.55
487.473	14485.97
487.677	15022.53
487.881	14952.9
488.085	14756.3
488.289	14985.67
488.493	14891.46
488.697	14875.08
488.901	15110.6
489.105	15049.16
489.309	15133.12
489.512	14975.43
489.716	14895.56
489.92	15008.2
490.124	15016.39
490.328	15528.38
490.531	15167.94
490.735	15301.06
490.939	15188.42
491.143	15266.24
491.346	15378.88
491.55	15380.93
491.754	15409.6
491.958	15368.64
492.161	15399.36
492.365	15749.56
492.569	15634.88
492.772	15595.96
492.976	15784.38
493.18	15690.17
493.383	15845.82
493.587	16210.36
493.79	16247.22
493.994	16046.52
494.197	16185.78
494.401	16568.75
494.605	16300.47
494.808	16941.48
495.012	16834.99
495.215	16871.85
495.419	16982.44
495.622	16619.95
495.825	17308.07
496.029	17367.46
496.232	17449.38
496.436	17672.6
496.639	18074.01
496.843	17959.32
497.046	18157.97
497.249	18162.07
497.453	18483.6
497.656	18407.83
497.859	18762.12
498.063	19151.24
498.266	19073.42
498.469	19014.02
498.673	19274.12
498.876	19616.13
499.079	19745.15
499.282	19802.49
499.485	20259.19
499.689	20425.08
499.892	20513.14
500.095	20672.88
500.298	20869.48
500.501	20859.24
500.705	21573.99
500.908	21784.93
501.111	21799.26
501.314	22260.06
501.517	22182.23
501.72	22458.71
501.923	22589.78
502.126	22917.45
502.329	23236.94
502.532	23304.52
502.735	23540.04
502.938	23746.88
503.141	24181.05
503.344	24629.55
503.547	24764.72
503.75	24983.85
503.953	25329.96
504.156	25477.41
504.359	25618.72
504.562	25909.54
504.765	26300.7
504.968	26409.24
505.17	26794.26
505.373	26669.33
505.576	27394.31
505.779	27525.38
505.982	27664.64
506.185	28379.39
506.387	28315.9
506.59	28733.68
506.793	28944.62
506.996	28887.28
507.198	29903.07
507.401	29675.75
507.604	30245.09
507.807	30533.85
508.009	30857.43
508.212	30599.38
508.415	31418.57
508.617	31520.97
508.82	31531.21
509.022	31693
509.225	32254.14
509.428	32544.95
509.63	32714.94
509.833	33145.01
510.035	33839.27
510.238	33796.26
510.44	34246.82
510.643	34207.9
510.845	34554.01
511.048	35016.85
511.25	35332.24
511.453	35188.88
511.655	37005.43
511.858	36149.38
512.06	36475.01
512.262	36870.26
512.465	36634.75
512.667	37355.63
512.87	37369.97
513.072	37937.26
513.274	38461.54
513.477	38578.27
513.679	39069.78
513.881	39319.63
514.084	39762
514.286	39811.15
514.488	40089.67
514.69	41216.05
514.893	40876.09
515.095	40845.37
515.297	41658.42
515.499	41717.81
515.701	41916.46
515.904	42842.14
516.106	42692.64
516.308	43161.62
516.51	43417.62
516.712	43403.28
516.914	44185.61
517.116	44677.12
517.318	44709.89
517.52	44965.88
517.722	44836.86
517.925	45670.39
518.127	45901.81
518.329	46381.03
518.531	45991.92
518.733	46927.84
518.935	47024.09
519.136	46712.8
519.338	47851.47
519.54	47781.84
519.742	48334.79
519.944	48527.3
520.146	49283
520.348	49199.04
520.55	49276.86
520.752	49645.49
520.954	50190.25
521.155	49913.78
521.357	50638.76
521.559	50710.44
521.761	51566.49
521.963	51699.61
522.164	51642.26
522.366	51834.77
522.568	52266.89
522.77	52651.91
522.971	53024.64
523.173	52680.58
523.375	52952.96
523.576	53452.67
523.778	53315.45
523.98	54280.05
524.181	53997.43
524.383	54077.3
524.584	54724.46
524.786	54368.11
524.988	54234.99
525.189	55232.35
525.391	55457.63
525.592	55687
525.794	55725.91
525.995	55738.2
526.197	55973.72
526.398	55869.27
526.6	56178.51
526.801	56416.08
527.003	56430.41
527.204	56532.81
527.406	57354.05
527.607	56958.79
527.808	57280.32
528.01	56196.95
528.211	57028.42
528.412	58025.78
528.614	57292.61
528.815	57286.46
529.016	58277.68
529.218	57820.98
529.419	57962.29
529.62	57716.54
529.822	57519.93
530.023	57870.14
530.224	58179.38
530.425	57866.04
530.626	57681.72
530.828	57691.96
531.029	58453.81
531.23	58246.96
531.431	58382.13
531.632	58466.09
531.833	58978.09
532.035	58400.56
532.236	58529.58
532.437	58822.44
532.638	58625.84
532.839	58806.06
533.04	58949.42
533.241	57945.91
533.442	58996.52
533.643	58578.73
533.844	58537.77
534.045	58576.68
534.246	58765.1
534.447	58681.13
534.648	58537.77
534.849	58492.72
535.05	58668.84
535.251	58914.6
535.451	58392.37
535.652	58859.3
535.853	58789.67
536.054	58865.45
536.255	58746.67
536.456	58363.7
536.657	59189.03
536.857	58603.31
537.058	58044.21
537.259	58967.85
537.46	58662.7
537.66	58474.29
537.861	58720.04
538.062	58232.63
538.263	58591.02
538.463	58324.78
538.664	58951.46
538.865	58623.79
539.065	58482.48
539.266	58234.67
539.466	58926.89
539.667	57708.35
539.868	58556.21
540.068	58263.35
540.269	58048.31
540.469	58509.1
540.67	58115.89
540.87	58359.6
541.071	58165.04
541.271	58337.07
541.472	57855.8
541.672	58169.14
541.873	57438.01
542.073	57642.81
542.274	58523.44
542.474	58132.28
542.675	57861.94
542.875	57917.24
543.075	58144.56
543.276	57581.37
543.476	58206
543.676	57464.64
543.877	58427.18
544.077	57931.57
544.277	57521.98
544.478	57792.31
544.678	58156.85
544.878	58224.43
545.078	57857.85
545.279	57335.62
545.479	57632.57
545.679	57593.66
545.879	57950.01
546.079	57808.7
546.28	57560.89
546.48	57179.97
546.68	57730.87
546.88	57925.43
547.08	57528.12
547.28	57644.86
547.48	57157.44
547.68	57601.85
547.88	57118.53
548.081	57720.63
548.281	57237.31
548.481	57352
548.681	57401.15
548.881	57446.21
549.081	57167.68
549.28	57046.85
549.48	57497.41
549.68	57206.59
549.88	57657.15
550.08	56774.47
550.28	57128.77
550.48	57018.18
550.68	57337.66
550.88	56962.89
551.08	56987.46
551.279	57038.66
551.479	56614.73
551.679	56995.65
551.879	56686.41
552.079	57038.66
552.278	56729.42
552.478	57239.36
552.678	56516.43
552.878	57231.17
553.077	56973.13
553.277	56489.8
553.477	57227.07
553.676	57149.25
553.876	57149.25
554.076	56880.97
554.275	56487.76
554.475	56155.99
554.674	56969.03
554.874	56618.83
555.074	56579.92
555.273	56770.38
555.473	56469.32
555.672	56330.06
555.872	56313.68
556.071	56506.19
556.271	56446.8
556.47	56610.63
556.67	55734.1
556.869	55990.1
557.068	56614.73
557.268	55940.95
557.467	56426.32
557.667	55785.3
557.866	55996.24
558.065	55975.76
558.265	55213.92
558.464	55576.41
558.663	55762.78
558.863	55189.34
559.062	55951.19
559.261	54900.58
559.461	56377.17
559.66	55091.04
559.859	55304.03
560.058	55205.73
560.258	55549.79
560.457	55295.84
560.656	55529.31
560.855	54953.83
561.054	54998.88
561.253	54701.93
561.453	55256.93
561.652	55396.19
561.851	55443.29
562.05	54841.19
562.249	54306.67
562.448	54923.11
562.647	55142.24
562.846	54937.44
563.045	54976.36
563.244	53929.84
563.443	55105.38
563.642	53915.51
563.841	54122.35
564.04	54253.42
564.239	54554.47
564.438	54171.5
564.637	54101.87
564.836	54765.42
565.035	53970.8
565.234	54290.29
565.432	53938.04
565.631	53909.36
565.83	54087.54
566.029	53731.19
566.228	53577.59
566.427	53469.05
566.625	53499.77
566.824	52778.89
567.023	53925.75
567.222	52590.47
567.42	53268.35
567.619	53094.27
567.818	52803.46
568.016	53180.29
568.215	53389.18
568.414	52952.96
568.612	53280.64
568.811	52551.56
569.01	52748.17
569.208	52074.38
569.407	52832.13
569.605	51789.72
569.804	53120.9
570.002	51806.1
570.201	52791.17
570.4	51984.27
570.598	51863.44
570.797	51875.73
570.995	51998.61
571.193	51726.23
571.392	52137.87
571.59	51779.48
571.789	51531.67
571.987	51787.67
572.186	51533.72
572.384	51062.69
572.582	51558.3
572.781	51218.33
572.979	50837.41
573.177	51455.9
573.376	51347.36
573.574	50814.88
573.772	50927.52
573.971	50661.29
574.169	50331.56
574.367	50700.2
574.565	50661.29
574.763	50503.59
574.962	50687.91
575.16	49659.83
575.358	50360.23
575.556	50094
575.754	50395.05
575.952	49287.1
576.151	50378.67
576.349	49414.07
576.547	49551.29
576.745	49530.81
576.943	49700.79
577.141	49575.86
577.339	49639.35
577.537	48881.6
577.735	49369.02
577.933	48945.09
578.131	49340.35
578.329	48687.04
578.527	48353.22
578.725	48697.28
578.923	48891.84
579.121	48574.41
579.319	48404.42
579.516	48756.67
579.714	48302.03
579.912	48089.04
580.11	48105.42
580.308	48641.99
580.506	47757.27
580.704	47192.03
580.901	47824.85
581.099	47763.41
581.297	47235.03
581.495	47097.82
581.692	47269.85
581.89	47177.69
582.088	47038.43
582.285	47167.45
582.483	46829.54
582.681	46901.21
582.878	46512.1
583.076	46034.92
583.274	47036.38
583.471	45807.6
583.669	46258.15
583.866	45848.56
584.064	46155.75
584.262	45346.81
584.459	45881.33
584.657	45520.88
584.854	45977.58
585.052	45123.58
585.249	45477.88
585.447	45398.01
585.644	44765.18
585.841	45094.91
586.039	45357.05
586.236	44627.97
586.434	44939.26
586.631	44533.76
586.828	44929.02
587.026	44345.35
587.223	44496.9
587.42	44134.41
587.618	44331.01
587.815	43702.29
588.012	43651.09
588.21	43790.35
588.407	44142.6
588.604	43730.96
588.801	43569.17
588.999	43632.66
589.196	43276.31
589.393	43157.53
589.59	42942.49
589.787	43100.18
589.984	42891.29
590.182	42262.57
590.379	42668.06
590.576	42375.2
590.773	42709.02
590.97	41902.12
591.167	42571.81
591.364	41551.92
591.561	42106.92
591.758	41728.05
591.955	41908.27
592.152	41689.13
592.349	41392.18
592.546	41711.66
592.743	41171
592.94	40517.7
593.137	41183.29
593.334	41361.46
593.531	40652.86
593.727	40831.04
593.924	40538.18
594.121	40472.64
594.318	40702.01
594.515	40069.19
594.712	40478.78
594.908	40001.61
595.105	40312.9
595.302	39880.78
595.499	40116.29
595.696	39397.46
595.892	39247.96
596.089	39929.93
596.286	39309.39
596.482	39202.9
596.679	39393.36
596.876	39139.41
597.072	39057.49
597.269	38828.12
597.466	38385.76
597.662	38856.79
597.859	38328.42
598.055	38766.68
598.252	38416.48
598.448	38158.44
598.645	38295.65
598.841	37709.93
599.038	38140
599.234	37972.07
599.431	37515.37
599.627	37513.33
599.824	37920.87
600.02	37271.67
600.217	37720.17
600.413	37066.87
600.609	37224.56
600.806	36806.78
601.002	37136.5
601.198	36745.34
601.395	36423.81
601.591	36475.01
601.787	36438.14
601.984	36161.67
602.18	36753.53
602.376	36196.48
602.572	36122.76
602.769	35997.83
602.965	35856.52
603.161	36049.03
603.357	35295.38
603.553	35268.75
603.75	35831.94
603.946	35405.97
604.142	35575.95
604.338	35281.04
604.534	35231.89
604.73	34568.35
604.926	34674.84
605.122	34713.75
605.318	34635.93
605.514	34715.8
605.71	34310.3
605.906	34304.16
606.102	34420.89
606.298	34517.15
606.494	34441.37
606.69	33986.72
606.886	34246.82
607.082	33685.67
607.278	34220.19
607.474	33790.12
607.67	33853.61
607.866	33165.49
608.062	33882.28
608.257	33362.09
608.453	33507.5
608.649	33661.1
608.845	33417.39
609.041	33566.89
609.236	33376.43
609.432	32942.26
609.628	33169.58
609.824	33231.02
610.019	33087.67
610.215	33009.84
610.411	32798.9
610.606	32911.54
610.802	32936.12
610.998	32530.62
611.193	32860.34
611.389	32784.57
611.584	32288.96
611.78	32211.14
611.976	32630.97
612.171	32411.84
612.367	32200.9
612.562	32086.21
612.758	31930.56
612.953	31695.05
613.149	32039.11
613.344	31326.41
613.539	31846.6
613.735	31733.96
613.93	32045.25
614.126	31461.58
614.321	31830.21
614.517	31811.78
614.712	31381.71
614.907	31125.71
615.103	31719.62
615.298	31195.34
615.493	31377.61
615.688	30992.59
615.884	32028.87
616.079	30806.23
616.274	31267.02
616.47	30920.91
616.665	30879.96
616.86	30986.45
617.055	31015.12
617.25	30607.58
617.445	30818.52
617.641	30390.49
617.836	30615.77
618.031	30159.07
618.226	30441.69
618.421	30169.31
618.616	30722.26
618.811	29808.87
619.006	30216.41
619.201	29898.98
619.396	29903.07
619.591	29567.21
619.786	29712.61
619.981	29284.59
620.176	29708.52
620.371	29096.17
620.566	29122.8
620.761	28836.08
620.956	29262.06
621.151	28262.65
621.346	28760.31
621.541	28252.41
621.735	28426.49
621.93	28160.25
622.125	28356.86
622.32	27646.21
622.515	27992.32
622.709	27795.71
622.904	27758.85
623.099	27410.7
623.294	27619.59
623.488	26939.66
623.683	27154.7
623.878	26835.22
624.072	27009.29
624.267	26724.63
624.462	26538.26
624.656	26179.87
624.851	26364.18
625.046	26118.43
625.24	25909.54
625.435	25755.94
625.629	25948.45
625.824	25448.74
626.018	25452.84
626.213	25250.09
626.407	25284.9
626.602	24910.13
626.796	24885.55
626.991	25221.42
627.185	24500.53
627.38	24273.21
627.574	24602.93
627.768	24234.3
627.963	24174.91
628.157	23927.1
628.352	24260.92
628.546	23605.57
628.74	23802.18
628.935	23320.9
629.129	23617.86
629.323	23069
629.517	23105.87
629.712	22987.08
629.906	22929.74
630.1	22425.94
630.294	22839.63
630.489	22174.04
630.683	22821.2
630.877	22487.38
631.071	22264.15
631.265	22116.7
631.459	21862.75
631.653	22159.7
631.848	21647.71
632.042	21420.39
632.236	21545.31
632.43	21479.78
632.624	21391.72
632.818	21334.37
633.012	21121.38
633.206	21074.28
633.4	21076.33
633.594	20742.51
633.788	20818.28
633.982	20955.5
634.176	20629.87
634.369	20046.2
634.563	20380.02
634.757	20126.07
634.951	20162.94
635.145	19782.01
635.339	19947.9
635.533	19650.94
635.726	19802.49
635.92	19388.8
636.114	19380.61
636.308	19458.43
636.501	19560.83
636.695	19276.16
636.889	19028.36
637.083	19032.46
637.276	18727.31
637.47	18944.39
637.664	18798.99
637.857	18448.79
638.051	18614.67
638.244	18598.29
638.438	18338.19
638.632	18205.08
638.825	18125.21
639.019	18037.14
639.212	17828.25
639.406	17975.7
639.599	17942.94
639.793	17791.39
639.986	17467.81
640.18	17566.11
640.373	17729.95
640.567	17031.59
640.76	17242.53
640.954	17365.41
641.147	16804.27
641.34	17035.69
641.534	16845.23
641.727	16892.33
641.92	16789.93
642.114	16409.01
642.307	16601.52
642.5	16669.1
642.694	16417.2
642.887	16079.29
643.08	16607.66
643.273	16429.49
643.467	15784.38
643.66	15833.53
643.853	15897.02
644.046	15716.79
644.239	15643.07
644.432	15557.05
644.626	15497.66
644.819	15512
645.012	15475.13
645.205	15534.53
645.398	15481.28
645.591	15389.12
645.784	15284.67
645.977	14813.64
646.17	14926.28
646.363	14918.09
646.556	14789.06
646.749	14782.92
646.942	14739.91
647.135	14617.04
647.328	14498.25
647.521	14471.63
647.714	14162.39
647.907	14348.75
648.099	14453.2
648.292	14209.49
648.485	14121.43
648.678	14180.82
648.871	13801.94
649.064	13679.07
649.256	13697.5
649.449	13902.29
649.642	13754.84
649.835	13468.13
650.027	13617.63
650.22	13556.19
650.413	13347.29
650.605	13470.17
650.798	13083.11
650.991	12941.8
651.183	13048.29
651.376	12927.46
651.568	13033.96
651.761	12999.14
651.954	12835.3
652.146	12900.84
652.339	12575.21
652.531	12560.88
652.724	12511.72
652.916	12280.3
653.109	12507.63
653.301	12474.86
653.494	12513.77
653.686	12394.99
653.879	12145.14
654.071	12067.31
654.263	11942.39
654.456	12009.97
654.648	12130.8
654.84	11770.36
655.033	11762.17
655.225	11645.43
655.417	11700.73
655.61	11692.54
655.802	11598.33
655.994	11532.79
656.186	11559.42
656.379	11366.91
656.571	11233.79
656.763	11198.98
656.955	11282.94
657.148	11201.02
657.34	11280.89
657.532	10963.46
657.724	10799.62
657.916	10977.8
658.108	11053.57
658.3	10732.04
658.492	10766.85
658.684	10488.33
658.876	10445.32
659.068	10539.53
659.26	10435.08
659.452	10541.58
659.644	10418.7
659.836	10426.89
660.028	10359.31
660.22	10185.23
660.412	10377.74
660.604	10099.22
660.796	9935.38
660.988	10215.95
661.18	9927.19
661.372	9804.31
661.563	9957.91
661.755	9812.5
661.947	9888.28
662.139	9740.82
662.331	9564.7
662.522	9720.34
662.714	9527.83
662.906	9497.11
663.097	9361.95
663.289	9312.8
663.481	9548.31
663.673	9480.73
663.864	9247.26
664.056	9226.78
664.247	9384.48
664.439	9151.01
664.631	9171.49
664.822	8968.74
665.014	9034.27
665.205	9110.05
665.397	8829.48
665.588	8886.82
665.78	8901.15
665.971	8774.18
666.163	8819.24
666.354	8507.94
666.546	8753.7
666.737	8487.47
666.929	8567.34
667.12	8477.23
667.311	8536.62
667.503	8309.29
667.694	8589.86
667.885	8368.68
668.077	8538.66
668.268	8167.98
668.459	8286.76
668.651	8112.69
668.842	8032.82
669.033	8106.54
669.224	7879.22
669.416	8206.89
669.607	8022.58
669.798	8026.67
669.989	8084.02
670.18	8002.1
670.371	7768.63
670.563	7922.23
670.754	7879.22
670.945	7662.13
671.136	7727.67
671.327	7662.13
671.518	7641.65
671.709	7529.02
671.9	7457.34
672.091	7580.22
672.282	7486.01
672.473	7424.57
672.664	7543.35
672.855	7404.09
673.046	7225.92
673.237	7346.75
673.428	7404.09
673.619	7201.34
673.809	7137.85
674	7248.44
674.191	7213.63
674.382	7189.05
674.573	7035.46
674.764	7176.77
674.954	7125.57
675.145	7043.65
675.336	7070.27
675.527	7000.64
675.717	6924.86
675.908	6918.72
676.099	6908.48
676.289	7021.12
676.48	6867.52
676.671	6877.76
676.861	6959.68
677.052	6804.03
677.243	6806.08
677.433	6603.33
677.624	6928.96
677.814	6677.06
678.005	6597.19
678.195	6572.61
678.386	6576.71
678.576	6511.18
678.767	6601.29
678.957	6439.5
679.148	6670.92
679.338	6539.85
679.529	6552.13
679.719	6382.15
679.909	6449.74
680.1	6347.34
680.29	6292.04
680.481	6384.2
680.671	6087.25
680.861	6314.57
681.052	6269.51
681.242	6138.44
681.432	6208.08
681.622	6236.75
681.813	6107.73
682.003	6156.88
682.193	5997.14
682.383	6160.97
682.573	6158.92
682.764	6013.52
682.954	5990.99
683.144	6050.38
683.334	6009.42
683.524	5907.02
683.714	6154.83
683.904	5974.61
684.094	5864.02
684.284	5970.51
684.474	5993.04
684.664	5898.83
684.854	5861.97
685.044	5861.97
685.234	5630.55
685.424	5784.15
685.614	5728.85
685.804	5757.52
685.994	5622.36
686.184	5636.69
686.374	5628.5
686.564	5585.49
686.753	5657.17
686.943	5384.79
687.133	5614.16
687.323	5515.86
687.513	5587.54
687.702	5509.72
687.892	5524.05
688.082	5306.97
688.272	5315.16
688.461	5347.93
688.651	5263.96
688.841	5309.02
689.03	5229.15
689.22	5284.44
689.41	5274.2
689.599	5040.73
689.789	5272.15
689.979	5106.27
690.168	5139.04
690.358	5016.16
690.547	5053.02
690.737	5157.47
690.926	4991.58
691.116	4856.42
691.305	5040.73
691.495	5005.92
691.684	4887.14
691.874	5014.11
692.063	4883.04
692.252	4815.46
692.442	4745.83
692.631	4735.59
692.82	4731.49
693.01	4784.74
693.199	4688.48
693.388	4651.62
693.578	4553.32
693.767	4725.35
693.956	4448.87
694.146	4596.32
694.335	4508.26
694.524	4545.13
694.713	4557.41
694.902	4506.21
695.092	4430.44
695.281	4428.39
695.47	4424.3
695.659	4498.02
695.848	4387.43
696.037	4264.55
696.226	4369
696.415	4188.78
696.604	4330.09
696.793	4143.72
696.982	4174.44
697.171	4262.51
697.36	4207.21
697.549	4188.78
697.738	4115.05
697.927	4176.49
698.116	4119.15
698.305	4149.87
698.494	4078.19
698.683	3979.89
698.872	4063.85
699.061	3996.27
699.25	3992.17
699.438	3916.4
699.627	3945.07
699.816	3924.59
700.005	4035.18
700.193	3910.25
700.382	3938.93
700.571	3936.88
700.76	3834.48
700.948	3879.54
701.137	3832.43
701.326	3854.96
701.514	3848.82
701.703	3764.85
701.892	3842.67
702.08	3736.18
702.269	3760.75
702.457	3758.71
702.646	3857.01
702.834	3666.55
703.023	3652.21
703.212	3770.99
703.4	3752.56
703.589	3637.88
703.777	3682.93
703.965	3680.88
704.154	3699.31
704.342	3521.14
704.531	3539.57
704.719	3582.58
704.907	3730.03
705.096	3570.29
705.284	3601.01
705.472	3519.09
705.661	3486.33
705.849	3494.52
706.037	3705.46
706.226	3541.62
706.414	3431.03
706.602	3596.92
706.79	3588.72
706.979	3373.69
707.167	3521.14
707.355	3359.35
707.543	3353.21
707.731	3543.67
707.919	3527.28
708.107	3457.65
708.296	3318.39
708.484	3345.02
708.672	3527.28
708.86	3318.39
709.048	3400.31
709.236	3328.63
709.424	3342.97
709.612	3308.15
709.8	3422.84
709.988	3324.54
710.176	3259
710.364	3304.06
710.551	3256.95
710.739	3177.08
710.927	3232.38
711.115	3306.1
711.303	3277.43
711.491	3201.66
711.679	3209.85
711.866	3172.99
712.054	3261.05
712.242	3234.43
712.43	3162.75
712.617	3297.91
712.805	3177.08
712.993	3232.38
713.181	3125.88
713.368	3273.34
713.556	3150.46
713.744	3068.54
713.931	3238.52
714.119	3146.36
714.306	3052.16
714.494	3121.79
714.682	3189.37
714.869	3048.06
715.057	3136.12
715.244	3123.84
715.432	3179.13
715.619	2978.43
715.807	3117.69
715.994	3189.37
716.182	2966.14
716.369	3037.82
716.556	3125.88
716.744	3080.83
716.931	3058.3
717.119	3019.39
717.306	3011.2
717.493	3107.45
717.681	3003
717.868	3066.49
718.055	3125.88
718.242	3015.29
718.43	3080.83
718.617	2976.38
718.804	3027.58
718.991	2927.23
719.179	2816.64
719.366	2990.72
719.553	3017.34
719.74	2933.37
719.927	2970.24
720.114	3113.6
720.301	3082.88
720.488	2996.86
720.676	3046.01
720.863	2986.62
721.05	3029.63
721.237	3013.24
721.424	2837.12
721.611	2964.09
721.798	2937.47
721.985	2937.47
722.172	3095.16
722.358	2970.24
722.545	2816.64
722.732	2898.56
722.919	3019.39
723.106	3037.82
723.293	2888.32
723.48	2912.89
723.667	2939.52
723.853	2947.71
724.04	2892.41
724.227	2966.14
724.414	2906.75
724.6	2980.48
724.787	2966.14
724.974	3017.34
725.161	2925.18
725.347	2902.65
725.534	2869.89
725.72	2878.08
725.907	2927.23
726.094	2871.93
726.28	2931.33
726.467	2841.22
726.653	2894.46
726.84	2992.76
727.027	2972.29
727.213	2873.98
727.4	2972.29
727.586	2937.47
727.773	3039.87
727.959	2804.35
728.145	2998.91
728.332	3052.16
728.518	2916.99
728.705	2955.9
728.891	2914.94
729.077	2957.95
729.264	2884.22
729.45	2947.71
729.636	3035.77
729.823	2960
730.009	2960
730.195	2841.22
730.382	2951.81
730.568	2935.42
730.754	3033.72
730.94	2855.55
731.126	2996.86
731.313	3066.49
731.499	2986.62
731.685	3005.05
731.871	2923.13
732.057	2994.81
732.243	3029.63
732.429	3021.44
732.615	2916.99
732.801	3015.29
732.987	3019.39
733.173	3095.16
733.359	2980.48
733.545	3101.31
733.731	2931.33
733.917	2962.05
734.103	3127.93
734.289	3023.48
734.475	2833.02
734.661	3035.77
734.847	3084.92
735.033	3043.96
735.219	3019.39
735.404	3046.01
735.59	2953.85
735.776	2878.08
735.962	3031.68
736.148	3029.63
736.333	3048.06
736.519	3035.77
736.705	2970.24
736.89	2970.24
737.076	2966.14
737.262	2927.23
737.447	2908.8
737.633	2890.37
737.819	3123.84
738.004	2867.84
738.19	3086.97
738.375	2960
738.561	3000.96
738.747	3078.78
738.932	3064.44
739.118	2990.72
739.303	3111.55
739.489	3095.16
739.674	2916.99
739.859	3052.16
740.045	3011.2
740.23	3031.68
740.416	2927.23
740.601	3029.63
740.786	2980.48
740.972	2992.76
741.157	2892.41
741.342	2986.62
741.528	2941.57
741.713	3021.44
741.898	2900.61
742.084	2945.66
742.269	3095.16
742.454	2919.04
742.639	2980.48
742.824	2974.33
743.01	3058.3
743.195	2960
743.38	2933.37
743.565	3015.29
743.75	2898.56
743.935	2861.69
744.12	2916.99
744.305	2912.89
744.49	2787.97
744.675	2845.31
744.86	2857.6
745.045	2888.32
745.23	2861.69
745.415	2884.22
745.6	2845.31
745.785	2949.76
745.97	2841.22
746.155	2916.99
746.34	2851.46
746.525	2734.72
746.71	2830.98
746.895	2650.75
747.079	2656.9
747.264	2749.06
747.449	2740.86
747.634	2693.76
747.819	2777.73
748.003	2798.21
748.188	2753.15
748.373	2665.09
748.557	2712.19
748.742	2738.82
748.927	2656.9
749.111	2587.27
749.296	2704
749.481	2636.42
749.665	2722.43
749.85	2521.73
750.034	2628.23
750.219	2630.27
750.404	2538.12
750.588	2613.89
750.773	2556.55
750.957	2409.09
751.141	2585.22
751.326	2529.92
751.51	2505.35
751.695	2343.56
751.879	2599.55
752.064	2468.48
752.248	2380.42
752.432	2540.16
752.617	2415.24
752.801	2413.19
752.985	2349.7
753.17	2388.61
753.354	2341.51
753.538	2327.18
753.722	2308.74
753.907	2259.59
754.091	2302.6
754.275	2439.81
754.459	2351.75
754.643	2278.02
754.828	2376.33
755.012	2300.55
755.196	2288.26
755.38	2306.7
755.564	2216.58
755.748	2157.19
755.932	2165.39
756.116	2196.11
756.3	2132.62
756.484	2187.91
756.668	2038.41
756.852	2052.75
757.036	2108.04
757.22	2083.47
757.404	2040.46
757.588	2048.65
757.772	2019.98
757.956	2069.13
758.14	2036.36
758.323	1993.36
758.507	2028.17
758.691	1981.07
758.875	2060.94
759.059	2071.18
759.242	1933.97
759.426	1888.91
759.61	1983.12
759.794	1864.33
759.977	1983.12
760.161	1956.49
760.345	2048.65
760.528	1878.67
760.712	1876.62
760.895	1929.87
761.079	1893.01
761.263	1854.09
761.446	1905.29
761.63	1919.63
761.813	1858.19
761.997	1847.95
762.18	1790.61
762.364	1751.7
762.547	1700.5
762.731	1782.42
762.914	1733.26
763.098	1821.33
763.281	1782.42
763.464	1761.94
763.648	1735.31
763.831	1737.36
764.015	1694.35
764.198	1696.4
764.381	1606.29
764.564	1602.19
764.748	1680.02
764.931	1761.94
765.114	1778.32
765.297	1733.26
765.481	1692.3
765.664	1561.23
765.847	1606.29
766.03	1723.02
766.213	1718.93
766.397	1710.74
766.58	1706.64
766.763	1671.83
766.946	1692.3
767.129	1639.06
767.312	1553.04
767.495	1634.96
767.678	1632.91
767.861	1616.53
768.044	1524.37
768.227	1610.39
768.41	1514.13
768.593	1573.52
768.776	1551
768.959	1759.89
769.142	1571.47
769.324	1540.76
769.507	1542.8
769.69	1467.03
769.873	1475.22
770.056	1530.52
770.239	1596.05
770.421	1460.88
770.604	1489.56
770.787	1413.78
770.97	1551
771.152	1491.6
771.335	1534.61
771.518	1452.69
771.7	1393.3
771.883	1507.99
772.066	1446.55
772.248	1421.97
772.431	1438.36
772.613	1454.74
772.796	1358.49
772.978	1342.1
773.161	1430.16
773.343	1356.44
773.526	1280.66
773.708	1376.92
773.891	1278.62
774.073	1288.85
774.256	1309.33
774.438	1372.82
774.621	1331.86
774.803	1270.42
774.985	1264.28
775.168	1315.48
775.35	1309.33
775.532	1303.19
775.715	1290.9
775.897	1266.33
776.079	1211.03
776.261	1290.9
776.444	1254.04
776.626	1182.36
776.808	1182.36
776.99	1190.55
777.173	1157.79
777.355	1151.64
777.537	1198.74
777.719	1213.08
777.901	1180.31
778.083	1065.63
778.265	1108.63
778.447	1088.15
778.629	1112.73
778.811	1188.5
778.993	1106.59
779.175	1090.2
779.357	1127.07
779.539	1104.54
779.721	1170.07
779.903	1047.19
780.085	987.8
780.267	1082.01
780.449	912.03
780.631	1075.87
780.812	1026.71
780.994	1079.96
781.176	1034.91
781.358	1014.43
781.54	950.94
781.721	1049.24
781.903	938.65
782.085	909.98
782.267	885.41
782.448	959.13
782.63	885.41
782.812	889.5
782.993	1016.48
783.175	893.6
783.357	860.83
783.538	907.93
783.72	826.01
783.901	811.68
784.083	807.58
784.264	883.36
784.446	776.86
784.627	817.82
784.809	852.64
784.99	817.82
785.172	737.95
785.353	713.38
785.535	770.72
785.716	721.57
785.897	756.38
786.079	830.11
786.26	862.88
786.441	707.23
786.623	725.66
786.804	723.62
786.985	756.38
787.167	768.67
787.348	742.05
787.529	713.38
787.71	780.96
787.891	797.34
788.073	658.08
788.254	668.32
788.435	742.05
788.616	727.71
788.797	633.5
788.978	660.13
789.159	570.02
789.34	676.51
789.522	727.71
789.703	680.61
789.884	678.56
790.065	582.31
790.246	793.25
790.427	715.42
790.607	696.99
790.788	604.83
790.969	619.17
791.15	596.64
791.331	643.74
791.512	584.35
791.693	584.35
791.874	572.07
792.054	598.69
792.235	567.97
792.416	535.2
792.597	529.06
792.778	711.33
792.958	592.55
793.139	565.92
793.32	594.59
793.5	455.33
793.681	520.87
793.862	553.63
794.042	627.36
794.223	529.06
794.404	502.43
794.584	473.76
794.765	514.72
794.945	492.2
795.126	527.01
795.306	479.91
795.487	508.58
795.667	455.33
795.848	555.68
796.028	498.34
796.209	598.69
796.389	537.25
796.57	547.49
796.75	473.76
796.93	406.18
797.111	414.37
797.291	490.15
797.471	514.72
797.652	477.86
797.832	404.13
798.012	533.15
798.192	516.77
798.373	473.76
798.553	422.56
798.733	500.39
798.913	535.2
799.093	488.1
799.274	367.27
799.454	432.8
799.634	580.26
799.814	459.43
799.994	447.14
800.174	455.33
800.354	430.76
800.534	441
800.714	275.11
800.894	381.6
801.074	461.48
801.254	424.61
801.434	404.13
801.614	416.42
801.794	361.13
801.974	979.61
802.154	471.72
802.334	441
802.514	410.28
802.693	350.89
802.873	375.46
803.053	387.75
803.233	412.32
803.413	338.6
803.592	363.17
803.772	348.84
803.952	445.09
804.131	264.87
804.311	342.69
804.491	393.89
804.67	307.88
804.85	326.31
805.03	350.89
805.209	422.56
805.389	357.03
805.568	393.89
805.748	291.49
805.928	301.73
806.107	389.8
806.287	408.23
806.466	328.36
806.646	393.89
806.825	281.25
807.004	344.74
807.184	246.44
807.363	387.75
807.543	326.31
807.722	371.37
807.901	367.27
808.081	303.78
808.26	266.92
808.439	371.37
808.619	281.25
808.798	289.45
808.977	289.45
809.156	328.36
809.336	246.44
809.515	371.37
809.694	283.3
809.873	350.89
810.052	275.11
810.231	330.41
810.411	166.57
810.59	293.54
810.769	256.68
810.948	244.39
811.127	260.77
811.306	275.11
811.485	264.87
811.664	295.59
811.843	291.49
812.022	361.13
812.201	234.15
812.38	266.92
812.559	279.21
812.737	238.25
812.916	215.72
813.095	248.49
813.274	297.64
813.453	252.58
813.632	279.21
813.811	256.68
813.989	252.58
814.168	242.34
814.347	271.01
814.526	209.58
814.704	277.16
814.883	271.01
815.062	189.1
815.24	273.06
815.419	187.05
815.598	330.41
815.776	209.58
815.955	225.96
816.133	223.91
816.312	240.3
816.49	176.81
816.669	260.77
816.847	232.1
817.026	258.73
817.204	219.82
817.383	203.43
817.561	191.14
817.74	221.86
817.918	246.44
818.097	182.95
818.275	158.38
818.453	299.69
818.632	279.21
818.81	219.82
818.988	246.44
819.167	193.19
819.345	299.69
819.523	236.2
819.701	221.86
819.879	215.72
820.058	209.58
820.236	187.05
820.414	203.43
820.592	180.9
820.77	244.39
820.948	256.68
821.127	221.86
821.305	225.96
821.483	234.15
821.661	168.62
821.839	244.39
822.017	193.19
822.195	168.62
822.373	178.86
822.551	164.52
822.729	244.39
822.907	197.29
823.085	289.45
823.262	94.89
823.44	172.71
823.618	193.19
823.796	230.06
823.974	164.52
824.152	195.24
824.329	103.08
824.507	162.47
824.685	154.28
824.863	197.29
825.04	219.82
825.218	228.01
825.396	256.68
825.574	70.31
825.751	144.04
825.929	199.34
826.107	158.38
826.284	221.86
826.462	154.28
826.639	111.27
826.817	94.89
826.994	170.66
827.172	129.7
827.349	246.44
827.527	166.57
827.704	82.6
827.882	148.14
828.059	105.13
828.237	127.66
828.414	121.51
828.591	107.18
828.769	174.76
828.946	127.66
829.124	228.01
829.301	146.09
829.478	111.27
829.655	168.62
829.833	152.23
830.01	117.42
830.187	131.75
830.364	172.71
830.542	178.86
830.719	246.44
830.896	129.7
831.073	115.37
831.25	158.38
831.427	205.48
831.604	148.14
831.782	133.8
831.959	111.27
832.136	103.08
832.313	185
832.49	86.7
832.667	150.18
832.844	117.42
833.021	135.85
833.198	119.46
833.374	152.23
833.551	113.32
833.728	90.79
833.905	193.19
834.082	84.65
834.259	131.75
834.436	221.86
834.612	158.38
834.789	137.9
834.966	66.22
835.143	162.47
835.319	156.33
835.496	92.84
835.673	82.6
835.85	148.14
836.026	137.9
836.203	107.18
836.38	107.18
836.556	82.6
836.733	15.02
836.909	217.77
837.086	98.99
837.262	101.03
837.439	82.6
837.616	8.87
837.792	101.03
837.968	70.31
838.145	55.98
838.321	133.8
838.498	178.86
838.674	127.66
838.851	152.23
839.027	-17.75
839.203	64.17
839.38	144.04
839.556	53.93
839.732	88.75
839.909	29.35
840.085	125.61
840.261	33.45
840.437	88.75
840.614	152.23
840.79	162.47
840.966	109.23
841.142	92.84
841.318	64.17
841.494	88.75
841.671	88.75
841.847	137.9
842.023	68.27
842.199	105.13
842.375	88.75
842.551	78.51
842.727	49.83
842.903	162.47
843.079	45.74
843.255	107.18
843.431	29.35
843.607	64.17
843.783	-34.13
843.959	131.75
844.134	29.35
844.31	150.18
844.486	10.92
844.662	35.5
844.838	68.27
845.013	55.98
845.189	137.9
845.365	76.46
845.541	115.37
845.716	55.98
845.892	80.55
846.068	53.93
846.244	72.36
846.419	58.03
846.595	96.94
846.77	64.17
846.946	98.99
847.122	21.16
847.297	109.23
847.473	111.27
847.648	23.21
847.824	74.41
847.999	-15.7
848.175	96.94
848.35	4.78
848.526	113.32
848.701	66.22
848.876	117.42
849.052	88.75
849.227	10.92
849.403	27.31
849.578	60.07
849.753	80.55
849.929	51.88
850.104	-3.41
850.279	47.79
850.454	41.64
850.63	90.79
850.805	41.64
850.98	-1.37
851.155	74.41
851.33	96.94
851.505	53.93
851.681	70.31
851.856	29.35
852.031	35.5
852.206	103.08
852.381	0.68
852.556	74.41
852.731	86.7
852.906	39.59
853.081	90.79
853.256	92.84
853.431	101.03
853.606	41.64
853.781	21.16
853.956	58.03
854.131	41.64
854.305	86.7
854.48	39.59
854.655	45.74
854.83	64.17
855.005	62.12
855.18	64.17
855.354	-1.37
855.529	4.78
855.704	51.88
855.879	98.99
856.053	4.78
856.228	51.88
856.403	23.21
856.577	72.36
856.752	6.83
856.926	27.31
857.101	78.51
857.276	53.93
857.45	53.93
857.625	109.23
857.799	49.83
857.974	117.42
858.148	41.64
858.323	53.93
858.497	-9.56
858.672	62.12
858.846	19.11
859.02	90.79
859.195	21.16
859.369	90.79
859.543	55.98
859.718	12.97
859.892	115.37
860.066	72.36
860.241	-27.99
860.415	-36.18
860.589	0.68
860.763	66.22
860.938	43.69
861.112	45.74
861.286	64.17
861.46	45.74
861.634	2.73
861.808	43.69
861.982	31.4
862.157	51.88
862.331	66.22
862.505	-11.61
862.679	-23.89
862.853	-19.8
863.027	-30.04
863.201	55.98
863.375	62.12
863.549	47.79
863.722	8.87
863.896	66.22
864.07	33.45
864.244	12.97
864.418	82.6
864.592	23.21
864.766	-1.37
864.939	103.08
865.113	-83.28
865.287	29.35
865.461	-1.37
865.634	41.64
865.808	-42.32
865.982	-11.61
866.156	-23.89
866.329	-64.85
866.503	0.68
866.676	15.02
866.85	45.74
867.024	29.35
867.197	45.74
867.371	49.83
867.544	68.27
867.718	27.31
867.891	64.17
868.065	-15.7
868.238	4.78
868.412	-27.99
868.585	6.83
868.759	2.73
868.932	6.83
869.105	10.92
869.279	51.88
869.452	15.02
869.625	45.74
869.799	72.36
869.972	-60.76
870.145	31.4
870.319	76.46
870.492	41.64
870.665	58.03
870.838	-15.7
871.011	-15.7
871.185	88.75
871.358	0.68
871.531	121.51
871.704	66.22
871.877	4.78
872.05	19.11
872.223	-27.99
872.396	62.12
872.569	23.21
872.742	-34.13
872.915	98.99
873.088	-44.37
873.261	15.02
873.434	96.94
873.607	29.35
873.78	80.55
873.953	-44.37
874.126	47.79
874.299	58.03
874.471	-36.18
874.644	-11.61
874.817	88.75
874.99	23.21
875.163	-15.7
875.335	51.88
875.508	53.93
875.681	33.45
875.853	25.26
876.026	19.11
876.199	-11.61
876.371	33.45
876.544	12.97
876.717	19.11
876.889	23.21
877.062	51.88
877.234	68.27
877.407	15.02
877.579	-27.99
877.752	45.74
877.924	17.07
878.097	43.69
878.269	-38.23
878.442	8.87
878.614	45.74
878.786	29.35
878.959	33.45
879.131	19.11
879.303	10.92
879.476	4.78
879.648	88.75
879.82	-19.8
879.993	107.18
880.165	-17.75
880.337	10.92
880.509	-3.41
880.681	8.87
880.854	-54.61
881.026	-5.46
881.198	82.6
881.37	49.83
881.542	-19.8
881.714	23.21
881.886	2.73
882.058	68.27
882.23	19.11
882.402	4.78
882.574	8.87
882.746	80.55
882.918	60.07
883.09	4.78
883.262	12.97
883.434	19.11
883.606	-48.47
883.778	33.45
883.95	111.27
884.122	-44.37
884.293	66.22
884.465	-15.7
884.637	17.07
884.809	-30.04
884.98	15.02
885.152	21.16
885.324	35.5
885.496	84.65
885.667	-46.42
885.839	53.93
886.011	23.21
886.182	47.79
886.354	49.83
886.525	8.87
886.697	62.12
886.869	2.73
887.04	-15.7
887.212	43.69
887.383	62.12
887.555	12.97
887.726	-9.56
887.897	-5.46
888.069	72.36
888.24	55.98
888.412	49.83
888.583	23.21
888.754	-19.8
888.926	-5.46
889.097	-5.46
889.268	-17.75
889.44	10.92
889.611	-11.61
889.782	72.36
889.953	-77.14
890.125	-21.85
890.296	-27.99
890.467	31.4
890.638	25.26
890.809	58.03
890.98	88.75
891.151	6.83
891.323	-19.8
891.494	6.83
891.665	10.92
891.836	0.68
892.007	12.97
892.178	39.59
892.349	-19.8
892.52	4.78
892.691	27.31
892.862	0.68
893.032	-58.71
893.203	-30.04
893.374	-1.37
893.545	45.74
893.716	-83.28
893.887	33.45
894.057	-15.7
894.228	-7.51
894.399	19.11
894.57	-23.89
894.74	-21.85
894.911	0.68
895.082	25.26
895.253	23.21
895.423	4.78
895.594	-15.7
895.764	17.07
895.935	-1.37
896.106	19.11
896.276	29.35
896.447	-15.7
896.617	-77.14
896.788	-25.94
896.958	96.94
897.129	35.5
897.299	-52.56
897.47	58.03
897.64	-34.13
897.81	33.45
897.981	-13.65
898.151	-44.37
898.322	62.12
898.492	27.31
898.662	64.17
898.832	31.4
899.003	51.88
899.173	10.92
899.343	-7.51
899.513	17.07
