Data from USB4F104151__4__12-40-52-708.txt Node

Date: Fri Mar 14 12:40:52 EDT 2025
User: louis
Spectrometer: USB4F10415
Trigger mode: 4
Integration Time (sec): 3.000000E-2
Scans to average: 1
Electric dark correction enabled: true
Nonlinearity correction enabled: false
Boxcar width: 0
XAxis mode: Wavelengths
Number of Pixels in Spectrum: 3648
>>>>>Begin Spectral Data<<<<<
178.204	-123.56
178.424	-123.56
178.644	-123.56
178.864	-156.33
179.084	-121.51
179.304	36.18
179.524	-4.78
179.744	-64.17
179.964	44.37
180.184	44.37
180.404	40.28
180.624	-55.98
180.844	-43.69
181.064	-33.45
181.283	-19.11
181.503	66.9
181.723	-10.92
181.943	-8.87
182.163	71
182.383	56.66
182.602	85.33
182.822	105.81
183.042	11.61
183.262	-19.11
183.482	34.13
183.701	19.8
183.921	23.89
184.141	111.96
184.361	87.38
184.58	23.89
184.8	50.52
185.02	73.04
185.239	25.94
185.459	15.7
185.679	56.66
185.898	44.37
186.118	95.57
186.338	-10.92
186.557	46.42
186.777	3.41
186.997	107.86
187.216	64.85
187.436	91.48
187.655	101.72
187.875	42.32
188.095	17.75
188.314	36.18
188.534	107.86
188.753	13.65
188.973	50.52
189.192	136.53
189.412	60.76
189.631	-0.68
189.851	73.04
190.07	95.57
190.29	-66.22
190.509	93.52
190.729	27.99
190.948	93.52
191.168	99.67
191.387	54.61
191.607	62.8
191.826	60.76
192.045	-0.68
192.265	52.56
192.484	11.61
192.704	15.7
192.923	-8.87
193.142	101.72
193.362	36.18
193.581	36.18
193.8	81.24
194.02	3.41
194.239	54.61
194.458	44.37
194.678	-0.68
194.897	-2.73
195.116	60.76
195.335	27.99
195.555	91.48
195.774	42.32
195.993	13.65
196.212	71
196.432	56.66
196.651	91.48
196.87	-33.45
197.089	114
197.308	21.84
197.528	48.47
197.747	-21.16
197.966	58.71
198.185	46.42
198.404	15.7
198.623	19.8
198.842	73.04
199.062	114
199.281	71
199.5	89.43
199.719	1.37
199.938	48.47
200.157	124.24
200.376	60.76
200.595	52.56
200.814	83.28
201.033	3.41
201.252	101.72
201.471	-6.83
201.69	134.48
201.909	27.99
202.128	62.8
202.347	56.66
202.566	40.28
202.785	-15.02
203.004	54.61
203.223	148.82
203.442	71
203.661	13.65
203.879	83.28
204.098	3.41
204.317	-0.68
204.536	1.37
204.755	9.56
204.974	87.38
205.193	36.18
205.411	38.23
205.63	52.56
205.849	79.19
206.068	75.09
206.287	52.56
206.505	79.19
206.724	97.62
206.943	58.71
207.162	58.71
207.381	66.9
207.599	66.9
207.818	58.71
208.037	19.8
208.255	11.61
208.474	-2.73
208.693	79.19
208.911	46.42
209.13	75.09
209.349	77.14
209.567	83.28
209.786	109.91
210.005	46.42
210.223	99.67
210.442	13.65
210.661	50.52
210.879	34.13
211.098	75.09
211.316	23.89
211.535	42.32
211.753	11.61
211.972	73.04
212.191	40.28
212.409	87.38
212.628	73.04
212.846	27.99
213.065	-8.87
213.283	101.72
213.502	30.04
213.72	-27.31
213.938	87.38
214.157	42.32
214.375	101.72
214.594	-6.83
214.812	75.09
215.031	83.28
215.249	75.09
215.467	68.95
215.686	46.42
215.904	83.28
216.122	36.18
216.341	81.24
216.559	-8.87
216.778	58.71
216.996	23.89
217.214	-10.92
217.432	-6.83
217.651	83.28
217.869	44.37
218.087	103.76
218.306	62.8
218.524	89.43
218.742	36.18
218.96	38.23
219.179	13.65
219.397	3.41
219.615	79.19
219.833	56.66
220.051	13.65
220.27	34.13
220.488	25.94
220.706	81.24
220.924	62.8
221.142	91.48
221.36	-12.97
221.578	42.32
221.796	27.99
222.015	13.65
222.233	103.76
222.451	93.52
222.669	-6.83
222.887	103.76
223.105	42.32
223.323	56.66
223.541	36.18
223.759	87.38
223.977	-0.68
224.195	17.75
224.413	46.42
224.631	81.24
224.849	58.71
225.067	128.34
225.285	60.76
225.503	23.89
225.721	50.52
225.939	99.67
226.157	40.28
226.375	142.68
226.592	64.85
226.81	52.56
227.028	56.66
227.246	120.15
227.464	21.84
227.682	105.81
227.9	134.48
228.117	79.19
228.335	44.37
228.553	50.52
228.771	30.04
228.989	95.57
229.206	27.99
229.424	7.51
229.642	50.52
229.86	23.89
230.077	97.62
230.295	83.28
230.513	107.86
230.731	44.37
230.948	95.57
231.166	144.72
231.384	44.37
231.601	9.56
231.819	52.56
232.037	-0.68
232.254	-0.68
232.472	83.28
232.689	30.04
232.907	58.71
233.125	25.94
233.342	34.13
233.56	-31.4
233.777	54.61
233.995	48.47
234.213	85.33
234.43	87.38
234.648	-35.5
234.865	23.89
235.083	66.9
235.3	48.47
235.518	54.61
235.735	38.23
235.953	169.3
236.17	13.65
236.388	1.37
236.605	21.84
236.822	75.09
237.04	87.38
237.257	15.7
237.475	50.52
237.692	40.28
237.909	-33.45
238.127	21.84
238.344	50.52
238.562	58.71
238.779	75.09
238.996	-33.45
239.214	60.76
239.431	95.57
239.648	38.23
239.865	56.66
240.083	103.76
240.3	60.76
240.517	46.42
240.735	13.65
240.952	114
241.169	-6.83
241.386	97.62
241.603	54.61
241.821	25.94
242.038	89.43
242.255	-17.07
242.472	32.08
242.689	36.18
242.907	3.41
243.124	85.33
243.341	19.8
243.558	-12.97
243.775	36.18
243.992	40.28
244.209	56.66
244.426	60.76
244.643	21.84
244.86	19.8
245.078	60.76
245.295	68.95
245.512	66.9
245.729	-53.93
245.946	21.84
246.163	48.47
246.38	42.32
246.597	64.85
246.814	95.57
247.031	-27.31
247.248	34.13
247.464	60.76
247.681	136.53
247.898	81.24
248.115	105.81
248.332	71
248.549	126.29
248.766	34.13
248.983	91.48
249.2	11.61
249.417	93.52
249.633	27.99
249.85	95.57
250.067	36.18
250.284	48.47
250.501	40.28
250.717	36.18
250.934	11.61
251.151	25.94
251.368	17.75
251.585	71
251.801	-39.59
252.018	85.33
252.235	89.43
252.451	1.37
252.668	1.37
252.885	52.56
253.102	36.18
253.318	17.75
253.535	1.37
253.752	30.04
253.968	56.66
254.185	-10.92
254.401	81.24
254.618	120.15
254.835	44.37
255.051	107.86
255.268	62.8
255.484	60.76
255.701	19.8
255.917	124.24
256.134	60.76
256.351	25.94
256.567	-43.69
256.784	56.66
257	60.76
257.217	46.42
257.433	73.04
257.65	60.76
257.866	101.72
258.082	77.14
258.299	60.76
258.515	103.76
258.732	75.09
258.948	-6.83
259.165	118.1
259.381	-39.59
259.597	118.1
259.814	60.76
260.03	15.7
260.246	77.14
260.463	91.48
260.679	142.68
260.895	9.56
261.112	62.8
261.328	-0.68
261.544	25.94
261.761	159.06
261.977	25.94
262.193	17.75
262.409	36.18
262.626	85.33
262.842	109.91
263.058	56.66
263.274	13.65
263.49	79.19
263.707	120.15
263.923	40.28
264.139	-8.87
264.355	15.7
264.571	85.33
264.787	5.46
265.004	73.04
265.22	97.62
265.436	44.37
265.652	66.9
265.868	120.15
266.084	38.23
266.3	64.85
266.516	13.65
266.732	48.47
266.948	62.8
267.164	13.65
267.38	144.72
267.596	97.62
267.812	66.9
268.028	30.04
268.244	50.52
268.46	66.9
268.676	36.18
268.892	44.37
269.108	83.28
269.324	73.04
269.54	-12.97
269.756	23.89
269.972	46.42
270.188	21.84
270.403	-8.87
270.619	56.66
270.835	44.37
271.051	5.46
271.267	38.23
271.483	85.33
271.698	44.37
271.914	54.61
272.13	13.65
272.346	44.37
272.562	38.23
272.777	75.09
272.993	23.89
273.209	32.08
273.425	48.47
273.64	91.48
273.856	17.75
274.072	79.19
274.287	34.13
274.503	71
274.719	64.85
274.934	1.37
275.15	-4.78
275.366	48.47
275.581	42.32
275.797	25.94
276.012	114
276.228	44.37
276.444	32.08
276.659	5.46
276.875	60.76
277.09	42.32
277.306	101.72
277.521	107.86
277.737	68.95
277.952	30.04
278.168	79.19
278.383	19.8
278.599	30.04
278.814	114
279.03	-0.68
279.245	101.72
279.461	40.28
279.676	116.05
279.892	-17.07
280.107	38.23
280.322	23.89
280.538	116.05
280.753	-6.83
280.969	111.96
281.184	62.8
281.399	71
281.615	-10.92
281.83	36.18
282.045	-17.07
282.26	-43.69
282.476	1.37
282.691	152.91
282.906	25.94
283.122	124.24
283.337	30.04
283.552	3.41
283.767	21.84
283.983	87.38
284.198	11.61
284.413	-0.68
284.628	56.66
284.843	68.95
285.058	48.47
285.274	66.9
285.489	27.99
285.704	87.38
285.919	-4.78
286.134	34.13
286.349	58.71
286.564	19.8
286.779	93.52
286.995	40.28
287.21	-10.92
287.425	77.14
287.64	19.8
287.855	40.28
288.07	15.7
288.285	68.95
288.5	32.08
288.715	77.14
288.93	48.47
289.145	107.86
289.36	52.56
289.575	25.94
289.79	54.61
290.004	-4.78
290.219	122.2
290.434	42.32
290.649	-23.21
290.864	134.48
291.079	83.28
291.294	60.76
291.509	58.71
291.724	25.94
291.938	138.58
292.153	68.95
292.368	-8.87
292.583	77.14
292.798	89.43
293.012	77.14
293.227	-8.87
293.442	60.76
293.657	91.48
293.871	99.67
294.086	77.14
294.301	62.8
294.516	126.29
294.73	75.09
294.945	1.37
295.16	1.37
295.374	52.56
295.589	73.04
295.804	7.51
296.018	116.05
296.233	103.76
296.447	134.48
296.662	-10.92
296.877	66.9
297.091	64.85
297.306	105.81
297.52	1.37
297.735	75.09
297.949	-25.26
298.164	79.19
298.378	23.89
298.593	85.33
298.807	-4.78
299.022	46.42
299.236	93.52
299.451	27.99
299.665	1.37
299.88	21.84
300.094	111.96
300.309	30.04
300.523	99.67
300.737	50.52
300.952	15.7
301.166	48.47
301.381	50.52
301.595	89.43
301.809	79.19
302.024	50.52
302.238	-39.59
302.452	54.61
302.667	36.18
302.881	58.71
303.095	52.56
303.309	99.67
303.524	19.8
303.738	75.09
303.952	-23.21
304.166	103.76
304.381	34.13
304.595	66.9
304.809	-15.02
305.023	71
305.237	11.61
305.452	1.37
305.666	27.99
305.88	146.77
306.094	95.57
306.308	62.8
306.522	27.99
306.736	-35.5
306.95	19.8
307.164	34.13
307.379	58.71
307.593	114
307.807	81.24
308.021	177.49
308.235	81.24
308.449	-27.31
308.663	64.85
308.877	52.56
309.091	93.52
309.305	71
309.519	13.65
309.733	126.29
309.947	-6.83
310.161	38.23
310.374	152.91
310.588	134.48
310.802	87.38
311.016	85.33
311.23	75.09
311.444	-31.4
311.658	30.04
311.872	101.72
312.085	167.25
312.299	-4.78
312.513	54.61
312.727	116.05
312.941	27.99
313.154	58.71
313.368	60.76
313.582	54.61
313.796	46.42
314.009	75.09
314.223	71
314.437	25.94
314.651	116.05
314.864	107.86
315.078	109.91
315.292	25.94
315.505	81.24
315.719	177.49
315.933	7.51
316.146	46.42
316.36	107.86
316.573	122.2
316.787	95.57
317.001	17.75
317.214	34.13
317.428	111.96
317.641	9.56
317.855	52.56
318.068	79.19
318.282	93.52
318.495	97.62
318.709	91.48
318.922	54.61
319.136	83.28
319.349	89.43
319.563	60.76
319.776	21.84
319.99	-8.87
320.203	15.7
320.417	44.37
320.63	13.65
320.843	38.23
321.057	83.28
321.27	58.71
321.483	-27.31
321.697	77.14
321.91	77.14
322.124	46.42
322.337	11.61
322.55	77.14
322.763	38.23
322.977	48.47
323.19	124.24
323.403	136.53
323.617	87.38
323.83	42.32
324.043	107.86
324.256	91.48
324.469	62.8
324.683	163.15
324.896	34.13
325.109	107.86
325.322	-72.36
325.535	91.48
325.748	130.39
325.962	52.56
326.175	60.76
326.388	103.76
326.601	105.81
326.814	3.41
327.027	7.51
327.24	103.76
327.453	-58.03
327.666	60.76
327.879	85.33
328.092	103.76
328.305	60.76
328.518	54.61
328.731	103.76
328.944	46.42
329.157	91.48
329.37	66.9
329.583	68.95
329.796	146.77
330.009	38.23
330.222	107.86
330.435	87.38
330.648	-15.02
330.861	42.32
331.073	68.95
331.286	126.29
331.499	34.13
331.712	50.52
331.925	71
332.138	60.76
332.35	111.96
332.563	23.89
332.776	73.04
332.989	54.61
333.202	87.38
333.414	54.61
333.627	68.95
333.84	48.47
334.053	54.61
334.265	60.76
334.478	58.71
334.691	48.47
334.903	95.57
335.116	34.13
335.329	64.85
335.541	93.52
335.754	105.81
335.966	38.23
336.179	118.1
336.392	85.33
336.604	15.7
336.817	34.13
337.029	42.32
337.242	23.89
337.454	77.14
337.667	126.29
337.88	114
338.092	81.24
338.305	42.32
338.517	32.08
338.729	34.13
338.942	73.04
339.154	79.19
339.367	-0.68
339.579	75.09
339.792	-15.02
340.004	1.37
340.217	48.47
340.429	36.18
340.641	62.8
340.854	68.95
341.066	79.19
341.278	157.01
341.491	97.62
341.703	38.23
341.915	-0.68
342.128	122.2
342.34	105.81
342.552	60.76
342.764	101.72
342.977	62.8
343.189	19.8
343.401	83.28
343.613	5.46
343.826	64.85
344.038	11.61
344.25	114
344.462	7.51
344.674	93.52
344.886	19.8
345.099	132.44
345.311	30.04
345.523	13.65
345.735	11.61
345.947	171.35
346.159	136.53
346.371	46.42
346.583	30.04
346.795	66.9
347.007	89.43
347.219	27.99
347.431	87.38
347.643	114
347.855	54.61
348.067	50.52
348.279	-33.45
348.491	169.3
348.703	89.43
348.915	118.1
349.127	-49.83
349.339	58.71
349.551	34.13
349.763	111.96
349.975	66.9
350.187	93.52
350.399	136.53
350.61	38.23
350.822	25.94
351.034	52.56
351.246	62.8
351.458	54.61
351.669	27.99
351.881	50.52
352.093	103.76
352.305	52.56
352.517	81.24
352.728	154.96
352.94	81.24
353.152	34.13
353.363	34.13
353.575	5.46
353.787	89.43
353.999	136.53
354.21	152.91
354.422	27.99
354.633	50.52
354.845	54.61
355.057	75.09
355.268	17.75
355.48	77.14
355.692	11.61
355.903	54.61
356.115	27.99
356.326	30.04
356.538	81.24
356.749	107.86
356.961	154.96
357.172	17.75
357.384	46.42
357.595	107.86
357.807	62.8
358.018	-80.55
358.23	103.76
358.441	95.57
358.653	79.19
358.864	52.56
359.075	68.95
359.287	75.09
359.498	128.34
359.709	23.89
359.921	91.48
360.132	46.42
360.344	19.8
360.555	71
360.766	54.61
360.977	81.24
361.189	142.68
361.4	25.94
361.611	103.76
361.823	140.63
362.034	97.62
362.245	79.19
362.456	52.56
362.667	36.18
362.879	7.51
363.09	32.08
363.301	68.95
363.512	13.65
363.723	25.94
363.935	101.72
364.146	146.77
364.357	97.62
364.568	66.9
364.779	89.43
364.99	66.9
365.201	15.7
365.412	134.48
365.623	56.66
365.834	56.66
366.045	89.43
366.256	111.96
366.467	111.96
366.678	66.9
366.889	109.91
367.1	105.81
367.311	171.35
367.522	87.38
367.733	77.14
367.944	83.28
368.155	-21.16
368.366	99.67
368.577	62.8
368.788	93.52
368.999	52.56
369.209	68.95
369.42	146.77
369.631	99.67
369.842	169.3
370.053	116.05
370.264	9.56
370.474	58.71
370.685	9.56
370.896	105.81
371.107	95.57
371.317	116.05
371.528	73.04
371.739	130.39
371.95	95.57
372.16	85.33
372.371	79.19
372.582	77.14
372.792	75.09
373.003	48.47
373.214	62.8
373.424	134.48
373.635	44.37
373.846	111.96
374.056	81.24
374.267	34.13
374.477	107.86
374.688	27.99
374.898	-25.26
375.109	64.85
375.319	68.95
375.53	105.81
375.74	183.63
375.951	7.51
376.161	48.47
376.372	105.81
376.582	7.51
376.793	118.1
377.003	50.52
377.214	42.32
377.424	132.44
377.635	91.48
377.845	130.39
378.055	132.44
378.266	15.7
378.476	101.72
378.686	36.18
378.897	50.52
379.107	97.62
379.317	114
379.528	42.32
379.738	81.24
379.948	83.28
380.158	44.37
380.369	107.86
380.579	128.34
380.789	89.43
380.999	50.52
381.21	58.71
381.42	89.43
381.63	132.44
381.84	71
382.05	42.32
382.261	165.2
382.471	85.33
382.681	42.32
382.891	97.62
383.101	9.56
383.311	58.71
383.521	62.8
383.731	109.91
383.941	144.72
384.151	118.1
384.361	60.76
384.571	19.8
384.781	89.43
384.991	161.11
385.201	99.67
385.411	107.86
385.621	66.9
385.831	17.75
386.041	95.57
386.251	142.68
386.461	103.76
386.671	42.32
386.881	99.67
387.091	87.38
387.301	60.76
387.511	71
387.72	140.63
387.93	64.85
388.14	58.71
388.35	62.8
388.56	116.05
388.769	109.91
388.979	120.15
389.189	68.95
389.399	71
389.609	122.2
389.818	150.87
390.028	122.2
390.238	56.66
390.447	40.28
390.657	148.82
390.867	44.37
391.076	60.76
391.286	103.76
391.496	77.14
391.705	114
391.915	126.29
392.125	136.53
392.334	50.52
392.544	89.43
392.753	101.72
392.963	150.87
393.172	87.38
393.382	58.71
393.591	138.58
393.801	71
394.01	165.2
394.22	187.73
394.429	85.33
394.639	103.76
394.848	146.77
395.058	118.1
395.267	58.71
395.477	130.39
395.686	159.06
395.895	165.2
396.105	175.44
396.314	99.67
396.524	154.96
396.733	200.02
396.942	195.92
397.152	118.1
397.361	173.39
397.57	103.76
397.78	120.15
397.989	146.77
398.198	218.45
398.407	154.96
398.617	50.52
398.826	124.24
399.035	114
399.244	85.33
399.453	171.35
399.663	103.76
399.872	54.61
400.081	114
400.29	187.73
400.499	191.83
400.708	226.64
400.917	167.25
401.127	167.25
401.336	202.07
401.545	202.07
401.754	167.25
401.963	255.31
402.172	218.45
402.381	218.45
402.59	159.06
402.799	261.46
403.008	290.13
403.217	175.44
403.426	134.48
403.635	222.55
403.844	130.39
404.053	187.73
404.262	163.15
404.471	224.59
404.68	234.83
404.888	185.68
405.097	197.97
405.306	234.83
405.515	216.4
405.724	216.4
405.933	390.48
406.142	224.59
406.35	316.75
406.559	259.41
406.768	224.59
406.977	331.09
407.185	290.13
407.394	306.51
407.603	218.45
407.812	292.18
408.02	382.29
408.229	304.46
408.438	294.22
408.646	271.7
408.855	349.52
409.064	451.92
409.272	357.71
409.481	281.94
409.69	374.1
409.898	388.43
410.107	386.38
410.315	410.96
410.524	396.62
410.733	505.17
410.941	445.77
411.15	470.35
411.358	472.4
411.567	539.98
411.775	562.51
411.984	566.6
412.192	617.8
412.401	552.27
412.609	574.8
412.818	671.05
413.026	615.76
413.234	650.57
413.443	669
413.651	755.02
413.86	732.49
414.068	773.45
414.276	855.37
414.485	732.49
414.693	853.32
414.901	908.62
415.11	970.05
415.318	927.05
415.526	957.77
415.734	1060.17
415.943	1101.12
416.151	1097.03
416.359	1109.32
416.567	1168.71
416.776	1144.13
416.984	1314.11
417.192	1371.46
417.4	1297.73
417.608	1307.97
417.817	1396.03
418.025	1404.22
418.233	1539.39
418.441	1523.01
418.649	1512.77
418.857	1619.26
419.065	1664.32
419.273	1606.97
419.481	1801.53
419.689	1846.59
419.897	1944.89
420.105	1932.6
420.313	2121.01
420.521	2078.01
420.729	2147.64
420.937	2252.08
421.145	2334
421.353	2323.76
421.561	2481.46
421.769	2626.86
421.977	2739.5
422.185	2639.15
422.393	2759.98
422.601	3009.83
422.809	3005.74
423.017	2889
423.224	3188
423.432	3339.55
423.64	3413.28
423.848	3550.5
424.056	3474.72
424.263	3802.4
424.471	3675.42
424.679	3935.51
424.887	3931.42
425.094	4244.76
425.302	4121.88
425.51	4420.88
425.718	4437.27
425.925	4541.71
426.133	4750.6
426.341	4988.17
426.548	5149.96
426.756	5149.96
426.964	5430.53
427.171	5553.41
427.379	5795.07
427.586	5735.68
427.794	6006.01
428.001	6257.91
428.209	6567.15
428.417	6532.34
428.624	6894.83
428.832	7001.32
429.039	7054.57
429.247	6857.96
429.454	7668.96
429.662	7998.68
429.869	7646.43
430.076	8232.15
430.284	7740.64
430.491	8279.25
430.699	8738
430.906	8555.73
431.114	8828.11
431.321	8959.18
431.528	9293
431.736	9727.17
431.943	9999.55
432.15	10013.88
432.358	10142.91
432.565	10560.69
432.772	10521.78
432.979	11011.25
433.187	11287.72
433.394	11416.74
433.601	12145.82
433.808	12448.92
434.016	11988.13
434.223	12596.37
434.43	13253.77
434.637	13202.57
434.844	13870.21
435.052	14306.43
435.259	14257.28
435.466	13933.7
435.673	14017.66
435.88	15010.93
436.087	15772.77
436.294	15559.78
436.501	15385.71
436.708	15826.02
436.915	16421.98
437.122	17384.52
437.329	16919.64
437.537	17843.27
437.743	18107.46
437.95	17728.58
438.157	18644.02
438.364	19082.29
438.571	19319.85
438.778	19346.48
438.985	21124.11
439.192	20548.64
439.399	20816.92
439.606	20345.89
439.813	21511.18
440.02	23223.28
440.227	22633.47
440.433	22383.62
440.64	23141.36
440.847	22961.14
441.054	23604.21
441.261	25121.75
441.467	24468.45
441.674	25338.83
441.881	26223.56
442.088	26184.65
442.294	25938.89
442.501	26848.19
442.708	27270.07
442.914	28115.88
443.121	29365.14
443.328	28697.5
443.534	30573.44
443.741	29729.68
443.948	29336.47
444.154	31632.24
444.361	31226.74
444.568	31622
444.774	31615.86
444.981	32052.08
445.187	32670.56
445.394	34220.88
445.6	33862.48
445.807	36967.2
446.013	35038.01
446.22	36352.81
446.426	37630.74
446.633	37788.44
446.839	39375.61
447.046	37608.22
447.252	39731.96
447.459	39525.11
447.665	39389.95
447.871	40934.12
448.078	42887.88
448.284	40841.96
448.491	42091.22
448.697	43723.45
448.903	44360.37
449.11	44501.68
449.316	43627.2
449.522	44735.15
449.728	46248.6
449.935	46158.49
450.141	45980.31
450.347	47088.26
450.553	45691.55
450.76	46404.24
450.966	47757.95
451.172	47747.71
451.378	48384.63
451.584	47274.63
451.791	48788.08
451.997	48724.59
452.203	48976.49
452.409	49429.09
452.615	49099.37
452.821	47493.76
453.027	46940.81
453.233	49455.71
453.44	47481.47
453.646	48032.38
453.852	47913.59
454.058	49316.45
454.264	47540.86
454.47	48638.58
454.676	47256.2
454.882	48910.96
455.088	44874.41
455.294	45693.6
455.5	46162.58
455.705	46441.1
455.911	44794.54
456.117	43909.82
456.323	43229.89
456.529	41476.83
456.735	42826.44
456.941	41810.65
457.147	41190.11
457.352	39719.67
457.558	39430.91
457.764	39564.03
457.97	38912.77
458.176	37929.75
458.381	38183.69
458.587	36160.3
458.793	36240.17
458.999	34448.2
459.204	36655.91
459.41	35687.22
459.616	33620.82
459.821	33440.6
460.027	33438.55
460.233	32570.21
460.438	31265.66
460.644	31826.8
460.85	30092.17
461.055	29508.5
461.261	29391.76
461.466	27378.61
461.672	26348.48
461.878	28249
462.083	26418.11
462.289	26061.77
462.494	25500.62
462.7	24454.11
462.905	23825.39
463.111	24667.1
463.316	25076.69
463.522	24597.47
463.727	24374.24
463.932	24464.35
464.138	23985.13
464.343	24138.72
464.549	23352.3
464.754	24230.88
464.959	23968.74
465.165	23444.46
465.37	22809.59
465.575	22230.02
465.781	23155.7
465.986	23247.86
466.191	22541.31
466.397	21998.6
466.602	20835.35
466.807	21648.39
467.012	21851.14
467.218	21629.96
467.423	21447.69
467.628	21406.73
467.833	22406.14
468.038	21601.29
468.244	20898.84
468.449	21693.45
468.654	20972.57
468.859	20884.5
469.064	20798.49
469.269	19997.73
469.474	19893.29
469.679	20657.18
469.885	20147.23
470.09	20462.62
470.295	20171.81
470.5	19684.39
470.705	20055.08
470.91	19473.45
471.115	18824.25
471.32	19438.64
471.525	19424.3
471.73	19008.56
471.935	18791.48
472.139	18009.15
472.344	18611.26
472.549	18594.87
472.754	17935.43
472.959	17710.15
473.164	17321.04
473.369	17200.21
473.574	17667.14
473.778	17540.17
473.983	17570.89
474.188	17421.39
474.393	16661.59
474.598	16567.38
474.802	16471.13
475.007	16303.2
475.212	16444.51
475.417	15811.68
475.621	15916.13
475.826	15582.31
476.031	15684.71
476.235	15066.22
476.44	15494.25
476.645	14986.35
476.849	15404.14
477.054	14963.82
477.259	14814.32
477.463	14756.98
477.668	14429.31
477.872	14587
478.077	14417.02
478.282	13927.55
478.486	13853.83
478.691	13714.56
478.895	13776
479.1	13677.7
479.304	13821.06
479.509	13403.27
479.713	13560.97
479.918	13089.93
480.122	12956.82
480.326	13309.07
480.531	13307.02
480.735	13048.97
480.94	13034.64
481.144	13317.26
481.348	12577.94
481.553	12819.6
481.757	12430.49
481.961	13087.89
482.166	12774.55
482.37	12848.27
482.574	12436.63
482.778	12821.65
482.983	13026.45
483.187	12747.92
483.391	12870.8
483.595	12852.37
483.8	12745.87
484.004	12743.83
484.208	12782.74
484.412	12571.8
484.616	12565.65
484.821	12653.72
485.025	12446.87
485.229	12563.61
485.433	12508.31
485.637	12729.49
485.841	12549.27
486.045	12577.94
486.249	12778.64
486.453	12412.06
486.657	12567.7
486.861	12848.27
487.065	12240.03
487.269	12672.15
487.473	12416.15
487.677	12864.66
487.881	12770.45
488.085	12670.1
488.289	12684.44
488.493	12561.56
488.697	12784.79
488.901	12616.85
489.105	12571.8
489.309	12739.73
489.512	12915.86
489.716	12668.05
489.92	12883.09
490.124	12713.11
490.328	13116.56
490.531	12899.47
490.735	13063.31
490.939	12874.9
491.143	13180.04
491.346	13067.41
491.55	13221
491.754	13061.26
491.958	13157.52
492.161	13288.59
492.365	13294.73
492.569	13071.5
492.772	13386.89
492.976	13466.76
493.18	13421.7
493.383	13638.79
493.587	13573.25
493.79	13884.55
493.994	13849.73
494.197	13902.98
494.401	14183.55
494.605	14054.53
494.808	14220.41
495.012	14150.78
495.215	14218.36
495.419	14347.39
495.622	14578.81
495.825	14630.01
496.029	14709.88
496.232	15160.43
496.436	14816.37
496.639	15191.15
496.843	15422.57
497.046	15479.91
497.249	15299.69
497.453	15756.39
497.656	15916.13
497.859	15760.48
498.063	16032.86
498.266	16514.14
498.469	16626.78
498.673	16432.22
498.876	16983.12
499.079	17001.55
499.282	16776.28
499.485	17542.22
499.689	17282.13
499.892	17519.69
500.095	17704.01
500.298	18191.42
500.501	17947.72
500.705	18449.47
500.908	18502.71
501.111	18689.08
501.314	18912.31
501.517	19459.12
501.72	19655.72
501.923	19424.3
502.126	19883.05
502.329	20048.93
502.532	20261.92
502.735	20220.96
502.938	20601.88
503.141	20841.5
503.344	21070.87
503.547	20927.51
503.75	21404.69
503.953	21734.41
504.156	21963.78
504.359	22301.7
504.562	22086.66
504.765	22627.32
504.968	22721.53
505.17	23071.73
505.373	23122.93
505.576	23530.48
505.779	23950.31
505.982	24108.01
506.185	24230.88
506.387	24189.92
506.59	24581.09
506.793	25035.74
506.996	24728.54
507.198	25662.41
507.401	25586.64
507.604	25951.18
507.807	26407.87
508.009	26592.19
508.212	26850.24
508.415	26850.24
508.617	27220.92
508.82	27462.58
509.022	27655.09
509.225	27972.52
509.428	28199.85
509.63	28840.86
509.833	28554.15
510.035	28937.12
510.238	28957.6
510.44	29735.82
510.643	30081.93
510.845	30045.07
511.048	29651.86
511.25	30575.49
511.453	30856.06
511.655	31591.28
511.858	31343.48
512.06	31306.62
512.262	32275.3
512.465	31912.81
512.667	32574.31
512.87	32684.9
513.072	32846.69
513.274	33260.38
513.477	33563.48
513.679	34206.54
513.881	34532.17
514.084	34214.73
514.286	34722.63
514.488	35038.01
514.69	36238.12
514.893	35928.88
515.095	35857.2
515.297	36260.65
515.499	36668.2
515.701	37133.09
515.904	37298.97
516.106	37600.02
516.308	38136.59
516.51	38306.57
516.712	38150.93
516.914	39123.71
517.116	39418.62
517.318	39158.53
517.52	39684.86
517.722	39643.9
517.925	40313.58
518.127	40739.56
518.329	40422.12
518.531	40618.73
518.733	41243.36
518.935	42062.55
519.136	41521.88
519.338	42259.15
519.54	42771.14
519.742	42859.21
519.944	42601.16
520.146	43748.03
520.348	43768.51
520.55	44241.59
520.752	44126.9
520.954	44534.45
521.155	44733.1
521.357	45234.85
521.559	45464.22
521.761	46068.37
521.963	45972.12
522.164	46242.45
522.366	45986.46
522.568	46613.13
522.77	47264.39
522.971	47710.85
523.173	47127.17
523.375	48018.04
523.576	47544.96
523.778	47739.52
523.98	48575.09
524.181	48939.63
524.383	48712.3
524.584	49175.14
524.786	49101.42
524.988	49359.46
525.189	49347.17
525.391	49633.89
525.592	50154.07
525.794	50367.06
525.995	50059.87
526.197	50561.62
526.398	50860.62
526.6	50901.58
526.801	50598.48
527.003	51038.79
527.204	51239.5
527.406	51321.41
527.607	51530.31
527.808	51651.14
528.01	51081.8
528.211	51626.56
528.412	52361.78
528.614	51894.85
528.815	52105.79
529.016	52728.37
529.218	52335.16
529.419	52683.31
529.62	52722.22
529.822	52455.99
530.023	52791.86
530.224	52924.97
530.425	52849.2
530.626	52824.62
530.828	51978.81
531.029	53445.16
531.23	52836.91
531.431	53088.81
531.632	53117.48
531.833	53187.11
532.035	53242.41
532.236	53508.64
532.437	53389.86
532.638	53006.89
532.839	53484.07
533.04	53887.52
533.241	53271.08
533.442	53994.01
533.643	53879.33
533.844	53418.53
534.045	53932.57
534.246	53568.04
534.447	54094.36
534.648	53535.27
534.849	53451.3
535.05	52986.41
535.251	53652
535.451	53703.2
535.652	53815.84
535.853	53932.57
536.054	53596.71
536.255	53948.96
536.456	53391.91
536.657	54506.01
536.857	53398.05
537.058	53469.73
537.259	53881.38
537.46	54069.79
537.66	53879.33
537.861	53783.07
538.062	53697.06
538.263	53723.68
538.463	53498.4
538.664	53817.89
538.865	54180.38
539.065	54110.75
539.266	53445.16
539.466	54202.91
539.667	53314.09
539.868	54065.69
540.068	53766.69
540.269	53170.73
540.469	54174.23
540.67	53625.38
540.87	53375.53
541.071	54010.4
541.271	53590.56
541.472	53627.43
541.672	53305.9
541.873	53535.27
542.073	52613.68
542.274	53989.92
542.474	53156.39
542.675	53174.83
542.875	54065.69
543.075	53805.6
543.276	52978.22
543.476	54030.88
543.676	53502.5
543.877	53803.55
544.077	53766.69
544.277	53666.34
544.478	53174.83
544.678	53514.79
544.878	53428.77
545.078	53332.52
545.279	53441.06
545.479	52988.46
545.679	53295.66
545.879	53281.32
546.079	53428.77
546.28	53551.65
546.48	52685.36
546.68	53719.59
546.88	53619.24
547.08	53633.57
547.28	53228.07
547.48	53383.72
547.68	53707.3
547.88	52972.08
548.081	53316.14
548.281	53144.11
548.481	52982.32
548.681	53463.59
548.881	53525.03
549.081	52929.07
549.28	53180.97
549.48	53836.32
549.68	52929.07
549.88	53797.41
550.08	52476.47
550.28	53336.62
550.48	53027.37
550.68	53670.43
550.88	53070.38
551.08	53166.63
551.279	53068.33
551.479	53072.43
551.679	52986.41
551.879	52970.03
552.079	53490.21
552.278	52953.65
552.478	53228.07
552.678	53211.69
552.878	53248.55
553.077	53023.28
553.277	52711.99
553.477	53664.29
553.676	52675.12
553.876	53113.39
554.076	52810.29
554.275	52660.79
554.475	52439.61
554.674	53076.52
554.874	53019.18
555.074	52820.53
555.273	53355.05
555.473	53013.04
555.672	52449.85
555.872	52699.7
556.071	52734.51
556.271	52935.21
556.47	52505.14
556.67	52703.79
556.869	52367.93
557.068	52849.2
557.268	52433.46
557.467	52341.3
557.667	52396.6
557.866	52517.43
558.065	52378.17
558.265	51970.62
558.464	52191.8
558.663	52474.42
558.863	51634.75
559.062	52236.86
559.261	51814.97
559.461	52576.82
559.66	51999.29
559.859	51739.2
560.058	51659.33
560.258	52202.04
560.457	51550.79
560.656	51952.19
560.855	51522.12
561.054	51511.88
561.253	51466.82
561.453	51536.45
561.652	51710.53
561.851	51831.36
562.05	51481.16
562.249	51423.81
562.448	51515.97
562.647	51247.69
562.846	51323.46
563.045	51259.98
563.244	51063.37
563.443	51675.71
563.642	50952.78
563.841	51126.86
564.04	50704.98
564.239	51229.26
564.438	50723.41
564.637	51143.24
564.836	51008.07
565.035	50477.65
565.234	51133
565.432	50721.36
565.631	50639.44
565.83	50471.51
566.029	50324.05
566.228	50416.21
566.427	50487.89
566.625	50037.34
566.824	49846.88
567.023	50602.58
567.222	49547.87
567.42	50428.5
567.619	50018.91
567.818	49936.99
568.016	49789.53
568.215	50201.18
568.414	49476.19
568.612	50100.82
568.811	49480.29
569.01	49738.33
569.208	48990.83
569.407	49939.04
569.605	48913
569.804	49687.14
570.002	49025.64
570.201	49046.12
570.4	49146.47
570.598	48556.66
570.797	48931.43
570.995	48777.84
571.193	48321.14
571.392	49240.68
571.59	48364.15
571.789	48677.49
571.987	48564.85
572.186	47886.97
572.384	47944.31
572.582	48401.01
572.781	48214.65
572.979	47653.5
573.177	48220.79
573.376	48071.29
573.574	47798.91
573.772	48128.63
573.971	47219.33
574.169	47676.03
574.367	47104.65
574.565	47151.75
574.763	47116.93
574.962	47315.59
575.16	46957.19
575.358	47049.35
575.556	46543.5
575.754	47413.89
575.952	46596.75
576.151	47309.44
576.349	46250.64
576.547	46840.46
576.745	46482.06
576.943	46709.39
577.141	46209.68
577.339	46647.95
577.537	46318.23
577.735	46142.1
577.933	45918.87
578.131	46062.23
578.329	45808.28
578.527	45634.21
578.725	45492.9
578.923	45675.16
579.121	45050.53
579.319	45142.69
579.516	45408.93
579.714	45400.74
579.912	45071.01
580.11	44845.74
580.308	45148.84
580.506	44817.07
580.704	44544.69
580.901	44597.93
581.099	44743.34
581.297	44563.12
581.495	44206.77
581.692	44479.15
581.89	44329.65
582.088	44085.94
582.285	43952.82
582.483	44171.96
582.681	44143.28
582.878	43809.46
583.076	43576
583.274	43944.63
583.471	43346.62
583.669	43561.66
583.866	43205.31
584.064	43907.77
584.262	43094.72
584.459	43557.56
584.657	43107.01
584.854	43154.11
585.052	42635.98
585.249	42824.39
585.447	43168.45
585.644	42046.16
585.841	42443.47
586.039	43215.55
586.236	42318.54
586.434	42353.36
586.631	42025.68
586.828	41898.71
587.026	42320.59
587.223	41923.29
587.42	41781.98
587.618	41771.74
587.815	41190.11
588.012	41188.06
588.21	41452.25
588.407	41716.44
588.604	41214.69
588.801	41054.95
588.999	40624.87
589.196	40594.15
589.393	40956.64
589.59	40669.93
589.787	40600.3
589.984	40413.93
590.182	40293.1
590.379	40409.84
590.576	39971.57
590.773	39973.62
590.97	39998.19
591.167	39987.96
591.364	39658.23
591.561	39942.9
591.758	39047.94
591.955	39596.79
592.152	39297.79
592.349	38994.69
592.546	39404.28
592.743	39443.2
592.94	38662.92
593.137	38908.68
593.334	38923.01
593.531	38552.33
593.727	38628.1
593.924	38837
594.121	38220.56
594.318	38415.12
594.515	38222.61
594.712	38527.75
594.908	37929.75
595.105	38251.28
595.302	37696.28
595.499	38075.15
595.696	37573.4
595.892	37573.4
596.089	37755.67
596.286	37511.96
596.482	37616.41
596.679	37245.72
596.876	37505.82
597.072	37085.98
597.269	36983.58
597.466	36700.97
597.662	36668.2
597.859	36897.57
598.055	36455.21
598.252	36332.33
598.448	36270.89
598.645	36064.05
598.841	35449.66
599.038	35920.69
599.234	35967.79
599.431	35543.86
599.627	35697.46
599.824	35986.22
600.02	35162.94
600.217	35724.08
600.413	35304.25
600.609	35220.28
600.806	35195.71
601.002	35328.83
601.198	35115.84
601.395	34650.95
601.591	35099.45
601.787	34874.18
601.984	34366.28
602.18	34831.17
602.376	34591.56
602.572	34468.68
602.769	34294.6
602.965	34261.83
603.161	34327.37
603.357	33981.26
603.553	33864.53
603.75	34018.13
603.946	33483.61
604.142	33676.12
604.338	33276.76
604.534	33622.87
604.73	33162.08
604.926	33399.64
605.122	33254.23
605.318	33268.57
605.514	32916.32
605.71	32865.12
605.906	32861.02
606.102	32897.89
606.298	32639.84
606.494	32629.6
606.69	33002.33
606.886	32668.51
607.082	32029.55
607.278	32691.04
607.474	31796.08
607.67	32510.82
607.866	32136.04
608.062	32467.81
608.257	32277.35
608.453	32179.05
608.649	32207.72
608.845	31650.67
609.041	31845.23
609.236	31892.33
609.432	31914.86
609.628	31841.14
609.824	31814.51
610.019	31294.33
610.215	31716.21
610.411	31732.59
610.606	31447.93
610.802	31200.12
610.998	31425.4
611.193	31351.67
611.389	31308.66
611.584	30964.6
611.78	30753.66
611.976	31150.97
612.171	31093.63
612.367	30843.77
612.562	30804.86
612.758	30542.72
612.953	30589.83
613.149	30677.89
613.344	30096.27
613.539	31067
613.735	30577.54
613.93	30770.05
614.126	30352.26
614.321	30800.77
614.517	30391.17
614.712	30614.4
614.907	30249.86
615.103	30296.97
615.298	30243.72
615.493	30487.43
615.688	29723.54
615.884	30641.03
616.079	29889.42
616.274	30090.12
616.47	30342.02
616.665	30014.35
616.86	29619.09
617.055	29655.95
617.25	29891.47
617.445	29735.82
617.641	29127.58
617.836	29766.54
618.031	29098.91
618.226	29565.84
618.421	28859.29
618.616	29025.18
618.811	28879.77
619.006	29438.87
619.201	28697.5
619.396	28849.05
619.591	28449.7
619.786	28613.54
619.981	28212.13
620.176	28490.66
620.371	28007.34
620.566	28443.56
620.761	28107.69
620.956	28152.74
621.151	27595.7
621.346	27767.73
621.541	27569.07
621.735	27472.82
621.93	27268.02
622.125	27466.67
622.32	26801.08
622.515	27251.64
622.709	26747.84
622.904	26833.85
623.099	26547.14
623.294	26774.46
623.488	26422.21
623.683	26602.43
623.878	26024.9
624.072	26217.41
624.267	26033.1
624.462	25566.16
624.656	25695.18
624.851	25422.8
625.046	25365.46
625.24	25283.54
625.435	24880.09
625.629	24996.82
625.824	24867.8
626.018	24425.44
626.213	24230.88
626.407	24456.16
626.602	24210.4
626.796	24599.52
626.991	24130.53
627.185	23839.72
627.38	23997.42
627.574	23393.26
627.768	23589.87
627.963	23346.16
628.157	23194.61
628.352	23008.25
628.546	22895.61
628.74	23258.1
628.935	22950.9
629.129	22623.23
629.323	22365.18
629.517	22520.83
629.712	22406.14
629.906	22352.9
630.1	21994.5
630.294	22340.61
630.489	22010.89
630.683	21939.21
630.877	21472.27
631.071	21314.58
631.265	21801.99
631.459	21431.31
631.653	21388.3
631.848	21246.99
632.042	20970.52
632.236	21271.57
632.43	20898.84
632.624	20890.65
632.818	20888.6
633.012	20507.68
633.206	20386.85
633.4	20349.98
633.594	20304.93
633.788	20134.95
633.982	19999.78
634.176	20001.83
634.369	19964.96
634.563	19807.27
634.757	19614.76
634.951	19608.62
635.145	19475.5
635.339	19655.72
635.533	19293.23
635.726	19141.68
635.92	18930.74
636.114	19135.54
636.308	18988.08
636.501	18897.97
636.695	19072.05
636.889	18725.94
637.083	18592.83
637.276	18658.36
637.47	18269.25
637.664	18527.29
637.857	18263.1
638.051	18224.19
638.244	18226.24
638.438	17966.15
638.632	17923.14
638.825	17747.01
639.019	17863.75
639.212	17495.11
639.406	17511.5
639.599	17425.48
639.793	17278.03
639.986	17157.2
640.18	17390.67
640.373	17288.27
640.567	16852.05
640.76	17372.24
640.954	16655.45
641.147	16776.28
641.34	16532.57
641.534	16585.82
641.727	16350.3
641.92	16600.15
642.114	16374.88
642.307	16290.91
642.5	16405.59
642.694	16059.49
642.887	15860.84
643.08	16170.08
643.273	15780.96
643.467	15639.65
643.66	15776.87
643.853	15488.11
644.046	15615.08
644.239	15465.58
644.432	15393.9
644.626	15367.27
644.819	15262.83
645.012	15127.66
645.205	15381.61
645.398	14898.29
645.591	14898.29
645.784	14812.28
645.977	14617.72
646.17	14783.6
646.363	14423.16
646.556	14472.31
646.749	14394.49
646.942	14654.58
647.135	14302.33
647.328	14161.02
647.521	14279.8
647.714	13900.93
647.907	13909.12
648.099	14036.1
648.292	14093.44
648.485	13855.87
648.678	13698.18
648.871	13661.32
649.064	13581.45
649.256	13528.2
649.449	13487.24
649.642	13173.9
649.835	13352.07
650.027	13163.66
650.22	13231.24
650.413	13051.02
650.605	13022.35
650.798	12893.33
650.991	12567.7
651.183	13067.41
651.376	12770.45
651.568	12694.68
651.761	12741.78
651.954	12584.09
652.146	12450.97
652.339	12594.33
652.531	12594.33
652.724	12182.68
652.916	12035.23
653.109	12438.68
653.301	12199.07
653.494	12082.33
653.686	11775.14
653.879	12104.86
654.071	11740.32
654.263	11809.95
654.456	11795.62
654.648	11986.08
654.84	11617.44
655.033	11580.58
655.225	11623.59
655.417	11560.1
655.61	11490.47
655.802	11320.49
655.994	11287.72
656.186	11300.01
656.379	11160.75
656.571	11170.99
656.763	11025.58
656.955	10888.37
657.148	11033.77
657.34	10976.43
657.532	11052.2
657.724	10710.19
657.916	10908.85
658.108	10738.87
658.3	10493.11
658.492	10546.36
658.684	10423.48
658.876	10419.38
659.068	10527.92
659.26	10314.94
659.452	10546.36
659.644	10304.7
659.836	10179.77
660.028	10060.99
660.22	10044.6
660.412	10077.37
660.604	9979.07
660.796	10011.84
660.988	9952.45
661.18	9860.29
661.372	9663.68
661.563	9878.72
661.755	9815.23
661.947	9725.12
662.139	9512.13
662.331	9583.81
662.522	9602.24
662.714	9174.22
662.906	9407.69
663.097	9409.73
663.289	9184.46
663.481	9198.79
663.673	9157.83
663.864	9077.96
664.056	9245.9
664.247	9350.34
664.439	9133.26
664.631	9022.67
664.822	9104.59
665.014	9051.34
665.205	8819.92
665.397	8731.86
665.588	8934.6
665.78	8852.69
665.971	8776.91
666.163	8729.81
666.354	8666.32
666.546	8651.99
666.737	8598.74
666.929	8357.08
667.12	8457.43
667.311	8406.23
667.503	8246.49
667.694	8373.46
667.885	8416.47
668.077	8365.27
668.268	8338.65
668.459	8113.37
668.651	8195.29
668.842	8039.64
669.033	8119.51
669.224	7902.43
669.416	8051.93
669.607	7918.81
669.798	8088.79
669.989	8072.41
670.18	7810.27
670.371	7791.84
670.563	7677.15
670.754	7869.66
670.945	7886.04
671.136	7691.49
671.327	7505.12
671.518	7658.72
671.709	7677.15
671.9	7615.71
672.091	7660.77
672.282	7636.19
672.473	7482.6
672.664	7521.51
672.855	7455.97
673.046	7347.43
673.237	7380.2
673.428	7310.57
673.619	7535.84
673.809	7132.39
674	7261.41
674.191	7296.23
674.382	7027.95
674.573	7226.6
674.764	7118.06
674.954	7161.06
675.145	7159.02
675.336	7105.77
675.527	6968.55
675.717	7109.86
675.908	6864.11
676.099	7007.47
676.289	6874.35
676.48	6927.6
676.671	6874.35
676.861	7175.4
677.052	6868.2
677.243	6659.31
677.433	6862.06
677.624	6673.65
677.814	6735.09
678.005	6788.33
678.195	6591.73
678.386	6778.09
678.576	6581.49
678.767	6440.18
678.957	6651.12
679.148	6823.15
679.338	6554.87
679.529	6481.14
679.719	6354.16
679.909	6497.52
680.1	6225.14
680.29	6440.18
680.481	6569.2
680.671	6429.94
680.861	6315.25
681.052	6497.52
681.242	6343.92
681.432	6319.35
681.622	6294.77
681.813	6294.77
682.003	6272.25
682.193	6178.04
682.383	6288.63
682.573	6249.72
682.764	6200.57
682.954	6194.42
683.144	6182.13
683.334	6110.46
683.524	6028.54
683.714	6092.02
683.904	6051.06
684.094	6151.42
684.284	6071.54
684.474	6204.66
684.664	6100.22
684.854	5969.15
685.044	5993.72
685.234	5815.55
685.424	5891.32
685.614	5782.78
685.804	5936.38
685.994	5889.28
686.184	5854.46
686.374	5811.45
686.564	5711.1
686.753	5838.08
686.943	5711.1
687.133	5659.9
687.323	5664
687.513	5610.75
687.702	5580.03
687.892	5512.45
688.082	5563.65
688.272	5532.93
688.461	5690.62
688.651	5512.45
688.841	5371.14
689.03	5528.83
689.22	5410.05
689.41	5571.84
689.599	5375.24
689.789	5432.58
689.979	5360.9
690.168	5229.83
690.358	5342.47
690.547	5158.15
690.737	5233.93
690.926	5240.07
691.116	5149.96
691.305	5184.77
691.495	5008.65
691.684	5109
691.874	5192.97
692.063	4926.73
692.252	5029.13
692.442	5092.62
692.631	4965.64
692.82	4896.01
693.01	4951.31
693.199	4959.5
693.388	4754.7
693.578	4842.76
693.767	4816.14
693.956	4676.88
694.146	4650.25
694.335	4756.75
694.524	4775.18
694.713	4947.21
694.902	4793.61
695.092	4662.54
695.281	4693.26
695.47	4683.02
695.659	4564.24
695.848	4642.06
696.037	4629.77
696.226	4654.35
696.415	4406.55
696.604	4611.34
696.793	4508.94
696.982	4740.36
697.171	4654.35
697.36	4500.75
697.549	4470.03
697.738	4545.81
697.927	4502.8
698.116	4443.41
698.305	4400.4
698.494	4396.31
698.683	4541.71
698.872	4435.22
699.061	4422.93
699.25	4289.81
699.438	4404.5
699.627	4275.48
699.816	4310.29
700.005	4300.05
700.193	4271.38
700.382	4439.31
700.571	4175.13
700.76	4207.89
700.948	4191.51
701.137	4195.61
701.326	4277.52
701.514	4156.69
701.703	4220.18
701.892	4171.03
702.08	4207.89
702.269	4164.89
702.457	4050.2
702.646	4037.91
702.834	4103.45
703.023	3927.32
703.212	4001.05
703.4	4070.68
703.589	4007.19
703.777	4048.15
703.965	3917.08
704.154	4103.45
704.342	3906.84
704.531	4017.43
704.719	3884.31
704.907	3915.03
705.096	3833.11
705.284	4093.21
705.472	4064.54
705.661	3964.18
705.849	3962.14
706.037	3945.75
706.226	3988.76
706.414	3978.52
706.602	3921.18
706.79	4066.58
706.979	3886.36
707.167	3869.98
707.355	3697.95
707.543	3745.05
707.731	3820.83
707.919	3826.97
708.107	3765.53
708.296	3767.58
708.484	3700
708.672	3775.77
708.86	3808.54
709.048	3960.09
709.236	3814.68
709.424	3833.11
709.612	3818.78
709.8	3800.35
709.988	3689.76
710.176	3775.77
710.364	3757.34
710.551	3720.48
710.739	3630.37
710.927	3685.66
711.115	3669.28
711.303	3581.21
711.491	3720.48
711.679	3675.42
711.866	3599.65
712.054	3806.49
712.242	3654.94
712.43	3740.96
712.617	3628.32
712.805	3581.21
712.993	3702.04
713.181	3513.63
713.368	3634.46
713.556	3568.93
713.744	3491.1
713.931	3613.98
714.119	3523.87
714.306	3581.21
714.494	3566.88
714.682	3527.97
714.869	3634.46
715.057	3523.87
715.244	3407.14
715.432	3638.56
715.619	3515.68
715.807	3597.6
715.994	3667.23
716.182	3403.04
716.369	3642.65
716.556	3636.51
716.744	3446.05
716.931	3507.49
717.119	3478.82
717.306	3409.19
717.493	3448.1
717.681	3403.04
717.868	3501.34
718.055	3425.57
718.242	3634.46
718.43	3487.01
718.617	3638.56
718.804	3446.05
718.991	3415.33
719.179	3560.73
719.366	3482.91
719.553	3374.37
719.74	3517.73
719.927	3464.48
720.114	3288.36
720.301	3489.06
720.488	3390.75
720.676	3364.13
720.863	3450.14
721.05	3417.38
721.237	3583.26
721.424	3431.71
721.611	3396.9
721.798	3278.12
721.985	3302.69
722.172	3398.95
722.358	3349.79
722.545	3294.5
722.732	3409.19
722.919	3511.58
723.106	3271.97
723.293	3310.88
723.48	3280.16
723.667	3290.4
723.853	3247.4
724.04	3411.23
724.227	3192.1
724.414	3347.75
724.6	3179.81
724.787	3378.47
724.974	3312.93
725.161	3276.07
725.347	3239.2
725.534	3226.92
725.72	3278.12
725.907	3337.51
726.094	3353.89
726.28	3241.25
726.467	3245.35
726.653	3226.92
726.84	3259.68
727.027	3253.54
727.213	3214.63
727.4	3308.83
727.586	3319.07
727.773	3200.29
727.959	3366.18
728.145	3231.01
728.332	3247.4
728.518	3145
728.705	3403.04
728.891	3241.25
729.077	3321.12
729.264	3263.78
729.45	3226.92
729.636	3228.96
729.823	3329.31
730.009	3327.27
730.195	3292.45
730.382	3298.59
730.568	3282.21
730.754	3452.19
730.94	3271.97
731.126	3290.4
731.313	3216.68
731.499	3173.67
731.685	3175.72
731.871	3368.23
732.057	3392.8
732.243	3239.2
732.429	3171.62
732.615	3245.35
732.801	3276.07
732.987	3241.25
733.173	3392.8
733.359	3261.73
733.545	3296.55
733.731	3265.83
733.917	3261.73
734.103	3296.55
734.289	3237.16
734.475	3163.43
734.661	3345.7
734.847	3239.2
735.033	3245.35
735.219	3259.68
735.404	3220.77
735.59	3271.97
735.776	3085.61
735.962	3349.79
736.148	3310.88
736.333	3286.31
736.519	3245.35
736.705	3233.06
736.89	3159.33
737.076	3114.28
737.262	3032.36
737.447	3194.15
737.633	3220.77
737.819	3280.16
738.004	3116.33
738.19	3220.77
738.375	3271.97
738.561	3267.88
738.747	3192.1
738.932	3130.66
739.118	3251.49
739.303	3153.19
739.489	3294.5
739.674	3159.33
739.859	3218.72
740.045	3142.95
740.23	3065.13
740.416	3112.23
740.601	3165.48
740.786	3218.72
740.972	3079.46
741.157	3081.51
741.342	3114.28
741.528	3073.32
741.713	3212.58
741.898	3130.66
742.084	3212.58
742.269	3173.67
742.454	3091.75
742.639	3222.82
742.824	3122.47
743.01	3101.99
743.195	3052.84
743.38	3145
743.565	3063.08
743.75	3134.76
743.935	3032.36
744.12	3231.01
744.305	2934.06
744.49	2981.16
744.675	2958.63
744.86	2993.45
745.045	3056.93
745.23	3093.8
745.415	2903.34
745.6	2975.02
745.785	2880.81
745.97	2956.58
746.155	2942.25
746.34	2987.3
746.525	2929.96
746.71	2997.54
746.895	2819.37
747.079	2911.53
747.264	2805.03
747.449	2870.57
747.634	2852.14
747.819	2762.03
748.003	2790.7
748.188	2891.05
748.373	2895.15
748.557	2706.73
748.742	2749.74
748.927	2880.81
749.111	2708.78
749.296	2798.89
749.481	2796.84
749.665	2729.26
749.85	2712.88
750.034	2686.25
750.219	2682.16
750.404	2628.91
750.588	2649.39
750.773	2614.57
750.957	2645.29
751.141	2641.2
751.326	2665.77
751.51	2469.17
751.695	2551.09
751.879	2518.32
752.064	2565.42
752.248	2460.98
752.432	2487.6
752.617	2624.81
752.801	2395.44
752.985	2477.36
753.17	2409.78
753.354	2501.94
753.538	2471.22
753.722	2473.26
753.907	2342.19
754.091	2454.83
754.275	2313.52
754.459	2315.57
754.643	2360.63
754.828	2329.91
755.012	2280.75
755.196	2276.66
755.38	2293.04
755.564	2096.44
755.748	2194.74
755.932	2366.77
756.116	2266.42
756.3	2221.36
756.484	2157.88
756.668	2237.75
756.852	2129.2
757.036	2143.54
757.22	2125.11
757.404	2092.34
757.588	2145.59
757.772	2008.37
757.956	1989.94
758.14	2155.83
758.323	2063.67
758.507	2116.92
758.691	2026.81
758.875	1977.66
759.059	1973.56
759.242	2006.33
759.426	1879.35
759.61	2012.47
759.794	1955.13
759.977	1848.63
760.161	2024.76
760.345	1934.65
760.528	1932.6
760.712	2004.28
760.895	1903.93
761.079	1965.37
761.263	1875.26
761.446	1836.35
761.63	1946.94
761.813	1846.59
761.997	1860.92
762.18	1840.44
762.364	1854.78
762.547	1883.45
762.731	1725.75
762.914	1918.26
763.098	1785.15
763.281	1746.23
763.464	1787.19
763.648	1856.82
763.831	1867.06
764.015	1725.75
764.198	1787.19
764.381	1633.6
764.564	1762.62
764.748	1748.28
764.931	1709.37
765.114	1615.16
765.297	1715.52
765.481	1639.74
765.664	1721.66
765.847	1654.08
766.03	1709.37
766.213	1654.08
766.397	1615.16
766.58	1711.42
766.763	1660.22
766.946	1600.83
767.129	1633.6
767.312	1588.54
767.495	1635.64
767.678	1492.29
767.861	1684.8
768.044	1613.12
768.227	1733.95
768.41	1705.28
768.593	1559.87
768.776	1539.39
768.959	1611.07
769.142	1518.91
769.324	1541.44
769.507	1531.2
769.69	1563.97
769.873	1439.04
770.056	1527.1
770.239	1467.71
770.421	1496.38
770.604	1535.29
770.787	1566.01
770.97	1455.42
771.152	1428.8
771.335	1533.25
771.518	1436.99
771.7	1563.97
771.883	1445.18
772.066	1439.04
772.248	1416.51
772.431	1439.04
772.613	1443.14
772.796	1445.18
772.978	1393.98
773.161	1373.5
773.343	1326.4
773.526	1295.68
773.708	1393.98
773.891	1348.93
774.073	1355.07
774.256	1393.98
774.438	1369.41
774.621	1185.09
774.803	1314.11
774.985	1324.35
775.168	1355.07
775.35	1283.39
775.532	1211.71
775.715	1174.85
775.897	1307.97
776.079	1262.91
776.261	1207.62
776.444	1279.3
776.626	1183.04
776.808	1219.91
776.99	1172.8
777.173	1178.95
777.355	1178.95
777.537	1140.04
777.719	1176.9
777.901	1162.56
778.083	1189.19
778.265	1170.76
778.447	1219.91
778.629	1224
778.811	1054.02
778.993	1137.99
779.175	1152.32
779.357	1146.18
779.539	1109.32
779.721	1140.04
779.903	1029.45
780.085	1150.28
780.267	1107.27
780.449	1008.97
780.631	1133.89
780.812	994.63
780.994	1033.54
781.176	1074.5
781.358	1002.82
781.54	955.72
781.721	1049.93
781.903	982.34
782.085	937.29
782.267	968.01
782.448	851.27
782.63	988.49
782.812	867.66
782.993	1035.59
783.175	861.51
783.357	896.33
783.538	855.37
783.72	922.95
783.901	814.41
784.083	867.66
784.264	916.81
784.446	881.99
784.627	841.03
784.809	906.57
784.99	898.38
785.172	896.33
785.353	726.35
785.535	838.98
785.716	759.11
785.897	795.98
786.079	812.36
786.26	769.35
786.441	718.15
786.623	658.76
786.804	800.07
786.985	779.59
787.167	779.59
787.348	726.35
787.529	800.07
787.71	824.65
787.891	781.64
788.073	718.15
788.254	658.76
788.435	736.59
788.616	736.59
788.797	695.63
788.978	589.13
789.159	728.39
789.34	736.59
789.522	726.35
789.703	652.62
789.884	615.76
790.065	683.34
790.246	714.06
790.427	628.04
790.607	638.28
790.788	691.53
790.969	646.48
791.15	732.49
791.331	617.8
791.512	648.52
791.693	654.67
791.874	691.53
792.054	585.04
792.235	687.43
792.416	578.89
792.597	621.9
792.778	597.32
792.958	648.52
793.139	578.89
793.32	615.76
793.5	527.69
793.681	591.18
793.862	601.42
794.042	576.84
794.223	511.31
794.404	548.17
794.584	546.12
794.765	470.35
794.945	542.03
795.126	529.74
795.306	527.69
795.487	574.8
795.667	470.35
795.848	542.03
796.028	515.41
796.209	476.49
796.389	574.8
796.57	484.69
796.75	554.32
796.93	451.92
797.111	509.26
797.291	460.11
797.471	496.97
797.652	472.4
797.832	566.6
798.012	535.89
798.192	470.35
798.373	460.11
798.553	374.1
798.733	490.83
798.913	474.45
799.093	372.05
799.274	462.16
799.454	492.88
799.634	476.49
799.814	515.41
799.994	443.73
800.174	488.78
800.354	398.67
800.534	408.91
800.714	466.25
800.894	415.05
801.074	394.58
801.254	357.71
801.434	408.91
801.614	382.29
801.794	378.19
801.974	1099.08
802.154	437.58
802.334	402.77
802.514	388.43
802.693	380.24
802.873	392.53
803.053	445.77
803.233	367.95
803.413	410.96
803.592	380.24
803.772	382.29
803.952	425.29
804.131	388.43
804.311	417.1
804.491	425.29
804.67	306.51
804.85	378.19
805.03	427.34
805.209	349.52
805.389	359.76
805.568	365.9
805.748	421.2
805.928	333.14
806.107	367.95
806.287	310.61
806.466	349.52
806.646	423.25
806.825	374.1
807.004	392.53
807.184	413.01
807.363	396.62
807.543	273.75
807.722	304.46
807.901	314.7
808.081	349.52
808.26	298.32
808.439	306.51
808.619	326.99
808.798	347.47
808.977	349.52
809.156	439.63
809.336	312.66
809.515	322.9
809.694	347.47
809.873	249.17
810.052	281.94
810.231	318.8
810.411	290.13
810.59	384.34
810.769	296.27
810.948	345.42
811.127	294.22
811.306	265.55
811.485	226.64
811.664	316.75
811.843	286.03
812.022	283.98
812.201	279.89
812.38	310.61
812.559	269.65
812.737	265.55
812.916	314.7
813.095	210.26
813.274	253.27
813.453	372.05
813.632	302.42
813.811	286.03
813.989	294.22
814.168	355.66
814.347	218.45
814.526	339.28
814.704	261.46
814.883	382.29
815.062	208.21
815.24	367.95
815.419	253.27
815.598	185.68
815.776	214.35
815.955	247.12
816.133	216.4
816.312	300.37
816.49	245.07
816.669	300.37
816.847	212.31
817.026	286.03
817.204	226.64
817.383	343.38
817.561	195.92
817.74	294.22
817.918	232.79
818.097	275.79
818.275	224.59
818.453	283.98
818.632	243.03
818.81	216.4
818.988	191.83
819.167	288.08
819.345	202.07
819.523	261.46
819.701	191.83
819.879	238.93
820.058	226.64
820.236	202.07
820.414	247.12
820.592	281.94
820.77	177.49
820.948	271.7
821.127	148.82
821.305	204.11
821.483	277.84
821.661	226.64
821.839	279.89
822.017	224.59
822.195	220.5
822.373	255.31
822.551	253.27
822.729	222.55
822.907	183.63
823.085	206.16
823.262	234.83
823.44	277.84
823.618	200.02
823.796	226.64
823.974	179.54
824.152	208.21
824.329	218.45
824.507	179.54
824.685	179.54
824.863	232.79
825.04	206.16
825.218	253.27
825.396	204.11
825.574	263.51
825.751	185.68
825.929	243.03
826.107	200.02
826.284	152.91
826.462	195.92
826.639	167.25
826.817	87.38
826.994	243.03
827.172	152.91
827.349	226.64
827.527	154.96
827.704	247.12
827.882	220.5
828.059	181.59
828.237	230.74
828.414	118.1
828.591	128.34
828.769	134.48
828.946	142.68
829.124	212.31
829.301	214.35
829.478	197.97
829.655	197.97
829.833	132.44
830.01	134.48
830.187	159.06
830.364	140.63
830.542	193.87
830.719	195.92
830.896	175.44
831.073	128.34
831.25	165.2
831.427	134.48
831.604	85.33
831.782	114
831.959	202.07
832.136	132.44
832.313	179.54
832.49	99.67
832.667	177.49
832.844	34.13
833.021	181.59
833.198	195.92
833.374	103.76
833.551	126.29
833.728	189.78
833.905	159.06
834.082	181.59
834.259	140.63
834.436	97.62
834.612	247.12
834.789	228.69
834.966	134.48
835.143	73.04
835.319	157.01
835.496	191.83
835.673	144.72
835.85	187.73
836.026	142.68
836.203	183.63
836.38	140.63
836.556	140.63
836.733	114
836.909	197.97
837.086	68.95
837.262	95.57
837.439	120.15
837.616	187.73
837.792	134.48
837.968	169.3
838.145	36.18
838.321	91.48
838.498	116.05
838.674	157.01
838.851	189.78
839.027	114
839.203	177.49
839.38	146.77
839.556	85.33
839.732	154.96
839.909	101.72
840.085	93.52
840.261	71
840.437	103.76
840.614	132.44
840.79	169.3
840.966	116.05
841.142	120.15
841.318	73.04
841.494	152.91
841.671	103.76
841.847	150.87
842.023	103.76
842.199	157.01
842.375	109.91
842.551	75.09
842.727	58.71
842.903	132.44
843.079	101.72
843.255	136.53
843.431	77.14
843.607	144.72
843.783	62.8
843.959	183.63
844.134	60.76
844.31	197.97
844.486	163.15
844.662	68.95
844.838	3.41
845.013	159.06
845.189	85.33
845.365	60.76
845.541	120.15
845.716	177.49
845.892	32.08
846.068	54.61
846.244	107.86
846.419	105.81
846.595	17.75
846.77	-43.69
846.946	124.24
847.122	73.04
847.297	132.44
847.473	75.09
847.648	54.61
847.824	71
847.999	81.24
848.175	128.34
848.35	148.82
848.526	216.4
848.701	148.82
848.876	66.9
849.052	118.1
849.227	71
849.403	-12.97
849.578	89.43
849.753	11.61
849.929	195.92
850.104	34.13
850.279	23.89
850.454	64.85
850.63	27.99
850.805	105.81
850.98	142.68
851.155	95.57
851.33	118.1
851.505	95.57
851.681	169.3
851.856	99.67
852.031	81.24
852.206	77.14
852.381	85.33
852.556	79.19
852.731	73.04
852.906	103.76
853.081	48.47
853.256	68.95
853.431	103.76
853.606	-23.21
853.781	21.84
853.956	68.95
854.131	85.33
854.305	95.57
854.48	58.71
854.655	5.46
854.83	81.24
855.005	48.47
855.18	138.58
855.354	56.66
855.529	75.09
855.704	58.71
855.879	91.48
856.053	13.65
856.228	27.99
856.403	23.89
856.577	68.95
856.752	99.67
856.926	50.52
857.101	62.8
857.276	32.08
857.45	77.14
857.625	11.61
857.799	79.19
857.974	60.76
858.148	36.18
858.323	148.82
858.497	130.39
858.672	34.13
858.846	27.99
859.02	66.9
859.195	89.43
859.369	85.33
859.543	124.24
859.718	58.71
859.892	66.9
860.066	79.19
860.241	46.42
860.415	42.32
860.589	46.42
860.763	48.47
860.938	44.37
861.112	58.71
861.286	-49.83
861.46	-27.31
861.634	-12.97
861.808	68.95
861.982	140.63
862.157	30.04
862.331	27.99
862.505	71
862.679	-37.55
862.853	79.19
863.027	38.23
863.201	103.76
863.375	17.75
863.549	122.2
863.722	179.54
863.896	109.91
864.07	-35.5
864.244	50.52
864.418	36.18
864.592	50.52
864.766	46.42
864.939	38.23
865.113	-8.87
865.287	175.44
865.461	32.08
865.634	71
865.808	81.24
865.982	-12.97
866.156	44.37
866.329	79.19
866.503	50.52
866.676	103.76
866.85	120.15
867.024	3.41
867.197	44.37
867.371	40.28
867.544	-0.68
867.718	42.32
867.891	64.85
868.065	27.99
868.238	85.33
868.412	73.04
868.585	3.41
868.759	25.94
868.932	1.37
869.105	15.7
869.279	23.89
869.452	1.37
869.625	73.04
869.799	183.63
869.972	1.37
870.145	1.37
870.319	50.52
870.492	77.14
870.665	-8.87
870.838	-15.02
871.011	13.65
871.185	71
871.358	-10.92
871.531	3.41
871.704	5.46
871.877	-6.83
872.05	-17.07
872.223	23.89
872.396	5.46
872.569	38.23
872.742	3.41
872.915	27.99
873.088	23.89
873.261	7.51
873.434	25.94
873.607	21.84
873.78	99.67
873.953	60.76
874.126	42.32
874.299	73.04
874.471	27.99
874.644	27.99
874.817	38.23
874.99	60.76
875.163	66.9
875.335	27.99
875.508	44.37
875.681	132.44
875.853	19.8
876.026	-15.02
876.199	38.23
876.371	38.23
876.544	11.61
876.717	27.99
876.889	60.76
877.062	42.32
877.234	11.61
877.407	-21.16
877.579	-27.31
877.752	15.7
877.924	48.47
878.097	99.67
878.269	34.13
878.442	50.52
878.614	40.28
878.786	25.94
878.959	-4.78
879.131	40.28
879.303	-17.07
879.476	-6.83
879.648	144.72
879.82	62.8
879.993	-8.87
880.165	40.28
880.337	-8.87
880.509	32.08
880.681	-19.11
880.854	-2.73
881.026	64.85
881.198	60.76
881.37	44.37
881.542	25.94
881.714	34.13
881.886	-8.87
882.058	13.65
882.23	17.75
882.402	13.65
882.574	58.71
882.746	-64.17
882.918	64.85
883.09	52.56
883.262	42.32
883.434	56.66
883.606	-33.45
883.778	17.75
883.95	44.37
884.122	23.89
884.293	52.56
884.465	11.61
884.637	44.37
884.809	-82.6
884.98	-8.87
885.152	-10.92
885.324	60.76
885.496	11.61
885.667	77.14
885.839	9.56
886.011	13.65
886.182	13.65
886.354	56.66
886.525	58.71
886.697	-0.68
886.869	-2.73
887.04	52.56
887.212	3.41
887.383	83.28
887.555	30.04
887.726	56.66
887.897	-8.87
888.069	54.61
888.24	-10.92
888.412	66.9
888.583	21.84
888.754	83.28
888.926	-23.21
889.097	40.28
889.268	1.37
889.44	-15.02
889.611	62.8
889.782	5.46
889.953	3.41
890.125	83.28
890.296	11.61
890.467	11.61
890.638	54.61
890.809	60.76
890.98	7.51
891.151	-17.07
891.323	42.32
891.494	7.51
891.665	13.65
891.836	40.28
892.007	-19.11
892.178	42.32
892.349	21.84
892.52	11.61
892.691	-12.97
892.862	-0.68
893.032	-12.97
893.203	68.95
893.374	-35.5
893.545	83.28
893.716	-15.02
893.887	7.51
894.057	-82.6
894.228	7.51
894.399	-29.35
894.57	58.71
894.74	36.18
894.911	44.37
895.082	17.75
895.253	7.51
895.423	116.05
895.594	83.28
895.764	48.47
895.935	-45.74
896.106	36.18
896.276	-8.87
896.447	19.8
896.617	-43.69
896.788	7.51
896.958	75.09
897.129	36.18
897.299	-8.87
897.47	15.7
897.64	68.95
897.81	-23.21
897.981	56.66
898.151	-15.02
898.322	25.94
898.492	68.95
898.662	-37.55
898.832	23.89
899.003	13.65
899.173	-4.78
899.343	15.7
899.513	1.37
