Data from USB4F104151__60__12-42-01-129.txt Node

Date: Fri Mar 14 12:42:01 EDT 2025
User: louis
Spectrometer: USB4F10415
Trigger mode: 4
Integration Time (sec): 3.000000E-2
Scans to average: 1
Electric dark correction enabled: true
Nonlinearity correction enabled: false
Boxcar width: 0
XAxis mode: Wavelengths
Number of Pixels in Spectrum: 3648
>>>>>Begin Spectral Data<<<<<
178.204	-131.07
178.424	-131.07
178.644	-131.07
178.864	-147.45
179.084	-139.26
179.304	0
179.524	-8.19
179.744	2.05
179.964	67.58
180.184	4.1
180.404	16.38
180.624	12.29
180.844	34.82
181.064	-61.44
181.283	-32.77
181.503	-88.06
181.723	53.25
181.943	-61.44
182.163	49.15
182.383	2.05
182.602	-30.72
182.822	53.25
183.042	8.19
183.262	0
183.482	30.72
183.701	24.58
183.921	59.39
184.141	-14.34
184.361	83.97
184.58	122.88
184.8	-18.43
185.02	-24.58
185.239	69.63
185.459	4.1
185.679	20.48
185.898	-20.48
186.118	81.92
186.338	36.86
186.557	81.92
186.777	-53.25
186.997	51.2
187.216	26.62
187.436	59.39
187.655	4.1
187.875	61.44
188.095	-18.43
188.314	100.35
188.534	122.88
188.753	32.77
188.973	30.72
189.192	34.82
189.412	55.3
189.631	26.62
189.851	34.82
190.07	49.15
190.29	-4.1
190.509	43.01
190.729	4.1
190.948	75.77
191.168	200.7
191.387	108.54
191.607	34.82
191.826	10.24
192.045	34.82
192.265	53.25
192.484	69.63
192.704	24.58
192.923	20.48
193.142	28.67
193.362	24.58
193.581	43.01
193.8	8.19
194.02	40.96
194.239	-10.24
194.458	-2.05
194.678	81.92
194.897	26.62
195.116	40.96
195.335	-36.86
195.555	14.34
195.774	63.49
195.993	-36.86
196.212	-22.53
196.432	12.29
196.651	34.82
196.87	0
197.089	63.49
197.308	22.53
197.528	86.01
197.747	-34.82
197.966	67.58
198.185	59.39
198.404	-26.62
198.623	98.3
198.842	65.54
199.062	28.67
199.281	43.01
199.5	-40.96
199.719	30.72
199.938	88.06
200.157	18.43
200.376	38.91
200.595	53.25
200.814	47.1
201.033	61.44
201.252	63.49
201.471	12.29
201.69	-30.72
201.909	24.58
202.128	51.2
202.347	-34.82
202.566	6.14
202.785	-32.77
203.004	-4.1
203.223	36.86
203.442	-2.05
203.661	-45.06
203.879	51.2
204.098	83.97
204.317	-30.72
204.536	34.82
204.755	14.34
204.974	47.1
205.193	30.72
205.411	14.34
205.63	14.34
205.849	88.06
206.068	20.48
206.287	69.63
206.505	55.3
206.724	-18.43
206.943	-26.62
207.162	63.49
207.381	24.58
207.599	69.63
207.818	30.72
208.037	-16.38
208.255	-2.05
208.474	-63.49
208.693	-12.29
208.911	40.96
209.13	94.21
209.349	63.49
209.567	96.25
209.786	2.05
210.005	36.86
210.223	-79.87
210.442	-6.14
210.661	26.62
210.879	-2.05
211.098	2.05
211.316	43.01
211.535	-10.24
211.753	18.43
211.972	40.96
212.191	26.62
212.409	55.3
212.628	53.25
212.846	20.48
213.065	53.25
213.283	100.35
213.502	49.15
213.72	-4.1
213.938	-22.53
214.157	-22.53
214.375	59.39
214.594	0
214.812	88.06
215.031	59.39
215.249	57.34
215.467	-10.24
215.686	34.82
215.904	100.35
216.122	47.1
216.341	67.58
216.559	55.3
216.778	106.49
216.996	32.77
217.214	69.63
217.432	8.19
217.651	24.58
217.869	4.1
218.087	53.25
218.306	32.77
218.524	-36.86
218.742	-14.34
218.96	69.63
219.179	-28.67
219.397	49.15
219.615	100.35
219.833	55.3
220.051	-14.34
220.27	83.97
220.488	-12.29
220.706	43.01
220.924	0
221.142	34.82
221.36	51.2
221.578	92.16
221.796	116.73
222.015	38.91
222.233	24.58
222.451	77.82
222.669	47.1
222.887	43.01
223.105	-12.29
223.323	-28.67
223.541	-53.25
223.759	26.62
223.977	6.14
224.195	135.17
224.413	77.82
224.631	57.34
224.849	98.3
225.067	104.45
225.285	4.1
225.503	-51.2
225.721	-28.67
225.939	83.97
226.157	67.58
226.375	100.35
226.592	24.58
226.81	49.15
227.028	110.59
227.246	71.68
227.464	65.54
227.682	18.43
227.9	51.2
228.117	61.44
228.335	45.06
228.553	24.58
228.771	4.1
228.989	53.25
229.206	43.01
229.424	10.24
229.642	18.43
229.86	30.72
230.077	73.73
230.295	45.06
230.513	16.38
230.731	129.02
230.948	47.1
231.166	71.68
231.384	-61.44
231.601	-2.05
231.819	96.25
232.037	-32.77
232.254	-16.38
232.472	102.4
232.689	-16.38
232.907	-8.19
233.125	4.1
233.342	86.01
233.56	14.34
233.777	-12.29
233.995	65.54
234.213	108.54
234.43	20.48
234.648	59.39
234.865	53.25
235.083	108.54
235.3	-49.15
235.518	57.34
235.735	20.48
235.953	75.77
236.17	8.19
236.388	81.92
236.605	-79.87
236.822	59.39
237.04	40.96
237.257	28.67
237.475	69.63
237.692	102.4
237.909	26.62
238.127	-2.05
238.344	-38.91
238.562	-10.24
238.779	-6.14
238.996	30.72
239.214	51.2
239.431	18.43
239.648	26.62
239.865	14.34
240.083	36.86
240.3	69.63
240.517	12.29
240.735	61.44
240.952	20.48
241.169	59.39
241.386	26.62
241.603	88.06
241.821	30.72
242.038	34.82
242.255	20.48
242.472	2.05
242.689	38.91
242.907	30.72
243.124	53.25
243.341	24.58
243.558	-4.1
243.775	2.05
243.992	34.82
244.209	83.97
244.426	118.78
244.643	-8.19
244.86	12.29
245.078	55.3
245.295	63.49
245.512	8.19
245.729	22.53
245.946	45.06
246.163	24.58
246.38	106.49
246.597	28.67
246.814	34.82
247.031	59.39
247.248	45.06
247.464	49.15
247.681	14.34
247.898	81.92
248.115	47.1
248.332	24.58
248.549	63.49
248.766	108.54
248.983	8.19
249.2	26.62
249.417	90.11
249.633	61.44
249.85	-20.48
250.067	43.01
250.284	10.24
250.501	10.24
250.717	149.5
250.934	22.53
251.151	30.72
251.368	-6.14
251.585	36.86
251.801	32.77
252.018	14.34
252.235	-6.14
252.451	-6.14
252.668	-61.44
252.885	71.68
253.102	-12.29
253.318	-28.67
253.535	24.58
253.752	-10.24
253.968	32.77
254.185	-16.38
254.401	38.91
254.618	38.91
254.835	-10.24
255.051	2.05
255.268	88.06
255.484	20.48
255.701	12.29
255.917	10.24
256.134	14.34
256.351	-20.48
256.567	38.91
256.784	-8.19
257	-4.1
257.217	32.77
257.433	36.86
257.65	4.1
257.866	-67.58
258.082	8.19
258.299	32.77
258.515	83.97
258.732	43.01
258.948	51.2
259.165	55.3
259.381	32.77
259.597	67.58
259.814	49.15
260.03	-8.19
260.246	22.53
260.463	114.69
260.679	45.06
260.895	24.58
261.112	36.86
261.328	-12.29
261.544	57.34
261.761	24.58
261.977	53.25
262.193	32.77
262.409	38.91
262.626	6.14
262.842	16.38
263.058	-12.29
263.274	55.3
263.49	114.69
263.707	67.58
263.923	57.34
264.139	-30.72
264.355	-30.72
264.571	67.58
264.787	34.82
265.004	20.48
265.22	18.43
265.436	40.96
265.652	24.58
265.868	43.01
266.084	18.43
266.3	59.39
266.516	-53.25
266.732	65.54
266.948	-61.44
267.164	-57.34
267.38	73.73
267.596	86.01
267.812	114.69
268.028	0
268.244	63.49
268.46	-26.62
268.676	18.43
268.892	92.16
269.108	22.53
269.324	-18.43
269.54	-45.06
269.756	81.92
269.972	12.29
270.188	-38.91
270.403	24.58
270.619	118.78
270.835	-18.43
271.051	14.34
271.267	6.14
271.483	10.24
271.698	28.67
271.914	-38.91
272.13	59.39
272.346	8.19
272.562	94.21
272.777	20.48
272.993	102.4
273.209	114.69
273.425	53.25
273.64	-28.67
273.856	57.34
274.072	22.53
274.287	34.82
274.503	114.69
274.719	88.06
274.934	0
275.15	-10.24
275.366	79.87
275.581	-14.34
275.797	102.4
276.012	-28.67
276.228	-16.38
276.444	34.82
276.659	16.38
276.875	18.43
277.09	90.11
277.306	16.38
277.521	43.01
277.737	2.05
277.952	-57.34
278.168	36.86
278.383	55.3
278.599	-22.53
278.814	124.93
279.03	28.67
279.245	135.17
279.461	12.29
279.676	69.63
279.892	32.77
280.107	67.58
280.322	-30.72
280.538	63.49
280.753	30.72
280.969	20.48
281.184	45.06
281.399	34.82
281.615	36.86
281.83	-26.62
282.045	34.82
282.26	36.86
282.476	81.92
282.691	102.4
282.906	38.91
283.122	24.58
283.337	51.2
283.552	-10.24
283.767	-26.62
283.983	71.68
284.198	28.67
284.413	77.82
284.628	2.05
284.843	4.1
285.058	-8.19
285.274	69.63
285.489	-77.82
285.704	53.25
285.919	6.14
286.134	47.1
286.349	16.38
286.564	32.77
286.779	81.92
286.995	14.34
287.21	79.87
287.425	116.73
287.64	-34.82
287.855	-2.05
288.07	-2.05
288.285	49.15
288.5	18.43
288.715	51.2
288.93	-2.05
289.145	77.82
289.36	59.39
289.575	-18.43
289.79	38.91
290.004	-12.29
290.219	86.01
290.434	53.25
290.649	16.38
290.864	26.62
291.079	-4.1
291.294	2.05
291.509	-8.19
291.724	-38.91
291.938	69.63
292.153	75.77
292.368	18.43
292.583	30.72
292.798	73.73
293.012	10.24
293.227	43.01
293.442	86.01
293.657	83.97
293.871	47.1
294.086	40.96
294.301	106.49
294.516	86.01
294.73	65.54
294.945	8.19
295.16	-69.63
295.374	40.96
295.589	71.68
295.804	45.06
296.018	34.82
296.233	18.43
296.447	90.11
296.662	10.24
296.877	20.48
297.091	100.35
297.306	34.82
297.52	18.43
297.735	2.05
297.949	98.3
298.164	43.01
298.378	69.63
298.593	-10.24
298.807	96.25
299.022	28.67
299.236	120.83
299.451	28.67
299.665	6.14
299.88	-8.19
300.094	-4.1
300.309	40.96
300.523	129.02
300.737	12.29
300.952	57.34
301.166	32.77
301.381	14.34
301.595	-18.43
301.809	20.48
302.024	18.43
302.238	106.49
302.452	-4.1
302.667	-43.01
302.881	57.34
303.095	26.62
303.309	16.38
303.524	92.16
303.738	45.06
303.952	22.53
304.166	65.54
304.381	2.05
304.595	36.86
304.809	32.77
305.023	0
305.237	-12.29
305.452	124.93
305.666	53.25
305.88	2.05
306.094	47.1
306.308	86.01
306.522	63.49
306.736	100.35
306.95	67.58
307.164	67.58
307.379	71.68
307.593	43.01
307.807	16.38
308.021	36.86
308.235	0
308.449	49.15
308.663	-8.19
308.877	61.44
309.091	0
309.305	83.97
309.519	-55.3
309.733	45.06
309.947	22.53
310.161	57.34
310.374	120.83
310.588	30.72
310.802	32.77
311.016	45.06
311.23	26.62
311.444	10.24
311.658	79.87
311.872	28.67
312.085	94.21
312.299	65.54
312.513	86.01
312.727	86.01
312.941	-12.29
313.154	59.39
313.368	28.67
313.582	-6.14
313.796	-24.58
314.009	8.19
314.223	40.96
314.437	83.97
314.651	57.34
314.864	14.34
315.078	10.24
315.292	59.39
315.505	18.43
315.719	61.44
315.933	51.2
316.146	-28.67
316.36	65.54
316.573	14.34
316.787	59.39
317.001	73.73
317.214	14.34
317.428	67.58
317.641	-38.91
317.855	45.06
318.068	-18.43
318.282	57.34
318.495	49.15
318.709	92.16
318.922	0
319.136	81.92
319.349	94.21
319.563	-18.43
319.776	53.25
319.99	73.73
320.203	34.82
320.417	65.54
320.63	65.54
320.843	182.27
321.057	14.34
321.27	20.48
321.483	75.77
321.697	63.49
321.91	16.38
322.124	32.77
322.337	79.87
322.55	55.3
322.763	73.73
322.977	30.72
323.19	10.24
323.403	30.72
323.617	75.77
323.83	135.17
324.043	57.34
324.256	131.07
324.469	51.2
324.683	77.82
324.896	83.97
325.109	10.24
325.322	32.77
325.535	96.25
325.748	69.63
325.962	0
326.175	14.34
326.388	88.06
326.601	43.01
326.814	8.19
327.027	14.34
327.24	59.39
327.453	40.96
327.666	22.53
327.879	147.45
328.092	47.1
328.305	73.73
328.518	4.1
328.731	-28.67
328.944	-2.05
329.157	24.58
329.37	59.39
329.583	98.3
329.796	18.43
330.009	-16.38
330.222	73.73
330.435	47.1
330.648	38.91
330.861	28.67
331.073	51.2
331.286	40.96
331.499	36.86
331.712	-12.29
331.925	92.16
332.138	12.29
332.35	81.92
332.563	2.05
332.776	112.64
332.989	36.86
333.202	30.72
333.414	47.1
333.627	32.77
333.84	10.24
334.053	-2.05
334.265	16.38
334.478	0
334.691	122.88
334.903	4.1
335.116	20.48
335.329	-63.49
335.541	69.63
335.754	129.02
335.966	-63.49
336.179	34.82
336.392	73.73
336.604	108.54
336.817	36.86
337.029	55.3
337.242	53.25
337.454	92.16
337.667	81.92
337.88	106.49
338.092	131.07
338.305	81.92
338.517	-24.58
338.729	45.06
338.942	112.64
339.154	-34.82
339.367	-16.38
339.579	63.49
339.792	55.3
340.004	73.73
340.217	20.48
340.429	16.38
340.641	34.82
340.854	34.82
341.066	20.48
341.278	65.54
341.491	153.6
341.703	86.01
341.915	-2.05
342.128	0
342.34	-24.58
342.552	75.77
342.764	45.06
342.977	108.54
343.189	75.77
343.401	67.58
343.613	4.1
343.826	47.1
344.038	-20.48
344.25	67.58
344.462	71.68
344.674	75.77
344.886	-2.05
345.099	124.93
345.311	14.34
345.523	59.39
345.735	53.25
345.947	53.25
346.159	43.01
346.371	77.82
346.583	6.14
346.795	47.1
347.007	38.91
347.219	14.34
347.431	-10.24
347.643	94.21
347.855	0
348.067	51.2
348.279	2.05
348.491	16.38
348.703	47.1
348.915	112.64
349.127	38.91
349.339	24.58
349.551	69.63
349.763	86.01
349.975	88.06
350.187	47.1
350.399	131.07
350.61	67.58
350.822	88.06
351.034	61.44
351.246	34.82
351.458	51.2
351.669	69.63
351.881	86.01
352.093	63.49
352.305	86.01
352.517	57.34
352.728	28.67
352.94	51.2
353.152	34.82
353.363	40.96
353.575	59.39
353.787	45.06
353.999	77.82
354.21	18.43
354.422	-51.2
354.633	71.68
354.845	88.06
355.057	-12.29
355.268	63.49
355.48	79.87
355.692	49.15
355.903	69.63
356.115	45.06
356.326	-28.67
356.538	77.82
356.749	71.68
356.961	71.68
357.172	38.91
357.384	61.44
357.595	131.07
357.807	-4.1
358.018	-45.06
358.23	100.35
358.441	49.15
358.653	34.82
358.864	112.64
359.075	32.77
359.287	-6.14
359.498	112.64
359.709	75.77
359.921	79.87
360.132	12.29
360.344	92.16
360.555	8.19
360.766	98.3
360.977	-8.19
361.189	28.67
361.4	67.58
361.611	86.01
361.823	28.67
362.034	-14.34
362.245	53.25
362.456	8.19
362.667	51.2
362.879	43.01
363.09	65.54
363.301	49.15
363.512	22.53
363.723	28.67
363.935	10.24
364.146	34.82
364.357	86.01
364.568	61.44
364.779	26.62
364.99	104.45
365.201	57.34
365.412	88.06
365.623	28.67
365.834	36.86
366.045	61.44
366.256	65.54
366.467	77.82
366.678	92.16
366.889	-20.48
367.1	2.05
367.311	69.63
367.522	63.49
367.733	2.05
367.944	-14.34
368.155	36.86
368.366	106.49
368.577	55.3
368.788	69.63
368.999	75.77
369.209	-12.29
369.42	63.49
369.631	124.93
369.842	75.77
370.053	-12.29
370.264	22.53
370.474	153.6
370.685	32.77
370.896	-20.48
371.107	151.55
371.317	63.49
371.528	67.58
371.739	71.68
371.95	49.15
372.16	59.39
372.371	-16.38
372.582	116.73
372.792	92.16
373.003	57.34
373.214	57.34
373.424	14.34
373.635	6.14
373.846	65.54
374.056	26.62
374.267	-18.43
374.477	32.77
374.688	-4.1
374.898	36.86
375.109	28.67
375.319	77.82
375.53	45.06
375.74	-24.58
375.951	-36.86
376.161	47.1
376.372	59.39
376.582	75.77
376.793	96.25
377.003	4.1
377.214	28.67
377.424	114.69
377.635	36.86
377.845	40.96
378.055	176.13
378.266	20.48
378.476	43.01
378.686	98.3
378.897	67.58
379.107	86.01
379.317	57.34
379.528	34.82
379.738	-2.05
379.948	22.53
380.158	55.3
380.369	112.64
380.579	36.86
380.789	-34.82
380.999	92.16
381.21	53.25
381.42	126.97
381.63	32.77
381.84	114.69
382.05	110.59
382.261	63.49
382.471	133.12
382.681	34.82
382.891	122.88
383.101	102.4
383.311	32.77
383.521	12.29
383.731	40.96
383.941	69.63
384.151	65.54
384.361	94.21
384.571	51.2
384.781	77.82
384.991	92.16
385.201	110.59
385.411	40.96
385.621	77.82
385.831	69.63
386.041	192.51
386.251	83.97
386.461	73.73
386.671	63.49
386.881	32.77
387.091	43.01
387.301	110.59
387.511	8.19
387.72	28.67
387.93	63.49
388.14	81.92
388.35	-10.24
388.56	137.21
388.769	26.62
388.979	-4.1
389.189	49.15
389.399	94.21
389.609	92.16
389.818	55.3
390.028	133.12
390.238	34.82
390.447	-8.19
390.657	151.55
390.867	69.63
391.076	30.72
391.286	45.06
391.496	32.77
391.705	71.68
391.915	49.15
392.125	69.63
392.334	49.15
392.544	79.87
392.753	43.01
392.963	53.25
393.172	108.54
393.382	-28.67
393.591	81.92
393.801	22.53
394.01	88.06
394.22	120.83
394.429	98.3
394.639	4.1
394.848	14.34
395.058	61.44
395.267	53.25
395.477	22.53
395.686	75.77
395.895	129.02
396.105	49.15
396.314	61.44
396.524	129.02
396.733	65.54
396.942	131.07
397.152	96.25
397.361	155.65
397.57	102.4
397.78	98.3
397.989	112.64
398.198	139.26
398.407	88.06
398.617	159.74
398.826	114.69
399.035	133.12
399.244	137.21
399.453	118.78
399.663	131.07
399.872	194.56
400.081	16.38
400.29	102.4
400.499	102.4
400.708	98.3
400.917	157.69
401.127	126.97
401.336	161.79
401.545	112.64
401.754	225.28
401.963	90.11
402.172	112.64
402.381	59.39
402.59	83.97
402.799	163.84
403.008	169.98
403.217	104.45
403.426	96.25
403.635	75.77
403.844	200.7
404.053	172.03
404.262	124.93
404.471	178.17
404.68	165.89
404.888	104.45
405.097	159.74
405.306	143.36
405.515	198.65
405.724	174.08
405.933	118.78
406.142	194.56
406.35	178.17
406.559	178.17
406.768	139.26
406.977	215.04
407.185	225.28
407.394	268.28
407.603	200.7
407.812	186.37
408.02	294.91
408.229	245.76
408.438	299
408.646	241.66
408.855	243.71
409.064	253.95
409.272	208.89
409.481	385.02
409.69	317.44
409.898	266.24
410.107	327.68
410.315	272.38
410.524	301.05
410.733	370.68
410.941	356.35
411.15	395.26
411.358	387.07
411.567	458.75
411.775	337.91
411.984	440.31
412.192	387.07
412.401	389.11
412.609	538.62
412.818	425.98
413.026	544.76
413.234	518.14
413.443	514.04
413.651	567.29
413.86	561.14
414.068	634.87
414.276	661.49
414.485	653.3
414.693	618.49
414.901	696.31
415.11	657.4
415.318	669.69
415.526	698.36
415.734	751.6
415.943	798.71
416.151	843.76
416.359	831.48
416.567	919.54
416.776	882.67
416.984	989.17
417.192	976.88
417.4	968.69
417.608	978.93
417.817	1069.04
418.025	1087.47
418.233	1196.01
418.441	1058.8
418.649	1228.78
418.857	1292.27
419.065	1251.31
419.273	1257.45
419.481	1368.04
419.689	1423.34
419.897	1490.92
420.105	1478.63
420.313	1542.12
420.521	1630.18
420.729	1558.5
420.937	1710.05
421.145	1755.11
421.353	1863.65
421.561	1941.47
421.769	1978.34
421.977	2125.79
422.185	2070.5
422.393	2168.8
422.601	2183.13
422.809	2150.37
423.017	2332.64
423.224	2480.09
423.432	2451.42
423.64	2521.05
423.848	2582.49
424.056	2688.98
424.263	2822.1
424.471	2852.82
424.679	2842.58
424.887	3094.48
425.094	3237.84
425.302	3114.96
425.51	3164.11
425.718	3362.76
425.925	3444.68
426.133	3596.23
426.341	3835.85
426.548	3905.48
426.756	3966.92
426.964	3911.62
427.171	4001.73
427.379	4335.55
427.586	4263.87
427.794	4579.26
428.001	4677.56
428.209	4835.25
428.417	4816.82
428.624	5175.22
428.832	5242.8
429.039	5099.44
429.247	5085.11
429.454	5679.02
429.662	6160.29
429.869	5607.34
430.076	6027.17
430.284	5975.97
430.491	6104.99
430.699	6340.51
430.906	6541.21
431.114	6627.23
431.321	6815.64
431.528	6864.79
431.736	7440.27
431.943	7571.34
432.15	7520.14
432.358	7714.7
432.565	7810.95
432.772	7956.36
432.979	8335.23
433.187	8564.61
433.394	8595.32
433.601	9045.88
433.808	9127.8
434.016	9146.23
434.223	9717.61
434.43	10106.73
434.637	9764.72
434.844	10422.11
435.052	10903.39
435.259	10751.84
435.466	10907.48
435.673	10438.5
435.88	11446.1
436.087	11779.92
436.294	11921.23
436.501	11675.47
436.708	11816.78
436.915	12326.72
437.122	12814.14
437.329	12889.92
437.537	13293.37
437.743	13354.8
437.95	13137.72
438.157	13899.56
438.364	14569.25
438.571	14456.61
438.778	14618.4
438.985	15980.3
439.192	15189.78
439.399	15908.62
439.606	15357.72
439.813	16396.04
440.02	17387.25
440.227	16877.31
440.433	16971.52
440.64	17178.36
440.847	17448.69
441.054	17551.09
441.261	18882.27
441.467	18779.87
441.674	18796.26
441.881	19793.62
442.088	19797.71
442.294	19420.89
442.501	20014.8
442.708	20434.63
442.914	21165.76
443.121	22107.82
443.328	21255.87
443.534	23166.62
443.741	22341.29
443.948	22210.22
444.154	23746.2
444.361	23355.04
444.568	23895.7
444.774	23684.76
444.981	24166.03
445.187	24817.29
445.394	26068.59
445.6	25417.34
445.807	28022.36
446.013	26537.58
446.22	26975.84
446.426	28249.68
446.633	28221.01
446.839	29713.98
447.046	28253.78
447.252	29931.06
447.459	29664.83
447.665	29304.38
447.871	31192.61
448.078	32466.45
448.284	31024.68
448.491	31784.48
448.697	33142.28
448.903	33945.08
449.11	33375.75
449.316	33295.88
449.522	33826.3
449.728	34637.3
449.935	35022.31
450.141	34981.35
450.347	35648.99
450.553	34172.41
450.76	35010.03
450.966	36341.21
451.172	35780.06
451.378	36373.97
451.584	35476.96
451.791	36865.49
451.997	36746.7
452.203	37123.53
452.409	37512.64
452.615	37270.98
452.821	36064.73
453.027	35489.25
453.233	37320.13
453.44	35802.59
453.646	36144.6
453.852	36623.83
454.058	37463.49
454.264	35835.36
454.47	36611.54
454.676	35665.38
454.882	37152.2
455.088	33750.52
455.294	34463.22
455.5	34698.73
455.705	35024.36
455.911	33746.43
456.117	33246.72
456.323	32714.25
456.529	31180.32
456.735	32380.43
456.941	31542.81
457.147	31153.7
457.352	30107.19
457.558	30334.51
457.764	30197.3
457.97	29425.22
458.176	28741.19
458.381	28677.71
458.587	27264.61
458.793	27324
458.999	25822.84
459.204	27653.72
459.41	26861.16
459.616	25013.89
459.821	25136.77
460.027	24888.96
460.233	24534.67
460.438	23416.47
460.644	23645.85
460.85	22595.24
461.055	22027.95
461.261	22212.27
461.466	20631.24
461.672	19764.95
461.878	21384.89
462.083	19902.16
462.289	19543.77
462.494	19488.47
462.7	18722.53
462.905	17893.1
463.111	18495.21
463.316	18687.71
463.522	18216.68
463.727	18357.99
463.932	18331.37
464.138	18104.04
464.343	18310.89
464.549	17307.38
464.754	18220.78
464.959	17915.63
465.165	17979.12
465.37	17172.22
465.575	16908.03
465.781	17528.56
465.986	17438.45
466.191	16772.86
466.397	16365.32
466.602	15742.74
466.807	16355.08
467.012	16293.64
467.218	16240.39
467.423	16094.99
467.628	16195.34
467.833	16350.98
468.038	16254.73
468.244	15685.39
468.449	16277.26
468.654	16011.02
468.859	15619.86
469.064	15664.91
469.269	15109.91
469.474	15230.74
469.679	15406.87
469.885	15066.91
470.09	15226.65
470.295	15079.19
470.5	14593.83
470.705	14845.73
470.91	14640.93
471.115	14554.91
471.32	14526.24
471.525	14610.21
471.73	14178.09
471.935	14085.93
472.139	13700.91
472.344	13948.72
472.549	13721.39
472.754	13479.73
472.959	13506.35
473.164	13076.28
473.369	12822.33
473.574	13248.31
473.778	13143.86
473.983	13322.04
474.188	12906.3
474.393	12392.26
474.598	12492.61
474.802	12535.62
475.007	12332.87
475.212	12232.52
475.417	11906.89
475.621	11904.84
475.826	11726.67
476.031	11755.34
476.235	11317.08
476.44	11661.13
476.645	11566.93
476.849	11487.06
477.054	11204.44
477.259	11165.53
477.463	11290.45
477.668	10833.75
477.872	10938.2
478.077	10575.71
478.282	10547.04
478.486	10311.52
478.691	10401.63
478.895	10510.18
479.1	10170.21
479.304	10334.05
479.509	9885.55
479.713	10225.51
479.918	9967.46
480.122	9817.96
480.326	9963.37
480.531	9963.37
480.735	9713.52
480.94	9688.94
481.144	9963.37
481.348	9484.14
481.553	9656.17
481.757	9480.05
481.961	9400.18
482.166	9688.94
482.37	9406.32
482.574	9426.8
482.778	9574.25
482.983	9604.97
483.187	9455.47
483.391	9584.49
483.595	9434.99
483.8	9424.75
484.004	9545.58
484.208	9639.79
484.412	9478
484.616	9539.44
484.821	9478
485.025	9445.23
485.229	9527.15
485.433	9375.6
485.637	9379.7
485.841	9217.91
486.045	9473.9
486.249	9463.66
486.453	9340.79
486.657	9381.74
486.861	9381.74
487.065	9240.44
487.269	9355.12
487.473	9480.05
487.677	9375.6
487.881	9637.74
488.085	9430.9
488.289	9355.12
488.493	9594.73
488.697	9482.1
488.901	9529.2
489.105	9607.02
489.309	9518.96
489.512	9461.62
489.716	9660.27
489.92	9662.32
490.124	9676.65
490.328	9785.19
490.531	9437.04
490.735	9666.41
490.939	9668.46
491.143	9613.17
491.346	9772.91
491.55	9865.07
491.754	9834.35
491.958	9936.74
492.161	9881.45
492.365	9799.53
492.569	10000.23
492.772	9967.46
492.976	10329.95
493.18	10049.38
493.383	10303.33
493.587	10190.69
493.79	10362.72
493.994	10227.56
494.197	10372.96
494.401	10248.04
494.605	10454.88
494.808	10547.04
495.012	10723.16
495.215	10538.85
495.419	10848.09
495.622	10837.85
495.825	10710.88
496.029	10893.15
496.232	11052.89
496.436	11196.25
496.639	11335.51
496.843	11163.48
497.046	11577.17
497.249	11734.86
497.453	11913.03
497.656	11685.71
497.859	11951.95
498.063	11804.49
498.266	12255.05
498.469	12238.66
498.673	12128.07
498.876	12332.87
499.079	12650.3
499.282	12611.39
499.485	12928.83
499.689	12906.3
499.892	13207.35
500.095	13207.35
500.298	13363
500.501	13469.49
500.705	13762.35
500.908	13930.28
501.111	14042.92
501.314	14128.94
501.517	14155.56
501.72	14413.6
501.923	14425.89
502.126	14599.97
502.329	14810.91
502.532	14972.7
502.735	15032.09
502.938	15400.72
503.141	15496.98
503.344	15775.5
503.547	15810.32
503.75	15859.47
503.953	16344.84
504.156	16441.09
504.359	16412.42
504.562	16541.44
504.765	16723.71
504.968	16994.04
505.17	17161.98
505.373	17121.02
505.576	17495.8
505.779	17735.41
505.982	17704.69
506.185	18042.6
506.387	18169.58
506.59	18155.24
506.793	18781.92
506.996	18548.45
507.198	19140.32
507.401	18743.01
507.604	19392.22
507.807	19441.37
508.009	19556.05
508.212	19533.53
508.415	19750.61
508.617	20395.72
508.82	20393.67
509.022	20125.39
509.225	20829.89
509.428	20848.32
509.63	20713.16
509.833	21087.93
510.035	21526.2
510.238	21515.96
510.44	21778.1
510.643	21980.85
510.845	22464.17
511.048	22269.61
511.25	22525.61
511.453	22922.91
511.655	23414.43
511.858	23166.62
512.06	23428.76
512.262	23846.55
512.465	23611.03
512.667	24073.87
512.87	23938.71
513.072	24262.29
513.274	24508.04
513.477	25155.2
513.679	24860.29
513.881	25415.29
514.084	25173.63
514.286	25517.69
514.488	25761.4
514.69	26646.12
514.893	26125.94
515.095	26416.75
515.297	26812.01
515.499	26883.69
515.701	27324
515.904	27442.78
516.106	27489.88
516.308	27725.4
516.51	28167.76
516.712	27891.29
516.914	28403.28
517.116	28837.45
517.318	28780.1
517.52	28927.56
517.722	29077.06
517.925	29541.95
518.127	30115.38
518.329	30152.24
518.531	29988.41
518.733	30578.22
518.935	30606.89
519.136	30563.89
519.338	31047.21
519.54	31055.4
519.742	31350.31
519.944	31530.53
520.146	32192.02
520.348	32235.03
520.55	32413.2
520.752	32665.1
520.954	33080.84
521.155	32873.99
521.357	33189.38
521.559	33252.87
521.761	33680.89
521.963	33672.7
522.164	33914.36
522.366	34094.58
522.568	34461.17
522.77	34098.68
522.971	34590.19
523.173	34917.87
523.375	34622.96
523.576	34964.97
523.778	35184.1
523.98	35511.78
524.181	35347.94
524.383	35511.78
524.584	36287.96
524.786	35786.21
524.988	35765.73
525.189	35941.85
525.391	36531.67
525.592	36896.2
525.794	36416.98
525.995	36691.41
526.197	36820.43
526.398	36605.39
526.6	37326.28
526.801	37287.37
527.003	37252.55
527.204	37270.98
527.406	37858.75
527.607	37486.02
527.808	38016.44
528.01	37434.82
528.211	37889.47
528.412	38321.59
528.614	38151.61
528.815	38225.34
529.016	38540.72
529.218	38151.61
529.419	38471.09
529.62	38194.62
529.822	38243.77
530.023	38186.43
530.224	38741.42
530.425	38387.13
530.626	37836.22
530.828	38407.61
531.029	39069.1
531.23	38538.68
531.431	38483.38
531.632	38485.43
531.833	38847.92
532.035	38733.23
532.236	38962.61
532.437	39232.94
532.638	38456.76
532.839	39187.88
533.04	39099.82
533.241	38569.4
533.442	39505.32
533.643	39022
533.844	39103.92
534.045	39355.82
534.246	38604.21
534.447	39196.07
534.648	39044.52
534.849	39126.44
535.05	38700.47
535.251	39175.59
535.451	38690.23
535.652	38876.59
535.853	38786.48
536.054	39302.57
536.255	39011.76
536.456	38735.28
536.657	39517.6
536.857	38847.92
537.058	39034.28
537.259	39054.76
537.46	38786.48
537.66	39261.61
537.861	39116.2
538.062	38741.42
538.263	38843.82
538.463	39120.3
538.664	38475.19
538.865	38946.22
539.065	39300.52
539.266	38487.48
539.466	39294.38
539.667	38649.27
539.868	39396.77
540.068	39185.83
540.269	38669.75
540.469	38935.98
540.67	38348.21
540.87	38542.77
541.071	39003.56
541.271	38874.54
541.472	38604.21
541.672	38897.07
541.873	38264.25
542.073	38303.16
542.274	38890.93
542.474	38591.92
542.675	38987.18
542.875	38856.11
543.075	38591.92
543.276	38194.62
543.476	38921.65
543.676	38673.84
543.877	38950.32
544.077	38622.64
544.277	38266.3
544.478	38448.57
544.678	38546.87
544.878	38579.64
545.078	38378.93
545.279	38477.24
545.479	38444.47
545.679	38593.97
545.879	38380.98
546.079	38391.22
546.28	38548.92
546.48	38481.33
546.68	38618.55
546.88	38630.83
547.08	38419.89
547.28	38704.56
547.48	38073.79
547.68	38268.34
547.88	38002.11
548.081	38391.22
548.281	38215.1
548.481	38180.28
548.681	38155.71
548.881	38202.81
549.081	38286.78
549.28	38188.47
549.48	38245.82
549.68	38331.83
549.88	38544.82
550.08	38313.4
550.28	38274.49
550.48	37948.86
550.68	38501.81
550.88	37959.1
551.08	38200.76
551.279	37926.33
551.479	37752.26
551.679	38456.76
551.879	37973.44
552.079	38043.07
552.278	37742.02
552.478	38041.02
552.678	38110.65
552.878	37920.19
553.077	38022.59
553.277	37365.19
553.477	38436.28
553.676	37799.36
553.876	37942.72
554.076	37637.57
554.275	37936.57
554.475	37098.95
554.674	37508.55
554.874	37866.94
555.074	37811.65
555.273	37766.59
555.473	37828.03
555.672	37346.76
555.872	37633.47
556.071	37705.15
556.271	37508.55
556.47	37293.51
556.67	37266.89
556.869	37572.03
557.068	37330.37
557.268	37381.57
557.467	36849.1
557.667	37125.58
557.866	36842.96
558.065	37176.78
558.265	37107.15
558.464	36539.86
558.663	37365.19
558.863	37197.26
559.062	37653.95
559.261	36842.96
559.461	37275.08
559.66	36642.26
559.859	36957.64
560.058	36752.85
560.258	36990.41
560.457	36552.15
560.656	36580.82
560.855	36218.33
561.054	36658.64
561.253	36244.95
561.453	36632.02
561.652	36627.92
561.851	36742.61
562.05	36464.08
562.249	36158.94
562.448	36658.64
562.647	36378.07
562.846	36060.63
563.045	36099.55
563.244	35970.52
563.443	36382.16
563.642	35728.86
563.841	36023.77
564.04	35833.31
564.239	36488.66
564.438	35700.19
564.637	36103.64
564.836	35837.41
565.035	35139.05
565.234	35782.11
565.432	35773.92
565.631	35530.21
565.83	35894.75
566.029	35489.25
566.228	35431.91
566.427	35175.91
566.625	34938.35
566.824	34895.34
567.023	35227.11
567.222	34749.93
567.42	35634.66
567.619	35421.67
567.818	34647.54
568.016	35108.33
568.215	35259.88
568.414	35003.88
568.612	34913.77
568.811	34760.17
569.01	34700.78
569.208	34278.9
569.407	35018.22
569.605	34258.42
569.804	34477.55
570.002	34520.56
570.201	34663.92
570.4	34258.42
570.598	34346.48
570.797	34063.86
570.995	34121.21
571.193	33957.37
571.392	34223.61
571.59	34000.38
571.789	34151.93
571.987	33838.59
572.186	33795.58
572.384	33625.6
572.582	33762.81
572.781	33857.02
572.979	33592.83
573.177	33517.06
573.376	33594.88
573.574	33414.66
573.772	33349.12
573.971	33041.93
574.169	32853.51
574.367	32949.77
574.565	33588.74
574.763	33170.95
574.962	32988.68
575.16	32620.05
575.358	32947.72
575.556	32187.92
575.754	33076.74
575.952	32622.09
576.151	32835.08
576.349	32318.99
576.547	32607.76
576.745	32411.15
576.943	32593.42
577.141	32284.18
577.339	32335.38
577.537	32101.91
577.735	32065.05
577.933	31942.17
578.131	32245.27
578.329	31927.83
578.527	31802.91
578.725	31819.29
578.923	31854.11
579.121	31798.81
579.319	31542.81
579.516	31583.77
579.714	31651.36
579.912	31733.28
580.11	30895.66
580.308	31600.16
580.506	31356.45
580.704	30869.03
580.901	31335.97
581.099	31389.22
581.297	30881.32
581.495	30795.31
581.692	30823.98
581.89	30481.97
582.088	30817.83
582.285	30703.15
582.483	31065.64
582.681	31016.49
582.878	30064.18
583.076	29855.29
583.274	30287.41
583.471	29998.65
583.669	30449.2
583.866	30041.65
584.064	30238.26
584.262	29763.13
584.459	30090.8
584.657	29705.79
584.854	30393.9
585.052	29589.05
585.249	29584.96
585.447	29550.14
585.644	29066.82
585.841	29177.41
586.039	29453.89
586.236	29339.2
586.434	29152.84
586.631	29120.07
586.828	28921.41
587.026	28999.24
587.223	28714.57
587.42	28747.34
587.618	28911.17
587.815	28593.74
588.012	28511.82
588.21	28397.13
588.407	28864.07
588.604	28386.89
588.801	28378.7
588.999	28376.65
589.196	28159.57
589.393	28048.98
589.59	27932.25
589.787	28190.29
589.984	27903.57
590.182	27590.24
590.379	27690.59
590.576	27623
590.773	27547.23
590.97	27631.19
591.167	27397.73
591.364	27123.3
591.561	27596.38
591.758	26992.23
591.955	26797.67
592.152	27039.33
592.349	26689.13
592.546	26955.36
592.743	26699.37
592.94	26685.03
593.137	26869.35
593.334	26984.04
593.531	26144.37
593.727	26701.42
593.924	26510.96
594.121	26197.62
594.318	26537.58
594.515	25949.81
594.712	26351.21
594.908	25953.91
595.105	26080.88
595.302	25478.78
595.499	26107.51
595.696	25841.27
595.892	25710.2
596.089	25763.45
596.286	25636.47
596.482	25525.88
596.679	25394.81
596.876	25538.17
597.072	25161.34
597.269	25652.86
597.466	24936.07
597.662	25108.1
597.859	24995.46
598.055	24831.62
598.252	24592.01
598.448	24753.8
598.645	24643.21
598.841	24301.2
599.038	24688.26
599.234	24821.38
599.431	24559.24
599.627	24358.54
599.824	24530.57
600.02	24485.51
600.217	24047.25
600.413	23996.05
600.609	24071.82
600.806	23961.23
601.002	24202.89
601.198	23682.71
601.395	23611.03
601.591	23772.82
601.787	23639.7
601.984	23518.87
602.18	23664.28
602.376	23482.01
602.572	23170.72
602.769	23543.45
602.965	23049.89
603.161	23318.17
603.357	22982.31
603.553	22965.92
603.75	23129.76
603.946	23053.98
604.142	23041.7
604.338	22789.8
604.534	22847.14
604.73	22404.78
604.926	22478.51
605.122	22652.58
605.318	22742.69
605.514	22380.2
605.71	22253.23
605.906	22570.66
606.102	22150.83
606.298	22419.11
606.494	22259.37
606.69	21769.91
606.886	22075.06
607.082	21814.96
607.278	22095.53
607.474	21784.24
607.67	22124.21
607.866	21577.4
608.062	21872.31
608.257	21458.62
608.453	21620.41
608.649	21724.85
608.845	21761.72
609.041	21376.7
609.236	21425.85
609.432	21544.63
609.628	21673.65
609.824	21155.52
610.019	21112.51
610.215	21337.79
610.411	21143.23
610.606	20971.2
610.802	21098.17
610.998	20713.16
611.193	21157.57
611.389	21006.02
611.584	21290.68
611.78	20469.45
611.976	20838.08
612.171	21272.25
612.367	20729.54
612.562	20528.84
612.758	20598.47
612.953	20592.33
613.149	20614.85
613.344	20528.84
613.539	20784.83
613.735	20612.81
613.93	20670.15
614.126	20532.93
614.321	20631.24
614.517	20358.86
614.712	20393.67
614.907	20256.46
615.103	20764.36
615.298	20211.4
615.493	20571.85
615.688	20098.77
615.884	20584.13
616.079	19926.74
616.274	20141.77
616.47	20074.19
616.665	20190.92
616.86	19857.1
617.055	19975.89
617.25	19982.03
617.445	20221.64
617.641	19558.1
617.836	19783.38
618.031	19687.12
618.226	19676.88
618.421	19478.23
618.616	19732.18
618.811	19336.92
619.006	19578.58
619.201	19197.66
619.396	19439.32
619.591	19117.79
619.786	19408.6
619.981	18929.38
620.176	18999.01
620.371	18910.94
620.566	18853.6
620.761	18835.17
620.956	18745.06
621.151	18384.62
621.346	18765.54
621.541	18597.6
621.735	18484.97
621.93	18009.84
622.125	18038.51
622.32	17975.02
622.515	18194.15
622.709	18110.19
622.904	17925.87
623.099	17817.33
623.294	17786.61
623.488	17499.89
623.683	17547
623.878	17377.01
624.072	17256.18
624.267	17334.01
624.462	17327.86
624.656	17084.16
624.851	16756.48
625.046	17063.68
625.24	16914.17
625.435	16766.72
625.629	16688.9
625.824	16598.79
626.018	16572.16
626.213	16135.95
626.407	16381.7
626.602	15994.64
626.796	16303.88
626.991	16031.5
627.185	16158.47
627.38	15980.3
627.574	15695.63
627.768	15421.2
627.963	15601.43
628.157	15247.13
628.352	15499.03
628.546	15200.02
628.74	15476.5
628.935	15073.05
629.129	15175.45
629.323	15023.9
629.517	14718.75
629.712	14774.05
629.906	14604.07
630.1	14667.55
630.294	14645.02
630.489	14452.52
630.683	14616.35
630.877	14360.36
631.071	14378.79
631.265	14188.33
631.459	14165.8
631.653	14053.16
631.848	14161.7
632.042	13899.56
632.236	13864.75
632.43	13664.05
632.624	13809.45
632.818	13752.11
633.012	13424.44
633.206	13532.98
633.4	13623.09
633.594	13324.08
633.788	13641.52
633.982	13631.28
634.176	13365.04
634.369	13264.69
634.563	12992.31
634.757	13020.99
634.951	13012.79
635.145	12859.2
635.339	12951.35
635.533	12607.3
635.726	12810.04
635.92	12707.65
636.114	12672.83
636.308	12558.14
636.501	12392.26
636.695	12482.37
636.889	12181.32
637.083	12193.61
637.276	12253
637.47	12128.07
637.664	12191.56
637.857	11994.95
638.051	11980.62
638.244	11806.54
638.438	11867.98
638.632	11876.17
638.825	11820.88
639.019	11794.25
639.212	11470.67
639.406	11558.74
639.599	11401.04
639.793	11521.87
639.986	11317.08
640.18	11298.64
640.373	11192.15
640.567	11212.63
640.76	11165.53
640.954	11132.76
641.147	10997.59
641.34	11151.19
641.534	10993.5
641.727	10729.31
641.92	10923.87
642.114	10645.34
642.307	10864.47
642.5	10565.47
642.694	10487.65
642.887	10661.73
643.08	10506.08
643.273	10467.17
643.467	10458.98
643.66	10385.25
643.853	10254.18
644.046	10229.6
644.239	10356.58
644.432	10178.4
644.626	10114.92
644.819	9895.78
645.012	10030.95
645.205	9989.99
645.398	9719.66
645.591	9742.19
645.784	9860.97
645.977	9801.58
646.17	9676.65
646.363	9711.47
646.556	9416.56
646.749	9510.77
646.942	9338.74
647.135	9375.6
647.328	9271.15
647.521	9437.04
647.714	9285.49
647.907	9084.79
648.099	9265.01
648.292	9205.62
648.485	9213.81
648.678	9076.6
648.871	9086.84
649.064	9058.17
649.256	8990.58
649.449	8828.79
649.642	8890.23
649.835	8601.47
650.027	8779.64
650.22	8677.24
650.413	8474.49
650.605	8669.05
650.798	8402.82
650.991	8763.26
651.183	8368
651.376	8380.29
651.568	8499.07
651.761	8509.31
651.954	8193.92
652.146	8284.03
652.339	8335.23
652.531	8286.08
652.724	8085.38
652.916	8128.39
653.109	8075.14
653.301	7993.22
653.494	8146.82
653.686	7686.03
653.879	7878.54
654.071	7751.56
654.263	7802.76
654.456	7675.79
654.648	7683.98
654.84	7751.56
655.033	7544.72
655.225	7489.42
655.417	7489.42
655.61	7606.16
655.802	7384.98
655.994	7497.61
656.186	7550.86
656.379	7272.34
656.571	7409.55
656.763	7292.82
656.955	7235.47
657.148	7225.23
657.34	7081.88
657.532	7229.33
657.724	7104.4
657.916	6977.43
658.108	7094.16
658.3	6942.61
658.492	6877.08
658.684	6821.78
658.876	7061.4
659.068	6754.2
659.26	6959
659.452	6791.06
659.644	6797.21
659.836	6756.25
660.028	6723.48
660.22	6602.65
660.412	6862.74
660.604	6510.49
660.796	6666.14
660.988	6545.31
661.18	6516.64
661.372	6465.44
661.563	6416.29
661.755	6438.81
661.947	6344.61
662.139	6469.53
662.331	6463.39
662.522	6088.61
662.714	6182.82
662.906	5932.97
663.097	6209.44
663.289	5945.25
663.481	6047.65
663.673	6131.62
663.864	5963.68
664.056	5967.78
664.247	5986.21
664.439	5990.31
664.631	5906.34
664.822	5865.38
665.014	5994.4
665.205	5816.23
665.397	5779.37
665.588	5728.17
665.78	5638.06
665.971	5724.07
666.163	5787.56
666.354	5621.67
666.546	5572.52
666.737	5660.59
666.929	5650.35
667.12	5638.06
667.311	5523.37
667.503	5431.21
667.694	5566.38
667.885	5361.58
668.077	5437.36
668.268	5482.41
668.459	5427.12
668.651	5361.58
668.842	5332.91
669.033	5320.62
669.224	5183.41
669.416	5269.42
669.607	5185.46
669.798	5253.04
669.989	5287.86
670.18	5263.28
670.371	5224.37
670.563	4978.61
670.754	5300.14
670.945	5207.98
671.136	5009.33
671.327	5144.5
671.518	4839.35
671.709	4966.32
671.9	5052.34
672.091	4982.71
672.282	4988.85
672.473	5015.48
672.664	4896.69
672.855	4843.45
673.046	4847.54
673.237	4775.86
673.428	4808.63
673.619	4835.25
673.809	4695.99
674	4648.89
674.191	4751.29
674.382	4648.89
674.573	4650.94
674.764	4851.64
674.954	4618.17
675.145	4730.81
675.336	4505.53
675.527	4642.75
675.717	4642.75
675.908	4655.03
676.099	4655.03
676.289	4589.5
676.48	4523.96
676.671	4390.85
676.861	4458.43
677.052	4423.61
677.243	4446.14
677.433	4353.98
677.624	4487.1
677.814	4483
678.005	4429.76
678.195	4370.37
678.386	4353.98
678.576	4140.99
678.767	4310.97
678.957	4364.22
679.148	4446.14
679.338	4362.17
679.529	4399.04
679.719	4349.89
679.909	4378.56
680.1	4302.78
680.29	4241.34
680.481	4128.7
680.671	4349.89
680.861	4214.72
681.052	4214.72
681.242	4112.32
681.432	4159.42
681.622	4126.66
681.813	4276.16
682.003	4175.81
682.193	4067.27
682.383	4171.71
682.573	4247.49
682.764	4110.27
682.954	4030.4
683.144	4140.99
683.334	4011.97
683.524	3942.34
683.714	4005.83
683.904	3948.48
684.094	3958.72
684.284	4114.37
684.474	4020.16
684.664	3805.13
684.854	3960.77
685.044	3899.33
685.234	3952.58
685.424	3833.8
685.614	3815.37
685.804	3885
685.994	3850.18
686.184	3813.32
686.374	3794.89
686.564	3831.75
686.753	3889.09
686.943	3813.32
687.133	3788.74
687.323	3729.35
687.513	3760.07
687.702	3721.16
687.892	3770.31
688.082	3694.54
688.272	3786.69
688.461	3606.47
688.651	3723.21
688.841	3598.28
689.03	3518.41
689.22	3573.71
689.41	3483.59
689.599	3594.19
689.789	3448.78
689.979	3499.98
690.168	3504.07
690.358	3450.83
690.547	3442.64
690.737	3383.24
690.926	3413.96
691.116	3370.96
691.305	3520.46
691.495	3385.29
691.684	3368.91
691.874	3418.06
692.063	3397.58
692.252	3309.52
692.442	3217.36
692.631	3317.71
692.82	3225.55
693.01	3229.65
693.199	3155.92
693.388	3186.64
693.578	3198.93
693.767	3139.54
693.956	3047.38
694.146	3074
694.335	3076.05
694.524	3176.4
694.713	3051.47
694.902	3164.11
695.092	3043.28
695.281	2990.03
695.47	3043.28
695.659	3149.78
695.848	2979.79
696.037	2983.89
696.226	2904.02
696.415	2965.46
696.604	3043.28
696.793	2877.4
696.982	2926.55
697.171	2969.55
697.36	2932.69
697.549	2885.59
697.738	2858.96
697.927	2807.77
698.116	2838.48
698.305	2836.44
698.494	2828.24
698.683	2772.95
698.872	2867.16
699.061	2748.37
699.25	2736.09
699.438	2674.65
699.627	2731.99
699.816	2758.61
700.005	2670.55
700.193	2686.93
700.382	2723.8
700.571	2783.19
700.76	2588.63
700.948	2709.46
701.137	2766.81
701.326	2717.65
701.514	2590.68
701.703	2719.7
701.892	2566.1
702.08	2699.22
702.269	2652.12
702.457	2539.48
702.646	2736.09
702.834	2570.2
703.023	2588.63
703.212	2629.59
703.4	2457.56
703.589	2553.82
703.777	2525.15
703.965	2469.85
704.154	2559.96
704.342	2533.34
704.531	2574.3
704.719	2557.91
704.907	2623.45
705.096	2498.52
705.284	2478.04
705.472	2568.15
705.661	2443.23
705.849	2594.78
706.037	2592.73
706.226	2437.08
706.414	2531.29
706.602	2471.9
706.79	2414.56
706.979	2537.43
707.167	2531.29
707.355	2408.41
707.543	2408.41
707.731	2418.65
707.919	2441.18
708.107	2445.27
708.296	2377.69
708.484	2406.36
708.672	2570.2
708.86	2367.45
709.048	2410.46
709.236	2475.99
709.424	2361.31
709.612	2602.97
709.8	2420.7
709.988	2408.41
710.176	2607.06
710.364	2506.71
710.551	2312.16
710.739	2377.69
710.927	2353.12
711.115	2306.01
711.303	2430.94
711.491	2441.18
711.679	2320.35
711.866	2275.29
712.054	2439.13
712.242	2349.02
712.43	2402.27
712.617	2441.18
712.805	2408.41
712.993	2367.45
713.181	2338.78
713.368	2422.75
713.556	2353.12
713.744	2406.36
713.931	2373.6
714.119	2342.88
714.306	2381.79
714.494	2297.82
714.682	2435.03
714.869	2283.49
715.057	2404.32
715.244	2273.25
715.432	2449.37
715.619	2420.7
715.807	2306.01
715.994	2351.07
716.182	2404.32
716.369	2394.08
716.556	2314.2
716.744	2367.45
716.931	2400.22
717.119	2338.78
717.306	2394.08
717.493	2396.12
717.681	2314.2
717.868	2404.32
718.055	2392.03
718.242	2260.96
718.43	2367.45
718.617	2367.45
718.804	2316.25
718.991	2275.29
719.179	2322.4
719.366	2293.73
719.553	2453.47
719.74	2314.2
719.927	2404.32
720.114	2283.49
720.301	2349.02
720.488	2236.38
720.676	2353.12
720.863	2379.74
721.05	2394.08
721.237	2459.61
721.424	2344.92
721.611	2402.27
721.798	2291.68
721.985	2287.58
722.172	2351.07
722.358	2387.93
722.545	2400.22
722.732	2242.53
722.919	2478.04
723.106	2273.25
723.293	2240.48
723.48	2256.86
723.667	2408.41
723.853	2328.54
724.04	2443.23
724.227	2303.96
724.414	2330.59
724.6	2222.05
724.787	2371.55
724.974	2318.3
725.161	2375.64
725.347	2396.12
725.534	2273.25
725.72	2322.4
725.907	2392.03
726.094	2418.65
726.28	2295.77
726.467	2373.6
726.653	2424.8
726.84	2303.96
727.027	2432.99
727.213	2310.11
727.4	2443.23
727.586	2371.55
727.773	2396.12
727.959	2420.7
728.145	2430.94
728.332	2332.64
728.518	2369.5
728.705	2394.08
728.891	2387.93
729.077	2330.59
729.264	2443.23
729.45	2377.69
729.636	2457.56
729.823	2355.16
730.009	2392.03
730.195	2387.93
730.382	2330.59
730.568	2506.71
730.754	2361.31
730.94	2402.27
731.126	2516.95
731.313	2422.75
731.499	2519
731.685	2412.51
731.871	2514.91
732.057	2402.27
732.243	2422.75
732.429	2373.6
732.615	2475.99
732.801	2557.91
732.987	2373.6
733.173	2447.32
733.359	2529.24
733.545	2535.39
733.731	2455.51
733.917	2465.75
734.103	2463.71
734.289	2484.19
734.475	2547.67
734.661	2605.02
734.847	2521.05
735.033	2525.15
735.219	2451.42
735.404	2584.54
735.59	2568.15
735.776	2465.75
735.962	2510.81
736.148	2613.21
736.333	2598.87
736.519	2482.14
736.705	2504.67
736.89	2623.45
737.076	2516.95
737.262	2504.67
737.447	2566.1
737.633	2510.81
737.819	2582.49
738.004	2547.67
738.19	2543.58
738.375	2541.53
738.561	2662.36
738.747	2631.64
738.932	2344.92
739.118	2600.92
739.303	2488.28
739.489	2592.73
739.674	2475.99
739.859	2615.26
740.045	2521.05
740.23	2555.86
740.416	2545.63
740.601	2613.21
740.786	2609.11
740.972	2566.1
741.157	2605.02
741.342	2549.72
741.528	2529.24
741.713	2475.99
741.898	2529.24
742.084	2576.34
742.269	2562.01
742.454	2609.11
742.639	2574.3
742.824	2516.95
743.01	2484.19
743.195	2688.98
743.38	2478.04
743.565	2641.88
743.75	2445.27
743.935	2504.67
744.12	2570.2
744.305	2482.14
744.49	2531.29
744.675	2377.69
744.86	2527.19
745.045	2494.43
745.23	2416.6
745.415	2455.51
745.6	2424.8
745.785	2453.47
745.97	2402.27
746.155	2275.29
746.34	2525.15
746.525	2465.75
746.71	2475.99
746.895	2416.6
747.079	2414.56
747.264	2379.74
747.449	2369.5
747.634	2287.58
747.819	2373.6
748.003	2279.39
748.188	2369.5
748.373	2338.78
748.557	2371.55
748.742	2418.65
748.927	2324.44
749.111	2344.92
749.296	2322.4
749.481	2258.91
749.665	2287.58
749.85	2174.94
750.034	2226.14
750.219	2213.85
750.404	2412.51
750.588	2250.72
750.773	2181.09
750.957	2209.76
751.141	2154.46
751.326	2275.29
751.51	2109.41
751.695	2152.42
751.879	2131.94
752.064	2310.11
752.248	2088.93
752.432	2297.82
752.617	2125.79
752.801	2111.46
752.985	2172.89
753.17	2162.65
753.354	2093.02
753.538	2170.85
753.722	2047.97
753.907	2011.11
754.091	2029.54
754.275	2021.35
754.459	1908.71
754.643	2090.98
754.828	1998.82
755.012	2056.16
755.196	2002.91
755.38	1937.38
755.564	1964
755.748	1894.37
755.932	1986.53
756.116	1912.8
756.3	1939.43
756.484	1994.72
756.668	1812.45
756.852	1855.46
757.036	1910.75
757.22	1877.99
757.404	1855.46
757.588	1757.16
757.772	1802.21
757.956	1718.25
758.14	1880.04
758.323	1753.06
758.507	1798.12
758.691	1802.21
758.875	1789.92
759.059	1679.33
759.242	1656.81
759.426	1689.57
759.61	1699.81
759.794	1679.33
759.977	1761.25
760.161	1822.69
760.345	1710.05
760.528	1699.81
760.712	1699.81
760.895	1574.89
761.079	1773.54
761.263	1705.96
761.446	1685.48
761.63	1621.99
761.813	1736.68
761.997	1578.98
762.18	1507.31
762.364	1560.55
762.547	1497.07
762.731	1607.66
762.914	1617.9
763.098	1587.18
763.281	1521.64
763.464	1521.64
763.648	1492.97
763.831	1595.37
764.015	1589.22
764.198	1554.41
764.381	1517.54
764.564	1474.54
764.748	1535.98
764.931	1533.93
765.114	1449.96
765.297	1599.46
765.481	1474.54
765.664	1490.92
765.847	1472.49
766.03	1550.31
766.213	1331.18
766.397	1460.2
766.58	1449.96
766.763	1429.48
766.946	1441.77
767.129	1331.18
767.312	1468.39
767.495	1439.72
767.678	1495.02
767.861	1370.09
768.044	1351.66
768.227	1282.03
768.41	1388.52
768.593	1456.11
768.776	1468.39
768.959	1355.76
769.142	1394.67
769.324	1292.27
769.507	1415.15
769.69	1361.9
769.873	1222.64
770.056	1286.12
770.239	1398.76
770.421	1249.26
770.604	1359.85
770.787	1325.04
770.97	1366
771.152	1298.41
771.335	1284.08
771.518	1249.26
771.7	1249.26
771.883	1388.52
772.066	1200.11
772.248	1271.79
772.431	1271.79
772.613	1185.77
772.796	1179.63
772.978	1286.12
773.161	1275.88
773.343	1148.91
773.526	1269.74
773.708	1159.15
773.891	1269.74
774.073	1091.57
774.256	1189.87
774.438	1179.63
774.621	1136.62
774.803	1234.93
774.985	1114.1
775.168	1142.77
775.35	1023.98
775.532	1167.34
775.715	1193.97
775.897	1036.27
776.079	1140.72
776.261	1050.61
776.444	966.64
776.626	976.88
776.808	1034.22
776.99	1017.84
777.173	1021.94
777.355	1028.08
777.537	1091.57
777.719	919.54
777.901	1007.6
778.083	995.31
778.265	845.81
778.447	946.16
778.629	921.59
778.811	905.2
778.993	1001.46
779.175	958.45
779.357	991.22
779.539	915.44
779.721	903.15
779.903	1058.8
780.085	858.1
780.267	970.74
780.449	960.5
780.631	880.63
780.812	913.39
780.994	835.57
781.176	925.68
781.358	858.1
781.54	813.04
781.721	901.11
781.903	919.54
782.085	894.96
782.267	800.76
782.448	813.04
782.63	825.33
782.812	817.14
782.993	843.76
783.175	813.04
783.357	753.65
783.538	794.61
783.72	808.95
783.901	677.88
784.083	788.47
784.264	770.04
784.446	827.38
784.627	735.22
784.809	761.84
784.99	819.19
785.172	651.25
785.353	696.31
785.535	620.53
785.716	702.45
785.897	671.73
786.079	659.45
786.26	681.97
786.441	657.4
786.623	702.45
786.804	583.67
786.985	688.12
787.167	751.6
787.348	585.72
787.529	591.86
787.71	657.4
787.891	655.35
788.073	647.16
788.254	649.21
788.435	618.49
788.616	684.02
788.797	608.25
788.978	538.62
789.159	632.82
789.34	600.05
789.522	552.95
789.703	563.19
789.884	542.71
790.065	628.73
790.246	604.15
790.427	567.29
790.607	616.44
790.788	598.01
790.969	604.15
791.15	575.48
791.331	507.9
791.512	503.8
791.693	483.32
791.874	571.38
792.054	544.76
792.235	415.74
792.416	475.13
792.597	456.7
792.778	516.09
792.958	524.28
793.139	532.47
793.32	511.99
793.5	475.13
793.681	540.66
793.862	477.18
794.042	528.38
794.223	473.08
794.404	380.92
794.584	432.12
794.765	473.08
794.945	511.99
795.126	391.16
795.306	471.03
795.487	440.31
795.667	430.07
795.848	358.39
796.028	444.41
796.209	438.27
796.389	464.89
796.57	442.36
796.75	372.73
796.93	391.16
797.111	327.68
797.291	411.64
797.471	419.83
797.652	448.51
797.832	417.79
798.012	409.59
798.192	387.07
798.373	446.46
798.553	430.07
798.733	389.11
798.913	458.75
799.093	395.26
799.274	370.68
799.454	370.68
799.634	311.29
799.814	438.27
799.994	364.54
800.174	350.2
800.354	434.17
800.534	358.39
800.714	395.26
800.894	382.97
801.074	284.67
801.254	362.49
801.434	307.2
801.614	364.54
801.794	313.34
801.974	983.03
802.154	348.15
802.334	374.78
802.514	303.1
802.693	323.58
802.873	262.14
803.053	405.5
803.233	251.9
803.413	339.96
803.592	358.39
803.772	350.2
803.952	327.68
804.131	239.61
804.311	358.39
804.491	368.63
804.67	266.24
804.85	225.28
805.03	364.54
805.209	280.57
805.389	317.44
805.568	305.15
805.748	317.44
805.928	303.1
806.107	374.78
806.287	305.15
806.466	274.43
806.646	270.33
806.825	253.95
807.004	258.04
807.184	296.96
807.363	278.52
807.543	286.72
807.722	294.91
807.901	296.96
808.081	317.44
808.26	219.13
808.439	301.05
808.619	233.47
808.798	296.96
808.977	227.32
809.156	280.57
809.336	270.33
809.515	278.52
809.694	198.65
809.873	280.57
810.052	331.77
810.231	303.1
810.411	294.91
810.59	280.57
810.769	268.28
810.948	260.09
811.127	227.32
811.306	266.24
811.485	315.39
811.664	253.95
811.843	184.32
812.022	247.8
812.201	305.15
812.38	215.04
812.559	309.24
812.737	262.14
812.916	212.99
813.095	202.75
813.274	268.28
813.453	223.23
813.632	233.47
813.811	284.67
813.989	200.7
814.168	208.89
814.347	227.32
814.526	245.76
814.704	204.8
814.883	174.08
815.062	172.03
815.24	282.62
815.419	190.46
815.598	278.52
815.776	212.99
815.955	294.91
816.133	149.5
816.312	208.89
816.49	212.99
816.669	114.69
816.847	180.22
817.026	202.75
817.204	143.36
817.383	176.13
817.561	196.61
817.74	239.61
817.918	212.99
818.097	217.08
818.275	198.65
818.453	190.46
818.632	223.23
818.81	208.89
818.988	229.37
819.167	151.55
819.345	215.04
819.523	167.93
819.701	167.93
819.879	221.18
820.058	133.12
820.236	208.89
820.414	184.32
820.592	217.08
820.77	102.4
820.948	161.79
821.127	143.36
821.305	174.08
821.483	145.41
821.661	198.65
821.839	249.85
822.017	208.89
822.195	159.74
822.373	153.6
822.551	86.01
822.729	231.42
822.907	135.17
823.085	190.46
823.262	188.41
823.44	190.46
823.618	96.25
823.796	186.37
823.974	147.45
824.152	182.27
824.329	192.51
824.507	131.07
824.685	151.55
824.863	153.6
825.04	75.77
825.218	102.4
825.396	118.78
825.574	149.5
825.751	200.7
825.929	174.08
826.107	129.02
826.284	106.49
826.462	200.7
826.639	92.16
826.817	141.31
826.994	135.17
827.172	192.51
827.349	102.4
827.527	112.64
827.704	147.45
827.882	190.46
828.059	172.03
828.237	71.68
828.414	135.17
828.591	24.58
828.769	83.97
828.946	81.92
829.124	75.77
829.301	200.7
829.478	161.79
829.655	167.93
829.833	180.22
830.01	65.54
830.187	73.73
830.364	161.79
830.542	202.75
830.719	182.27
830.896	102.4
831.073	102.4
831.25	112.64
831.427	167.93
831.604	112.64
831.782	67.58
831.959	151.55
832.136	122.88
832.313	63.49
832.49	90.11
832.667	108.54
832.844	202.75
833.021	106.49
833.198	83.97
833.374	145.41
833.551	139.26
833.728	124.93
833.905	104.45
834.082	92.16
834.259	47.1
834.436	122.88
834.612	112.64
834.789	75.77
834.966	145.41
835.143	69.63
835.319	75.77
835.496	86.01
835.673	131.07
835.85	141.31
836.026	38.91
836.203	141.31
836.38	53.25
836.556	94.21
836.733	106.49
836.909	147.45
837.086	139.26
837.262	100.35
837.439	94.21
837.616	77.82
837.792	88.06
837.968	88.06
838.145	81.92
838.321	131.07
838.498	98.3
838.674	102.4
838.851	151.55
839.027	110.59
839.203	53.25
839.38	110.59
839.556	73.73
839.732	159.74
839.909	51.2
840.085	112.64
840.261	40.96
840.437	75.77
840.614	14.34
840.79	149.5
840.966	102.4
841.142	51.2
841.318	102.4
841.494	79.87
841.671	36.86
841.847	178.17
842.023	102.4
842.199	86.01
842.375	131.07
842.551	71.68
842.727	135.17
842.903	165.89
843.079	2.05
843.255	147.45
843.431	129.02
843.607	108.54
843.783	10.24
843.959	94.21
844.134	51.2
844.31	147.45
844.486	102.4
844.662	18.43
844.838	83.97
845.013	57.34
845.189	77.82
845.365	8.19
845.541	83.97
845.716	0
845.892	92.16
846.068	49.15
846.244	-22.53
846.419	63.49
846.595	51.2
846.77	75.77
846.946	94.21
847.122	51.2
847.297	22.53
847.473	-4.1
847.648	-10.24
847.824	108.54
847.999	75.77
848.175	57.34
848.35	126.97
848.526	49.15
848.701	22.53
848.876	86.01
849.052	57.34
849.227	32.77
849.403	-40.96
849.578	69.63
849.753	65.54
849.929	57.34
850.104	-51.2
850.279	32.77
850.454	79.87
850.63	14.34
850.805	116.73
850.98	120.83
851.155	-4.1
851.33	71.68
851.505	40.96
851.681	106.49
851.856	-2.05
852.031	45.06
852.206	20.48
852.381	69.63
852.556	45.06
852.731	40.96
852.906	53.25
853.081	98.3
853.256	118.78
853.431	4.1
853.606	55.3
853.781	30.72
853.956	0
854.131	79.87
854.305	-51.2
854.48	26.62
854.655	28.67
854.83	88.06
855.005	28.67
855.18	57.34
855.354	30.72
855.529	26.62
855.704	40.96
855.879	20.48
856.053	20.48
856.228	26.62
856.403	38.91
856.577	61.44
856.752	22.53
856.926	59.39
857.101	79.87
857.276	-36.86
857.45	6.14
857.625	49.15
857.799	79.87
857.974	10.24
858.148	-63.49
858.323	67.58
858.497	83.97
858.672	71.68
858.846	14.34
859.02	77.82
859.195	22.53
859.369	102.4
859.543	-10.24
859.718	75.77
859.892	43.01
860.066	110.59
860.241	4.1
860.415	32.77
860.589	12.29
860.763	83.97
860.938	114.69
861.112	67.58
861.286	47.1
861.46	77.82
861.634	-26.62
861.808	28.67
861.982	10.24
862.157	4.1
862.331	26.62
862.505	-2.05
862.679	10.24
862.853	0
863.027	38.91
863.201	20.48
863.375	28.67
863.549	63.49
863.722	67.58
863.896	75.77
864.07	10.24
864.244	53.25
864.418	-2.05
864.592	34.82
864.766	22.53
864.939	40.96
865.113	59.39
865.287	126.97
865.461	59.39
865.634	69.63
865.808	-8.19
865.982	28.67
866.156	20.48
866.329	-45.06
866.503	18.43
866.676	47.1
866.85	-47.1
867.024	43.01
867.197	65.54
867.371	20.48
867.544	-53.25
867.718	32.77
867.891	4.1
868.065	-4.1
868.238	20.48
868.412	24.58
868.585	18.43
868.759	-16.38
868.932	20.48
869.105	28.67
869.279	32.77
869.452	-4.1
869.625	24.58
869.799	34.82
869.972	-28.67
870.145	0
870.319	69.63
870.492	94.21
870.665	8.19
870.838	38.91
871.011	26.62
871.185	-45.06
871.358	0
871.531	-12.29
871.704	43.01
871.877	38.91
872.05	-6.14
872.223	43.01
872.396	20.48
872.569	24.58
872.742	53.25
872.915	69.63
873.088	77.82
873.261	14.34
873.434	-38.91
873.607	43.01
873.78	28.67
873.953	-81.92
874.126	65.54
874.299	63.49
874.471	-4.1
874.644	-36.86
874.817	55.3
874.99	45.06
875.163	10.24
875.335	22.53
875.508	12.29
875.681	28.67
875.853	-26.62
876.026	-6.14
876.199	-6.14
876.371	55.3
876.544	-38.91
876.717	83.97
876.889	36.86
877.062	-2.05
877.234	2.05
877.407	45.06
877.579	57.34
877.752	67.58
877.924	71.68
878.097	12.29
878.269	81.92
878.442	26.62
878.614	55.3
878.786	30.72
878.959	12.29
879.131	-2.05
879.303	-14.34
879.476	57.34
879.648	43.01
879.82	45.06
879.993	45.06
880.165	81.92
880.337	-83.97
880.509	83.97
880.681	-18.43
880.854	-18.43
881.026	20.48
881.198	92.16
881.37	40.96
881.542	8.19
881.714	40.96
881.886	53.25
882.058	32.77
882.23	94.21
882.402	-86.01
882.574	8.19
882.746	10.24
882.918	79.87
883.09	65.54
883.262	-43.01
883.434	18.43
883.606	-67.58
883.778	-12.29
883.95	102.4
884.122	0
884.293	81.92
884.465	-12.29
884.637	169.98
884.809	14.34
884.98	-18.43
885.152	-12.29
885.324	71.68
885.496	-18.43
885.667	83.97
885.839	20.48
886.011	4.1
886.182	-14.34
886.354	69.63
886.525	96.25
886.697	-28.67
886.869	47.1
887.04	-2.05
887.212	30.72
887.383	100.35
887.555	10.24
887.726	-18.43
887.897	-40.96
888.069	24.58
888.24	43.01
888.412	-22.53
888.583	-32.77
888.754	51.2
888.926	-43.01
889.097	-18.43
889.268	4.1
889.44	26.62
889.611	12.29
889.782	-28.67
889.953	32.77
890.125	8.19
890.296	-45.06
890.467	57.34
890.638	-55.3
890.809	-55.3
890.98	4.1
891.151	30.72
891.323	0
891.494	6.14
891.665	12.29
891.836	18.43
892.007	63.49
892.178	20.48
892.349	2.05
892.52	59.39
892.691	-16.38
892.862	22.53
893.032	-8.19
893.203	-79.87
893.374	69.63
893.545	69.63
893.716	-28.67
893.887	57.34
894.057	-14.34
894.228	4.1
894.399	0
894.57	8.19
894.74	22.53
894.911	43.01
895.082	30.72
895.253	4.1
895.423	-75.77
895.594	47.1
895.764	-55.3
895.935	-118.78
896.106	-14.34
896.276	-40.96
896.447	-28.67
896.617	-73.73
896.788	4.1
896.958	-34.82
897.129	65.54
897.299	26.62
897.47	36.86
897.64	36.86
897.81	-51.2
897.981	32.77
898.151	20.48
898.322	45.06
898.492	88.06
898.662	-49.15
898.832	28.67
899.003	22.53
899.173	40.96
899.343	-6.14
899.513	69.63
