Data from USB4F104151__58__12-41-55-790.txt Node

Date: Fri Mar 14 12:41:55 EDT 2025
User: louis
Spectrometer: USB4F10415
Trigger mode: 4
Integration Time (sec): 3.000000E-2
Scans to average: 1
Electric dark correction enabled: true
Nonlinearity correction enabled: false
Boxcar width: 0
XAxis mode: Wavelengths
Number of Pixels in Spectrum: 3648
>>>>>Begin Spectral Data<<<<<
178.204	-146.09
178.424	-146.09
178.644	-146.09
178.864	-148.14
179.084	-150.18
179.304	42.32
179.524	-53.93
179.744	52.56
179.964	-2.73
180.184	-17.07
180.404	-10.92
180.624	66.9
180.844	77.14
181.064	-66.22
181.283	9.56
181.503	-101.03
181.723	3.41
181.943	-70.31
182.163	-8.87
182.383	-25.26
182.602	66.9
182.822	17.75
183.042	-74.41
183.262	-68.27
183.482	23.89
183.701	25.94
183.921	38.23
184.141	13.65
184.361	5.46
184.58	25.94
184.8	58.71
185.02	-72.36
185.239	73.04
185.459	77.14
185.679	32.08
185.898	-0.68
186.118	21.84
186.338	-19.11
186.557	34.13
186.777	-27.31
186.997	15.7
187.216	-33.45
187.436	132.44
187.655	-6.83
187.875	21.84
188.095	1.37
188.314	50.52
188.534	38.23
188.753	-6.83
188.973	52.56
189.192	122.2
189.412	21.84
189.631	-29.35
189.851	62.8
190.07	68.95
190.29	7.51
190.509	1.37
190.729	68.95
190.948	91.48
191.168	130.39
191.387	114
191.607	36.18
191.826	30.04
192.045	9.56
192.265	-29.35
192.484	32.08
192.704	27.99
192.923	-0.68
193.142	144.72
193.362	54.61
193.581	56.66
193.8	81.24
194.02	11.61
194.239	9.56
194.458	-12.97
194.678	11.61
194.897	3.41
195.116	42.32
195.335	15.7
195.555	44.37
195.774	32.08
195.993	54.61
196.212	38.23
196.432	36.18
196.651	13.65
196.87	38.23
197.089	30.04
197.308	-8.87
197.528	25.94
197.747	71
197.966	25.94
198.185	42.32
198.404	46.42
198.623	93.52
198.842	109.91
199.062	73.04
199.281	99.67
199.5	-12.97
199.719	19.8
199.938	30.04
200.157	34.13
200.376	-23.21
200.595	101.72
200.814	56.66
201.033	73.04
201.252	17.75
201.471	7.51
201.69	48.47
201.909	21.84
202.128	-31.4
202.347	17.75
202.566	-23.21
202.785	-0.68
203.004	32.08
203.223	107.86
203.442	-6.83
203.661	-4.78
203.879	81.24
204.098	17.75
204.317	-64.17
204.536	46.42
204.755	25.94
204.974	85.33
205.193	3.41
205.411	111.96
205.63	-19.11
205.849	23.89
206.068	17.75
206.287	1.37
206.505	27.99
206.724	7.51
206.943	17.75
207.162	23.89
207.381	42.32
207.599	21.84
207.818	-15.02
208.037	27.99
208.255	56.66
208.474	48.47
208.693	60.76
208.911	30.04
209.13	40.28
209.349	30.04
209.567	7.51
209.786	40.28
210.005	34.13
210.223	1.37
210.442	-72.36
210.661	71
210.879	66.9
211.098	64.85
211.316	-4.78
211.535	99.67
211.753	-17.07
211.972	7.51
212.191	-2.73
212.409	5.46
212.628	105.81
212.846	-19.11
213.065	68.95
213.283	93.52
213.502	-23.21
213.72	30.04
213.938	-4.78
214.157	89.43
214.375	81.24
214.594	50.52
214.812	62.8
215.031	36.18
215.249	40.28
215.467	19.8
215.686	-10.92
215.904	34.13
216.122	21.84
216.341	11.61
216.559	68.95
216.778	77.14
216.996	97.62
217.214	126.29
217.432	23.89
217.651	-39.59
217.869	-49.83
218.087	23.89
218.306	1.37
218.524	-35.5
218.742	-31.4
218.96	77.14
219.179	-82.6
219.397	99.67
219.615	185.68
219.833	68.95
220.051	-0.68
220.27	19.8
220.488	99.67
220.706	21.84
220.924	-25.26
221.142	-6.83
221.36	27.99
221.578	56.66
221.796	19.8
222.015	40.28
222.233	-21.16
222.451	62.8
222.669	1.37
222.887	21.84
223.105	56.66
223.323	52.56
223.541	15.7
223.759	27.99
223.977	27.99
224.195	73.04
224.413	30.04
224.631	77.14
224.849	68.95
225.067	97.62
225.285	-39.59
225.503	-0.68
225.721	-47.79
225.939	-27.31
226.157	-39.59
226.375	48.47
226.592	44.37
226.81	-8.87
227.028	-58.03
227.246	56.66
227.464	17.75
227.682	17.75
227.9	-15.02
228.117	81.24
228.335	32.08
228.553	95.57
228.771	-4.78
228.989	13.65
229.206	38.23
229.424	-23.21
229.642	44.37
229.86	-8.87
230.077	60.76
230.295	11.61
230.513	44.37
230.731	-27.31
230.948	13.65
231.166	19.8
231.384	1.37
231.601	-51.88
231.819	46.42
232.037	27.99
232.254	71
232.472	23.89
232.689	-45.74
232.907	-25.26
233.125	-2.73
233.342	-4.78
233.56	50.52
233.777	50.52
233.995	79.19
234.213	60.76
234.43	30.04
234.648	-2.73
234.865	23.89
235.083	21.84
235.3	68.95
235.518	71
235.735	-4.78
235.953	44.37
236.17	73.04
236.388	36.18
236.605	32.08
236.822	68.95
237.04	30.04
237.257	11.61
237.475	-35.5
237.692	46.42
237.909	25.94
238.127	46.42
238.344	48.47
238.562	38.23
238.779	46.42
238.996	9.56
239.214	34.13
239.431	142.68
239.648	-15.02
239.865	89.43
240.083	13.65
240.3	-23.21
240.517	-8.87
240.735	58.71
240.952	54.61
241.169	17.75
241.386	-10.92
241.603	-4.78
241.821	17.75
242.038	56.66
242.255	25.94
242.472	19.8
242.689	19.8
242.907	42.32
243.124	58.71
243.341	71
243.558	34.13
243.775	-19.11
243.992	44.37
244.209	118.1
244.426	66.9
244.643	95.57
244.86	-0.68
245.078	38.23
245.295	62.8
245.512	25.94
245.729	46.42
245.946	54.61
246.163	11.61
246.38	81.24
246.597	23.89
246.814	23.89
247.031	23.89
247.248	93.52
247.464	46.42
247.681	68.95
247.898	9.56
248.115	15.7
248.332	50.52
248.549	32.08
248.766	36.18
248.983	81.24
249.2	-19.11
249.417	42.32
249.633	5.46
249.85	25.94
250.067	7.51
250.284	17.75
250.501	62.8
250.717	68.95
250.934	-10.92
251.151	30.04
251.368	40.28
251.585	66.9
251.801	48.47
252.018	5.46
252.235	32.08
252.451	-49.83
252.668	-33.45
252.885	68.95
253.102	64.85
253.318	30.04
253.535	-21.16
253.752	48.47
253.968	32.08
254.185	7.51
254.401	30.04
254.618	-15.02
254.835	21.84
255.051	71
255.268	71
255.484	7.51
255.701	27.99
255.917	-43.69
256.134	-6.83
256.351	23.89
256.567	-10.92
256.784	64.85
257	-66.22
257.217	64.85
257.433	32.08
257.65	73.04
257.866	83.28
258.082	-0.68
258.299	-6.83
258.515	83.28
258.732	54.61
258.948	19.8
259.165	50.52
259.381	15.7
259.597	73.04
259.814	-10.92
260.03	71
260.246	40.28
260.463	46.42
260.679	42.32
260.895	73.04
261.112	50.52
261.328	79.19
261.544	1.37
261.761	54.61
261.977	48.47
262.193	-74.41
262.409	40.28
262.626	-2.73
262.842	-4.78
263.058	9.56
263.274	36.18
263.49	71
263.707	52.56
263.923	11.61
264.139	11.61
264.355	7.51
264.571	83.28
264.787	-31.4
265.004	52.56
265.22	58.71
265.436	-25.26
265.652	66.9
265.868	21.84
266.084	7.51
266.3	11.61
266.516	-25.26
266.732	71
266.948	85.33
267.164	32.08
267.38	54.61
267.596	-2.73
267.812	66.9
268.028	38.23
268.244	9.56
268.46	-6.83
268.676	5.46
268.892	27.99
269.108	44.37
269.324	21.84
269.54	5.46
269.756	3.41
269.972	19.8
270.188	5.46
270.403	-82.6
270.619	99.67
270.835	44.37
271.051	68.95
271.267	34.13
271.483	-68.27
271.698	52.56
271.914	101.72
272.13	13.65
272.346	-6.83
272.562	-60.07
272.777	27.99
272.993	21.84
273.209	40.28
273.425	11.61
273.64	60.76
273.856	17.75
274.072	40.28
274.287	-12.97
274.503	54.61
274.719	-4.78
274.934	11.61
275.15	-64.17
275.366	5.46
275.581	46.42
275.797	-33.45
276.012	42.32
276.228	13.65
276.444	36.18
276.659	23.89
276.875	54.61
277.09	-2.73
277.306	36.18
277.521	36.18
277.737	38.23
277.952	42.32
278.168	25.94
278.383	11.61
278.599	7.51
278.814	142.68
279.03	-23.21
279.245	9.56
279.461	-19.11
279.676	54.61
279.892	-37.55
280.107	5.46
280.322	40.28
280.538	52.56
280.753	44.37
280.969	3.41
281.184	27.99
281.399	93.52
281.615	46.42
281.83	97.62
282.045	-2.73
282.26	52.56
282.476	3.41
282.691	46.42
282.906	60.76
283.122	30.04
283.337	23.89
283.552	40.28
283.767	-39.59
283.983	34.13
284.198	3.41
284.413	-21.16
284.628	-41.64
284.843	-31.4
285.058	99.67
285.274	64.85
285.489	-33.45
285.704	81.24
285.919	48.47
286.134	-66.22
286.349	27.99
286.564	23.89
286.779	34.13
286.995	109.91
287.21	-43.69
287.425	23.89
287.64	32.08
287.855	52.56
288.07	34.13
288.285	56.66
288.5	77.14
288.715	85.33
288.93	-12.97
289.145	-6.83
289.36	60.76
289.575	50.52
289.79	81.24
290.004	5.46
290.219	23.89
290.434	1.37
290.649	27.99
290.864	7.51
291.079	60.76
291.294	-21.16
291.509	-31.4
291.724	-15.02
291.938	85.33
292.153	105.81
292.368	48.47
292.583	25.94
292.798	79.19
293.012	52.56
293.227	13.65
293.442	46.42
293.657	34.13
293.871	79.19
294.086	32.08
294.301	36.18
294.516	19.8
294.73	17.75
294.945	-6.83
295.16	11.61
295.374	87.38
295.589	38.23
295.804	-29.35
296.018	-12.97
296.233	3.41
296.447	40.28
296.662	-33.45
296.877	91.48
297.091	-0.68
297.306	-25.26
297.52	9.56
297.735	93.52
297.949	54.61
298.164	93.52
298.378	64.85
298.593	-0.68
298.807	-6.83
299.022	38.23
299.236	77.14
299.451	32.08
299.665	21.84
299.88	-6.83
300.094	30.04
300.309	-0.68
300.523	79.19
300.737	-23.21
300.952	9.56
301.166	97.62
301.381	56.66
301.595	1.37
301.809	79.19
302.024	11.61
302.238	52.56
302.452	44.37
302.667	21.84
302.881	66.9
303.095	89.43
303.309	13.65
303.524	30.04
303.738	48.47
303.952	77.14
304.166	32.08
304.381	52.56
304.595	36.18
304.809	-15.02
305.023	42.32
305.237	3.41
305.452	-31.4
305.666	7.51
305.88	1.37
306.094	99.67
306.308	-19.11
306.522	-66.22
306.736	77.14
306.95	17.75
307.164	42.32
307.379	-17.07
307.593	64.85
307.807	46.42
308.021	-2.73
308.235	-25.26
308.449	-35.5
308.663	44.37
308.877	103.76
309.091	54.61
309.305	-12.97
309.519	-35.5
309.733	50.52
309.947	-4.78
310.161	-2.73
310.374	75.09
310.588	83.28
310.802	7.51
311.016	-2.73
311.23	36.18
311.444	30.04
311.658	7.51
311.872	77.14
312.085	46.42
312.299	36.18
312.513	30.04
312.727	38.23
312.941	15.7
313.154	5.46
313.368	71
313.582	42.32
313.796	25.94
314.009	21.84
314.223	9.56
314.437	38.23
314.651	30.04
314.864	11.61
315.078	1.37
315.292	25.94
315.505	73.04
315.719	25.94
315.933	30.04
316.146	-12.97
316.36	-17.07
316.573	142.68
316.787	68.95
317.001	23.89
317.214	25.94
317.428	62.8
317.641	34.13
317.855	56.66
318.068	44.37
318.282	44.37
318.495	89.43
318.709	17.75
318.922	-43.69
319.136	111.96
319.349	79.19
319.563	71
319.776	138.58
319.99	60.76
320.203	116.05
320.417	27.99
320.63	30.04
320.843	85.33
321.057	42.32
321.27	105.81
321.483	13.65
321.697	13.65
321.91	11.61
322.124	36.18
322.337	-19.11
322.55	-6.83
322.763	23.89
322.977	75.09
323.19	34.13
323.403	42.32
323.617	-17.07
323.83	79.19
324.043	36.18
324.256	27.99
324.469	-23.21
324.683	77.14
324.896	-8.87
325.109	-51.88
325.322	-49.83
325.535	136.53
325.748	-4.78
325.962	13.65
326.175	7.51
326.388	87.38
326.601	40.28
326.814	19.8
327.027	34.13
327.24	73.04
327.453	44.37
327.666	40.28
327.879	111.96
328.092	91.48
328.305	95.57
328.518	38.23
328.731	-78.51
328.944	27.99
329.157	-47.79
329.37	79.19
329.583	130.39
329.796	17.75
330.009	19.8
330.222	58.71
330.435	46.42
330.648	9.56
330.861	52.56
331.073	-12.97
331.286	-23.21
331.499	62.8
331.712	-62.12
331.925	1.37
332.138	54.61
332.35	66.9
332.563	15.7
332.776	40.28
332.989	-0.68
333.202	-17.07
333.414	13.65
333.627	56.66
333.84	68.95
334.053	89.43
334.265	46.42
334.478	85.33
334.691	30.04
334.903	101.72
335.116	-33.45
335.329	73.04
335.541	21.84
335.754	128.34
335.966	-0.68
336.179	11.61
336.392	-15.02
336.604	19.8
336.817	83.28
337.029	54.61
337.242	42.32
337.454	79.19
337.667	21.84
337.88	23.89
338.092	30.04
338.305	30.04
338.517	-4.78
338.729	46.42
338.942	75.09
339.154	36.18
339.367	-2.73
339.579	66.9
339.792	62.8
340.004	66.9
340.217	-6.83
340.429	95.57
340.641	3.41
340.854	77.14
341.066	62.8
341.278	15.7
341.491	79.19
341.703	42.32
341.915	73.04
342.128	40.28
342.34	54.61
342.552	-0.68
342.764	17.75
342.977	-103.08
343.189	54.61
343.401	89.43
343.613	-6.83
343.826	79.19
344.038	-6.83
344.25	58.71
344.462	66.9
344.674	-0.68
344.886	30.04
345.099	116.05
345.311	77.14
345.523	30.04
345.735	-8.87
345.947	81.24
346.159	30.04
346.371	56.66
346.583	126.29
346.795	79.19
347.007	68.95
347.219	-4.78
347.431	66.9
347.643	-0.68
347.855	40.28
348.067	56.66
348.279	-10.92
348.491	36.18
348.703	56.66
348.915	-4.78
349.127	1.37
349.339	50.52
349.551	25.94
349.763	17.75
349.975	-19.11
350.187	83.28
350.399	42.32
350.61	-15.02
350.822	38.23
351.034	7.51
351.246	32.08
351.458	19.8
351.669	32.08
351.881	13.65
352.093	58.71
352.305	50.52
352.517	-33.45
352.728	99.67
352.94	-8.87
353.152	97.62
353.363	-23.21
353.575	75.09
353.787	107.86
353.999	60.76
354.21	30.04
354.422	44.37
354.633	-33.45
354.845	3.41
355.057	21.84
355.268	34.13
355.48	13.65
355.692	-2.73
355.903	107.86
356.115	-10.92
356.326	95.57
356.538	68.95
356.749	27.99
356.961	30.04
357.172	64.85
357.384	-37.55
357.595	165.2
357.807	64.85
358.018	-0.68
358.23	25.94
358.441	71
358.653	54.61
358.864	44.37
359.075	-29.35
359.287	34.13
359.498	32.08
359.709	32.08
359.921	27.99
360.132	38.23
360.344	71
360.555	19.8
360.766	85.33
360.977	34.13
361.189	99.67
361.4	11.61
361.611	21.84
361.823	89.43
362.034	138.58
362.245	7.51
362.456	32.08
362.667	36.18
362.879	46.42
363.09	73.04
363.301	138.58
363.512	34.13
363.723	44.37
363.935	38.23
364.146	42.32
364.357	19.8
364.568	34.13
364.779	1.37
364.99	25.94
365.201	87.38
365.412	44.37
365.623	-19.11
365.834	5.46
366.045	66.9
366.256	40.28
366.467	-23.21
366.678	-33.45
366.889	5.46
367.1	7.51
367.311	-2.73
367.522	-2.73
367.733	111.96
367.944	-19.11
368.155	64.85
368.366	50.52
368.577	64.85
368.788	3.41
368.999	-33.45
369.209	36.18
369.42	134.48
369.631	142.68
369.842	-43.69
370.053	77.14
370.264	73.04
370.474	21.84
370.685	77.14
370.896	5.46
371.107	79.19
371.317	-8.87
371.528	89.43
371.739	105.81
371.95	124.24
372.16	71
372.371	77.14
372.582	73.04
372.792	13.65
373.003	75.09
373.214	44.37
373.424	62.8
373.635	-2.73
373.846	118.1
374.056	75.09
374.267	34.13
374.477	46.42
374.688	95.57
374.898	52.56
375.109	81.24
375.319	9.56
375.53	17.75
375.74	42.32
375.951	107.86
376.161	-4.78
376.372	38.23
376.582	-33.45
376.793	23.89
377.003	62.8
377.214	11.61
377.424	64.85
377.635	54.61
377.845	34.13
378.055	85.33
378.266	36.18
378.476	21.84
378.686	60.76
378.897	93.52
379.107	75.09
379.317	42.32
379.528	27.99
379.738	66.9
379.948	73.04
380.158	95.57
380.369	85.33
380.579	-2.73
380.789	48.47
380.999	64.85
381.21	93.52
381.42	89.43
381.63	36.18
381.84	15.7
382.05	13.65
382.261	58.71
382.471	93.52
382.681	-12.97
382.891	77.14
383.101	36.18
383.311	3.41
383.521	85.33
383.731	21.84
383.941	40.28
384.151	19.8
384.361	91.48
384.571	25.94
384.781	-19.11
384.991	130.39
385.201	79.19
385.411	36.18
385.621	124.24
385.831	34.13
386.041	50.52
386.251	60.76
386.461	52.56
386.671	83.28
386.881	44.37
387.091	44.37
387.301	109.91
387.511	97.62
387.72	71
387.93	91.48
388.14	27.99
388.35	52.56
388.56	46.42
388.769	99.67
388.979	54.61
389.189	-12.97
389.399	71
389.609	50.52
389.818	64.85
390.028	77.14
390.238	25.94
390.447	36.18
390.657	34.13
390.867	85.33
391.076	36.18
391.286	60.76
391.496	58.71
391.705	50.52
391.915	89.43
392.125	68.95
392.334	62.8
392.544	140.63
392.753	81.24
392.963	58.71
393.172	134.48
393.382	-35.5
393.591	62.8
393.801	50.52
394.01	68.95
394.22	66.9
394.429	62.8
394.639	81.24
394.848	95.57
395.058	17.75
395.267	5.46
395.477	101.72
395.686	64.85
395.895	71
396.105	130.39
396.314	-0.68
396.524	83.28
396.733	85.33
396.942	89.43
397.152	93.52
397.361	157.01
397.57	23.89
397.78	48.47
397.989	19.8
398.198	87.38
398.407	134.48
398.617	56.66
398.826	99.67
399.035	64.85
399.244	99.67
399.453	48.47
399.663	126.29
399.872	105.81
400.081	146.77
400.29	136.53
400.499	144.72
400.708	130.39
400.917	134.48
401.127	142.68
401.336	120.15
401.545	202.07
401.754	109.91
401.963	116.05
402.172	216.4
402.381	46.42
402.59	128.34
402.799	122.2
403.008	179.54
403.217	140.63
403.426	116.05
403.635	111.96
403.844	30.04
404.053	118.1
404.262	132.44
404.471	181.59
404.68	144.72
404.888	81.24
405.097	148.82
405.306	75.09
405.515	159.06
405.724	159.06
405.933	122.2
406.142	177.49
406.35	204.11
406.559	183.63
406.768	202.07
406.977	228.69
407.185	185.68
407.394	249.17
407.603	214.35
407.812	204.11
408.02	224.59
408.229	273.75
408.438	179.54
408.646	214.35
408.855	267.6
409.064	249.17
409.272	277.84
409.481	324.94
409.69	238.93
409.898	259.41
410.107	245.07
410.315	316.75
410.524	263.51
410.733	359.76
410.941	234.83
411.15	376.14
411.358	331.09
411.567	398.67
411.775	445.77
411.984	435.53
412.192	462.16
412.401	406.86
412.609	515.41
412.818	531.79
413.026	386.38
413.234	568.65
413.443	496.97
413.651	558.41
413.86	519.5
414.068	673.1
414.276	701.77
414.485	650.57
414.693	652.62
414.901	757.07
415.11	740.68
415.318	714.06
415.526	777.55
415.734	904.52
415.943	884.04
416.151	808.26
416.359	724.3
416.567	939.33
416.776	1039.69
416.984	1021.25
417.192	996.68
417.4	1013.06
417.608	1146.18
417.817	1015.11
418.025	1152.32
418.233	1240.39
418.441	1035.59
418.649	1232.19
418.857	1318.21
419.065	1305.92
419.273	1258.82
419.481	1365.31
419.689	1490.24
419.897	1473.85
420.105	1494.33
420.313	1596.73
420.521	1611.07
420.729	1738.04
420.937	1621.31
421.145	1799.48
421.353	1797.43
421.561	1881.4
421.769	1912.12
421.977	2022.71
422.185	1951.03
422.393	2229.56
422.601	2370.87
422.809	2346.29
423.017	2293.04
423.224	2426.16
423.432	2442.54
423.64	2542.89
423.848	2702.64
424.056	2751.79
424.263	3003.69
424.471	2985.26
424.679	3038.5
424.887	3101.99
425.094	3278.12
425.302	3325.22
425.51	3411.23
425.718	3468.58
425.925	3458.34
426.133	3661.09
426.341	3970.33
426.548	3953.94
426.756	4050.2
426.964	4052.25
427.171	4259.09
427.379	4431.12
427.586	4447.51
427.794	4537.62
428.001	4869.39
428.209	5010.7
428.417	4758.8
428.624	5371.14
428.832	5305.6
429.039	5342.47
429.247	5240.07
429.454	5780.73
429.662	6219
429.869	5741.82
430.076	6280.44
430.284	5936.38
430.491	6190.33
430.699	6518
430.906	6730.99
431.114	6728.94
431.321	7040.23
431.528	7032.04
431.736	7513.31
431.943	7843.04
432.15	7695.58
432.358	7525.6
432.565	8070.36
432.772	8078.55
432.979	8578.26
433.187	8834.25
433.394	8635.6
433.601	9284.81
433.808	9370.82
434.016	9393.35
434.223	9678.02
434.43	10396.85
434.637	10120.38
434.844	10697.91
435.052	10790.06
435.259	10906.8
435.466	11152.56
435.673	10826.93
435.88	11377.83
436.087	12242.07
436.294	12108.96
436.501	11951.26
436.708	12416.15
436.915	12553.37
437.122	13157.52
437.329	13032.59
437.537	13409.42
437.743	13857.92
437.95	13677.7
438.157	14429.31
438.364	14929.01
438.571	15062.13
438.778	14640.25
438.985	16340.06
439.192	15610.98
439.399	15975.52
439.606	15608.94
439.813	16694.36
440.02	17509.45
440.227	17251.41
440.433	17140.82
440.64	17853.51
440.847	17583.18
441.054	17878.08
441.261	19405.87
441.467	19143.73
441.674	19459.12
441.881	20010.02
442.088	20247.58
442.294	19903.53
442.501	20450.33
442.708	20970.52
442.914	21625.87
443.121	22590.46
443.328	21873.67
443.534	23452.66
443.741	22887.42
443.948	22471.68
444.154	24103.91
444.361	23993.32
444.568	24513.5
444.774	24683.48
444.981	24466.4
445.187	25205.72
445.394	26180.55
445.6	26004.42
445.807	28650.4
446.013	27538.35
446.22	27630.51
446.426	28859.29
446.633	28783.52
446.839	30053.26
447.046	28830.62
447.252	30522.24
447.459	30677.89
447.665	30356.36
447.871	31617.91
448.078	33205.08
448.284	31507.32
448.491	32852.83
448.697	33743.7
448.903	34227.02
449.11	34106.19
449.316	33780.56
449.522	34665.28
449.728	35334.97
449.935	35509.05
450.141	35445.56
450.347	36426.54
450.553	35443.51
450.76	35849.01
450.966	37006.11
451.172	36711.21
451.378	37655.32
451.584	36588.33
451.791	37907.22
451.997	37624.6
452.203	38152.98
452.409	38144.78
452.615	37790.48
452.821	36797.22
453.027	36598.57
453.233	38294.28
453.44	36573.99
453.646	37298.97
453.852	37149.47
454.058	38126.35
454.264	36680.49
454.47	37235.49
454.676	36195.12
454.882	37982.99
455.088	34231.11
455.294	35113.79
455.5	35982.13
455.705	36244.27
455.911	34798.4
456.117	34122.57
456.323	33397.59
456.529	32199.53
456.735	33147.74
456.941	32234.35
457.147	31794.03
457.352	30931.84
457.558	30555.01
457.764	30743.42
457.97	29961.1
458.176	29406.1
458.381	29264.79
458.587	27890.6
458.793	28048.3
458.999	26401.73
459.204	28373.92
459.41	27534.26
459.616	25793.48
459.821	25545.68
460.027	25629.65
460.233	25263.06
460.438	24034.28
460.644	23958.5
460.85	23032.82
461.055	22711.29
461.261	22852.6
461.466	21109.78
461.672	20323.36
461.878	21842.95
462.083	20302.88
462.289	19924.01
462.494	19725.35
462.7	18785.33
462.905	18353.21
463.111	19174.45
463.316	19287.09
463.522	18922.55
463.727	18803.77
463.932	18748.47
464.138	18533.43
464.343	18674.74
464.549	17876.04
464.754	18609.21
464.959	18512.95
465.165	18410.56
465.37	17667.14
465.575	17204.3
465.781	17851.46
465.986	17964.1
466.191	17282.13
466.397	16727.13
466.602	16163.93
466.807	16522.33
467.012	16712.79
467.218	16610.39
467.423	16366.68
467.628	16440.41
467.833	17009.75
468.038	16524.38
468.244	16041.06
468.449	16835.67
468.654	16032.86
468.859	16176.22
469.064	15795.3
469.269	15260.78
469.474	15668.33
469.679	15631.46
469.885	15307.88
470.09	15590.5
470.295	15656.04
470.5	15092.85
470.705	15443.05
470.91	14783.6
471.115	14949.49
471.32	15035.5
471.525	14781.56
471.73	14279.8
471.935	14294.14
472.139	13909.12
472.344	14181.5
472.549	14017.66
472.754	13749.38
472.959	13794.43
473.164	13360.27
473.369	13089.93
473.574	13606.02
473.778	13741.19
473.983	13386.89
474.188	13366.41
474.393	12872.85
474.598	12823.7
474.802	12602.52
475.007	12758.16
475.212	12532.89
475.417	12231.83
475.621	11973.79
475.826	12072.09
476.031	11912.35
476.235	11668.64
476.44	11941.02
476.645	11553.96
476.849	11707.55
477.054	11498.66
477.259	11228.33
477.463	11492.52
477.668	10953.9
477.872	11216.04
478.077	10853.55
478.282	10640.56
478.486	10673.33
478.691	10570.93
478.895	10575.03
479.1	10439.86
479.304	10609.84
479.509	10173.63
479.713	10579.12
479.918	10067.13
480.122	10013.88
480.326	10218.68
480.531	10122.43
480.735	9927.87
480.94	10005.69
481.144	10443.96
481.348	9960.64
481.553	9831.62
481.757	9551.04
481.961	9700.55
482.166	9909.44
482.37	9784.51
482.574	9692.35
482.778	9772.22
482.983	9893.05
483.187	9559.24
483.391	9942.21
483.595	9643.2
483.8	9536.71
484.004	9624.77
484.208	9665.73
484.412	9725.12
484.616	9678.02
484.821	9700.55
485.025	9524.42
485.229	9743.55
485.433	9759.94
485.637	9651.39
485.841	9516.23
486.045	9436.36
486.249	9843.9
486.453	9649.35
486.657	9624.77
486.861	9643.2
487.065	9581.76
487.269	9702.59
487.473	9524.42
487.677	9880.77
487.881	9577.67
488.085	9714.88
488.289	9714.88
488.493	9512.13
488.697	9891.01
488.901	10007.74
489.105	9606.34
489.309	9874.62
489.512	9735.36
489.716	9929.92
489.92	9759.94
490.124	9831.62
490.328	9860.29
490.531	9704.64
490.735	9968.83
490.939	9888.96
491.143	9833.66
491.346	10030.27
491.55	10263.74
491.754	9948.35
491.958	10216.63
492.161	10022.08
492.365	10181.82
492.569	10243.26
492.772	10144.95
492.976	10601.65
493.18	10359.99
493.383	10364.09
493.587	10665.14
493.79	10839.22
493.994	10540.21
494.197	10435.77
494.401	10749.11
494.605	10601.65
494.808	11007.15
495.012	10828.98
495.215	10949.81
495.419	11062.44
495.622	11003.05
495.825	11189.42
496.029	10949.81
496.232	11463.85
496.436	11383.98
496.639	11437.22
496.843	11676.84
497.046	11613.35
497.249	12004.51
497.453	12094.62
497.656	11879.58
497.859	12002.46
498.063	12094.62
498.266	12561.56
498.469	12354.71
498.673	12489.88
498.876	12741.78
499.079	12891.28
499.282	12764.31
499.485	13171.85
499.689	13153.42
499.892	13259.91
500.095	13368.46
500.298	13804.67
500.501	13575.3
500.705	13909.12
500.908	13831.3
501.111	14240.89
501.314	14341.24
501.517	14417.02
501.72	14763.12
501.923	14799.99
502.126	14969.97
502.329	15369.32
502.532	15211.63
502.735	15342.7
502.938	15746.15
503.141	15600.74
503.344	15778.92
503.547	16090.21
503.75	16157.79
503.953	16452.7
504.156	16510.04
504.359	16655.45
504.562	16845.91
504.765	17179.73
504.968	17312.85
505.17	17507.4
505.373	17554.51
505.576	17697.86
505.779	17931.33
505.982	17884.23
506.185	18342.97
506.387	18510.91
506.59	18834.49
506.793	18844.73
506.996	18963.51
507.198	19514.41
507.401	19336.24
507.604	19287.09
507.807	19866.66
508.009	20059.17
508.212	20141.09
508.415	20354.08
508.617	20632.6
508.82	20677.66
509.022	20491.29
509.225	21265.42
509.428	21269.52
509.63	21339.15
509.833	21494.8
510.035	21865.48
510.238	21662.73
510.44	22467.58
510.643	22653.95
510.845	22668.28
511.048	22825.98
511.25	23094.26
511.453	23008.25
511.655	24265.7
511.858	23653.36
512.06	23952.36
512.262	24230.88
512.465	24077.29
512.667	24679.39
512.87	24714.2
513.072	25021.4
513.274	25447.38
513.477	25301.97
513.679	25500.62
513.881	25738.19
514.084	26074.06
514.286	26287.04
514.488	26325.96
514.69	26858.43
514.893	26805.18
515.095	26930.11
515.297	27462.58
515.499	27593.65
515.701	28046.25
515.904	28203.94
516.106	28175.27
516.308	28552.1
516.51	28701.6
516.712	28658.59
516.914	28992.41
517.116	29645.71
517.318	29637.52
517.52	29330.33
517.722	29473.68
517.925	30374.79
518.127	30337.93
518.329	30534.53
518.531	30370.69
518.733	31071.1
518.935	31339.38
519.136	31329.14
519.338	31615.86
519.54	31665.01
519.742	32271.21
519.944	32185.19
520.146	32627.56
520.348	32828.26
520.55	33092.44
520.752	33104.73
520.954	33588.05
521.155	33393.5
521.357	33895.25
521.559	33917.78
521.761	34403.14
521.963	34411.34
522.164	34171.72
522.366	34382.66
522.568	35011.39
522.77	35093.31
522.971	35885.87
523.173	35404.6
523.375	35420.98
523.576	35144.51
523.778	35576.63
523.98	35808.05
524.181	35851.06
524.383	36055.86
524.584	36928.29
524.786	36518.7
524.988	36530.98
525.189	36999.97
525.391	37090.08
525.592	37479.19
525.794	37100.32
525.995	37663.51
526.197	37489.43
526.398	37690.13
526.6	37853.97
526.801	37776.15
527.003	38030.1
527.204	38112.02
527.406	38501.13
527.607	38312.72
527.808	38818.56
528.01	38224.65
528.211	38601.48
528.412	39066.37
528.614	39136
528.815	38959.87
529.016	39334.65
529.218	39035.65
529.419	39080.7
529.62	39326.46
529.822	39219.97
530.023	39588.6
530.224	39150.34
530.425	39222.01
530.626	38636.3
530.828	38773.51
531.029	40100.59
531.23	39404.28
531.431	39600.89
531.632	39887.6
531.833	39701.24
532.035	39660.28
532.236	39693.05
532.437	39713.53
532.638	39457.53
532.839	39432.96
533.04	40227.57
533.241	39772.92
533.442	40241.9
533.643	39848.69
533.844	39647.99
534.045	39693.05
534.246	39578.36
534.447	40264.43
534.648	39928.56
534.849	40233.71
535.05	39455.48
535.251	39672.57
535.451	39820.02
535.652	40186.61
535.853	39588.6
536.054	40114.93
536.255	39731.96
536.456	39768.82
536.657	40338.16
536.857	39641.85
537.058	39428.86
537.259	40266.48
537.46	39791.35
537.66	39541.5
537.861	39873.27
538.062	39848.69
538.263	39871.22
538.463	39404.28
538.664	39305.98
538.865	39578.36
539.065	39996.15
539.266	39283.45
539.466	40020.72
539.667	39107.33
539.868	39871.22
540.068	39928.56
540.269	39353.08
540.469	39707.38
540.67	39860.98
540.87	39437.05
541.071	39555.83
541.271	39949.04
541.472	39367.42
541.672	39705.34
541.873	39154.43
542.073	38800.13
542.274	39875.32
542.474	39428.86
542.675	39084.8
542.875	39981.81
543.075	39355.13
543.276	39019.27
543.476	39189.25
543.676	39131.9
543.877	39652.09
544.077	39119.62
544.277	39383.8
544.478	39533.31
544.678	39566.07
544.878	39346.94
545.078	39009.03
545.279	39213.82
545.479	39054.08
545.679	39232.25
545.879	39316.22
546.079	38769.41
546.28	39160.58
546.48	38624.01
546.68	39183.1
546.88	39453.44
547.08	39000.83
547.28	39219.97
547.48	38652.68
547.68	39379.71
547.88	38636.3
548.081	39228.16
548.281	39219.97
548.481	39099.14
548.681	39312.13
548.881	39123.71
549.081	38865.67
549.28	38722.31
549.48	39146.24
549.68	38787.85
549.88	38845.19
550.08	38925.06
550.28	39029.51
550.48	38527.75
550.68	39113.47
550.88	38925.06
551.08	39060.23
551.279	39023.36
551.479	38511.37
551.679	38734.6
551.879	38521.61
552.079	38730.5
552.278	39125.76
552.478	38869.76
552.678	38681.35
552.878	38957.83
553.077	38564.62
553.277	38552.33
553.477	38685.45
553.676	38718.21
553.876	38568.71
554.076	38263.57
554.275	38433.55
554.475	38259.47
554.674	38572.81
554.874	38505.23
555.074	38255.37
555.273	38445.83
555.473	38542.09
555.672	38198.03
555.872	38279.95
556.071	38589.19
556.271	38439.69
556.47	38300.43
556.67	37913.36
556.869	38347.53
557.068	38171.41
557.268	37763.86
557.467	38001.43
557.667	38241.04
557.866	38216.46
558.065	38349.58
558.265	37511.96
558.464	38064.91
558.663	38415.12
558.863	37479.19
559.062	37872.4
559.261	37554.97
559.461	37825.3
559.66	37528.34
559.859	38017.81
560.058	37698.33
560.258	37485.34
560.457	37272.35
560.656	37681.94
560.855	36944.67
561.054	37974.8
561.253	37305.12
561.453	37335.84
561.652	37341.98
561.851	37657.37
562.05	37178.14
562.249	36711.21
562.448	37436.19
562.647	37088.03
562.846	37057.31
563.045	37272.35
563.244	36721.44
563.443	37163.81
563.642	36457.26
563.841	36815.65
564.04	36846.37
564.239	36961.06
564.438	36530.98
564.637	36782.88
564.836	36492.07
565.035	36031.28
565.234	36424.49
565.432	36182.83
565.631	36162.35
565.83	36625.19
566.029	36037.42
566.228	36408.11
566.427	36195.12
566.625	35867.44
566.824	35777.33
567.023	36320.04
567.222	35834.67
567.42	36148.01
567.619	35822.39
567.818	35973.94
568.016	36002.61
568.215	36193.07
568.414	35754.8
568.612	35898.16
568.811	35769.14
569.01	35738.42
569.208	34904.9
569.407	35642.17
569.605	34937.66
569.804	35269.44
570.002	35011.39
570.201	35205.95
570.4	34960.19
570.598	34640.71
570.797	34730.82
570.995	34894.66
571.193	34521.93
571.392	34798.4
571.59	34845.51
571.789	34636.61
571.987	34685.76
572.186	34593.61
572.384	34472.78
572.582	34577.22
572.781	34597.7
572.979	33919.82
573.177	34282.31
573.376	34229.07
573.574	34067.28
573.772	34241.35
573.971	34095.95
574.169	33768.27
574.367	33817.43
574.565	33639.25
574.763	33698.64
574.962	33430.36
575.16	33577.81
575.358	33561.43
575.556	33086.3
575.754	33727.31
575.952	33051.49
576.151	33319.77
576.349	32951.13
576.547	33188.7
576.745	33227.61
576.943	33311.58
577.141	33092.44
577.339	32867.17
577.537	32838.5
577.735	33024.86
577.933	32494.44
578.131	32858.98
578.329	32869.22
578.527	32277.35
578.725	32389.99
578.923	32369.51
579.121	32392.04
579.319	32252.78
579.516	32418.66
579.714	32369.51
579.912	32023.4
580.11	32160.62
580.308	32060.27
580.506	32121.71
580.704	31232.89
580.901	31867.76
581.099	31941.49
581.297	31486.84
581.495	31556.47
581.692	31290.23
581.89	31630.19
582.088	31411.06
582.285	31052.67
582.483	31687.54
582.681	30970.75
582.878	31132.54
583.076	30903.17
583.274	31243.13
583.471	30665.6
583.669	30946.17
583.866	30301.06
584.064	30847.87
584.262	30288.78
584.459	30569.35
584.657	30507.91
584.854	30702.46
585.052	30147.47
585.249	30397.32
585.447	30366.6
585.644	30034.83
585.841	29852.56
586.039	30294.92
586.236	29604.75
586.434	29658
586.631	29543.31
586.828	29719.44
587.026	29586.32
587.223	29567.89
587.42	29178.78
587.618	29260.69
587.815	29275.03
588.012	29068.19
588.21	29135.77
588.407	29397.91
588.604	29105.05
588.801	28877.72
588.999	29098.91
589.196	28804
589.393	28701.6
589.59	28734.37
589.787	28541.86
589.984	28302.25
590.182	28224.42
590.379	28449.7
590.576	28138.41
590.773	28074.92
590.97	28193.7
591.167	28425.12
591.364	27745.2
591.561	28134.31
591.758	27790.25
591.955	27999.15
592.152	27698.09
592.349	27466.67
592.546	27272.12
592.743	27354.04
592.94	27208.63
593.137	27360.18
593.334	27419.57
593.531	27225.01
593.727	27456.43
593.924	27214.77
594.121	26885.05
594.318	26860.48
594.515	26670.01
594.712	26934.2
594.908	26672.06
595.105	26653.63
595.302	26454.98
595.499	26461.12
595.696	26397.63
595.892	26213.32
596.089	26049.48
596.286	26112.97
596.482	26205.13
596.679	26067.91
596.876	25791.44
597.072	25822.16
597.269	25813.96
597.466	25766.86
597.662	25699.28
597.859	25633.74
598.055	25613.26
598.252	25277.4
598.448	25418.71
598.645	25402.32
598.841	24837.08
599.038	25160.66
599.234	25179.09
599.431	24708.06
599.627	24857.56
599.824	25009.11
600.02	24607.71
600.217	24847.32
600.413	24652.77
600.609	24646.62
600.806	24519.65
601.002	24642.53
601.198	24316.9
601.395	24404.96
601.591	24441.82
601.787	24331.23
601.984	24046.57
602.18	24304.61
602.376	23845.87
602.572	23985.13
602.769	23833.58
602.965	23358.45
603.161	23720.94
603.357	23704.56
603.553	23827.43
603.75	23393.26
603.946	23129.08
604.142	23354.35
604.338	23401.46
604.534	23311.35
604.73	23106.55
604.926	22981.62
605.122	23190.52
605.318	22866.94
605.514	23020.53
605.71	22809.59
605.906	22858.74
606.102	22694.91
606.298	22678.52
606.494	22737.91
606.69	22352.9
606.886	22553.6
607.082	22227.97
607.278	22608.89
607.474	21826.57
607.67	22246.4
607.866	21933.06
608.062	22486.01
608.257	22268.93
608.453	22000.65
608.649	22240.26
608.845	22057.99
609.041	21789.7
609.236	22152.2
609.432	21933.06
609.628	21990.41
609.824	21689.35
610.019	21750.79
610.215	21941.25
610.411	21986.31
610.606	21423.12
610.802	21474.32
610.998	21654.54
611.193	21457.93
611.389	21285.9
611.584	21380.11
611.78	21324.82
611.976	21447.69
612.171	21437.45
612.367	21425.17
612.562	21210.13
612.758	21171.22
612.953	20823.06
613.149	21134.35
613.344	21105.68
613.539	20945.94
613.735	21034
613.93	21021.72
614.126	20919.32
614.321	20911.13
614.517	20841.5
614.712	20800.54
614.907	20773.91
615.103	20542.49
615.298	20550.68
615.493	20956.18
615.688	20433.95
615.884	20790.3
616.079	20462.62
616.274	20718.62
616.47	20577.31
616.665	20507.68
616.86	20319.26
617.055	20403.23
617.25	20214.82
617.445	20751.38
617.641	20012.07
617.836	20331.55
618.031	20251.68
618.226	20253.73
618.421	19975.2
618.616	20151.33
618.811	19803.18
619.006	20100.13
619.201	19563.56
619.396	19491.88
619.591	19663.91
619.786	19510.32
619.981	19528.75
620.176	19321.9
620.371	19180.59
620.566	19301.42
620.761	19168.3
620.956	19340.33
621.151	19072.05
621.346	18986.04
621.541	18590.78
621.735	18785.33
621.93	18646.07
622.125	18488.38
622.32	18154.56
622.515	18472
622.709	18197.57
622.904	18256.96
623.099	18046.02
623.294	18259.01
623.488	17941.57
623.683	17861.7
623.878	17744.97
624.072	17677.38
624.267	17585.22
624.462	17579.08
624.656	17044.56
624.851	17347.66
625.046	17257.55
625.24	17112.14
625.435	17009.75
625.629	17001.55
625.824	17282.13
626.018	16903.25
626.213	16688.21
626.407	16763.99
626.602	16335.96
626.796	16436.31
626.991	16567.38
627.185	16151.65
627.38	16157.79
627.574	15848.55
627.768	15930.47
627.963	15903.84
628.157	15596.65
628.352	15852.64
628.546	15471.72
628.74	15676.52
628.935	15430.76
629.129	15533.16
629.323	15357.03
629.517	15223.92
629.712	15135.85
629.906	15139.95
630.1	14716.02
630.294	15246.44
630.489	14851.19
630.683	14963.82
630.877	14656.63
631.071	14591.09
631.265	14802.04
631.459	14541.94
631.653	14494.84
631.848	14388.35
632.042	14218.36
632.236	14386.3
632.43	14146.69
632.624	14224.51
632.818	13876.35
633.012	13907.07
633.206	13868.16
633.4	13790.34
633.594	13575.3
633.788	13716.61
633.982	13694.08
634.176	13464.71
634.369	13393.03
634.563	13290.63
634.757	13304.97
634.951	13343.88
635.145	13358.22
635.339	13173.9
635.533	13108.37
635.726	13083.79
635.92	12878.99
636.114	12715.16
636.308	12870.8
636.501	12774.55
636.695	12485.78
636.889	12575.89
637.083	12514.45
637.276	12424.34
637.47	12432.54
637.664	12330.14
637.857	12293.27
638.051	12323.99
638.244	11885.73
638.438	12338.33
638.632	11996.32
638.825	11932.83
639.019	11822.24
639.212	11883.68
639.406	11957.41
639.599	11627.68
639.793	11680.93
639.986	11527.33
640.18	11515.05
640.373	11529.38
640.567	11345.06
640.76	11367.59
640.954	11259.05
641.147	11209.9
641.34	11273.39
641.534	11246.76
641.727	10966.19
641.92	11105.45
642.114	10892.46
642.307	11027.63
642.5	11066.54
642.694	10808.5
642.887	10695.86
643.08	10685.62
643.273	10861.74
643.467	10687.67
643.66	10425.53
643.853	10398.9
644.046	10169.53
644.239	10472.63
644.432	10392.76
644.626	10577.08
644.819	10257.59
645.012	10321.08
645.205	10394.81
645.398	10118.33
645.591	9905.34
645.784	9880.77
645.977	10052.8
646.17	9841.86
646.363	9739.46
646.556	9796.8
646.749	9706.69
646.942	9702.59
647.135	9540.8
647.328	9565.38
647.521	9639.11
647.714	9323.72
647.907	9403.59
648.099	9532.61
648.292	9379.01
648.485	9272.52
648.678	9192.65
648.871	9190.6
649.064	9063.63
649.256	9098.44
649.449	9073.87
649.642	9032.91
649.835	8938.7
650.027	8766.67
650.22	8998.09
650.413	8654.03
650.605	8772.82
650.798	8586.45
650.991	8697.04
651.183	8692.94
651.376	8617.17
651.568	8662.23
651.761	8496.34
651.954	8731.86
652.146	8506.58
652.339	8494.29
652.531	8299.73
652.724	8242.39
652.916	8256.73
653.109	8137.95
653.301	8242.39
653.494	8297.69
653.686	8041.69
653.879	8285.4
654.071	7974.11
654.263	8068.31
654.456	8027.35
654.648	8008.92
654.84	7843.04
655.033	7976.16
655.225	7677.15
655.417	7863.52
655.61	7707.87
655.802	7861.47
655.994	7484.64
656.186	7597.28
656.379	7607.52
656.571	7533.79
656.763	7365.86
656.955	7320.81
657.148	7433.44
657.34	7443.68
657.532	7230.69
657.724	7085.29
657.916	7318.76
658.108	7234.79
658.3	7189.74
658.492	7128.3
658.684	7181.54
658.876	6956.27
659.068	6964.46
659.26	6989.03
659.452	6868.2
659.644	7009.51
659.836	7107.82
660.028	6800.62
660.22	6780.14
660.412	6724.85
660.604	6735.09
660.796	6757.61
660.988	6733.04
661.18	6630.64
661.372	6483.19
661.563	6694.13
661.755	6585.58
661.947	6491.38
662.139	6520.05
662.331	6374.64
662.522	6386.93
662.714	6204.66
662.906	6343.92
663.097	6219
663.289	6210.81
663.481	6192.37
663.673	6118.65
663.864	6108.41
664.056	6036.73
664.247	6135.03
664.439	6092.02
664.631	6104.31
664.822	6092.02
665.014	5975.29
665.205	5887.23
665.397	5932.28
665.588	5909.76
665.78	5971.19
665.971	5790.97
666.163	5823.74
666.354	5811.45
666.546	5575.94
666.737	5807.36
666.929	5778.69
667.12	5645.57
667.311	5764.35
667.503	5743.87
667.694	5537.02
667.885	5577.98
668.077	5588.22
668.268	5602.56
668.459	5551.36
668.651	5491.97
668.842	5524.74
669.033	5539.07
669.224	5201.16
669.416	5494.02
669.607	5311.75
669.798	5451.01
669.989	5365
670.18	5287.17
670.371	5301.51
670.563	5264.64
670.754	5340.42
670.945	5184.77
671.136	5258.5
671.327	5123.34
671.518	5219.59
671.709	5006.6
671.9	5115.14
672.091	5149.96
672.282	4920.59
672.473	4922.63
672.664	5139.72
672.855	5074.18
673.046	5000.46
673.237	4945.16
673.428	4967.69
673.619	4850.96
673.809	4838.67
674	4859.15
674.191	4838.67
674.382	4930.83
674.573	4775.18
674.764	4801.8
674.954	4875.53
675.145	4814.09
675.336	4914.44
675.527	4754.7
675.717	4703.5
675.908	4629.77
676.099	4660.49
676.289	4783.37
676.48	4672.78
676.671	4685.07
676.861	4576.53
677.052	4543.76
677.243	4545.81
677.433	4611.34
677.624	4580.62
677.814	4721.93
678.005	4717.84
678.195	4535.57
678.386	4416.79
678.576	4453.65
678.767	4437.27
678.957	4584.72
679.148	4424.98
679.338	4543.76
679.529	4504.85
679.719	4259.09
679.909	4629.77
680.1	4433.17
680.29	4371.73
680.481	4355.35
680.671	4381.97
680.861	4367.63
681.052	4312.34
681.242	4306.2
681.432	4418.83
681.622	4164.89
681.813	4361.49
682.003	4306.2
682.193	4136.21
682.383	4295.96
682.573	4398.35
682.764	4318.48
682.954	4224.28
683.144	4216.08
683.334	4252.95
683.524	4230.42
683.714	4197.65
683.904	4152.6
684.094	4134.17
684.284	4156.69
684.474	4089.11
684.664	3978.52
684.854	4148.5
685.044	4101.4
685.234	4154.65
685.424	3960.09
685.614	4099.35
685.804	4113.69
685.994	4046.1
686.184	4068.63
686.374	4013.34
686.564	4027.67
686.753	3962.14
686.943	3851.55
687.133	3898.65
687.323	3835.16
687.513	3937.56
687.702	3921.18
687.892	3902.75
688.082	3777.82
688.272	3884.31
688.461	3722.52
688.651	3915.03
688.841	3669.28
689.03	3900.7
689.22	3802.4
689.41	3757.34
689.599	3798.3
689.789	3822.87
689.979	3716.38
690.168	3616.03
690.358	3570.97
690.547	3550.5
690.737	3591.45
690.926	3585.31
691.116	3499.3
691.305	3573.02
691.495	3622.17
691.684	3441.95
691.874	3532.06
692.063	3345.7
692.252	3517.73
692.442	3573.02
692.631	3351.84
692.82	3224.87
693.01	3468.58
693.199	3237.16
693.388	3370.27
693.578	3343.65
693.767	3368.23
693.956	3204.39
694.146	3108.13
694.335	3398.95
694.524	3265.83
694.713	3259.68
694.902	3140.9
695.092	3259.68
695.281	3138.85
695.47	3171.62
695.659	3114.28
695.848	3118.37
696.037	3061.03
696.226	3142.95
696.415	2854.19
696.604	3171.62
696.793	3036.45
696.982	3101.99
697.171	3061.03
697.36	2897.19
697.549	2932.01
697.738	2899.24
697.927	2905.38
698.116	3110.18
698.305	2876.71
698.494	3007.78
698.683	2934.06
698.872	2917.67
699.061	2977.06
699.25	2958.63
699.438	2893.1
699.627	2895.15
699.816	2876.71
700.005	2925.86
700.193	2903.34
700.382	2759.98
700.571	2792.75
700.76	2831.66
700.948	2874.67
701.137	2829.61
701.326	2782.51
701.514	2733.36
701.703	2727.21
701.892	2714.92
702.08	2788.65
702.269	2805.03
702.457	2809.13
702.646	2852.14
702.834	2768.17
703.023	2739.5
703.212	2739.5
703.4	2604.33
703.589	2661.68
703.777	2633.01
703.965	2633.01
704.154	2692.4
704.342	2780.46
704.531	2649.39
704.719	2663.72
704.907	2620.72
705.096	2663.72
705.284	2557.23
705.472	2641.2
705.661	2633.01
705.849	2657.58
706.037	2721.07
706.226	2555.18
706.414	2608.43
706.602	2534.7
706.79	2727.21
706.979	2567.47
707.167	2546.99
707.355	2610.48
707.543	2630.96
707.731	2626.86
707.919	2544.94
708.107	2485.55
708.296	2559.28
708.484	2506.03
708.672	2594.09
708.86	2534.7
709.048	2557.23
709.236	2536.75
709.424	2497.84
709.612	2608.43
709.8	2510.13
709.988	2503.98
710.176	2475.31
710.364	2448.69
710.551	2481.46
710.739	2428.21
710.927	2487.6
711.115	2563.37
711.303	2483.5
711.491	2585.9
711.679	2360.63
711.866	2403.63
712.054	2446.64
712.242	2430.26
712.43	2450.74
712.617	2512.17
712.805	2397.49
712.993	2448.69
713.181	2411.82
713.368	2460.98
713.556	2448.69
713.744	2456.88
713.931	2475.31
714.119	2448.69
714.306	2448.69
714.494	2422.06
714.682	2338.1
714.869	2391.34
715.057	2438.45
715.244	2344.24
715.432	2465.07
715.619	2526.51
715.807	2407.73
715.994	2370.87
716.182	2487.6
716.369	2452.78
716.556	2501.94
716.744	2415.92
716.931	2454.83
717.119	2536.75
717.306	2520.37
717.493	2358.58
717.681	2448.69
717.868	2413.87
718.055	2405.68
718.242	2477.36
718.43	2422.06
718.617	2399.54
718.804	2442.54
718.991	2434.35
719.179	2407.73
719.366	2489.65
719.553	2512.17
719.74	2458.93
719.927	2434.35
720.114	2411.82
720.301	2469.17
720.488	2364.72
720.676	2331.95
720.863	2403.63
721.05	2465.07
721.237	2518.32
721.424	2370.87
721.611	2479.41
721.798	2370.87
721.985	2368.82
722.172	2319.67
722.358	2442.54
722.545	2489.65
722.732	2458.93
722.919	2422.06
723.106	2426.16
723.293	2411.82
723.48	2399.54
723.667	2448.69
723.853	2370.87
724.04	2391.34
724.227	2575.66
724.414	2463.02
724.6	2379.06
724.787	2469.17
724.974	2549.04
725.161	2514.22
725.347	2399.54
725.534	2526.51
725.72	2422.06
725.907	2518.32
726.094	2540.85
726.28	2364.72
726.467	2446.64
726.653	2489.65
726.84	2471.22
727.027	2555.18
727.213	2528.56
727.4	2440.5
727.586	2532.65
727.773	2430.26
727.959	2551.09
728.145	2518.32
728.332	2542.89
728.518	2518.32
728.705	2581.81
728.891	2428.21
729.077	2606.38
729.264	2489.65
729.45	2483.5
729.636	2532.65
729.823	2426.16
730.009	2598.19
730.195	2553.13
730.382	2469.17
730.568	2534.7
730.754	2645.29
730.94	2624.81
731.126	2559.28
731.313	2512.17
731.499	2430.26
731.685	2622.77
731.871	2573.61
732.057	2508.08
732.243	2477.36
732.429	2620.72
732.615	2651.44
732.801	2657.58
732.987	2508.08
733.173	2514.22
733.359	2702.64
733.545	2624.81
733.731	2565.42
733.917	2628.91
734.103	2676.01
734.289	2618.67
734.475	2594.09
734.661	2602.29
734.847	2626.86
735.033	2737.45
735.219	2571.57
735.404	2764.08
735.59	2645.29
735.776	2606.38
735.962	2678.06
736.148	2637.1
736.333	2735.4
736.519	2630.96
736.705	2657.58
736.89	2592.05
737.076	2727.21
737.262	2751.79
737.447	2538.8
737.633	2612.53
737.819	2710.83
738.004	2637.1
738.19	2704.68
738.375	2661.68
738.561	2645.29
738.747	2776.36
738.932	2716.97
739.118	2755.88
739.303	2682.16
739.489	2590
739.674	2661.68
739.859	2731.31
740.045	2772.27
740.23	2663.72
740.416	2626.86
740.601	2626.86
740.786	2665.77
740.972	2590
741.157	2702.64
741.342	2641.2
741.528	2700.59
741.713	2747.69
741.898	2641.2
742.084	2690.35
742.269	2581.81
742.454	2635.05
742.639	2663.72
742.824	2506.03
743.01	2667.82
743.195	2749.74
743.38	2661.68
743.565	2735.4
743.75	2770.22
743.935	2569.52
744.12	2635.05
744.305	2653.48
744.49	2616.62
744.675	2659.63
744.86	2600.24
745.045	2592.05
745.23	2706.73
745.415	2653.48
745.6	2608.43
745.785	2557.23
745.97	2532.65
746.155	2577.71
746.34	2610.48
746.525	2534.7
746.71	2643.24
746.895	2491.7
747.079	2540.85
747.264	2469.17
747.449	2440.5
747.634	2606.38
747.819	2516.27
748.003	2444.59
748.188	2497.84
748.373	2456.88
748.557	2379.06
748.742	2518.32
748.927	2374.96
749.111	2489.65
749.296	2417.97
749.481	2370.87
749.665	2471.22
749.85	2405.68
750.034	2401.58
750.219	2274.61
750.404	2401.58
750.588	2471.22
750.773	2381.1
750.957	2317.62
751.141	2346.29
751.326	2323.76
751.51	2321.71
751.695	2137.4
751.879	2260.27
752.064	2329.91
752.248	2239.8
752.432	2280.75
752.617	2274.61
752.801	2172.21
752.985	2211.12
753.17	2178.36
753.354	2241.84
753.538	2176.31
753.722	2129.2
753.907	2149.68
754.091	2127.16
754.275	1996.09
754.459	2100.53
754.643	2125.11
754.828	2082.1
755.012	1977.66
755.196	2014.52
755.38	1981.75
755.564	1901.88
755.748	1985.85
755.932	1983.8
756.116	1965.37
756.3	1889.59
756.484	1928.5
756.668	1994.04
756.852	1942.84
757.036	1922.36
757.22	1938.74
757.404	1862.97
757.588	1881.4
757.772	1942.84
757.956	1856.82
758.14	1985.85
758.323	1893.69
758.507	1836.35
758.691	1869.11
758.875	1850.68
759.059	1926.46
759.242	1793.34
759.426	1869.11
759.61	1865.02
759.794	1791.29
759.977	1729.85
760.161	1822.01
760.345	1770.81
760.528	1721.66
760.712	1813.82
760.895	1801.53
761.079	1776.95
761.263	1643.84
761.446	1695.04
761.63	1774.91
761.813	1695.04
761.997	1633.6
762.18	1684.8
762.364	1733.95
762.547	1621.31
762.731	1647.93
762.914	1633.6
763.098	1580.35
763.281	1619.26
763.464	1584.45
763.648	1549.63
763.831	1676.6
764.015	1580.35
764.198	1670.46
764.381	1531.2
764.564	1645.88
764.748	1609.02
764.931	1469.76
765.114	1543.49
765.297	1447.23
765.481	1525.05
765.664	1553.73
765.847	1631.55
766.03	1432.9
766.213	1459.52
766.397	1553.73
766.58	1488.19
766.763	1453.38
766.946	1426.75
767.129	1439.04
767.312	1506.62
767.495	1482.05
767.678	1447.23
767.861	1455.42
768.044	1555.77
768.227	1383.74
768.41	1381.7
768.593	1371.46
768.776	1410.37
768.959	1453.38
769.142	1453.38
769.324	1447.23
769.507	1393.98
769.69	1418.56
769.873	1373.5
770.056	1416.51
770.239	1393.98
770.421	1369.41
770.604	1332.54
770.787	1379.65
770.97	1385.79
771.152	1297.73
771.335	1400.13
771.518	1330.5
771.7	1293.63
771.883	1350.98
772.066	1219.91
772.248	1297.73
772.431	1334.59
772.613	1307.97
772.796	1226.05
772.978	1262.91
773.161	1310.02
773.343	1295.68
773.526	1297.73
773.708	1213.76
773.891	1148.23
774.073	1273.15
774.256	1346.88
774.438	1207.62
774.621	1140.04
774.803	1238.34
774.985	1176.9
775.168	1207.62
775.35	1144.13
775.532	1127.75
775.715	1086.79
775.897	1209.67
776.079	1064.26
776.261	1142.08
776.444	1119.56
776.626	1111.36
776.808	1074.5
776.99	1058.12
777.173	1125.7
777.355	1121.6
777.537	1084.74
777.719	1019.21
777.901	996.68
778.083	1035.59
778.265	884.04
778.447	1051.97
778.629	984.39
778.811	945.48
778.993	984.39
779.175	1013.06
779.357	992.58
779.539	929.1
779.721	1008.97
779.903	935.24
780.085	933.19
780.267	884.04
780.449	941.38
780.631	931.14
780.812	970.05
780.994	902.47
781.176	884.04
781.358	881.99
781.54	875.85
781.721	890.18
781.903	847.18
782.085	873.8
782.267	916.81
782.448	890.18
782.63	787.79
782.812	838.98
782.993	798.03
783.175	808.26
783.357	808.26
783.538	763.21
783.72	728.39
783.901	818.5
784.083	806.22
784.264	808.26
784.446	777.55
784.627	634.19
784.809	742.73
784.99	736.59
785.172	720.2
785.353	656.72
785.535	681.29
785.716	687.43
785.897	775.5
786.079	752.97
786.26	687.43
786.441	664.91
786.623	644.43
786.804	720.2
786.985	652.62
787.167	675.15
787.348	593.23
787.529	748.87
787.71	578.89
787.891	675.15
788.073	615.76
788.254	566.6
788.435	619.85
788.616	568.65
788.797	523.6
788.978	695.63
789.159	646.48
789.34	609.61
789.522	505.17
789.703	550.22
789.884	642.38
790.065	605.52
790.246	595.28
790.427	595.28
790.607	634.19
790.788	482.64
790.969	484.69
791.15	578.89
791.331	562.51
791.512	509.26
791.693	488.78
791.874	580.94
792.054	636.24
792.235	476.49
792.416	474.45
792.597	554.32
792.778	533.84
792.958	601.42
793.139	468.3
793.32	537.93
793.5	460.11
793.681	615.76
793.862	472.4
794.042	466.25
794.223	392.53
794.404	544.08
794.584	386.38
794.765	486.73
794.945	476.49
795.126	556.36
795.306	542.03
795.487	453.97
795.667	494.93
795.848	492.88
796.028	453.97
796.209	386.38
796.389	357.71
796.57	363.86
796.75	478.54
796.93	400.72
797.111	324.94
797.291	447.82
797.471	431.44
797.652	396.62
797.832	453.97
798.012	439.63
798.192	437.58
798.373	392.53
798.553	380.24
798.733	404.82
798.913	441.68
799.093	445.77
799.274	390.48
799.454	410.96
799.634	355.66
799.814	402.77
799.994	380.24
800.174	439.63
800.354	472.4
800.534	359.76
800.714	427.34
800.894	306.51
801.074	347.47
801.254	378.19
801.434	363.86
801.614	388.43
801.794	296.27
801.974	939.33
802.154	507.21
802.334	392.53
802.514	339.28
802.693	277.84
802.873	271.7
803.053	402.77
803.233	404.82
803.413	363.86
803.592	380.24
803.772	275.79
803.952	292.18
804.131	294.22
804.311	335.18
804.491	263.51
804.67	329.04
804.85	296.27
805.03	277.84
805.209	288.08
805.389	314.7
805.568	290.13
805.748	245.07
805.928	324.94
806.107	288.08
806.287	310.61
806.466	324.94
806.646	304.46
806.825	263.51
807.004	351.57
807.184	253.27
807.363	372.05
807.543	296.27
807.722	204.11
807.901	283.98
808.081	283.98
808.26	220.5
808.439	292.18
808.619	283.98
808.798	251.22
808.977	300.37
809.156	367.95
809.336	249.17
809.515	318.8
809.694	214.35
809.873	294.22
810.052	279.89
810.231	324.94
810.411	281.94
810.59	302.42
810.769	218.45
810.948	279.89
811.127	118.1
811.306	273.75
811.485	210.26
811.664	275.79
811.843	269.65
812.022	212.31
812.201	271.7
812.38	267.6
812.559	238.93
812.737	273.75
812.916	208.21
813.095	234.83
813.274	257.36
813.453	251.22
813.632	281.94
813.811	243.03
813.989	126.29
814.168	191.83
814.347	253.27
814.526	236.88
814.704	204.11
814.883	269.65
815.062	146.77
815.24	265.55
815.419	218.45
815.598	191.83
815.776	183.63
815.955	177.49
816.133	118.1
816.312	179.54
816.49	187.73
816.669	228.69
816.847	204.11
817.026	249.17
817.204	183.63
817.383	224.59
817.561	187.73
817.74	230.74
817.918	220.5
818.097	195.92
818.275	157.01
818.453	171.35
818.632	200.02
818.81	93.52
818.988	185.68
819.167	238.93
819.345	208.21
819.523	179.54
819.701	228.69
819.879	253.27
820.058	103.76
820.236	200.02
820.414	204.11
820.592	269.65
820.77	128.34
820.948	214.35
821.127	163.15
821.305	298.32
821.483	185.68
821.661	175.44
821.839	179.54
822.017	202.07
822.195	111.96
822.373	189.78
822.551	224.59
822.729	243.03
822.907	130.39
823.085	197.97
823.262	245.07
823.44	191.83
823.618	157.01
823.796	157.01
823.974	183.63
824.152	165.2
824.329	148.82
824.507	163.15
824.685	116.05
824.863	171.35
825.04	150.87
825.218	109.91
825.396	97.62
825.574	169.3
825.751	236.88
825.929	152.91
826.107	105.81
826.284	107.86
826.462	163.15
826.639	44.37
826.817	195.92
826.994	167.25
827.172	87.38
827.349	148.82
827.527	189.78
827.704	150.87
827.882	150.87
828.059	165.2
828.237	132.44
828.414	165.2
828.591	157.01
828.769	175.44
828.946	173.39
829.124	167.25
829.301	132.44
829.478	81.24
829.655	144.72
829.833	128.34
830.01	95.57
830.187	165.2
830.364	191.83
830.542	130.39
830.719	183.63
830.896	99.67
831.073	181.59
831.25	159.06
831.427	124.24
831.604	60.76
831.782	114
831.959	120.15
832.136	144.72
832.313	175.44
832.49	27.99
832.667	161.11
832.844	105.81
833.021	181.59
833.198	122.2
833.374	68.95
833.551	159.06
833.728	169.3
833.905	101.72
834.082	50.52
834.259	132.44
834.436	161.11
834.612	-12.97
834.789	124.24
834.966	114
835.143	87.38
835.319	48.47
835.496	111.96
835.673	134.48
835.85	95.57
836.026	148.82
836.203	122.2
836.38	101.72
836.556	138.58
836.733	71
836.909	189.78
837.086	62.8
837.262	25.94
837.439	56.66
837.616	107.86
837.792	58.71
837.968	89.43
838.145	46.42
838.321	77.14
838.498	64.85
838.674	126.29
838.851	32.08
839.027	122.2
839.203	109.91
839.38	118.1
839.556	68.95
839.732	99.67
839.909	9.56
840.085	140.63
840.261	44.37
840.437	134.48
840.614	46.42
840.79	109.91
840.966	75.09
841.142	64.85
841.318	91.48
841.494	105.81
841.671	89.43
841.847	128.34
842.023	7.51
842.199	163.15
842.375	120.15
842.551	9.56
842.727	60.76
842.903	7.51
843.079	79.19
843.255	132.44
843.431	77.14
843.607	105.81
843.783	58.71
843.959	161.11
844.134	58.71
844.31	42.32
844.486	40.28
844.662	44.37
844.838	109.91
845.013	103.76
845.189	25.94
845.365	99.67
845.541	89.43
845.716	126.29
845.892	120.15
846.068	73.04
846.244	42.32
846.419	44.37
846.595	-37.55
846.77	-6.83
846.946	114
847.122	71
847.297	27.99
847.473	179.54
847.648	27.99
847.824	38.23
847.999	105.81
848.175	66.9
848.35	152.91
848.526	142.68
848.701	122.2
848.876	122.2
849.052	116.05
849.227	99.67
849.403	-41.64
849.578	42.32
849.753	93.52
849.929	58.71
850.104	52.56
850.279	91.48
850.454	97.62
850.63	54.61
850.805	77.14
850.98	50.52
851.155	75.09
851.33	120.15
851.505	50.52
851.681	111.96
851.856	-0.68
852.031	79.19
852.206	64.85
852.381	5.46
852.556	7.51
852.731	124.24
852.906	87.38
853.081	42.32
853.256	120.15
853.431	62.8
853.606	77.14
853.781	5.46
853.956	32.08
854.131	60.76
854.305	107.86
854.48	-10.92
854.655	34.13
854.83	87.38
855.005	58.71
855.18	19.8
855.354	13.65
855.529	75.09
855.704	11.61
855.879	42.32
856.053	25.94
856.228	68.95
856.403	-6.83
856.577	32.08
856.752	9.56
856.926	38.23
857.101	56.66
857.276	17.75
857.45	-23.21
857.625	52.56
857.799	109.91
857.974	48.47
858.148	27.99
858.323	1.37
858.497	71
858.672	79.19
858.846	-53.93
859.02	11.61
859.195	64.85
859.369	19.8
859.543	46.42
859.718	107.86
859.892	48.47
860.066	46.42
860.241	-27.31
860.415	-12.97
860.589	-55.98
860.763	-41.64
860.938	-45.74
861.112	95.57
861.286	40.28
861.46	46.42
861.634	27.99
861.808	-2.73
861.982	58.71
862.157	5.46
862.331	19.8
862.505	87.38
862.679	-12.97
862.853	-8.87
863.027	83.28
863.201	42.32
863.375	-8.87
863.549	107.86
863.722	40.28
863.896	42.32
864.07	9.56
864.244	50.52
864.418	68.95
864.592	38.23
864.766	42.32
864.939	52.56
865.113	11.61
865.287	46.42
865.461	27.99
865.634	23.89
865.808	-31.4
865.982	-17.07
866.156	68.95
866.329	40.28
866.503	62.8
866.676	36.18
866.85	23.89
867.024	50.52
867.197	11.61
867.371	-53.93
867.544	60.76
867.718	-23.21
867.891	85.33
868.065	1.37
868.238	50.52
868.412	9.56
868.585	19.8
868.759	3.41
868.932	40.28
869.105	19.8
869.279	27.99
869.452	97.62
869.625	32.08
869.799	-8.87
869.972	-12.97
870.145	85.33
870.319	19.8
870.492	-21.16
870.665	25.94
870.838	-8.87
871.011	-27.31
871.185	-58.03
871.358	-0.68
871.531	40.28
871.704	-10.92
871.877	34.13
872.05	50.52
872.223	-33.45
872.396	-0.68
872.569	42.32
872.742	3.41
872.915	79.19
873.088	1.37
873.261	17.75
873.434	38.23
873.607	27.99
873.78	-23.21
873.953	-19.11
874.126	-68.27
874.299	36.18
874.471	30.04
874.644	44.37
874.817	-58.03
874.99	5.46
875.163	46.42
875.335	71
875.508	3.41
875.681	68.95
875.853	32.08
876.026	56.66
876.199	40.28
876.371	-29.35
876.544	19.8
876.717	23.89
876.889	5.46
877.062	44.37
877.234	-41.64
877.407	-0.68
877.579	5.46
877.752	-12.97
877.924	-25.26
878.097	89.43
878.269	68.95
878.442	85.33
878.614	77.14
878.786	30.04
878.959	46.42
879.131	52.56
879.303	-15.02
879.476	38.23
879.648	-68.27
879.82	-12.97
879.993	-23.21
880.165	32.08
880.337	-41.64
880.509	-43.69
880.681	30.04
880.854	-10.92
881.026	79.19
881.198	89.43
881.37	-60.07
881.542	-31.4
881.714	-8.87
881.886	-27.31
882.058	-23.21
882.23	21.84
882.402	46.42
882.574	46.42
882.746	-6.83
882.918	62.8
883.09	-2.73
883.262	-10.92
883.434	1.37
883.606	-4.78
883.778	30.04
883.95	54.61
884.122	7.51
884.293	128.34
884.465	17.75
884.637	71
884.809	-21.16
884.98	38.23
885.152	89.43
885.324	1.37
885.496	42.32
885.667	-23.21
885.839	-64.17
886.011	62.8
886.182	-43.69
886.354	-62.12
886.525	7.51
886.697	25.94
886.869	-12.97
887.04	-64.17
887.212	15.7
887.383	62.8
887.555	-15.02
887.726	-51.88
887.897	-39.59
888.069	-2.73
888.24	40.28
888.412	-25.26
888.583	68.95
888.754	-15.02
888.926	-51.88
889.097	-70.31
889.268	-27.31
889.44	-23.21
889.611	30.04
889.782	-10.92
889.953	-58.03
890.125	62.8
890.296	-64.17
890.467	-17.07
890.638	11.61
890.809	11.61
890.98	-15.02
891.151	17.75
891.323	-2.73
891.494	23.89
891.665	13.65
891.836	-6.83
892.007	-10.92
892.178	13.65
892.349	-47.79
892.52	-47.79
892.691	-53.93
892.862	21.84
893.032	-17.07
893.203	-21.16
893.374	23.89
893.545	5.46
893.716	7.51
893.887	-31.4
894.057	-31.4
894.228	50.52
894.399	9.56
894.57	1.37
894.74	-12.97
894.911	5.46
895.082	-90.79
895.253	-45.74
895.423	-12.97
895.594	48.47
895.764	-33.45
895.935	-0.68
896.106	13.65
896.276	-45.74
896.447	34.13
896.617	-70.31
896.788	-4.78
896.958	-37.55
897.129	3.41
897.299	19.8
897.47	-31.4
897.64	-35.5
897.81	-15.02
897.981	68.95
898.151	23.89
898.322	19.8
898.492	-19.11
898.662	11.61
898.832	25.94
899.003	1.37
899.173	54.61
899.343	-6.83
899.513	3.41
