Data from USB4F104151__1__12-40-51-031.txt Node

Date: Fri Mar 14 12:40:51 EDT 2025
User: louis
Spectrometer: USB4F10415
Trigger mode: 4
Integration Time (sec): 3.000000E-2
Scans to average: 1
Electric dark correction enabled: true
Nonlinearity correction enabled: false
Boxcar width: 0
XAxis mode: Wavelengths
Number of Pixels in Spectrum: 3648
>>>>>Begin Spectral Data<<<<<
178.204	-164.69
178.424	-164.69
178.644	-164.69
178.864	-160.59
179.084	-138.07
179.304	-25.43
179.524	-0.85
179.744	5.29
179.964	13.48
180.184	-58.2
180.404	-0.85
180.624	15.53
180.844	23.72
181.064	19.63
181.283	23.72
181.503	-27.48
181.723	11.43
181.943	-23.38
182.163	31.91
182.383	-72.53
182.602	54.44
182.822	46.25
183.042	27.82
183.262	-58.2
183.482	29.87
183.701	1.19
183.921	-4.95
184.141	-2.9
184.361	11.43
184.58	40.11
184.8	97.45
185.02	68.78
185.239	56.49
185.459	58.54
185.679	46.25
185.898	23.72
186.118	46.25
186.338	-17.24
186.557	79.02
186.777	36.01
186.997	15.53
187.216	-9.05
187.436	36.01
187.655	-11.09
187.875	-54.1
188.095	60.59
188.314	-4.95
188.534	42.15
188.753	-17.24
188.973	40.11
189.192	105.64
189.412	79.02
189.631	19.63
189.851	36.01
190.07	7.34
190.29	27.82
190.509	5.29
190.729	-52.05
190.948	31.91
191.168	126.12
191.387	42.15
191.607	85.16
191.826	-13.14
192.045	5.29
192.265	46.25
192.484	-11.09
192.704	79.02
192.923	-33.62
193.142	89.26
193.362	56.49
193.581	19.63
193.8	-35.67
194.02	21.67
194.239	15.53
194.458	44.2
194.678	25.77
194.897	-4.95
195.116	58.54
195.335	1.19
195.555	58.54
195.774	-2.9
195.993	38.06
196.212	7.34
196.432	-7
196.651	-0.85
196.87	9.39
197.089	23.72
197.308	79.02
197.528	74.92
197.747	3.24
197.966	13.48
198.185	29.87
198.404	38.06
198.623	23.72
198.842	83.11
199.062	79.02
199.281	44.2
199.5	89.26
199.719	31.91
199.938	-4.95
200.157	40.11
200.376	-4.95
200.595	130.22
200.814	85.16
201.033	23.72
201.252	76.97
201.471	62.63
201.69	50.35
201.909	62.63
202.128	52.39
202.347	1.19
202.566	17.58
202.785	21.67
203.004	-31.57
203.223	81.07
203.442	70.83
203.661	42.15
203.879	68.78
204.098	38.06
204.317	-2.9
204.536	7.34
204.755	9.39
204.974	128.17
205.193	70.83
205.411	83.11
205.63	48.3
205.849	58.54
206.068	-19.29
206.287	9.39
206.505	105.64
206.724	52.39
206.943	29.87
207.162	27.82
207.381	-47.96
207.599	11.43
207.818	1.19
208.037	-31.57
208.255	19.63
208.474	109.74
208.693	5.29
208.911	25.77
209.13	50.35
209.349	97.45
209.567	38.06
209.786	27.82
210.005	89.26
210.223	-50
210.442	-0.85
210.661	9.39
210.879	101.55
211.098	19.63
211.316	46.25
211.535	158.89
211.753	36.01
211.972	66.73
212.191	115.88
212.409	109.74
212.628	46.25
212.846	13.48
213.065	36.01
213.283	46.25
213.502	1.19
213.72	27.82
213.938	-0.85
214.157	19.63
214.375	-21.33
214.594	-33.62
214.812	27.82
215.031	46.25
215.249	17.58
215.467	-2.9
215.686	-9.05
215.904	113.83
216.122	-17.24
216.341	74.92
216.559	3.24
216.778	40.11
216.996	66.73
217.214	40.11
217.432	-11.09
217.651	13.48
217.869	52.39
218.087	36.01
218.306	54.44
218.524	46.25
218.742	38.06
218.96	50.35
219.179	11.43
219.397	21.67
219.615	48.3
219.833	9.39
220.051	-29.52
220.27	44.2
220.488	42.15
220.706	79.02
220.924	-7
221.142	7.34
221.36	107.69
221.578	36.01
221.796	33.96
222.015	29.87
222.233	17.58
222.451	105.64
222.669	-15.19
222.887	11.43
223.105	54.44
223.323	23.72
223.541	-9.05
223.759	33.96
223.977	74.92
224.195	113.83
224.413	52.39
224.631	1.19
224.849	62.63
225.067	115.88
225.285	64.68
225.503	19.63
225.721	-68.44
225.939	29.87
226.157	64.68
226.375	140.46
226.592	74.92
226.81	11.43
227.028	56.49
227.246	122.02
227.464	56.49
227.682	46.25
227.9	58.54
228.117	-23.38
228.335	81.07
228.553	-33.62
228.771	42.15
228.989	-35.67
229.206	74.92
229.424	83.11
229.642	68.78
229.86	1.19
230.077	109.74
230.295	111.78
230.513	138.41
230.731	19.63
230.948	124.07
231.166	58.54
231.384	9.39
231.601	9.39
231.819	93.35
232.037	-74.58
232.254	-9.05
232.472	25.77
232.689	46.25
232.907	74.92
233.125	-0.85
233.342	25.77
233.56	-2.9
233.777	52.39
233.995	25.77
234.213	29.87
234.43	62.63
234.648	44.2
234.865	3.24
235.083	50.35
235.3	-19.29
235.518	9.39
235.735	70.83
235.953	42.15
236.17	29.87
236.388	-66.39
236.605	-0.85
236.822	31.91
237.04	-27.48
237.257	46.25
237.475	56.49
237.692	21.67
237.909	42.15
238.127	11.43
238.344	40.11
238.562	81.07
238.779	-11.09
238.996	33.96
239.214	23.72
239.431	21.67
239.648	58.54
239.865	74.92
240.083	25.77
240.3	42.15
240.517	52.39
240.735	-15.19
240.952	9.39
241.169	81.07
241.386	40.11
241.603	15.53
241.821	1.19
242.038	97.45
242.255	23.72
242.472	-9.05
242.689	62.63
242.907	42.15
243.124	62.63
243.341	64.68
243.558	19.63
243.775	25.77
243.992	15.53
244.209	58.54
244.426	56.49
244.643	13.48
244.86	15.53
245.078	7.34
245.295	81.07
245.512	50.35
245.729	33.96
245.946	17.58
246.163	130.22
246.38	52.39
246.597	3.24
246.814	146.6
247.031	5.29
247.248	38.06
247.464	-13.14
247.681	52.39
247.898	40.11
248.115	62.63
248.332	15.53
248.549	76.97
248.766	115.88
248.983	107.69
249.2	11.43
249.417	25.77
249.633	68.78
249.85	60.59
250.067	-15.19
250.284	33.96
250.501	62.63
250.717	79.02
250.934	15.53
251.151	126.12
251.368	-4.95
251.585	52.39
251.801	52.39
252.018	17.58
252.235	36.01
252.451	-37.72
252.668	105.64
252.885	62.63
253.102	62.63
253.318	-41.81
253.535	-4.95
253.752	-7
253.968	3.24
254.185	33.96
254.401	11.43
254.618	66.73
254.835	-23.38
255.051	25.77
255.268	27.82
255.484	-41.81
255.701	38.06
255.917	66.73
256.134	-39.76
256.351	107.69
256.567	58.54
256.784	25.77
257	-4.95
257.217	40.11
257.433	119.98
257.65	52.39
257.866	126.12
258.082	-41.81
258.299	-15.19
258.515	81.07
258.732	13.48
258.948	-74.58
259.165	-2.9
259.381	-33.62
259.597	-11.09
259.814	27.82
260.03	-9.05
260.246	70.83
260.463	58.54
260.679	107.69
260.895	44.2
261.112	33.96
261.328	13.48
261.544	9.39
261.761	91.31
261.977	-9.05
262.193	46.25
262.409	66.73
262.626	-9.05
262.842	66.73
263.058	5.29
263.274	-17.24
263.49	52.39
263.707	29.87
263.923	7.34
264.139	9.39
264.355	-0.85
264.571	54.44
264.787	23.72
265.004	7.34
265.22	68.78
265.436	46.25
265.652	68.78
265.868	40.11
266.084	-17.24
266.3	7.34
266.516	-21.33
266.732	72.87
266.948	38.06
267.164	83.11
267.38	97.45
267.596	70.83
267.812	44.2
268.028	5.29
268.244	33.96
268.46	56.49
268.676	40.11
268.892	50.35
269.108	64.68
269.324	-60.24
269.54	40.11
269.756	68.78
269.972	27.82
270.188	17.58
270.403	1.19
270.619	-15.19
270.835	33.96
271.051	17.58
271.267	3.24
271.483	81.07
271.698	99.5
271.914	56.49
272.13	76.97
272.346	42.15
272.562	21.67
272.777	29.87
272.993	29.87
273.209	1.19
273.425	-13.14
273.64	-13.14
273.856	-23.38
274.072	74.92
274.287	-19.29
274.503	46.25
274.719	-2.9
274.934	27.82
275.15	-70.48
275.366	144.55
275.581	29.87
275.797	-88.92
276.012	3.24
276.228	-31.57
276.444	74.92
276.659	87.21
276.875	-50
277.09	40.11
277.306	-0.85
277.521	97.45
277.737	66.73
277.952	-19.29
278.168	13.48
278.383	23.72
278.599	-15.19
278.814	97.45
279.03	7.34
279.245	46.25
279.461	23.72
279.676	13.48
279.892	3.24
280.107	83.11
280.322	58.54
280.538	19.63
280.753	29.87
280.969	66.73
281.184	72.87
281.399	66.73
281.615	40.11
281.83	132.26
282.045	-25.43
282.26	13.48
282.476	150.7
282.691	101.55
282.906	99.5
283.122	3.24
283.337	17.58
283.552	-9.05
283.767	64.68
283.983	97.45
284.198	66.73
284.413	-27.48
284.628	58.54
284.843	99.5
285.058	17.58
285.274	62.63
285.489	33.96
285.704	15.53
285.919	-21.33
286.134	31.91
286.349	29.87
286.564	-7
286.779	87.21
286.995	66.73
287.21	-64.34
287.425	31.91
287.64	7.34
287.855	23.72
288.07	29.87
288.285	42.15
288.5	50.35
288.715	101.55
288.93	-33.62
289.145	68.78
289.36	50.35
289.575	99.5
289.79	68.78
290.004	87.21
290.219	124.07
290.434	29.87
290.649	25.77
290.864	52.39
291.079	56.49
291.294	-13.14
291.509	52.39
291.724	1.19
291.938	79.02
292.153	74.92
292.368	15.53
292.583	17.58
292.798	-0.85
293.012	-7
293.227	36.01
293.442	-19.29
293.657	-43.86
293.871	58.54
294.086	11.43
294.301	109.74
294.516	64.68
294.73	42.15
294.945	-41.81
295.16	52.39
295.374	25.77
295.589	62.63
295.804	29.87
296.018	-31.57
296.233	95.4
296.447	27.82
296.662	23.72
296.877	3.24
297.091	101.55
297.306	85.16
297.52	19.63
297.735	56.49
297.949	3.24
298.164	50.35
298.378	66.73
298.593	56.49
298.807	38.06
299.022	3.24
299.236	66.73
299.451	-15.19
299.665	46.25
299.88	29.87
300.094	13.48
300.309	74.92
300.523	101.55
300.737	17.58
300.952	33.96
301.166	31.91
301.381	-31.57
301.595	-2.9
301.809	60.59
302.024	-31.57
302.238	-4.95
302.452	21.67
302.667	21.67
302.881	134.31
303.095	52.39
303.309	23.72
303.524	-0.85
303.738	46.25
303.952	89.26
304.166	60.59
304.381	-68.44
304.595	134.31
304.809	19.63
305.023	17.58
305.237	38.06
305.452	58.54
305.666	31.91
305.88	68.78
306.094	-13.14
306.308	115.88
306.522	56.49
306.736	31.91
306.95	52.39
307.164	-2.9
307.379	-0.85
307.593	91.31
307.807	70.83
308.021	38.06
308.235	-7
308.449	19.63
308.663	66.73
308.877	83.11
309.091	70.83
309.305	50.35
309.519	-21.33
309.733	93.35
309.947	-9.05
310.161	95.4
310.374	130.22
310.588	81.07
310.802	31.91
311.016	19.63
311.23	91.31
311.444	19.63
311.658	31.91
311.872	36.01
312.085	105.64
312.299	101.55
312.513	72.87
312.727	91.31
312.941	64.68
313.154	52.39
313.368	60.59
313.582	50.35
313.796	42.15
314.009	76.97
314.223	11.43
314.437	70.83
314.651	52.39
314.864	-15.19
315.078	46.25
315.292	36.01
315.505	54.44
315.719	83.11
315.933	119.98
316.146	52.39
316.36	3.24
316.573	81.07
316.787	36.01
317.001	91.31
317.214	46.25
317.428	89.26
317.641	60.59
317.855	13.48
318.068	31.91
318.282	81.07
318.495	89.26
318.709	144.55
318.922	-2.9
319.136	27.82
319.349	62.63
319.563	44.2
319.776	15.53
319.99	-4.95
320.203	134.31
320.417	60.59
320.63	68.78
320.843	64.68
321.057	38.06
321.27	83.11
321.483	42.15
321.697	136.36
321.91	31.91
322.124	52.39
322.337	107.69
322.55	1.19
322.763	83.11
322.977	-17.24
323.19	-15.19
323.403	-33.62
323.617	-19.29
323.83	66.73
324.043	1.19
324.256	5.29
324.469	48.3
324.683	122.02
324.896	54.44
325.109	27.82
325.322	-35.67
325.535	79.02
325.748	126.12
325.962	68.78
326.175	25.77
326.388	40.11
326.601	-9.05
326.814	85.16
327.027	27.82
327.24	23.72
327.453	-37.72
327.666	87.21
327.879	128.17
328.092	42.15
328.305	-21.33
328.518	48.3
328.731	7.34
328.944	68.78
329.157	40.11
329.37	7.34
329.583	105.64
329.796	83.11
330.009	44.2
330.222	29.87
330.435	46.25
330.648	7.34
330.861	25.77
331.073	93.35
331.286	64.68
331.499	40.11
331.712	62.63
331.925	19.63
332.138	44.2
332.35	62.63
332.563	17.58
332.776	70.83
332.989	44.2
333.202	70.83
333.414	9.39
333.627	38.06
333.84	60.59
334.053	42.15
334.265	62.63
334.478	-19.29
334.691	36.01
334.903	40.11
335.116	36.01
335.329	44.2
335.541	31.91
335.754	38.06
335.966	-4.95
336.179	42.15
336.392	70.83
336.604	89.26
336.817	154.79
337.029	50.35
337.242	15.53
337.454	-21.33
337.667	33.96
337.88	74.92
338.092	23.72
338.305	62.63
338.517	101.55
338.729	7.34
338.942	56.49
339.154	17.58
339.367	21.67
339.579	142.5
339.792	7.34
340.004	144.55
340.217	13.48
340.429	83.11
340.641	44.2
340.854	3.24
341.066	54.44
341.278	60.59
341.491	9.39
341.703	60.59
341.915	5.29
342.128	117.93
342.34	76.97
342.552	-11.09
342.764	29.87
342.977	50.35
343.189	81.07
343.401	111.78
343.613	76.97
343.826	33.96
344.038	5.29
344.25	66.73
344.462	76.97
344.674	5.29
344.886	27.82
345.099	87.21
345.311	29.87
345.523	-56.15
345.735	44.2
345.947	66.73
346.159	31.91
346.371	50.35
346.583	44.2
346.795	83.11
347.007	40.11
347.219	52.39
347.431	38.06
347.643	85.16
347.855	134.31
348.067	42.15
348.279	-23.38
348.491	19.63
348.703	58.54
348.915	25.77
349.127	21.67
349.339	95.4
349.551	13.48
349.763	17.58
349.975	9.39
350.187	56.49
350.399	79.02
350.61	81.07
350.822	74.92
351.034	103.59
351.246	25.77
351.458	97.45
351.669	46.25
351.881	76.97
352.093	115.88
352.305	46.25
352.517	7.34
352.728	83.11
352.94	38.06
353.152	74.92
353.363	85.16
353.575	103.59
353.787	99.5
353.999	74.92
354.21	89.26
354.422	44.2
354.633	58.54
354.845	64.68
355.057	105.64
355.268	52.39
355.48	38.06
355.692	-27.48
355.903	44.2
356.115	42.15
356.326	19.63
356.538	40.11
356.749	5.29
356.961	152.74
357.172	109.74
357.384	119.98
357.595	85.16
357.807	38.06
358.018	48.3
358.23	29.87
358.441	93.35
358.653	48.3
358.864	87.21
359.075	58.54
359.287	42.15
359.498	95.4
359.709	48.3
359.921	-0.85
360.132	27.82
360.344	76.97
360.555	52.39
360.766	64.68
360.977	76.97
361.189	74.92
361.4	-37.72
361.611	50.35
361.823	81.07
362.034	52.39
362.245	-29.52
362.456	-9.05
362.667	136.36
362.879	97.45
363.09	66.73
363.301	56.49
363.512	105.64
363.723	-9.05
363.935	40.11
364.146	89.26
364.357	46.25
364.568	85.16
364.779	54.44
364.99	95.4
365.201	21.67
365.412	105.64
365.623	3.24
365.834	87.21
366.045	31.91
366.256	91.31
366.467	89.26
366.678	89.26
366.889	56.49
367.1	-7
367.311	25.77
367.522	44.2
367.733	48.3
367.944	60.59
368.155	-9.05
368.366	54.44
368.577	122.02
368.788	33.96
368.999	-17.24
369.209	87.21
369.42	126.12
369.631	167.08
369.842	74.92
370.053	-29.52
370.264	142.5
370.474	85.16
370.685	19.63
370.896	109.74
371.107	87.21
371.317	29.87
371.528	31.91
371.739	101.55
371.95	-7
372.16	66.73
372.371	11.43
372.582	9.39
372.792	74.92
373.003	76.97
373.214	7.34
373.424	81.07
373.635	3.24
373.846	95.4
374.056	36.01
374.267	85.16
374.477	79.02
374.688	68.78
374.898	29.87
375.109	29.87
375.319	31.91
375.53	17.58
375.74	105.64
375.951	107.69
376.161	136.36
376.372	62.63
376.582	15.53
376.793	11.43
377.003	33.96
377.214	25.77
377.424	25.77
377.635	36.01
377.845	68.78
378.055	115.88
378.266	44.2
378.476	99.5
378.686	111.78
378.897	79.02
379.107	81.07
379.317	27.82
379.528	58.54
379.738	99.5
379.948	48.3
380.158	189.61
380.369	58.54
380.579	134.31
380.789	113.83
380.999	126.12
381.21	60.59
381.42	128.17
381.63	107.69
381.84	107.69
382.05	115.88
382.261	95.4
382.471	76.97
382.681	74.92
382.891	107.69
383.101	113.83
383.311	19.63
383.521	46.25
383.731	124.07
383.941	130.22
384.151	95.4
384.361	54.44
384.571	70.83
384.781	13.48
384.991	36.01
385.201	175.27
385.411	83.11
385.621	85.16
385.831	119.98
386.041	87.21
386.251	64.68
386.461	48.3
386.671	105.64
386.881	56.49
387.091	87.21
387.301	136.36
387.511	160.94
387.72	97.45
387.93	113.83
388.14	74.92
388.35	64.68
388.56	29.87
388.769	81.07
388.979	31.91
389.189	56.49
389.399	29.87
389.609	79.02
389.818	91.31
390.028	95.4
390.238	25.77
390.447	46.25
390.657	150.7
390.867	74.92
391.076	62.63
391.286	160.94
391.496	58.54
391.705	119.98
391.915	42.15
392.125	74.92
392.334	130.22
392.544	181.42
392.753	76.97
392.963	107.69
393.172	160.94
393.382	107.69
393.591	83.11
393.801	62.63
394.01	203.94
394.22	56.49
394.429	66.73
394.639	76.97
394.848	132.26
395.058	111.78
395.267	93.35
395.477	113.83
395.686	144.55
395.895	109.74
396.105	115.88
396.314	169.13
396.524	81.07
396.733	85.16
396.942	181.42
397.152	130.22
397.361	177.32
397.57	101.55
397.78	115.88
397.989	134.31
398.198	175.27
398.407	152.74
398.617	115.88
398.826	79.02
399.035	124.07
399.244	132.26
399.453	169.13
399.663	183.46
399.872	130.22
400.081	117.93
400.29	144.55
400.499	62.63
400.708	134.31
400.917	83.11
401.127	101.55
401.336	195.75
401.545	167.08
401.754	111.78
401.963	150.7
402.172	156.84
402.381	117.93
402.59	165.03
402.799	203.94
403.008	175.27
403.217	160.94
403.426	162.98
403.635	187.56
403.844	181.42
404.053	93.35
404.262	146.6
404.471	185.51
404.68	162.98
404.888	179.37
405.097	222.38
405.306	205.99
405.515	150.7
405.724	183.46
405.933	222.38
406.142	214.18
406.35	269.48
406.559	138.41
406.768	263.33
406.977	269.48
407.185	185.51
407.394	246.95
407.603	222.38
407.812	263.33
408.02	312.49
408.229	292.01
408.438	281.77
408.646	373.92
408.855	373.92
409.064	351.4
409.272	308.39
409.481	384.16
409.69	447.65
409.898	285.86
410.107	410.79
410.315	394.4
410.524	388.26
410.733	457.89
410.941	433.32
411.15	543.91
411.358	502.95
411.567	558.24
411.775	478.37
411.984	527.52
412.192	509.09
412.401	441.51
412.609	652.45
412.818	730.27
413.026	713.89
413.234	613.54
413.443	670.88
413.651	640.16
413.86	746.66
414.068	814.24
414.276	746.66
414.485	728.22
414.693	881.82
414.901	900.25
415.11	955.55
415.318	941.21
415.526	922.78
415.734	910.49
415.943	1074.33
416.151	1098.91
416.359	1064.09
416.567	1125.53
416.776	1078.43
416.984	1262.74
417.192	1244.31
417.4	1373.33
417.608	1289.37
417.817	1471.64
418.025	1440.92
418.233	1680.53
418.441	1445.01
418.649	1524.88
418.857	1621.14
419.065	1643.67
419.273	1713.3
419.481	1860.75
419.689	1766.54
419.897	1991.82
420.105	1823.89
420.313	2227.34
420.521	2077.83
420.729	2077.83
420.937	2200.71
421.145	2311.3
421.353	2376.84
421.561	2466.95
421.769	2518.15
421.977	2698.37
422.185	2561.16
422.393	2788.48
422.601	2944.13
422.809	2905.21
423.017	2907.26
423.224	3114.11
423.432	3349.62
423.64	3202.17
423.848	3480.69
424.056	3515.51
424.263	3734.64
424.471	3646.58
424.679	3765.36
424.887	4029.55
425.094	3994.73
425.302	4158.57
425.51	4330.6
425.718	4410.47
425.925	4416.62
426.133	4645.99
426.341	4830.3
426.548	5215.32
426.756	5112.92
426.964	5219.42
427.171	5614.68
427.379	5592.15
427.586	5798.99
427.794	5850.19
428.001	6134.86
428.209	6390.86
428.417	6466.63
428.624	6853.7
428.832	6880.32
429.039	6896.71
429.247	6888.51
429.454	7177.28
429.662	7793.72
429.869	7328.83
430.076	7826.48
430.284	7740.47
430.491	8229.93
430.699	8467.5
430.906	8444.97
431.114	8533.03
431.321	8952.87
431.528	9149.47
431.736	9778.2
431.943	9966.61
432.15	9724.95
432.358	9948.18
432.565	10419.21
432.772	10488.84
432.979	11115.52
433.187	11176.96
433.394	11097.09
433.601	11807.73
433.808	12047.35
434.016	12022.77
434.223	12385.26
434.43	13231.07
434.637	13083.62
434.844	13765.59
435.052	14029.78
435.259	13943.77
435.466	14234.58
435.673	14042.07
435.88	14738.38
436.087	15494.08
436.294	15612.86
436.501	15500.22
436.708	15811.51
436.915	16212.92
437.122	16907.18
437.329	16790.44
437.537	17447.84
437.743	17781.66
437.95	17451.94
438.157	18629.52
438.364	19395.46
438.571	19041.16
438.778	19305.35
438.985	21011.31
439.192	20071.29
439.399	20716.4
439.606	20083.58
439.813	21621.6
440.02	22809.42
440.227	22446.93
440.433	22004.57
440.64	22602.58
440.847	22860.62
441.054	23356.23
441.261	24908.59
441.467	24734.51
441.674	25010.99
441.881	26010.4
442.088	25879.33
442.294	25625.38
442.501	26149.66
442.708	26923.79
442.914	27927.3
443.121	29178.61
443.328	28175.1
443.534	30317.28
443.741	29532.9
443.948	29170.41
444.154	31455.95
444.361	31025.87
444.568	31222.48
444.774	31318.73
444.981	31609.54
445.187	32633.53
445.394	34040.48
445.6	33508.01
445.807	36885.11
446.013	34996.88
446.22	35523.21
446.426	37175.92
446.633	37397.1
446.839	38765.15
447.046	37061.24
447.252	39477.84
447.459	38963.8
447.665	39170.64
447.871	40958.52
448.078	42107.43
448.284	40434.24
448.491	41566.77
448.697	43452.95
448.903	44149.26
449.11	44100.11
449.316	43385.36
449.522	44075.53
449.728	45257.21
449.935	45691.38
450.141	45640.18
450.347	47172.06
450.553	45318.65
450.76	45449.72
450.966	47196.63
451.172	46776.8
451.378	47704.53
451.584	46612.96
451.791	48138.7
451.997	47792.59
452.203	48619.97
452.409	49121.73
452.615	48511.43
452.821	46445.03
453.027	46264.81
453.233	48781.76
453.44	46813.66
453.646	47536.6
453.852	47954.38
454.058	48566.73
454.264	47004.13
454.47	47587.8
454.676	46682.59
454.882	48425.42
455.088	44110.35
455.294	45101.56
455.5	45527.54
455.705	45867.5
455.911	43962.89
456.117	43262.49
456.323	42699.3
456.529	40811.07
456.735	42437.16
456.941	41431.6
457.147	40544.83
457.352	39303.76
457.558	39240.28
457.764	39115.35
457.97	38283.87
458.176	37571.18
458.381	37538.41
458.587	35617.42
458.793	35943.05
458.999	34202.27
459.204	36416.13
459.41	35342.99
459.616	33061.55
459.821	33252.02
460.027	32854.71
460.233	32084.67
460.438	30708.44
460.644	30941.91
460.85	29838.05
461.055	29387.5
461.261	29049.58
461.466	26565.4
461.672	25994.01
461.878	28107.52
462.083	26043.17
462.289	25842.46
462.494	25518.89
462.7	24288.06
462.905	23380.81
463.111	24382.26
463.316	24548.15
463.522	24152.89
463.727	24374.07
463.932	24011.58
464.138	23679.81
464.343	23675.71
464.549	23264.07
464.754	24009.53
464.959	23866.17
465.165	23399.24
465.37	22860.62
465.575	21924.7
465.781	22913.87
465.986	23327.56
466.191	22221.66
466.397	21680.99
466.602	20867.95
466.807	21343.08
467.012	21365.6
467.218	21394.28
467.423	21080.94
467.628	21101.42
467.833	22145.88
468.038	21031.79
468.244	20591.47
468.449	21629.79
468.654	20915.05
468.859	20757.36
469.064	20826.99
469.269	19846.01
469.474	19841.92
469.679	20460.4
469.885	19811.2
470.09	19796.86
470.295	19837.82
470.5	19372.93
470.705	19604.35
470.91	19338.12
471.115	19016.58
471.32	19268.48
471.525	19055.5
471.73	18572.18
471.935	18350.99
472.139	17974.17
472.344	18232.21
472.549	18004.89
472.754	18000.79
472.959	17552.29
473.164	17128.36
473.369	17210.28
473.574	17699.74
473.778	17429.41
473.983	17261.48
474.188	17038.25
474.393	16233.39
474.598	16638.89
474.802	16395.18
475.007	16047.03
475.212	16149.43
475.417	15545.28
475.621	15483.84
475.826	15688.64
476.031	15586.24
476.235	15152.07
476.44	15186.88
476.645	14781.39
476.849	14928.84
477.054	14728.14
477.259	14566.35
477.463	14574.54
477.668	14287.82
477.872	14365.65
478.077	14101.46
478.282	13724.63
478.486	13884.37
478.691	13693.91
478.895	13517.79
479.1	13534.17
479.304	13439.97
479.509	13003.75
479.713	13487.07
479.918	12944.36
480.122	12786.66
480.326	13005.8
480.531	13128.67
480.735	12981.22
480.94	12907.49
481.144	13001.7
481.348	12497.9
481.553	12790.76
481.757	12573.67
481.961	12739.56
482.166	12690.41
482.37	12735.46
482.574	12471.28
482.778	12346.35
482.983	12829.67
483.187	12622.83
483.391	12723.18
483.595	12485.61
483.8	12106.74
484.004	12575.72
484.208	12626.92
484.412	12401.65
484.616	12274.67
484.821	12686.31
485.025	12401.65
485.229	12602.35
485.433	12354.54
485.637	12622.83
485.841	12387.31
486.045	12319.73
486.249	12411.89
486.453	12131.31
486.657	12387.31
486.861	12528.62
487.065	12121.07
487.269	12385.26
487.473	12227.57
487.677	12493.8
487.881	12678.12
488.085	12512.24
488.289	12631.02
488.493	12551.15
488.697	12762.09
488.901	12522.48
489.105	12624.87
489.309	12624.87
489.512	12674.03
489.716	12690.41
489.92	12475.37
490.124	12647.4
490.328	12733.42
490.531	12633.07
490.735	12893.16
490.939	12921.83
491.143	12583.91
491.346	12731.37
491.55	12995.56
491.754	13081.57
491.958	12938.21
492.161	13052.9
492.365	13249.5
492.569	13417.44
492.772	13278.18
492.976	13151.2
493.18	13485.02
493.383	13308.9
493.587	13351.9
493.79	13736.92
493.994	13700.06
494.197	13984.73
494.401	13933.53
494.605	13880.28
494.808	13759.45
495.012	14185.43
495.215	14164.95
495.419	14418.89
495.622	14074.84
495.825	14509.01
496.029	14570.44
496.232	14865.35
496.436	14609.36
496.639	15070.15
496.843	14877.64
497.046	15190.98
497.249	15444.93
497.453	15391.68
497.656	15485.89
497.859	15700.92
498.063	16077.75
498.266	16399.28
498.469	16237.49
498.673	16350.13
498.876	16384.94
499.079	16843.69
499.282	16700.33
499.485	17040.29
499.689	17249.19
499.892	17525.66
500.095	17693.6
500.298	17646.49
500.501	17785.76
500.705	18346.9
500.908	18561.94
501.111	18516.88
501.314	18572.18
501.517	18836.36
501.72	19399.55
501.923	19368.84
502.126	19495.81
502.329	20009.85
502.532	19817.34
502.735	20034.42
502.938	20200.31
503.141	20532.08
503.344	20691.82
503.547	20786.03
503.75	20902.76
503.953	21324.65
504.156	21609.31
504.359	21957.47
504.562	22014.81
504.765	22592.34
504.968	22485.84
505.17	22614.87
505.373	22969.16
505.576	23239.5
505.779	23454.53
505.982	23745.34
506.185	24204.09
506.387	23894.85
506.59	24429.37
506.793	24859.44
506.996	24666.93
507.198	25533.22
507.401	25246.51
507.604	25887.52
507.807	26174.24
508.009	26270.49
508.212	26727.19
508.415	26778.39
508.617	27126.54
508.82	27243.27
509.022	26923.79
509.225	27710.21
509.428	27968.26
509.63	27972.35
509.833	28252.92
510.035	28693.24
510.238	28601.08
510.44	29606.63
510.643	29573.86
510.845	29684.45
511.048	29655.78
511.25	30386.91
511.453	30507.74
511.655	31775.43
511.858	30687.96
512.06	31380.17
512.262	31630.02
512.465	31294.16
512.667	32211.65
512.87	32324.29
513.072	32436.92
513.274	33086.13
513.477	33399.47
513.679	33456.81
513.881	34026.15
514.084	34040.48
514.286	34185.89
514.488	34540.19
514.69	35345.04
514.893	35492.49
515.095	35697.29
515.297	35900.04
515.499	36153.99
515.701	36424.32
515.904	36831.86
516.106	37143.16
516.308	37302.9
516.51	37984.87
516.712	38042.21
516.914	38408.8
517.116	38949.46
517.318	38822.49
517.52	39035.48
517.722	39213.65
517.925	40020.55
518.127	40139.33
518.329	40172.1
518.531	40491.58
518.733	40802.88
518.935	41331.25
519.136	41230.9
519.338	42082.86
519.54	42048.04
519.742	42304.04
519.944	42723.87
520.146	42900
520.348	42934.81
520.55	43352.6
520.752	43536.91
520.954	44294.66
521.155	43805.2
521.357	44999.16
521.559	44648.96
521.761	45459.96
521.963	45488.63
522.164	45718
522.366	45324.79
522.568	46240.23
522.77	46178.79
522.971	47139.29
523.173	46803.42
523.375	46918.11
523.576	47391.19
523.778	47393.24
523.98	47675.86
524.181	48107.98
524.383	48007.63
524.584	48667.08
524.786	48701.89
524.988	48263.63
525.189	48830.91
525.391	49557.94
525.592	49473.98
525.794	49545.65
525.995	49559.99
526.197	49945.01
526.398	49658.29
526.6	50436.52
526.801	50397.61
527.003	50639.27
527.204	50663.85
527.406	50934.18
527.607	51315.1
527.808	51708.31
528.01	50741.67
528.211	51149.21
528.412	51806.61
528.614	51483.03
528.815	51446.17
529.016	52099.47
529.218	51806.61
529.419	51945.87
529.62	52279.69
529.822	51806.61
530.023	52380.04
530.224	52564.36
530.425	52396.43
530.626	51839.38
530.828	52193.68
531.029	52773.25
531.23	52709.77
531.431	52543.88
531.632	52765.06
531.833	52916.61
532.035	52564.36
532.236	52674.95
532.437	53240.19
532.638	52705.67
532.839	53100.93
533.04	53014.91
533.241	52654.47
533.442	53487.99
533.643	52953.47
533.844	52930.95
534.045	52930.95
534.246	52701.57
534.447	53422.46
534.648	53293.44
534.849	53133.7
535.05	52636.04
535.251	52806.02
535.451	53154.18
535.652	53262.72
535.853	53148.03
536.054	53043.59
536.255	53049.73
536.456	52928.9
536.657	53574.01
536.857	53254.53
537.058	52787.59
537.259	53145.98
537.46	53240.19
537.66	52990.34
537.861	53373.31
538.062	52826.5
538.263	53465.47
538.463	53088.64
538.664	53143.94
538.865	53330.3
539.065	53453.18
539.266	52740.49
539.466	53674.36
539.667	52861.32
539.868	53444.99
540.068	53266.81
540.269	53471.61
540.469	53084.54
540.67	53041.54
540.87	52961.67
541.071	53064.06
541.271	53125.5
541.472	53080.45
541.672	53145.98
541.873	52832.64
542.073	52283.79
542.274	53584.25
542.474	52773.25
542.675	52730.25
542.875	53594.49
543.075	53115.26
543.276	52367.76
543.476	53236.09
543.676	52642.18
543.877	53010.82
544.077	52949.38
544.277	52795.78
544.478	53115.26
544.678	53059.97
544.878	52584.84
545.078	52642.18
545.279	52400.52
545.479	52859.27
545.679	52943.23
545.879	52953.47
546.079	52765.06
546.28	52697.48
546.48	52543.88
546.68	52652.42
546.88	52926.85
547.08	52668.81
547.28	52523.4
547.48	52492.68
547.68	53006.72
547.88	52226.45
548.081	53420.41
548.281	52605.32
548.481	52742.53
548.681	53270.91
548.881	52877.7
549.081	52423.05
549.28	52414.86
549.48	52726.15
549.68	52697.48
549.88	53272.96
550.08	52240.78
550.28	53002.63
550.48	52337.04
550.68	52928.9
550.88	52275.6
551.08	52683.14
551.279	52586.89
551.479	52672.9
551.679	52824.45
551.879	52593.03
552.079	52707.72
552.278	52947.33
552.478	52896.13
552.678	52451.72
552.878	52744.58
553.077	52343.18
553.277	51972.5
553.477	52748.68
553.676	52707.72
553.876	52105.62
554.076	52226.45
554.275	52271.5
554.475	51704.21
554.674	52572.55
554.874	52519.31
555.074	52355.47
555.273	52382.09
555.473	52341.13
555.672	51612.06
555.872	52064.66
556.071	52384.14
556.271	52990.34
556.47	52085.14
556.67	51874.2
556.869	51913.11
557.068	52003.22
557.268	51712.41
557.467	51704.21
557.667	51841.43
557.866	51728.79
558.065	51861.91
558.265	51685.78
558.464	51464.6
558.663	51966.35
558.863	51397.02
559.062	52214.16
559.261	51304.86
559.461	51872.15
559.66	50960.8
559.859	51419.55
560.058	51286.43
560.258	51440.03
560.457	50760.1
560.656	51405.21
560.855	51169.69
561.054	51542.42
561.253	50631.08
561.453	51407.26
561.652	51046.82
561.851	51028.38
562.05	51302.81
562.249	50745.76
562.448	51032.48
562.647	50928.03
562.846	50729.38
563.045	50772.39
563.244	50217.39
563.443	50801.06
563.642	50413.99
563.841	50733.48
564.04	50313.64
564.239	50921.89
564.438	49852.85
564.637	50362.79
564.836	50565.54
565.035	49525.17
565.234	50297.26
565.432	49811.89
565.631	49711.54
565.83	50194.86
566.029	49846.71
566.228	50094.51
566.427	49480.12
566.625	49637.81
566.824	49320.38
567.023	49848.75
567.222	48990.66
567.42	50086.32
567.619	49787.31
567.818	49783.22
568.016	49353.15
568.215	50057.65
568.414	49064.38
568.612	49633.72
568.811	48763.33
569.01	49177.02
569.208	48734.66
569.407	49060.29
569.605	48630.21
569.804	48949.7
570.002	48142.8
570.201	48699.84
570.4	48839.11
570.598	48277.96
570.797	47837.65
570.995	48431.56
571.193	47882.7
571.392	48415.18
571.59	47817.17
571.789	48464.33
571.987	47727.06
572.186	48048.59
572.384	47782.35
572.582	47884.75
572.781	47825.36
572.979	47282.65
573.177	47665.62
573.376	47595.99
573.574	46727.65
573.772	47602.13
573.971	47417.82
574.169	46510.56
574.367	46481.89
574.565	47059.42
574.763	46694.88
574.962	46844.38
575.16	46201.32
575.358	47077.85
575.556	46180.84
575.754	46991.84
575.952	45734.38
576.151	46410.21
576.349	45969.9
576.547	45906.41
576.745	46053.87
576.943	46113.26
577.141	45781.49
577.339	46006.76
577.537	45560.31
577.735	45724.14
577.933	45457.91
578.131	45226.49
578.329	45457.91
578.527	44718.59
578.725	45115.9
578.923	45312.5
579.121	44710.4
579.319	44960.25
579.516	45380.09
579.714	44933.63
579.912	44558.85
580.11	44790.27
580.308	44388.87
580.506	44143.11
580.704	43641.36
580.901	43923.98
581.099	44648.96
581.297	44003.85
581.495	43676.18
581.692	44390.92
581.89	43741.71
582.088	44016.14
582.285	43557.39
582.483	43538.96
582.681	43465.24
582.878	43074.07
583.076	43008.54
583.274	43362.84
583.471	42897.95
583.669	43313.69
583.866	43039.26
584.064	43262.49
584.262	42306.09
584.459	42983.96
584.657	42404.39
584.854	42828.32
585.052	42193.45
585.249	42500.64
585.447	42656.29
585.644	42121.77
585.841	42181.16
586.039	42142.25
586.236	42023.47
586.434	41708.08
586.631	41679.41
586.828	41775.66
587.026	41910.83
587.223	41212.47
587.42	41439.79
587.618	41046.58
587.815	41132.6
588.012	40616.51
588.21	40809.02
588.407	41261.62
588.604	40538.69
588.801	40487.49
588.999	40452.67
589.196	40507.97
589.393	40440.39
589.59	40282.69
589.787	40145.48
589.984	39854.67
590.182	39983.69
590.379	39729.74
590.576	39479.89
590.773	39830.09
590.97	39690.83
591.167	39856.71
591.364	38933.08
591.561	39436.88
591.758	39260.76
591.955	38580.83
592.152	38707.8
592.349	39019.1
592.546	38720.09
592.743	38740.57
592.94	38132.32
593.137	38576.73
593.334	38683.23
593.531	38140.52
593.727	37888.62
593.924	38648.41
594.121	37855.85
594.318	38322.79
594.515	37542.51
594.712	37855.85
594.908	37573.23
595.105	37763.69
595.302	37403.25
595.499	37694.06
595.696	37212.79
595.892	37251.7
596.089	37485.17
596.286	37159.54
596.482	36840.06
596.679	36786.81
596.876	36878.97
597.072	36565.63
597.269	36450.94
597.466	36260.48
597.662	36278.91
597.859	36436.61
598.055	36283.01
598.252	36037.25
598.448	36067.97
598.645	35910.28
598.841	35392.14
599.038	35666.57
599.234	35789.45
599.431	35087
599.627	34968.21
599.824	35388.05
600.02	35236.5
600.217	35095.19
600.413	35136.15
600.609	34597.53
600.806	34488.99
601.002	34947.73
601.198	34554.52
601.395	34316.96
601.591	34456.22
601.787	34263.71
601.984	33960.61
602.18	34468.51
602.376	33645.23
602.572	33755.82
602.769	34433.69
602.965	33702.57
603.161	33870.5
603.357	33534.63
603.553	33188.53
603.75	33221.3
603.946	33442.48
604.142	33524.4
604.338	32649.91
604.534	33395.37
604.73	32731.83
604.926	32969.4
605.122	32977.59
605.318	32737.98
605.514	32721.59
605.71	32301.76
605.906	32580.28
606.102	32527.03
606.298	32402.11
606.494	32303.81
606.69	32416.44
606.886	32635.58
607.082	32223.93
607.278	32266.94
607.474	31597.26
607.67	32256.7
607.866	31453.9
608.062	32049.86
608.257	31406.8
608.453	31595.21
608.649	31611.59
608.845	31433.42
609.041	31711.94
609.236	31357.64
609.432	31392.46
609.628	31501
609.824	31441.61
610.019	31316.68
610.215	30870.23
610.411	31410.89
610.606	30765.78
610.802	31015.63
610.998	31027.92
611.193	31122.13
611.389	30892.76
611.584	30636.76
611.78	30659.29
611.976	30694.1
612.171	30345.95
612.367	30569.18
612.562	30761.69
612.758	30008.03
612.953	30243.55
613.149	30513.88
613.344	30030.56
613.539	30585.56
613.735	30378.72
613.93	30259.93
614.126	29846.24
614.321	30700.25
614.517	30149.34
614.712	29907.68
614.907	29764.32
615.103	30032.61
615.298	29903.59
615.493	30178.01
615.688	29553.38
615.884	30114.53
616.079	29350.63
616.274	29668.07
616.47	29805.28
616.665	29223.66
616.86	29635.3
617.055	29215.47
617.25	29303.53
617.445	29504.23
617.641	28928.75
617.836	29328.11
618.031	28678.9
618.226	29002.48
618.421	28826.35
618.616	29369.07
618.811	28451.58
619.006	28953.33
619.201	28121.85
619.396	28549.88
619.591	28130.05
619.786	28322.55
619.981	28019.46
620.176	28605.17
620.371	27808.51
620.566	27679.49
620.761	27611.91
620.956	27593.48
621.151	27415.3
621.346	27343.63
621.541	27120.4
621.735	27587.33
621.93	26678.04
622.125	26938.13
622.32	26723.09
622.515	26635.03
622.709	26305.31
622.904	26731.28
623.099	26454.81
623.294	26299.16
623.488	25934.62
623.683	26180.38
623.878	25414.44
624.072	26049.31
624.267	25703.2
624.462	25484.07
624.656	25092.91
624.851	25211.69
625.046	25004.85
625.24	25047.85
625.435	24781.62
625.629	24652.59
625.824	24429.37
626.018	24382.26
626.213	24109.88
626.407	24064.83
626.602	23896.89
626.796	24105.79
626.991	23980.86
627.185	23919.42
627.38	23315.27
627.574	23087.95
627.768	23290.7
627.963	23171.91
628.157	23178.06
628.352	22934.35
628.546	23016.27
628.74	22743.89
628.935	22733.65
629.129	22596.43
629.323	22104.92
629.517	22137.69
629.712	22020.95
629.906	22235.99
630.1	21699.42
630.294	22152.02
630.489	21750.62
630.683	21748.57
630.877	21539.68
631.071	21269.35
631.265	21318.5
631.459	21128.04
631.653	20941.68
631.848	20951.91
632.042	20996.97
632.236	20886.38
632.43	20673.39
632.624	20659.06
632.818	20360.05
633.012	20255.61
633.206	20388.72
633.4	20214.65
633.594	19923.83
633.788	19942.27
633.982	19934.07
634.176	19942.27
634.369	19536.77
634.563	19813.24
634.757	19536.77
634.951	19309.44
635.145	19385.22
635.339	19293.06
635.533	19067.78
635.726	18951.05
635.92	18637.71
636.114	19032.97
636.308	18826.12
636.501	18633.61
636.695	18699.15
636.889	18578.32
637.083	18463.63
637.276	18510.74
637.47	18049.94
637.664	18250.64
637.857	18006.94
638.051	17847.19
638.244	17898.39
638.438	17816.47
638.632	17656.73
638.825	17468.32
639.019	17566.62
639.212	17386.4
639.406	17408.93
639.599	17445.79
639.793	17290.15
639.986	16964.52
640.18	16980.9
640.373	16927.66
640.567	16612.27
640.76	16810.92
640.954	16251.83
641.147	16593.84
641.34	16503.73
641.534	16219.06
641.727	16360.37
641.92	16448.43
642.114	16309.17
642.307	16038.84
642.5	16010.17
642.694	15922.1
642.887	15827.9
643.08	16075.7
643.273	15721.4
643.467	15662.01
643.66	15487.93
643.853	15358.91
644.046	15129.54
644.239	15098.82
644.432	15111.11
644.626	15166.4
644.819	14984.13
645.012	15098.82
645.205	14887.88
645.398	15037.38
645.591	14728.14
645.784	14732.23
645.977	14482.38
646.17	14554.06
646.363	14457.81
646.556	14119.89
646.749	14404.56
646.942	14126.04
647.135	14142.42
647.328	14060.5
647.521	13820.89
647.714	13624.28
647.907	13962.2
648.099	13872.09
648.292	13579.23
648.485	13634.52
648.678	13618.14
648.871	13356
649.064	13251.55
649.256	13671.39
649.449	13310.94
649.642	13171.68
649.835	13138.91
650.027	12872.68
650.22	13151.2
650.413	13001.7
650.605	13007.84
650.798	12876.77
650.991	12680.17
651.183	12905.45
651.376	12514.28
651.568	12739.56
651.761	12542.96
651.954	12403.69
652.146	12401.65
652.339	12571.63
652.531	12512.24
652.724	12168.18
652.916	11889.65
653.109	12014.58
653.301	11985.91
653.494	12024.82
653.686	11760.63
653.879	11926.52
654.071	11813.88
654.263	11707.38
654.456	11535.35
654.648	11738.1
654.84	11512.83
655.033	11394.04
655.225	11578.36
655.417	11441.15
655.61	11303.93
655.802	11256.83
655.994	11213.82
656.186	11351.04
656.379	11009.03
656.571	11117.57
656.763	11072.51
656.955	10865.67
657.148	10816.52
657.34	10898.44
657.532	10658.82
657.724	10535.95
657.916	10691.59
658.108	10490.89
658.3	10587.15
658.492	10335.24
658.684	10322.96
658.876	10282
659.068	10306.57
659.26	10177.55
659.452	10296.33
659.644	10181.65
659.836	10091.54
660.028	10198.03
660.22	9708.57
660.412	10023.95
660.604	9810.96
660.796	9888.79
660.988	9831.44
661.18	9702.42
661.372	9600.02
661.563	9817.11
661.755	9606.17
661.947	9600.02
662.139	9622.55
662.331	9298.97
662.522	9079.84
662.714	9397.28
662.906	9360.41
663.097	9255.97
663.289	9022.5
663.481	9145.38
663.673	9102.37
663.864	9002.02
664.056	8956.96
664.247	9030.69
664.439	8864.8
664.631	9047.07
664.822	9008.16
665.014	8725.54
665.205	8924.19
665.397	8758.31
665.588	8766.5
665.78	8586.28
665.971	8498.22
666.163	8617
666.354	8473.64
666.546	8395.82
666.737	8582.18
666.929	8426.54
667.12	8336.43
667.311	8481.83
667.503	8170.54
667.694	8342.57
667.885	8072.24
668.077	8184.88
668.268	8033.33
668.459	8168.49
668.651	8078.38
668.842	8184.88
669.033	8160.3
669.224	7930.93
669.416	7930.93
669.607	8016.94
669.798	7971.89
669.989	7978.03
670.18	7789.62
670.371	7810.1
670.563	7846.96
670.754	7758.9
670.945	7593.01
671.136	7672.89
671.327	7920.69
671.518	7484.47
671.709	7552.06
671.9	7568.44
672.091	7478.33
672.282	7427.13
672.473	7392.31
672.664	7521.34
672.855	7353.4
673.046	7216.19
673.237	7447.61
673.428	7226.43
673.619	7232.57
673.809	7121.98
674	7146.56
674.191	7156.8
674.382	7160.89
674.573	6906.95
674.764	7003.2
674.954	7136.32
675.145	6911.04
675.336	6863.94
675.527	7007.3
675.717	6890.56
675.908	6829.12
676.099	6808.64
676.289	6812.74
676.48	6745.16
676.671	6677.57
676.861	6818.88
677.052	6712.39
677.243	6704.2
677.433	6689.86
677.624	6642.76
677.814	6685.76
678.005	6632.52
678.195	6704.2
678.386	6483.02
678.576	6495.3
678.767	6431.82
678.957	6462.54
679.148	6693.96
679.338	6530.12
679.529	6495.3
679.719	6437.96
679.909	6495.3
680.1	6331.47
680.29	6485.06
680.481	6280.27
680.671	6558.79
680.861	6370.38
681.052	6270.03
681.242	6169.68
681.432	6399.05
681.622	6057.04
681.813	6440.01
682.003	6179.92
682.193	6128.72
682.383	6257.74
682.573	6200.4
682.764	6057.04
682.954	6188.11
683.144	6204.49
683.334	6061.13
683.524	6036.56
683.714	6036.56
683.904	5915.73
684.094	5901.39
684.284	5893.2
684.474	5905.49
684.664	5964.88
684.854	5964.88
685.044	5938.26
685.234	5870.67
685.424	5917.78
685.614	5778.51
685.804	5798.99
685.994	5854.29
686.184	5776.47
686.374	6001.74
686.564	5819.47
686.753	5692.5
686.943	5596.25
687.133	5737.56
687.323	5788.75
687.513	5626.96
687.702	5614.68
687.892	5545.05
688.082	5639.25
688.272	5448.79
688.461	5426.26
688.651	5436.5
688.841	5456.98
689.03	5385.3
689.22	5319.77
689.41	5401.69
689.599	5428.31
689.789	5426.26
689.979	5149.79
690.168	5274.71
690.358	5256.28
690.547	5139.55
690.737	5162.08
690.926	5342.3
691.116	5051.49
691.305	5151.84
691.495	5096.54
691.684	5035.1
691.874	5162.08
692.063	5121.12
692.252	4983.9
692.442	5035.1
692.631	4777.06
692.82	4908.13
693.01	5031.01
693.199	4746.34
693.388	4715.62
693.578	4660.32
693.767	4719.71
693.956	4736.1
694.146	4719.71
694.335	4715.62
694.524	4689
694.713	4713.57
694.902	4670.56
695.092	4738.15
695.281	4643.94
695.47	4627.56
695.659	4547.69
695.848	4537.45
696.037	4500.58
696.226	4512.87
696.415	4488.29
696.604	4492.39
696.793	4355.18
696.982	4404.33
697.171	4549.73
697.36	4486.25
697.549	4351.08
697.738	4383.85
697.927	4365.42
698.116	4324.46
698.305	4375.66
698.494	4453.48
698.683	4306.02
698.872	4295.79
699.061	4291.69
699.25	4357.22
699.438	4256.87
699.627	4355.18
699.816	4312.17
700.005	4334.7
700.193	4254.83
700.382	4287.59
700.571	4242.54
700.76	4170.86
700.948	4220.01
701.137	4220.01
701.326	4017.26
701.514	4209.77
701.703	4191.34
701.892	3966.06
702.08	4205.67
702.269	4115.56
702.457	4058.22
702.646	4113.52
702.834	4017.26
703.023	4035.69
703.212	4136.04
703.4	3878
703.589	4066.41
703.777	4068.46
703.965	3937.39
704.154	4002.93
704.342	3843.18
704.531	4021.36
704.719	3882.1
704.907	3992.69
705.096	3951.73
705.284	3945.58
705.472	3843.18
705.661	3939.44
705.849	3834.99
706.037	3875.95
706.226	3966.06
706.414	3945.58
706.602	3802.22
706.79	3890.29
706.979	3779.7
707.167	3898.48
707.355	3783.79
707.543	3796.08
707.731	3918.96
707.919	3806.32
708.107	3785.84
708.296	3693.68
708.484	3699.83
708.672	3722.35
708.86	3796.08
709.048	3722.35
709.236	3779.7
709.424	3824.75
709.612	3732.59
709.8	3617.91
709.988	3773.55
710.176	3697.78
710.364	3759.22
710.551	3673.2
710.739	3642.48
710.927	3683.44
711.115	3714.16
711.303	3665.01
711.491	3515.51
711.679	3658.87
711.866	3595.38
712.054	3585.14
712.242	3632.24
712.43	3675.25
712.617	3632.24
712.805	3640.44
712.993	3572.85
713.181	3607.67
713.368	3583.09
713.556	3591.28
713.744	3513.46
713.931	3587.19
714.119	3517.56
714.306	3439.73
714.494	3497.08
714.682	3611.76
714.869	3425.4
715.057	3515.51
715.244	3437.69
715.432	3515.51
715.619	3366.01
715.807	3527.8
715.994	3474.55
716.182	3470.45
716.369	3335.29
716.556	3437.69
716.744	3353.72
716.931	3458.17
717.119	3388.53
717.306	3515.51
717.493	3425.4
717.681	3497.08
717.868	3404.92
718.055	3484.79
718.242	3300.47
718.43	3445.88
718.617	3296.38
718.804	3353.72
718.991	3445.88
719.179	3398.77
719.366	3320.95
719.553	3228.79
719.74	3392.63
719.927	3376.25
720.114	3454.07
720.301	3263.61
720.488	3275.9
720.676	3333.24
720.863	3380.34
721.05	3439.73
721.237	3302.52
721.424	3437.69
721.611	3306.62
721.798	3232.89
721.985	3323
722.172	3320.95
722.358	3288.18
722.545	3378.3
722.732	3140.73
722.919	3423.35
723.106	3347.58
723.293	3286.14
723.48	3253.37
723.667	3314.81
723.853	3333.24
724.04	3359.86
724.227	3419.25
724.414	3388.53
724.6	3126.39
724.787	3226.75
724.974	3279.99
725.161	3337.34
725.347	3269.75
725.534	3243.13
725.72	3376.25
725.907	3294.33
726.094	3191.93
726.28	3257.46
726.467	3343.48
726.653	3183.74
726.84	3187.83
727.027	3302.52
727.213	3372.15
727.4	3216.51
727.586	3290.23
727.773	3286.14
727.959	3054.72
728.145	3273.85
728.332	3286.14
728.518	3191.93
728.705	3222.65
728.891	3189.88
729.077	3265.66
729.264	3206.27
729.45	3267.7
729.636	3298.42
729.823	3257.46
730.009	3345.53
730.195	3288.18
730.382	3212.41
730.568	3232.89
730.754	3132.54
730.94	3320.95
731.126	3230.84
731.313	3355.77
731.499	3171.45
731.685	3167.35
731.871	3286.14
732.057	3298.42
732.243	3302.52
732.429	3198.07
732.615	3286.14
732.801	3298.42
732.987	3232.89
733.173	3343.48
733.359	3273.85
733.545	3177.59
733.731	3144.83
733.917	3310.71
734.103	3155.07
734.289	3329.14
734.475	3298.42
734.661	3331.19
734.847	3132.54
735.033	3339.38
735.219	3212.41
735.404	3218.55
735.59	3204.22
735.776	3214.46
735.962	3374.2
736.148	3212.41
736.333	3290.23
736.519	3296.38
736.705	3236.99
736.89	3257.46
737.076	3200.12
737.262	3331.19
737.447	3163.26
737.633	3126.39
737.819	3263.61
738.004	3193.98
738.19	3193.98
738.375	3169.4
738.561	3300.47
738.747	3390.58
738.932	3239.03
739.118	3226.75
739.303	3142.78
739.489	3177.59
739.674	3069.05
739.859	3130.49
740.045	3034.24
740.23	3118.2
740.416	3243.13
740.601	3118.2
740.786	3136.63
740.972	3081.34
741.157	3032.19
741.342	3120.25
741.528	3130.49
741.713	3044.48
741.898	3114.11
742.084	3200.12
742.269	3165.31
742.454	3064.96
742.639	3124.35
742.824	2980.99
743.01	3015.8
743.195	3013.76
743.38	3146.87
743.565	2903.17
743.75	3009.66
743.935	2888.83
744.12	3134.59
744.305	3060.86
744.49	2874.49
744.675	3015.8
744.86	2921.6
745.045	2843.78
745.23	2970.75
745.415	3009.66
745.6	3060.86
745.785	2974.85
745.97	2937.98
746.155	2868.35
746.34	2892.93
746.525	3048.57
746.71	2950.27
746.895	2833.54
747.079	2868.35
747.264	2790.53
747.449	2999.42
747.634	2847.87
747.819	2821.25
748.003	2804.86
748.188	2702.47
748.373	2763.9
748.557	2690.18
748.742	2698.37
748.927	2700.42
749.111	2579.59
749.296	2700.42
749.481	2589.83
749.665	2696.32
749.85	2739.33
750.034	2718.85
750.219	2663.55
750.404	2532.48
750.588	2612.35
750.773	2598.02
750.957	2602.11
751.141	2647.17
751.326	2565.25
751.51	2679.94
751.695	2577.54
751.879	2497.67
752.064	2544.77
752.248	2454.66
752.432	2370.69
752.617	2391.17
752.801	2438.28
752.985	2448.52
753.17	2364.55
753.354	2436.23
753.538	2321.54
753.722	2464.9
753.907	2299.02
754.091	2229.38
754.275	2290.82
754.459	2253.96
754.643	2288.78
754.828	2292.87
755.012	2147.47
755.196	2290.82
755.38	2190.47
755.564	2151.56
755.748	2229.38
755.932	2122.89
756.116	2143.37
756.3	2141.32
756.484	2245.77
756.668	2098.31
756.852	2108.55
757.036	2049.16
757.22	2075.79
757.404	2071.69
757.588	2026.64
757.772	2112.65
757.956	2065.55
758.14	2040.97
758.323	1918.09
758.507	2032.78
758.691	2022.54
758.875	1987.72
759.059	1973.39
759.242	1946.76
759.426	1961.1
759.61	1909.9
759.794	2067.6
759.977	1887.37
760.161	2133.13
760.345	1940.62
760.528	1954.96
760.712	1825.93
760.895	1848.46
761.079	1858.7
761.263	1834.13
761.446	1844.37
761.63	1879.18
761.813	1811.6
761.997	1838.22
762.18	1862.8
762.364	1848.46
762.547	1748.11
762.731	1838.22
762.914	1713.3
763.098	1797.26
763.281	1668.24
763.464	1746.06
763.648	1698.96
763.831	1696.91
764.015	1666.19
764.198	1774.74
764.381	1854.61
764.564	1741.97
764.748	1711.25
764.931	1705.1
765.114	1684.62
765.297	1684.62
765.481	1641.62
765.664	1631.38
765.847	1576.08
766.03	1608.85
766.213	1594.51
766.397	1643.67
766.58	1633.43
766.763	1551.51
766.946	1660.05
767.129	1633.43
767.312	1545.36
767.495	1686.67
767.678	1584.27
767.861	1610.9
768.044	1559.7
768.227	1514.64
768.41	1582.23
768.593	1524.88
768.776	1528.98
768.959	1494.16
769.142	1614.99
769.324	1543.32
769.507	1580.18
769.69	1418.39
769.873	1510.55
770.056	1543.32
770.239	1545.36
770.421	1502.36
770.604	1596.56
770.787	1393.81
770.97	1440.92
771.152	1432.72
771.335	1465.49
771.518	1367.19
771.7	1406.1
771.883	1422.48
772.066	1471.64
772.248	1356.95
772.431	1422.48
772.613	1481.88
772.796	1369.24
772.978	1344.66
773.161	1426.58
773.343	1260.7
773.526	1320.09
773.708	1375.38
773.891	1291.41
774.073	1318.04
774.256	1418.39
774.438	1303.7
774.621	1246.36
774.803	1279.13
774.985	1244.31
775.168	1285.27
775.35	1248.41
775.532	1160.34
775.715	1254.55
775.897	1242.26
776.079	1264.79
776.261	1168.54
776.444	1211.54
776.626	1254.55
776.808	1201.3
776.99	1238.17
777.173	1150.11
777.355	1166.49
777.537	1105.05
777.719	1170.58
777.901	1152.15
778.083	1111.19
778.265	1199.26
778.447	1049.75
778.629	1094.81
778.811	1025.18
778.993	1041.56
779.175	1092.76
779.357	1096.86
779.539	1037.47
779.721	1045.66
779.903	1117.34
780.085	1098.91
780.267	924.83
780.449	1049.75
780.631	1002.65
780.812	1025.18
780.994	881.82
781.176	969.88
781.358	1039.51
781.54	990.36
781.721	1035.42
781.903	916.64
782.085	945.31
782.267	969.88
782.448	937.12
782.63	918.68
782.812	869.53
782.993	959.64
783.175	853.15
783.357	951.45
783.538	869.53
783.72	834.72
783.901	865.44
784.083	883.87
784.264	855.2
784.446	818.33
784.627	865.44
784.809	838.81
784.99	849.05
785.172	816.29
785.353	722.08
785.535	754.85
785.716	906.4
785.897	818.33
786.079	838.81
786.26	779.42
786.441	855.2
786.623	720.03
786.804	756.9
786.985	799.9
787.167	713.89
787.348	699.55
787.529	810.14
787.71	689.31
787.891	765.09
788.073	582.82
788.254	677.02
788.435	740.51
788.616	677.02
788.797	642.21
788.978	603.3
789.159	668.83
789.34	783.52
789.522	625.83
789.703	605.35
789.884	677.02
790.065	601.25
790.246	705.7
790.427	701.6
790.607	605.35
790.788	631.97
790.969	541.86
791.15	609.44
791.331	580.77
791.512	519.33
791.693	488.61
791.874	623.78
792.054	677.02
792.235	683.17
792.416	550.05
792.597	613.54
792.778	574.63
792.958	513.19
793.139	597.15
793.32	525.47
793.5	496.8
793.681	525.47
793.862	539.81
794.042	566.43
794.223	519.33
794.404	597.15
794.584	568.48
794.765	525.47
794.945	513.19
795.126	478.37
795.306	593.06
795.487	566.43
795.667	500.9
795.848	468.13
796.028	496.8
796.209	558.24
796.389	447.65
796.57	468.13
796.75	490.66
796.93	445.6
797.111	459.94
797.291	480.42
797.471	478.37
797.652	472.23
797.832	410.79
798.012	541.86
798.192	441.51
798.373	492.71
798.553	423.08
798.733	500.9
798.913	388.26
799.093	474.28
799.274	464.04
799.454	433.32
799.634	394.4
799.814	451.75
799.994	423.08
800.174	476.32
800.354	453.8
800.534	373.92
800.714	410.79
800.894	382.12
801.074	388.26
801.254	324.77
801.434	498.85
801.614	345.25
801.794	398.5
801.974	1076.38
802.154	359.59
802.334	404.64
802.514	369.83
802.693	353.45
802.873	322.73
803.053	445.6
803.233	447.65
803.413	429.22
803.592	369.83
803.772	418.98
803.952	449.7
804.131	386.21
804.311	478.37
804.491	365.73
804.67	361.64
804.85	341.16
805.03	353.45
805.209	361.64
805.389	418.98
805.568	335.01
805.748	392.36
805.928	332.97
806.107	296.1
806.287	343.21
806.466	330.92
806.646	375.97
806.825	244.9
807.004	289.96
807.184	353.45
807.363	294.05
807.543	343.21
807.722	302.25
807.901	287.91
808.081	349.35
808.26	353.45
808.439	357.54
808.619	322.73
808.798	357.54
808.977	312.49
809.156	314.53
809.336	255.14
809.515	314.53
809.694	249
809.873	343.21
810.052	337.06
810.231	339.11
810.411	312.49
810.59	285.86
810.769	249
810.948	308.39
811.127	267.43
811.306	296.1
811.485	300.2
811.664	394.4
811.843	330.92
812.022	298.15
812.201	216.23
812.38	257.19
812.559	285.86
812.737	240.81
812.916	179.37
813.095	236.71
813.274	279.72
813.453	312.49
813.632	302.25
813.811	275.62
813.989	189.61
814.168	304.29
814.347	267.43
814.526	255.14
814.704	312.49
814.883	289.96
815.062	242.85
815.24	249
815.419	195.75
815.598	169.13
815.776	146.6
815.955	279.72
816.133	185.51
816.312	232.62
816.49	226.47
816.669	296.1
816.847	244.9
817.026	177.32
817.204	218.28
817.383	230.57
817.561	218.28
817.74	142.5
817.918	253.09
818.097	253.09
818.275	171.18
818.453	222.38
818.632	298.15
818.81	234.66
818.988	218.28
819.167	183.46
819.345	263.33
819.523	189.61
819.701	177.32
819.879	273.57
820.058	259.24
820.236	246.95
820.414	167.08
820.592	187.56
820.77	195.75
820.948	271.53
821.127	111.78
821.305	128.17
821.483	181.42
821.661	152.74
821.839	189.61
822.017	244.9
822.195	128.17
822.373	175.27
822.551	97.45
822.729	259.24
822.907	152.74
823.085	169.13
823.262	185.51
823.44	136.36
823.618	212.14
823.796	234.66
823.974	124.07
824.152	132.26
824.329	113.83
824.507	218.28
824.685	138.41
824.863	189.61
825.04	236.71
825.218	162.98
825.396	224.42
825.574	124.07
825.751	208.04
825.929	132.26
826.107	193.7
826.284	189.61
826.462	162.98
826.639	150.7
826.817	167.08
826.994	193.7
827.172	101.55
827.349	214.18
827.527	162.98
827.704	156.84
827.882	175.27
828.059	193.7
828.237	48.3
828.414	199.85
828.591	169.13
828.769	134.31
828.946	117.93
829.124	183.46
829.301	222.38
829.478	148.65
829.655	87.21
829.833	152.74
830.01	105.64
830.187	158.89
830.364	193.7
830.542	191.66
830.719	138.41
830.896	203.94
831.073	76.97
831.25	117.93
831.427	128.17
831.604	246.95
831.782	74.92
831.959	167.08
832.136	165.03
832.313	154.79
832.49	140.46
832.667	259.24
832.844	115.88
833.021	167.08
833.198	68.78
833.374	144.55
833.551	103.59
833.728	99.5
833.905	134.31
834.082	117.93
834.259	93.35
834.436	173.22
834.612	107.69
834.789	128.17
834.966	134.31
835.143	122.02
835.319	109.74
835.496	109.74
835.673	109.74
835.85	181.42
836.026	140.46
836.203	89.26
836.38	128.17
836.556	177.32
836.733	91.31
836.909	150.7
837.086	101.55
837.262	89.26
837.439	87.21
837.616	162.98
837.792	117.93
837.968	109.74
838.145	60.59
838.321	85.16
838.498	132.26
838.674	91.31
838.851	46.25
839.027	189.61
839.203	56.49
839.38	167.08
839.556	76.97
839.732	146.6
839.909	126.12
840.085	58.54
840.261	150.7
840.437	183.46
840.614	144.55
840.79	105.64
840.966	52.39
841.142	33.96
841.318	99.5
841.494	66.73
841.671	136.36
841.847	101.55
842.023	83.11
842.199	87.21
842.375	74.92
842.551	52.39
842.727	107.69
842.903	128.17
843.079	3.24
843.255	150.7
843.431	144.55
843.607	66.73
843.783	99.5
843.959	142.5
844.134	70.83
844.31	52.39
844.486	89.26
844.662	101.55
844.838	119.98
845.013	56.49
845.189	81.07
845.365	119.98
845.541	66.73
845.716	99.5
845.892	85.16
846.068	46.25
846.244	33.96
846.419	46.25
846.595	64.68
846.77	83.11
846.946	68.78
847.122	150.7
847.297	42.15
847.473	103.59
847.648	66.73
847.824	31.91
847.999	-17.24
848.175	126.12
848.35	74.92
848.526	85.16
848.701	99.5
848.876	91.31
849.052	68.78
849.227	76.97
849.403	25.77
849.578	46.25
849.753	81.07
849.929	-2.9
850.104	72.87
850.279	46.25
850.454	68.78
850.63	130.22
850.805	93.35
850.98	91.31
851.155	29.87
851.33	-7
851.505	-13.14
851.681	81.07
851.856	29.87
852.031	68.78
852.206	113.83
852.381	68.78
852.556	13.48
852.731	74.92
852.906	89.26
853.081	228.52
853.256	173.22
853.431	36.01
853.606	101.55
853.781	85.16
853.956	81.07
854.131	142.5
854.305	95.4
854.48	23.72
854.655	91.31
854.83	85.16
855.005	56.49
855.18	122.02
855.354	50.35
855.529	103.59
855.704	9.39
855.879	42.15
856.053	38.06
856.228	66.73
856.403	-11.09
856.577	-7
856.752	23.72
856.926	81.07
857.101	52.39
857.276	60.59
857.45	31.91
857.625	23.72
857.799	66.73
857.974	79.02
858.148	33.96
858.323	79.02
858.497	-25.43
858.672	36.01
858.846	3.24
859.02	76.97
859.195	44.2
859.369	97.45
859.543	-4.95
859.718	52.39
859.892	27.82
860.066	58.54
860.241	68.78
860.415	101.55
860.589	79.02
860.763	17.58
860.938	21.67
861.112	58.54
861.286	38.06
861.46	-9.05
861.634	17.58
861.808	13.48
861.982	-9.05
862.157	27.82
862.331	72.87
862.505	-11.09
862.679	-11.09
862.853	-29.52
863.027	27.82
863.201	79.02
863.375	48.3
863.549	44.2
863.722	68.78
863.896	97.45
864.07	33.96
864.244	68.78
864.418	40.11
864.592	31.91
864.766	56.49
864.939	38.06
865.113	44.2
865.287	91.31
865.461	25.77
865.634	11.43
865.808	40.11
865.982	58.54
866.156	-0.85
866.329	15.53
866.503	85.16
866.676	64.68
866.85	38.06
867.024	29.87
867.197	-4.95
867.371	19.63
867.544	42.15
867.718	-13.14
867.891	52.39
868.065	25.77
868.238	15.53
868.412	111.78
868.585	1.19
868.759	7.34
868.932	99.5
869.105	-66.39
869.279	64.68
869.452	23.72
869.625	115.88
869.799	42.15
869.972	25.77
870.145	13.48
870.319	-29.52
870.492	79.02
870.665	23.72
870.838	-4.95
871.011	-0.85
871.185	-29.52
871.358	7.34
871.531	27.82
871.704	-19.29
871.877	27.82
872.05	44.2
872.223	1.19
872.396	19.63
872.569	58.54
872.742	17.58
872.915	36.01
873.088	60.59
873.261	-47.96
873.434	93.35
873.607	40.11
873.78	27.82
873.953	-17.24
874.126	-0.85
874.299	113.83
874.471	42.15
874.644	-0.85
874.817	15.53
874.99	122.02
875.163	27.82
875.335	15.53
875.508	-4.95
875.681	42.15
875.853	76.97
876.026	62.63
876.199	66.73
876.371	56.49
876.544	-7
876.717	40.11
876.889	13.48
877.062	25.77
877.234	31.91
877.407	42.15
877.579	-4.95
877.752	17.58
877.924	31.91
878.097	95.4
878.269	54.44
878.442	52.39
878.614	11.43
878.786	36.01
878.959	3.24
879.131	79.02
879.303	-15.19
879.476	-11.09
879.648	29.87
879.82	111.78
879.993	19.63
880.165	58.54
880.337	13.48
880.509	74.92
880.681	-15.19
880.854	9.39
881.026	-27.48
881.198	42.15
881.37	-11.09
881.542	11.43
881.714	13.48
881.886	27.82
882.058	7.34
882.23	52.39
882.402	-27.48
882.574	70.83
882.746	13.48
882.918	107.69
883.09	42.15
883.262	19.63
883.434	13.48
883.606	-54.1
883.778	-50
883.95	44.2
884.122	52.39
884.293	27.82
884.465	-4.95
884.637	-35.67
884.809	46.25
884.98	-11.09
885.152	60.59
885.324	91.31
885.496	-90.96
885.667	17.58
885.839	56.49
886.011	85.16
886.182	15.53
886.354	124.07
886.525	48.3
886.697	58.54
886.869	-13.14
887.04	-9.05
887.212	109.74
887.383	44.2
887.555	-31.57
887.726	-29.52
887.897	15.53
888.069	-33.62
888.24	17.58
888.412	1.19
888.583	-17.24
888.754	29.87
888.926	-43.86
889.097	-43.86
889.268	-37.72
889.44	50.35
889.611	-21.33
889.782	27.82
889.953	-39.76
890.125	64.68
890.296	-35.67
890.467	17.58
890.638	-58.2
890.809	19.63
890.98	-13.14
891.151	58.54
891.323	46.25
891.494	13.48
891.665	-43.86
891.836	5.29
892.007	38.06
892.178	72.87
892.349	-84.82
892.52	-27.48
892.691	-4.95
892.862	-23.38
893.032	7.34
893.203	52.39
893.374	3.24
893.545	60.59
893.716	58.54
893.887	36.01
894.057	21.67
894.228	9.39
894.399	-4.95
894.57	29.87
894.74	7.34
894.911	-39.76
895.082	-27.48
895.253	1.19
895.423	-17.24
895.594	-52.05
895.764	9.39
895.935	-2.9
896.106	50.35
896.276	68.78
896.447	9.39
896.617	-27.48
896.788	21.67
896.958	-43.86
897.129	23.72
897.299	62.63
897.47	15.53
897.64	5.29
897.81	21.67
897.981	56.49
898.151	13.48
898.322	50.35
898.492	-7
898.662	-37.72
898.832	52.39
899.003	27.82
899.173	15.53
899.343	-43.86
899.513	-43.86
