Data from USB4F104151__24__12-41-08-365.txt Node

Date: Fri Mar 14 12:41:08 EDT 2025
User: louis
Spectrometer: USB4F10415
Trigger mode: 4
Integration Time (sec): 3.000000E-2
Scans to average: 1
Electric dark correction enabled: true
Nonlinearity correction enabled: false
Boxcar width: 0
XAxis mode: Wavelengths
Number of Pixels in Spectrum: 3648
>>>>>Begin Spectral Data<<<<<
178.204	-188.75
178.424	-188.75
178.644	-188.75
178.864	-188.75
179.084	-119.12
179.304	-31.06
179.524	22.19
179.744	3.75
179.964	32.43
180.184	-24.92
180.404	32.43
180.624	-41.3
180.844	-22.87
181.064	48.81
181.283	-10.58
181.503	-80.21
181.723	71.34
181.943	-80.21
182.163	73.39
182.383	59.05
182.602	50.86
182.822	52.91
183.042	63.15
183.262	-10.58
183.482	-2.39
183.701	-26.96
183.921	-55.64
184.141	-53.59
184.361	22.19
184.58	-37.2
184.8	11.95
185.02	-22.87
185.239	-20.82
185.459	57
185.679	57
185.898	-37.2
186.118	28.33
186.338	-24.92
186.557	48.81
186.777	-59.73
186.997	-55.64
187.216	-53.59
187.436	91.82
187.655	-4.44
187.875	26.28
188.095	52.91
188.314	46.76
188.534	40.62
188.753	9.9
188.973	5.8
189.192	77.48
189.412	-26.96
189.631	22.19
189.851	-12.63
190.07	20.14
190.29	-45.4
190.509	-49.49
190.729	5.8
190.948	5.8
191.168	120.49
191.387	95.91
191.607	13.99
191.826	-6.49
192.045	59.05
192.265	9.9
192.484	3.75
192.704	-37.2
192.923	18.09
193.142	91.82
193.362	-12.63
193.581	67.24
193.8	-24.92
194.02	46.76
194.239	32.43
194.458	34.47
194.678	28.33
194.897	-26.96
195.116	7.85
195.335	11.95
195.555	-53.59
195.774	-16.73
195.993	-12.63
196.212	38.57
196.432	28.33
196.651	-10.58
196.87	-35.16
197.089	100.01
197.308	40.62
197.528	63.15
197.747	-55.64
197.966	-6.49
198.185	63.15
198.404	-24.92
198.623	-0.34
198.842	-43.35
199.062	67.24
199.281	42.67
199.5	34.47
199.719	50.86
199.938	-61.78
200.157	42.67
200.376	44.71
200.595	1.71
200.814	-24.92
201.033	-55.64
201.252	40.62
201.471	30.38
201.69	-12.63
201.909	44.71
202.128	-8.53
202.347	22.19
202.566	7.85
202.785	65.19
203.004	-6.49
203.223	46.76
203.442	-24.92
203.661	-47.44
203.879	-26.96
204.098	30.38
204.317	-57.68
204.536	50.86
204.755	28.33
204.974	149.16
205.193	-37.2
205.411	73.39
205.63	18.09
205.849	22.19
206.068	38.57
206.287	3.75
206.505	18.09
206.724	-22.87
206.943	-22.87
207.162	-24.92
207.381	83.63
207.599	130.73
207.818	26.28
208.037	32.43
208.255	-18.77
208.474	28.33
208.693	63.15
208.911	34.47
209.13	34.47
209.349	40.62
209.567	11.95
209.786	-0.34
210.005	28.33
210.223	-0.34
210.442	18.09
210.661	22.19
210.879	-6.49
211.098	-2.39
211.316	11.95
211.535	100.01
211.753	11.95
211.972	-67.92
212.191	1.71
212.409	42.67
212.628	9.9
212.846	-0.34
213.065	50.86
213.283	20.14
213.502	3.75
213.72	-14.68
213.938	46.76
214.157	28.33
214.375	32.43
214.594	-31.06
214.812	30.38
215.031	16.04
215.249	26.28
215.467	50.86
215.686	3.75
215.904	22.19
216.122	50.86
216.341	28.33
216.559	34.47
216.778	38.57
216.996	-22.87
217.214	-61.78
217.432	-4.44
217.651	30.38
217.869	-12.63
218.087	-20.82
218.306	1.71
218.524	34.47
218.742	40.62
218.96	63.15
219.179	-57.68
219.397	5.8
219.615	79.53
219.833	77.48
220.051	-20.82
220.27	147.11
220.488	5.8
220.706	-14.68
220.924	7.85
221.142	-14.68
221.36	46.76
221.578	-29.01
221.796	54.95
222.015	95.91
222.233	5.8
222.451	63.15
222.669	-35.16
222.887	81.58
223.105	38.57
223.323	-74.07
223.541	50.86
223.759	-12.63
223.977	3.75
224.195	28.33
224.413	24.23
224.631	13.99
224.849	93.87
225.067	79.53
225.285	-51.54
225.503	65.19
225.721	-26.96
225.939	85.67
226.157	57
226.375	140.97
226.592	65.19
226.81	67.24
227.028	1.71
227.246	7.85
227.464	30.38
227.682	26.28
227.9	85.67
228.117	42.67
228.335	69.29
228.553	-10.58
228.771	-29.01
228.989	87.72
229.206	34.47
229.424	-0.34
229.642	-35.16
229.86	-4.44
230.077	52.91
230.295	1.71
230.513	16.04
230.731	11.95
230.948	-37.2
231.166	95.91
231.384	22.19
231.601	-26.96
231.819	32.43
232.037	-55.64
232.254	59.05
232.472	-49.49
232.689	-24.92
232.907	44.71
233.125	38.57
233.342	-47.44
233.56	-16.73
233.777	-14.68
233.995	50.86
234.213	28.33
234.43	34.47
234.648	118.44
234.865	18.09
235.083	-0.34
235.3	-24.92
235.518	112.3
235.735	16.04
235.953	32.43
236.17	7.85
236.388	26.28
236.605	-4.44
236.822	40.62
237.04	38.57
237.257	48.81
237.475	-45.4
237.692	30.38
237.909	-4.44
238.127	-12.63
238.344	-31.06
238.562	30.38
238.779	1.71
238.996	26.28
239.214	-35.16
239.431	38.57
239.648	28.33
239.865	63.15
240.083	30.38
240.3	-10.58
240.517	20.14
240.735	-72.02
240.952	52.91
241.169	106.15
241.386	75.43
241.603	-24.92
241.821	-92.5
242.038	-14.68
242.255	73.39
242.472	81.58
242.689	48.81
242.907	52.91
243.124	-33.11
243.341	-4.44
243.558	-24.92
243.775	-35.16
243.992	-45.4
244.209	-67.92
244.426	9.9
244.643	40.62
244.86	42.67
245.078	85.67
245.295	50.86
245.512	77.48
245.729	81.58
245.946	16.04
246.163	-16.73
246.38	9.9
246.597	85.67
246.814	-6.49
247.031	-4.44
247.248	-10.58
247.464	1.71
247.681	24.23
247.898	36.52
248.115	52.91
248.332	-45.4
248.549	97.96
248.766	63.15
248.983	114.34
249.2	1.71
249.417	-12.63
249.633	-31.06
249.85	-10.58
250.067	-57.68
250.284	1.71
250.501	9.9
250.717	54.95
250.934	-26.96
251.151	-82.26
251.368	97.96
251.585	-33.11
251.801	-33.11
252.018	24.23
252.235	67.24
252.451	-22.87
252.668	-4.44
252.885	63.15
253.102	18.09
253.318	-33.11
253.535	-33.11
253.752	-22.87
253.968	18.09
254.185	-18.77
254.401	-82.26
254.618	30.38
254.835	13.99
255.051	52.91
255.268	48.81
255.484	48.81
255.701	5.8
255.917	87.72
256.134	-31.06
256.351	7.85
256.567	-53.59
256.784	13.99
257	-43.35
257.217	30.38
257.433	50.86
257.65	81.58
257.866	48.81
258.082	-0.34
258.299	-47.44
258.515	-0.34
258.732	52.91
258.948	28.33
259.165	59.05
259.381	-8.53
259.597	-24.92
259.814	-8.53
260.03	-4.44
260.246	-6.49
260.463	16.04
260.679	46.76
260.895	52.91
261.112	54.95
261.328	-10.58
261.544	-80.21
261.761	104.11
261.977	-67.92
262.193	-33.11
262.409	-10.58
262.626	59.05
262.842	1.71
263.058	24.23
263.274	34.47
263.49	7.85
263.707	75.43
263.923	24.23
264.139	-94.55
264.355	65.19
264.571	85.67
264.787	75.43
265.004	-4.44
265.22	81.58
265.436	20.14
265.652	-12.63
265.868	24.23
266.084	-43.35
266.3	9.9
266.516	24.23
266.732	50.86
266.948	26.28
267.164	42.67
267.38	63.15
267.596	13.99
267.812	44.71
268.028	40.62
268.244	3.75
268.46	67.24
268.676	-29.01
268.892	16.04
269.108	40.62
269.324	-20.82
269.54	-20.82
269.756	50.86
269.972	-33.11
270.188	32.43
270.403	-59.73
270.619	18.09
270.835	63.15
271.051	-24.92
271.267	-49.49
271.483	26.28
271.698	59.05
271.914	-12.63
272.13	1.71
272.346	38.57
272.562	-16.73
272.777	61.1
272.993	48.81
273.209	-35.16
273.425	-8.53
273.64	-12.63
273.856	93.87
274.072	65.19
274.287	18.09
274.503	61.1
274.719	34.47
274.934	22.19
275.15	-63.83
275.366	-39.25
275.581	-69.97
275.797	-10.58
276.012	-0.34
276.228	3.75
276.444	-2.39
276.659	30.38
276.875	-20.82
277.09	81.58
277.306	34.47
277.521	57
277.737	1.71
277.952	-31.06
278.168	59.05
278.383	50.86
278.599	9.9
278.814	75.43
279.03	20.14
279.245	93.87
279.461	24.23
279.676	61.1
279.892	9.9
280.107	-47.44
280.322	-72.02
280.538	-20.82
280.753	-20.82
280.969	-84.31
281.184	-6.49
281.399	44.71
281.615	-31.06
281.83	22.19
282.045	-26.96
282.26	9.9
282.476	-4.44
282.691	44.71
282.906	93.87
283.122	11.95
283.337	7.85
283.552	87.72
283.767	-18.77
283.983	83.63
284.198	52.91
284.413	100.01
284.628	-37.2
284.843	-4.44
285.058	5.8
285.274	28.33
285.489	20.14
285.704	-24.92
285.919	-29.01
286.134	30.38
286.349	13.99
286.564	69.29
286.779	73.39
286.995	34.47
287.21	-57.68
287.425	42.67
287.64	5.8
287.855	48.81
288.07	-24.92
288.285	3.75
288.5	38.57
288.715	145.06
288.93	-2.39
289.145	69.29
289.36	28.33
289.575	-37.2
289.79	-20.82
290.004	-53.59
290.219	40.62
290.434	3.75
290.649	5.8
290.864	-49.49
291.079	20.14
291.294	11.95
291.509	-6.49
291.724	42.67
291.938	-63.83
292.153	34.47
292.368	59.05
292.583	34.47
292.798	44.71
293.012	30.38
293.227	77.48
293.442	-35.16
293.657	46.76
293.871	38.57
294.086	20.14
294.301	22.19
294.516	114.34
294.73	42.67
294.945	63.15
295.16	-45.4
295.374	54.95
295.589	89.77
295.804	-12.63
296.018	3.75
296.233	75.43
296.447	46.76
296.662	-47.44
296.877	50.86
297.091	54.95
297.306	91.82
297.52	-55.64
297.735	-0.34
297.949	-47.44
298.164	16.04
298.378	59.05
298.593	-29.01
298.807	11.95
299.022	18.09
299.236	34.47
299.451	-18.77
299.665	-8.53
299.88	34.47
300.094	69.29
300.309	7.85
300.523	40.62
300.737	-33.11
300.952	18.09
301.166	-35.16
301.381	-0.34
301.595	-2.39
301.809	-22.87
302.024	38.57
302.238	-2.39
302.452	48.81
302.667	69.29
302.881	48.81
303.095	-39.25
303.309	65.19
303.524	57
303.738	9.9
303.952	-12.63
304.166	44.71
304.381	-29.01
304.595	85.67
304.809	-22.87
305.023	7.85
305.237	46.76
305.452	34.47
305.666	-33.11
305.88	61.1
306.094	48.81
306.308	52.91
306.522	73.39
306.736	38.57
306.95	28.33
307.164	7.85
307.379	-43.35
307.593	44.71
307.807	42.67
308.021	48.81
308.235	-26.96
308.449	-8.53
308.663	-22.87
308.877	63.15
309.091	46.76
309.305	42.67
309.519	1.71
309.733	13.99
309.947	16.04
310.161	9.9
310.374	93.87
310.588	7.85
310.802	-29.01
311.016	30.38
311.23	59.05
311.444	59.05
311.658	-24.92
311.872	71.34
312.085	54.95
312.299	5.8
312.513	22.19
312.727	3.75
312.941	-41.3
313.154	40.62
313.368	-2.39
313.582	3.75
313.796	32.43
314.009	22.19
314.223	22.19
314.437	36.52
314.651	50.86
314.864	-4.44
315.078	16.04
315.292	-2.39
315.505	11.95
315.719	52.91
315.933	20.14
316.146	-26.96
316.36	3.75
316.573	5.8
316.787	32.43
317.001	38.57
317.214	-12.63
317.428	16.04
317.641	50.86
317.855	57
318.068	67.24
318.282	122.54
318.495	40.62
318.709	-10.58
318.922	48.81
319.136	59.05
319.349	-22.87
319.563	-67.92
319.776	-18.77
319.99	-8.53
320.203	-8.53
320.417	20.14
320.63	-63.83
320.843	52.91
321.057	-8.53
321.27	40.62
321.483	22.19
321.697	104.11
321.91	34.47
322.124	42.67
322.337	13.99
322.55	-24.92
322.763	-4.44
322.977	61.1
323.19	-29.01
323.403	59.05
323.617	42.67
323.83	-35.16
324.043	22.19
324.256	-37.2
324.469	-8.53
324.683	24.23
324.896	-6.49
325.109	11.95
325.322	-20.82
325.535	26.28
325.748	40.62
325.962	93.87
326.175	42.67
326.388	7.85
326.601	-12.63
326.814	-41.3
327.027	3.75
327.24	108.2
327.453	-26.96
327.666	11.95
327.879	20.14
328.092	89.77
328.305	-12.63
328.518	22.19
328.731	-53.59
328.944	-20.82
329.157	52.91
329.37	32.43
329.583	20.14
329.796	67.24
330.009	-74.07
330.222	36.52
330.435	42.67
330.648	-18.77
330.861	-0.34
331.073	13.99
331.286	65.19
331.499	-59.73
331.712	-33.11
331.925	61.1
332.138	-53.59
332.35	61.1
332.563	22.19
332.776	104.11
332.989	-24.92
333.202	-29.01
333.414	-2.39
333.627	48.81
333.84	50.86
334.053	11.95
334.265	42.67
334.478	22.19
334.691	-76.12
334.903	-6.49
335.116	-29.01
335.329	34.47
335.541	54.95
335.754	81.58
335.966	9.9
336.179	59.05
336.392	-43.35
336.604	13.99
336.817	20.14
337.029	9.9
337.242	-16.73
337.454	13.99
337.667	9.9
337.88	40.62
338.092	42.67
338.305	-20.82
338.517	-39.25
338.729	54.95
338.942	36.52
339.154	65.19
339.367	-0.34
339.579	138.92
339.792	-61.78
340.004	48.81
340.217	44.71
340.429	100.01
340.641	32.43
340.854	13.99
341.066	13.99
341.278	67.24
341.491	63.15
341.703	32.43
341.915	20.14
342.128	77.48
342.34	5.8
342.552	-37.2
342.764	36.52
342.977	32.43
343.189	11.95
343.401	16.04
343.613	-82.26
343.826	-26.96
344.038	65.19
344.25	20.14
344.462	13.99
344.674	71.34
344.886	24.23
345.099	69.29
345.311	104.11
345.523	59.05
345.735	-35.16
345.947	-0.34
346.159	67.24
346.371	16.04
346.583	-8.53
346.795	83.63
347.007	-12.63
347.219	-2.39
347.431	-67.92
347.643	46.76
347.855	44.71
348.067	11.95
348.279	-51.54
348.491	-10.58
348.703	16.04
348.915	18.09
349.127	48.81
349.339	24.23
349.551	20.14
349.763	67.24
349.975	-37.2
350.187	61.1
350.399	46.76
350.61	116.39
350.822	3.75
351.034	24.23
351.246	3.75
351.458	-29.01
351.669	-16.73
351.881	-41.3
352.093	18.09
352.305	32.43
352.517	136.87
352.728	73.39
352.94	85.67
353.152	97.96
353.363	5.8
353.575	50.86
353.787	22.19
353.999	-24.92
354.21	83.63
354.422	13.99
354.633	11.95
354.845	13.99
355.057	-16.73
355.268	28.33
355.48	79.53
355.692	110.25
355.903	26.28
356.115	24.23
356.326	-0.34
356.538	114.34
356.749	83.63
356.961	108.2
357.172	57
357.384	5.8
357.595	100.01
357.807	-20.82
358.018	3.75
358.23	104.11
358.441	73.39
358.653	46.76
358.864	-26.96
359.075	1.71
359.287	40.62
359.498	44.71
359.709	-33.11
359.921	50.86
360.132	52.91
360.344	-8.53
360.555	-67.92
360.766	28.33
360.977	81.58
361.189	83.63
361.4	26.28
361.611	61.1
361.823	93.87
362.034	54.95
362.245	-24.92
362.456	24.23
362.667	13.99
362.879	5.8
363.09	38.57
363.301	61.1
363.512	61.1
363.723	-35.16
363.935	-41.3
364.146	71.34
364.357	-0.34
364.568	106.15
364.779	-4.44
364.99	16.04
365.201	-8.53
365.412	50.86
365.623	20.14
365.834	59.05
366.045	77.48
366.256	155.3
366.467	5.8
366.678	61.1
366.889	-2.39
367.1	32.43
367.311	46.76
367.522	24.23
367.733	28.33
367.944	34.47
368.155	44.71
368.366	-8.53
368.577	-4.44
368.788	1.71
368.999	9.9
369.209	9.9
369.42	97.96
369.631	71.34
369.842	18.09
370.053	5.8
370.264	-16.73
370.474	87.72
370.685	16.04
370.896	50.86
371.107	81.58
371.317	-33.11
371.528	79.53
371.739	95.91
371.95	36.52
372.16	40.62
372.371	-18.77
372.582	9.9
372.792	59.05
373.003	50.86
373.214	18.09
373.424	16.04
373.635	7.85
373.846	46.76
374.056	46.76
374.267	-26.96
374.477	26.28
374.688	7.85
374.898	36.52
375.109	36.52
375.319	-24.92
375.53	77.48
375.74	20.14
375.951	42.67
376.161	24.23
376.372	16.04
376.582	59.05
376.793	30.38
377.003	52.91
377.214	-29.01
377.424	65.19
377.635	81.58
377.845	44.71
378.055	116.39
378.266	11.95
378.476	63.15
378.686	50.86
378.897	22.19
379.107	134.82
379.317	77.48
379.528	63.15
379.738	-26.96
379.948	-18.77
380.158	112.3
380.369	18.09
380.579	114.34
380.789	22.19
380.999	-0.34
381.21	3.75
381.42	65.19
381.63	38.57
381.84	7.85
382.05	67.24
382.261	48.81
382.471	79.53
382.681	9.9
382.891	-16.73
383.101	59.05
383.311	-24.92
383.521	-29.01
383.731	11.95
383.941	61.1
384.151	26.28
384.361	75.43
384.571	32.43
384.781	52.91
384.991	13.99
385.201	71.34
385.411	97.96
385.621	22.19
385.831	16.04
386.041	71.34
386.251	5.8
386.461	-0.34
386.671	44.71
386.881	44.71
387.091	93.87
387.301	120.49
387.511	77.48
387.72	42.67
387.93	52.91
388.14	-22.87
388.35	67.24
388.56	46.76
388.769	38.57
388.979	48.81
389.189	114.34
389.399	50.86
389.609	46.76
389.818	132.78
390.028	20.14
390.238	42.67
390.447	59.05
390.657	65.19
390.867	71.34
391.076	97.96
391.286	36.52
391.496	67.24
391.705	73.39
391.915	34.47
392.125	73.39
392.334	54.95
392.544	114.34
392.753	22.19
392.963	48.81
393.172	85.67
393.382	104.11
393.591	128.68
393.801	67.24
394.01	140.97
394.22	-18.77
394.429	120.49
394.639	89.77
394.848	110.25
395.058	108.2
395.267	87.72
395.477	138.92
395.686	13.99
395.895	165.54
396.105	167.59
396.314	85.67
396.524	81.58
396.733	38.57
396.942	83.63
397.152	65.19
397.361	132.78
397.57	91.82
397.78	95.91
397.989	116.39
398.198	114.34
398.407	177.83
398.617	71.34
398.826	132.78
399.035	97.96
399.244	40.62
399.453	95.91
399.663	106.15
399.872	93.87
400.081	124.58
400.29	77.48
400.499	97.96
400.708	71.34
400.917	34.47
401.127	136.87
401.336	130.73
401.545	151.21
401.754	97.96
401.963	120.49
402.172	81.58
402.381	65.19
402.59	126.63
402.799	81.58
403.008	40.62
403.217	167.59
403.426	122.54
403.635	157.35
403.844	54.95
404.053	149.16
404.262	91.82
404.471	208.55
404.68	145.06
404.888	95.91
405.097	155.3
405.306	83.63
405.515	200.36
405.724	206.5
405.933	206.5
406.142	210.6
406.35	249.51
406.559	138.92
406.768	186.02
406.977	249.51
407.185	224.94
407.394	192.17
407.603	218.79
407.812	237.22
408.02	288.42
408.229	315.05
408.438	226.98
408.646	216.74
408.855	284.33
409.064	278.18
409.272	347.81
409.481	288.42
409.69	247.46
409.898	235.18
410.107	341.67
410.315	327.33
410.524	315.05
410.733	308.9
410.941	425.64
411.15	413.35
411.358	423.59
411.567	448.16
411.775	399.01
411.984	353.96
412.192	448.16
412.401	413.35
412.609	491.17
412.818	605.86
413.026	534.18
413.234	415.4
413.443	562.85
413.651	550.56
413.86	646.82
414.068	650.91
414.276	728.74
414.485	669.34
414.693	702.11
414.901	802.46
415.11	798.37
415.318	849.57
415.526	861.85
415.734	824.99
415.943	954.01
416.151	904.86
416.359	863.9
416.567	933.53
416.776	990.88
416.984	964.25
417.192	1091.23
417.4	1068.7
417.608	1005.21
417.817	1154.71
418.025	1123.99
418.233	1343.13
418.441	1253.02
418.649	1201.82
418.857	1486.48
419.065	1494.68
419.273	1468.05
419.481	1470.1
419.689	1668.75
419.897	1646.23
420.105	1617.55
420.313	1582.74
420.521	1848.97
420.729	1783.44
420.937	1853.07
421.145	1922.7
421.353	1941.13
421.561	2150.03
421.769	2168.46
421.977	2154.12
422.185	2266.76
422.393	2463.37
422.601	2440.84
422.809	2528.9
423.017	2473.6
423.224	2641.54
423.432	2729.6
423.64	2709.12
423.848	2891.39
424.056	3022.46
424.263	3122.81
424.471	3231.35
424.679	3274.36
424.887	3440.25
425.094	3501.69
425.302	3569.27
425.51	3550.84
425.718	3710.58
425.925	3708.53
426.133	4079.21
426.341	4208.23
426.548	4273.77
426.756	4345.45
426.964	4337.26
427.171	4572.77
427.379	4832.86
427.586	4845.15
427.794	4970.08
428.001	5295.71
428.209	5387.86
428.417	5336.67
428.624	5686.87
428.832	5719.64
429.039	5656.15
429.247	5670.48
429.454	6272.59
429.662	6614.6
429.869	6348.36
430.076	6604.36
430.284	6430.28
430.491	6905.41
430.699	7204.41
430.906	7147.07
431.114	7108.16
431.321	7538.23
431.528	7700.02
431.736	8001.07
431.943	8554.02
432.15	8334.89
432.358	8394.28
432.565	8781.35
432.772	8914.47
432.979	9299.48
433.187	9330.2
433.394	9487.9
433.601	9983.51
433.808	10098.19
434.016	10059.28
434.223	10323.47
434.43	11156.99
434.637	10964.48
434.844	11531.77
435.052	11798.01
435.259	11763.19
435.466	11847.16
435.673	11625.98
435.88	12498.41
436.087	13297.12
436.294	13096.42
436.501	12910.05
436.708	13188.58
436.915	13381.09
437.122	14310.86
437.329	13913.56
437.537	14663.11
437.743	15005.13
437.95	14726.6
438.157	15330.75
438.364	16006.58
438.571	15920.57
438.778	16074.17
438.985	17427.87
439.192	17014.18
439.399	17436.06
439.606	16969.13
439.813	18150.81
440.02	19283.33
440.227	19092.87
440.433	18447.76
440.64	19031.43
440.847	19076.49
441.054	19625.34
441.261	20823.4
441.467	20706.67
441.674	21054.83
441.881	21820.77
442.088	21962.08
442.294	21632.35
442.501	21955.93
442.708	22644.05
442.914	23512.39
443.121	24624.43
443.328	23700.8
443.534	25642.28
443.741	24474.93
443.948	24393.01
444.154	26344.73
444.361	26195.23
444.568	26139.93
444.774	26121.5
444.981	26653.97
445.187	27544.84
445.394	28685.56
445.6	28224.76
445.807	30356.7
446.013	29691.11
446.22	30264.54
446.426	31149.26
446.633	31386.83
446.839	32572.6
447.046	31112.4
447.252	32980.15
447.459	33234.1
447.665	32648.38
447.871	34294.94
448.078	35898.5
448.284	33983.65
448.491	34895
448.697	36426.88
448.903	37090.42
449.11	37325.94
449.316	36717.69
449.522	37295.22
449.728	38284.39
449.935	38483.04
450.141	38386.78
450.347	39144.53
450.553	37944.42
450.76	38859.87
450.966	39996.49
451.172	39418.96
451.378	40496.19
451.584	39634
451.791	40645.69
451.997	40672.32
452.203	41028.66
452.409	41065.53
452.615	40877.11
452.821	39601.23
453.027	39269.46
453.233	40987.71
453.44	39488.59
453.646	39973.96
453.852	39947.34
454.058	41268.28
454.264	39638.09
454.47	40504.38
454.676	39482.45
454.882	41040.95
455.088	37104.76
455.294	37954.66
455.5	38440.03
455.705	38941.78
455.911	37256.31
456.117	36263.04
456.323	35941.51
456.529	34368.67
456.735	35677.32
456.941	34798.74
457.147	34114.72
457.352	33225.9
457.558	32638.14
457.764	32922.8
457.97	32296.13
458.176	31780.04
458.381	31648.97
458.587	29981.92
458.793	30164.19
458.999	28423.42
459.204	30094.56
459.41	29578.47
459.616	27712.77
459.821	27821.31
460.027	27505.93
460.233	27008.27
460.438	25918.75
460.644	25955.61
460.85	24571.19
461.055	24401.21
461.261	24323.38
461.466	22695.25
461.672	21937.5
461.878	23381.32
462.083	21775.71
462.289	21505.38
462.494	21108.07
462.7	20391.28
462.905	19785.08
463.111	20200.82
463.316	20548.98
463.522	20147.58
463.727	20055.42
463.932	20180.34
464.138	19793.28
464.343	19934.59
464.549	19524.99
464.754	20053.37
464.959	19647.87
465.165	19783.04
465.37	18845.07
465.575	18255.25
465.781	19043.72
465.986	18980.23
466.191	18576.78
466.397	18220.44
466.602	17575.33
466.807	18138.52
467.012	17958.3
467.218	17859.99
467.423	17724.83
467.628	17921.43
467.833	18554.26
468.038	17708.44
468.244	17161.64
468.449	18077.08
468.654	17372.58
468.859	17540.51
469.064	17169.83
469.269	16455.09
469.474	16645.55
469.679	17051.05
469.885	16352.69
470.09	16797.1
470.295	16524.72
470.5	16055.73
470.705	16215.48
470.91	15939
471.115	15758.78
471.32	15777.21
471.525	15887.8
471.73	15443.39
471.935	15375.81
472.139	14902.73
472.344	15242.69
472.549	14902.73
472.754	14882.25
472.959	14581.2
473.164	14081.49
473.369	14015.96
473.574	14687.69
473.778	14235.09
473.983	14474.7
474.188	14206.42
474.393	13635.03
474.598	13753.82
474.802	13618.65
475.007	13538.78
475.212	13342.18
475.417	12877.29
475.621	12963.3
475.826	12963.3
476.031	12819.94
476.235	12430.83
476.44	12629.48
476.645	12318.19
476.849	12412.4
477.054	12293.62
477.259	12330.48
477.463	11947.51
477.668	11886.07
477.872	12035.57
478.077	11937.27
478.282	11423.23
478.486	11322.88
478.691	11275.77
478.895	11412.99
479.1	11240.96
479.304	11161.09
479.509	10622.47
479.713	11228.67
479.918	10831.37
480.122	10726.92
480.326	10769.93
480.531	10929.67
480.735	10792.45
480.94	10685.96
481.144	10911.24
481.348	10470.92
481.553	10735.11
481.757	10436.11
481.961	10462.73
482.166	10468.87
482.37	10368.52
482.574	10274.32
482.778	10487.31
482.983	10565.13
483.187	10538.51
483.391	10413.58
483.595	10249.74
483.8	10399.24
484.004	10468.87
484.208	10468.87
484.412	10348.04
484.616	10378.76
484.821	10380.81
485.025	10165.78
485.229	10370.57
485.433	10343.95
485.637	10364.43
485.841	10356.24
486.045	10251.79
486.249	10243.6
486.453	10247.69
486.657	10442.25
486.861	10507.79
487.065	10147.34
487.269	10419.72
487.473	10151.44
487.677	10429.96
487.881	10337.8
488.085	10302.99
488.289	10427.92
488.493	10352.14
488.697	10606.09
488.901	10464.78
489.105	10341.9
489.309	10450.44
489.512	10673.67
489.716	10647.05
489.92	10436.11
490.124	10569.23
490.328	10620.42
490.531	10491.4
490.735	10876.42
490.939	10374.67
491.143	10558.99
491.346	10683.91
491.55	11048.45
491.754	10804.74
491.958	10907.14
492.161	10667.53
492.365	10870.28
492.569	10976.77
492.772	10851.85
492.976	10915.33
493.18	10896.9
493.383	11204.1
493.587	11167.23
493.79	11257.34
493.994	11027.97
494.197	11288.06
494.401	11372.03
494.605	11505.15
494.808	11656.7
495.012	11767.29
495.215	11693.56
495.419	12011
495.622	11707.9
495.825	11824.63
496.029	12076.53
496.232	12047.86
496.436	12379.63
496.639	12586.47
496.843	12303.85
497.046	12488.17
497.249	12760.55
497.453	13104.61
497.656	13010.4
497.859	12865
498.063	13176.29
498.266	13465.05
498.469	13223.39
498.673	13475.29
498.876	13673.95
499.079	13585.88
499.282	13600.22
499.485	14333.39
499.689	14114.26
499.892	14452.17
500.095	14271.95
500.298	14738.89
500.501	14466.51
500.705	15017.41
500.908	15107.52
501.111	15218.11
501.314	15281.6
501.517	15433.15
501.72	15852.98
501.923	15687.1
502.126	15963.58
502.329	16293.3
502.532	16192.95
502.735	16530.86
502.938	16706.99
503.141	16770.47
503.344	17096.1
503.547	16950.7
503.75	17399.2
503.953	17677.72
504.156	17839.51
504.359	17913.24
504.562	17778.08
504.765	18328.98
504.968	18568.59
505.17	18644.37
505.373	18646.41
505.576	19121.54
505.779	19586.43
505.982	19332.48
506.185	19670.4
506.387	19879.29
506.59	20166.01
506.793	20415.86
506.996	20325.75
507.198	20718.96
507.401	20866.41
507.604	21181.8
507.807	21253.48
508.009	21288.29
508.212	21478.75
508.415	21927.26
508.617	21943.64
508.82	22021.47
509.022	22082.91
509.225	22670.67
509.428	22902.09
509.63	23203.14
509.833	23344.45
510.035	23694.66
510.238	23846.21
510.44	24061.24
510.643	24198.46
510.845	24526.13
511.048	24403.25
511.25	24796.46
511.453	24970.54
511.655	25711.91
511.858	25251.11
512.06	25503.01
512.262	25892.13
512.465	26066.2
512.667	26365.21
512.87	26844.43
513.072	26768.66
513.274	26934.54
513.477	27360.52
513.679	27567.37
513.881	28110.08
514.084	28112.13
514.286	28216.57
514.488	28040.45
514.69	28869.87
514.893	29211.88
515.095	29123.82
515.297	29652.2
515.499	29557.99
515.701	30188.77
515.904	30039.26
516.106	30624.98
516.308	30901.46
516.51	31182.03
516.712	31136.98
516.914	31139.02
517.116	31896.77
517.318	31827.14
517.52	31861.96
517.722	32115.9
517.925	32355.52
518.127	32763.06
518.329	33008.82
518.531	32890.04
518.733	33328.3
518.935	33846.44
519.136	33684.65
519.338	34378.91
519.54	34589.85
519.742	34589.85
519.944	34288.8
520.146	35388.56
520.348	35402.89
520.55	35052.69
520.752	35493.01
520.954	36486.27
521.155	35986.57
521.357	36603
521.559	36861.05
521.761	36955.25
521.963	36975.73
522.164	37307.51
522.366	37676.14
522.568	37794.92
522.77	38136.93
522.971	38399.07
523.173	38141.03
523.375	38679.64
523.576	38628.45
523.778	38728.8
523.98	39060.57
524.181	39437.39
524.383	39615.57
524.584	39590.99
524.786	39787.6
524.988	39810.12
525.189	40223.81
525.391	40154.18
525.592	40125.51
525.794	40696.89
525.995	40410.18
526.197	40965.18
526.398	41147.45
526.6	41137.21
526.801	41135.16
527.003	41460.79
527.204	41573.42
527.406	41964.59
527.607	41905.2
527.808	42050.6
528.01	41718.83
528.211	41985.07
528.412	42406.95
528.614	42365.99
528.815	41882.67
529.016	42841.12
529.218	42486.82
529.419	42650.66
529.62	42970.14
529.822	42593.31
530.023	42535.97
530.224	42581.02
530.425	43148.31
530.626	42339.36
530.828	42755.1
531.029	43545.62
531.23	42896.41
531.431	43039.77
531.632	43279.38
531.833	43279.38
532.035	43078.68
532.236	43148.31
532.437	43219.99
532.638	43011.1
532.839	43285.53
533.04	43629.58
533.241	43099.16
533.442	43379.73
533.643	43566.1
533.844	43293.72
534.045	43586.58
534.246	42812.45
534.447	43361.3
534.648	42912.8
534.849	43191.32
535.05	43205.66
535.251	43414.55
535.451	43463.7
535.652	43662.35
535.853	43645.97
536.054	43500.56
536.255	43639.82
536.456	42892.32
536.657	43861.01
536.857	43285.53
537.058	42951.71
537.259	43277.33
537.46	43396.12
537.66	43035.67
537.861	43619.35
538.062	43136.02
538.263	43615.25
538.463	43058.2
538.664	43193.37
538.865	43695.12
539.065	43727.89
539.266	43187.22
539.466	43584.53
539.667	43007
539.868	43504.66
540.068	43068.44
540.269	43068.44
540.469	43973.64
540.67	43267.09
540.87	43324.44
541.071	43043.87
541.271	43027.48
541.472	42974.23
541.672	43369.49
541.873	42906.65
542.073	42456.1
542.274	43142.17
542.474	42800.16
542.675	43084.83
542.875	43240.47
543.075	43050.01
543.276	43037.72
543.476	43582.48
543.676	42957.85
543.877	43226.14
544.077	42925.08
544.277	42775.58
544.478	42798.11
544.678	43203.61
544.878	42583.07
545.078	43170.84
545.279	42275.88
545.479	42796.06
545.679	42800.16
545.879	42925.08
546.079	42826.78
546.28	42820.64
546.48	42300.45
546.68	42726.43
546.88	42734.62
547.08	42763.29
547.28	42669.09
547.48	42191.91
547.68	43144.22
547.88	42411.04
548.081	42931.23
548.281	42648.61
548.481	42595.36
548.681	42384.42
548.881	42540.07
549.081	42595.36
549.28	41976.87
549.48	42333.22
549.68	42509.35
549.88	43162.65
550.08	42200.1
550.28	42587.17
550.48	42497.06
550.68	42779.68
550.88	42269.73
551.08	42492.96
551.279	42603.55
551.479	42216.49
551.679	42533.92
551.879	42212.39
552.079	42325.03
552.278	42026.03
552.478	42085.42
552.678	42318.88
552.878	42523.68
553.077	42538.02
553.277	42079.27
553.477	42435.62
553.676	42415.14
553.876	42128.42
554.076	41694.25
554.275	42052.65
554.475	41700.4
554.674	42109.99
554.874	42114.09
555.074	41954.35
555.273	41991.21
555.473	42144.81
555.672	41653.3
555.872	41767.98
556.071	42066.98
556.271	41733.17
556.47	41499.7
556.67	41382.96
556.869	41843.76
557.068	41526.32
557.268	41729.07
557.467	41698.35
557.667	41552.94
557.866	41333.81
558.065	41309.24
558.265	41255.99
558.464	41329.72
558.663	41923.63
558.863	40973.37
559.062	41651.25
559.261	41081.91
559.461	41860.14
559.66	40682.56
559.859	41088.06
560.058	40680.51
560.258	41069.62
560.457	40356.93
560.656	41163.83
560.855	40459.33
561.054	41294.9
561.253	40410.18
561.453	40795.2
561.652	40858.68
561.851	41032.76
562.05	40485.95
562.249	40125.51
562.448	40723.52
562.647	40254.53
562.846	40621.12
563.045	40520.77
563.244	40066.12
563.443	40494.14
563.642	39832.65
563.841	39889.99
564.04	40373.31
564.239	40268.87
564.438	39537.74
564.637	40111.17
564.836	40076.36
565.035	39410.77
565.234	39959.62
565.432	39431.25
565.631	39763.02
565.83	39728.2
566.029	39425.11
566.228	39382.1
566.427	39169.11
566.625	39072.85
566.824	38618.21
567.023	38986.84
567.222	38915.16
567.42	39498.83
567.619	38892.63
567.818	38929.5
568.016	38728.8
568.215	39060.57
568.414	38491.23
568.612	38851.67
568.811	38333.54
569.01	38544.48
569.208	38220.9
569.407	38659.16
569.605	38478.94
569.804	38345.83
570.002	37788.78
570.201	38360.16
570.4	37928.04
570.598	37760.11
570.797	37979.24
570.995	37704.81
571.193	37610.6
571.392	38042.73
571.59	37127.28
571.789	37389.42
571.987	37389.42
572.186	37508.21
572.384	37043.32
572.582	37405.81
572.781	37485.68
572.979	36756.6
573.177	36711.55
573.376	37370.99
573.574	36824.18
573.772	37145.72
573.971	36746.36
574.169	36613.24
574.367	36605.05
574.565	36721.79
574.763	36179.07
574.962	36242.56
575.16	35857.54
575.358	36387.97
575.556	35685.51
575.754	36445.31
575.952	35937.41
576.151	36246.66
576.349	35701.9
576.547	35624.08
576.745	35927.17
576.943	36131.97
577.141	35673.23
577.339	36027.52
577.537	35724.43
577.735	35214.48
577.933	35228.82
578.131	35642.51
578.329	35128.47
578.527	35103.89
578.725	35005.59
578.923	34931.86
579.121	34776.22
579.319	34815.13
579.516	35024.02
579.714	34612.38
579.912	34563.23
580.11	34421.92
580.308	34600.09
580.506	34507.93
580.704	33799.33
580.901	34022.56
581.099	34182.31
581.297	33895.59
581.495	34122.91
581.692	33852.58
581.89	33547.43
582.088	33721.51
582.285	33555.63
582.483	33895.59
582.681	33391.79
582.878	33432.75
583.076	32990.39
583.274	33584.3
583.471	32881.84
583.669	33168.56
583.866	32765.11
584.064	32986.29
584.262	32990.39
584.459	32996.53
584.657	32703.67
584.854	32935.09
585.052	32586.94
585.249	32513.21
585.447	32515.26
585.644	32199.87
585.841	32347.33
586.039	32629.94
586.236	31802.57
586.434	31976.64
586.631	31929.54
586.828	31988.93
587.026	31798.47
587.223	31814.85
587.42	31552.71
587.618	31757.51
587.815	31567.05
588.012	31167.7
588.21	31128.78
588.407	31438.03
588.604	31214.8
588.801	30833.88
588.999	30985.43
589.196	30850.26
589.393	30758.1
589.59	30727.38
589.787	30815.44
589.984	30586.07
590.182	30409.95
590.379	30805.2
590.576	30110.94
590.773	30438.62
590.97	30233.82
591.167	30391.51
591.364	29668.58
591.561	30280.92
591.758	29535.46
591.955	29672.68
592.152	29957.35
592.349	29707.49
592.546	29945.06
592.743	29537.51
592.94	29293.8
593.137	29252.84
593.334	29349.1
593.531	29105.39
593.727	29095.15
593.924	28869.87
594.121	28896.5
594.318	28988.66
594.515	28499.19
594.712	28976.37
594.908	28691.7
595.105	28599.54
595.302	28228.86
595.499	28443.9
595.696	28208.38
595.892	28097.79
596.089	28579.06
596.286	28142.85
596.482	28050.69
596.679	27987.2
596.876	28200.19
597.072	27645.19
597.269	27759.88
597.466	27327.75
597.662	27528.45
597.859	27389.19
598.055	27663.62
598.252	26909.97
598.448	27389.19
598.645	26922.26
598.841	26887.44
599.038	27219.21
599.234	27137.29
599.431	26895.63
599.627	26369.3
599.824	26666.26
600.02	26613.01
600.217	26858.77
600.413	26400.02
600.609	26223.9
600.806	26121.5
601.002	26684.69
601.198	26019.1
601.395	26125.6
601.591	25873.7
601.787	25853.22
601.984	25859.36
602.18	26068.25
602.376	25621.8
602.572	25621.8
602.769	25605.41
602.965	25138.48
603.161	25627.94
603.357	25206.06
603.553	25208.11
603.75	25396.52
603.946	24980.78
604.142	25074.99
604.338	24921.39
604.534	24700.21
604.73	24505.65
604.926	24651.06
605.122	24532.28
605.318	24513.84
605.514	24526.13
605.71	24282.42
605.906	24450.36
606.102	24415.54
606.298	24132.92
606.494	24112.44
606.69	24245.56
606.886	24132.92
607.082	23919.93
607.278	23901.5
607.474	23674.18
607.67	23885.12
607.866	23575.87
608.062	23825.73
608.257	23483.72
608.453	23606.59
608.649	23620.93
608.845	23512.39
609.041	23565.64
609.236	23500.1
609.432	23594.31
609.628	23455.04
609.824	23483.72
610.019	23571.78
610.215	23082.31
610.411	23301.45
610.606	22895.95
610.802	23020.88
610.998	23102.79
611.193	23078.22
611.389	22951.24
611.584	23067.98
611.78	23082.31
611.976	22965.58
612.171	22787.41
612.367	22981.96
612.562	22715.73
612.758	22312.28
612.953	22642
613.149	22951.24
613.344	22551.89
613.539	23024.97
613.735	22773.07
613.93	22502.74
614.126	22687.06
614.321	22664.53
614.517	22426.96
614.712	22183.26
614.907	22119.77
615.103	22449.49
615.298	22027.61
615.493	22467.92
615.688	22211.93
615.884	22605.14
616.079	21704.03
616.274	22078.81
616.47	21644.64
616.665	21919.07
616.86	21880.16
617.055	21816.67
617.25	21841.25
617.445	21761.37
617.641	21362.02
617.836	21609.82
618.031	21407.08
618.226	21658.98
618.421	21388.64
618.616	21675.36
618.811	21372.26
619.006	21458.28
619.201	20907.37
619.396	21171.56
619.591	20749.68
619.786	20897.13
619.981	20729.2
620.176	20921.71
620.371	20450.67
620.566	20483.44
620.761	20735.34
620.956	20581.74
621.151	20030.84
621.346	20155.77
621.541	19772.8
621.735	20319.6
621.93	19875.2
622.125	20055.42
622.32	19434.88
622.515	19684.73
622.709	19539.33
622.904	19281.28
623.099	19543.42
623.294	19445.12
623.488	19197.32
623.683	18965.9
623.878	18613.65
624.072	18986.38
624.267	19006.86
624.462	18836.88
624.656	18443.67
624.851	18627.98
625.046	18455.95
625.24	18107.8
625.435	18189.72
625.629	18118.04
625.824	18161.05
626.018	17941.91
626.213	17665.44
626.407	17690.01
626.602	17575.33
626.796	17769.88
626.991	17560.99
627.185	17479.07
627.38	17171.88
627.574	17122.73
627.768	16799.15
627.963	16881.07
628.157	16885.16
628.352	16825.77
628.546	16551.34
628.74	16844.2
628.935	16639.4
629.129	16772.52
629.323	16074.17
629.517	16369.07
629.712	16170.42
629.906	16162.23
630.1	15988.15
630.294	16031.16
630.489	15871.42
630.683	15928.76
630.877	15807.93
631.071	15777.21
631.265	15699.39
631.459	15246.79
631.653	15439.3
631.848	15330.75
632.042	15289.79
632.236	15336.9
632.43	15113.67
632.624	15369.66
632.818	14747.08
633.012	14747.08
633.206	14919.11
633.4	14872.01
633.594	14599.63
633.788	14530
633.982	14575.05
634.176	14300.62
634.369	14386.64
634.563	14286.29
634.757	14075.35
634.951	14286.29
635.145	14278.1
635.339	14169.55
635.533	14183.89
635.726	13925.85
635.92	13741.53
636.114	13817.3
636.308	13675.99
636.501	13379.04
636.695	13604.32
636.889	13440.48
637.083	13333.98
637.276	13293.02
637.47	13313.5
637.664	13063.65
637.857	12983.78
638.051	13247.97
638.244	13147.62
638.438	13002.21
638.632	13032.93
638.825	12613.1
639.019	12627.43
639.212	12561.9
639.406	12703.21
639.599	12654.06
639.793	12590.57
639.986	12266.99
640.18	12385.77
640.373	12197.36
640.567	12049.91
640.76	12068.34
640.954	11992.56
641.147	11865.59
641.34	11949.56
641.534	12041.71
641.727	11861.49
641.92	12006.9
642.114	11800.05
642.307	11519.48
642.5	11365.89
642.694	11439.61
642.887	11335.17
643.08	11560.44
643.273	11343.36
643.467	11339.26
643.66	11238.91
643.853	11204.1
644.046	10984.96
644.239	10999.3
644.432	10915.33
644.626	10948.1
644.819	10915.33
645.012	10931.72
645.205	10939.91
645.398	10612.23
645.591	10630.66
645.784	10577.42
645.977	10458.64
646.17	10634.76
646.363	10544.65
646.556	10223.12
646.749	10432.01
646.942	10202.64
647.135	10343.95
647.328	10106.38
647.521	10257.93
647.714	10055.19
647.907	9993.75
648.099	10106.38
648.292	9823.76
648.485	9934.36
648.678	9713.17
648.871	9872.92
649.064	9692.69
649.256	9768.47
649.449	9489.95
649.642	9469.47
649.835	9395.74
650.027	9465.37
650.22	9532.95
650.413	9422.36
650.605	9465.37
650.798	9233.95
650.991	9291.29
651.183	9268.77
651.376	9115.17
651.568	9258.53
651.761	8965.67
651.954	9262.62
652.146	8924.71
652.339	9000.48
652.531	9016.87
652.724	8830.5
652.916	8726.05
653.109	8853.03
653.301	8554.02
653.494	8721.96
653.686	8431.15
653.879	8398.38
654.071	8476.2
654.263	8398.38
654.456	8453.67
654.648	8443.43
654.84	8304.17
655.033	8171.05
655.225	8451.63
655.417	8214.06
655.61	8209.97
655.802	8111.66
655.994	8119.85
656.186	8050.22
656.379	7755.32
656.571	7904.82
656.763	7994.93
656.955	7775.8
657.148	7913.01
657.34	7747.12
657.532	7685.69
657.724	7591.48
657.916	7740.98
658.108	7575.1
658.3	7456.31
658.492	7775.8
658.684	7464.5
658.876	7421.5
659.068	7722.55
659.26	7401.02
659.452	7480.89
659.644	7491.13
659.836	7290.43
660.028	7151.17
660.22	7138.88
660.412	7118.4
660.604	7075.39
660.796	7382.59
660.988	7185.98
661.18	7044.67
661.372	7009.86
661.563	7044.67
661.755	6807.11
661.947	7018.05
662.139	6712.9
662.331	7016
662.522	6710.85
662.714	6899.27
662.906	6717
663.097	6684.23
663.289	6727.24
663.481	6612.55
663.673	6624.84
663.864	6518.34
664.056	6624.84
664.247	6514.25
664.439	6366.79
664.631	6399.56
664.822	6504.01
665.014	6450.76
665.205	6366.79
665.397	6205
665.588	6288.97
665.78	6100.56
665.971	6260.3
666.163	6250.06
666.354	6157.9
666.546	6194.76
666.737	6047.31
666.929	6323.79
667.12	6114.89
667.311	6008.4
667.503	5979.73
667.694	6118.99
667.885	5914.19
668.077	5994.06
668.268	5762.64
668.459	5942.86
668.651	5951.06
668.842	5656.15
669.033	5756.5
669.224	5664.34
669.416	5817.94
669.607	5611.09
669.798	5684.82
669.989	5592.66
670.18	5666.39
670.371	5607
670.563	5566.04
670.754	5717.59
670.945	5486.17
671.136	5502.55
671.327	5529.17
671.518	5688.92
671.709	5381.72
671.9	5344.86
672.091	5412.44
672.282	5277.27
672.473	5408.34
672.664	5287.51
672.855	5287.51
673.046	5340.76
673.237	5443.16
673.428	5310.04
673.619	5246.55
673.809	5088.86
674	5312.09
674.191	5240.41
674.382	5150.3
674.573	5056.09
674.764	5008.99
674.954	5101.15
675.145	5000.8
675.336	5119.58
675.527	4982.37
675.717	5041.76
675.908	4814.43
676.099	4974.17
676.289	4890.21
676.48	4953.7
676.671	4914.78
676.861	4957.79
677.052	4687.46
677.243	4730.47
677.433	4900.45
677.624	4859.49
677.814	4828.77
678.005	4691.56
678.195	4705.89
678.386	4752.99
678.576	4832.86
678.767	4806.24
678.957	4666.98
679.148	4814.43
679.338	4660.84
679.529	4714.08
679.719	4707.94
679.909	4705.89
680.1	4767.33
680.29	4808.29
680.481	4648.55
680.671	4693.6
680.861	4562.53
681.052	4525.67
681.242	4595.3
681.432	4722.27
681.622	4632.16
681.813	4513.38
682.003	4535.91
682.193	4595.3
682.383	4550.25
682.573	4578.92
682.764	4427.37
682.954	4550.25
683.144	4673.12
683.334	4529.77
683.524	4552.29
683.714	4445.8
683.904	4286.06
684.094	4466.28
684.284	4316.78
684.474	4386.41
684.664	4394.6
684.854	4468.33
685.044	4363.88
685.234	4243.05
685.424	4281.96
685.614	4388.46
685.804	4355.69
685.994	4181.61
686.184	4415.08
686.374	4277.87
686.564	4292.2
686.753	4185.71
686.943	4116.08
687.133	4138.6
687.323	4054.64
687.513	4091.5
687.702	4081.26
687.892	4050.54
688.082	4118.12
688.272	4146.8
688.461	4173.42
688.651	4116.08
688.841	4107.88
689.03	3962.48
689.22	3962.48
689.41	3987.05
689.599	3962.48
689.789	3960.43
689.979	3878.51
690.168	3970.67
690.358	3661.43
690.547	3776.11
690.737	3751.54
690.926	3880.56
691.116	3675.76
691.305	3686
691.495	3632.76
691.684	3700.34
691.874	3667.57
692.063	3622.52
692.252	3749.49
692.442	3585.65
692.631	3561.08
692.82	3634.8
693.01	3479.16
693.199	3530.36
693.388	3585.65
693.578	3565.17
693.767	3495.54
693.956	3466.87
694.146	3382.9
694.335	3436.15
694.524	3438.2
694.713	3475.06
694.902	3438.2
695.092	3235.45
695.281	3378.81
695.47	3321.46
695.659	3272.31
695.848	3307.13
696.037	3264.12
696.226	3266.17
696.415	3409.53
696.604	3343.99
696.793	3206.78
696.982	3274.36
697.171	3399.29
697.36	3147.39
697.549	3116.67
697.738	3188.35
697.927	3149.43
698.116	3192.44
698.305	3155.58
698.494	3212.92
698.683	3227.26
698.872	3182.2
699.061	3208.83
699.25	3079.8
699.438	3137.15
699.627	2926.21
699.816	3219.07
700.005	3061.37
700.193	3221.11
700.382	3040.89
700.571	3032.7
700.76	3098.24
700.948	3104.38
701.137	3022.46
701.326	2950.78
701.514	2993.79
701.703	3042.94
701.892	2981.5
702.08	3047.04
702.269	2918.01
702.457	2997.88
702.646	2979.45
702.834	2877.05
703.023	2997.88
703.212	2905.73
703.4	3008.12
703.589	2889.34
703.777	2999.93
703.965	2889.34
704.154	2850.43
704.342	2893.44
704.531	3018.36
704.719	2922.11
704.907	2827.9
705.096	2897.53
705.284	2870.91
705.472	2934.4
705.661	2909.82
705.849	3006.08
706.037	2932.35
706.226	2915.97
706.414	2834.05
706.602	2961.02
706.79	2922.11
706.979	2743.94
707.167	2840.19
707.355	2842.24
707.543	2786.94
707.731	3001.98
707.919	2844.29
708.107	2772.61
708.296	2825.86
708.484	2864.77
708.672	2684.55
708.86	2881.15
709.048	2731.65
709.236	2903.68
709.424	2717.31
709.612	2737.79
709.8	2725.51
709.988	2895.49
710.176	2791.04
710.364	2887.29
710.551	2672.26
710.739	2707.07
710.927	2733.7
711.115	2672.26
711.303	2733.7
711.491	2786.94
711.679	2686.59
711.866	2741.89
712.054	2784.9
712.242	2864.77
712.43	2698.88
712.617	2659.97
712.805	2807.42
712.993	2707.07
713.181	2659.97
713.368	2705.03
713.556	2754.18
713.744	2614.91
713.931	2834.05
714.119	2743.94
714.306	2647.68
714.494	2569.86
714.682	2659.97
714.869	2709.12
715.057	2715.27
715.244	2647.68
715.432	2735.74
715.619	2647.68
715.807	2596.48
715.994	2741.89
716.182	2768.51
716.369	2686.59
716.556	2662.02
716.744	2653.83
716.931	2680.45
717.119	2668.16
717.306	2623.11
717.493	2610.82
717.681	2700.93
717.868	2619.01
718.055	2643.59
718.242	2670.21
718.43	2623.11
718.617	2684.55
718.804	2604.67
718.991	2596.48
719.179	2647.68
719.366	2653.83
719.553	2678.4
719.74	2539.14
719.927	2635.39
720.114	2651.78
720.301	2696.83
720.488	2553.48
720.676	2645.63
720.863	2643.59
721.05	2657.92
721.237	2623.11
721.424	2629.25
721.611	2555.52
721.798	2698.88
721.985	2506.37
722.172	2541.19
722.358	2573.96
722.545	2682.5
722.732	2442.89
722.919	2676.35
723.106	2487.94
723.293	2479.75
723.48	2561.67
723.667	2571.91
723.853	2604.67
724.04	2588.29
724.227	2641.54
724.414	2682.5
724.6	2541.19
724.787	2737.79
724.974	2659.97
725.161	2748.03
725.347	2496.13
725.534	2639.49
725.72	2698.88
725.907	2682.5
726.094	2588.29
726.28	2573.96
726.467	2518.66
726.653	2631.3
726.84	2631.3
727.027	2676.35
727.213	2651.78
727.4	2717.31
727.586	2659.97
727.773	2623.11
727.959	2725.51
728.145	2690.69
728.332	2576
728.518	2551.43
728.705	2641.54
728.891	2551.43
729.077	2766.46
729.264	2639.49
729.45	2750.08
729.636	2649.73
729.823	2569.86
730.009	2666.11
730.195	2516.61
730.382	2557.57
730.568	2604.67
730.754	2653.83
730.94	2621.06
731.126	2557.57
731.313	2678.4
731.499	2702.98
731.685	2653.83
731.871	2559.62
732.057	2580.1
732.243	2567.81
732.429	2662.02
732.615	2639.49
732.801	2694.79
732.987	2745.98
733.173	2698.88
733.359	2680.45
733.545	2657.92
733.731	2694.79
733.917	2674.31
734.103	2678.4
734.289	2633.35
734.475	2588.29
734.661	2723.46
734.847	2643.59
735.033	2782.85
735.219	2721.41
735.404	2674.31
735.59	2616.96
735.776	2715.27
735.962	2680.45
736.148	2836.1
736.333	2735.74
736.519	2690.69
736.705	2608.77
736.89	2684.55
737.076	2576
737.262	2633.35
737.447	2731.65
737.633	2602.63
737.819	2760.32
738.004	2678.4
738.19	2657.92
738.375	2713.22
738.561	2580.1
738.747	2541.19
738.932	2696.83
739.118	2752.13
739.303	2610.82
739.489	2760.32
739.674	2647.68
739.859	2528.9
740.045	2604.67
740.23	2623.11
740.416	2530.95
740.601	2557.57
740.786	2576
740.972	2596.48
741.157	2594.44
741.342	2641.54
741.528	2502.28
741.713	2686.59
741.898	2541.19
742.084	2602.63
742.269	2578.05
742.454	2549.38
742.639	2619.01
742.824	2614.91
743.01	2610.82
743.195	2684.55
743.38	2598.53
743.565	2608.77
743.75	2709.12
743.935	2662.02
744.12	2588.29
744.305	2717.31
744.49	2434.69
744.675	2438.79
744.86	2539.14
745.045	2588.29
745.23	2375.3
745.415	2547.33
745.6	2506.37
745.785	2471.56
745.97	2502.28
746.155	2397.83
746.34	2530.95
746.525	2383.49
746.71	2430.6
746.895	2371.21
747.079	2330.25
747.264	2379.4
747.449	2324.1
747.634	2334.34
747.819	2340.49
748.003	2414.21
748.188	2342.53
748.373	2377.35
748.557	2408.07
748.742	2401.93
748.927	2231.94
749.111	2289.29
749.296	2170.51
749.481	2238.09
749.665	2270.86
749.85	2305.67
750.034	2297.48
750.219	2203.27
750.404	2186.89
750.588	2166.41
750.773	2111.11
750.957	2092.68
751.141	2211.46
751.326	2238.09
751.51	2174.6
751.695	2193.03
751.879	2053.77
752.064	2184.84
752.248	2090.63
752.432	2104.97
752.617	2113.16
752.801	2119.31
752.985	2018.96
753.17	2107.02
753.354	2111.11
753.538	1973.9
753.722	1934.99
753.907	1873.55
754.091	1920.65
754.275	1990.28
754.459	1865.36
754.643	1924.75
754.828	1955.47
755.012	1900.17
755.196	1863.31
755.38	1865.36
755.564	1793.68
755.748	1885.84
755.932	1867.41
756.116	1826.45
756.3	1791.63
756.484	1791.63
756.668	1859.21
756.852	1748.62
757.036	1767.06
757.22	1787.54
757.404	1687.18
757.588	1765.01
757.772	1705.62
757.956	1836.69
758.14	1832.59
758.323	1681.04
758.507	1744.53
758.691	1752.72
758.875	1728.14
759.059	1656.47
759.242	1613.46
759.426	1691.28
759.61	1601.17
759.794	1629.84
759.977	1681.04
760.161	1642.13
760.345	1633.94
760.528	1601.17
760.712	1572.5
760.895	1619.6
761.079	1539.73
761.263	1552.02
761.446	1474.2
761.63	1615.51
761.813	1650.32
761.997	1511.06
762.18	1592.98
762.364	1474.2
762.547	1498.77
762.731	1529.49
762.914	1527.44
763.098	1504.92
763.281	1482.39
763.464	1447.57
763.648	1531.54
763.831	1490.58
764.015	1431.19
764.198	1447.57
764.381	1472.15
764.564	1420.95
764.748	1443.48
764.931	1459.86
765.114	1384.09
765.297	1474.2
765.481	1349.27
765.664	1509.01
765.847	1365.65
766.03	1461.91
766.213	1373.85
766.397	1410.71
766.58	1390.23
766.763	1406.61
766.946	1359.51
767.129	1347.22
767.312	1259.16
767.495	1308.31
767.678	1357.46
767.861	1197.72
768.044	1306.26
768.227	1296.02
768.41	1248.92
768.593	1341.08
768.776	1336.98
768.959	1250.97
769.142	1296.02
769.324	1273.5
769.507	1242.78
769.69	1214.1
769.873	1304.21
770.056	1361.56
770.239	1267.35
770.421	1236.63
770.604	1162.9
770.787	1191.58
770.97	1224.34
771.152	1169.05
771.335	1308.31
771.518	1238.68
771.7	1197.72
771.883	1248.92
772.066	1138.33
772.248	1126.04
772.431	1111.71
772.613	1136.28
772.796	1136.28
772.978	1105.56
773.161	1181.34
773.343	1113.75
773.526	1117.85
773.708	1068.7
773.891	1070.75
774.073	966.3
774.256	1005.21
774.438	1115.8
774.621	1169.05
774.803	1050.27
774.985	1095.32
775.168	1080.99
775.35	1003.16
775.532	1021.6
775.715	964.25
775.897	1029.79
776.079	1009.31
776.261	1095.32
776.444	980.64
776.626	1005.21
776.808	1042.07
776.99	1035.93
777.173	931.48
777.355	966.3
777.537	992.92
777.719	962.2
777.901	964.25
778.083	904.86
778.265	951.96
778.447	886.43
778.629	902.81
778.811	923.29
778.993	962.2
779.175	863.9
779.357	863.9
779.539	820.89
779.721	911
779.903	878.24
780.085	837.28
780.267	868
780.449	884.38
780.631	804.51
780.812	898.72
780.994	786.08
781.176	863.9
781.358	786.08
781.54	779.93
781.721	790.17
781.903	730.78
782.085	726.69
782.267	837.28
782.448	794.27
782.63	757.41
782.812	724.64
782.993	749.22
783.175	820.89
783.357	693.92
783.538	736.93
783.72	691.87
783.901	765.6
784.083	675.49
784.264	638.62
784.446	704.16
784.627	724.64
784.809	714.4
784.99	663.2
785.172	618.15
785.353	700.06
785.535	626.34
785.716	646.82
785.897	589.47
786.079	691.87
786.26	704.16
786.441	683.68
786.623	480.93
786.804	677.54
786.985	605.86
787.167	564.9
787.348	599.71
787.529	528.03
787.71	667.3
787.891	552.61
788.073	538.27
788.254	497.32
788.435	532.13
788.616	673.44
788.797	499.36
788.978	521.89
789.159	439.97
789.34	554.66
789.522	511.65
789.703	540.32
789.884	556.71
790.065	523.94
790.246	534.18
790.427	579.23
790.607	519.84
790.788	534.18
790.969	476.84
791.15	442.02
791.331	421.54
791.512	480.93
791.693	437.92
791.874	482.98
792.054	599.71
792.235	419.49
792.416	521.89
792.597	374.44
792.778	497.32
792.958	419.49
793.139	540.32
793.32	431.78
793.5	339.62
793.681	466.6
793.862	450.21
794.042	478.88
794.223	470.69
794.404	429.73
794.584	382.63
794.765	335.53
794.945	396.96
795.126	472.74
795.306	458.4
795.487	333.48
795.667	321.19
795.848	362.15
796.028	335.53
796.209	388.77
796.389	480.93
796.57	388.77
796.75	331.43
796.93	423.59
797.111	329.38
797.291	372.39
797.471	356.01
797.652	345.77
797.832	353.96
798.012	323.24
798.192	343.72
798.373	368.29
798.553	356.01
798.733	306.85
798.913	339.62
799.093	353.96
799.274	384.68
799.454	396.96
799.634	370.34
799.814	425.64
799.994	386.72
800.174	333.48
800.354	356.01
800.534	308.9
800.714	280.23
800.894	353.96
801.074	351.91
801.254	296.61
801.434	368.29
801.614	335.53
801.794	276.13
801.974	917.15
802.154	255.65
802.334	288.42
802.514	286.37
802.693	298.66
802.873	226.98
803.053	253.61
803.233	364.2
803.413	319.14
803.592	286.37
803.772	288.42
803.952	276.13
804.131	255.65
804.311	335.53
804.491	280.23
804.67	300.71
804.85	308.9
805.03	263.85
805.209	317.09
805.389	237.22
805.568	306.85
805.748	247.46
805.928	222.89
806.107	276.13
806.287	272.04
806.466	274.09
806.646	235.18
806.825	310.95
807.004	310.95
807.184	280.23
807.363	255.65
807.543	251.56
807.722	280.23
807.901	263.85
808.081	302.76
808.26	190.12
808.439	272.04
808.619	278.18
808.798	282.28
808.977	229.03
809.156	235.18
809.336	265.89
809.515	167.59
809.694	245.41
809.873	204.46
810.052	204.46
810.231	233.13
810.411	200.36
810.59	226.98
810.769	259.75
810.948	317.09
811.127	145.06
811.306	183.98
811.485	163.5
811.664	247.46
811.843	181.93
812.022	247.46
812.201	169.64
812.38	229.03
812.559	235.18
812.737	251.56
812.916	192.17
813.095	83.63
813.274	155.3
813.453	210.6
813.632	147.11
813.811	134.82
813.989	231.08
814.168	212.65
814.347	190.12
814.526	163.5
814.704	265.89
814.883	212.65
815.062	198.31
815.24	181.93
815.419	196.26
815.598	188.07
815.776	112.3
815.955	161.45
816.133	128.68
816.312	188.07
816.49	145.06
816.669	167.59
816.847	216.74
817.026	194.22
817.204	93.87
817.383	196.26
817.561	116.39
817.74	175.78
817.918	122.54
818.097	226.98
818.275	97.96
818.453	231.08
818.632	165.54
818.81	120.49
818.988	159.4
819.167	204.46
819.345	181.93
819.523	202.41
819.701	194.22
819.879	208.55
820.058	183.98
820.236	83.63
820.414	126.63
820.592	194.22
820.77	75.43
820.948	126.63
821.127	124.58
821.305	155.3
821.483	149.16
821.661	175.78
821.839	173.74
822.017	188.07
822.195	167.59
822.373	216.74
822.551	126.63
822.729	208.55
822.907	161.45
823.085	151.21
823.262	155.3
823.44	140.97
823.618	128.68
823.796	134.82
823.974	106.15
824.152	112.3
824.329	75.43
824.507	198.31
824.685	171.69
824.863	38.57
825.04	97.96
825.218	175.78
825.396	128.68
825.574	159.4
825.751	134.82
825.929	188.07
826.107	85.67
826.284	67.24
826.462	175.78
826.639	85.67
826.817	102.06
826.994	175.78
827.172	102.06
827.349	138.92
827.527	124.58
827.704	106.15
827.882	138.92
828.059	112.3
828.237	87.72
828.414	175.78
828.591	30.38
828.769	100.01
828.946	24.23
829.124	85.67
829.301	110.25
829.478	71.34
829.655	59.05
829.833	114.34
830.01	65.19
830.187	63.15
830.364	102.06
830.542	79.53
830.719	151.21
830.896	130.73
831.073	100.01
831.25	83.63
831.427	212.65
831.604	136.87
831.782	120.49
831.959	138.92
832.136	-6.49
832.313	161.45
832.49	44.71
832.667	40.62
832.844	104.11
833.021	91.82
833.198	57
833.374	100.01
833.551	79.53
833.728	128.68
833.905	167.59
834.082	30.38
834.259	73.39
834.436	79.53
834.612	77.48
834.789	95.91
834.966	85.67
835.143	83.63
835.319	61.1
835.496	46.76
835.673	48.81
835.85	128.68
836.026	124.58
836.203	216.74
836.38	81.58
836.556	61.1
836.733	79.53
836.909	89.77
837.086	11.95
837.262	40.62
837.439	171.69
837.616	87.72
837.792	18.09
837.968	100.01
838.145	-55.64
838.321	81.58
838.498	75.43
838.674	34.47
838.851	38.57
839.027	61.1
839.203	54.95
839.38	69.29
839.556	69.29
839.732	3.75
839.909	-6.49
840.085	28.33
840.261	59.05
840.437	16.04
840.614	20.14
840.79	65.19
840.966	9.9
841.142	75.43
841.318	11.95
841.494	130.73
841.671	-0.34
841.847	91.82
842.023	79.53
842.199	48.81
842.375	155.3
842.551	54.95
842.727	-0.34
842.903	91.82
843.079	24.23
843.255	57
843.431	73.39
843.607	126.63
843.783	20.14
843.959	116.39
844.134	54.95
844.31	46.76
844.486	5.8
844.662	3.75
844.838	-67.92
845.013	71.34
845.189	61.1
845.365	54.95
845.541	18.09
845.716	85.67
845.892	63.15
846.068	38.57
846.244	42.67
846.419	48.81
846.595	48.81
846.77	5.8
846.946	38.57
847.122	-53.59
847.297	85.67
847.473	114.34
847.648	9.9
847.824	-6.49
847.999	30.38
848.175	38.57
848.35	44.71
848.526	63.15
848.701	7.85
848.876	116.39
849.052	81.58
849.227	36.52
849.403	-39.25
849.578	89.77
849.753	20.14
849.929	93.87
850.104	11.95
850.279	38.57
850.454	-10.58
850.63	73.39
850.805	7.85
850.98	83.63
851.155	22.19
851.33	-22.87
851.505	11.95
851.681	93.87
851.856	7.85
852.031	40.62
852.206	-8.53
852.381	-12.63
852.556	38.57
852.731	95.91
852.906	50.86
853.081	61.1
853.256	91.82
853.431	48.81
853.606	7.85
853.781	1.71
853.956	-39.25
854.131	97.96
854.305	128.68
854.48	7.85
854.655	32.43
854.83	36.52
855.005	13.99
855.18	50.86
855.354	34.47
855.529	36.52
855.704	77.48
855.879	61.1
856.053	13.99
856.228	52.91
856.403	-16.73
856.577	22.19
856.752	30.38
856.926	30.38
857.101	61.1
857.276	-33.11
857.45	26.28
857.625	63.15
857.799	106.15
857.974	-6.49
858.148	-33.11
858.323	52.91
858.497	34.47
858.672	3.75
858.846	22.19
859.02	54.95
859.195	32.43
859.369	40.62
859.543	11.95
859.718	46.76
859.892	32.43
860.066	-0.34
860.241	-0.34
860.415	38.57
860.589	24.23
860.763	34.47
860.938	13.99
861.112	3.75
861.286	-4.44
861.46	24.23
861.634	-47.44
861.808	16.04
861.982	-43.35
862.157	-24.92
862.331	40.62
862.505	-12.63
862.679	-0.34
862.853	-6.49
863.027	7.85
863.201	40.62
863.375	61.1
863.549	24.23
863.722	30.38
863.896	52.91
864.07	20.14
864.244	-33.11
864.418	32.43
864.592	40.62
864.766	36.52
864.939	-20.82
865.113	-18.77
865.287	65.19
865.461	-76.12
865.634	40.62
865.808	83.63
865.982	-43.35
866.156	-53.59
866.329	-12.63
866.503	-24.92
866.676	40.62
866.85	-14.68
867.024	-2.39
867.197	7.85
867.371	22.19
867.544	-26.96
867.718	-80.21
867.891	32.43
868.065	-16.73
868.238	38.57
868.412	67.24
868.585	57
868.759	85.67
868.932	-4.44
869.105	-55.64
869.279	7.85
869.452	9.9
869.625	40.62
869.799	5.8
869.972	-72.02
870.145	-18.77
870.319	54.95
870.492	24.23
870.665	-96.6
870.838	24.23
871.011	-49.49
871.185	-33.11
871.358	-86.36
871.531	-37.2
871.704	-29.01
871.877	91.82
872.05	11.95
872.223	-51.54
872.396	59.05
872.569	63.15
872.742	-67.92
872.915	-4.44
873.088	-35.16
873.261	3.75
873.434	7.85
873.607	5.8
873.78	50.86
873.953	-12.63
874.126	18.09
874.299	-14.68
874.471	42.67
874.644	-69.97
874.817	-6.49
874.99	32.43
875.163	-53.59
875.335	46.76
875.508	59.05
875.681	71.34
875.853	-33.11
876.026	-10.58
876.199	-78.16
876.371	-31.06
876.544	38.57
876.717	-16.73
876.889	-8.53
877.062	3.75
877.234	-59.73
877.407	63.15
877.579	-86.36
877.752	69.29
877.924	9.9
878.097	-0.34
878.269	-14.68
878.442	32.43
878.614	26.28
878.786	-26.96
878.959	-24.92
879.131	-69.97
879.303	-26.96
879.476	24.23
879.648	63.15
879.82	-6.49
879.993	48.81
880.165	-33.11
880.337	-47.44
880.509	-55.64
880.681	54.95
880.854	50.86
881.026	-65.88
881.198	36.52
881.37	1.71
881.542	-6.49
881.714	-59.73
881.886	-6.49
882.058	-10.58
882.23	-61.78
882.402	32.43
882.574	22.19
882.746	-4.44
882.918	20.14
883.09	42.67
883.262	-76.12
883.434	-41.3
883.606	-33.11
883.778	-12.63
883.95	26.28
884.122	-22.87
884.293	16.04
884.465	32.43
884.637	61.1
884.809	-20.82
884.98	48.81
885.152	-10.58
885.324	-29.01
885.496	26.28
885.667	-20.82
885.839	-31.06
886.011	85.67
886.182	-8.53
886.354	11.95
886.525	28.33
886.697	67.24
886.869	-43.35
887.04	-12.63
887.212	42.67
887.383	89.77
887.555	24.23
887.726	-8.53
887.897	-0.34
888.069	13.99
888.24	3.75
888.412	-45.4
888.583	18.09
888.754	-2.39
888.926	-59.73
889.097	-84.31
889.268	-24.92
889.44	7.85
889.611	-2.39
889.782	-63.83
889.953	-37.2
890.125	106.15
890.296	-26.96
890.467	-59.73
890.638	-61.78
890.809	-16.73
890.98	-2.39
891.151	-61.78
891.323	44.71
891.494	42.67
891.665	5.8
891.836	-2.39
892.007	5.8
892.178	-43.35
892.349	-72.02
892.52	-31.06
892.691	52.91
892.862	-51.54
893.032	-16.73
893.203	-2.39
893.374	-29.01
893.545	7.85
893.716	-16.73
893.887	7.85
894.057	-10.58
894.228	-39.25
894.399	-29.01
894.57	54.95
894.74	-26.96
894.911	-12.63
895.082	-0.34
895.253	61.1
895.423	-2.39
895.594	-57.68
895.764	-10.58
895.935	20.14
896.106	1.71
896.276	16.04
896.447	-8.53
896.617	-33.11
896.788	-49.49
896.958	-84.31
897.129	18.09
897.299	-51.54
897.47	5.8
897.64	1.71
897.81	-67.92
897.981	-55.64
898.151	-14.68
898.322	16.04
898.492	-33.11
898.662	-43.35
898.832	-61.78
899.003	1.71
899.173	-0.34
899.343	-0.34
899.513	-55.64
