Data from USB4F104151__17__12-41-03-416.txt Node

Date: Fri Mar 14 12:41:03 EDT 2025
User: louis
Spectrometer: USB4F10415
Trigger mode: 4
Integration Time (sec): 3.000000E-2
Scans to average: 1
Electric dark correction enabled: true
Nonlinearity correction enabled: false
Boxcar width: 0
XAxis mode: Wavelengths
Number of Pixels in Spectrum: 3648
>>>>>Begin Spectral Data<<<<<
178.204	-86.01
178.424	-86.01
178.644	-86.01
178.864	-149.5
179.084	-143.36
179.304	-24.58
179.524	-18.43
179.744	8.19
179.964	12.29
180.184	-4.1
180.404	32.77
180.624	18.43
180.844	10.24
181.064	6.14
181.283	2.05
181.503	-28.67
181.723	-14.34
181.943	-20.48
182.163	12.29
182.383	110.59
182.602	36.86
182.822	63.49
183.042	18.43
183.262	12.29
183.482	45.06
183.701	26.62
183.921	53.25
184.141	-53.25
184.361	18.43
184.58	45.06
184.8	-16.38
185.02	12.29
185.239	102.4
185.459	43.01
185.679	65.54
185.898	65.54
186.118	38.91
186.338	26.62
186.557	-30.72
186.777	-14.34
186.997	32.77
187.216	12.29
187.436	133.12
187.655	77.82
187.875	124.93
188.095	32.77
188.314	-6.14
188.534	28.67
188.753	14.34
188.973	73.73
189.192	86.01
189.412	88.06
189.631	2.05
189.851	51.2
190.07	14.34
190.29	2.05
190.509	26.62
190.729	8.19
190.948	67.58
191.168	186.37
191.387	86.01
191.607	-28.67
191.826	61.44
192.045	51.2
192.265	-51.2
192.484	90.11
192.704	-2.05
192.923	63.49
193.142	100.35
193.362	14.34
193.581	34.82
193.8	14.34
194.02	100.35
194.239	12.29
194.458	77.82
194.678	57.34
194.897	43.01
195.116	61.44
195.335	18.43
195.555	-4.1
195.774	20.48
195.993	32.77
196.212	34.82
196.432	-10.24
196.651	2.05
196.87	36.86
197.089	14.34
197.308	38.91
197.528	63.49
197.747	-6.14
197.966	-6.14
198.185	79.87
198.404	55.3
198.623	28.67
198.842	24.58
199.062	45.06
199.281	75.77
199.5	26.62
199.719	28.67
199.938	-8.19
200.157	137.21
200.376	12.29
200.595	40.96
200.814	34.82
201.033	71.68
201.252	32.77
201.471	28.67
201.69	90.11
201.909	47.1
202.128	98.3
202.347	71.68
202.566	-45.06
202.785	32.77
203.004	6.14
203.223	126.97
203.442	63.49
203.661	12.29
203.879	53.25
204.098	106.49
204.317	40.96
204.536	110.59
204.755	16.38
204.974	73.73
205.193	18.43
205.411	108.54
205.63	67.58
205.849	6.14
206.068	55.3
206.287	45.06
206.505	51.2
206.724	10.24
206.943	61.44
207.162	-6.14
207.381	120.83
207.599	53.25
207.818	22.53
208.037	26.62
208.255	24.58
208.474	36.86
208.693	112.64
208.911	53.25
209.13	12.29
209.349	75.77
209.567	20.48
209.786	102.4
210.005	83.97
210.223	40.96
210.442	-61.44
210.661	8.19
210.879	24.58
211.098	16.38
211.316	18.43
211.535	4.1
211.753	120.83
211.972	92.16
212.191	36.86
212.409	-38.91
212.628	63.49
212.846	18.43
213.065	36.86
213.283	83.97
213.502	83.97
213.72	-38.91
213.938	57.34
214.157	4.1
214.375	12.29
214.594	26.62
214.812	73.73
215.031	8.19
215.249	-6.14
215.467	79.87
215.686	104.45
215.904	79.87
216.122	104.45
216.341	61.44
216.559	49.15
216.778	131.07
216.996	49.15
217.214	55.3
217.432	30.72
217.651	38.91
217.869	61.44
218.087	53.25
218.306	100.35
218.524	38.91
218.742	49.15
218.96	63.49
219.179	22.53
219.397	53.25
219.615	75.77
219.833	32.77
220.051	4.1
220.27	94.21
220.488	73.73
220.706	104.45
220.924	12.29
221.142	-14.34
221.36	-4.1
221.578	73.73
221.796	40.96
222.015	102.4
222.233	30.72
222.451	65.54
222.669	-12.29
222.887	26.62
223.105	67.58
223.323	20.48
223.541	22.53
223.759	28.67
223.977	24.58
224.195	28.67
224.413	45.06
224.631	38.91
224.849	53.25
225.067	102.4
225.285	43.01
225.503	86.01
225.721	-18.43
225.939	94.21
226.157	55.3
226.375	143.36
226.592	36.86
226.81	-18.43
227.028	69.63
227.246	73.73
227.464	24.58
227.682	12.29
227.9	36.86
228.117	69.63
228.335	40.96
228.553	18.43
228.771	53.25
228.989	124.93
229.206	2.05
229.424	-18.43
229.642	24.58
229.86	10.24
230.077	53.25
230.295	10.24
230.513	65.54
230.731	59.39
230.948	100.35
231.166	55.3
231.384	0
231.601	59.39
231.819	47.1
232.037	26.62
232.254	53.25
232.472	86.01
232.689	10.24
232.907	124.93
233.125	18.43
233.342	20.48
233.56	73.73
233.777	36.86
233.995	-26.62
234.213	16.38
234.43	-26.62
234.648	45.06
234.865	12.29
235.083	-2.05
235.3	30.72
235.518	2.05
235.735	131.07
235.953	143.36
236.17	51.2
236.388	47.1
236.605	2.05
236.822	106.49
237.04	2.05
237.257	45.06
237.475	-49.15
237.692	38.91
237.909	45.06
238.127	-18.43
238.344	59.39
238.562	47.1
238.779	10.24
238.996	-20.48
239.214	6.14
239.431	100.35
239.648	40.96
239.865	83.97
240.083	38.91
240.3	16.38
240.517	-16.38
240.735	47.1
240.952	77.82
241.169	90.11
241.386	145.41
241.603	28.67
241.821	12.29
242.038	77.82
242.255	96.25
242.472	69.63
242.689	38.91
242.907	0
243.124	67.58
243.341	32.77
243.558	106.49
243.775	28.67
243.992	-36.86
244.209	36.86
244.426	178.17
244.643	98.3
244.86	-8.19
245.078	108.54
245.295	71.68
245.512	63.49
245.729	30.72
245.946	75.77
246.163	-18.43
246.38	-6.14
246.597	40.96
246.814	38.91
247.031	43.01
247.248	67.58
247.464	55.3
247.681	-10.24
247.898	57.34
248.115	40.96
248.332	75.77
248.549	53.25
248.766	77.82
248.983	18.43
249.2	4.1
249.417	-14.34
249.633	4.1
249.85	22.53
250.067	34.82
250.284	2.05
250.501	86.01
250.717	88.06
250.934	-49.15
251.151	8.19
251.368	43.01
251.585	88.06
251.801	61.44
252.018	79.87
252.235	63.49
252.451	12.29
252.668	106.49
252.885	94.21
253.102	28.67
253.318	45.06
253.535	36.86
253.752	75.77
253.968	122.88
254.185	45.06
254.401	30.72
254.618	73.73
254.835	88.06
255.051	65.54
255.268	18.43
255.484	10.24
255.701	22.53
255.917	73.73
256.134	-24.58
256.351	104.45
256.567	-10.24
256.784	63.49
257	34.82
257.217	122.88
257.433	45.06
257.65	77.82
257.866	38.91
258.082	47.1
258.299	34.82
258.515	98.3
258.732	-4.1
258.948	30.72
259.165	83.97
259.381	-6.14
259.597	79.87
259.814	88.06
260.03	-34.82
260.246	10.24
260.463	45.06
260.679	28.67
260.895	12.29
261.112	43.01
261.328	-24.58
261.544	-36.86
261.761	71.68
261.977	22.53
262.193	-12.29
262.409	100.35
262.626	83.97
262.842	2.05
263.058	4.1
263.274	51.2
263.49	22.53
263.707	59.39
263.923	-14.34
264.139	34.82
264.355	65.54
264.571	94.21
264.787	43.01
265.004	67.58
265.22	-16.38
265.436	96.25
265.652	-12.29
265.868	75.77
266.084	10.24
266.3	73.73
266.516	38.91
266.732	16.38
266.948	16.38
267.164	49.15
267.38	40.96
267.596	-18.43
267.812	145.41
268.028	43.01
268.244	8.19
268.46	57.34
268.676	8.19
268.892	-6.14
269.108	106.49
269.324	-26.62
269.54	24.58
269.756	18.43
269.972	10.24
270.188	106.49
270.403	36.86
270.619	0
270.835	59.39
271.051	6.14
271.267	12.29
271.483	55.3
271.698	36.86
271.914	90.11
272.13	2.05
272.346	57.34
272.562	30.72
272.777	16.38
272.993	45.06
273.209	47.1
273.425	83.97
273.64	6.14
273.856	75.77
274.072	71.68
274.287	-14.34
274.503	61.44
274.719	53.25
274.934	-40.96
275.15	2.05
275.366	49.15
275.581	26.62
275.797	28.67
276.012	92.16
276.228	18.43
276.444	73.73
276.659	22.53
276.875	-90.11
277.09	110.59
277.306	-6.14
277.521	88.06
277.737	30.72
277.952	38.91
278.168	77.82
278.383	79.87
278.599	53.25
278.814	112.64
279.03	22.53
279.245	49.15
279.461	100.35
279.676	36.86
279.892	-53.25
280.107	-28.67
280.322	47.1
280.538	53.25
280.753	24.58
280.969	-2.05
281.184	8.19
281.399	43.01
281.615	133.12
281.83	81.92
282.045	16.38
282.26	77.82
282.476	4.1
282.691	40.96
282.906	83.97
283.122	16.38
283.337	-8.19
283.552	38.91
283.767	14.34
283.983	65.54
284.198	86.01
284.413	34.82
284.628	4.1
284.843	20.48
285.058	36.86
285.274	61.44
285.489	-6.14
285.704	71.68
285.919	65.54
286.134	20.48
286.349	16.38
286.564	38.91
286.779	120.83
286.995	59.39
287.21	14.34
287.425	45.06
287.64	18.43
287.855	4.1
288.07	-28.67
288.285	108.54
288.5	59.39
288.715	20.48
288.93	14.34
289.145	73.73
289.36	77.82
289.575	63.49
289.79	36.86
290.004	-14.34
290.219	51.2
290.434	-26.62
290.649	43.01
290.864	40.96
291.079	28.67
291.294	34.82
291.509	-14.34
291.724	51.2
291.938	79.87
292.153	26.62
292.368	51.2
292.583	59.39
292.798	32.77
293.012	104.45
293.227	-18.43
293.442	10.24
293.657	55.3
293.871	18.43
294.086	30.72
294.301	65.54
294.516	28.67
294.73	57.34
294.945	4.1
295.16	51.2
295.374	69.63
295.589	22.53
295.804	-45.06
296.018	10.24
296.233	86.01
296.447	53.25
296.662	-18.43
296.877	120.83
297.091	30.72
297.306	28.67
297.52	88.06
297.735	83.97
297.949	-4.1
298.164	129.02
298.378	90.11
298.593	51.2
298.807	30.72
299.022	120.83
299.236	53.25
299.451	4.1
299.665	-30.72
299.88	2.05
300.094	55.3
300.309	63.49
300.523	86.01
300.737	43.01
300.952	61.44
301.166	6.14
301.381	57.34
301.595	2.05
301.809	12.29
302.024	79.87
302.238	79.87
302.452	94.21
302.667	2.05
302.881	104.45
303.095	69.63
303.309	22.53
303.524	40.96
303.738	63.49
303.952	28.67
304.166	57.34
304.381	-6.14
304.595	122.88
304.809	45.06
305.023	43.01
305.237	77.82
305.452	-22.53
305.666	73.73
305.88	102.4
306.094	18.43
306.308	75.77
306.522	2.05
306.736	24.58
306.95	92.16
307.164	32.77
307.379	18.43
307.593	69.63
307.807	28.67
308.021	12.29
308.235	-30.72
308.449	-28.67
308.663	16.38
308.877	147.45
309.091	59.39
309.305	77.82
309.519	-14.34
309.733	2.05
309.947	22.53
310.161	98.3
310.374	108.54
310.588	178.17
310.802	-49.15
311.016	65.54
311.23	-8.19
311.444	-34.82
311.658	-43.01
311.872	-8.19
312.085	47.1
312.299	-16.38
312.513	43.01
312.727	51.2
312.941	-38.91
313.154	36.86
313.368	83.97
313.582	71.68
313.796	34.82
314.009	43.01
314.223	71.68
314.437	122.88
314.651	118.78
314.864	-51.2
315.078	30.72
315.292	-2.05
315.505	63.49
315.719	61.44
315.933	45.06
316.146	36.86
316.36	49.15
316.573	153.6
316.787	67.58
317.001	0
317.214	34.82
317.428	59.39
317.641	61.44
317.855	116.73
318.068	92.16
318.282	32.77
318.495	96.25
318.709	79.87
318.922	67.58
319.136	43.01
319.349	4.1
319.563	55.3
319.776	20.48
319.99	2.05
320.203	79.87
320.417	-20.48
320.63	30.72
320.843	57.34
321.057	43.01
321.27	-6.14
321.483	8.19
321.697	40.96
321.91	18.43
322.124	98.3
322.337	20.48
322.55	6.14
322.763	18.43
322.977	75.77
323.19	38.91
323.403	32.77
323.617	28.67
323.83	51.2
324.043	2.05
324.256	63.49
324.469	-14.34
324.683	34.82
324.896	61.44
325.109	40.96
325.322	45.06
325.535	124.93
325.748	122.88
325.962	51.2
326.175	92.16
326.388	14.34
326.601	22.53
326.814	-28.67
327.027	57.34
327.24	71.68
327.453	30.72
327.666	81.92
327.879	24.58
328.092	51.2
328.305	0
328.518	38.91
328.731	61.44
328.944	67.58
329.157	-22.53
329.37	20.48
329.583	96.25
329.796	28.67
330.009	-47.1
330.222	43.01
330.435	38.91
330.648	63.49
330.861	20.48
331.073	-24.58
331.286	53.25
331.499	0
331.712	12.29
331.925	-12.29
332.138	47.1
332.35	71.68
332.563	20.48
332.776	22.53
332.989	12.29
333.202	51.2
333.414	57.34
333.627	-28.67
333.84	22.53
334.053	61.44
334.265	83.97
334.478	36.86
334.691	79.87
334.903	53.25
335.116	100.35
335.329	0
335.541	24.58
335.754	38.91
335.966	-4.1
336.179	6.14
336.392	36.86
336.604	-2.05
336.817	30.72
337.029	-22.53
337.242	141.31
337.454	26.62
337.667	61.44
337.88	49.15
338.092	47.1
338.305	77.82
338.517	22.53
338.729	67.58
338.942	102.4
339.154	55.3
339.367	14.34
339.579	16.38
339.792	45.06
340.004	51.2
340.217	-45.06
340.429	20.48
340.641	65.54
340.854	81.92
341.066	-51.2
341.278	47.1
341.491	129.02
341.703	53.25
341.915	16.38
342.128	-4.1
342.34	110.59
342.552	40.96
342.764	-18.43
342.977	38.91
343.189	45.06
343.401	47.1
343.613	55.3
343.826	32.77
344.038	57.34
344.25	71.68
344.462	-2.05
344.674	75.77
344.886	6.14
345.099	8.19
345.311	73.73
345.523	30.72
345.735	10.24
345.947	43.01
346.159	88.06
346.371	34.82
346.583	59.39
346.795	98.3
347.007	6.14
347.219	43.01
347.431	22.53
347.643	135.17
347.855	47.1
348.067	92.16
348.279	110.59
348.491	32.77
348.703	45.06
348.915	47.1
349.127	32.77
349.339	69.63
349.551	16.38
349.763	116.73
349.975	77.82
350.187	75.77
350.399	86.01
350.61	106.49
350.822	53.25
351.034	124.93
351.246	49.15
351.458	22.53
351.669	81.92
351.881	38.91
352.093	69.63
352.305	34.82
352.517	71.68
352.728	104.45
352.94	79.87
353.152	18.43
353.363	-22.53
353.575	16.38
353.787	94.21
353.999	96.25
354.21	98.3
354.422	51.2
354.633	51.2
354.845	67.58
355.057	137.21
355.268	116.73
355.48	120.83
355.692	118.78
355.903	73.73
356.115	16.38
356.326	26.62
356.538	67.58
356.749	61.44
356.961	106.49
357.172	38.91
357.384	100.35
357.595	145.41
357.807	34.82
358.018	55.3
358.23	65.54
358.441	94.21
358.653	18.43
358.864	43.01
359.075	32.77
359.287	77.82
359.498	100.35
359.709	43.01
359.921	114.69
360.132	73.73
360.344	4.1
360.555	24.58
360.766	73.73
360.977	8.19
361.189	96.25
361.4	49.15
361.611	86.01
361.823	104.45
362.034	40.96
362.245	-49.15
362.456	75.77
362.667	149.5
362.879	79.87
363.09	47.1
363.301	67.58
363.512	40.96
363.723	55.3
363.935	40.96
364.146	12.29
364.357	47.1
364.568	108.54
364.779	18.43
364.99	131.07
365.201	34.82
365.412	22.53
365.623	47.1
365.834	88.06
366.045	38.91
366.256	69.63
366.467	124.93
366.678	83.97
366.889	22.53
367.1	75.77
367.311	81.92
367.522	59.39
367.733	34.82
367.944	126.97
368.155	49.15
368.366	49.15
368.577	159.74
368.788	79.87
368.999	-2.05
369.209	83.97
369.42	131.07
369.631	51.2
369.842	86.01
370.053	43.01
370.264	20.48
370.474	90.11
370.685	43.01
370.896	12.29
371.107	81.92
371.317	77.82
371.528	104.45
371.739	63.49
371.95	38.91
372.16	30.72
372.371	-32.77
372.582	83.97
372.792	81.92
373.003	55.3
373.214	92.16
373.424	-26.62
373.635	40.96
373.846	67.58
374.056	36.86
374.267	69.63
374.477	22.53
374.688	24.58
374.898	16.38
375.109	116.73
375.319	104.45
375.53	139.26
375.74	96.25
375.951	26.62
376.161	38.91
376.372	71.68
376.582	53.25
376.793	83.97
377.003	-20.48
377.214	40.96
377.424	83.97
377.635	104.45
377.845	28.67
378.055	71.68
378.266	14.34
378.476	135.17
378.686	96.25
378.897	30.72
379.107	2.05
379.317	94.21
379.528	55.3
379.738	77.82
379.948	-30.72
380.158	22.53
380.369	63.49
380.579	57.34
380.789	51.2
380.999	112.64
381.21	86.01
381.42	94.21
381.63	126.97
381.84	83.97
382.05	73.73
382.261	61.44
382.471	59.39
382.681	6.14
382.891	110.59
383.101	67.58
383.311	18.43
383.521	-30.72
383.731	40.96
383.941	53.25
384.151	98.3
384.361	73.73
384.571	100.35
384.781	81.92
384.991	24.58
385.201	110.59
385.411	-10.24
385.621	51.2
385.831	86.01
386.041	16.38
386.251	51.2
386.461	61.44
386.671	53.25
386.881	139.26
387.091	18.43
387.301	65.54
387.511	0
387.72	149.5
387.93	100.35
388.14	73.73
388.35	32.77
388.56	92.16
388.769	77.82
388.979	79.87
389.189	135.17
389.399	108.54
389.609	79.87
389.818	112.64
390.028	106.49
390.238	110.59
390.447	83.97
390.657	53.25
390.867	55.3
391.076	83.97
391.286	75.77
391.496	-32.77
391.705	28.67
391.915	92.16
392.125	32.77
392.334	122.88
392.544	145.41
392.753	92.16
392.963	32.77
393.172	53.25
393.382	114.69
393.591	122.88
393.801	53.25
394.01	94.21
394.22	137.21
394.429	94.21
394.639	-2.05
394.848	96.25
395.058	77.82
395.267	149.5
395.477	106.49
395.686	96.25
395.895	159.74
396.105	165.89
396.314	139.26
396.524	77.82
396.733	75.77
396.942	104.45
397.152	116.73
397.361	90.11
397.57	4.1
397.78	69.63
397.989	71.68
398.198	129.02
398.407	129.02
398.617	108.54
398.826	90.11
399.035	26.62
399.244	118.78
399.453	51.2
399.663	120.83
399.872	141.31
400.081	67.58
400.29	161.79
400.499	124.93
400.708	112.64
400.917	38.91
401.127	108.54
401.336	118.78
401.545	96.25
401.754	147.45
401.963	94.21
402.172	165.89
402.381	22.53
402.59	165.89
402.799	40.96
403.008	198.65
403.217	100.35
403.426	157.69
403.635	131.07
403.844	176.13
404.053	106.49
404.262	131.07
404.471	196.61
404.68	40.96
404.888	176.13
405.097	172.03
405.306	65.54
405.515	149.5
405.724	198.65
405.933	200.7
406.142	219.13
406.35	155.65
406.559	182.27
406.768	153.6
406.977	161.79
407.185	147.45
407.394	202.75
407.603	165.89
407.812	167.93
408.02	311.29
408.229	202.75
408.438	217.08
408.646	282.62
408.855	208.89
409.064	245.76
409.272	204.8
409.481	217.08
409.69	278.52
409.898	262.14
410.107	346.11
410.315	241.66
410.524	288.76
410.733	335.87
410.941	284.67
411.15	339.96
411.358	399.35
411.567	421.88
411.775	327.68
411.984	407.55
412.192	425.98
412.401	380.92
412.609	473.08
412.818	428.03
413.026	491.51
413.234	460.79
413.443	475.13
413.651	471.03
413.86	557.05
414.068	526.33
414.276	581.62
414.485	493.56
414.693	708.6
414.901	657.4
415.11	673.78
415.318	661.49
415.526	665.59
415.734	727.03
415.943	753.65
416.151	821.24
416.359	667.64
416.567	718.84
416.776	815.09
416.984	888.82
417.192	890.87
417.4	880.63
417.608	831.48
417.817	978.93
418.025	1079.28
418.233	1140.72
418.441	1019.89
418.649	1155.05
418.857	1236.97
419.065	1200.11
419.273	1179.63
419.481	1300.46
419.689	1314.8
419.897	1353.71
420.105	1415.15
420.313	1421.29
420.521	1529.83
420.729	1392.62
420.937	1566.7
421.145	1560.55
421.353	1712.1
421.561	1699.81
421.769	1859.56
421.977	1918.95
422.185	1849.32
422.393	2009.06
422.601	2095.07
422.809	2099.17
423.017	2043.87
423.224	2256.86
423.432	2156.51
423.64	2387.93
423.848	2537.43
424.056	2506.71
424.263	2674.65
424.471	2578.39
424.679	2672.6
424.887	2818.01
425.094	2869.2
425.302	2992.08
425.51	2965.46
425.718	3155.92
425.925	3178.45
426.133	3262.41
426.341	3401.68
426.548	3639.24
426.756	3604.43
426.964	3579.85
427.171	3903.43
427.379	3958.72
427.586	4059.07
427.794	4276.16
428.001	4345.79
428.209	4476.86
428.417	4454.33
428.624	4732.86
428.832	4728.76
429.039	4759.48
429.247	4489.15
429.454	5353.39
429.662	5511.08
429.869	5185.46
430.076	5570.48
430.284	5435.31
430.491	5642.15
430.699	5842.85
430.906	5975.97
431.114	6010.79
431.321	6188.96
431.528	6477.73
431.736	6864.79
431.943	7163.79
432.15	6733.72
432.358	6936.47
432.565	7241.62
432.772	7335.82
432.979	7602.06
433.187	7944.07
433.394	7923.59
433.601	8302.47
433.808	8351.62
434.016	8531.84
434.223	8689.53
434.43	9084.79
434.637	8906.62
434.844	9539.44
435.052	9901.93
435.259	9799.53
435.466	9842.54
435.673	9613.17
435.88	10325.86
436.087	10846.04
436.294	10864.47
436.501	10381.15
436.708	11005.78
436.915	11186.01
437.122	11499.34
437.329	11716.43
437.537	12132.17
437.743	12437.31
437.95	12152.65
438.157	12627.78
438.364	13373.24
438.571	13305.65
438.778	13303.6
438.985	14425.89
439.192	14235.43
439.399	14329.64
439.606	14214.95
439.813	14800.67
440.02	15496.98
440.227	15466.26
440.433	15394.58
440.64	15476.5
440.847	15599.38
441.054	16080.65
441.261	17106.68
441.467	16916.22
441.674	17454.84
441.881	18130.67
442.088	17819.38
442.294	17950.45
442.501	18472.68
442.708	18611.94
442.914	19357.4
443.121	20051.66
443.328	19656.4
443.534	21319.35
443.741	20428.49
443.948	20156.11
444.154	21677.75
444.361	21483.19
444.568	21731
444.774	21665.46
444.981	22009.52
445.187	22644.39
445.394	23291.55
445.6	23049.89
445.807	25157.25
446.013	24544.91
446.22	24934.02
446.426	25783.93
446.633	26021.49
446.839	26879.59
447.046	25591.42
447.252	27078.24
447.459	27174.5
447.665	27000.42
447.871	28243.54
448.078	29806.14
448.284	28159.57
448.491	28792.39
448.697	30088.76
448.903	30496.3
449.11	30711.34
449.316	30316.08
449.522	30946.86
449.728	31411.74
449.935	31438.37
450.141	31942.17
450.347	32302.61
450.553	31512.1
450.76	31868.44
450.966	33091.08
451.172	32484.88
451.378	33629.69
451.584	32708.11
451.791	33920.51
451.997	33185.29
452.203	33601.02
452.409	33895.93
452.615	33695.23
452.821	32740.88
453.027	32441.87
453.233	33900.03
453.44	32775.69
453.646	32980.49
453.852	33082.89
454.058	33416.71
454.264	32658.96
454.47	33287.68
454.676	32093.72
454.882	33846.78
455.088	30598.7
455.294	31155.75
455.5	31270.43
455.705	31606.3
455.911	30588.46
456.117	29990.45
456.323	29724.22
456.529	28407.37
456.735	29111.88
456.941	28831.3
457.147	27840.09
457.352	27219.55
457.558	26889.83
457.764	26492.52
457.97	26662.51
458.176	25515.64
458.381	25929.33
458.587	24481.42
458.793	24618.63
458.999	23080.61
459.204	25007.75
459.41	24319.63
459.616	22722.21
459.821	22361.77
460.027	22689.45
460.233	22212.27
460.438	21163.71
460.644	20920
460.85	20254.41
461.055	20068.05
461.261	20072.14
461.466	18444.01
461.672	17993.45
461.878	19042.01
462.083	17942.25
462.289	17594.1
462.494	17399.54
462.7	16647.94
462.905	16068.36
463.111	16733.95
463.316	16953.09
463.522	16230.15
463.727	16434.95
463.932	16520.96
464.138	16305.93
464.343	16316.17
464.549	15808.27
464.754	16437
464.959	16076.55
465.165	16084.75
465.37	15400.73
465.575	15216.41
465.781	15673.1
465.986	15669.01
466.191	15189.78
466.397	14894.88
466.602	14022.44
466.807	14675.74
467.012	14685.98
467.218	14843.68
467.423	14272.29
467.628	14751.52
467.833	14866.21
468.038	14393.12
468.244	14055.21
468.449	14837.53
468.654	14257.96
468.859	14173.99
469.064	14077.74
469.269	13469.49
469.474	13473.59
469.679	13944.62
469.885	13522.74
470.09	13532.98
470.295	13522.74
470.5	13037.37
470.705	13373.24
470.91	12932.92
471.115	13068.09
471.32	13260.6
471.525	12967.74
471.73	12810.04
471.935	12783.42
472.139	12283.72
472.344	12377.92
472.549	12117.83
472.754	12126.02
472.959	11880.27
473.164	11786.06
473.369	11437.91
473.574	12031.82
473.778	11757.39
473.983	11734.86
474.188	11630.41
474.393	11161.43
474.598	11089.75
474.802	11245.4
475.007	10927.96
475.212	11067.22
475.417	10559.33
475.621	10577.76
475.826	10626.91
476.031	10399.59
476.235	10268.52
476.44	10485.6
476.645	10114.92
476.849	10274.66
477.054	9961.32
477.259	10237.8
477.463	9815.91
477.668	9809.77
477.872	9705.32
478.077	9594.73
478.282	9418.61
478.486	9447.28
478.691	9222
478.895	9340.79
479.1	9262.96
479.304	9127.8
479.509	8902.52
479.713	9049.97
479.918	8935.29
480.122	8832.89
480.326	9092.98
480.531	9019.25
480.735	8759.16
480.94	8578.94
481.144	8923
481.348	8564.61
481.553	8644.48
481.757	8382.34
481.961	8695.68
482.166	8882.04
482.37	8683.39
482.574	8527.74
482.778	8494.97
482.983	8642.43
483.187	8458.11
483.391	8540.03
483.595	8513.41
483.8	8517.5
484.004	8507.26
484.208	8531.84
484.412	8685.44
484.616	8619.9
484.821	8515.45
485.025	8513.41
485.229	8423.3
485.433	8456.06
485.637	8345.47
485.841	8331.14
486.045	8476.54
486.249	8585.08
486.453	8238.98
486.657	8636.28
486.861	8515.45
487.065	8265.6
487.269	8466.3
487.473	8357.76
487.677	8462.21
487.881	8662.91
488.085	8423.3
488.289	8556.41
488.493	8568.7
488.697	8769.4
488.901	8562.56
489.105	8716.15
489.309	8628.09
489.512	8595.32
489.716	8624
489.92	8513.41
490.124	8341.38
490.328	8675.2
490.531	8718.2
490.735	8707.96
490.939	8824.7
491.143	8722.3
491.346	8748.92
491.55	8822.65
491.754	8775.55
491.958	8865.66
492.161	8861.56
492.365	9037.69
492.569	8882.04
492.772	9006.97
492.976	8929.14
493.18	9113.46
493.383	9222
493.587	9174.9
493.79	9183.09
493.994	9277.3
494.197	9322.35
494.401	9361.27
494.605	9326.45
494.808	9645.93
495.012	9623.41
495.215	9469.81
495.419	9670.51
495.622	9490.29
495.825	9801.58
496.029	9912.17
496.232	9914.22
496.436	9846.63
496.639	10209.12
496.843	10127.21
497.046	10260.32
497.249	10467.17
497.453	10590.05
497.656	10706.78
497.859	10690.4
498.063	10850.14
498.266	10837.85
498.469	11005.78
498.673	10927.96
498.876	11099.99
499.079	11394.9
499.282	11587.41
499.485	11513.68
499.689	11546.45
499.892	11986.76
500.095	12058.44
500.298	12271.43
500.501	12224.33
500.705	12316.48
500.908	12496.71
501.111	12650.3
501.314	12838.72
501.517	12859.2
501.72	13037.37
501.923	12691.26
502.126	13369.14
502.329	13592.37
502.532	13410.1
502.735	13618.99
502.938	13897.52
503.141	13676.34
503.344	14165.8
503.547	14073.64
503.75	14532.39
503.953	14554.91
504.156	14806.81
504.359	14731.04
504.562	14829.34
504.765	15175.45
504.968	15290.13
505.17	15261.46
505.373	15662.86
505.576	15712.02
505.779	16115.47
505.982	16080.65
506.185	16297.74
506.387	16361.22
506.59	16566.02
506.793	16881.41
506.996	16684.8
507.198	17135.35
507.401	17051.39
507.604	17508.08
507.807	17837.81
508.009	17751.79
508.212	17876.72
508.415	18298.6
508.617	18208.49
508.82	18466.53
509.022	18360.04
509.225	18925.28
509.428	18962.14
509.63	19099.36
509.833	19037.92
510.035	19814.1
510.238	19322.59
510.44	19918.54
510.643	20186.83
510.845	20092.62
511.048	20123.34
511.25	20627.14
511.453	20551.37
511.655	21262.01
511.858	21173.95
512.06	21448.38
512.262	21278.4
512.465	21415.61
512.667	21839.54
512.87	22019.76
513.072	22007.47
513.274	22511.27
513.477	22623.91
513.679	22701.73
513.881	22990.5
514.084	23373.47
514.286	23160.48
514.488	23520.92
514.69	24301.2
514.893	24186.51
515.095	24286.86
515.297	24270.48
515.499	24786.57
515.701	24825.48
515.904	25296.51
516.106	25093.76
516.308	25509.5
516.51	25581.18
516.712	25990.77
516.914	25992.82
517.116	26613.35
517.318	26494.57
517.52	26570.35
517.722	26850.92
517.925	27338.33
518.127	27526.75
518.329	27594.33
518.531	27549.28
518.733	28071.51
518.935	28356.18
519.136	28231.25
519.338	28747.34
519.54	29032.01
519.742	28993.09
519.944	29140.55
520.146	29734.46
520.348	29808.19
520.55	30215.73
520.752	29986.36
520.954	30574.13
521.155	30139.96
521.357	30916.14
521.559	31020.58
521.761	31407.65
521.963	31475.23
522.164	31602.21
522.366	31438.37
522.568	31591.97
522.77	32200.21
522.971	32411.15
523.173	32114.2
523.375	32470.54
523.576	32587.28
523.778	32892.43
523.98	33277.44
524.181	33289.73
524.383	33316.36
524.584	33701.37
524.786	33633.79
524.988	33803.77
525.189	34047.48
525.391	34110.97
525.592	34504.18
525.794	34313.72
525.995	34784.75
526.197	34452.98
526.398	34801.13
526.6	34969.07
526.801	35317.22
527.003	35317.22
527.204	35370.47
527.406	35644.9
527.607	35395.04
527.808	35894.75
528.01	35493.35
528.211	35759.58
528.412	36052.44
528.614	36304.34
528.815	36144.6
529.016	36486.61
529.218	36031.96
529.419	36296.15
529.62	36177.37
529.822	36390.36
530.023	36453.84
530.224	36160.98
530.425	36586.96
530.626	35847.64
530.828	36093.4
531.029	36969.93
531.23	36632.02
531.431	36394.45
531.632	36644.3
531.833	37010.89
532.035	36711.89
532.236	37383.62
532.437	37115.34
532.638	36685.26
532.839	37004.75
533.04	37266.89
533.241	36947.4
533.442	37774.78
533.643	37537.22
533.844	36945.36
534.045	37291.46
534.246	36808.14
534.447	37375.43
534.648	37195.21
534.849	37144.01
535.05	37037.51
535.251	37291.46
535.451	37201.35
535.652	37803.46
535.853	37381.57
536.054	37379.53
536.255	37361.09
536.456	36978.12
536.657	37418.44
536.857	37483.97
537.058	36746.7
537.259	37316.04
537.46	37428.68
537.66	37227.98
537.861	37309.89
538.062	37129.67
538.263	37381.57
538.463	36953.55
538.664	37404.1
538.865	37150.15
539.065	37606.85
539.266	37137.87
539.466	37324.23
539.667	36816.33
539.868	37561.79
540.068	37621.19
540.269	37092.81
540.469	37463.49
540.67	37258.7
540.87	37184.97
541.071	37055.95
541.271	37303.75
541.472	37250.5
541.672	36949.45
541.873	36963.79
542.073	36924.88
542.274	37453.25
542.474	37000.65
542.675	36777.42
542.875	37631.43
543.075	37101
543.276	36689.36
543.476	37250.5
543.676	37318.09
543.877	37115.34
544.077	37146.06
544.277	36853.2
544.478	36937.16
544.678	37213.64
544.878	36720.08
545.078	36765.14
545.279	36591.06
545.479	36863.44
545.679	36750.8
545.879	36984.27
546.079	36933.07
546.28	36941.26
546.48	36619.73
546.68	37156.3
546.88	36869.58
547.08	36836.81
547.28	37021.13
547.48	36578.77
547.68	36914.64
547.88	36619.73
548.081	37057.99
548.281	37021.13
548.481	36527.57
548.681	37115.34
548.881	36859.34
549.081	36388.31
549.28	36672.98
549.48	36945.36
549.68	36734.42
549.88	36924.88
550.08	36636.11
550.28	36648.4
550.48	36795.85
550.68	36779.47
550.88	36636.11
551.08	36779.47
551.279	36574.67
551.479	36496.85
551.679	36425.17
551.879	36615.63
552.079	37004.75
552.278	36445.65
552.478	36541.91
552.678	36603.35
552.878	36715.98
553.077	36408.79
553.277	36357.59
553.477	36955.6
553.676	36451.8
553.876	36357.59
554.076	36001.24
554.275	36632.02
554.475	36179.42
554.674	36623.83
554.874	36410.84
555.074	35995.1
555.273	36556.24
555.473	36103.64
555.672	36201.94
555.872	35659.23
556.071	36107.74
556.271	36337.11
556.47	35800.54
556.67	35933.66
556.869	35923.42
557.068	36441.56
557.268	35896.8
557.467	35825.12
557.667	36001.24
557.866	35608.03
558.065	36089.31
558.265	35849.69
558.464	35352.04
558.663	36042.2
558.863	35243.49
559.062	36066.78
559.261	35237.35
559.461	35833.31
559.66	35225.06
559.859	35581.41
560.058	35139.05
560.258	35364.32
560.457	35085.8
560.656	35374.56
560.855	34680.3
561.054	35503.59
561.253	34737.65
561.453	35065.32
561.652	35087.85
561.851	35325.41
562.05	34639.34
562.249	34776.56
562.448	35016.17
562.647	34702.83
562.846	34520.56
563.045	34522.61
563.244	34557.42
563.443	34813.42
563.642	34129.4
563.841	34692.59
564.04	34086.39
564.239	34592.24
564.438	34170.36
564.637	34244.09
564.836	34129.4
565.035	34268.66
565.234	34227.7
565.432	33936.89
565.631	33398.27
565.83	33756.67
566.029	33711.61
566.228	33732.09
566.427	33674.75
566.625	33373.7
566.824	33113.61
567.023	33607.17
567.222	32765.45
567.42	33519.1
567.619	33533.44
567.818	33220.1
568.016	33056.26
568.215	33486.34
568.414	33179.14
568.612	33189.38
568.811	32865.8
569.01	32861.71
569.208	32894.47
569.407	32876.04
569.605	32501.26
569.804	32658.96
570.002	32335.38
570.201	32691.73
570.4	32003.61
570.598	32314.9
570.797	32112.15
570.995	32009.75
571.193	32101.91
571.392	32423.44
571.59	32069.14
571.789	31729.18
571.987	31901.21
572.186	31716.89
572.384	31673.88
572.582	31696.41
572.781	31757.85
572.979	31323.68
573.177	31563.29
573.376	31182.37
573.574	31051.3
573.772	31481.38
573.971	31252
574.169	30852.65
574.367	30764.59
574.565	31051.3
574.763	30783.02
574.962	30479.92
575.16	30352.94
575.358	30815.79
575.556	30172.72
575.754	30780.97
575.952	30322.23
576.151	30586.41
576.349	30162.48
576.547	30062.13
576.745	30174.77
576.943	29969.97
577.141	30178.87
577.339	30103.09
577.537	29898.3
577.735	29675.07
577.933	29666.88
578.131	29972.02
578.329	29640.25
578.527	29312.58
578.725	29204.03
578.923	29832.76
579.121	29138.5
579.319	29046.34
579.516	29644.35
579.714	29423.17
579.912	28790.34
580.11	28978.76
580.308	28872.26
580.506	28812.87
580.704	28536.4
580.901	28694.09
581.099	28995.14
581.297	28313.17
581.495	28411.47
581.692	28644.94
581.89	28264.02
582.088	28327.5
582.285	27854.42
582.483	28403.28
582.681	28249.68
582.878	27952.73
583.076	27885.14
583.274	28081.75
583.471	27530.84
583.669	27752.02
583.866	27502.17
584.064	27569.76
584.262	27426.4
584.459	27563.61
584.657	27358.81
584.854	27356.77
585.052	26730.09
585.249	27330.14
585.447	26732.14
585.644	26496.62
585.841	27104.87
586.039	27424.35
586.236	26658.41
586.434	26795.62
586.631	26463.85
586.828	26498.67
587.026	26631.79
587.223	26322.54
587.42	26230.38
587.618	26308.21
587.815	26304.11
588.012	26115.7
588.21	26056.31
588.407	26240.62
588.604	26242.67
588.801	25882.23
588.999	25802.36
589.196	25544.31
589.393	25726.58
589.59	25575.03
589.787	25044.61
589.984	25345.66
590.182	25202.3
590.379	25263.74
590.576	25185.92
590.773	25024.13
590.97	24876.68
591.167	25108.1
591.364	24813.19
591.561	25099.9
591.758	24721.03
591.955	24891.01
592.152	25020.03
592.349	24585.86
592.546	24823.43
592.743	24460.94
592.94	24139.41
593.137	24387.21
593.334	24651.4
593.531	23834.26
593.727	24358.54
593.924	23981.71
594.121	24116.88
594.318	23930.51
594.515	23461.53
594.712	23961.23
594.908	23850.64
595.105	23770.77
595.302	23604.89
595.499	23606.94
595.696	23418.52
595.892	23211.68
596.089	23469.72
596.286	23381.66
596.482	23320.22
596.679	23281.31
596.876	23275.16
597.072	23168.67
597.269	23107.23
597.466	23027.36
597.662	22691.49
597.859	22707.88
598.055	22945.44
598.252	22531.75
598.448	22478.51
598.645	22363.82
598.841	22687.4
599.038	22263.47
599.234	22722.21
599.431	22466.22
599.627	22034.1
599.824	22320.81
600.02	22083.25
600.217	22015.66
600.413	21935.79
600.609	21704.37
600.806	21825.2
601.002	21808.82
601.198	21948.08
601.395	21489.34
601.591	21669.56
601.787	21501.62
601.984	21427.9
602.18	21581.49
602.376	21276.35
602.572	21145.28
602.769	21180.09
602.965	20874.95
603.161	20833.99
603.357	20905.67
603.553	20983.49
603.75	20903.62
603.946	20641.48
604.142	21014.21
604.338	20545.22
604.534	20461.26
604.73	20262.6
604.926	20489.93
605.122	20610.76
605.318	20346.57
605.514	20252.36
605.71	20078.29
605.906	20530.89
606.102	20070.09
606.298	19924.69
606.494	20006.61
606.69	19941.07
606.886	20221.64
607.082	19871.44
607.278	19906.26
607.474	19762.9
607.67	19689.17
607.866	19472.09
608.062	19707.6
608.257	19519.19
608.453	19504.85
608.649	19801.81
608.845	19545.81
609.041	19525.33
609.236	19295.96
609.432	19556.05
609.628	19433.18
609.824	19511
610.019	19066.59
610.215	19191.52
610.411	19474.13
610.606	19320.54
610.802	19203.8
610.998	18960.09
611.193	19058.4
611.389	19117.79
611.584	18857.7
611.78	19011.29
611.976	18792.16
612.171	18884.32
612.367	19019.49
612.562	18677.48
612.758	18339.56
612.953	18398.95
613.149	18915.04
613.344	18527.97
613.539	18679.52
613.735	18509.54
613.93	18476.77
614.126	18441.96
614.321	18738.91
614.517	18593.51
614.712	18458.34
614.907	18132.72
615.103	18319.08
615.298	18286.31
615.493	18167.53
615.688	18069.23
615.884	18366.18
616.079	17788.66
616.274	18491.11
616.47	18276.07
616.665	18245.35
616.86	18065.13
617.055	17979.12
617.25	17950.45
617.445	17932.01
617.641	17659.63
617.836	17686.26
618.031	17450.74
618.226	17915.63
618.421	17612.53
618.616	17503.99
618.811	17411.83
619.006	17647.35
619.201	17012.48
619.396	17147.64
619.591	16783.1
619.786	17204.99
619.981	17247.99
620.176	17110.78
620.371	16637.7
620.566	17020.67
620.761	16860.93
620.956	16883.45
621.151	16527.11
621.346	16437
621.541	16471.81
621.735	16338.69
621.93	16277.26
622.125	16457.48
622.32	16183.05
622.515	16242.44
622.709	16015.12
622.904	15892.24
623.099	15658.77
623.294	15974.16
623.488	15898.38
623.683	15630.1
623.878	15341.33
624.072	15535.89
624.267	15570.71
624.462	15259.42
624.656	15177.5
624.851	15081.24
625.046	14970.65
625.24	14909.21
625.435	14896.92
625.629	14810.91
625.824	14694.18
626.018	14638.88
626.213	14276.39
626.407	14757.66
626.602	14606.11
626.796	14673.7
626.991	14649.12
627.185	14122.79
627.38	14075.69
627.574	14090.02
627.768	13958.95
627.963	13864.75
628.157	13539.12
628.352	13723.44
628.546	13432.63
628.74	13979.43
628.935	13238.07
629.129	13582.13
629.323	13358.9
629.517	13313.84
629.712	13272.89
629.906	13412.15
630.1	13100.86
630.294	13262.65
630.489	12924.73
630.683	13102.9
630.877	12928.83
631.071	12676.93
631.265	12777.28
631.459	12625.73
631.653	12595.01
631.848	12576.58
632.042	12336.96
632.236	12412.74
632.43	12463.94
632.624	12179.27
632.818	12304.2
633.012	12277.57
633.206	12126.02
633.4	12064.58
633.594	11792.2
633.788	11978.57
633.982	11835.21
634.176	11861.83
634.369	11841.36
634.563	11695.95
634.757	11706.19
634.951	11446.1
635.145	11761.48
635.339	11325.27
635.533	11339.6
635.726	11497.3
635.92	11130.71
636.114	11378.51
636.308	11175.77
636.501	11050.84
636.695	11253.59
636.889	10968.92
637.083	10932.06
637.276	10854.23
637.47	10784.6
637.664	10637.15
637.857	10794.84
638.051	10727.26
638.244	10620.77
638.438	10493.79
638.632	10409.83
638.825	10387.3
639.019	10456.93
639.212	10282.85
639.406	10397.54
639.599	10114.92
639.793	10334.05
639.986	10149.73
640.18	10155.88
640.373	9854.83
640.567	9805.67
640.76	9949.03
640.954	9783.15
641.147	9572.21
641.34	9680.75
641.534	9844.59
641.727	9670.51
641.92	9774.95
642.114	9420.66
642.307	9637.74
642.5	9412.46
642.694	9553.77
642.887	9269.11
643.08	9506.67
643.273	9342.83
643.467	9330.55
643.66	9095.03
643.853	9232.24
644.046	9002.87
644.239	9107.32
644.432	8955.77
644.626	8875.9
644.819	8732.54
645.012	8716.15
645.205	8898.42
645.398	8783.74
645.591	8611.71
645.784	8560.51
645.977	8509.31
646.17	8689.53
646.363	8662.91
646.556	8302.47
646.749	8628.09
646.942	8298.37
647.135	8503.17
647.328	8456.06
647.521	8456.06
647.714	8249.22
647.907	8120.2
648.099	8028.04
648.292	8241.03
648.485	8122.24
648.678	8175.49
648.871	7944.07
649.064	7899.02
649.256	7839.62
649.449	7800.71
649.642	7872.39
649.835	7929.73
650.027	7722.89
650.22	7743.37
650.413	7587.72
650.605	7753.61
650.798	7518.09
650.991	7460.75
651.183	7323.54
651.376	7423.89
651.568	7534.48
651.761	7319.44
651.954	7217.04
652.146	7325.58
652.339	7378.83
652.531	7210.9
652.724	6940.57
652.916	6926.23
653.109	7139.22
653.301	7116.69
653.494	7002.01
653.686	6936.47
653.879	7053.2
654.071	7022.48
654.263	6821.78
654.456	6961.05
654.648	6940.57
654.84	6739.87
655.033	6614.94
655.225	6653.85
655.417	6637.47
655.61	6758.3
655.802	6645.66
655.994	6641.56
656.186	6612.89
656.379	6569.88
656.571	6457.25
656.763	6389.66
656.955	6313.89
657.148	6399.9
657.34	6451.1
657.532	6236.06
657.724	6182.82
657.916	6281.12
658.108	6346.66
658.3	6221.73
658.492	6266.78
658.684	6031.27
658.876	6049.7
659.068	5873.57
659.26	6033.32
659.452	6041.51
659.644	6055.84
659.836	5916.58
660.028	5973.92
660.22	5791.66
660.412	5724.07
660.604	5785.51
660.796	5910.44
660.988	5906.34
661.18	5771.18
661.372	5644.2
661.563	5701.55
661.755	5517.23
661.947	5779.37
662.139	5599.15
662.331	5629.87
662.522	5623.72
662.714	5461.93
662.906	5429.17
663.097	5394.35
663.289	5396.4
663.481	5380.01
663.673	5523.37
663.864	5377.97
664.056	5386.16
664.247	5361.58
664.439	5289.9
664.631	5314.48
664.822	5246.9
665.014	5214.13
665.205	5320.62
665.397	5207.98
665.588	5271.47
665.78	5048.24
665.971	5058.48
666.163	5007.28
666.354	4980.66
666.546	5029.81
666.737	4997.04
666.929	5015.48
667.12	4941.75
667.311	4911.03
667.503	4771.77
667.694	4974.52
667.885	4865.97
668.077	4933.56
668.268	4851.64
668.459	4788.15
668.651	4847.54
668.842	4663.22
669.033	4652.99
669.224	4806.58
669.416	4747.19
669.607	4655.03
669.798	4726.71
669.989	4732.86
670.18	4620.22
670.371	4698.04
670.563	4640.7
670.754	4626.36
670.945	4722.62
671.136	4546.49
671.327	4556.73
671.518	4562.87
671.709	4450.24
671.9	4507.58
672.091	4501.44
672.282	4632.51
672.473	4403.13
672.664	4468.67
672.855	4292.54
673.046	4308.93
673.237	4483
673.428	4343.74
673.619	4376.51
673.809	4382.65
674	4229.06
674.191	4349.89
674.382	4304.83
674.573	4302.78
674.764	4261.82
674.954	4458.43
675.145	4167.62
675.336	4327.36
675.527	4202.43
675.717	4243.39
675.908	4038.59
676.099	4224.96
676.289	4198.34
676.48	4116.42
676.671	4095.94
676.861	4114.37
677.052	4157.38
677.243	4130.75
677.433	4171.71
677.624	4227.01
677.814	4034.5
678.005	4087.75
678.195	4140.99
678.386	4024.26
678.576	4114.37
678.767	4200.38
678.957	3854.28
679.148	4177.86
679.338	4046.79
679.529	3950.53
679.719	3903.43
679.909	3911.62
680.1	3897.28
680.29	4048.83
680.481	3934.15
680.671	4040.64
680.861	3944.39
681.052	4030.4
681.242	3850.18
681.432	4001.73
681.622	3995.59
681.813	3985.35
682.003	3866.57
682.193	3829.7
682.383	3891.14
682.573	3942.34
682.764	3905.48
682.954	3971.01
683.144	3878.85
683.334	3809.22
683.524	3839.94
683.714	3887.04
683.904	3715.02
684.094	3870.66
684.284	3864.52
684.474	3981.25
684.664	3755.97
684.854	3801.03
685.044	3891.14
685.234	3737.54
685.424	3715.02
685.614	3719.11
685.804	3768.26
685.994	3858.37
686.184	3715.02
686.374	3612.62
686.564	3700.68
686.753	3639.24
686.943	3612.62
687.133	3559.37
687.323	3575.75
687.513	3577.8
687.702	3690.44
687.892	3680.2
688.082	3542.99
688.272	3538.89
688.461	3545.03
688.651	3633.1
688.841	3585.99
689.03	3397.58
689.22	3495.88
689.41	3430.35
689.599	3465.16
689.789	3366.86
689.979	3409.87
690.168	3368.91
690.358	3319.76
690.547	3387.34
690.737	3393.48
690.926	3291.09
691.116	3332.05
691.305	3297.23
691.495	3317.71
691.684	3272.65
691.874	3172.3
692.063	3256.27
692.252	3338.19
692.442	3323.85
692.631	3141.58
692.82	3102.67
693.01	3188.69
693.199	3225.55
693.388	2992.08
693.578	3065.81
693.767	3102.67
693.956	2961.36
694.146	3100.62
694.335	2932.69
694.524	3137.49
694.713	3076.05
694.902	2944.98
695.092	2983.89
695.281	3016.66
695.47	2996.18
695.659	2981.84
695.848	2846.68
696.037	3061.71
696.226	2916.31
696.415	2881.49
696.604	2863.06
696.793	2940.88
696.982	2930.64
697.171	3022.8
697.36	2834.39
697.549	2754.52
697.738	2938.84
697.927	2691.03
698.116	2926.55
698.305	2795.48
698.494	2772.95
698.683	2871.25
698.872	2801.62
699.061	2760.66
699.25	2797.53
699.438	2777.05
699.627	2715.61
699.816	2830.29
700.005	2699.22
700.193	2785.24
700.382	2852.82
700.571	2736.09
700.76	2813.91
700.948	2807.77
701.137	2815.96
701.326	2795.48
701.514	2844.63
701.703	2893.78
701.892	2660.31
702.08	2738.13
702.269	2662.36
702.457	2643.93
702.646	2740.18
702.834	2844.63
703.023	2799.57
703.212	2666.46
703.4	2621.4
703.589	2680.79
703.777	2654.17
703.965	2740.18
704.154	2721.75
704.342	2736.09
704.531	2670.55
704.719	2639.83
704.907	2758.61
705.096	2643.93
705.284	2762.71
705.472	2830.29
705.661	2666.46
705.849	2623.45
706.037	2648.02
706.226	2766.81
706.414	2686.94
706.602	2658.26
706.79	2688.98
706.979	2672.6
707.167	2858.96
707.355	2668.5
707.543	2641.88
707.731	2695.13
707.919	2609.11
708.107	2574.3
708.296	2701.27
708.484	2541.53
708.672	2758.61
708.86	2570.2
709.048	2703.32
709.236	2521.05
709.424	2621.4
709.612	2654.17
709.8	2543.58
709.988	2582.49
710.176	2582.49
710.364	2654.17
710.551	2656.22
710.739	2615.26
710.927	2564.06
711.115	2592.73
711.303	2650.07
711.491	2639.83
711.679	2545.63
711.866	2660.31
712.054	2613.21
712.242	2592.73
712.43	2658.26
712.617	2557.91
712.805	2678.74
712.993	2594.78
713.181	2492.38
713.368	2557.91
713.556	2731.99
713.744	2578.39
713.931	2668.5
714.119	2588.63
714.306	2662.36
714.494	2566.1
714.682	2607.06
714.869	2672.6
715.057	2539.48
715.244	2607.06
715.432	2514.91
715.619	2586.58
715.807	2506.71
715.994	2629.59
716.182	2568.15
716.369	2590.68
716.556	2746.33
716.744	2553.82
716.931	2555.86
717.119	2648.02
717.306	2625.5
717.493	2574.3
717.681	2652.12
717.868	2512.86
718.055	2617.3
718.242	2420.7
718.43	2666.46
718.617	2629.59
718.804	2625.5
718.991	2553.82
719.179	2648.02
719.366	2543.58
719.553	2576.34
719.74	2586.58
719.927	2650.07
720.114	2574.3
720.301	2482.14
720.488	2645.98
720.676	2566.1
720.863	2580.44
721.05	2652.12
721.237	2598.87
721.424	2627.54
721.611	2521.05
721.798	2500.57
721.985	2494.43
722.172	2500.57
722.358	2471.9
722.545	2443.23
722.732	2611.16
722.919	2586.58
723.106	2535.39
723.293	2586.58
723.48	2668.5
723.667	2467.8
723.853	2633.69
724.04	2506.71
724.227	2531.29
724.414	2688.98
724.6	2498.52
724.787	2580.44
724.974	2590.68
725.161	2553.82
725.347	2404.32
725.534	2578.39
725.72	2578.39
725.907	2519
726.094	2588.63
726.28	2519
726.467	2457.56
726.653	2559.96
726.84	2619.35
727.027	2693.08
727.213	2519
727.4	2598.87
727.586	2590.68
727.773	2469.85
727.959	2533.34
728.145	2572.25
728.332	2475.99
728.518	2478.04
728.705	2514.91
728.891	2613.21
729.077	2701.27
729.264	2607.06
729.45	2662.36
729.636	2670.55
729.823	2621.4
730.009	2643.93
730.195	2582.49
730.382	2521.05
730.568	2496.47
730.754	2568.15
730.94	2480.09
731.126	2625.5
731.313	2705.37
731.499	2619.35
731.685	2566.1
731.871	2615.26
732.057	2541.53
732.243	2611.16
732.429	2590.68
732.615	2547.67
732.801	2650.07
732.987	2590.68
733.173	2594.78
733.359	2461.66
733.545	2527.19
733.731	2617.3
733.917	2496.47
734.103	2731.99
734.289	2596.82
734.475	2621.4
734.661	2709.46
734.847	2666.46
735.033	2529.24
735.219	2641.88
735.404	2670.55
735.59	2635.74
735.776	2553.82
735.962	2486.23
736.148	2562.01
736.333	2572.25
736.519	2668.5
736.705	2615.26
736.89	2564.06
737.076	2680.79
737.262	2527.19
737.447	2611.16
737.633	2562.01
737.819	2586.58
738.004	2527.19
738.19	2568.15
738.375	2613.21
738.561	2648.02
738.747	2623.45
738.932	2652.12
739.118	2787.29
739.303	2574.3
739.489	2635.74
739.674	2473.95
739.859	2461.66
740.045	2621.4
740.23	2607.06
740.416	2588.63
740.601	2504.67
740.786	2512.86
740.972	2543.58
741.157	2598.87
741.342	2418.65
741.528	2617.3
741.713	2676.7
741.898	2564.06
742.084	2496.47
742.269	2535.39
742.454	2562.01
742.639	2584.54
742.824	2414.56
743.01	2605.02
743.195	2492.38
743.38	2488.28
743.565	2469.85
743.75	2490.33
743.935	2508.76
744.12	2525.15
744.305	2510.81
744.49	2363.36
744.675	2557.91
744.86	2578.39
745.045	2365.4
745.23	2492.38
745.415	2408.41
745.6	2408.41
745.785	2357.21
745.97	2416.6
746.155	2467.8
746.34	2392.03
746.525	2387.93
746.71	2443.23
746.895	2357.21
747.079	2303.96
747.264	2324.44
747.449	2424.8
747.634	2355.16
747.819	2273.25
748.003	2306.01
748.188	2269.15
748.373	2363.36
748.557	2312.16
748.742	2252.77
748.927	2193.37
749.111	2254.81
749.296	2248.67
749.481	2103.26
749.665	2234.33
749.85	2146.27
750.034	2244.57
750.219	2224.09
750.404	2152.42
750.588	2207.71
750.773	2164.7
750.957	2205.66
751.141	2080.74
751.326	2230.24
751.51	2084.83
751.695	1937.38
751.879	2009.06
752.064	2101.22
752.248	2060.26
752.432	2082.78
752.617	1939.43
752.801	2062.3
752.985	2037.73
753.17	2066.4
753.354	1908.71
753.538	2105.31
753.722	1871.84
753.907	1877.99
754.091	1937.38
754.275	1906.66
754.459	1877.99
754.643	1839.08
754.828	1847.27
755.012	1910.75
755.196	1783.78
755.38	1927.14
755.564	1794.02
755.748	1773.54
755.932	1767.4
756.116	1781.73
756.3	1777.64
756.484	1748.97
756.668	1755.11
756.852	1656.81
757.036	1662.95
757.22	1675.24
757.404	1667.05
757.588	1648.61
757.772	1728.49
757.956	1671.14
758.14	1621.99
758.323	1654.76
758.507	1662.95
758.691	1621.99
758.875	1710.05
759.059	1607.66
759.242	1679.33
759.426	1581.03
759.61	1503.21
759.794	1556.46
759.977	1527.78
760.161	1650.66
760.345	1591.27
760.528	1591.27
760.712	1570.79
760.895	1415.15
761.079	1511.4
761.263	1505.26
761.446	1509.35
761.63	1472.49
761.813	1533.93
761.997	1505.26
762.18	1437.67
762.364	1396.71
762.547	1443.82
762.731	1394.67
762.914	1433.58
763.098	1331.18
763.281	1435.63
763.464	1482.73
763.648	1449.96
763.831	1409
764.015	1337.32
764.198	1298.41
764.381	1447.91
764.564	1413.1
764.748	1417.19
764.931	1361.9
765.114	1429.48
765.297	1400.81
765.481	1380.33
765.664	1310.7
765.847	1302.51
766.03	1288.17
766.213	1310.7
766.397	1329.13
766.58	1427.43
766.763	1380.33
766.946	1255.4
767.129	1259.5
767.312	1212.4
767.495	1333.23
767.678	1257.45
767.861	1234.93
768.044	1267.69
768.227	1320.94
768.41	1187.82
768.593	1302.51
768.776	1236.97
768.959	1263.6
769.142	1232.88
769.324	1208.3
769.507	1087.47
769.69	1230.83
769.873	1265.64
770.056	1288.17
770.239	1173.49
770.421	1226.73
770.604	1232.88
770.787	1243.12
770.97	1187.82
771.152	1140.72
771.335	1085.42
771.518	1126.38
771.7	1257.45
771.883	1107.95
772.066	1089.52
772.248	1120.24
772.431	1136.62
772.613	1099.76
772.796	1110
772.978	1118.19
773.161	1200.11
773.343	1019.89
773.526	993.26
773.708	948.21
773.891	1040.37
774.073	1179.63
774.256	991.22
774.438	1071.09
774.621	989.17
774.803	1075.18
774.985	997.36
775.168	1019.89
775.35	1017.84
775.532	960.5
775.715	983.03
775.897	1011.7
776.079	950.26
776.261	983.03
776.444	995.31
776.626	970.74
776.808	919.54
776.99	960.5
777.173	974.83
777.355	985.07
777.537	978.93
777.719	997.36
777.901	911.35
778.083	890.87
778.265	933.87
778.447	890.87
778.629	919.54
778.811	876.53
778.993	960.5
779.175	878.58
779.357	860.15
779.539	806.9
779.721	888.82
779.903	829.43
780.085	737.27
780.267	851.96
780.449	829.43
780.631	854
780.812	800.76
780.994	811
781.176	714.74
781.358	790.52
781.54	788.47
781.721	765.94
781.903	720.88
782.085	815.09
782.267	841.72
782.448	677.88
782.63	761.84
782.812	731.12
782.993	727.03
783.175	724.98
783.357	675.83
783.538	755.7
783.72	751.6
783.901	722.93
784.083	659.45
784.264	684.02
784.446	655.35
784.627	602.1
784.809	722.93
784.99	632.82
785.172	636.92
785.353	630.77
785.535	673.78
785.716	696.31
785.897	663.54
786.079	614.39
786.26	696.31
786.441	684.02
786.623	471.03
786.804	620.53
786.985	661.49
787.167	567.29
787.348	518.14
787.529	602.1
787.71	612.34
787.891	585.72
788.073	526.33
788.254	579.58
788.435	487.42
788.616	522.23
788.797	489.46
788.978	538.62
789.159	577.53
789.34	569.34
789.522	532.47
789.703	505.85
789.884	436.22
790.065	544.76
790.246	552.95
790.427	419.83
790.607	518.14
790.788	503.8
790.969	522.23
791.15	602.1
791.331	428.03
791.512	360.44
791.693	446.46
791.874	409.59
792.054	522.23
792.235	534.52
792.416	462.84
792.597	493.56
792.778	423.93
792.958	499.7
793.139	487.42
793.32	403.45
793.5	393.21
793.681	438.27
793.862	456.7
794.042	462.84
794.223	395.26
794.404	444.41
794.584	366.59
794.765	331.77
794.945	352.25
795.126	364.54
795.306	411.64
795.487	444.41
795.667	448.51
795.848	489.46
796.028	317.44
796.209	471.03
796.389	370.68
796.57	382.97
796.75	362.49
796.93	407.55
797.111	421.88
797.291	346.11
797.471	350.2
797.652	378.87
797.832	303.1
798.012	417.79
798.192	301.05
798.373	339.96
798.553	352.25
798.733	346.11
798.913	346.11
799.093	339.96
799.274	360.44
799.454	350.2
799.634	428.03
799.814	296.96
799.994	358.39
800.174	344.06
800.354	419.83
800.534	294.91
800.714	370.68
800.894	307.2
801.074	337.91
801.254	370.68
801.434	348.15
801.614	344.06
801.794	247.8
801.974	1077.23
802.154	260.09
802.334	311.29
802.514	331.77
802.693	325.63
802.873	337.91
803.053	354.3
803.233	309.24
803.413	253.95
803.592	342.01
803.772	339.96
803.952	296.96
804.131	301.05
804.311	313.34
804.491	307.2
804.67	266.24
804.85	315.39
805.03	352.25
805.209	272.38
805.389	286.72
805.568	286.72
805.748	186.37
805.928	356.35
806.107	315.39
806.287	307.2
806.466	258.04
806.646	268.28
806.825	339.96
807.004	198.65
807.184	307.2
807.363	296.96
807.543	286.72
807.722	249.85
807.901	241.66
808.081	350.2
808.26	118.78
808.439	325.63
808.619	223.23
808.798	264.19
808.977	264.19
809.156	317.44
809.336	280.57
809.515	233.47
809.694	217.08
809.873	290.81
810.052	182.27
810.231	290.81
810.411	225.28
810.59	272.38
810.769	198.65
810.948	266.24
811.127	188.41
811.306	272.38
811.485	221.18
811.664	245.76
811.843	206.84
812.022	184.32
812.201	202.75
812.38	176.13
812.559	231.42
812.737	239.61
812.916	174.08
813.095	159.74
813.274	233.47
813.453	251.9
813.632	147.45
813.811	237.56
813.989	172.03
814.168	210.94
814.347	202.75
814.526	182.27
814.704	296.96
814.883	294.91
815.062	219.13
815.24	229.37
815.419	112.64
815.598	212.99
815.776	112.64
815.955	155.65
816.133	167.93
816.312	153.6
816.49	241.66
816.669	256
816.847	180.22
817.026	169.98
817.204	225.28
817.383	204.8
817.561	180.22
817.74	184.32
817.918	129.02
818.097	165.89
818.275	137.21
818.453	174.08
818.632	198.65
818.81	145.41
818.988	204.8
819.167	157.69
819.345	126.97
819.523	194.56
819.701	204.8
819.879	200.7
820.058	272.38
820.236	198.65
820.414	122.88
820.592	192.51
820.77	83.97
820.948	120.83
821.127	149.5
821.305	225.28
821.483	151.55
821.661	202.75
821.839	151.55
822.017	108.54
822.195	135.17
822.373	206.84
822.551	167.93
822.729	122.88
822.907	190.46
823.085	174.08
823.262	69.63
823.44	100.35
823.618	133.12
823.796	139.26
823.974	110.59
824.152	135.17
824.329	135.17
824.507	198.65
824.685	157.69
824.863	161.79
825.04	96.25
825.218	202.75
825.396	153.6
825.574	83.97
825.751	83.97
825.929	145.41
826.107	124.93
826.284	116.73
826.462	129.02
826.639	102.4
826.817	88.06
826.994	133.12
827.172	94.21
827.349	182.27
827.527	131.07
827.704	131.07
827.882	139.26
828.059	137.21
828.237	59.39
828.414	167.93
828.591	12.29
828.769	180.22
828.946	137.21
829.124	169.98
829.301	155.65
829.478	104.45
829.655	217.08
829.833	77.82
830.01	71.68
830.187	198.65
830.364	131.07
830.542	102.4
830.719	176.13
830.896	116.73
831.073	88.06
831.25	153.6
831.427	159.74
831.604	104.45
831.782	102.4
831.959	77.82
832.136	106.49
832.313	73.73
832.49	151.55
832.667	69.63
832.844	90.11
833.021	157.69
833.198	98.3
833.374	104.45
833.551	124.93
833.728	110.59
833.905	57.34
834.082	135.17
834.259	112.64
834.436	137.21
834.612	100.35
834.789	120.83
834.966	98.3
835.143	98.3
835.319	79.87
835.496	94.21
835.673	18.43
835.85	106.49
836.026	159.74
836.203	110.59
836.38	73.73
836.556	116.73
836.733	92.16
836.909	110.59
837.086	59.39
837.262	98.3
837.439	102.4
837.616	67.58
837.792	114.69
837.968	114.69
838.145	98.3
838.321	112.64
838.498	59.39
838.674	45.06
838.851	49.15
839.027	65.54
839.203	110.59
839.38	141.31
839.556	57.34
839.732	122.88
839.909	61.44
840.085	55.3
840.261	38.91
840.437	57.34
840.614	100.35
840.79	51.2
840.966	67.58
841.142	155.65
841.318	61.44
841.494	100.35
841.671	180.22
841.847	67.58
842.023	69.63
842.199	126.97
842.375	110.59
842.551	114.69
842.727	30.72
842.903	75.77
843.079	75.77
843.255	184.32
843.431	86.01
843.607	124.93
843.783	-4.1
843.959	79.87
844.134	88.06
844.31	98.3
844.486	61.44
844.662	83.97
844.838	16.38
845.013	65.54
845.189	90.11
845.365	-28.67
845.541	83.97
845.716	114.69
845.892	73.73
846.068	65.54
846.244	90.11
846.419	38.91
846.595	-96.25
846.77	-30.72
846.946	120.83
847.122	104.45
847.297	4.1
847.473	116.73
847.648	131.07
847.824	14.34
847.999	-2.05
848.175	94.21
848.35	149.5
848.526	137.21
848.701	73.73
848.876	90.11
849.052	92.16
849.227	24.58
849.403	106.49
849.578	79.87
849.753	55.3
849.929	57.34
850.104	90.11
850.279	40.96
850.454	116.73
850.63	26.62
850.805	18.43
850.98	94.21
851.155	77.82
851.33	114.69
851.505	61.44
851.681	165.89
851.856	102.4
852.031	75.77
852.206	32.77
852.381	53.25
852.556	83.97
852.731	53.25
852.906	86.01
853.081	43.01
853.256	67.58
853.431	90.11
853.606	55.3
853.781	53.25
853.956	24.58
854.131	184.32
854.305	47.1
854.48	90.11
854.655	-6.14
854.83	120.83
855.005	-8.19
855.18	69.63
855.354	73.73
855.529	108.54
855.704	14.34
855.879	69.63
856.053	38.91
856.228	34.82
856.403	-38.91
856.577	49.15
856.752	75.77
856.926	126.97
857.101	43.01
857.276	24.58
857.45	8.19
857.625	59.39
857.799	79.87
857.974	124.93
858.148	10.24
858.323	120.83
858.497	20.48
858.672	94.21
858.846	-30.72
859.02	34.82
859.195	4.1
859.369	26.62
859.543	40.96
859.718	53.25
859.892	98.3
860.066	92.16
860.241	16.38
860.415	63.49
860.589	20.48
860.763	102.4
860.938	28.67
861.112	45.06
861.286	32.77
861.46	36.86
861.634	57.34
861.808	75.77
861.982	24.58
862.157	26.62
862.331	6.14
862.505	40.96
862.679	-22.53
862.853	-28.67
863.027	98.3
863.201	71.68
863.375	-65.53
863.549	90.11
863.722	40.96
863.896	26.62
864.07	38.91
864.244	14.34
864.418	57.34
864.592	71.68
864.766	-71.68
864.939	32.77
865.113	45.06
865.287	36.86
865.461	24.58
865.634	10.24
865.808	71.68
865.982	40.96
866.156	26.62
866.329	28.67
866.503	38.91
866.676	45.06
866.85	8.19
867.024	57.34
867.197	65.54
867.371	-12.29
867.544	65.54
867.718	12.29
867.891	20.48
868.065	-36.86
868.238	8.19
868.412	71.68
868.585	22.53
868.759	24.58
868.932	45.06
869.105	24.58
869.279	14.34
869.452	49.15
869.625	-4.1
869.799	12.29
869.972	-22.53
870.145	40.96
870.319	45.06
870.492	96.25
870.665	-6.14
870.838	43.01
871.011	-34.82
871.185	63.49
871.358	-4.1
871.531	83.97
871.704	-4.1
871.877	49.15
872.05	14.34
872.223	-71.68
872.396	12.29
872.569	69.63
872.742	-14.34
872.915	55.3
873.088	18.43
873.261	67.58
873.434	71.68
873.607	12.29
873.78	153.6
873.953	-6.14
874.126	16.38
874.299	59.39
874.471	100.35
874.644	8.19
874.817	100.35
874.99	61.44
875.163	-4.1
875.335	-6.14
875.508	6.14
875.681	149.5
875.853	-26.62
876.026	51.2
876.199	8.19
876.371	34.82
876.544	20.48
876.717	-10.24
876.889	20.48
877.062	18.43
877.234	-30.72
877.407	4.1
877.579	71.68
877.752	30.72
877.924	40.96
878.097	32.77
878.269	71.68
878.442	26.62
878.614	28.67
878.786	40.96
878.959	53.25
879.131	43.01
879.303	-83.97
879.476	8.19
879.648	36.86
879.82	47.1
879.993	20.48
880.165	12.29
880.337	-67.58
880.509	20.48
880.681	-32.77
880.854	2.05
881.026	71.68
881.198	24.58
881.37	24.58
881.542	6.14
881.714	-6.14
881.886	-88.06
882.058	30.72
882.23	-6.14
882.402	-8.19
882.574	55.3
882.746	-61.44
882.918	57.34
883.09	75.77
883.262	-47.1
883.434	8.19
883.606	-83.97
883.778	-43.01
883.95	86.01
884.122	-49.15
884.293	-55.3
884.465	40.96
884.637	10.24
884.809	-30.72
884.98	28.67
885.152	36.86
885.324	71.68
885.496	-8.19
885.667	28.67
885.839	-38.91
886.011	77.82
886.182	6.14
886.354	67.58
886.525	30.72
886.697	102.4
886.869	-18.43
887.04	6.14
887.212	49.15
887.383	45.06
887.555	69.63
887.726	10.24
887.897	20.48
888.069	36.86
888.24	-45.06
888.412	-6.14
888.583	65.54
888.754	32.77
888.926	-26.62
889.097	36.86
889.268	-34.82
889.44	-18.43
889.611	38.91
889.782	28.67
889.953	18.43
890.125	32.77
890.296	-59.39
890.467	-38.91
890.638	-26.62
890.809	24.58
890.98	-26.62
891.151	51.2
891.323	0
891.494	69.63
891.665	2.05
891.836	18.43
892.007	16.38
892.178	18.43
892.349	4.1
892.52	32.77
892.691	30.72
892.862	18.43
893.032	36.86
893.203	26.62
893.374	18.43
893.545	-18.43
893.716	14.34
893.887	106.49
894.057	30.72
894.228	-18.43
894.399	55.3
894.57	47.1
894.74	47.1
894.911	18.43
895.082	-24.58
895.253	-12.29
895.423	26.62
895.594	81.92
895.764	63.49
895.935	-100.35
896.106	45.06
896.276	14.34
896.447	53.25
896.617	-20.48
896.788	-30.72
896.958	-43.01
897.129	92.16
897.299	53.25
897.47	75.77
897.64	8.19
897.81	18.43
897.981	81.92
898.151	-57.34
898.322	75.77
898.492	4.1
898.662	-4.1
898.832	30.72
899.003	90.11
899.173	0
899.343	-4.1
899.513	-43.01
