Data from USB4F104151__96__12-42-57-553.txt Node

Date: Fri Mar 14 12:42:57 EDT 2025
User: louis
Spectrometer: USB4F10415
Trigger mode: 4
Integration Time (sec): 3.000000E-2
Scans to average: 1
Electric dark correction enabled: true
Nonlinearity correction enabled: false
Boxcar width: 0
XAxis mode: Wavelengths
Number of Pixels in Spectrum: 3648
>>>>>Begin Spectral Data<<<<<
178.204	-108.03
178.424	-108.03
178.644	-108.03
178.864	-161.28
179.084	-118.27
179.304	-15.87
179.524	-28.16
179.744	6.66
179.964	29.18
180.184	55.81
180.404	-17.92
180.624	-24.06
180.844	27.14
181.064	18.94
181.283	6.66
181.503	-48.64
181.723	-9.73
181.943	-9.73
182.163	86.53
182.383	66.05
182.602	39.42
182.822	47.62
183.042	98.81
183.262	-1.54
183.482	59.9
183.701	-22.02
183.921	6.66
184.141	23.04
184.361	45.57
184.58	25.09
184.8	37.38
185.02	4.61
185.239	70.14
185.459	-11.78
185.679	2.56
185.898	43.52
186.118	80.38
186.338	55.81
186.557	111.1
186.777	51.71
186.997	129.53
187.216	51.71
187.436	82.43
187.655	10.75
187.875	49.66
188.095	43.52
188.314	59.9
188.534	61.95
188.753	-5.63
188.973	59.9
189.192	39.42
189.412	2.56
189.631	-15.87
189.851	29.18
190.07	51.71
190.29	51.71
190.509	2.56
190.729	35.33
190.948	64
191.168	68.09
191.387	14.85
191.607	29.18
191.826	66.05
192.045	27.14
192.265	23.04
192.484	2.56
192.704	6.66
192.923	-46.59
193.142	78.33
193.362	0.51
193.581	90.62
193.8	88.57
194.02	64
194.239	8.7
194.458	68.09
194.678	33.28
194.897	104.96
195.116	-24.06
195.335	39.42
195.555	43.52
195.774	8.7
195.993	-1.54
196.212	25.09
196.432	-62.98
196.651	29.18
196.87	-1.54
197.089	68.09
197.308	12.8
197.528	68.09
197.747	0.51
197.966	8.7
198.185	96.77
198.404	-9.73
198.623	80.38
198.842	-52.74
199.062	-19.97
199.281	66.05
199.5	-9.73
199.719	16.9
199.938	33.28
200.157	25.09
200.376	-3.58
200.595	135.68
200.814	43.52
201.033	-9.73
201.252	45.57
201.471	4.61
201.69	70.14
201.909	27.14
202.128	76.29
202.347	-24.06
202.566	-32.26
202.785	98.81
203.004	74.24
203.223	98.81
203.442	102.91
203.661	25.09
203.879	8.7
204.098	51.71
204.317	57.86
204.536	14.85
204.755	45.57
204.974	51.71
205.193	33.28
205.411	86.53
205.63	33.28
205.849	35.33
206.068	25.09
206.287	53.76
206.505	68.09
206.724	100.86
206.943	20.99
207.162	-1.54
207.381	8.7
207.599	8.7
207.818	111.1
208.037	-9.73
208.255	-13.82
208.474	29.18
208.693	14.85
208.911	-17.92
209.13	43.52
209.349	18.94
209.567	14.85
209.786	0.51
210.005	102.91
210.223	27.14
210.442	49.66
210.661	92.67
210.879	57.86
211.098	37.38
211.316	10.75
211.535	10.75
211.753	23.04
211.972	41.47
212.191	33.28
212.409	113.15
212.628	25.09
212.846	-24.06
213.065	-1.54
213.283	59.9
213.502	16.9
213.72	-5.63
213.938	49.66
214.157	6.66
214.375	35.33
214.594	8.7
214.812	37.38
215.031	41.47
215.249	-1.54
215.467	59.9
215.686	14.85
215.904	88.57
216.122	16.9
216.341	64
216.559	72.19
216.778	94.72
216.996	8.7
217.214	20.99
217.432	-26.11
217.651	4.61
217.869	23.04
218.087	41.47
218.306	64
218.524	57.86
218.742	-58.88
218.96	23.04
219.179	-24.06
219.397	-7.68
219.615	123.39
219.833	96.77
220.051	-5.63
220.27	16.9
220.488	104.96
220.706	66.05
220.924	-32.26
221.142	-32.26
221.36	43.52
221.578	55.81
221.796	10.75
222.015	39.42
222.233	14.85
222.451	94.72
222.669	8.7
222.887	57.86
223.105	-26.11
223.323	-48.64
223.541	2.56
223.759	8.7
223.977	-19.97
224.195	-7.68
224.413	61.95
224.631	20.99
224.849	-32.26
225.067	57.86
225.285	23.04
225.503	-7.68
225.721	12.8
225.939	72.19
226.157	41.47
226.375	111.1
226.592	61.95
226.81	57.86
227.028	76.29
227.246	90.62
227.464	31.23
227.682	35.33
227.9	92.67
228.117	68.09
228.335	88.57
228.553	29.18
228.771	90.62
228.989	100.86
229.206	109.05
229.424	31.23
229.642	109.05
229.86	0.51
230.077	121.34
230.295	86.53
230.513	57.86
230.731	92.67
230.948	61.95
231.166	84.48
231.384	45.57
231.601	59.9
231.819	10.75
232.037	0.51
232.254	-26.11
232.472	123.39
232.689	0.51
232.907	74.24
233.125	-1.54
233.342	12.8
233.56	16.9
233.777	0.51
233.995	74.24
234.213	102.91
234.43	66.05
234.648	45.57
234.865	20.99
235.083	-26.11
235.3	33.28
235.518	33.28
235.735	72.19
235.953	123.39
236.17	61.95
236.388	68.09
236.605	131.58
236.822	64
237.04	35.33
237.257	68.09
237.475	55.81
237.692	27.14
237.909	55.81
238.127	55.81
238.344	51.71
238.562	2.56
238.779	10.75
238.996	12.8
239.214	80.38
239.431	78.33
239.648	-1.54
239.865	131.58
240.083	49.66
240.3	72.19
240.517	23.04
240.735	16.9
240.952	-1.54
241.169	53.76
241.386	74.24
241.603	37.38
241.821	39.42
242.038	61.95
242.255	96.77
242.472	-7.68
242.689	51.71
242.907	16.9
243.124	10.75
243.341	-3.58
243.558	68.09
243.775	-17.92
243.992	-5.63
244.209	10.75
244.426	-22.02
244.643	47.62
244.86	10.75
245.078	2.56
245.295	2.56
245.512	76.29
245.729	25.09
245.946	12.8
246.163	43.52
246.38	80.38
246.597	23.04
246.814	16.9
247.031	82.43
247.248	10.75
247.464	4.61
247.681	43.52
247.898	23.04
248.115	47.62
248.332	-30.21
248.549	68.09
248.766	147.97
248.983	18.94
249.2	10.75
249.417	100.86
249.633	55.81
249.85	80.38
250.067	64
250.284	33.28
250.501	55.81
250.717	88.57
250.934	39.42
251.151	51.71
251.368	-24.06
251.585	55.81
251.801	29.18
252.018	90.62
252.235	76.29
252.451	35.33
252.668	49.66
252.885	37.38
253.102	64
253.318	12.8
253.535	76.29
253.752	29.18
253.968	25.09
254.185	-22.02
254.401	68.09
254.618	45.57
254.835	-60.93
255.051	61.95
255.268	119.29
255.484	96.77
255.701	29.18
255.917	59.9
256.134	-15.87
256.351	25.09
256.567	-58.88
256.784	29.18
257	18.94
257.217	49.66
257.433	84.48
257.65	37.38
257.866	8.7
258.082	-48.64
258.299	39.42
258.515	-19.97
258.732	53.76
258.948	-17.92
259.165	78.33
259.381	55.81
259.597	92.67
259.814	51.71
260.03	-15.87
260.246	-13.82
260.463	76.29
260.679	27.14
260.895	102.91
261.112	102.91
261.328	18.94
261.544	57.86
261.761	119.29
261.977	57.86
262.193	-11.78
262.409	57.86
262.626	-42.5
262.842	70.14
263.058	-32.26
263.274	123.39
263.49	113.15
263.707	49.66
263.923	80.38
264.139	2.56
264.355	10.75
264.571	104.96
264.787	-7.68
265.004	76.29
265.22	-15.87
265.436	0.51
265.652	-24.06
265.868	137.73
266.084	41.47
266.3	119.29
266.516	-40.45
266.732	66.05
266.948	14.85
267.164	16.9
267.38	107.01
267.596	168.45
267.812	164.35
268.028	47.62
268.244	-1.54
268.46	43.52
268.676	33.28
268.892	47.62
269.108	10.75
269.324	-28.16
269.54	35.33
269.756	64
269.972	-28.16
270.188	-30.21
270.403	-32.26
270.619	-28.16
270.835	53.76
271.051	25.09
271.267	98.81
271.483	23.04
271.698	-7.68
271.914	18.94
272.13	43.52
272.346	39.42
272.562	94.72
272.777	27.14
272.993	31.23
273.209	20.99
273.425	66.05
273.64	33.28
273.856	20.99
274.072	41.47
274.287	-11.78
274.503	80.38
274.719	-3.58
274.934	66.05
275.15	59.9
275.366	4.61
275.581	-44.54
275.797	39.42
276.012	41.47
276.228	59.9
276.444	2.56
276.659	80.38
276.875	25.09
277.09	-9.73
277.306	-3.58
277.521	129.53
277.737	43.52
277.952	88.57
278.168	121.34
278.383	49.66
278.599	115.2
278.814	100.86
279.03	-15.87
279.245	14.85
279.461	76.29
279.676	68.09
279.892	29.18
280.107	16.9
280.322	35.33
280.538	31.23
280.753	16.9
280.969	76.29
281.184	4.61
281.399	35.33
281.615	-9.73
281.83	-24.06
282.045	-5.63
282.26	39.42
282.476	-19.97
282.691	53.76
282.906	47.62
283.122	107.01
283.337	-7.68
283.552	37.38
283.767	57.86
283.983	59.9
284.198	37.38
284.413	27.14
284.628	25.09
284.843	100.86
285.058	37.38
285.274	29.18
285.489	14.85
285.704	109.05
285.919	37.38
286.134	29.18
286.349	4.61
286.564	20.99
286.779	45.57
286.995	18.94
287.21	20.99
287.425	115.2
287.64	76.29
287.855	72.19
288.07	37.38
288.285	74.24
288.5	90.62
288.715	27.14
288.93	-34.3
289.145	121.34
289.36	90.62
289.575	20.99
289.79	72.19
290.004	4.61
290.219	102.91
290.434	29.18
290.649	57.86
290.864	2.56
291.079	-17.92
291.294	-13.82
291.509	-3.58
291.724	27.14
291.938	70.14
292.153	51.71
292.368	68.09
292.583	23.04
292.798	147.97
293.012	61.95
293.227	47.62
293.442	10.75
293.657	23.04
293.871	86.53
294.086	53.76
294.301	141.82
294.516	123.39
294.73	43.52
294.945	-1.54
295.16	49.66
295.374	12.8
295.589	64
295.804	47.62
296.018	57.86
296.233	111.1
296.447	41.47
296.662	-3.58
296.877	84.48
297.091	-9.73
297.306	-24.06
297.52	68.09
297.735	37.38
297.949	-30.21
298.164	61.95
298.378	55.81
298.593	-44.54
298.807	49.66
299.022	80.38
299.236	88.57
299.451	-24.06
299.665	72.19
299.88	72.19
300.094	18.94
300.309	14.85
300.523	51.71
300.737	8.7
300.952	2.56
301.166	-1.54
301.381	96.77
301.595	70.14
301.809	51.71
302.024	43.52
302.238	10.75
302.452	61.95
302.667	16.9
302.881	57.86
303.095	131.58
303.309	41.47
303.524	-17.92
303.738	37.38
303.952	-11.78
304.166	16.9
304.381	41.47
304.595	102.91
304.809	10.75
305.023	43.52
305.237	12.8
305.452	55.81
305.666	18.94
305.88	102.91
306.094	-19.97
306.308	61.95
306.522	104.96
306.736	31.23
306.95	55.81
307.164	55.81
307.379	0.51
307.593	14.85
307.807	70.14
308.021	61.95
308.235	107.01
308.449	27.14
308.663	49.66
308.877	92.67
309.091	16.9
309.305	92.67
309.519	0.51
309.733	92.67
309.947	29.18
310.161	94.72
310.374	55.81
310.588	137.73
310.802	53.76
311.016	25.09
311.23	61.95
311.444	29.18
311.658	23.04
311.872	137.73
312.085	49.66
312.299	88.57
312.513	84.48
312.727	4.61
312.941	2.56
313.154	27.14
313.368	96.77
313.582	178.69
313.796	45.57
314.009	37.38
314.223	96.77
314.437	94.72
314.651	82.43
314.864	27.14
315.078	43.52
315.292	-34.3
315.505	-9.73
315.719	104.96
315.933	94.72
316.146	80.38
316.36	98.81
316.573	147.97
316.787	109.05
317.001	49.66
317.214	35.33
317.428	43.52
317.641	39.42
317.855	8.7
318.068	86.53
318.282	-9.73
318.495	109.05
318.709	-1.54
318.922	0.51
319.136	51.71
319.349	104.96
319.563	70.14
319.776	49.66
319.99	-34.3
320.203	51.71
320.417	61.95
320.63	2.56
320.843	119.29
321.057	55.81
321.27	66.05
321.483	141.82
321.697	158.21
321.91	37.38
322.124	72.19
322.337	39.42
322.55	-9.73
322.763	66.05
322.977	84.48
323.19	-44.54
323.403	23.04
323.617	76.29
323.83	41.47
324.043	-30.21
324.256	51.71
324.469	0.51
324.683	74.24
324.896	109.05
325.109	78.33
325.322	-1.54
325.535	41.47
325.748	-5.63
325.962	-5.63
326.175	16.9
326.388	41.47
326.601	111.1
326.814	80.38
327.027	94.72
327.24	92.67
327.453	10.75
327.666	80.38
327.879	70.14
328.092	70.14
328.305	109.05
328.518	35.33
328.731	-13.82
328.944	41.47
329.157	51.71
329.37	92.67
329.583	129.53
329.796	33.28
330.009	0.51
330.222	16.9
330.435	158.21
330.648	84.48
330.861	-1.54
331.073	59.9
331.286	113.15
331.499	66.05
331.712	20.99
331.925	18.94
332.138	64
332.35	111.1
332.563	6.66
332.776	94.72
332.989	27.14
333.202	39.42
333.414	55.81
333.627	57.86
333.84	18.94
334.053	18.94
334.265	6.66
334.478	98.81
334.691	68.09
334.903	49.66
335.116	-3.58
335.329	-5.63
335.541	14.85
335.754	74.24
335.966	70.14
336.179	4.61
336.392	98.81
336.604	64
336.817	129.53
337.029	154.11
337.242	70.14
337.454	66.05
337.667	-5.63
337.88	8.7
338.092	109.05
338.305	70.14
338.517	70.14
338.729	90.62
338.942	104.96
339.154	111.1
339.367	84.48
339.579	98.81
339.792	2.56
340.004	117.25
340.217	-69.12
340.429	27.14
340.641	2.56
340.854	16.9
341.066	10.75
341.278	80.38
341.491	90.62
341.703	92.67
341.915	2.56
342.128	115.2
342.34	84.48
342.552	20.99
342.764	6.66
342.977	31.23
343.189	82.43
343.401	61.95
343.613	-11.78
343.826	23.04
344.038	51.71
344.25	39.42
344.462	-15.87
344.674	80.38
344.886	66.05
345.099	102.91
345.311	0.51
345.523	6.66
345.735	-11.78
345.947	86.53
346.159	20.99
346.371	4.61
346.583	47.62
346.795	104.96
347.007	57.86
347.219	147.97
347.431	35.33
347.643	47.62
347.855	10.75
348.067	125.44
348.279	43.52
348.491	-1.54
348.703	74.24
348.915	-22.02
349.127	57.86
349.339	96.77
349.551	66.05
349.763	2.56
349.975	8.7
350.187	109.05
350.399	119.29
350.61	156.16
350.822	10.75
351.034	55.81
351.246	51.71
351.458	74.24
351.669	70.14
351.881	111.1
352.093	59.9
352.305	131.58
352.517	61.95
352.728	150.01
352.94	107.01
353.152	64
353.363	92.67
353.575	33.28
353.787	39.42
353.999	39.42
354.21	68.09
354.422	27.14
354.633	51.71
354.845	33.28
355.057	57.86
355.268	70.14
355.48	107.01
355.692	4.61
355.903	-1.54
356.115	2.56
356.326	82.43
356.538	45.57
356.749	82.43
356.961	29.18
357.172	96.77
357.384	-15.87
357.595	72.19
357.807	14.85
358.018	-3.58
358.23	68.09
358.441	51.71
358.653	76.29
358.864	-9.73
359.075	43.52
359.287	59.9
359.498	111.1
359.709	127.49
359.921	59.9
360.132	78.33
360.344	111.1
360.555	-32.26
360.766	49.66
360.977	27.14
361.189	72.19
361.4	35.33
361.611	96.77
361.823	107.01
362.034	107.01
362.245	23.04
362.456	23.04
362.667	39.42
362.879	82.43
363.09	111.1
363.301	-7.68
363.512	90.62
363.723	125.44
363.935	145.92
364.146	84.48
364.357	78.33
364.568	168.45
364.779	23.04
364.99	107.01
365.201	68.09
365.412	68.09
365.623	55.81
365.834	100.86
366.045	45.57
366.256	-22.02
366.467	61.95
366.678	66.05
366.889	27.14
367.1	20.99
367.311	47.62
367.522	94.72
367.733	23.04
367.944	158.21
368.155	61.95
368.366	70.14
368.577	94.72
368.788	109.05
368.999	31.23
369.209	78.33
369.42	182.78
369.631	178.69
369.842	86.53
370.053	90.62
370.264	88.57
370.474	92.67
370.685	113.15
370.896	51.71
371.107	96.77
371.317	90.62
371.528	29.18
371.739	53.76
371.95	82.43
372.16	53.76
372.371	-17.92
372.582	25.09
372.792	82.43
373.003	86.53
373.214	29.18
373.424	8.7
373.635	-3.58
373.846	125.44
374.056	-15.87
374.267	72.19
374.477	68.09
374.688	18.94
374.898	39.42
375.109	137.73
375.319	49.66
375.53	92.67
375.74	47.62
375.951	43.52
376.161	51.71
376.372	72.19
376.582	47.62
376.793	49.66
377.003	86.53
377.214	16.9
377.424	88.57
377.635	102.91
377.845	125.44
378.055	64
378.266	47.62
378.476	72.19
378.686	57.86
378.897	20.99
379.107	98.81
379.317	104.96
379.528	-46.59
379.738	121.34
379.948	51.71
380.158	74.24
380.369	61.95
380.579	10.75
380.789	27.14
380.999	37.38
381.21	139.77
381.42	84.48
381.63	92.67
381.84	84.48
382.05	74.24
382.261	45.57
382.471	33.28
382.681	90.62
382.891	98.81
383.101	109.05
383.311	49.66
383.521	2.56
383.731	123.39
383.941	86.53
384.151	16.9
384.361	66.05
384.571	125.44
384.781	104.96
384.991	166.4
385.201	119.29
385.411	156.16
385.621	127.49
385.831	90.62
386.041	88.57
386.251	66.05
386.461	145.92
386.671	72.19
386.881	47.62
387.091	53.76
387.301	86.53
387.511	102.91
387.72	104.96
387.93	55.81
388.14	39.42
388.35	8.7
388.56	0.51
388.769	160.25
388.979	137.73
389.189	45.57
389.399	111.1
389.609	70.14
389.818	78.33
390.028	121.34
390.238	82.43
390.447	37.38
390.657	113.15
390.867	129.53
391.076	70.14
391.286	90.62
391.496	135.68
391.705	57.86
391.915	121.34
392.125	127.49
392.334	2.56
392.544	82.43
392.753	76.29
392.963	139.77
393.172	78.33
393.382	96.77
393.591	147.97
393.801	68.09
394.01	115.2
394.22	115.2
394.429	117.25
394.639	127.49
394.848	145.92
395.058	127.49
395.267	98.81
395.477	29.18
395.686	76.29
395.895	172.54
396.105	248.32
396.314	84.48
396.524	92.67
396.733	82.43
396.942	98.81
397.152	121.34
397.361	154.11
397.57	141.82
397.78	111.1
397.989	92.67
398.198	193.02
398.407	135.68
398.617	117.25
398.826	141.82
399.035	76.29
399.244	160.25
399.453	82.43
399.663	152.06
399.872	231.93
400.081	131.58
400.29	193.02
400.499	109.05
400.708	170.49
400.917	147.97
401.127	160.25
401.336	141.82
401.545	215.55
401.754	199.16
401.963	158.21
402.172	115.2
402.381	227.84
402.59	229.88
402.799	145.92
403.008	184.83
403.217	133.63
403.426	100.86
403.635	137.73
403.844	129.53
404.053	193.02
404.262	113.15
404.471	299.52
404.68	164.35
404.888	213.5
405.097	199.16
405.306	229.88
405.515	201.21
405.724	205.31
405.933	287.23
406.142	193.02
406.35	322.04
406.559	322.04
406.768	227.84
406.977	193.02
407.185	297.47
407.394	256.51
407.603	324.09
407.812	258.56
408.02	332.28
408.229	285.18
408.438	313.85
408.646	252.41
408.855	365.05
409.064	367.1
409.272	356.86
409.481	440.83
409.69	418.3
409.898	356.86
410.107	522.74
410.315	473.59
410.524	492.02
410.733	459.26
410.941	434.68
411.15	547.32
411.358	541.18
411.567	635.38
411.775	545.27
411.984	559.61
412.192	551.42
412.401	647.67
412.609	604.66
412.818	705.01
413.026	711.16
413.234	719.35
413.443	758.26
413.651	709.11
413.86	829.94
414.068	825.84
414.276	948.72
414.485	922.1
414.693	864.75
414.901	958.96
415.11	1055.22
415.318	989.68
415.526	1055.22
415.734	1059.31
415.943	1206.77
416.151	1194.48
416.359	1143.28
416.567	1229.29
416.776	1376.75
416.984	1391.08
417.192	1475.05
417.4	1432.04
417.608	1458.67
417.817	1409.51
418.025	1573.35
418.233	1638.89
418.441	1688.04
418.649	1677.8
418.857	1806.82
419.065	1954.27
419.273	1913.31
419.481	2052.58
419.689	2157.02
419.897	2275.81
420.105	2298.33
420.313	2310.62
420.521	2306.52
420.729	2314.72
420.937	2488.79
421.145	2566.62
421.353	2666.97
421.561	2699.73
421.769	2781.65
421.977	2865.62
422.185	2925.01
422.393	3111.38
422.601	3473.87
422.809	3316.17
423.017	3340.75
423.224	3441.1
423.432	3488.2
423.64	3713.48
423.848	3901.89
424.056	3994.05
424.263	4215.23
424.471	4188.61
424.679	4129.22
424.887	4549.05
425.094	4598.2
425.302	4514.24
425.51	4708.79
425.718	5054.9
425.925	4995.51
426.133	5257.65
426.341	5349.81
426.548	5788.07
426.756	5695.91
426.964	5783.98
427.171	6123.94
427.379	6302.11
427.586	6584.73
427.794	6705.56
428.001	6830.49
428.209	7055.76
428.417	7152.02
428.624	7575.95
428.832	7457.17
429.039	7709.07
429.247	7621
429.454	8276.35
429.662	8833.4
429.869	8157.57
430.076	8853.88
430.284	8655.23
430.491	8931.7
430.699	9533.81
430.906	9533.81
431.114	9750.89
431.321	10015.08
431.528	9941.35
431.736	10729.82
431.943	11278.68
432.15	11061.59
432.358	11127.13
432.565	11931.98
432.772	11759.95
432.979	12214.6
433.187	12417.35
433.394	12572.99
433.601	13480.24
433.808	13363.51
434.016	13275.45
434.223	13883.69
434.43	14844.19
434.637	14719.26
434.844	15460.63
435.052	15823.12
435.259	15554.83
435.466	15968.52
435.673	15829.26
435.88	16666.88
436.087	17445.11
436.294	17576.18
436.501	17168.63
436.708	17524.98
436.915	18153.71
437.122	18768.1
437.329	18864.35
437.537	19476.69
437.743	19699.92
437.95	19679.44
438.157	20488.39
438.364	21397.69
438.571	21215.42
438.778	21512.38
438.985	23265.44
439.192	22360.23
439.399	23345.31
439.606	22593.7
439.813	24193.17
440.02	25391.23
440.227	24825.99
440.433	24352.91
440.64	25598.07
440.847	25272.45
441.054	26022
441.261	27811.93
441.467	27058.28
441.674	28090.45
441.881	28665.93
442.088	29163.59
442.294	28670.03
442.501	29530.17
442.708	30085.17
442.914	31197.22
443.121	32575.5
443.328	31369.25
443.534	33918.97
443.741	33103.88
443.948	32481.3
444.154	34621.42
444.361	34584.56
444.568	34897.9
444.774	34938.86
444.981	35000.3
445.187	36061.15
445.394	38076.35
445.6	37267.4
445.807	40781.71
446.013	39102.38
446.22	39645.09
446.426	41498.5
446.633	41621.38
446.839	42704.76
447.046	41361.29
447.252	43415.4
447.459	43149.17
447.665	43173.74
447.871	45197.13
448.078	47017.78
448.284	44681.05
448.491	46278.46
448.697	47976.23
448.903	48486.17
449.11	48725.78
449.316	48361.25
449.522	49362.7
449.728	50435.84
449.935	50614.01
450.141	50358.02
450.347	51556.08
450.553	50304.77
450.76	50763.51
450.966	52395.74
451.172	51732.2
451.378	53212.88
451.584	51855.08
451.791	53225.17
451.997	52913.88
452.203	53683.92
452.409	54214.34
452.615	53589.71
452.821	51906.28
453.027	51076.85
453.233	54048.46
453.44	51797.74
453.646	52080.36
453.852	52793.05
454.058	53573.33
454.264	51803.88
454.47	53255.89
454.676	51201.78
454.882	53683.92
455.088	48676.63
455.294	49833.74
455.5	50431.74
455.705	50495.23
455.911	48977.68
456.117	48191.26
456.323	47073.07
456.529	44828.5
456.735	46702.39
456.941	45354.83
457.147	44861.27
457.352	43517.8
457.558	42680.18
457.764	43495.27
457.97	42268.54
458.176	41289.61
458.381	41478.02
458.587	39403.43
458.793	39305.13
458.999	37619.65
459.204	40269.72
459.41	38979.5
459.616	36468.69
459.821	36571.09
460.027	36212.7
460.233	35485.67
460.438	33638.4
460.644	34215.93
460.85	32770.06
461.055	32153.62
461.261	32170.01
461.466	29755.45
461.672	28862.54
461.878	30554.16
462.083	29036.61
462.289	28381.26
462.494	28072.02
462.7	26583.15
462.905	26116.21
463.111	27043.94
463.316	27623.51
463.522	26767.46
463.727	26728.55
463.932	26282.09
464.138	26015.86
464.343	26425.45
464.549	25477.24
464.754	26708.07
464.959	26083.44
465.165	25974.9
465.37	25104.51
465.575	24246.41
465.781	25321.6
465.986	25512.06
466.191	24539.27
466.397	24127.63
466.602	22849.7
466.807	23787.67
467.012	23832.72
467.218	23543.96
467.423	23287.96
467.628	23685.27
467.833	24522.89
468.038	23656.6
468.244	22864.04
468.449	23515.29
468.654	22880.42
468.859	22712.49
469.064	22790.31
469.269	21878.96
469.474	22235.31
469.679	22335.66
469.885	21821.62
470.09	22057.14
470.295	21987.5
470.5	21381.31
470.705	21457.08
470.91	21078.21
471.115	21129.41
471.32	21082.3
471.525	20947.14
471.73	20506.82
471.935	20551.88
472.139	20191.44
472.344	20158.67
472.549	19935.44
472.754	19691.73
472.959	19202.27
473.164	18839.78
473.369	18735.33
473.574	19290.33
473.778	18880.74
473.983	18669.8
474.188	18907.36
474.393	17924.33
474.598	18051.31
474.802	17826.03
475.007	17776.88
475.212	18073.84
475.417	17051.9
475.621	17178.87
475.826	17221.88
476.031	16929.02
476.235	16570.63
476.44	17031.42
476.645	16359.69
476.849	16523.52
477.054	16210.18
477.259	16193.8
477.463	16234.76
477.668	15624.47
477.872	15737.1
478.077	15485.2
478.282	15046.94
478.486	15298.84
478.691	14995.74
478.895	14971.16
479.1	15046.94
479.304	14666.02
479.509	14702.88
479.713	14823.71
479.918	14319.91
480.122	14086.44
480.326	14496.03
480.531	14240.04
480.735	14068.01
480.94	14065.96
481.144	14387.49
481.348	13506.87
481.553	14229.8
481.757	13566.26
481.961	14074.15
482.166	14108.97
482.37	14227.75
482.574	13406.52
482.778	13850.92
482.983	13920.56
483.187	13617.46
483.391	13910.32
483.595	13760.81
483.8	13637.94
484.004	13875.5
484.208	13781.29
484.412	13711.66
484.616	13689.14
484.821	13642.03
485.025	13549.87
485.229	13898.03
485.433	13498.67
485.637	13746.48
485.841	13549.87
486.045	13941.04
486.249	13543.73
486.453	13629.74
486.657	13664.56
486.861	13670.7
487.065	13379.89
487.269	13596.98
487.473	13549.87
487.677	13857.07
487.881	13752.62
488.085	13703.47
488.289	13771.05
488.493	13406.52
488.697	13777.2
488.901	13654.32
489.105	13773.1
489.309	13918.51
489.512	13697.33
489.716	13689.14
489.92	13875.5
490.124	13646.13
490.328	13760.81
490.531	13586.74
490.735	14123.3
490.939	13998.38
491.143	13893.93
491.346	14049.58
491.55	14313.77
491.754	14094.63
491.958	14358.82
492.161	14180.65
492.365	14328.1
492.569	14530.85
492.772	14199.08
492.976	14285.09
493.18	14383.4
493.383	14780.7
493.587	14874.91
493.79	14833.95
493.994	14588.19
494.197	15046.94
494.401	15104.28
494.605	15272.21
494.808	15413.52
495.012	15606.03
495.215	15436.05
495.419	15548.69
495.622	15632.66
495.825	15708.43
496.029	15878.41
496.232	16210.18
496.436	15890.7
496.639	16322.82
496.843	16273.67
497.046	16380.17
497.249	16877.82
497.453	17017.08
497.656	16797.95
497.859	17066.24
498.063	17238.26
498.266	17645.81
498.469	17531.12
498.673	17780.98
498.876	17705.2
499.079	18446.57
499.282	18159.85
499.485	18577.64
499.689	18440.42
499.892	19140.83
500.095	18983.13
500.298	19427.54
500.501	19007.71
500.705	19919.06
500.908	19726.55
501.111	20130
501.314	20375.75
501.517	20586.69
501.72	20791.49
501.923	20650.18
502.126	21006.53
502.329	21606.58
502.532	21653.69
502.735	21690.55
502.938	22075.57
503.141	22333.61
503.344	22501.54
503.547	22104.24
503.75	22976.67
503.953	23421.08
504.156	23441.56
504.359	23738.52
504.562	23910.55
504.765	24107.15
504.968	24660.1
505.17	24825.99
505.373	24656.01
505.576	24977.54
505.779	25122.94
505.982	25622.65
506.185	25987.19
506.387	26146.93
506.59	26384.49
506.793	27009.12
506.996	26902.63
507.198	27576.41
507.401	27240.54
507.604	27732.06
507.807	28227.67
508.009	28248.14
508.212	28100.69
508.415	28657.74
508.617	29304.9
508.82	29167.68
509.022	29282.37
509.225	30109.75
509.428	29810.75
509.63	30226.48
509.833	30699.56
510.035	30984.23
510.238	30634.03
510.44	31330.34
510.643	31750.17
510.845	32141.33
511.048	31559.71
511.25	32536.59
511.453	32370.71
511.655	33839.1
511.858	33079.3
512.06	33718.27
512.262	33820.67
512.465	33941.5
512.667	34457.59
512.87	34672.62
513.072	34904.04
513.274	35444.71
513.477	35235.81
513.679	36083.67
513.881	35995.61
514.084	36683.73
514.286	36485.08
514.488	36675.54
514.69	37746.62
514.893	37955.52
515.095	37502.92
515.297	38399.93
515.499	38543.28
515.701	38750.13
515.904	39266.22
516.106	39434.15
516.308	39569.32
516.51	40138.65
516.712	40230.81
516.914	40556.44
517.116	41312.14
517.318	41293.71
517.52	41625.48
517.722	41637.76
517.925	41996.16
518.127	42508.15
518.329	42805.11
518.531	42776.44
518.733	43595.62
518.935	43554.66
519.136	43687.78
519.338	44246.88
519.54	44357.47
519.742	45008.72
519.944	44769.11
520.146	45590.34
520.348	45479.75
520.55	45780.81
520.752	45999.94
520.954	46677.82
521.155	46667.58
521.357	47138.61
521.559	47200.05
521.761	47765.29
521.963	47511.34
522.164	47988.52
522.366	48183.07
522.568	48647.96
522.77	48576.28
522.971	49676.04
523.173	49026.84
523.375	49596.17
523.576	49645.32
523.778	49493.77
523.98	50288.38
524.181	49798.92
524.383	50292.48
524.584	51015.41
524.786	51222.26
524.988	50966.26
525.189	51255.03
525.391	51820.27
525.592	51934.95
525.794	51965.67
525.995	51861.22
526.197	52498.14
526.398	52010.73
526.6	52537.05
526.801	52960.98
527.003	52801.24
527.204	52909.78
527.406	53180.12
527.607	52999.9
527.808	53491.41
528.01	52635.36
528.211	53180.12
528.412	54154.95
528.614	53798.6
528.815	53952.2
529.016	54429.38
529.218	54177.48
529.419	54107.85
529.62	54171.33
529.822	53845.71
530.023	53860.04
530.224	53925.58
530.425	54154.95
530.626	53933.77
530.828	53812.94
531.029	54781.63
531.23	54431.43
531.431	54240.96
531.632	54492.86
531.833	54988.47
532.035	54412.99
532.236	54601.41
532.437	54828.73
532.638	54810.3
532.839	54650.56
533.04	54757.05
533.241	54466.24
533.442	55197.37
533.643	55017.14
533.844	54834.88
534.045	54793.92
534.246	54353.6
534.447	55154.36
534.648	54851.26
534.849	54967.99
535.05	55086.78
535.251	54967.99
535.451	54740.67
535.652	55150.26
535.853	54996.66
536.054	54675.13
536.255	54662.85
536.456	54585.02
536.657	55129.78
536.857	54699.71
537.058	54466.24
537.259	54855.35
537.46	54994.62
537.66	54759.1
537.861	54728.38
538.062	54658.75
538.263	54546.11
538.463	54781.63
538.664	54572.74
538.865	54769.34
539.065	54974.14
539.266	53675.72
539.466	54765.24
539.667	54374.08
539.868	54838.97
540.068	54230.72
540.269	54570.69
540.469	54982.33
540.67	54470.34
540.87	54263.49
541.071	54179.53
541.271	54439.62
541.472	54447.81
541.672	53948.1
541.873	54331.07
542.073	53810.89
542.274	54888.12
542.474	54343.36
542.675	53862.09
542.875	54877.88
543.075	54175.43
543.276	53694.16
543.476	54738.62
543.676	54081.22
543.877	54658.75
544.077	53761.74
544.277	54113.99
544.478	54531.78
544.678	54066.89
544.878	54118.09
545.078	54314.69
545.279	53597.9
545.479	53663.44
545.679	53950.15
545.879	53968.58
546.079	53941.96
546.28	53704.4
546.48	54077.13
546.68	54089.41
546.88	54318.79
547.08	54224.58
547.28	53823.18
547.48	53311.19
547.68	53812.94
547.88	53231.32
548.081	53802.7
548.281	53415.63
548.481	53259.99
548.681	54003.4
548.881	53651.15
549.081	53536.46
549.28	53272.28
549.48	54271.68
549.68	53350.1
549.88	54105.8
550.08	53147.35
550.28	53751.5
550.48	53368.53
550.68	53880.52
550.88	53221.08
551.08	53405.39
551.279	54105.8
551.479	52965.08
551.679	53348.05
551.879	53288.66
552.079	53651.15
552.278	53171.92
552.478	53202.64
552.678	53216.98
552.878	53577.42
553.077	53296.85
553.277	53028.57
553.477	53550.8
553.676	53163.73
553.876	53212.88
554.076	52799.19
554.275	53034.71
554.475	52389.6
554.674	53112.53
554.874	52942.55
555.074	52811.48
555.273	52702.94
555.473	52758.23
555.672	52305.63
555.872	52516.57
556.071	53053.14
556.271	52606.69
556.47	52676.32
556.67	52068.07
556.869	52301.54
557.068	52813.53
557.268	52178.66
557.467	52545.25
557.667	52176.61
557.866	52276.96
558.065	52162.28
558.265	52037.35
558.464	51785.45
558.663	52274.91
558.863	51431.15
559.062	52659.93
559.261	51824.36
559.461	52344.55
559.66	51171.06
559.859	51801.83
560.058	51762.92
560.258	51355.38
560.457	50999.03
560.656	52190.95
560.855	51429.1
561.054	51638
561.253	50882.3
561.453	51826.41
561.652	51433.2
561.851	51300.08
562.05	51156.72
562.249	50880.25
562.448	51123.96
562.647	51128.05
562.846	51068.66
563.045	50362.11
563.244	50337.54
563.443	51500.78
563.642	50263.81
563.841	50933.49
564.04	50306.82
564.239	50962.17
564.438	50214.66
564.637	50599.68
564.836	50845.43
565.035	50116.36
565.234	50421.5
565.432	50269.95
565.631	50177.79
565.83	50112.26
566.029	49848.07
566.228	49714.95
566.427	49772.3
566.625	49542.92
566.824	49510.16
567.023	49598.22
567.222	49149.71
567.42	50233.09
567.619	49764.1
567.818	49508.11
568.016	48998.16
568.215	49415.95
568.414	49157.91
568.612	49288.98
568.811	49067.8
569.01	49598.22
569.208	48602.91
569.407	49061.65
569.605	48162.59
569.804	48547.61
570.002	48148.26
570.201	48533.28
570.4	48543.52
570.598	48400.16
570.797	48209.7
570.995	48336.67
571.193	47712.04
571.392	48387.87
571.59	47951.65
571.789	47562.54
571.987	47877.93
572.186	47818.53
572.384	47540.01
572.582	47744.81
572.781	47965.99
572.979	46972.72
573.177	47355.69
573.376	47585.07
573.574	46851.89
573.772	47064.88
573.971	47054.64
574.169	46423.87
574.367	46544.7
574.565	47081.27
574.763	46495.55
574.962	46323.52
575.16	46180.16
575.358	46643
575.556	45977.41
575.754	46399.29
575.952	45737.8
576.151	46450.49
576.349	45518.67
576.547	45772.61
576.745	45668.17
576.943	45864.77
577.141	45653.83
577.339	45821.76
577.537	45739.85
577.735	45700.93
577.933	45045.58
578.131	45338.44
578.329	44808.02
578.527	45061.97
578.725	45043.54
578.923	45029.2
579.121	44476.25
579.319	44445.53
579.516	44662.61
579.714	44355.42
579.912	44306.27
580.11	43581.29
580.308	43833.19
580.506	44019.55
580.704	43501.42
580.901	43718.5
581.099	44330.84
581.297	43945.83
581.495	43071.34
581.692	43528.04
581.89	43140.97
582.088	43599.72
582.285	43089.77
582.483	43323.24
582.681	43087.73
582.878	42641.27
583.076	42588.02
583.274	43016.05
583.471	42278.78
583.669	42334.07
583.866	42444.66
584.064	42477.43
584.262	41746.31
584.459	42432.38
584.657	41904
584.854	42129.28
585.052	41490.31
585.249	41881.47
585.447	41779.07
585.644	41592.71
585.841	41449.35
586.039	41588.61
586.236	40877.97
586.434	41244.55
586.631	41023.37
586.828	41062.29
587.026	40720.27
587.223	40818.58
587.42	40529.81
587.618	41037.71
587.815	40386.46
588.012	40122.27
588.21	40200.09
588.407	40277.91
588.604	39950.24
588.801	40017.82
588.999	39700.39
589.196	39774.11
589.393	39935.9
589.59	39620.52
589.787	39528.36
589.984	39163.82
590.182	39247.79
590.379	39317.42
590.576	38606.77
590.773	39143.34
590.97	38657.97
591.167	39040.94
591.364	38203.32
591.561	38803.38
591.758	38096.83
591.955	38399.93
592.152	38336.44
592.349	38266.81
592.546	38088.63
592.743	37752.77
592.94	37552.07
593.137	37937.09
593.334	37793.73
593.531	37468.1
593.727	37400.52
593.924	37459.91
594.121	37062.6
594.318	37404.61
594.515	36816.85
594.712	37386.18
594.908	36712.4
595.105	37048.27
595.302	36372.44
595.499	36659.15
595.696	36102.11
595.892	35944.41
596.089	36589.52
596.286	36661.2
596.482	36444.12
596.679	35792.86
596.876	36290.52
597.072	35692.51
597.269	35799.01
597.466	35469.28
597.662	35284.97
597.859	35194.85
598.055	35512.29
598.252	35182.57
598.448	35241.96
598.645	35119.08
598.841	34357.24
599.038	34674.67
599.234	34478.07
599.431	34521.07
599.627	34385.91
599.824	34437.11
600.02	33966.07
600.217	34287.6
600.413	34134.01
600.609	33929.21
600.806	33882.11
601.002	34072.57
601.198	33447.94
601.395	33462.27
601.591	33335.3
601.787	33617.92
601.984	33044.49
602.18	33490.94
602.376	33140.74
602.572	32851.98
602.769	33165.32
602.965	32587.79
603.161	32716.81
603.357	32145.43
603.553	32387.09
603.75	32387.09
603.946	32151.57
604.142	32417.81
604.338	31987.74
604.534	32077.85
604.73	31887.39
604.926	31615.01
605.122	31971.35
605.318	31471.65
605.514	31670.3
605.71	31752.22
605.906	31588.38
606.102	31500.32
606.298	31516.7
606.494	31373.35
606.69	30918.7
606.886	31133.73
607.082	30926.89
607.278	30894.12
607.474	30695.47
607.67	30976.04
607.866	30588.97
608.062	31023.14
608.257	30752.81
608.453	30769.19
608.649	30414.9
608.845	30517.29
609.041	30523.44
609.236	30494.77
609.432	30271.54
609.628	30238.77
609.824	29954.1
610.019	30146.61
610.215	30371.89
610.411	30031.93
610.606	30009.4
610.802	30033.97
610.998	29800.51
611.193	29976.63
611.389	29759.55
611.584	29775.93
611.78	29413.44
611.976	29696.06
612.171	29777.98
612.367	29333.57
612.562	29446.21
612.758	28936.26
612.953	28809.29
613.149	29372.48
613.344	29118.53
613.539	29728.83
613.735	29128.77
613.93	28872.78
614.126	28672.07
614.321	28997.7
614.517	28999.75
614.712	28710.99
614.907	28612.68
615.103	28715.08
615.298	28502.09
615.493	28741.71
615.688	28102.74
615.884	28932.17
616.079	28457.04
616.274	28448.85
616.47	28223.57
616.665	28215.38
616.86	28211.28
617.055	28078.16
617.25	28174.42
617.445	28498
617.641	27852.89
617.836	28098.64
618.031	27803.74
618.226	27727.96
618.421	27777.11
618.616	27977.81
618.811	27091.04
619.006	27562.08
619.201	27009.12
619.396	27121.76
619.591	26738.79
619.786	27072.61
619.981	26767.46
620.176	26992.74
620.371	26386.54
620.566	26751.08
620.761	26382.45
620.956	26347.63
621.151	25845.88
621.346	26466.41
621.541	25460.86
621.735	25933.94
621.93	25634.94
622.125	25532.54
622.32	25262.21
622.515	25585.79
622.709	25182.34
622.904	25061.51
623.099	24830.09
623.294	25028.74
623.488	24787.08
623.683	24719.49
623.878	24314
624.072	24375.44
624.267	24516.75
624.462	24258.7
624.656	24125.58
624.851	24017.04
625.046	23906.45
625.24	23783.57
625.435	23713.94
625.629	23640.22
625.824	23156.89
626.018	23564.44
626.213	22884.51
626.407	22986.91
626.602	22597.8
626.796	22732.97
626.991	22560.94
627.185	22513.83
627.38	22436.01
627.574	22352.04
627.768	22243.5
627.963	21786.8
628.157	21582.01
628.352	21860.53
628.546	21375.16
628.74	21694.64
628.935	21508.28
629.129	21149.89
629.323	20922.56
629.517	20930.75
629.712	20986.05
629.906	20998.34
630.1	20435.14
630.294	20752.58
630.489	20592.84
630.683	20730.05
630.877	20152.52
631.071	20013.26
631.265	19830.99
631.459	20240.59
631.653	19886.29
631.848	19822.8
632.042	19284.19
632.236	19667.16
632.43	19628.24
632.624	19656.92
632.818	19411.16
633.012	19331.29
633.206	19306.71
633.4	19044.57
633.594	18786.53
633.788	18911.46
633.982	18823.39
634.176	18618.6
634.369	18600.16
634.563	18329.83
634.757	18184.43
634.951	18389.22
635.145	18512.1
635.339	18284.78
635.533	18020.59
635.726	17924.33
635.92	17697.01
636.114	17668.34
636.308	17660.15
636.501	17543.41
636.695	17713.39
636.889	17271.03
637.083	17154.3
637.276	17275.13
637.47	17201.4
637.664	17041.66
637.857	16879.87
638.051	16947.45
638.244	16849.15
638.438	16693.51
638.632	16572.68
638.825	16509.19
639.019	16433.41
639.212	16201.99
639.406	16234.76
639.599	16216.33
639.793	15937.8
639.986	15845.65
640.18	15829.26
640.373	16091.4
640.567	15886.61
640.76	15571.22
640.954	15319.32
641.147	15591.7
641.34	15524.12
641.534	15487.25
641.727	15464.72
641.92	15327.51
642.114	15141.14
642.307	15229.21
642.5	15055.13
642.694	14825.76
642.887	14903.58
643.08	14981.4
643.273	14698.78
643.467	14342.44
643.66	14274.85
643.853	14352.68
644.046	14270.76
644.239	14307.62
644.432	14274.85
644.626	14217.51
644.819	14080.3
645.012	14018.86
645.205	13920.56
645.398	14016.81
645.591	13701.42
645.784	13590.83
645.977	13777.2
646.17	13701.42
646.363	13635.89
646.556	13365.56
646.749	13293.88
646.942	13359.41
647.135	13109.56
647.328	13191.48
647.521	13095.22
647.714	12978.49
647.907	13068.6
648.099	12724.54
648.292	12972.35
648.485	12622.14
648.678	12640.58
648.871	12568.9
649.064	12570.94
649.256	12740.93
649.449	12409.15
649.642	12515.65
649.835	12206.41
650.027	12241.22
650.22	12140.87
650.413	12155.21
650.605	12118.34
650.798	12003.66
650.991	11888.97
651.183	12077.38
651.376	11675.98
651.568	11854.16
651.761	11780.43
651.954	11934.03
652.146	11387.22
652.339	11655.5
652.531	11583.82
652.724	11336.02
652.916	11182.42
653.109	11262.29
653.301	11163.99
653.494	11229.52
653.686	11172.18
653.879	11239.76
654.071	10871.13
654.263	10967.38
654.456	10971.48
654.648	10719.58
654.84	10549.6
655.033	10590.56
655.225	10611.04
655.417	10672.48
655.61	10455.39
655.802	10565.98
655.994	10539.36
656.186	10363.23
656.379	10316.13
656.571	10203.49
656.763	10172.77
656.955	9978.22
657.148	10238.31
657.34	10121.57
657.532	9884.01
657.724	9851.24
657.916	9965.93
658.108	9994.6
658.3	9797.99
658.492	9826.67
658.684	9552.24
658.876	9595.25
659.068	9652.59
659.26	9492.85
659.452	9556.33
659.644	9525.61
659.836	9642.35
660.028	9488.75
660.22	9175.41
660.412	9335.15
660.604	9314.67
660.796	9279.86
660.988	9083.25
661.18	9070.97
661.372	9003.38
661.563	9007.48
661.755	8993.14
661.947	8970.62
662.139	8780.15
662.331	8690.04
662.522	8868.22
662.714	8620.41
662.906	8810.87
663.097	8812.92
663.289	8581.5
663.481	8403.33
663.673	8403.33
663.864	8515.97
664.056	8401.28
664.247	8399.23
664.439	8241.54
664.631	8296.83
664.822	8180.1
665.014	8051.08
665.205	8069.51
665.397	8180.1
665.588	8100.23
665.78	8063.36
665.971	7932.29
666.163	8094.08
666.354	7901.58
666.546	7811.46
666.737	7639.44
666.929	7893.38
667.12	7862.66
667.311	7809.42
667.503	7684.49
667.694	7657.87
667.885	7485.84
668.077	7653.77
668.268	7461.26
668.459	7631.24
668.651	7479.69
668.842	7547.28
669.033	7563.66
669.224	7389.58
669.416	7225.75
669.607	7401.87
669.798	7301.52
669.989	7242.13
670.18	7213.46
670.371	7037.33
670.563	6965.65
670.754	7049.62
670.945	7082.39
671.136	7039.38
671.327	7168.4
671.518	7027.09
671.709	6818.2
671.9	6996.37
672.091	6810.01
672.282	6799.77
672.473	6922.65
672.664	6961.56
672.855	6777.24
673.046	6828.44
673.237	6760.86
673.428	6740.38
673.619	6554.01
673.809	6551.96
674	6732.19
674.191	6578.59
674.382	6416.8
674.573	6486.43
674.764	6482.33
674.954	6646.17
675.145	6341.02
675.336	6371.74
675.527	6119.84
675.717	6361.5
675.908	6236.58
676.099	6412.7
676.289	6146.47
676.48	6160.8
676.671	6117.79
676.861	6171.04
677.052	6119.84
677.243	6156.71
677.433	6064.55
677.624	6228.38
677.814	6121.89
678.005	6113.7
678.195	5964.2
678.386	6087.08
678.576	5958.05
678.767	5894.57
678.957	5853.61
679.148	6128.03
679.338	5878.18
679.529	5814.7
679.719	5814.7
679.909	6035.88
680.1	5763.5
680.29	5970.34
680.481	5681.58
680.671	5849.51
680.861	5786.02
681.052	5634.47
681.242	5806.5
681.432	5622.19
681.622	5681.58
681.813	5622.19
682.003	5726.63
682.193	5466.54
682.383	5599.66
682.573	5464.49
682.764	5681.58
682.954	5446.06
683.144	5413.29
683.334	5489.07
683.524	5491.12
683.714	5575.08
683.904	5466.54
684.094	5493.16
684.284	5460.4
684.474	5341.61
684.664	5427.63
684.854	5368.24
685.044	5300.66
685.234	5145.01
685.424	5263.79
685.614	5292.46
685.804	5310.89
685.994	5206.45
686.184	5269.94
686.374	5237.17
686.564	5249.46
686.753	5210.54
686.943	4979.12
687.133	5151.15
687.323	4917.68
687.513	5106.1
687.702	5058.99
687.892	4919.73
688.082	5005.75
688.272	4972.98
688.461	5020.08
688.651	4886.97
688.841	4751.8
689.03	4766.14
689.22	4907.45
689.41	4866.49
689.599	4686.26
689.789	4772.28
689.979	4733.37
690.168	4630.97
690.358	4706.74
690.547	4692.41
690.737	4659.64
690.926	4702.65
691.116	4446.65
691.305	4528.57
691.495	4534.71
691.684	4577.72
691.874	4454.84
692.063	4522.43
692.252	4567.48
692.442	4440.51
692.631	4436.41
692.82	4420.03
693.01	4291.01
693.199	4465.08
693.388	4315.58
693.578	4278.72
693.767	4295.1
693.956	4252.1
694.146	4147.65
694.335	4184.51
694.524	4106.69
694.713	4233.66
694.902	4229.57
695.092	4143.55
695.281	4063.68
695.47	4010.43
695.659	4233.66
695.848	3922.37
696.037	3955.14
696.226	3971.52
696.415	3860.93
696.604	4037.06
696.793	3987.91
696.982	3987.91
697.171	3881.41
697.36	3819.97
697.549	3899.84
697.738	3721.67
697.927	3901.89
698.116	3879.36
698.305	3842.5
698.494	3815.88
698.683	3867.08
698.872	3828.17
699.061	3779.01
699.25	3707.34
699.438	3658.18
699.627	3594.7
699.816	3748.29
700.005	3664.33
700.193	3627.46
700.382	3711.43
700.571	3566.03
700.76	3729.86
700.948	3586.51
701.137	3662.28
701.326	3559.88
701.514	3582.41
701.703	3649.99
701.892	3598.79
702.08	3666.38
702.269	3418.57
702.457	3535.31
702.646	3494.35
702.834	3457.48
703.023	3363.28
703.212	3545.55
703.4	3408.33
703.589	3559.88
703.777	3445.2
703.965	3441.1
704.154	3383.76
704.342	3258.83
704.531	3361.23
704.719	3408.33
704.907	3316.17
705.096	3324.37
705.284	3359.18
705.472	3385.8
705.661	3330.51
705.849	3357.13
706.037	3174.86
706.226	3289.55
706.414	3232.21
706.602	3400.14
706.79	3422.67
706.979	3328.46
707.167	3355.08
707.355	3211.73
707.543	3404.24
707.731	3449.29
707.919	3359.18
708.107	3238.35
708.296	3129.81
708.484	3250.64
708.672	3322.32
708.86	3195.34
709.048	3154.38
709.236	3260.88
709.424	3146.19
709.612	3248.59
709.8	3205.58
709.988	3168.72
710.176	3193.3
710.364	3267.02
710.551	3297.74
710.739	3070.42
710.927	3168.72
711.115	3121.62
711.303	3189.2
711.491	3006.93
711.679	3082.7
711.866	3144.14
712.054	3127.76
712.242	3119.57
712.43	3226.06
712.617	2937.3
712.805	3181.01
712.993	3111.38
713.181	3004.88
713.368	3006.93
713.556	3054.03
713.744	3054.03
713.931	3117.52
714.119	3109.33
714.306	3144.14
714.494	3047.89
714.682	2980.31
714.869	3088.85
715.057	3086.8
715.244	3152.34
715.432	3228.11
715.619	3084.75
715.807	3080.66
715.994	2970.07
716.182	2996.69
716.369	3041.75
716.556	3146.19
716.744	2982.35
716.931	2927.06
717.119	3047.89
717.306	2830.8
717.493	2927.06
717.681	2972.11
717.868	2947.54
718.055	2929.11
718.242	2906.58
718.43	2970.07
718.617	3002.83
718.804	2970.07
718.991	2851.28
719.179	3070.42
719.366	2976.21
719.553	2886.1
719.74	2945.49
719.927	2978.26
720.114	2857.43
720.301	2959.83
720.488	2912.72
720.676	2808.28
720.863	2965.97
721.05	2886.1
721.237	2982.35
721.424	2873.81
721.611	2900.44
721.798	2773.46
721.985	2888.15
722.172	2783.7
722.358	2886.1
722.545	2931.16
722.732	2828.76
722.919	2793.94
723.106	2830.8
723.293	2779.61
723.48	2775.51
723.667	2851.28
723.853	3000.79
724.04	2849.24
724.227	2896.34
724.414	2900.44
724.6	2769.37
724.787	2929.11
724.974	3031.51
725.161	2998.74
725.347	2773.46
725.534	2703.83
725.72	2937.3
725.907	2863.57
726.094	2941.4
726.28	2849.24
726.467	2843.09
726.653	2865.62
726.84	2912.72
727.027	2925.01
727.213	2822.61
727.4	2898.39
727.586	2896.34
727.773	2855.38
727.959	2890.2
728.145	2871.76
728.332	2904.53
728.518	2935.25
728.705	2820.56
728.891	2843.09
729.077	2861.52
729.264	2800.09
729.45	2851.28
729.636	2935.25
729.823	2970.07
730.009	2922.96
730.195	2898.39
730.382	3013.07
730.568	2990.55
730.754	2849.24
730.94	2884.05
731.126	2916.82
731.313	2836.95
731.499	2865.62
731.685	2886.1
731.871	2906.58
732.057	2802.13
732.243	2900.44
732.429	2925.01
732.615	2841.04
732.801	2890.2
732.987	2832.85
733.173	2933.2
733.359	2972.11
733.545	2945.49
733.731	2929.11
733.917	2959.83
734.103	3004.88
734.289	2922.96
734.475	2910.68
734.661	3019.22
734.847	2857.43
735.033	2845.14
735.219	2982.35
735.404	2931.16
735.59	2935.25
735.776	2836.95
735.962	2894.29
736.148	2949.59
736.333	2957.78
736.519	2808.28
736.705	2875.86
736.89	2931.16
737.076	2957.78
737.262	2922.96
737.447	2912.72
737.633	2941.4
737.819	2986.45
738.004	2906.58
738.19	3023.31
738.375	2945.49
738.561	2847.19
738.747	2896.34
738.932	2912.72
739.118	2943.44
739.303	2982.35
739.489	2877.91
739.674	2882
739.859	2947.54
740.045	2898.39
740.23	2869.72
740.416	2800.09
740.601	2951.63
740.786	2867.67
740.972	2847.19
741.157	2904.53
741.342	2777.56
741.528	2949.59
741.713	2959.83
741.898	2902.48
742.084	2951.63
742.269	2978.26
742.454	2931.16
742.639	2734.55
742.824	2818.52
743.01	2925.01
743.195	2951.63
743.38	2828.76
743.565	2847.19
743.75	2916.82
743.935	2787.8
744.12	2806.23
744.305	2787.8
744.49	2777.56
744.675	2777.56
744.86	2814.42
745.045	2744.79
745.23	2695.64
745.415	2767.32
745.6	2798.04
745.785	2650.58
745.97	2779.61
746.155	2693.59
746.34	2697.69
746.525	2658.78
746.71	2765.27
746.895	2654.68
747.079	2636.25
747.264	2613.72
747.449	2642.39
747.634	2539.99
747.819	2679.26
748.003	2595.29
748.188	2677.21
748.373	2580.95
748.557	2591.19
748.742	2652.63
748.927	2652.63
749.111	2531.8
749.296	2654.68
749.481	2533.85
749.665	2562.52
749.85	2496.99
750.034	2378.2
750.219	2361.82
750.404	2494.94
750.588	2380.25
750.773	2484.7
750.957	2363.87
751.141	2353.63
751.326	2447.83
751.51	2396.64
751.695	2464.22
751.879	2363.87
752.064	2353.63
752.248	2376.16
752.432	2359.77
752.617	2304.48
752.801	2363.87
752.985	2316.76
753.17	2435.55
753.354	2284
753.538	2300.38
753.722	2193.89
753.907	2114.02
754.091	2216.41
754.275	2243.04
754.459	2230.75
754.643	2152.93
754.828	2214.37
755.012	2126.3
755.196	2032.1
755.38	2081.25
755.564	2064.86
755.748	2150.88
755.932	2216.41
756.116	1987.04
756.3	1997.28
756.484	2130.4
756.668	1970.66
756.852	2083.3
757.036	1995.23
757.22	1948.13
757.404	1980.9
757.588	1962.47
757.772	1933.79
757.956	1905.12
758.14	1987.04
758.323	1829.35
758.507	1956.32
758.691	1858.02
758.875	1874.4
759.059	1868.26
759.242	1782.24
759.426	1819.11
759.61	1927.65
759.794	1872.36
759.977	1929.7
760.161	1874.4
760.345	1886.69
760.528	1858.02
760.712	1815.01
760.895	1817.06
761.079	1868.26
761.263	1831.4
761.446	1688.04
761.63	1829.35
761.813	1788.39
761.997	1685.99
762.18	1749.48
762.364	1608.17
762.547	1608.17
762.731	1706.47
762.914	1645.03
763.098	1589.74
763.281	1712.61
763.464	1634.79
763.648	1636.84
763.831	1640.93
764.015	1604.07
764.198	1604.07
764.381	1608.17
764.564	1708.52
764.748	1616.36
764.931	1667.56
765.114	1583.59
765.297	1675.75
765.481	1522.15
765.664	1554.92
765.847	1630.7
766.03	1507.82
766.213	1569.26
766.397	1495.53
766.58	1565.16
766.763	1563.11
766.946	1606.12
767.129	1491.43
767.312	1520.1
767.495	1581.54
767.678	1473
767.861	1468.91
768.044	1505.77
768.227	1602.02
768.41	1511.91
768.593	1479.15
768.776	1561.06
768.959	1399.27
769.142	1389.03
769.324	1526.25
769.507	1493.48
769.69	1425.9
769.873	1456.62
770.056	1505.77
770.239	1473
770.421	1507.82
770.604	1395.18
770.787	1378.79
770.97	1456.62
771.152	1391.08
771.335	1292.78
771.518	1380.84
771.7	1419.75
771.883	1440.23
772.066	1370.6
772.248	1292.78
772.431	1475.05
772.613	1247.72
772.796	1327.6
772.978	1311.21
773.161	1346.03
773.343	1196.53
773.526	1294.83
773.708	1206.77
773.891	1243.63
774.073	1243.63
774.256	1362.41
774.438	1370.6
774.621	1147.37
774.803	1210.86
774.985	1235.44
775.168	1233.39
775.35	1253.87
775.532	1233.39
775.715	1186.29
775.897	1219.05
776.079	1180.14
776.261	1042.93
776.444	1163.76
776.626	1104.37
776.808	1270.25
776.99	1112.56
777.173	1133.04
777.355	985.58
777.537	1120.75
777.719	1069.55
777.901	1022.45
778.083	1137.13
778.265	1106.42
778.447	1014.26
778.629	1004.02
778.811	1034.74
778.993	1022.45
779.175	993.78
779.357	977.39
779.539	971.25
779.721	950.77
779.903	1010.16
780.085	1004.02
780.267	1016.3
780.449	924.15
780.631	1012.21
780.812	940.53
780.994	901.62
781.176	1014.26
781.358	838.13
781.54	811.51
781.721	842.23
781.903	899.57
782.085	829.94
782.267	967.15
782.448	811.51
782.63	926.19
782.812	752.12
782.993	819.7
783.175	850.42
783.357	842.23
783.538	920.05
783.72	840.18
783.901	834.04
784.083	836.08
784.264	866.8
784.446	745.97
784.627	762.36
784.809	709.11
784.99	750.07
785.172	850.42
785.353	838.13
785.535	786.93
785.716	846.32
785.897	707.06
786.079	770.55
786.26	846.32
786.441	725.49
786.623	678.39
786.804	850.42
786.985	672.25
787.167	680.44
787.348	686.58
787.529	700.92
787.71	733.68
787.891	678.39
788.073	664.05
788.254	655.86
788.435	727.54
788.616	655.86
788.797	694.77
788.978	725.49
789.159	645.62
789.34	664.05
789.522	637.43
789.703	612.85
789.884	623.09
790.065	614.9
790.246	657.91
790.427	541.18
790.607	614.9
790.788	532.98
790.969	553.46
791.15	641.53
791.331	600.57
791.512	524.79
791.693	545.27
791.874	557.56
792.054	606.71
792.235	612.85
792.416	473.59
792.597	557.56
792.778	473.59
792.958	596.47
793.139	522.74
793.32	594.42
793.5	475.64
793.681	547.32
793.862	477.69
794.042	494.07
794.223	473.59
794.404	508.41
794.584	449.02
794.765	553.46
794.945	571.9
795.126	522.74
795.306	594.42
795.487	475.64
795.667	528.89
795.848	508.41
796.028	469.5
796.209	530.94
796.389	518.65
796.57	494.07
796.75	385.53
796.93	494.07
797.111	481.78
797.291	451.07
797.471	475.64
797.652	436.73
797.832	379.39
798.012	438.78
798.192	332.28
798.373	451.07
798.553	430.59
798.733	442.87
798.913	371.19
799.093	451.07
799.274	428.54
799.454	508.41
799.634	432.63
799.814	449.02
799.994	363
800.174	381.43
800.354	414.2
800.534	299.52
800.714	449.02
800.894	383.48
801.074	379.39
801.254	463.35
801.434	354.81
801.614	387.58
801.794	373.24
801.974	1049.07
802.154	416.25
802.334	418.3
802.514	313.85
802.693	401.91
802.873	365.05
803.053	348.67
803.233	406.01
803.413	354.81
803.592	375.29
803.772	328.19
803.952	334.33
804.131	373.24
804.311	389.63
804.491	360.95
804.67	358.91
804.85	338.43
805.03	303.61
805.209	346.62
805.389	369.15
805.568	276.99
805.748	381.43
805.928	324.09
806.107	338.43
806.287	322.04
806.466	352.76
806.646	326.14
806.825	295.42
807.004	315.9
807.184	262.65
807.363	354.81
807.543	350.71
807.722	240.12
807.901	311.8
808.081	309.76
808.26	297.47
808.439	246.27
808.619	289.28
808.798	336.38
808.977	289.28
809.156	315.9
809.336	184.83
809.515	381.43
809.694	258.56
809.873	250.36
810.052	279.04
810.231	309.76
810.411	291.32
810.59	268.8
810.769	246.27
810.948	203.26
811.127	221.69
811.306	293.37
811.485	229.88
811.664	330.23
811.843	209.4
812.022	272.89
812.201	303.61
812.38	221.69
812.559	258.56
812.737	262.65
812.916	199.16
813.095	283.13
813.274	242.17
813.453	371.19
813.632	258.56
813.811	209.4
813.989	272.89
814.168	207.36
814.347	168.45
814.526	309.76
814.704	287.23
814.883	219.64
815.062	254.46
815.24	199.16
815.419	164.35
815.598	244.22
815.776	190.97
815.955	293.37
816.133	147.97
816.312	256.51
816.49	242.17
816.669	244.22
816.847	168.45
817.026	190.97
817.204	160.25
817.383	262.65
817.561	170.49
817.74	242.17
817.918	299.52
818.097	170.49
818.275	250.36
818.453	233.98
818.632	213.5
818.81	188.93
818.988	287.23
819.167	188.93
819.345	170.49
819.523	176.64
819.701	238.08
819.879	315.9
820.058	217.6
820.236	184.83
820.414	221.69
820.592	170.49
820.77	223.74
820.948	240.12
821.127	166.4
821.305	258.56
821.483	172.54
821.661	217.6
821.839	119.29
822.017	190.97
822.195	160.25
822.373	209.4
822.551	107.01
822.729	182.78
822.907	207.36
823.085	274.94
823.262	186.88
823.44	205.31
823.618	193.02
823.796	203.26
823.974	205.31
824.152	160.25
824.329	250.36
824.507	197.12
824.685	221.69
824.863	117.25
825.04	117.25
825.218	180.73
825.396	166.4
825.574	121.34
825.751	162.3
825.929	201.21
826.107	147.97
826.284	137.73
826.462	244.22
826.639	193.02
826.817	150.01
826.994	145.92
827.172	176.64
827.349	211.45
827.527	92.67
827.704	180.73
827.882	266.75
828.059	190.97
828.237	94.72
828.414	123.39
828.591	111.1
828.769	190.97
828.946	156.16
829.124	119.29
829.301	131.58
829.478	166.4
829.655	217.6
829.833	197.12
830.01	100.86
830.187	199.16
830.364	139.77
830.542	205.31
830.719	217.6
830.896	96.77
831.073	190.97
831.25	145.92
831.427	111.1
831.604	111.1
831.782	158.21
831.959	184.83
832.136	90.62
832.313	145.92
832.49	107.01
832.667	176.64
832.844	55.81
833.021	98.81
833.198	150.01
833.374	145.92
833.551	156.16
833.728	107.01
833.905	182.78
834.082	90.62
834.259	111.1
834.436	111.1
834.612	37.38
834.789	135.68
834.966	160.25
835.143	164.35
835.319	-5.63
835.496	139.77
835.673	86.53
835.85	152.06
836.026	90.62
836.203	125.44
836.38	57.86
836.556	107.01
836.733	141.82
836.909	125.44
837.086	66.05
837.262	0.51
837.439	64
837.616	78.33
837.792	117.25
837.968	80.38
838.145	158.21
838.321	139.77
838.498	86.53
838.674	156.16
838.851	74.24
839.027	141.82
839.203	82.43
839.38	57.86
839.556	47.62
839.732	76.29
839.909	39.42
840.085	190.97
840.261	76.29
840.437	68.09
840.614	61.95
840.79	166.4
840.966	68.09
841.142	188.93
841.318	152.06
841.494	117.25
841.671	94.72
841.847	53.76
842.023	82.43
842.199	125.44
842.375	74.24
842.551	107.01
842.727	12.8
842.903	162.3
843.079	59.9
843.255	102.91
843.431	117.25
843.607	61.95
843.783	82.43
843.959	74.24
844.134	49.66
844.31	94.72
844.486	78.33
844.662	29.18
844.838	-30.21
845.013	152.06
845.189	78.33
845.365	70.14
845.541	82.43
845.716	43.52
845.892	131.58
846.068	88.57
846.244	53.76
846.419	66.05
846.595	33.28
846.77	104.96
846.946	70.14
847.122	35.33
847.297	47.62
847.473	145.92
847.648	43.52
847.824	150.01
847.999	37.38
848.175	31.23
848.35	88.57
848.526	121.34
848.701	111.1
848.876	121.34
849.052	84.48
849.227	33.28
849.403	43.52
849.578	39.42
849.753	59.9
849.929	170.49
850.104	16.9
850.279	186.88
850.454	90.62
850.63	41.47
850.805	47.62
850.98	25.09
851.155	133.63
851.33	55.81
851.505	8.7
851.681	84.48
851.856	39.42
852.031	64
852.206	88.57
852.381	102.91
852.556	82.43
852.731	94.72
852.906	100.86
853.081	6.66
853.256	35.33
853.431	100.86
853.606	70.14
853.781	14.85
853.956	-24.06
854.131	94.72
854.305	72.19
854.48	121.34
854.655	-7.68
854.83	102.91
855.005	2.56
855.18	33.28
855.354	45.57
855.529	59.9
855.704	-54.78
855.879	41.47
856.053	-36.35
856.228	72.19
856.403	-11.78
856.577	119.29
856.752	59.9
856.926	45.57
857.101	70.14
857.276	23.04
857.45	49.66
857.625	47.62
857.799	14.85
857.974	39.42
858.148	100.86
858.323	-5.63
858.497	31.23
858.672	4.61
858.846	57.86
859.02	53.76
859.195	-62.98
859.369	39.42
859.543	-5.63
859.718	-32.26
859.892	18.94
860.066	0.51
860.241	14.85
860.415	66.05
860.589	61.95
860.763	66.05
860.938	57.86
861.112	0.51
861.286	45.57
861.46	66.05
861.634	-3.58
861.808	37.38
861.982	27.14
862.157	51.71
862.331	109.05
862.505	25.09
862.679	29.18
862.853	55.81
863.027	84.48
863.201	104.96
863.375	4.61
863.549	64
863.722	64
863.896	27.14
864.07	0.51
864.244	57.86
864.418	129.53
864.592	20.99
864.766	-7.68
864.939	49.66
865.113	76.29
865.287	23.04
865.461	-48.64
865.634	-22.02
865.808	-26.11
865.982	29.18
866.156	14.85
866.329	-5.63
866.503	51.71
866.676	49.66
866.85	35.33
867.024	18.94
867.197	-5.63
867.371	27.14
867.544	-38.4
867.718	-40.45
867.891	96.77
868.065	-9.73
868.238	31.23
868.412	68.09
868.585	-7.68
868.759	72.19
868.932	61.95
869.105	23.04
869.279	47.62
869.452	6.66
869.625	107.01
869.799	72.19
869.972	-11.78
870.145	109.05
870.319	35.33
870.492	-19.97
870.665	31.23
870.838	55.81
871.011	88.57
871.185	2.56
871.358	-9.73
871.531	37.38
871.704	72.19
871.877	18.94
872.05	39.42
872.223	2.56
872.396	25.09
872.569	-50.69
872.742	23.04
872.915	37.38
873.088	12.8
873.261	2.56
873.434	35.33
873.607	53.76
873.78	35.33
873.953	2.56
874.126	2.56
874.299	47.62
874.471	35.33
874.644	0.51
874.817	25.09
874.99	39.42
875.163	39.42
875.335	29.18
875.508	41.47
875.681	51.71
875.853	-13.82
876.026	53.76
876.199	49.66
876.371	109.05
876.544	8.7
876.717	-28.16
876.889	43.52
877.062	47.62
877.234	37.38
877.407	-1.54
877.579	45.57
877.752	-40.45
877.924	68.09
878.097	23.04
878.269	14.85
878.442	10.75
878.614	-26.11
878.786	-30.21
878.959	61.95
879.131	35.33
879.303	-11.78
879.476	-1.54
879.648	-26.11
879.82	-5.63
879.993	31.23
880.165	-1.54
880.337	25.09
880.509	43.52
880.681	-95.74
880.854	39.42
881.026	31.23
881.198	84.48
881.37	43.52
881.542	90.62
881.714	23.04
881.886	-50.69
882.058	14.85
882.23	49.66
882.402	-40.45
882.574	-50.69
882.746	45.57
882.918	-11.78
883.09	39.42
883.262	-81.41
883.434	-22.02
883.606	-32.26
883.778	-28.16
883.95	64
884.122	-15.87
884.293	59.9
884.465	64
884.637	6.66
884.809	47.62
884.98	-15.87
885.152	-40.45
885.324	18.94
885.496	0.51
885.667	0.51
885.839	2.56
886.011	53.76
886.182	-34.3
886.354	41.47
886.525	-17.92
886.697	-17.92
886.869	8.7
887.04	18.94
887.212	43.52
887.383	98.81
887.555	-28.16
887.726	51.71
887.897	8.7
888.069	-44.54
888.24	31.23
888.412	10.75
888.583	-19.97
888.754	-7.68
888.926	8.7
889.097	-13.82
889.268	20.99
889.44	68.09
889.611	31.23
889.782	-32.26
889.953	-13.82
890.125	27.14
890.296	-42.5
890.467	-32.26
890.638	4.61
890.809	4.61
890.98	-48.64
891.151	57.86
891.323	94.72
891.494	45.57
891.665	-17.92
891.836	-13.82
892.007	33.28
892.178	84.48
892.349	39.42
892.52	6.66
892.691	55.81
892.862	-67.07
893.032	-28.16
893.203	-24.06
893.374	16.9
893.545	43.52
893.716	-19.97
893.887	92.67
894.057	82.43
894.228	-5.63
894.399	64
894.57	78.33
894.74	25.09
894.911	-1.54
895.082	-32.26
895.253	43.52
895.423	47.62
895.594	51.71
895.764	-26.11
895.935	31.23
896.106	74.24
896.276	-5.63
896.447	16.9
896.617	-9.73
896.788	-44.54
896.958	33.28
897.129	-19.97
897.299	47.62
897.47	37.38
897.64	29.18
897.81	-34.3
897.981	-7.68
898.151	-44.54
898.322	27.14
898.492	6.66
898.662	-17.92
898.832	-19.97
899.003	-1.54
899.173	18.94
899.343	18.94
899.513	6.66
