Data from USB4F104151__41__12-59-04-585.txt Node

Date: Fri Mar 14 12:59:04 EDT 2025
User: louis
Spectrometer: USB4F10415
Trigger mode: 4
Integration Time (sec): 1.000000E-2
Scans to average: 1
Electric dark correction enabled: true
Nonlinearity correction enabled: false
Boxcar width: 0
XAxis mode: Wavelengths
Number of Pixels in Spectrum: 3648
>>>>>Begin Spectral Data<<<<<
178.204	-37.03
178.424	-37.03
178.644	-37.03
178.864	-41.13
179.084	-90.28
179.304	22.36
179.524	32.6
179.744	-49.32
179.964	-8.36
180.184	-59.56
180.404	-86.19
180.624	1.88
180.844	36.69
181.064	-24.75
181.283	16.21
181.503	67.41
181.723	51.03
181.943	-55.47
182.163	28.5
182.383	-47.27
182.602	8.02
182.822	8.02
183.042	32.6
183.262	34.64
183.482	-8.36
183.701	8.02
183.921	-4.27
184.141	48.98
184.361	51.03
184.58	-24.75
184.8	51.03
185.02	30.55
185.239	-2.22
185.459	59.22
185.679	-0.17
185.898	3.93
186.118	69.46
186.338	26.45
186.557	87.89
186.777	-41.13
186.997	22.36
187.216	-2.22
187.436	59.22
187.655	3.93
187.875	81.75
188.095	32.6
188.314	-32.94
188.534	24.4
188.753	-16.55
188.973	42.84
189.192	36.69
189.412	-26.79
189.631	16.21
189.851	-24.75
190.07	-30.89
190.29	8.02
190.509	-16.55
190.729	12.12
190.948	-2.22
191.168	132.95
191.387	67.41
191.607	34.64
191.826	8.02
192.045	38.74
192.265	75.6
192.484	16.21
192.704	20.31
192.923	5.97
193.142	20.31
193.362	-4.27
193.581	42.84
193.8	40.79
194.02	24.4
194.239	-4.27
194.458	48.98
194.678	48.98
194.897	-28.84
195.116	14.17
195.335	5.97
195.555	28.5
195.774	12.12
195.993	65.36
196.212	22.36
196.432	61.27
196.651	34.64
196.87	24.4
197.089	10.07
197.308	48.98
197.528	48.98
197.747	-41.13
197.966	3.93
198.185	10.07
198.404	-30.89
198.623	-32.94
198.842	34.64
199.062	28.5
199.281	-4.27
199.5	46.93
199.719	-43.18
199.938	38.74
200.157	24.4
200.376	42.84
200.595	-2.22
200.814	14.17
201.033	42.84
201.252	32.6
201.471	3.93
201.69	1.88
201.909	18.26
202.128	20.31
202.347	-6.31
202.566	10.07
202.785	-6.31
203.004	36.69
203.223	100.18
203.442	-26.79
203.661	81.75
203.879	22.36
204.098	32.6
204.317	-55.47
204.536	44.88
204.755	3.93
204.974	-30.89
205.193	-6.31
205.411	96.08
205.63	-28.84
205.849	32.6
206.068	89.94
206.287	-26.79
206.505	24.4
206.724	16.21
206.943	-6.31
207.162	114.52
207.381	71.51
207.599	71.51
207.818	65.36
208.037	69.46
208.255	22.36
208.474	75.6
208.693	-20.65
208.911	98.13
209.13	38.74
209.349	22.36
209.567	18.26
209.786	20.31
210.005	24.4
210.223	-37.03
210.442	-47.27
210.661	14.17
210.879	-63.66
211.098	-24.75
211.316	-2.22
211.535	28.5
211.753	-30.89
211.972	28.5
212.191	-39.08
212.409	42.84
212.628	-4.27
212.846	-28.84
213.065	24.4
213.283	69.46
213.502	3.93
213.72	44.88
213.938	28.5
214.157	34.64
214.375	36.69
214.594	67.41
214.812	65.36
215.031	34.64
215.249	51.03
215.467	16.21
215.686	24.4
215.904	5.97
216.122	5.97
216.341	18.26
216.559	-39.08
216.778	40.79
216.996	-34.99
217.214	1.88
217.432	24.4
217.651	-16.55
217.869	-34.99
218.087	38.74
218.306	42.84
218.524	48.98
218.742	34.64
218.96	71.51
219.179	57.17
219.397	26.45
219.615	20.31
219.833	26.45
220.051	61.27
220.27	48.98
220.488	-26.79
220.706	30.55
220.924	16.21
221.142	10.07
221.36	3.93
221.578	53.08
221.796	63.32
222.015	-14.51
222.233	46.93
222.451	124.76
222.669	77.65
222.887	30.55
223.105	114.52
223.323	18.26
223.541	53.08
223.759	1.88
223.977	-51.37
224.195	12.12
224.413	38.74
224.631	26.45
224.849	-125.1
225.067	20.31
225.285	53.08
225.503	5.97
225.721	-14.51
225.939	-2.22
226.157	16.21
226.375	57.17
226.592	16.21
226.81	40.79
227.028	34.64
227.246	32.6
227.464	1.88
227.682	44.88
227.9	36.69
228.117	36.69
228.335	-16.55
228.553	-22.7
228.771	51.03
228.989	3.93
229.206	44.88
229.424	-14.51
229.642	71.51
229.86	51.03
230.077	16.21
230.295	-24.75
230.513	18.26
230.731	36.69
230.948	8.02
231.166	106.32
231.384	-18.6
231.601	-14.51
231.819	100.18
232.037	-24.75
232.254	40.79
232.472	85.84
232.689	14.17
232.907	20.31
233.125	-10.41
233.342	22.36
233.56	3.93
233.777	3.93
233.995	85.84
234.213	-34.99
234.43	8.02
234.648	28.5
234.865	77.65
235.083	-2.22
235.3	-4.27
235.518	48.98
235.735	38.74
235.953	61.27
236.17	81.75
236.388	-8.36
236.605	42.84
236.822	-8.36
237.04	-63.66
237.257	16.21
237.475	8.02
237.692	67.41
237.909	48.98
238.127	8.02
238.344	26.45
238.562	-2.22
238.779	51.03
238.996	46.93
239.214	-16.55
239.431	65.36
239.648	-37.03
239.865	-0.17
240.083	16.21
240.3	-6.31
240.517	-34.99
240.735	36.69
240.952	1.88
241.169	75.6
241.386	-37.03
241.603	32.6
241.821	-14.51
242.038	55.12
242.255	28.5
242.472	-0.17
242.689	51.03
242.907	69.46
243.124	40.79
243.341	-8.36
243.558	-39.08
243.775	55.12
243.992	-37.03
244.209	73.56
244.426	-0.17
244.643	-0.17
244.86	-39.08
245.078	-22.7
245.295	48.98
245.512	59.22
245.729	-0.17
245.946	48.98
246.163	-4.27
246.38	5.97
246.597	14.17
246.814	44.88
247.031	12.12
247.248	18.26
247.464	18.26
247.681	8.02
247.898	24.4
248.115	40.79
248.332	14.17
248.549	32.6
248.766	85.84
248.983	79.7
249.2	3.93
249.417	59.22
249.633	-28.84
249.85	100.18
250.067	48.98
250.284	59.22
250.501	14.17
250.717	-6.31
250.934	-6.31
251.151	-16.55
251.368	5.97
251.585	57.17
251.801	12.12
252.018	28.5
252.235	36.69
252.451	16.21
252.668	-0.17
252.885	30.55
253.102	12.12
253.318	12.12
253.535	-10.41
253.752	57.17
253.968	38.74
254.185	16.21
254.401	-22.7
254.618	57.17
254.835	40.79
255.051	16.21
255.268	61.27
255.484	63.32
255.701	-32.94
255.917	26.45
256.134	-8.36
256.351	-26.79
256.567	-22.7
256.784	44.88
257	12.12
257.217	67.41
257.433	-4.27
257.65	-28.84
257.866	28.5
258.082	-22.7
258.299	30.55
258.515	28.5
258.732	5.97
258.948	48.98
259.165	-47.27
259.381	-6.31
259.597	28.5
259.814	63.32
260.03	12.12
260.246	-69.8
260.463	-22.7
260.679	28.5
260.895	36.69
261.112	34.64
261.328	-69.8
261.544	112.47
261.761	-4.27
261.977	-0.17
262.193	53.08
262.409	53.08
262.626	53.08
262.842	44.88
263.058	44.88
263.274	94.04
263.49	8.02
263.707	44.88
263.923	44.88
264.139	20.31
264.355	67.41
264.571	79.7
264.787	69.46
265.004	-0.17
265.22	14.17
265.436	48.98
265.652	34.64
265.868	-14.51
266.084	-6.31
266.3	51.03
266.516	-0.17
266.732	-47.27
266.948	-20.65
267.164	48.98
267.38	34.64
267.596	34.64
267.812	-4.27
268.028	-18.6
268.244	28.5
268.46	-2.22
268.676	12.12
268.892	69.46
269.108	-6.31
269.324	-47.27
269.54	12.12
269.756	40.79
269.972	-8.36
270.188	-6.31
270.403	-12.46
270.619	18.26
270.835	30.55
271.051	40.79
271.267	-10.41
271.483	63.32
271.698	-2.22
271.914	-2.22
272.13	114.52
272.346	34.64
272.562	5.97
272.777	30.55
272.993	55.12
273.209	73.56
273.425	-4.27
273.64	8.02
273.856	24.4
274.072	46.93
274.287	30.55
274.503	16.21
274.719	51.03
274.934	-24.75
275.15	36.69
275.366	46.93
275.581	10.07
275.797	91.99
276.012	30.55
276.228	55.12
276.444	63.32
276.659	75.6
276.875	-26.79
277.09	40.79
277.306	30.55
277.521	18.26
277.737	-2.22
277.952	61.27
278.168	5.97
278.383	-14.51
278.599	12.12
278.814	-18.6
279.03	26.45
279.245	3.93
279.461	10.07
279.676	104.28
279.892	5.97
280.107	3.93
280.322	-6.31
280.538	3.93
280.753	-16.55
280.969	40.79
281.184	96.08
281.399	65.36
281.615	22.36
281.83	8.02
282.045	-20.65
282.26	108.37
282.476	-22.7
282.691	-0.17
282.906	34.64
283.122	-4.27
283.337	24.4
283.552	5.97
283.767	1.88
283.983	28.5
284.198	-26.79
284.413	20.31
284.628	-2.22
284.843	55.12
285.058	38.74
285.274	34.64
285.489	59.22
285.704	-8.36
285.919	-6.31
286.134	-4.27
286.349	61.27
286.564	83.8
286.779	57.17
286.995	-10.41
287.21	51.03
287.425	8.02
287.64	-24.75
287.855	-8.36
288.07	-10.41
288.285	-16.55
288.5	22.36
288.715	-30.89
288.93	30.55
289.145	-63.66
289.36	83.8
289.575	36.69
289.79	44.88
290.004	28.5
290.219	-26.79
290.434	38.74
290.649	-8.36
290.864	-6.31
291.079	20.31
291.294	16.21
291.509	20.31
291.724	-49.32
291.938	40.79
292.153	14.17
292.368	98.13
292.583	46.93
292.798	-2.22
293.012	26.45
293.227	44.88
293.442	18.26
293.657	34.64
293.871	28.5
294.086	42.84
294.301	55.12
294.516	8.02
294.73	59.22
294.945	46.93
295.16	30.55
295.374	16.21
295.589	1.88
295.804	-6.31
296.018	-51.37
296.233	71.51
296.447	51.03
296.662	83.8
296.877	98.13
297.091	55.12
297.306	32.6
297.52	24.4
297.735	-16.55
297.949	63.32
298.164	46.93
298.378	48.98
298.593	57.17
298.807	67.41
299.022	24.4
299.236	102.23
299.451	42.84
299.665	32.6
299.88	-12.46
300.094	-12.46
300.309	46.93
300.523	3.93
300.737	22.36
300.952	-0.17
301.166	5.97
301.381	16.21
301.595	-4.27
301.809	71.51
302.024	-6.31
302.238	46.93
302.452	30.55
302.667	65.36
302.881	16.21
303.095	-16.55
303.309	-14.51
303.524	26.45
303.738	46.93
303.952	-16.55
304.166	51.03
304.381	3.93
304.595	48.98
304.809	-41.13
305.023	28.5
305.237	10.07
305.452	42.84
305.666	22.36
305.88	8.02
306.094	79.7
306.308	24.4
306.522	34.64
306.736	91.99
306.95	69.46
307.164	87.89
307.379	5.97
307.593	40.79
307.807	-55.47
308.021	16.21
308.235	-8.36
308.449	-61.61
308.663	1.88
308.877	65.36
309.091	40.79
309.305	79.7
309.519	34.64
309.733	40.79
309.947	-34.99
310.161	83.8
310.374	38.74
310.588	44.88
310.802	8.02
311.016	40.79
311.23	1.88
311.444	1.88
311.658	40.79
311.872	20.31
312.085	-2.22
312.299	-16.55
312.513	128.85
312.727	-12.46
312.941	16.21
313.154	110.42
313.368	36.69
313.582	73.56
313.796	26.45
314.009	32.6
314.223	63.32
314.437	38.74
314.651	-49.32
314.864	53.08
315.078	-12.46
315.292	18.26
315.505	36.69
315.719	24.4
315.933	61.27
316.146	73.56
316.36	10.07
316.573	20.31
316.787	32.6
317.001	14.17
317.214	12.12
317.428	36.69
317.641	46.93
317.855	34.64
318.068	65.36
318.282	44.88
318.495	-16.55
318.709	-0.17
318.922	20.31
319.136	42.84
319.349	5.97
319.563	-8.36
319.776	69.46
319.99	34.64
320.203	57.17
320.417	57.17
320.63	51.03
320.843	-14.51
321.057	28.5
321.27	94.04
321.483	65.36
321.697	83.8
321.91	83.8
322.124	8.02
322.337	63.32
322.55	32.6
322.763	65.36
322.977	42.84
323.19	-39.08
323.403	40.79
323.617	55.12
323.83	110.42
324.043	89.94
324.256	-0.17
324.469	34.64
324.683	53.08
324.896	5.97
325.109	30.55
325.322	-6.31
325.535	57.17
325.748	34.64
325.962	42.84
326.175	30.55
326.388	57.17
326.601	75.6
326.814	20.31
327.027	87.89
327.24	147.28
327.453	8.02
327.666	-0.17
327.879	28.5
328.092	3.93
328.305	-10.41
328.518	48.98
328.731	91.99
328.944	20.31
329.157	46.93
329.37	-4.27
329.583	40.79
329.796	30.55
330.009	18.26
330.222	46.93
330.435	8.02
330.648	14.17
330.861	10.07
331.073	59.22
331.286	53.08
331.499	63.32
331.712	34.64
331.925	26.45
332.138	12.12
332.35	57.17
332.563	26.45
332.776	18.26
332.989	57.17
333.202	14.17
333.414	28.5
333.627	-2.22
333.84	8.02
334.053	-10.41
334.265	-2.22
334.478	44.88
334.691	42.84
334.903	59.22
335.116	126.8
335.329	-49.32
335.541	-30.89
335.754	75.6
335.966	10.07
336.179	100.18
336.392	28.5
336.604	75.6
336.817	-4.27
337.029	12.12
337.242	22.36
337.454	34.64
337.667	63.32
337.88	14.17
338.092	-6.31
338.305	16.21
338.517	-8.36
338.729	1.88
338.942	-30.89
339.154	-4.27
339.367	26.45
339.579	67.41
339.792	1.88
340.004	55.12
340.217	120.66
340.429	51.03
340.641	20.31
340.854	55.12
341.066	16.21
341.278	91.99
341.491	-41.13
341.703	18.26
341.915	5.97
342.128	48.98
342.34	83.8
342.552	-0.17
342.764	-4.27
342.977	79.7
343.189	32.6
343.401	77.65
343.613	12.12
343.826	81.75
344.038	-8.36
344.25	12.12
344.462	14.17
344.674	63.32
344.886	55.12
345.099	36.69
345.311	96.08
345.523	8.02
345.735	89.94
345.947	65.36
346.159	-14.51
346.371	57.17
346.583	81.75
346.795	1.88
347.007	1.88
347.219	73.56
347.431	-34.99
347.643	106.32
347.855	34.64
348.067	-49.32
348.279	-22.7
348.491	114.52
348.703	12.12
348.915	73.56
349.127	-16.55
349.339	34.64
349.551	18.26
349.763	30.55
349.975	14.17
350.187	12.12
350.399	57.17
350.61	36.69
350.822	83.8
351.034	48.98
351.246	59.22
351.458	16.21
351.669	-26.79
351.881	36.69
352.093	61.27
352.305	-30.89
352.517	-0.17
352.728	5.97
352.94	22.36
353.152	-24.75
353.363	75.6
353.575	42.84
353.787	81.75
353.999	57.17
354.21	30.55
354.422	65.36
354.633	83.8
354.845	77.65
355.057	32.6
355.268	5.97
355.48	48.98
355.692	10.07
355.903	3.93
356.115	51.03
356.326	8.02
356.538	16.21
356.749	-10.41
356.961	57.17
357.172	-41.13
357.384	-14.51
357.595	96.08
357.807	51.03
358.018	42.84
358.23	67.41
358.441	38.74
358.653	14.17
358.864	8.02
359.075	36.69
359.287	46.93
359.498	24.4
359.709	12.12
359.921	-8.36
360.132	-14.51
360.344	53.08
360.555	34.64
360.766	40.79
360.977	16.21
361.189	10.07
361.4	-16.55
361.611	12.12
361.823	-8.36
362.034	53.08
362.245	-53.42
362.456	24.4
362.667	26.45
362.879	-63.66
363.09	-39.08
363.301	67.41
363.512	65.36
363.723	-18.6
363.935	63.32
364.146	36.69
364.357	22.36
364.568	53.08
364.779	-71.85
364.99	8.02
365.201	44.88
365.412	36.69
365.623	16.21
365.834	8.02
366.045	-28.84
366.256	55.12
366.467	69.46
366.678	-0.17
366.889	36.69
367.1	77.65
367.311	65.36
367.522	51.03
367.733	34.64
367.944	69.46
368.155	32.6
368.366	3.93
368.577	110.42
368.788	-20.65
368.999	-30.89
369.209	61.27
369.42	75.6
369.631	106.32
369.842	57.17
370.053	-10.41
370.264	57.17
370.474	5.97
370.685	-30.89
370.896	-32.94
371.107	94.04
371.317	20.31
371.528	83.8
371.739	-53.42
371.95	40.79
372.16	75.6
372.371	10.07
372.582	48.98
372.792	-6.31
373.003	55.12
373.214	-20.65
373.424	18.26
373.635	36.69
373.846	24.4
374.056	34.64
374.267	16.21
374.477	36.69
374.688	32.6
374.898	26.45
375.109	34.64
375.319	44.88
375.53	24.4
375.74	63.32
375.951	46.93
376.161	75.6
376.372	57.17
376.582	-4.27
376.793	16.21
377.003	114.52
377.214	5.97
377.424	-41.13
377.635	63.32
377.845	42.84
378.055	57.17
378.266	83.8
378.476	5.97
378.686	71.51
378.897	83.8
379.107	40.79
379.317	44.88
379.528	10.07
379.738	-18.6
379.948	-4.27
380.158	57.17
380.369	46.93
380.579	48.98
380.789	8.02
380.999	24.4
381.21	28.5
381.42	38.74
381.63	-30.89
381.84	61.27
382.05	73.56
382.261	18.26
382.471	120.66
382.681	30.55
382.891	81.75
383.101	71.51
383.311	20.31
383.521	40.79
383.731	73.56
383.941	46.93
384.151	-14.51
384.361	1.88
384.571	34.64
384.781	36.69
384.991	-2.22
385.201	77.65
385.411	38.74
385.621	36.69
385.831	16.21
386.041	30.55
386.251	-37.03
386.461	96.08
386.671	61.27
386.881	75.6
387.091	46.93
387.301	63.32
387.511	63.32
387.72	77.65
387.93	40.79
388.14	51.03
388.35	5.97
388.56	-8.36
388.769	75.6
388.979	28.5
389.189	20.31
389.399	71.51
389.609	32.6
389.818	34.64
390.028	30.55
390.238	34.64
390.447	48.98
390.657	102.23
390.867	1.88
391.076	48.98
391.286	3.93
391.496	59.22
391.705	-10.41
391.915	67.41
392.125	126.8
392.334	63.32
392.544	34.64
392.753	73.56
392.963	26.45
393.172	18.26
393.382	30.55
393.591	42.84
393.801	120.66
394.01	57.17
394.22	67.41
394.429	38.74
394.639	67.41
394.848	67.41
395.058	46.93
395.267	122.71
395.477	1.88
395.686	69.46
395.895	24.4
396.105	71.51
396.314	77.65
396.524	94.04
396.733	57.17
396.942	18.26
397.152	73.56
397.361	114.52
397.57	-30.89
397.78	40.79
397.989	81.75
398.198	59.22
398.407	87.89
398.617	81.75
398.826	40.79
399.035	42.84
399.244	46.93
399.453	67.41
399.663	26.45
399.872	65.36
400.081	-24.75
400.29	40.79
400.499	75.6
400.708	51.03
400.917	53.08
401.127	10.07
401.336	120.66
401.545	75.6
401.754	81.75
401.963	85.84
402.172	8.02
402.381	91.99
402.59	53.08
402.799	102.23
403.008	91.99
403.217	126.8
403.426	69.46
403.635	65.36
403.844	36.69
404.053	165.71
404.262	24.4
404.471	104.28
404.68	42.84
404.888	61.27
405.097	34.64
405.306	91.99
405.515	106.32
405.724	135
405.933	130.9
406.142	157.52
406.35	163.67
406.559	100.18
406.768	122.71
406.977	178
407.185	87.89
407.394	73.56
407.603	87.89
407.812	85.84
408.02	159.57
408.229	173.91
408.438	218.96
408.646	139.09
408.855	151.38
409.064	204.63
409.272	157.52
409.481	159.57
409.69	188.24
409.898	212.82
410.107	251.73
410.315	206.67
410.524	192.34
410.733	178
410.941	206.67
411.15	159.57
411.358	198.48
411.567	188.24
411.775	261.97
411.984	231.25
412.192	245.59
412.401	210.77
412.609	257.87
412.818	313.17
413.026	249.68
413.234	294.74
413.443	227.15
413.651	327.5
413.86	374.61
414.068	327.5
414.276	401.23
414.485	352.08
414.693	403.28
414.901	436.05
415.11	405.33
415.318	364.37
415.526	434
415.734	462.67
415.943	431.95
416.151	474.96
416.359	497.49
416.567	632.65
416.776	477.01
416.984	458.57
417.192	544.59
417.4	571.21
417.608	614.22
417.817	536.4
418.025	628.56
418.233	632.65
418.441	599.88
418.649	626.51
418.857	790.35
419.065	784.2
419.273	661.32
419.481	821.06
419.689	849.74
419.897	763.72
420.105	812.87
420.313	919.37
420.521	943.94
420.729	931.66
420.937	1032.01
421.145	982.85
421.353	1062.73
421.561	1130.31
421.769	1064.77
421.977	1222.47
422.185	1171.27
422.393	1191.75
422.601	1347.39
422.809	1277.76
423.017	1310.53
423.224	1378.11
423.432	1457.98
423.64	1384.26
423.848	1640.25
424.056	1560.38
424.263	1568.57
424.471	1486.65
424.679	1603.39
424.887	1681.21
425.094	1802.04
425.302	1847.1
425.51	1802.04
425.718	1849.15
425.925	1912.63
426.133	2019.13
426.341	2047.8
426.548	2197.3
426.756	2187.06
426.964	2176.82
427.171	2379.57
427.379	2408.24
427.586	2412.34
427.794	2608.94
428.001	2783.02
428.209	2752.3
428.417	2668.33
428.624	2834.22
428.832	2819.88
429.039	2862.89
429.247	2969.38
429.454	3252
429.662	3366.69
429.869	3315.49
430.076	3454.75
430.284	3190.56
430.491	3501.86
430.699	3610.4
430.906	3665.69
431.114	3653.41
431.321	3899.16
431.528	3821.34
431.736	4253.46
431.943	4423.44
432.15	4251.41
432.358	4122.39
432.565	4419.35
432.772	4464.4
432.979	4794.12
433.187	4785.93
433.394	4693.77
433.601	5146.37
433.808	5211.91
434.016	5099.27
434.223	5328.64
434.43	5687.04
434.637	5318.4
434.844	5955.32
435.052	5844.73
435.259	5820.16
435.466	6049.53
435.673	6121.21
435.88	6457.07
436.087	6774.51
436.294	6745.84
436.501	6588.14
436.708	6719.21
436.915	6928.11
437.122	7423.72
437.329	7175.91
437.537	7431.91
437.743	7696.1
437.95	7462.63
438.157	7954.14
438.364	8189.66
438.571	8156.89
438.778	8265.43
438.985	8900.3
439.192	8550.1
439.399	8994.51
439.606	8752.85
439.813	9232.07
440.02	9647.81
440.227	9426.63
440.433	9230.02
440.64	9834.18
440.847	9830.08
441.054	9948.86
441.261	10833.58
441.467	10528.44
441.674	10696.37
441.881	10935.98
442.088	11155.12
442.294	11103.92
442.501	11411.11
442.708	11832.99
442.914	11984.54
443.121	12574.36
443.328	12199.58
443.534	13092.49
443.741	12723.86
443.948	12609.17
444.154	13713.03
444.361	13364.87
444.568	13342.35
444.774	13389.45
444.981	13735.56
445.187	14087.81
445.394	14802.55
445.6	14225.02
445.807	15752.8
446.013	15181.42
446.22	15769.19
446.426	16160.35
446.633	16361.05
446.839	16844.37
447.046	16143.97
447.252	16760.41
447.459	16922.2
447.665	16926.29
447.871	18062.91
448.078	18628.15
448.284	17733.19
448.491	18159.17
448.697	18751.03
448.903	19424.81
449.11	19355.18
449.316	18961.97
449.522	19549.74
449.728	19830.31
449.935	19832.36
450.141	20088.35
450.347	20289.06
450.553	19889.7
450.76	20366.88
450.966	20856.34
451.172	20497.95
451.378	21061.14
451.584	20727.32
451.791	21253.65
451.997	21179.92
452.203	21779.98
452.409	21558.8
452.615	21681.67
452.821	20686.36
453.027	20467.23
453.233	21425.68
453.44	20680.22
453.646	21071.38
453.852	21280.27
454.058	21456.4
454.264	20700.7
454.47	21061.14
454.676	20891.16
454.882	21337.62
455.088	19719.72
455.294	20041.25
455.5	20155.94
455.705	20368.93
455.911	19349.04
456.117	19236.4
456.323	19177.01
456.529	18175.55
456.735	18804.28
456.941	18339.39
457.147	18052.67
457.352	17464.91
457.558	17305.17
457.764	17256.01
457.97	16977.49
458.176	16748.12
458.381	16455.26
458.587	15711.85
458.793	15855.2
458.999	14945.91
459.204	16248.41
459.41	15715.94
459.616	14597.75
459.821	14335.61
460.027	14571.13
460.233	14268.03
460.438	13579.91
460.644	13919.87
460.85	13072.01
461.055	12779.15
461.261	12914.32
461.466	11884.19
461.672	11501.22
461.878	12508.82
462.083	11808.42
462.289	11298.47
462.494	11267.75
462.7	10608.31
462.905	10565.3
463.111	10956.46
463.316	10616.5
463.522	10833.58
463.727	10888.88
463.932	10663.6
464.138	10487.48
464.343	10581.68
464.549	10198.71
464.754	10610.36
464.959	10596.02
465.165	10503.86
465.37	9973.44
465.575	9832.13
465.781	10110.65
465.986	10237.63
466.191	9955.01
466.397	9633.47
466.602	9193.16
466.807	9623.23
467.012	9649.86
467.218	9582.28
467.423	9422.53
467.628	9486.02
467.833	9787.07
468.038	9340.61
468.244	9176.78
468.449	9520.84
468.654	9295.56
468.859	9225.93
469.064	9168.59
469.269	8670.93
469.474	8990.41
469.679	8883.92
469.885	8609.49
470.09	8867.53
470.295	8621.78
470.5	8695.5
470.705	8634.07
470.91	8359.64
471.115	8290.01
471.32	8670.93
471.525	8439.51
471.73	8314.58
471.935	8310.49
472.139	7993.05
472.344	8085.21
472.549	7958.24
472.754	7876.32
472.959	7751.39
473.164	7513.83
473.369	7446.24
473.574	7698.14
473.778	7685.86
473.983	7610.08
474.188	7587.55
474.393	7245.54
474.598	7198.44
474.802	7173.86
475.007	7286.5
475.212	7292.65
475.417	6962.92
475.621	7059.18
475.826	6938.35
476.031	6821.61
476.235	6668.02
476.44	6838
476.645	6659.82
476.849	6545.14
477.054	6711.02
477.259	6455.03
477.463	6547.19
477.668	6330.1
477.872	6444.79
478.077	6289.14
478.282	6199.03
478.486	6182.65
478.691	6078.2
478.895	6014.71
479.1	6012.67
479.304	6080.25
479.509	5895.93
479.713	5977.85
479.918	5883.64
480.122	5641.98
480.326	5867.26
480.531	5957.37
480.735	5787.39
480.94	5691.13
481.144	5975.8
481.348	5574.4
481.553	5728
481.757	5416.71
481.961	5783.29
482.166	5787.39
482.37	5740.29
482.574	5586.69
482.778	5621.5
482.983	5793.53
483.187	5607.17
483.391	5523.2
483.595	5568.26
483.8	5500.67
484.004	5654.27
484.208	5826.3
484.412	5668.61
484.616	5588.74
484.821	5627.65
485.025	5527.3
485.229	5709.57
485.433	5564.16
485.637	5562.11
485.841	5437.19
486.045	5500.67
486.249	5467.91
486.453	5574.4
486.657	5500.67
486.861	5629.7
487.065	5443.33
487.269	5531.39
487.473	5646.08
487.677	5570.3
487.881	5598.98
488.085	5598.98
488.289	5658.37
488.493	5443.33
488.697	5721.85
488.901	5699.33
489.105	5662.46
489.309	5648.13
489.512	5732.09
489.716	5635.84
489.92	5680.89
490.124	5652.22
490.328	5832.44
490.531	5637.89
490.735	5785.34
490.939	5766.91
491.143	5762.81
491.346	5738.24
491.55	5877.5
491.754	5848.83
491.958	5920.51
492.161	6008.57
492.365	6070.01
492.569	5859.07
492.772	5879.55
492.976	5906.17
493.18	6143.74
493.383	6307.57
493.587	6141.69
493.79	6199.03
493.994	6110.97
494.197	6211.32
494.401	6293.24
494.605	6301.43
494.808	6379.25
495.012	6334.2
495.215	6495.99
495.419	6414.07
495.622	6397.68
495.825	6686.45
496.029	6557.43
496.232	6584.05
496.436	6780.65
496.639	6743.79
496.843	6778.61
497.046	6870.76
497.249	7085.8
497.453	7110.38
497.656	7139.05
497.859	7233.25
498.063	7429.86
498.266	7411.43
498.469	7526.11
498.673	7702.24
498.876	7540.45
499.079	7780.06
499.282	7718.62
499.485	8077.02
499.689	7788.25
499.892	8187.61
500.095	8261.34
500.298	8181.46
500.501	8122.07
500.705	8455.89
500.908	8507.09
501.111	8670.93
501.314	8476.37
501.517	8957.64
501.72	9033.42
501.923	8898.25
502.126	9332.42
502.329	9389.77
502.532	9326.28
502.735	9289.42
502.938	9701.06
503.141	9705.15
503.344	9725.63
503.547	9541.32
503.75	10045.12
503.953	10192.57
504.156	10456.76
504.359	10145.47
504.562	10325.69
504.765	10641.07
504.968	10749.62
505.17	11011.76
505.373	10794.67
505.576	11073.2
505.779	11394.73
505.982	11370.15
506.185	11513.51
506.387	11587.24
506.59	11673.25
506.793	11914.91
506.996	11957.92
507.198	12400.28
507.401	12308.12
507.604	12435.1
507.807	12586.65
508.009	12701.33
508.212	12756.63
508.415	12902.03
508.617	13307.53
508.82	13147.79
509.022	13262.47
509.225	13710.98
509.428	13917.82
509.63	13868.67
509.833	14096
510.035	14425.72
510.238	14038.66
510.44	14491.26
510.643	14804.6
510.845	14962.29
511.048	14933.62
511.25	15183.47
511.453	15038.06
511.655	15851.11
511.858	15584.87
512.06	15609.45
512.262	15947.36
512.465	16019.04
512.667	16123.49
512.87	16377.44
513.072	16422.49
513.274	16877.14
513.477	17133.14
513.679	17071.7
513.881	17133.14
514.084	17309.26
514.286	17614.41
514.488	17589.83
514.69	18067.01
514.893	18130.5
515.095	18251.33
515.297	18550.33
515.499	18572.86
515.701	18865.72
515.904	19228.21
516.106	19308.08
516.308	19668.52
516.51	19729.96
516.712	19740.2
516.914	20139.55
517.116	20241.95
517.318	20475.42
517.52	20387.36
517.722	20348.45
517.925	21075.48
518.127	21382.67
518.329	21399.05
518.531	21667.34
518.733	21579.28
518.935	21769.74
519.136	21896.71
519.338	22359.55
519.54	22543.87
519.742	22707.71
519.944	22996.47
520.146	22949.37
520.348	23080.44
520.55	23252.47
520.752	23516.65
520.954	23834.09
521.155	23868.91
521.357	23940.58
521.559	24339.94
521.761	24735.2
521.963	24612.32
522.164	24616.41
522.366	24944.09
522.568	25230.8
522.77	25181.65
522.971	25904.59
523.173	25525.71
523.375	25828.81
523.576	25925.07
523.778	25839.05
523.98	26045.9
524.181	26277.32
524.383	26473.92
524.584	26803.64
524.786	26549.7
524.988	26879.42
525.189	26920.38
525.391	27340.21
525.592	27463.09
525.794	27229.62
525.995	27860.4
526.197	27493.81
526.398	28020.14
526.6	28558.75
526.801	28280.23
527.003	28403.11
527.204	28097.96
527.406	28587.43
527.607	28171.69
527.808	28878.24
528.01	28614.05
528.211	28974.49
528.412	29019.55
528.614	28970.4
528.815	28927.39
529.016	29357.46
529.218	28908.96
529.419	29328.79
529.62	29359.51
529.822	29226.39
530.023	29224.34
530.224	29793.68
530.425	29390.23
530.626	29265.3
530.828	29412.76
531.029	30084.49
531.23	29404.56
531.431	29627.79
531.632	29760.91
531.833	29883.79
532.035	29910.41
532.236	29955.47
532.437	29932.94
532.638	30115.21
532.839	29951.37
533.04	30373.25
533.241	29969.8
533.442	30279.05
533.643	30238.09
533.844	30367.11
534.045	30131.59
534.246	30406.02
534.447	30285.19
534.648	30160.27
534.849	30248.33
535.05	30059.91
535.251	30485.89
535.451	29982.09
535.652	30023.05
535.853	30084.49
536.054	30608.77
536.255	30825.85
536.456	30231.94
536.657	30633.35
536.857	30260.62
537.058	30430.6
537.259	30549.38
537.46	30551.43
537.66	30244.23
537.861	30186.89
538.062	30150.03
538.263	30315.91
538.463	30250.38
538.664	29889.93
538.865	30461.32
539.065	30752.13
539.266	30215.56
539.466	30528.9
539.667	30045.58
539.868	30317.96
540.068	30229.9
540.269	30258.57
540.469	30461.32
540.67	30338.44
540.87	30317.96
541.071	30606.72
541.271	30555.52
541.472	30246.28
541.672	30123.4
541.873	30100.87
542.073	29762.96
542.274	30530.95
542.474	29961.61
542.675	29992.33
542.875	30518.66
543.075	29875.6
543.276	30168.46
543.476	30555.52
543.676	30147.98
543.877	30471.56
544.077	30102.92
544.277	30260.62
544.478	30520.71
544.678	30246.28
544.878	30137.74
545.078	30348.68
545.279	29930.89
545.479	30039.43
545.679	30383.49
545.879	30125.45
546.079	30444.93
546.28	29969.8
546.48	29980.04
546.68	29992.33
546.88	30119.31
547.08	30162.31
547.28	30207.37
547.48	30129.55
547.68	30426.5
547.88	29994.38
548.081	30268.81
548.281	30184.84
548.481	29707.66
548.681	30000.52
548.881	30207.37
549.081	29726.1
549.28	30023.05
549.48	30387.59
549.68	30233.99
549.88	30365.06
550.08	29943.18
550.28	29951.37
550.48	29953.42
550.68	30168.46
550.88	29724.05
551.08	30096.78
551.279	30143.88
551.479	29828.49
551.679	30371.21
551.879	30158.22
552.079	29924.75
552.278	29836.69
552.478	29934.99
552.678	29754.77
552.878	30014.86
553.077	29967.76
553.277	29519.25
553.477	29939.08
553.676	30014.86
553.876	30057.87
554.076	29633.94
554.275	29629.84
554.475	29375.89
554.674	30094.73
554.874	30016.91
555.074	29400.47
555.273	29875.6
555.473	29828.49
555.672	29480.34
555.872	29765.01
556.071	29730.19
556.271	29797.77
556.47	29646.22
556.67	29138.33
556.869	29328.79
557.068	29506.96
557.268	29439.38
557.467	29158.81
557.667	29279.64
557.866	29455.76
558.065	29207.96
558.265	29343.13
558.464	29046.17
558.663	29423
558.863	29087.13
559.062	29658.51
559.261	29033.88
559.461	29257.11
559.66	28724.64
559.859	28884.38
560.058	28829.09
560.258	28966.3
560.457	28800.41
560.656	29423
560.855	28757.41
561.054	28876.19
561.253	28612
561.453	28734.88
561.652	28992.92
561.851	28951.96
562.05	28689.82
562.249	28261.8
562.448	28831.13
562.647	28495.27
562.846	28341.67
563.045	28401.06
563.244	28462.5
563.443	28448.16
563.642	28224.93
563.841	28331.43
564.04	28132.78
564.239	28468.64
564.438	27698.61
564.637	28302.76
564.836	28177.83
565.035	27551.15
565.234	28005.8
565.432	27966.89
565.631	27893.16
565.83	27913.64
566.029	27661.74
566.228	27659.7
566.427	27465.14
566.625	27448.75
566.824	27073.98
567.023	27549.1
567.222	26779.07
567.42	27446.71
567.619	27395.51
567.818	27151.8
568.016	27164.09
568.215	27295.16
568.414	26863.04
568.612	27258.29
568.811	26824.12
569.01	26883.52
569.208	26518.98
569.407	27239.86
569.605	26633.66
569.804	26979.77
570.002	26420.67
570.201	26508.74
570.4	26217.93
570.598	26144.2
570.797	26441.15
570.995	26529.22
571.193	26127.81
571.392	26482.11
571.59	26047.94
571.789	26111.43
571.987	25974.22
572.186	25769.42
572.384	25918.92
572.582	25804.24
572.781	26056.14
572.979	25435.6
573.177	25855.43
573.376	25460.18
573.574	25515.47
573.772	25413.07
573.971	25468.37
574.169	25179.61
574.367	25048.54
574.565	25216.47
574.763	25218.52
574.962	25007.58
575.16	24819.16
575.358	25019.86
575.556	24796.63
575.754	25071.06
575.952	24751.58
576.151	24544.73
576.349	24430.05
576.547	24593.89
576.745	24352.23
576.943	24462.82
577.141	24278.5
577.339	24417.76
577.537	24059.37
577.735	24301.03
577.933	23715.31
578.131	24157.67
578.329	23776.75
578.527	23868.91
578.725	23844.33
578.923	23926.25
579.121	23684.59
579.319	23698.92
579.516	23741.93
579.714	23784.94
579.912	23303.67
580.11	23412.21
580.308	23350.77
580.506	23164.4
580.704	23170.55
580.901	23107.06
581.099	23404.02
581.297	23182.84
581.495	23090.68
581.692	22836.73
581.89	22715.9
582.088	23033.33
582.285	22904.31
582.483	23047.67
582.681	22824.44
582.878	22631.93
583.076	22562.3
583.274	22701.56
583.471	22279.68
583.669	22410.75
583.866	22138.37
584.064	22298.11
584.262	22314.5
584.459	22464
584.657	22152.71
584.854	22355.46
585.052	21788.17
585.249	22097.41
585.447	21810.7
585.644	21724.68
585.841	22031.88
586.039	21827.08
586.236	21487.12
586.434	21507.6
586.631	21366.29
586.828	21480.97
587.026	21429.77
587.223	21263.89
587.42	21184.02
587.618	21079.57
587.815	21057.04
588.012	21065.24
588.21	20774.42
588.407	21343.76
588.604	20882.97
588.801	20885.01
588.999	20874.77
589.196	20799
589.393	20858.39
589.59	20780.57
589.787	20346.4
589.984	20598.3
590.182	20280.86
590.379	20389.41
590.576	20358.69
590.773	20182.56
590.97	20377.12
591.167	20422.17
591.364	20069.92
591.561	20035.11
591.758	19684.9
591.955	19891.75
592.152	20033.06
592.349	19732.01
592.546	19867.17
592.743	19838.5
592.94	19672.62
593.137	19713.58
593.334	19764.78
593.531	19351.09
593.727	19566.12
593.924	19684.9
594.121	19308.08
594.318	19357.23
594.515	19138.1
594.712	19265.07
594.908	19172.91
595.105	19230.26
595.302	19023.41
595.499	18918.96
595.696	19017.27
595.892	18986.55
596.089	18810.42
596.286	18824.76
596.482	18775.61
596.679	18726.46
596.876	18662.97
597.072	18452.03
597.269	18501.18
597.466	18341.44
597.662	18538.04
597.859	18376.25
598.055	18409.02
598.252	18216.51
598.448	18343.49
598.645	18048.58
598.841	17849.92
599.038	18005.57
599.234	18079.3
599.431	17845.83
599.627	17813.06
599.824	17585.74
600.02	17647.18
600.217	17878.6
600.413	17401.42
600.609	17630.79
600.806	17479.24
601.002	17526.35
601.198	17344.08
601.395	17030.74
601.591	17376.84
601.787	17294.93
601.984	17153.62
602.18	17569.35
602.376	17088.08
602.572	17147.47
602.769	17126.99
602.965	16877.14
603.161	16811.6
603.357	16707.16
603.553	16647.77
603.75	16674.39
603.946	16719.45
604.142	16739.93
604.338	16518.75
604.534	16684.63
604.73	16451.16
604.926	16295.52
605.122	16477.79
605.318	16146.01
605.514	16170.59
605.71	16178.78
605.906	16031.33
606.102	16189.02
606.298	16199.26
606.494	15963.75
606.69	16258.65
606.886	16111.2
607.082	15881.83
607.278	16111.2
607.474	15713.89
607.67	16019.04
607.866	15621.73
608.062	15664.74
608.257	15879.78
608.453	15801.96
608.649	15656.55
608.845	15443.56
609.041	15449.71
609.236	15507.05
609.432	15421.03
609.628	15400.55
609.824	15359.59
610.019	15404.65
610.215	15076.98
610.411	15259.24
610.606	15230.57
610.802	15367.79
610.998	15249
611.193	15257.2
611.389	15031.92
611.584	14790.26
611.78	14909.04
611.976	15023.73
612.171	14968.43
612.367	15132.27
612.562	14980.72
612.758	14859.89
612.953	14823.03
613.149	14925.43
613.344	14655.09
613.539	14759.54
613.735	14687.86
613.93	14958.19
614.126	14509.69
614.321	14917.23
614.517	14620.28
614.712	14728.82
614.907	14618.23
615.103	14532.22
615.298	14425.72
615.493	14646.9
615.688	14435.96
615.884	14612.09
616.079	14540.41
616.274	14499.45
616.47	14366.33
616.665	14292.6
616.86	14337.66
617.055	13979.26
617.25	14239.36
617.445	14302.84
617.641	14087.81
617.836	14087.81
618.031	13837.95
618.226	14036.61
618.421	13901.44
618.616	14108.29
618.811	13770.37
619.006	13897.35
619.201	13590.15
619.396	13555.33
619.591	13602.44
619.786	13708.93
619.981	13473.42
620.176	13504.14
620.371	13403.78
620.566	13463.18
620.761	13096.59
620.956	13205.13
621.151	13004.43
621.346	13186.7
621.541	13037.2
621.735	13209.23
621.93	12818.07
622.125	12971.66
622.32	12467.86
622.515	12682.9
622.709	12504.73
622.904	12533.4
623.099	12621.46
623.294	12562.07
623.488	12320.41
623.683	12342.94
623.878	12410.52
624.072	12160.67
624.267	12095.13
624.462	12238.49
624.656	12007.07
624.851	12105.37
625.046	11839.14
625.24	11978.4
625.435	11847.33
625.629	11878.05
625.824	11732.64
626.018	11681.44
626.213	11478.69
626.407	11517.61
626.602	11218.6
626.796	11468.45
626.991	11232.94
627.185	11093.68
627.38	11247.27
627.574	11069.1
627.768	10911.41
627.963	10976.94
628.157	11017.9
628.352	11022
628.546	10825.39
628.74	10737.33
628.935	10671.79
629.129	10614.45
629.323	10419.89
629.517	10655.41
629.712	10348.22
629.906	10477.24
630.1	10358.46
630.294	10393.27
630.489	10120.89
630.683	10233.53
630.877	10012.35
631.071	10051.26
631.265	10112.7
631.459	9979.58
631.653	10079.93
631.848	9914.05
632.042	9862.85
632.236	9881.28
632.43	9619.14
632.624	9623.23
632.818	9658.05
633.012	9645.76
633.206	9627.33
633.4	9555.65
633.594	9389.77
633.788	9518.79
633.982	9535.17
634.176	9223.88
634.369	9238.22
634.563	9248.46
634.757	9309.9
634.951	9014.99
635.145	9107.15
635.339	8957.64
635.533	8845.01
635.726	8828.62
635.92	8707.79
636.114	8822.48
636.308	8806.09
636.501	8865.49
636.695	8773.33
636.889	8521.43
637.083	8687.31
637.276	8550.1
637.47	8644.31
637.664	8531.67
637.857	8433.36
638.051	8408.79
638.244	8330.97
638.438	8437.46
638.632	8195.8
638.825	8216.28
639.019	8136.41
639.212	8079.07
639.406	8058.59
639.599	8083.16
639.793	8083.16
639.986	7814.88
640.18	7929.56
640.373	7861.98
640.567	7849.69
640.76	7618.27
640.954	7620.32
641.147	7841.5
641.34	7519.97
641.534	7528.16
641.727	7468.77
641.92	7612.13
642.114	7255.78
642.307	7309.03
642.5	7401.19
642.694	7284.45
642.887	7124.71
643.08	7364.32
643.273	7354.09
643.467	7218.92
643.66	7257.83
643.853	7077.61
644.046	6801.13
644.239	6956.78
644.432	7012.07
644.626	7034.6
644.819	6850.28
645.012	6885.1
645.205	6842.09
645.398	6727.41
645.591	6756.08
645.784	6854.38
645.977	6506.23
646.17	6708.97
646.363	6594.29
646.556	6319.86
646.749	6536.95
646.942	6524.66
647.135	6526.71
647.328	6395.64
647.521	6397.68
647.714	6256.37
647.907	6201.08
648.099	6082.3
648.292	6311.67
648.485	6225.65
648.678	6094.58
648.871	5979.9
649.064	6127.35
649.256	6057.72
649.449	6133.5
649.642	5957.37
649.835	5940.99
650.027	5828.35
650.22	5924.6
650.413	5822.2
650.605	5893.88
650.798	5678.85
650.991	5920.51
651.183	5699.33
651.376	5742.33
651.568	5697.28
651.761	5680.89
651.954	5537.54
652.146	5627.65
652.339	5580.54
652.531	5437.19
652.724	5453.57
652.916	5490.43
653.109	5408.51
653.301	5295.88
653.494	5218.05
653.686	5324.55
653.879	5269.25
654.071	5385.99
654.263	5213.96
654.456	5285.64
654.648	5240.58
654.84	5101.32
655.033	5103.37
655.225	5144.33
655.417	5127.94
655.61	4939.53
655.802	5177.09
655.994	4968.2
656.186	4994.83
656.379	4867.85
656.571	4996.87
656.763	4894.47
656.955	4785.93
657.148	4804.36
657.34	4906.76
657.532	4687.63
657.724	4695.82
657.916	4720.4
658.108	4665.1
658.3	4654.86
658.492	4554.51
658.684	4486.93
658.876	4546.32
659.068	4648.72
659.26	4548.37
659.452	4552.46
659.644	4472.59
659.836	4501.26
660.028	4480.78
660.22	4419.35
660.412	4405.01
660.604	4292.37
660.796	4335.38
660.988	4296.47
661.18	4189.97
661.372	4257.56
661.563	4300.56
661.755	4110.1
661.947	4208.41
662.139	4189.97
662.331	4095.77
662.522	4050.71
662.714	3997.46
662.906	4071.19
663.097	4161.3
663.289	3925.79
663.481	4001.56
663.673	3960.6
663.864	3970.84
664.056	3915.55
664.247	3872.54
664.439	3888.92
664.631	3962.65
664.822	3825.43
665.014	3813.15
665.205	3903.26
665.397	3794.72
665.588	3807
665.78	3729.18
665.971	3784.48
666.163	3624.73
666.354	3489.57
666.546	3688.22
666.737	3706.65
666.929	3460.9
667.12	3557.15
667.311	3637.02
667.503	3598.11
667.694	3542.82
667.885	3561.25
668.077	3567.39
668.268	3411.75
668.459	3467.04
668.651	3446.56
668.842	3346.21
669.033	3487.52
669.224	3454.75
669.416	3479.33
669.607	3413.79
669.798	3266.34
669.989	3491.62
670.18	3266.34
670.371	3325.73
670.563	3274.53
670.754	3317.54
670.945	3256.1
671.136	3204.9
671.327	3325.73
671.518	3215.14
671.709	3338.02
671.9	3110.69
672.091	3215.14
672.282	3086.12
672.473	3215.14
672.664	3204.9
672.855	3178.28
673.046	3131.17
673.237	3098.41
673.428	3098.41
673.619	3120.93
673.809	3086.12
674	3108.65
674.191	3030.82
674.382	2973.48
674.573	3012.39
674.764	2922.28
674.954	2991.91
675.145	2993.96
675.336	2883.37
675.527	2922.28
675.717	2965.29
675.908	2877.23
676.099	3014.44
676.289	3024.68
676.48	2834.22
676.671	2864.94
676.861	2942.76
677.052	2842.41
677.243	2817.83
677.433	2793.26
677.624	2852.65
677.814	2797.35
678.005	2866.99
678.195	2807.59
678.386	2770.73
678.576	2887.47
678.767	2826.03
678.957	2746.16
679.148	2780.97
679.338	2828.07
679.529	2758.44
679.719	2875.18
679.909	2991.91
680.1	2731.82
680.29	2873.13
680.481	2836.27
680.671	2666.28
680.861	2729.77
681.052	2666.28
681.242	2723.63
681.432	2725.68
681.622	2760.49
681.813	2793.26
682.003	2709.29
682.193	2656.04
682.383	2754.35
682.573	2596.65
682.764	2664.24
682.954	2649.9
683.144	2641.71
683.334	2551.6
683.524	2621.23
683.714	2606.89
683.904	2668.33
684.094	2635.57
684.284	2674.48
684.474	2690.86
684.664	2533.17
684.854	2649.9
685.044	2682.67
685.234	2660.14
685.424	2654
685.614	2692.91
685.804	2637.61
685.994	2594.61
686.184	2604.85
686.374	2651.95
686.564	2625.33
686.753	2584.37
686.943	2545.45
687.133	2584.37
687.323	2629.42
687.513	2586.41
687.702	2449.2
687.892	2531.12
688.082	2512.69
688.272	2510.64
688.461	2574.13
688.651	2588.46
688.841	2365.23
689.03	2463.54
689.22	2465.58
689.41	2629.42
689.599	2492.21
689.789	2488.11
689.979	2471.73
690.168	2395.95
690.358	2467.63
690.547	2373.43
690.737	2463.54
690.926	2330.42
691.116	2344.75
691.305	2469.68
691.495	2348.85
691.684	2375.47
691.874	2410.29
692.063	2350.9
692.252	2434.86
692.442	2465.58
692.631	2391.86
692.82	2307.89
693.01	2408.24
693.199	2381.62
693.388	2311.99
693.578	2346.8
693.767	2346.8
693.956	2408.24
694.146	2311.99
694.335	2357.04
694.524	2318.13
694.713	2316.08
694.902	2318.13
695.092	2199.35
695.281	2377.52
695.47	2225.97
695.659	2377.52
695.848	2256.69
696.037	2334.51
696.226	2240.31
696.415	2152.24
696.604	2221.88
696.793	2283.31
696.982	2291.51
697.171	2223.92
697.36	2260.79
697.549	2338.61
697.738	2242.36
697.927	2240.31
698.116	2195.25
698.305	2293.55
698.494	2170.68
698.683	2203.44
698.872	2109.24
699.061	2248.5
699.25	2242.36
699.438	2158.39
699.627	2172.72
699.816	2234.16
700.005	2211.64
700.193	2221.88
700.382	2178.87
700.571	2264.88
700.76	2119.48
700.948	2119.48
701.137	2072.37
701.326	2043.7
701.514	2064.18
701.703	2051.89
701.892	2125.62
702.08	2221.88
702.269	2182.96
702.457	2084.66
702.646	2121.52
702.834	2096.95
703.023	2025.27
703.212	2117.43
703.4	2154.29
703.589	2010.93
703.777	2133.81
703.965	2012.98
704.154	2008.89
704.342	2064.18
704.531	2002.74
704.719	2117.43
704.907	1926.97
705.096	2025.27
705.284	2103.09
705.472	2039.61
705.661	2019.13
705.849	2107.19
706.037	2043.7
706.226	2031.41
706.414	1947.45
706.602	2092.85
706.79	1992.5
706.979	1910.58
707.167	2010.93
707.355	1943.35
707.543	2115.38
707.731	1922.87
707.919	1969.98
708.107	1924.92
708.296	1865.53
708.484	1939.26
708.672	2006.84
708.86	1984.31
709.048	1945.4
709.236	1834.81
709.424	1888.06
709.612	1943.35
709.8	1986.36
709.988	1935.16
710.176	1838.91
710.364	1908.54
710.551	1812.28
710.739	1879.86
710.927	1900.34
711.115	1924.92
711.303	1963.83
711.491	1865.53
711.679	1840.95
711.866	1890.1
712.054	1830.71
712.242	1840.95
712.43	1900.34
712.617	1810.23
712.805	1785.66
712.993	1926.97
713.181	1771.32
713.368	1875.77
713.556	1705.79
713.744	1738.55
713.931	1843
714.119	1797.95
714.306	1791.8
714.494	1761.08
714.682	1824.57
714.869	1722.17
715.057	1726.27
715.244	1724.22
715.432	1732.41
715.619	1785.66
715.807	1783.61
715.994	1752.89
716.182	1851.19
716.369	1718.08
716.556	1670.97
716.744	1681.21
716.931	1793.85
717.119	1707.84
717.306	1697.6
717.493	1691.45
717.681	1730.36
717.868	1685.31
718.055	1679.16
718.242	1763.13
718.43	1716.03
718.617	1640.25
718.804	1662.78
718.991	1625.92
719.179	1765.18
719.366	1617.72
719.553	1681.21
719.74	1677.12
719.927	1627.96
720.114	1576.77
720.301	1716.03
720.488	1580.86
720.676	1673.02
720.863	1644.35
721.05	1634.11
721.237	1644.35
721.424	1556.29
721.611	1605.44
721.798	1597.24
721.985	1652.54
722.172	1558.33
722.358	1580.86
722.545	1623.87
722.732	1580.86
722.919	1564.48
723.106	1503.04
723.293	1623.87
723.48	1613.63
723.667	1593.15
723.853	1613.63
724.04	1599.29
724.227	1517.37
724.414	1644.35
724.6	1507.13
724.787	1597.24
724.974	1511.23
725.161	1427.26
725.347	1525.57
725.534	1554.24
725.72	1599.29
725.907	1412.93
726.094	1580.86
726.28	1558.33
726.467	1605.44
726.653	1435.46
726.84	1576.77
727.027	1490.75
727.213	1482.56
727.4	1470.27
727.586	1402.69
727.773	1457.98
727.959	1460.03
728.145	1433.41
728.332	1417.02
728.518	1521.47
728.705	1443.65
728.891	1404.74
729.077	1476.41
729.264	1457.98
729.45	1445.7
729.636	1423.17
729.823	1398.59
730.009	1466.17
730.195	1433.41
730.382	1435.46
730.568	1335.1
730.754	1490.75
730.94	1480.51
731.126	1484.61
731.313	1558.33
731.499	1417.02
731.685	1335.1
731.871	1361.73
732.057	1445.7
732.243	1376.06
732.429	1482.56
732.615	1337.15
732.801	1412.93
732.987	1371.97
733.173	1402.69
733.359	1388.35
733.545	1316.67
733.731	1367.87
733.917	1326.91
734.103	1431.36
734.289	1374.02
734.475	1308.48
734.661	1337.15
734.847	1414.98
735.033	1460.03
735.219	1382.21
735.404	1421.12
735.59	1417.02
735.776	1339.2
735.962	1294.15
736.148	1298.24
736.333	1365.82
736.519	1419.07
736.705	1300.29
736.89	1412.93
737.076	1339.2
737.262	1251.14
737.447	1361.73
737.633	1384.26
737.819	1361.73
738.004	1382.21
738.19	1304.39
738.375	1337.15
738.561	1292.1
738.747	1367.87
738.932	1357.63
739.118	1419.07
739.303	1255.23
739.489	1333.06
739.674	1294.15
739.859	1333.06
740.045	1273.67
740.23	1165.12
740.416	1255.23
740.601	1300.29
740.786	1226.56
740.972	1238.85
741.157	1281.86
741.342	1115.97
741.528	1267.52
741.713	1279.81
741.898	1230.66
742.084	1187.65
742.269	1255.23
742.454	1242.95
742.639	1304.39
742.824	1244.99
743.01	1124.16
743.195	1240.9
743.38	1204.03
743.565	1095.49
743.75	1234.75
743.935	1158.98
744.12	1210.18
744.305	1064.77
744.49	1208.13
744.675	1253.19
744.86	1204.03
745.045	1210.18
745.23	1072.96
745.415	1126.21
745.6	1124.16
745.785	1150.79
745.97	1152.84
746.155	1140.55
746.34	1185.6
746.525	1126.21
746.71	1126.21
746.895	1142.6
747.079	1111.88
747.264	1021.77
747.449	1064.77
747.634	1079.11
747.819	999.24
748.003	999.24
748.188	1072.96
748.373	1136.45
748.557	1017.67
748.742	1029.96
748.927	900.94
749.111	1009.48
749.296	1034.05
749.481	1040.2
749.665	962.37
749.85	1077.06
750.034	1011.53
750.219	1027.91
750.404	956.23
750.588	1017.67
750.773	1023.81
750.957	954.18
751.141	978.76
751.326	984.9
751.51	966.47
751.695	909.13
751.879	968.52
752.064	927.56
752.248	796.49
752.432	1007.43
752.617	958.28
752.801	900.94
752.985	913.22
753.17	902.98
753.354	941.89
753.538	941.89
753.722	898.89
753.907	868.17
754.091	931.66
754.275	812.87
754.459	911.18
754.643	825.16
754.828	825.16
755.012	806.73
755.196	767.82
755.38	857.93
755.564	673.61
755.748	810.82
755.932	825.16
756.116	862.02
756.3	814.92
756.484	718.67
756.668	796.49
756.852	712.52
757.036	841.54
757.22	786.25
757.404	761.67
757.588	749.39
757.772	804.68
757.956	749.39
758.14	698.19
758.323	810.82
758.507	769.87
758.691	780.11
758.875	726.86
759.059	743.24
759.242	743.24
759.426	665.42
759.61	636.75
759.794	722.76
759.977	745.29
760.161	706.38
760.345	712.52
760.528	761.67
760.712	665.42
760.895	722.76
761.079	630.6
761.263	689.99
761.446	696.14
761.63	659.28
761.813	614.22
761.997	644.94
762.18	700.23
762.364	671.56
762.547	685.9
762.731	638.8
762.914	651.08
763.098	524.11
763.281	655.18
763.464	597.84
763.648	608.08
763.831	679.75
764.015	573.26
764.198	653.13
764.381	651.08
764.564	630.6
764.748	556.88
764.931	614.22
765.114	694.09
765.297	622.41
765.481	573.26
765.664	622.41
765.847	573.26
766.03	601.93
766.213	606.03
766.397	552.78
766.58	581.45
766.763	597.84
766.946	603.98
767.129	540.49
767.312	567.12
767.495	634.7
767.678	577.36
767.861	575.31
768.044	597.84
768.227	597.84
768.41	612.17
768.593	573.26
768.776	581.45
768.959	599.88
769.142	567.12
769.324	569.16
769.507	563.02
769.69	550.73
769.873	505.68
770.056	634.7
770.239	665.42
770.421	517.97
770.604	520.01
770.787	536.4
770.97	458.57
771.152	579.4
771.335	530.25
771.518	511.82
771.7	540.49
771.883	540.49
772.066	501.58
772.248	532.3
772.431	589.64
772.613	513.87
772.796	444.24
772.978	497.49
773.161	546.64
773.343	470.86
773.526	479.05
773.708	474.96
773.891	530.25
774.073	479.05
774.256	491.34
774.438	419.66
774.621	513.87
774.803	462.67
774.985	472.91
775.168	472.91
775.35	411.47
775.532	431.95
775.715	505.68
775.897	513.87
776.079	503.63
776.261	448.33
776.444	481.1
776.626	427.85
776.808	376.66
776.99	470.86
777.173	413.52
777.355	307.02
777.537	429.9
777.719	372.56
777.901	495.44
778.083	442.19
778.265	395.09
778.447	390.99
778.629	376.66
778.811	364.37
778.993	450.38
779.175	376.66
779.357	454.48
779.539	397.14
779.721	378.7
779.903	413.52
780.085	350.03
780.267	311.12
780.449	384.85
780.631	350.03
780.812	388.94
780.994	335.7
781.176	368.46
781.358	450.38
781.54	266.07
781.721	350.03
781.903	421.71
782.085	350.03
782.267	259.92
782.448	411.47
782.63	212.82
782.812	362.32
782.993	298.83
783.175	409.42
783.357	323.41
783.538	321.36
783.72	302.93
783.901	315.22
784.083	319.31
784.264	345.94
784.446	259.92
784.627	235.35
784.809	266.07
784.99	280.4
785.172	309.07
785.353	286.54
785.535	304.98
785.716	419.66
785.897	302.93
786.079	294.74
786.26	298.83
786.441	298.83
786.623	218.96
786.804	274.26
786.985	319.31
787.167	286.54
787.348	237.39
787.529	296.78
787.71	270.16
787.891	274.26
788.073	221.01
788.254	241.49
788.435	323.41
788.616	266.07
788.797	200.53
788.978	323.41
789.159	313.17
789.34	333.65
789.522	276.31
789.703	178
789.884	149.33
790.065	270.16
790.246	225.11
790.427	233.3
790.607	241.49
790.788	241.49
790.969	233.3
791.15	159.57
791.331	231.25
791.512	280.4
791.693	169.81
791.874	245.59
792.054	245.59
792.235	231.25
792.416	149.33
792.597	120.66
792.778	274.26
792.958	200.53
793.139	212.82
793.32	184.15
793.5	237.39
793.681	266.07
793.862	221.01
794.042	188.24
794.223	264.02
794.404	155.47
794.584	261.97
794.765	141.14
794.945	186.19
795.126	229.2
795.306	157.52
795.487	184.15
795.667	184.15
795.848	221.01
796.028	149.33
796.209	202.58
796.389	163.67
796.57	141.14
796.75	198.48
796.93	180.05
797.111	194.39
797.291	98.13
797.471	194.39
797.652	180.05
797.832	249.68
798.012	192.34
798.192	180.05
798.373	223.06
798.553	227.15
798.733	178
798.913	153.43
799.093	200.53
799.274	180.05
799.454	184.15
799.634	102.23
799.814	221.01
799.994	200.53
800.174	178
800.354	214.87
800.534	132.95
800.714	155.47
800.894	108.37
801.074	180.05
801.254	87.89
801.434	200.53
801.614	81.75
801.794	153.43
801.974	331.6
802.154	128.85
802.334	114.52
802.514	73.56
802.693	171.86
802.873	143.19
803.053	128.85
803.233	114.52
803.413	169.81
803.592	167.76
803.772	96.08
803.952	198.48
804.131	155.47
804.311	149.33
804.491	147.28
804.67	110.42
804.85	173.91
805.03	165.71
805.209	149.33
805.389	151.38
805.568	145.24
805.748	89.94
805.928	102.23
806.107	122.71
806.287	98.13
806.466	204.63
806.646	135
806.825	114.52
807.004	116.56
807.184	100.18
807.363	73.56
807.543	114.52
807.722	149.33
807.901	218.96
808.081	167.76
808.26	79.7
808.439	130.9
808.619	149.33
808.798	147.28
808.977	171.86
809.156	108.37
809.336	94.04
809.515	73.56
809.694	132.95
809.873	130.9
810.052	108.37
810.231	126.8
810.411	135
810.59	122.71
810.769	48.98
810.948	85.84
811.127	89.94
811.306	53.08
811.485	48.98
811.664	100.18
811.843	137.04
812.022	106.32
812.201	155.47
812.38	196.43
812.559	118.61
812.737	155.47
812.916	139.09
813.095	108.37
813.274	75.6
813.453	124.76
813.632	141.14
813.811	81.75
813.989	51.03
814.168	128.85
814.347	190.29
814.526	110.42
814.704	81.75
814.883	-6.31
815.062	75.6
815.24	51.03
815.419	61.27
815.598	147.28
815.776	98.13
815.955	55.12
816.133	38.74
816.312	65.36
816.49	65.36
816.669	137.04
816.847	118.61
817.026	71.51
817.204	118.61
817.383	112.47
817.561	102.23
817.74	94.04
817.918	40.79
818.097	61.27
818.275	114.52
818.453	130.9
818.632	34.64
818.81	147.28
818.988	120.66
819.167	51.03
819.345	91.99
819.523	51.03
819.701	57.17
819.879	75.6
820.058	87.89
820.236	106.32
820.414	57.17
820.592	53.08
820.77	-2.22
820.948	53.08
821.127	44.88
821.305	57.17
821.483	106.32
821.661	67.41
821.839	124.76
822.017	36.69
822.195	59.22
822.373	42.84
822.551	89.94
822.729	110.42
822.907	22.36
823.085	91.99
823.262	24.4
823.44	1.88
823.618	67.41
823.796	75.6
823.974	63.32
824.152	85.84
824.329	104.28
824.507	94.04
824.685	51.03
824.863	114.52
825.04	28.5
825.218	44.88
825.396	65.36
825.574	30.55
825.751	20.31
825.929	10.07
826.107	20.31
826.284	73.56
826.462	87.89
826.639	-0.17
826.817	75.6
826.994	104.28
827.172	55.12
827.349	34.64
827.527	67.41
827.704	24.4
827.882	63.32
828.059	36.69
828.237	16.21
828.414	110.42
828.591	110.42
828.769	81.75
828.946	77.65
829.124	10.07
829.301	40.79
829.478	85.84
829.655	18.26
829.833	67.41
830.01	26.45
830.187	48.98
830.364	106.32
830.542	69.46
830.719	63.32
830.896	36.69
831.073	104.28
831.25	10.07
831.427	28.5
831.604	48.98
831.782	38.74
831.959	48.98
832.136	-6.31
832.313	81.75
832.49	51.03
832.667	65.36
832.844	67.41
833.021	110.42
833.198	-41.13
833.374	59.22
833.551	163.67
833.728	24.4
833.905	77.65
834.082	102.23
834.259	24.4
834.436	-20.65
834.612	57.17
834.789	1.88
834.966	108.37
835.143	91.99
835.319	59.22
835.496	71.51
835.673	-43.18
835.85	98.13
836.026	42.84
836.203	-0.17
836.38	42.84
836.556	48.98
836.733	-30.89
836.909	122.71
837.086	22.36
837.262	-14.51
837.439	24.4
837.616	5.97
837.792	34.64
837.968	44.88
838.145	-53.42
838.321	53.08
838.498	40.79
838.674	59.22
838.851	75.6
839.027	5.97
839.203	51.03
839.38	81.75
839.556	38.74
839.732	77.65
839.909	42.84
840.085	46.93
840.261	-47.27
840.437	-8.36
840.614	83.8
840.79	12.12
840.966	48.98
841.142	5.97
841.318	-2.22
841.494	69.46
841.671	24.4
841.847	32.6
842.023	36.69
842.199	26.45
842.375	89.94
842.551	38.74
842.727	12.12
842.903	91.99
843.079	16.21
843.255	22.36
843.431	1.88
843.607	83.8
843.783	18.26
843.959	77.65
844.134	-12.46
844.31	48.98
844.486	18.26
844.662	75.6
844.838	-0.17
845.013	116.56
845.189	61.27
845.365	69.46
845.541	42.84
845.716	14.17
845.892	18.26
846.068	20.31
846.244	143.19
846.419	94.04
846.595	48.98
846.77	-41.13
846.946	16.21
847.122	32.6
847.297	30.55
847.473	28.5
847.648	75.6
847.824	26.45
847.999	-28.84
848.175	65.36
848.35	65.36
848.526	122.71
848.701	98.13
848.876	8.02
849.052	67.41
849.227	28.5
849.403	69.46
849.578	42.84
849.753	26.45
849.929	32.6
850.104	20.31
850.279	65.36
850.454	26.45
850.63	22.36
850.805	10.07
850.98	46.93
851.155	26.45
851.33	30.55
851.505	46.93
851.681	40.79
851.856	16.21
852.031	8.02
852.206	-39.08
852.381	-10.41
852.556	48.98
852.731	22.36
852.906	139.09
853.081	3.93
853.256	67.41
853.431	57.17
853.606	22.36
853.781	28.5
853.956	14.17
854.131	36.69
854.305	-8.36
854.48	59.22
854.655	-8.36
854.83	32.6
855.005	10.07
855.18	40.79
855.354	22.36
855.529	40.79
855.704	34.64
855.879	55.12
856.053	32.6
856.228	26.45
856.403	75.6
856.577	-22.7
856.752	-4.27
856.926	42.84
857.101	-4.27
857.276	75.6
857.45	16.21
857.625	98.13
857.799	-6.31
857.974	34.64
858.148	-90.28
858.323	42.84
858.497	-2.22
858.672	81.75
858.846	-4.27
859.02	48.98
859.195	81.75
859.369	18.26
859.543	24.4
859.718	5.97
859.892	55.12
860.066	26.45
860.241	83.8
860.415	55.12
860.589	32.6
860.763	20.31
860.938	14.17
861.112	38.74
861.286	-30.89
861.46	22.36
861.634	-30.89
861.808	-34.99
861.982	-49.32
862.157	14.17
862.331	-0.17
862.505	10.07
862.679	-0.17
862.853	-30.89
863.027	3.93
863.201	-26.79
863.375	-0.17
863.549	65.36
863.722	36.69
863.896	24.4
864.07	69.46
864.244	59.22
864.418	51.03
864.592	81.75
864.766	5.97
864.939	77.65
865.113	-20.65
865.287	36.69
865.461	-0.17
865.634	26.45
865.808	-2.22
865.982	73.56
866.156	-8.36
866.329	3.93
866.503	38.74
866.676	26.45
866.85	-34.99
867.024	63.32
867.197	75.6
867.371	71.51
867.544	63.32
867.718	-47.27
867.891	48.98
868.065	12.12
868.238	-49.32
868.412	8.02
868.585	-6.31
868.759	-14.51
868.932	-39.08
869.105	-22.7
869.279	36.69
869.452	63.32
869.625	59.22
869.799	38.74
869.972	16.21
870.145	-12.46
870.319	40.79
870.492	8.02
870.665	-45.23
870.838	38.74
871.011	22.36
871.185	32.6
871.358	8.02
871.531	-28.84
871.704	-24.75
871.877	-4.27
872.05	8.02
872.223	12.12
872.396	-4.27
872.569	34.64
872.742	42.84
872.915	-26.79
873.088	-14.51
873.261	26.45
873.434	14.17
873.607	-32.94
873.78	59.22
873.953	5.97
874.126	8.02
874.299	5.97
874.471	-6.31
874.644	40.79
874.817	16.21
874.99	44.88
875.163	-22.7
875.335	-49.32
875.508	-39.08
875.681	-2.22
875.853	51.03
876.026	48.98
876.199	55.12
876.371	16.21
876.544	-8.36
876.717	-2.22
876.889	-32.94
877.062	38.74
877.234	-4.27
877.407	34.64
877.579	1.88
877.752	-57.51
877.924	24.4
878.097	-39.08
878.269	-10.41
878.442	-39.08
878.614	16.21
878.786	102.23
878.959	22.36
879.131	46.93
879.303	-47.27
879.476	-10.41
879.648	8.02
879.82	51.03
879.993	-24.75
880.165	71.51
880.337	71.51
880.509	10.07
880.681	-41.13
880.854	18.26
881.026	30.55
881.198	-49.32
881.37	32.6
881.542	63.32
881.714	30.55
881.886	30.55
882.058	36.69
882.23	65.36
882.402	18.26
882.574	-2.22
882.746	12.12
882.918	28.5
883.09	-67.75
883.262	3.93
883.434	51.03
883.606	22.36
883.778	10.07
883.95	-6.31
884.122	32.6
884.293	-16.55
884.465	-39.08
884.637	79.7
884.809	-67.75
884.98	77.65
885.152	48.98
885.324	-47.27
885.496	-12.46
885.667	14.17
885.839	10.07
886.011	34.64
886.182	14.17
886.354	57.17
886.525	-26.79
886.697	-12.46
886.869	-41.13
887.04	26.45
887.212	20.31
887.383	34.64
887.555	20.31
887.726	61.27
887.897	14.17
888.069	3.93
888.24	-20.65
888.412	8.02
888.583	48.98
888.754	30.55
888.926	-24.75
889.097	44.88
889.268	-43.18
889.44	3.93
889.611	-37.03
889.782	-14.51
889.953	-24.75
890.125	-12.46
890.296	-41.13
890.467	102.23
890.638	69.46
890.809	40.79
890.98	-45.23
891.151	8.02
891.323	20.31
891.494	42.84
891.665	89.94
891.836	-41.13
892.007	-6.31
892.178	40.79
892.349	1.88
892.52	8.02
892.691	5.97
892.862	3.93
893.032	71.51
893.203	-24.75
893.374	36.69
893.545	26.45
893.716	-12.46
893.887	59.22
894.057	10.07
894.228	-0.17
894.399	-39.08
894.57	-22.7
894.74	-18.6
894.911	-10.41
895.082	-20.65
895.253	-37.03
895.423	40.79
895.594	42.84
895.764	-53.42
895.935	8.02
896.106	73.56
896.276	40.79
896.447	-2.22
896.617	1.88
896.788	24.4
896.958	40.79
897.129	26.45
897.299	-63.66
897.47	20.31
897.64	-8.36
897.81	20.31
897.981	81.75
898.151	32.6
898.322	24.4
898.492	51.03
898.662	73.56
898.832	40.79
899.003	-2.22
899.173	38.74
899.343	51.03
899.513	12.12
