Data from USB4F104151__36__12-58-57-807.txt Node

Date: Fri Mar 14 12:58:57 EDT 2025
User: louis
Spectrometer: USB4F10415
Trigger mode: 4
Integration Time (sec): 1.000000E-2
Scans to average: 1
Electric dark correction enabled: true
Nonlinearity correction enabled: false
Boxcar width: 0
XAxis mode: Wavelengths
Number of Pixels in Spectrum: 3648
>>>>>Begin Spectral Data<<<<<
178.204	-82.43
178.424	-82.43
178.644	-82.43
178.864	-74.24
179.084	71.17
179.304	-25.09
179.524	-4.61
179.744	-61.95
179.964	50.69
180.184	-25.09
180.404	52.74
180.624	-10.75
180.844	73.21
181.064	-55.81
181.283	30.21
181.503	-61.95
181.723	38.4
181.943	-10.75
182.163	19.97
182.383	1.54
182.602	69.12
182.822	58.88
183.042	58.88
183.262	103.93
183.482	-12.8
183.701	38.4
183.921	62.98
184.141	24.06
184.361	34.3
184.58	-43.52
184.8	9.73
185.02	-61.95
185.239	17.92
185.459	-43.52
185.679	34.3
185.898	-8.7
186.118	60.93
186.338	7.68
186.557	46.59
186.777	26.11
186.997	83.45
187.216	30.21
187.436	36.35
187.655	44.54
187.875	24.06
188.095	42.5
188.314	58.88
188.534	91.65
188.753	5.63
188.973	110.08
189.192	38.4
189.412	7.68
189.631	5.63
189.851	17.92
190.07	81.41
190.29	-2.56
190.509	79.36
190.729	-4.61
190.948	22.02
191.168	99.84
191.387	73.21
191.607	-16.9
191.826	-2.56
192.045	3.58
192.265	28.16
192.484	71.17
192.704	-14.85
192.923	-10.75
193.142	3.58
193.362	-23.04
193.581	101.89
193.8	1.54
194.02	60.93
194.239	48.64
194.458	-14.85
194.678	36.35
194.897	5.63
195.116	44.54
195.335	11.78
195.555	83.45
195.774	67.07
195.993	11.78
196.212	-41.47
196.432	50.69
196.651	1.54
196.87	-2.56
197.089	83.45
197.308	32.26
197.528	34.3
197.747	-14.85
197.966	67.07
198.185	15.87
198.404	-2.56
198.623	58.88
198.842	22.02
199.062	56.83
199.281	60.93
199.5	71.17
199.719	128.51
199.938	40.45
200.157	7.68
200.376	124.41
200.595	91.65
200.814	26.11
201.033	28.16
201.252	34.3
201.471	34.3
201.69	136.7
201.909	97.79
202.128	42.5
202.347	-23.04
202.566	-37.38
202.785	44.54
203.004	52.74
203.223	85.5
203.442	50.69
203.661	13.82
203.879	99.84
204.098	93.69
204.317	-12.8
204.536	93.69
204.755	22.02
204.974	19.97
205.193	22.02
205.411	87.55
205.63	42.5
205.849	19.97
206.068	32.26
206.287	-14.85
206.505	28.16
206.724	118.27
206.943	87.55
207.162	52.74
207.381	24.06
207.599	-4.61
207.818	17.92
208.037	28.16
208.255	130.56
208.474	44.54
208.693	62.98
208.911	15.87
209.13	-33.28
209.349	46.59
209.567	42.5
209.786	140.8
210.005	89.6
210.223	19.97
210.442	42.5
210.661	52.74
210.879	46.59
211.098	9.73
211.316	93.69
211.535	42.5
211.753	69.12
211.972	-16.9
212.191	38.4
212.409	19.97
212.628	56.83
212.846	67.07
213.065	75.26
213.283	15.87
213.502	-4.61
213.72	85.5
213.938	-4.61
214.157	-14.85
214.375	93.69
214.594	-31.23
214.812	54.78
215.031	36.35
215.249	77.31
215.467	34.3
215.686	95.74
215.904	36.35
216.122	36.35
216.341	60.93
216.559	7.68
216.778	114.17
216.996	110.08
217.214	71.17
217.432	15.87
217.651	-6.66
217.869	-14.85
218.087	-6.66
218.306	-20.99
218.524	93.69
218.742	32.26
218.96	-2.56
219.179	67.07
219.397	75.26
219.615	17.92
219.833	36.35
220.051	5.63
220.27	11.78
220.488	-2.56
220.706	13.82
220.924	-23.04
221.142	-14.85
221.36	32.26
221.578	3.58
221.796	9.73
222.015	60.93
222.233	11.78
222.451	40.45
222.669	69.12
222.887	60.93
223.105	1.54
223.323	24.06
223.541	-2.56
223.759	95.74
223.977	36.35
224.195	75.26
224.413	11.78
224.631	83.45
224.849	75.26
225.067	36.35
225.285	22.02
225.503	-10.75
225.721	52.74
225.939	50.69
226.157	28.16
226.375	52.74
226.592	-41.47
226.81	42.5
227.028	112.13
227.246	5.63
227.464	73.21
227.682	5.63
227.9	7.68
228.117	38.4
228.335	50.69
228.553	69.12
228.771	26.11
228.989	71.17
229.206	15.87
229.424	75.26
229.642	11.78
229.86	-12.8
230.077	9.73
230.295	60.93
230.513	46.59
230.731	42.5
230.948	-35.33
231.166	71.17
231.384	62.98
231.601	38.4
231.819	44.54
232.037	-6.66
232.254	34.3
232.472	67.07
232.689	50.69
232.907	56.83
233.125	22.02
233.342	69.12
233.56	-16.9
233.777	65.02
233.995	65.02
234.213	120.32
234.43	52.74
234.648	24.06
234.865	58.88
235.083	-31.23
235.3	19.97
235.518	-0.51
235.735	54.78
235.953	73.21
236.17	52.74
236.388	44.54
236.605	69.12
236.822	34.3
237.04	13.82
237.257	69.12
237.475	28.16
237.692	67.07
237.909	1.54
238.127	116.22
238.344	54.78
238.562	36.35
238.779	58.88
238.996	42.5
239.214	44.54
239.431	58.88
239.648	-18.94
239.865	30.21
240.083	-33.28
240.3	9.73
240.517	-64
240.735	-6.66
240.952	105.98
241.169	58.88
241.386	1.54
241.603	44.54
241.821	-23.04
242.038	44.54
242.255	42.5
242.472	69.12
242.689	62.98
242.907	1.54
243.124	22.02
243.341	93.69
243.558	26.11
243.775	58.88
243.992	-2.56
244.209	97.79
244.426	42.5
244.643	44.54
244.86	34.3
245.078	1.54
245.295	-18.94
245.512	62.98
245.729	1.54
245.946	46.59
246.163	15.87
246.38	120.32
246.597	89.6
246.814	65.02
247.031	30.21
247.248	24.06
247.464	34.3
247.681	50.69
247.898	60.93
248.115	38.4
248.332	11.78
248.549	26.11
248.766	54.78
248.983	30.21
249.2	50.69
249.417	46.59
249.633	28.16
249.85	52.74
250.067	22.02
250.284	50.69
250.501	105.98
250.717	44.54
250.934	-8.7
251.151	83.45
251.368	24.06
251.585	48.64
251.801	28.16
252.018	28.16
252.235	36.35
252.451	126.46
252.668	3.58
252.885	-29.18
253.102	56.83
253.318	91.65
253.535	60.93
253.752	50.69
253.968	5.63
254.185	-8.7
254.401	110.08
254.618	60.93
254.835	11.78
255.051	54.78
255.268	-18.94
255.484	13.82
255.701	69.12
255.917	99.84
256.134	56.83
256.351	-27.14
256.567	28.16
256.784	46.59
257	13.82
257.217	120.32
257.433	-12.8
257.65	-27.14
257.866	9.73
258.082	1.54
258.299	69.12
258.515	62.98
258.732	58.88
258.948	1.54
259.165	-14.85
259.381	34.3
259.597	9.73
259.814	67.07
260.03	15.87
260.246	32.26
260.463	36.35
260.679	62.98
260.895	56.83
261.112	95.74
261.328	38.4
261.544	65.02
261.761	67.07
261.977	34.3
262.193	40.45
262.409	30.21
262.626	26.11
262.842	95.74
263.058	56.83
263.274	34.3
263.49	-33.28
263.707	1.54
263.923	15.87
264.139	44.54
264.355	85.5
264.571	34.3
264.787	26.11
265.004	60.93
265.22	38.4
265.436	-29.18
265.652	34.3
265.868	-10.75
266.084	48.64
266.3	58.88
266.516	32.26
266.732	-8.7
266.948	19.97
267.164	3.58
267.38	69.12
267.596	83.45
267.812	79.36
268.028	87.55
268.244	93.69
268.46	48.64
268.676	32.26
268.892	122.37
269.108	30.21
269.324	-4.61
269.54	79.36
269.756	44.54
269.972	-18.94
270.188	77.31
270.403	50.69
270.619	48.64
270.835	50.69
271.051	-6.66
271.267	3.58
271.483	95.74
271.698	79.36
271.914	-0.51
272.13	7.68
272.346	89.6
272.562	7.68
272.777	65.02
272.993	75.26
273.209	1.54
273.425	-18.94
273.64	44.54
273.856	71.17
274.072	40.45
274.287	32.26
274.503	89.6
274.719	93.69
274.934	67.07
275.15	-10.75
275.366	122.37
275.581	42.5
275.797	40.45
276.012	54.78
276.228	24.06
276.444	60.93
276.659	-2.56
276.875	24.06
277.09	58.88
277.306	-20.99
277.521	97.79
277.737	-64
277.952	-41.47
278.168	40.45
278.383	34.3
278.599	75.26
278.814	-29.18
279.03	9.73
279.245	19.97
279.461	67.07
279.676	56.83
279.892	71.17
280.107	75.26
280.322	5.63
280.538	15.87
280.753	32.26
280.969	97.79
281.184	-10.75
281.399	40.45
281.615	7.68
281.83	38.4
282.045	-31.23
282.26	-0.51
282.476	108.03
282.691	17.92
282.906	17.92
283.122	42.5
283.337	65.02
283.552	60.93
283.767	87.55
283.983	56.83
284.198	99.84
284.413	5.63
284.628	56.83
284.843	26.11
285.058	58.88
285.274	-4.61
285.489	3.58
285.704	56.83
285.919	-2.56
286.134	46.59
286.349	-59.9
286.564	-41.47
286.779	69.12
286.995	75.26
287.21	32.26
287.425	77.31
287.64	-10.75
287.855	48.64
288.07	93.69
288.285	26.11
288.5	30.21
288.715	26.11
288.93	1.54
289.145	40.45
289.36	-39.42
289.575	22.02
289.79	52.74
290.004	91.65
290.219	67.07
290.434	34.3
290.649	54.78
290.864	75.26
291.079	-18.94
291.294	-14.85
291.509	36.35
291.724	65.02
291.938	50.69
292.153	-4.61
292.368	-37.38
292.583	101.89
292.798	-4.61
293.012	91.65
293.227	-16.9
293.442	60.93
293.657	32.26
293.871	-16.9
294.086	-25.09
294.301	44.54
294.516	77.31
294.73	77.31
294.945	-29.18
295.16	28.16
295.374	48.64
295.589	-8.7
295.804	-51.71
296.018	38.4
296.233	85.5
296.447	60.93
296.662	83.45
296.877	42.5
297.091	17.92
297.306	58.88
297.52	58.88
297.735	87.55
297.949	44.54
298.164	67.07
298.378	81.41
298.593	50.69
298.807	48.64
299.022	56.83
299.236	38.4
299.451	-8.7
299.665	93.69
299.88	15.87
300.094	-35.33
300.309	122.37
300.523	42.5
300.737	79.36
300.952	-64
301.166	34.3
301.381	34.3
301.595	9.73
301.809	26.11
302.024	60.93
302.238	38.4
302.452	77.31
302.667	-25.09
302.881	124.41
303.095	95.74
303.309	48.64
303.524	28.16
303.738	-10.75
303.952	58.88
304.166	83.45
304.381	11.78
304.595	-2.56
304.809	38.4
305.023	22.02
305.237	34.3
305.452	67.07
305.666	60.93
305.88	46.59
306.094	42.5
306.308	17.92
306.522	122.37
306.736	30.21
306.95	22.02
307.164	62.98
307.379	15.87
307.593	116.22
307.807	77.31
308.021	108.03
308.235	26.11
308.449	-43.52
308.663	7.68
308.877	108.03
309.091	30.21
309.305	50.69
309.519	-20.99
309.733	38.4
309.947	65.02
310.161	89.6
310.374	22.02
310.588	79.36
310.802	93.69
311.016	-0.51
311.23	7.68
311.444	56.83
311.658	85.5
311.872	73.21
312.085	36.35
312.299	26.11
312.513	54.78
312.727	114.17
312.941	19.97
313.154	-37.38
313.368	38.4
313.582	83.45
313.796	28.16
314.009	46.59
314.223	75.26
314.437	58.88
314.651	34.3
314.864	44.54
315.078	-10.75
315.292	15.87
315.505	17.92
315.719	36.35
315.933	44.54
316.146	3.58
316.36	32.26
316.573	-6.66
316.787	3.58
317.001	40.45
317.214	-6.66
317.428	42.5
317.641	120.32
317.855	60.93
318.068	79.36
318.282	-23.04
318.495	85.5
318.709	19.97
318.922	13.82
319.136	124.41
319.349	128.51
319.563	36.35
319.776	-37.38
319.99	5.63
320.203	40.45
320.417	5.63
320.63	19.97
320.843	67.07
321.057	52.74
321.27	17.92
321.483	24.06
321.697	-6.66
321.91	24.06
322.124	56.83
322.337	-14.85
322.55	7.68
322.763	40.45
322.977	-12.8
323.19	19.97
323.403	85.5
323.617	36.35
323.83	19.97
324.043	19.97
324.256	116.22
324.469	36.35
324.683	26.11
324.896	24.06
325.109	30.21
325.322	-45.57
325.535	67.07
325.748	40.45
325.962	108.03
326.175	34.3
326.388	62.98
326.601	48.64
326.814	50.69
327.027	71.17
327.24	97.79
327.453	40.45
327.666	75.26
327.879	60.93
328.092	62.98
328.305	32.26
328.518	22.02
328.731	79.36
328.944	128.51
329.157	-0.51
329.37	36.35
329.583	91.65
329.796	-14.85
330.009	9.73
330.222	-0.51
330.435	-10.75
330.648	101.89
330.861	26.11
331.073	-2.56
331.286	46.59
331.499	120.32
331.712	40.45
331.925	81.41
332.138	9.73
332.35	83.45
332.563	65.02
332.776	62.98
332.989	7.68
333.202	50.69
333.414	22.02
333.627	69.12
333.84	13.82
334.053	89.6
334.265	60.93
334.478	69.12
334.691	71.17
334.903	85.5
335.116	58.88
335.329	28.16
335.541	-6.66
335.754	9.73
335.966	44.54
336.179	-53.76
336.392	34.3
336.604	24.06
336.817	36.35
337.029	34.3
337.242	26.11
337.454	44.54
337.667	24.06
337.88	93.69
338.092	-4.61
338.305	69.12
338.517	67.07
338.729	71.17
338.942	122.37
339.154	65.02
339.367	79.36
339.579	50.69
339.792	52.74
340.004	40.45
340.217	-16.9
340.429	32.26
340.641	5.63
340.854	38.4
341.066	-29.18
341.278	153.09
341.491	56.83
341.703	34.3
341.915	34.3
342.128	42.5
342.34	60.93
342.552	67.07
342.764	5.63
342.977	103.93
343.189	22.02
343.401	-4.61
343.613	40.45
343.826	77.31
344.038	60.93
344.25	108.03
344.462	54.78
344.674	50.69
344.886	52.74
345.099	-31.23
345.311	32.26
345.523	34.3
345.735	32.26
345.947	103.93
346.159	50.69
346.371	103.93
346.583	-23.04
346.795	108.03
347.007	62.98
347.219	81.41
347.431	89.6
347.643	71.17
347.855	77.31
348.067	-4.61
348.279	5.63
348.491	48.64
348.703	38.4
348.915	140.8
349.127	42.5
349.339	83.45
349.551	93.69
349.763	91.65
349.975	46.59
350.187	22.02
350.399	93.69
350.61	36.35
350.822	13.82
351.034	58.88
351.246	-4.61
351.458	60.93
351.669	38.4
351.881	26.11
352.093	97.79
352.305	50.69
352.517	116.22
352.728	120.32
352.94	46.59
353.152	-10.75
353.363	24.06
353.575	81.41
353.787	38.4
353.999	24.06
354.21	60.93
354.422	40.45
354.633	-6.66
354.845	99.84
355.057	65.02
355.268	28.16
355.48	5.63
355.692	60.93
355.903	65.02
356.115	83.45
356.326	67.07
356.538	48.64
356.749	34.3
356.961	120.32
357.172	22.02
357.384	34.3
357.595	52.74
357.807	11.78
358.018	-18.94
358.23	40.45
358.441	42.5
358.653	32.26
358.864	81.41
359.075	42.5
359.287	40.45
359.498	-6.66
359.709	56.83
359.921	46.59
360.132	44.54
360.344	46.59
360.555	-41.47
360.766	132.61
360.977	56.83
361.189	32.26
361.4	46.59
361.611	54.78
361.823	9.73
362.034	85.5
362.245	-35.33
362.456	40.45
362.667	65.02
362.879	54.78
363.09	93.69
363.301	126.46
363.512	26.11
363.723	17.92
363.935	15.87
364.146	38.4
364.357	-12.8
364.568	77.31
364.779	15.87
364.99	50.69
365.201	38.4
365.412	105.98
365.623	-31.23
365.834	69.12
366.045	26.11
366.256	28.16
366.467	34.3
366.678	89.6
366.889	36.35
367.1	87.55
367.311	89.6
367.522	52.74
367.733	79.36
367.944	54.78
368.155	-8.7
368.366	52.74
368.577	124.41
368.788	79.36
368.999	30.21
369.209	58.88
369.42	38.4
369.631	81.41
369.842	69.12
370.053	30.21
370.264	28.16
370.474	28.16
370.685	91.65
370.896	38.4
371.107	67.07
371.317	85.5
371.528	46.59
371.739	130.56
371.95	38.4
372.16	9.73
372.371	65.02
372.582	38.4
372.792	-18.94
373.003	67.07
373.214	-33.28
373.424	75.26
373.635	54.78
373.846	151.04
374.056	36.35
374.267	30.21
374.477	15.87
374.688	-4.61
374.898	128.51
375.109	40.45
375.319	44.54
375.53	73.21
375.74	19.97
375.951	40.45
376.161	38.4
376.372	26.11
376.582	87.55
376.793	132.61
377.003	13.82
377.214	44.54
377.424	32.26
377.635	26.11
377.845	79.36
378.055	19.97
378.266	83.45
378.476	3.58
378.686	22.02
378.897	89.6
379.107	85.5
379.317	56.83
379.528	73.21
379.738	-12.8
379.948	58.88
380.158	-6.66
380.369	105.98
380.579	81.41
380.789	24.06
380.999	87.55
381.21	48.64
381.42	-59.9
381.63	75.26
381.84	-31.23
382.05	132.61
382.261	67.07
382.471	65.02
382.681	75.26
382.891	46.59
383.101	-4.61
383.311	69.12
383.521	46.59
383.731	-29.18
383.941	15.87
384.151	-18.94
384.361	97.79
384.571	28.16
384.781	26.11
384.991	83.45
385.201	110.08
385.411	5.63
385.621	69.12
385.831	24.06
386.041	30.21
386.251	69.12
386.461	65.02
386.671	-20.99
386.881	85.5
387.091	58.88
387.301	58.88
387.511	81.41
387.72	71.17
387.93	38.4
388.14	60.93
388.35	60.93
388.56	75.26
388.769	58.88
388.979	112.13
389.189	-2.56
389.399	69.12
389.609	38.4
389.818	65.02
390.028	54.78
390.238	44.54
390.447	97.79
390.657	62.98
390.867	1.54
391.076	58.88
391.286	17.92
391.496	93.69
391.705	44.54
391.915	169.47
392.125	87.55
392.334	112.13
392.544	32.26
392.753	48.64
392.963	60.93
393.172	75.26
393.382	26.11
393.591	85.5
393.801	91.65
394.01	69.12
394.22	52.74
394.429	146.94
394.639	19.97
394.848	65.02
395.058	60.93
395.267	67.07
395.477	126.46
395.686	67.07
395.895	85.5
396.105	56.83
396.314	60.93
396.524	34.3
396.733	67.07
396.942	81.41
397.152	-4.61
397.361	26.11
397.57	73.21
397.78	22.02
397.989	71.17
398.198	167.42
398.407	46.59
398.617	67.07
398.826	75.26
399.035	40.45
399.244	67.07
399.453	140.8
399.663	44.54
399.872	118.27
400.081	67.07
400.29	75.26
400.499	56.83
400.708	103.93
400.917	77.31
401.127	110.08
401.336	22.02
401.545	161.28
401.754	144.89
401.963	75.26
402.172	97.79
402.381	93.69
402.59	75.26
402.799	73.21
403.008	32.26
403.217	71.17
403.426	112.13
403.635	42.5
403.844	103.93
404.053	112.13
404.262	62.98
404.471	13.82
404.68	136.7
404.888	87.55
405.097	146.94
405.306	112.13
405.515	91.65
405.724	122.37
405.933	136.7
406.142	155.13
406.35	56.83
406.559	151.04
406.768	83.45
406.977	157.18
407.185	114.17
407.394	157.18
407.603	146.94
407.812	218.62
408.02	216.57
408.229	146.94
408.438	114.17
408.646	99.84
408.855	177.66
409.064	226.81
409.272	163.33
409.481	132.61
409.69	146.94
409.898	228.86
410.107	220.67
410.315	114.17
410.524	224.76
410.733	230.91
410.941	200.19
411.15	259.58
411.358	275.96
411.567	196.09
411.775	261.63
411.984	294.4
412.192	286.2
412.401	245.24
412.609	241.15
412.818	265.72
413.026	331.26
413.234	249.34
413.443	255.48
413.651	226.81
413.86	302.59
414.068	439.8
414.276	302.59
414.485	388.6
414.693	337.4
414.901	353.79
415.11	370.17
415.318	349.69
415.526	427.51
415.734	447.99
415.943	347.64
416.151	464.38
416.359	529.91
416.567	478.71
416.776	486.9
416.984	437.75
417.192	525.82
417.4	525.82
417.608	581.11
417.817	486.9
418.025	513.53
418.233	591.35
418.441	642.55
418.649	687.61
418.857	712.18
419.065	599.54
419.273	671.22
419.481	716.28
419.689	826.87
419.897	808.44
420.105	757.24
420.313	769.52
420.521	845.3
420.729	943.6
420.937	953.84
421.145	914.93
421.353	968.18
421.561	1060.34
421.769	1052.14
421.977	1033.71
422.185	1046
422.393	1168.88
422.601	1347.05
422.809	1265.13
423.017	1291.76
423.224	1402.35
423.432	1314.28
423.64	1359.34
423.848	1379.82
424.056	1459.69
424.263	1517.03
424.471	1623.53
424.679	1459.69
424.887	1566.18
425.094	1672.68
425.302	1740.26
425.51	1756.65
425.718	1738.21
425.925	1779.17
426.133	1869.28
426.341	1979.87
426.548	2055.65
426.756	2008.55
426.964	2010.59
427.171	2158.05
427.379	2235.87
427.586	2293.21
427.794	2246.11
428.001	2483.67
428.209	2565.59
428.417	2520.54
428.624	2659.8
428.832	2792.92
429.039	2596.31
429.247	2758.1
429.454	2971.09
429.662	3235.28
429.869	2840.02
430.076	3098.06
430.284	3069.39
430.491	3225.04
430.699	3372.49
430.906	3378.64
431.114	3497.42
431.321	3579.34
431.528	3616.2
431.736	3775.94
431.943	3978.69
432.15	3864.01
432.358	3892.68
432.565	4083.14
432.772	4058.56
432.979	4441.53
433.187	4550.07
433.394	4472.25
433.601	4588.99
433.808	4769.21
434.016	4718.01
434.223	5119.41
434.43	5123.51
434.637	5113.27
434.844	5371.31
435.052	5617.07
435.259	5471.66
435.466	5465.52
435.673	5543.34
435.88	5815.72
436.087	6178.21
436.294	6270.37
436.501	6122.91
436.708	6202.79
436.915	6407.58
437.122	6669.72
437.329	6477.21
437.537	6757.78
437.743	7028.12
437.95	7054.74
438.157	7427.47
438.364	7480.72
438.571	7421.33
438.778	7484.81
438.985	8312.19
439.192	7949.7
439.399	8078.72
439.606	8148.36
439.813	8516.99
440.02	8719.74
440.227	8910.2
440.433	8631.68
440.64	9149.81
440.847	9008.5
441.054	9354.61
441.261	9674.09
441.467	9692.52
441.674	9913.7
441.881	10270.05
442.088	10282.34
442.294	10175.84
442.501	10435.94
442.708	10599.77
442.914	10935.64
443.121	11638.09
443.328	11271.51
443.534	12082.5
443.741	11656.53
443.948	11429.2
444.154	12291.4
444.361	12397.89
444.568	12469.57
444.774	12479.81
444.981	12375.36
445.187	12895.55
445.394	13405.49
445.6	13274.42
445.807	14873.89
446.013	14034.22
446.22	14218.54
446.426	14851.36
446.633	15115.55
446.839	15287.57
447.046	14824.73
447.252	15549.71
447.459	15600.91
447.665	15791.38
447.871	16616.71
448.078	17093.88
448.284	16168.2
448.491	16434.44
448.697	17364.22
448.903	17620.21
449.11	17489.14
449.316	17362.17
449.522	17941.74
449.728	18349.29
449.935	18818.27
450.141	18408.68
450.347	18846.94
450.553	18404.58
450.76	18590.95
450.966	19303.64
451.172	18855.14
451.378	19455.19
451.584	19234.01
451.791	19598.55
451.997	19541.21
452.203	19877.07
452.409	20063.44
452.615	19993.81
452.821	18953.44
453.027	18715.87
453.233	20196.56
453.44	19309.79
453.646	19258.59
453.852	19694.8
454.058	20100.3
454.264	19143.9
454.47	19645.65
454.676	19289.31
454.882	19856.59
455.088	17972.46
455.294	18437.35
455.5	18709.73
455.705	18873.57
455.911	18083.05
456.117	17829.1
456.323	17233.15
456.529	16698.63
456.735	17437.94
456.941	16956.67
457.147	16411.91
457.352	16051.47
457.558	15934.73
457.764	16041.23
457.97	15734.03
458.176	15418.64
458.381	15596.82
458.587	14501.15
458.793	14595.36
458.999	13788.46
459.204	14843.17
459.41	14320.93
459.616	13479.22
459.821	13698.35
460.027	13468.98
460.233	13108.54
460.438	12586.3
460.644	12715.33
460.85	12019.02
461.055	11836.75
461.261	11879.75
461.466	11048.28
461.672	10620.25
461.878	11335
462.083	10620.25
462.289	10503.52
462.494	10169.7
462.7	10057.06
462.905	9657.71
463.111	9956.71
463.316	10093.93
463.522	9852.27
463.727	9717.1
463.932	9944.42
464.138	9741.68
464.343	9772.39
464.549	9506.16
464.754	9958.76
464.959	9616.75
465.165	9526.64
465.37	9219.44
465.575	9028.98
465.781	9422.19
465.986	9508.21
466.191	9047.41
466.397	8883.58
466.602	8435.07
466.807	8758.65
467.012	8785.27
467.218	8715.64
467.423	8805.75
467.628	8521.09
467.833	9020.79
468.038	8670.59
468.244	8484.22
468.449	8856.95
468.654	8570.24
468.859	8488.32
469.064	8336.77
469.269	8066.44
469.474	8097.16
469.679	8482.17
469.885	7988.61
470.09	8107.4
470.295	8140.16
470.5	7951.75
470.705	7968.13
470.91	7837.06
471.115	7753.1
471.32	8011.14
471.525	7961.99
471.73	7619.98
471.935	7599.5
472.139	7245.2
472.344	7421.33
472.549	7359.89
472.754	7284.11
472.959	7167.38
473.164	7011.73
473.369	6985.11
473.574	7202.19
473.778	7042.45
473.983	7087.51
474.188	7050.64
474.393	6706.59
474.598	6772.12
474.802	6647.19
475.007	6669.72
475.212	6507.93
475.417	6491.55
475.621	6348.19
475.826	6460.83
476.031	6350.24
476.235	6221.22
476.44	6233.5
476.645	6223.27
476.849	6172.07
477.054	6045.09
477.259	6239.65
477.463	6159.78
477.668	5977.51
477.872	6049.19
478.077	5791.14
478.282	5619.11
478.486	5725.61
478.691	5537.2
478.895	5594.54
479.1	5619.11
479.304	5662.12
479.509	5529
479.713	5543.34
479.918	5350.83
480.122	5352.88
480.326	5324.21
480.531	5440.94
480.735	5256.62
480.94	5111.22
481.144	5375.41
481.348	5039.54
481.553	5291.44
481.757	5139.89
481.961	5246.38
482.166	5150.13
482.37	5131.7
482.574	5072.31
482.778	5090.74
482.983	5258.67
483.187	5213.62
483.391	5131.7
483.595	5094.83
483.8	4894.13
484.004	5246.38
484.208	5318.06
484.412	5266.86
484.616	5060.02
484.821	5223.86
485.025	5178.8
485.229	5424.56
485.433	4982.2
485.637	5246.38
485.841	5174.71
486.045	5264.82
486.249	5191.09
486.453	5158.32
486.657	5328.3
486.861	5068.21
487.065	5062.07
487.269	5211.57
487.473	5057.97
487.677	5277.1
487.881	5287.34
488.085	5125.55
488.289	5236.14
488.493	5363.12
488.697	5268.91
488.901	5160.37
489.105	5098.93
489.309	5223.86
489.512	5250.48
489.716	5250.48
489.92	5178.8
490.124	5262.77
490.328	5426.61
490.531	5344.69
490.735	5318.06
490.939	5268.91
491.143	5457.32
491.346	5303.73
491.55	5469.61
491.754	5424.56
491.958	5516.72
492.161	5334.45
492.365	5479.85
492.569	5541.29
492.772	5510.57
492.976	5596.59
493.18	5465.52
493.383	5604.78
493.587	5617.07
493.79	5793.19
493.994	5572.01
494.197	5782.95
494.401	5764.52
494.605	5803.43
494.808	5727.66
495.012	5893.54
495.215	6008.23
495.419	6219.17
495.622	5940.65
495.825	6024.61
496.029	6325.66
496.232	6182.31
496.436	6104.48
496.639	6376.86
496.843	6620.57
497.046	6534.56
497.249	6528.41
497.453	6559.13
497.656	6688.15
497.859	6774.17
498.063	6679.96
498.266	6931.86
498.469	6987.16
498.673	7030.16
498.876	7009.69
499.079	7081.36
499.282	7175.57
499.485	7458.19
499.689	7493.01
499.892	7466.38
500.095	7447.95
500.298	7810.44
500.501	7730.57
500.705	7841.16
500.908	8007.05
501.111	8080.77
501.314	8138.12
501.517	8131.97
501.72	8387.97
501.923	8390.02
502.126	8557.95
502.329	8846.71
502.532	8674.68
502.735	8639.87
502.938	9155.96
503.141	9127.28
503.344	9239.92
503.547	9260.4
503.75	9209.2
503.953	9342.32
504.156	9481.58
504.359	9416.05
504.562	9694.57
504.765	9805.16
504.968	10071.4
505.17	10265.96
505.373	10208.61
505.576	10579.29
505.779	10456.42
505.982	10618.21
506.185	10780
506.387	10982.74
506.59	10685.79
506.793	11023.7
506.996	11134.29
507.198	11441.49
507.401	11531.6
507.604	11504.98
507.807	11830.6
508.009	11857.23
508.212	11898.19
508.415	12369.22
508.617	12453.19
508.82	12340.55
509.022	12291.4
509.225	12621.12
509.428	12774.72
509.63	13135.16
509.833	13126.97
510.035	13339.96
510.238	13325.62
510.44	13454.64
510.643	13567.28
510.845	13944.11
511.048	13831.47
511.25	14064.94
511.453	14204.2
511.655	14617.89
511.858	14396.71
512.06	14781.73
512.262	14875.93
512.465	14929.18
512.667	15097.11
512.87	15238.42
513.072	15471.89
513.274	15801.61
513.477	15815.95
513.679	16213.26
513.881	16182.54
514.084	16444.68
514.286	16297.22
514.488	16491.78
514.69	17353.98
514.893	17005.82
515.095	17179.9
515.297	17564.92
515.499	17665.27
515.701	18027.76
515.904	18058.48
516.106	18121.96
516.308	18236.65
516.51	18203.88
516.712	18400.49
516.914	18851.04
517.116	18961.63
517.318	19088.6
517.52	19053.79
517.722	19205.34
517.925	19512.53
518.127	20081.87
518.329	19930.32
518.531	19981.52
518.733	20315.34
518.935	20712.64
519.136	20702.4
519.338	20849.86
519.54	21083.33
519.742	21247.16
519.944	21378.23
520.146	21918.9
520.348	21650.61
520.55	22135.98
520.752	22021.3
520.954	22398.12
521.155	22164.65
521.357	22586.54
521.559	22881.44
521.761	23436.44
521.963	23211.17
522.164	23559.32
522.366	23481.5
522.568	23665.81
522.77	23956.63
522.971	24376.46
523.173	24005.78
523.375	24161.42
523.576	24317.07
523.778	24343.69
523.98	24970.37
524.181	24534.15
524.383	24736.9
524.584	25638.01
524.786	25287.81
524.988	25308.29
525.189	25470.08
525.391	25676.92
525.592	26004.6
525.794	26252.4
525.995	25797.75
526.197	26141.81
526.398	26106.99
526.6	26827.88
526.801	26393.71
527.003	26866.79
527.204	26453.1
527.406	26946.66
527.607	26748.01
527.808	27077.73
528.01	26831.97
528.211	27231.33
528.412	27604.06
528.614	27331.68
528.815	27092.07
529.016	27741.27
529.218	27569.24
529.419	27524.19
529.62	27548.76
529.822	27395.17
530.023	27579.48
530.224	27591.77
530.425	27769.94
530.626	27759.7
530.828	27876.44
531.029	28697.67
531.23	27935.83
531.431	28302.42
531.632	27976.79
531.833	28363.86
532.035	28257.36
532.236	28476.49
532.437	28036.18
532.638	28324.94
532.839	28445.77
533.04	28447.82
533.241	28269.65
533.442	28916.81
533.643	28333.14
533.844	28660.81
534.045	28517.45
534.246	28382.29
534.447	28791.88
534.648	28812.36
534.849	28496.97
535.05	28576.84
535.251	28892.23
535.451	28507.21
535.652	28828.74
535.853	28456.01
536.054	28660.81
536.255	28902.47
536.456	28580.94
536.657	29019.21
536.857	28496.97
537.058	28666.95
537.259	28669
537.46	28410.96
537.66	28443.73
537.861	28806.22
538.062	28628.04
538.263	28787.78
538.463	28501.07
538.664	28845.13
538.865	28896.33
539.065	28699.72
539.266	28480.59
539.466	28869.7
539.667	28548.17
539.868	28910.66
540.068	28742.73
540.269	28390.48
540.469	28585.04
540.67	28410.96
540.87	28832.84
541.071	28552.27
541.271	28621.9
541.472	28736.59
541.672	28417.1
541.873	28673.1
542.073	28501.07
542.274	28603.47
542.474	28705.87
542.675	28304.46
542.875	28757.07
543.075	28525.64
543.276	28034.13
543.476	28949.57
543.676	28777.54
543.877	28660.81
544.077	28611.66
544.277	28370
544.478	28294.22
544.678	28726.35
544.878	28884.04
545.078	28597.32
545.279	28486.73
545.479	28187.73
545.679	28828.74
545.879	28255.31
546.079	28384.33
546.28	28492.88
546.48	28623.95
546.68	28623.95
546.88	28609.61
547.08	28410.96
547.28	28552.27
547.48	28558.41
547.68	28492.88
547.88	28279.89
548.081	28673.1
548.281	28861.51
548.481	28394.57
548.681	28724.3
548.881	28175.44
549.081	28228.69
549.28	28105.81
549.48	28290.13
549.68	28406.86
549.88	28910.66
550.08	28292.18
550.28	28298.32
550.48	28212.31
550.68	28761.16
550.88	28189.78
551.08	28314.7
551.279	28517.45
551.479	28218.45
551.679	28288.08
551.879	28408.91
552.079	28521.55
552.278	28195.92
552.478	28165.2
552.678	28159.06
552.878	28421.2
553.077	28187.73
553.277	28232.79
553.477	28640.33
553.676	28015.7
553.876	28435.53
554.076	28191.83
554.275	28050.52
554.475	27640.92
554.674	28132.43
554.874	28154.96
555.074	27829.34
555.273	28431.44
555.473	28247.12
555.672	27776.09
555.872	27665.5
556.071	28154.96
556.271	27982.93
556.47	27913.3
556.67	27671.64
556.869	27550.81
557.068	28124.24
557.268	27790.42
557.467	28095.57
557.667	28308.56
557.866	27767.9
558.065	27681.88
558.265	27690.07
558.464	27442.27
558.663	27864.15
558.863	27286.62
559.062	27829.34
559.261	27528.28
559.461	27788.38
559.66	27337.82
559.859	27518.04
560.058	27286.62
560.258	27411.55
560.457	27143.27
560.656	27362.4
560.855	27182.18
561.054	27569.24
561.253	26938.47
561.453	27354.21
561.652	26885.22
561.851	27075.68
562.05	27090.02
562.249	26862.69
562.448	27096.16
562.647	26844.26
562.846	26555.5
563.045	26850.41
563.244	26666.09
563.443	27188.32
563.642	26537.07
563.841	26664.04
564.04	26289.26
564.239	26905.7
564.438	26444.91
564.637	26436.72
564.836	26492.01
565.035	26133.62
565.234	26471.53
565.432	26252.4
565.631	26147.95
565.83	26412.14
566.029	26070.13
566.228	26031.22
566.427	25795.7
566.625	25853.05
566.824	26166.38
567.023	25920.63
567.222	25150.59
567.42	25805.94
567.619	25506.94
567.818	25599.1
568.016	25449.6
568.215	25527.42
568.414	25171.07
568.612	25447.55
568.811	25320.57
569.01	25558.14
569.208	25113.73
569.407	25197.7
569.605	25060.48
569.804	25068.67
570.002	25015.43
570.201	25148.54
570.4	25031.81
570.598	24839.3
570.797	24466.57
570.995	24708.23
571.193	24118.42
571.392	24904.84
571.59	24427.66
571.789	24448.14
571.987	24351.88
572.186	24528.01
572.384	23966.87
572.582	24251.53
572.781	24423.56
572.979	23819.41
573.177	24130.7
573.376	24272.01
573.574	24026.26
573.772	24091.79
573.971	24056.98
574.169	23897.24
574.367	23676.05
574.565	23923.86
574.763	23487.64
574.962	23686.29
575.16	23344.28
575.358	23641.24
575.556	22908.07
575.754	23633.05
575.952	23217.31
576.151	23264.41
576.349	23014.56
576.547	23297.18
576.745	22842.53
576.943	23137.44
577.141	22918.31
577.339	23176.35
577.537	22801.57
577.735	22936.74
577.933	22531.24
578.131	22858.92
578.329	22740.13
578.527	22201.52
578.725	22336.68
578.923	22375.59
579.121	22213.81
579.319	22176.94
579.516	22299.82
579.714	22363.31
579.912	22127.79
580.11	22013.1
580.308	21824.69
580.506	22115.5
580.704	21486.78
580.901	21869.75
581.099	21882.03
581.297	21746.87
581.495	21314.75
581.692	21732.53
581.89	21607.61
582.088	21607.61
582.285	21114.05
582.483	21341.37
582.681	21535.93
582.878	21091.52
583.076	21122.24
583.274	21343.42
583.471	20880.58
583.669	21040.32
583.866	20915.39
584.064	21294.27
584.262	20600.01
584.459	20911.3
584.657	20884.67
584.854	20745.41
585.052	20327.63
585.249	20704.45
585.447	20772.04
585.644	20415.69
585.841	20296.91
586.039	20536.52
586.236	19983.57
586.434	20223.18
586.631	20169.93
586.828	19936.46
587.026	20286.67
587.223	20026.57
587.42	20034.77
587.618	19993.81
587.815	19743.95
588.012	19682.52
588.21	19778.77
588.407	19811.54
588.604	19598.55
588.801	19234.01
588.999	19365.08
589.196	19317.98
589.393	19291.35
589.59	19309.79
589.787	19061.98
589.984	19377.37
590.182	19266.78
590.379	19221.72
590.576	18871.52
590.773	19014.88
590.97	19000.54
591.167	19137.76
591.364	18863.33
591.561	18818.27
591.758	18705.63
591.955	18615.52
592.152	18674.92
592.349	18531.56
592.546	18437.35
592.743	18502.89
592.94	18070.76
593.137	18265.32
593.334	18564.32
593.531	18130.16
593.727	18031.85
593.924	18207.98
594.121	17798.38
594.318	18187.5
594.515	17865.97
594.712	17972.46
594.908	17812.72
595.105	18009.33
595.302	17673.46
595.499	17880.3
595.696	17573.11
595.892	17566.96
596.089	17698.03
596.286	17534.2
596.482	17485.05
596.679	17411.32
596.876	17515.76
597.072	17657.07
597.269	17304.82
597.466	17202.43
597.662	17042.68
597.859	17073.4
598.055	17183.99
598.252	17200.38
598.448	17333.5
598.645	16975.1
598.841	16755.97
599.038	17018.11
599.234	17235.19
599.431	16731.39
599.627	16733.44
599.824	16850.17
600.02	16555.27
600.217	16657.67
600.413	16424.2
600.609	16413.96
600.806	16274.7
601.002	16567.56
601.198	16143.63
601.395	16180.49
601.591	16207.11
601.787	16321.8
601.984	15852.81
602.18	16307.46
602.376	15998.22
602.572	15738.13
602.769	16162.06
602.965	15754.51
603.161	15877.39
603.357	15668.5
603.553	15713.55
603.75	15461.65
603.946	15727.89
604.142	15682.83
604.338	15371.54
604.534	15576.34
604.73	15445.27
604.926	15568.15
605.122	15588.63
605.318	15283.48
605.514	15297.81
605.71	15179.03
605.906	15074.59
606.102	15195.42
606.298	15121.69
606.494	14988.57
606.69	14947.61
606.886	15017.24
607.082	14832.93
607.278	14779.68
607.474	14658.85
607.67	14925.08
607.866	14708
608.062	14949.66
608.257	14753.05
608.453	14677.28
608.649	14748.96
608.845	14538.02
609.041	14705.95
609.236	14542.11
609.432	14474.53
609.628	14349.61
609.824	14292.26
610.019	14355.75
610.215	14468.39
610.411	14464.29
610.606	14271.78
610.802	14286.12
610.998	14193.96
611.193	14179.62
611.389	14112.04
611.584	14056.75
611.78	14159.14
611.976	13933.87
612.171	14132.52
612.367	14001.45
612.562	13968.68
612.758	13686.06
612.953	13739.31
613.149	13948.2
613.344	13684.02
613.539	14089.51
613.735	13763.89
613.93	13929.77
614.126	13735.21
614.321	13788.46
614.517	13622.58
614.712	13665.58
614.907	13589.81
615.103	13724.97
615.298	13407.54
615.493	13528.37
615.688	13503.79
615.884	13411.64
616.079	13485.36
616.274	13573.42
616.47	13479.22
616.665	13167.93
616.86	13501.75
617.055	13280.57
617.25	13294.9
617.445	13239.61
617.641	13098.3
617.836	13399.35
618.031	12944.7
618.226	13260.09
618.421	13038.91
618.616	13075.77
618.811	12799.29
619.006	13004.09
619.201	12694.85
619.396	12717.37
619.591	12320.07
619.786	12647.74
619.981	12453.19
620.176	12582.21
620.371	12520.77
620.566	12385.6
620.761	12565.82
620.956	12485.95
621.151	12291.4
621.346	12309.83
621.541	11935.05
621.735	12340.55
621.93	11937.1
622.125	11902.28
622.32	11736.4
622.515	11857.23
622.709	11814.22
622.904	11736.4
623.099	11634
623.294	11830.6
623.488	11464.02
623.683	11724.11
623.878	11322.71
624.072	11461.97
624.267	11175.25
624.462	11128.15
624.656	11337.04
624.851	11199.83
625.046	11068.76
625.24	10923.35
625.435	11087.19
625.629	11107.67
625.824	10796.38
626.018	10886.49
626.213	10577.25
626.407	10845.53
626.602	10683.74
626.796	10519.9
626.991	10884.44
627.185	10440.03
627.38	10401.12
627.574	10503.52
627.768	10374.5
627.963	10077.54
628.157	10218.85
628.352	10243.43
628.546	10046.82
628.74	9989.48
628.935	9885.03
629.129	10098.02
629.323	9715.05
629.517	9856.36
629.712	9915.75
629.906	9805.16
630.1	9618.8
630.294	9620.85
630.489	9391.47
630.683	9385.33
630.877	9366.9
631.071	9452.91
631.265	9536.88
631.459	9356.66
631.653	9487.73
631.848	9178.48
632.042	9151.86
632.236	9295.22
632.43	9045.37
632.624	9155.96
632.818	8899.96
633.012	8979.83
633.206	8807.8
633.4	8879.48
633.594	8938.87
633.788	8891.77
633.982	8801.66
634.176	8707.45
634.369	8703.36
634.563	8519.04
634.757	8574.33
634.951	8555.9
635.145	8572.29
635.339	8523.13
635.533	8320.39
635.726	8404.35
635.92	8207.75
636.114	8117.64
636.308	8211.84
636.501	8148.36
636.695	8117.64
636.889	8131.97
637.083	8107.4
637.276	7849.35
637.47	7789.96
637.664	7773.58
637.857	7849.35
638.051	7681.42
638.244	7792.01
638.438	7878.02
638.632	7589.26
638.825	7554.44
639.019	7662.99
639.212	7409.04
639.406	7597.45
639.599	7425.42
639.793	7409.04
639.986	7435.66
640.18	7329.17
640.373	7261.59
640.567	7198.1
640.76	7284.11
640.954	7202.19
641.147	6976.92
641.34	7046.55
641.534	7134.61
641.727	7032.21
641.92	6948.25
642.114	6905.24
642.307	7046.55
642.5	6567.32
642.694	6823.32
642.887	6800.79
643.08	6870.42
643.273	6663.58
643.467	6761.88
643.66	6653.34
643.853	6550.94
644.046	6579.61
644.239	6602.14
644.432	6323.62
644.626	6481.31
644.819	6471.07
645.012	6395.29
645.205	6399.39
645.398	6532.51
645.591	6432.16
645.784	6284.7
645.977	6131.11
646.17	6260.13
646.363	6245.79
646.556	6004.13
646.749	6057.38
646.942	6084
647.135	5944.74
647.328	5873.06
647.521	5774.76
647.714	5752.23
647.907	5658.03
648.099	5770.66
648.292	5823.91
648.485	5756.33
648.678	5678.51
648.871	5580.2
649.064	5574.06
649.256	5617.07
649.449	5733.8
649.642	5492.14
649.835	5580.2
650.027	5348.78
650.22	5293.49
650.413	5504.43
650.605	5506.48
650.798	5424.56
650.991	5293.49
651.183	5225.9
651.376	5277.1
651.568	5211.57
651.761	5234.1
651.954	5184.94
652.146	5172.66
652.339	5311.92
652.531	4988.34
652.724	5066.16
652.916	4926.9
653.109	5098.93
653.301	4998.58
653.494	5012.92
653.686	4871.61
653.879	4998.58
654.071	4871.61
654.263	4736.44
654.456	4924.85
654.648	4875.7
654.84	4771.26
655.033	4650.43
655.225	4791.73
655.417	4810.17
655.61	4740.54
655.802	4668.86
655.994	4672.95
656.186	4584.89
656.379	4601.27
656.571	4416.96
656.763	4519.36
656.955	4433.34
657.148	4543.93
657.34	4523.45
657.532	4468.16
657.724	4371.9
657.916	4410.81
658.108	4326.85
658.3	4150.72
658.492	4320.7
658.684	4302.27
658.876	4175.3
659.068	4318.65
659.26	4111.81
659.452	4158.91
659.644	4199.87
659.836	4152.77
660.028	4183.49
660.22	3890.63
660.412	4050.37
660.604	3968.45
660.796	4056.51
660.988	4058.56
661.18	3833.29
661.372	3909.06
661.563	3945.92
661.755	3974.6
661.947	3870.15
662.139	3884.48
662.331	3892.68
662.522	3804.61
662.714	3790.28
662.906	3747.27
663.097	3722.7
663.289	3790.28
663.481	3669.45
663.673	3698.12
663.864	3591.63
664.056	3603.91
664.247	3708.36
664.439	3552.71
664.631	3677.64
664.822	3505.61
665.014	3565
665.205	3575.24
665.397	3466.7
665.588	3384.78
665.78	3380.68
665.971	3493.32
666.163	3411.4
666.354	3360.2
666.546	3333.58
666.737	3286.48
666.929	3470.8
667.12	3423.69
667.311	3347.92
667.503	3311.05
667.694	3376.59
667.885	3401.16
668.077	3255.76
668.268	3153.36
668.459	3192.27
668.651	3143.12
668.842	3253.71
669.033	3122.64
669.224	3067.35
669.416	3106.26
669.607	3204.56
669.798	3122.64
669.989	3075.54
670.18	3077.59
670.371	3055.06
670.563	3167.7
670.754	2981.33
670.945	3001.81
671.136	2958.8
671.327	3118.54
671.518	2944.47
671.709	3044.82
671.9	3118.54
672.091	3112.4
672.282	2934.23
672.473	2942.42
672.664	2911.7
672.855	2921.94
673.046	3055.06
673.237	2887.12
673.428	2811.35
673.619	2950.61
673.809	2872.79
674	2848.21
674.191	2903.51
674.382	2850.26
674.573	2766.29
674.764	2758.1
674.954	2852.31
675.145	2717.14
675.336	2782.68
675.527	2778.58
675.717	2713.05
675.908	2760.15
676.099	2786.77
676.289	2717.14
676.48	2682.33
676.671	2758.1
676.861	2676.18
677.052	2737.62
677.243	2538.97
677.433	2715.09
677.624	2653.66
677.814	2696.66
678.005	2682.33
678.195	2581.98
678.386	2616.79
678.576	2620.89
678.767	2624.98
678.957	2715.09
679.148	2549.21
679.338	2624.98
679.529	2616.79
679.719	2624.98
679.909	2629.08
680.1	2715.09
680.29	2581.98
680.481	2584.02
680.671	2549.21
680.861	2596.31
681.052	2555.35
681.242	2598.36
681.432	2575.83
681.622	2532.83
681.813	2409.95
682.003	2498.01
682.193	2452.95
682.383	2469.34
682.573	2516.44
682.764	2518.49
682.954	2532.83
683.144	2498.01
683.334	2561.5
683.524	2442.71
683.714	2555.35
683.904	2479.58
684.094	2649.56
684.284	2602.46
684.474	2524.63
684.664	2432.47
684.854	2493.91
685.044	2549.21
685.234	2485.72
685.424	2598.36
685.614	2467.29
685.804	2362.84
685.994	2444.76
686.184	2403.8
686.374	2395.61
686.564	2342.36
686.753	2422.24
686.943	2309.6
687.133	2528.73
687.323	2409.95
687.513	2514.39
687.702	2409.95
687.892	2319.84
688.082	2325.98
688.272	2405.85
688.461	2287.07
688.651	2336.22
688.841	2373.08
689.03	2381.28
689.22	2321.88
689.41	2407.9
689.599	2389.47
689.789	2336.22
689.979	2303.45
690.168	2293.21
690.358	2344.41
690.547	2237.92
690.737	2422.24
690.926	2332.12
691.116	2328.03
691.305	2242.01
691.495	2295.26
691.684	2237.92
691.874	2385.37
692.063	2473.43
692.252	2264.54
692.442	2225.63
692.631	2293.21
692.82	2295.26
693.01	2258.4
693.199	2123.23
693.388	2209.25
693.578	2274.78
693.767	2274.78
693.956	2192.86
694.146	2119.14
694.335	2123.23
694.524	2239.97
694.713	2180.57
694.902	2080.22
695.092	2223.58
695.281	2170.33
695.47	2229.73
695.659	2207.2
695.848	2127.33
696.037	2129.38
696.226	2174.43
696.415	2170.33
696.604	2149.86
696.793	2016.74
696.982	2156
697.171	2166.24
697.36	2123.23
697.549	2172.38
697.738	2156
697.927	2188.77
698.116	2135.52
698.305	2063.84
698.494	2201.05
698.683	2217.44
698.872	2110.94
699.061	2143.71
699.25	1998.31
699.438	2084.32
699.627	2115.04
699.816	2096.61
700.005	2098.66
700.193	2127.33
700.382	2162.14
700.571	2176.48
700.76	2086.37
700.948	2043.36
701.137	2016.74
701.326	2102.75
701.514	1947.11
701.703	2026.98
701.892	2026.98
702.08	2018.79
702.269	1975.78
702.457	2051.55
702.646	2031.07
702.834	1922.53
703.023	2057.7
703.212	2076.13
703.4	1955.3
703.589	2000.35
703.777	2029.03
703.965	2020.83
704.154	2016.74
704.342	1914.34
704.531	1949.15
704.719	1910.24
704.907	2016.74
705.096	1859.04
705.284	1983.97
705.472	1895.91
705.661	1934.82
705.849	1938.91
706.037	1957.35
706.226	1895.91
706.414	1938.91
706.602	1900
706.79	1924.58
706.979	1930.72
707.167	1910.24
707.355	1865.19
707.543	1854.95
707.731	1943.01
707.919	1748.45
708.107	1811.94
708.296	1838.56
708.484	1945.06
708.672	1854.95
708.86	1857
709.048	1809.89
709.236	1861.09
709.424	1818.08
709.612	1893.86
709.8	1779.17
709.988	1740.26
710.176	1863.14
710.364	1852.9
710.551	1842.66
710.739	1809.89
710.927	1824.23
711.115	1846.76
711.303	1795.56
711.491	1764.84
711.679	1809.89
711.866	1842.66
712.054	1775.08
712.242	1797.6
712.43	1803.75
712.617	1721.83
712.805	1783.27
712.993	1738.21
713.181	1797.6
713.368	1781.22
713.556	1816.04
713.744	1631.72
713.931	1713.64
714.119	1803.75
714.306	1730.02
714.494	1672.68
714.682	1750.5
714.869	1684.97
715.057	1824.23
715.244	1633.77
715.432	1676.77
715.619	1652.2
715.807	1648.1
715.994	1707.49
716.182	1639.91
716.369	1629.67
716.556	1623.53
716.744	1709.54
716.931	1658.34
717.119	1742.31
717.306	1723.88
717.493	1701.35
717.681	1658.34
717.868	1623.53
718.055	1723.88
718.242	1646.05
718.43	1549.8
718.617	1601
718.804	1635.82
718.991	1738.21
719.179	1652.2
719.366	1551.85
719.553	1639.91
719.74	1629.67
719.927	1541.61
720.114	1531.37
720.301	1623.53
720.488	1590.76
720.676	1627.62
720.863	1639.91
721.05	1560.04
721.237	1525.22
721.424	1502.7
721.611	1607.14
721.798	1689.06
721.985	1590.76
722.172	1539.56
722.358	1525.22
722.545	1539.56
722.732	1568.23
722.919	1486.31
723.106	1553.9
723.293	1525.22
723.48	1453.55
723.667	1488.36
723.853	1555.94
724.04	1557.99
724.227	1445.35
724.414	1525.22
724.6	1553.9
724.787	1570.28
724.974	1420.78
725.161	1504.75
725.347	1527.27
725.534	1471.98
725.72	1484.27
725.907	1539.56
726.094	1476.07
726.28	1545.7
726.467	1510.89
726.653	1394.15
726.84	1414.63
727.027	1455.59
727.213	1345
727.4	1443.31
727.586	1443.31
727.773	1455.59
727.959	1476.07
728.145	1385.96
728.332	1443.31
728.518	1416.68
728.705	1553.9
728.891	1447.4
729.077	1471.98
729.264	1467.88
729.45	1492.46
729.636	1431.02
729.823	1498.6
730.009	1349.1
730.195	1467.88
730.382	1412.59
730.568	1406.44
730.754	1404.39
730.94	1320.43
731.126	1465.83
731.313	1340.91
731.499	1420.78
731.685	1394.15
731.871	1437.16
732.057	1451.5
732.243	1398.25
732.429	1316.33
732.615	1478.12
732.801	1394.15
732.987	1338.86
733.173	1340.91
733.359	1400.3
733.545	1437.16
733.731	1451.5
733.917	1379.82
734.103	1420.78
734.289	1435.11
734.475	1379.82
734.661	1476.07
734.847	1353.2
735.033	1408.49
735.219	1304.04
735.404	1418.73
735.59	1416.68
735.776	1322.48
735.962	1265.13
736.148	1361.39
736.333	1338.86
736.519	1349.1
736.705	1316.33
736.89	1293.8
737.076	1351.15
737.262	1465.83
737.447	1332.72
737.633	1267.18
737.819	1312.24
738.004	1279.47
738.19	1205.74
738.375	1297.9
738.561	1318.38
738.747	1279.47
738.932	1281.52
739.118	1238.51
739.303	1289.71
739.489	1291.76
739.674	1279.47
739.859	1316.33
740.045	1293.8
740.23	1246.7
740.416	1220.08
740.601	1271.28
740.786	1385.96
740.972	1205.74
741.157	1340.91
741.342	1191.41
741.528	1304.04
741.713	1236.46
741.898	1218.03
742.084	1287.66
742.269	1295.85
742.454	1224.17
742.639	1228.27
742.824	1183.21
743.01	1220.08
743.195	1265.13
743.38	1160.69
743.565	1222.13
743.75	1132.01
743.935	1183.21
744.12	1252.84
744.305	1082.86
744.49	1158.64
744.675	1236.46
744.86	1125.87
745.045	1168.88
745.23	1119.73
745.415	1160.69
745.6	1183.21
745.785	1117.68
745.97	1156.59
746.155	1093.1
746.34	1158.64
746.525	1125.87
746.71	1185.26
746.895	1048.05
747.079	1068.53
747.264	1068.53
747.449	1115.63
747.634	972.27
747.819	1177.07
748.003	1037.81
748.188	1052.14
748.373	1052.14
748.557	1062.38
748.742	984.56
748.927	1154.54
749.111	1007.09
749.296	1031.66
749.481	902.64
749.665	1009.14
749.85	941.55
750.034	1025.52
750.219	947.7
750.404	974.32
750.588	996.85
750.773	976.37
750.957	988.66
751.141	863.73
751.326	980.47
751.51	919.03
751.695	1015.28
751.879	962.03
752.064	1000.94
752.248	933.36
752.432	925.17
752.617	951.79
752.801	890.35
752.985	869.87
753.17	810.48
753.354	923.12
753.538	863.73
753.722	876.02
753.907	863.73
754.091	906.74
754.275	898.55
754.459	820.72
754.643	833.01
754.828	892.4
755.012	878.07
755.196	855.54
755.38	884.21
755.564	828.92
755.748	826.87
755.932	804.34
756.116	863.73
756.3	779.76
756.484	857.59
756.668	742.9
756.852	822.77
757.036	724.47
757.22	714.23
757.404	722.42
757.588	802.29
757.772	763.38
757.956	781.81
758.14	759.28
758.323	767.48
758.507	757.24
758.691	763.38
758.875	734.71
759.059	691.7
759.242	683.51
759.426	712.18
759.61	720.37
759.794	591.35
759.977	613.88
760.161	697.85
760.345	753.14
760.528	718.33
760.712	740.85
760.895	693.75
761.079	634.36
761.263	624.12
761.446	642.55
761.63	685.56
761.813	667.13
761.997	749.04
762.18	681.46
762.364	697.85
762.547	677.37
762.731	683.51
762.914	667.13
763.098	706.04
763.281	615.93
763.464	648.69
763.648	652.79
763.831	701.94
764.015	564.73
764.198	720.37
764.381	513.53
764.564	685.56
764.748	640.5
764.931	589.3
765.114	601.59
765.297	634.36
765.481	605.69
765.664	615.93
765.847	570.87
766.03	642.55
766.213	564.73
766.397	640.5
766.58	636.41
766.763	574.97
766.946	579.06
767.129	611.83
767.312	542.2
767.495	572.92
767.678	566.78
767.861	630.26
768.044	548.34
768.227	566.78
768.41	652.79
768.593	615.93
768.776	484.86
768.959	562.68
769.142	534.01
769.324	577.02
769.507	570.87
769.69	558.58
769.873	544.25
770.056	507.38
770.239	581.11
770.421	476.66
770.604	538.1
770.787	556.54
770.97	497.14
771.152	536.06
771.335	583.16
771.518	558.58
771.7	517.62
771.883	529.91
772.066	505.34
772.248	486.9
772.431	525.82
772.613	534.01
772.796	413.18
772.978	472.57
773.161	542.2
773.343	501.24
773.526	560.63
773.708	521.72
773.891	472.57
774.073	460.28
774.256	493.05
774.438	542.2
774.621	433.66
774.803	509.43
774.985	407.03
775.168	525.82
775.35	413.18
775.532	380.41
775.715	419.32
775.897	521.72
776.079	402.94
776.261	419.32
776.444	425.47
776.626	421.37
776.808	447.99
776.99	456.19
777.173	413.18
777.355	443.9
777.537	355.83
777.719	421.37
777.901	380.41
778.083	392.7
778.265	425.47
778.447	439.8
778.629	458.23
778.811	454.14
778.993	339.45
779.175	388.6
779.357	394.75
779.539	402.94
779.721	433.66
779.903	402.94
780.085	353.79
780.267	392.7
780.449	400.89
780.631	380.41
780.812	433.66
780.994	402.94
781.176	388.6
781.358	402.94
781.54	374.27
781.721	347.64
781.903	312.83
782.085	300.54
782.267	349.69
782.448	355.83
782.63	359.93
782.812	396.79
782.993	290.3
783.175	296.44
783.357	296.44
783.538	316.92
783.72	314.88
783.901	306.68
784.083	325.12
784.264	306.68
784.446	318.97
784.627	357.88
784.809	290.3
784.99	280.06
785.172	251.39
785.353	355.83
785.535	349.69
785.716	251.39
785.897	239.1
786.079	218.62
786.26	218.62
786.441	339.45
786.623	327.16
786.804	251.39
786.985	329.21
787.167	331.26
787.348	263.68
787.529	222.72
787.71	284.16
787.891	296.44
788.073	189.95
788.254	296.44
788.435	300.54
788.616	249.34
788.797	325.12
788.978	210.43
789.159	224.76
789.34	296.44
789.522	247.29
789.703	265.72
789.884	232.96
790.065	269.82
790.246	222.72
790.427	251.39
790.607	243.2
790.788	294.4
790.969	202.24
791.15	224.76
791.331	214.52
791.512	251.39
791.693	259.58
791.874	224.76
792.054	222.72
792.235	206.33
792.416	220.67
792.597	228.86
792.778	202.24
792.958	257.53
793.139	222.72
793.32	253.44
793.5	171.52
793.681	230.91
793.862	216.57
794.042	263.68
794.223	194.05
794.404	230.91
794.584	181.76
794.765	163.33
794.945	222.72
795.126	210.43
795.306	210.43
795.487	185.85
795.667	175.61
795.848	220.67
796.028	159.23
796.209	200.19
796.389	151.04
796.57	210.43
796.75	196.09
796.93	192
797.111	155.13
797.291	200.19
797.471	194.05
797.652	185.85
797.832	144.89
798.012	187.9
798.192	214.52
798.373	185.85
798.553	181.76
798.733	179.71
798.913	198.14
799.093	167.42
799.274	155.13
799.454	206.33
799.634	136.7
799.814	138.75
799.994	112.13
800.174	237.05
800.354	142.85
800.534	192
800.714	185.85
800.894	75.26
801.074	216.57
801.254	196.09
801.434	138.75
801.614	210.43
801.794	212.48
801.974	386.55
802.154	189.95
802.334	122.37
802.514	187.9
802.693	110.08
802.873	198.14
803.053	179.71
803.233	120.32
803.413	124.41
803.592	120.32
803.772	241.15
803.952	185.85
804.131	165.37
804.311	138.75
804.491	175.61
804.67	167.42
804.85	202.24
805.03	185.85
805.209	157.18
805.389	189.95
805.568	138.75
805.748	198.14
805.928	134.65
806.107	173.57
806.287	110.08
806.466	140.8
806.646	120.32
806.825	157.18
807.004	155.13
807.184	132.61
807.363	140.8
807.543	99.84
807.722	167.42
807.901	218.62
808.081	255.48
808.26	93.69
808.439	194.05
808.619	99.84
808.798	140.8
808.977	140.8
809.156	138.75
809.336	165.37
809.515	101.89
809.694	116.22
809.873	108.03
810.052	69.12
810.231	120.32
810.411	179.71
810.59	163.33
810.769	19.97
810.948	183.81
811.127	161.28
811.306	108.03
811.485	99.84
811.664	124.41
811.843	99.84
812.022	69.12
812.201	83.45
812.38	124.41
812.559	81.41
812.737	134.65
812.916	58.88
813.095	93.69
813.274	136.7
813.453	108.03
813.632	48.64
813.811	210.43
813.989	118.27
814.168	65.02
814.347	175.61
814.526	105.98
814.704	97.79
814.883	120.32
815.062	95.74
815.24	142.85
815.419	108.03
815.598	99.84
815.776	124.41
815.955	99.84
816.133	118.27
816.312	93.69
816.49	79.36
816.669	118.27
816.847	116.22
817.026	62.98
817.204	101.89
817.383	167.42
817.561	157.18
817.74	116.22
817.918	136.7
818.097	60.93
818.275	146.94
818.453	75.26
818.632	58.88
818.81	60.93
818.988	28.16
819.167	73.21
819.345	138.75
819.523	91.65
819.701	50.69
819.879	134.65
820.058	65.02
820.236	73.21
820.414	112.13
820.592	124.41
820.77	81.41
820.948	52.74
821.127	42.5
821.305	157.18
821.483	44.54
821.661	118.27
821.839	67.07
822.017	67.07
822.195	79.36
822.373	77.31
822.551	36.35
822.729	114.17
822.907	67.07
823.085	105.98
823.262	112.13
823.44	58.88
823.618	95.74
823.796	85.5
823.974	15.87
824.152	101.89
824.329	62.98
824.507	44.54
824.685	87.55
824.863	67.07
825.04	161.28
825.218	48.64
825.396	34.3
825.574	124.41
825.751	81.41
825.929	91.65
826.107	-18.94
826.284	159.23
826.462	60.93
826.639	-4.61
826.817	105.98
826.994	42.5
827.172	26.11
827.349	87.55
827.527	87.55
827.704	103.93
827.882	50.69
828.059	144.89
828.237	67.07
828.414	126.46
828.591	58.88
828.769	42.5
828.946	26.11
829.124	46.59
829.301	101.89
829.478	124.41
829.655	110.08
829.833	75.26
830.01	-8.7
830.187	108.03
830.364	17.92
830.542	97.79
830.719	52.74
830.896	60.93
831.073	36.35
831.25	-0.51
831.427	52.74
831.604	75.26
831.782	52.74
831.959	48.64
832.136	87.55
832.313	69.12
832.49	13.82
832.667	99.84
832.844	40.45
833.021	108.03
833.198	28.16
833.374	69.12
833.551	9.73
833.728	97.79
833.905	48.64
834.082	118.27
834.259	73.21
834.436	189.95
834.612	81.41
834.789	60.93
834.966	73.21
835.143	112.13
835.319	67.07
835.496	-20.99
835.673	-6.66
835.85	112.13
836.026	132.61
836.203	83.45
836.38	32.26
836.556	75.26
836.733	24.06
836.909	77.31
837.086	71.17
837.262	148.99
837.439	-6.66
837.616	38.4
837.792	132.61
837.968	101.89
838.145	30.21
838.321	122.37
838.498	32.26
838.674	56.83
838.851	75.26
839.027	87.55
839.203	93.69
839.38	118.27
839.556	67.07
839.732	-68.09
839.909	122.37
840.085	58.88
840.261	34.3
840.437	-25.09
840.614	118.27
840.79	83.45
840.966	50.69
841.142	50.69
841.318	77.31
841.494	144.89
841.671	26.11
841.847	118.27
842.023	-16.9
842.199	34.3
842.375	77.31
842.551	34.3
842.727	13.82
842.903	34.3
843.079	46.59
843.255	30.21
843.431	103.93
843.607	75.26
843.783	-14.85
843.959	46.59
844.134	46.59
844.31	46.59
844.486	15.87
844.662	44.54
844.838	50.69
845.013	-23.04
845.189	-10.75
845.365	30.21
845.541	40.45
845.716	52.74
845.892	73.21
846.068	91.65
846.244	36.35
846.419	101.89
846.595	34.3
846.77	-51.71
846.946	38.4
847.122	71.17
847.297	52.74
847.473	138.75
847.648	28.16
847.824	60.93
847.999	11.78
848.175	-4.61
848.35	13.82
848.526	97.79
848.701	58.88
848.876	85.5
849.052	71.17
849.227	42.5
849.403	126.46
849.578	40.45
849.753	36.35
849.929	28.16
850.104	42.5
850.279	67.07
850.454	22.02
850.63	97.79
850.805	9.73
850.98	13.82
851.155	67.07
851.33	60.93
851.505	-10.75
851.681	91.65
851.856	73.21
852.031	99.84
852.206	13.82
852.381	3.58
852.556	65.02
852.731	91.65
852.906	17.92
853.081	65.02
853.256	42.5
853.431	77.31
853.606	5.63
853.781	42.5
853.956	38.4
854.131	30.21
854.305	89.6
854.48	73.21
854.655	58.88
854.83	50.69
855.005	81.41
855.18	28.16
855.354	11.78
855.529	81.41
855.704	15.87
855.879	67.07
856.053	28.16
856.228	34.3
856.403	-6.66
856.577	108.03
856.752	-2.56
856.926	17.92
857.101	28.16
857.276	5.63
857.45	17.92
857.625	69.12
857.799	65.02
857.974	3.58
858.148	69.12
858.323	34.3
858.497	24.06
858.672	105.98
858.846	5.63
859.02	-49.66
859.195	103.93
859.369	58.88
859.543	62.98
859.718	60.93
859.892	75.26
860.066	71.17
860.241	-23.04
860.415	50.69
860.589	62.98
860.763	50.69
860.938	-45.57
861.112	67.07
861.286	-41.47
861.46	77.31
861.634	17.92
861.808	62.98
861.982	69.12
862.157	26.11
862.331	48.64
862.505	-41.47
862.679	19.97
862.853	62.98
863.027	-6.66
863.201	3.58
863.375	85.5
863.549	69.12
863.722	56.83
863.896	-18.94
864.07	-51.71
864.244	73.21
864.418	7.68
864.592	58.88
864.766	-0.51
864.939	67.07
865.113	54.78
865.287	3.58
865.461	9.73
865.634	62.98
865.808	-2.56
865.982	28.16
866.156	-12.8
866.329	42.5
866.503	60.93
866.676	69.12
866.85	-23.04
867.024	148.99
867.197	56.83
867.371	-0.51
867.544	38.4
867.718	-20.99
867.891	46.59
868.065	62.98
868.238	81.41
868.412	54.78
868.585	-4.61
868.759	-23.04
868.932	28.16
869.105	52.74
869.279	9.73
869.452	9.73
869.625	93.69
869.799	69.12
869.972	-14.85
870.145	50.69
870.319	30.21
870.492	7.68
870.665	40.45
870.838	81.41
871.011	17.92
871.185	42.5
871.358	17.92
871.531	187.9
871.704	34.3
871.877	26.11
872.05	-33.28
872.223	1.54
872.396	42.5
872.569	34.3
872.742	13.82
872.915	-14.85
873.088	5.63
873.261	5.63
873.434	-8.7
873.607	17.92
873.78	7.68
873.953	-18.94
874.126	-49.66
874.299	-27.14
874.471	-8.7
874.644	69.12
874.817	-6.66
874.99	3.58
875.163	-51.71
875.335	36.35
875.508	40.45
875.681	50.69
875.853	9.73
876.026	28.16
876.199	60.93
876.371	-29.18
876.544	-27.14
876.717	79.36
876.889	52.74
877.062	91.65
877.234	42.5
877.407	22.02
877.579	9.73
877.752	36.35
877.924	32.26
878.097	71.17
878.269	112.13
878.442	116.22
878.614	15.87
878.786	32.26
878.959	81.41
879.131	67.07
879.303	-10.75
879.476	50.69
879.648	62.98
879.82	44.54
879.993	-4.61
880.165	34.3
880.337	-8.7
880.509	13.82
880.681	54.78
880.854	75.26
881.026	9.73
881.198	-14.85
881.37	3.58
881.542	38.4
881.714	26.11
881.886	24.06
882.058	40.45
882.23	36.35
882.402	34.3
882.574	17.92
882.746	-31.23
882.918	56.83
883.09	5.63
883.262	15.87
883.434	-2.56
883.606	122.37
883.778	22.02
883.95	19.97
884.122	46.59
884.293	54.78
884.465	17.92
884.637	58.88
884.809	-25.09
884.98	58.88
885.152	5.63
885.324	69.12
885.496	3.58
885.667	3.58
885.839	-29.18
886.011	40.45
886.182	40.45
886.354	-0.51
886.525	-10.75
886.697	101.89
886.869	13.82
887.04	50.69
887.212	7.68
887.383	65.02
887.555	50.69
887.726	1.54
887.897	-35.33
888.069	79.36
888.24	-49.66
888.412	32.26
888.583	48.64
888.754	-0.51
888.926	24.06
889.097	-47.62
889.268	26.11
889.44	130.56
889.611	-2.56
889.782	26.11
889.953	13.82
890.125	3.58
890.296	46.59
890.467	38.4
890.638	-2.56
890.809	-14.85
890.98	67.07
891.151	67.07
891.323	-4.61
891.494	1.54
891.665	-23.04
891.836	3.58
892.007	17.92
892.178	13.82
892.349	-10.75
892.52	11.78
892.691	50.69
892.862	108.03
893.032	5.63
893.203	28.16
893.374	17.92
893.545	54.78
893.716	9.73
893.887	26.11
894.057	44.54
894.228	56.83
894.399	-14.85
894.57	30.21
894.74	56.83
894.911	19.97
895.082	-6.66
895.253	52.74
895.423	-16.9
895.594	30.21
895.764	83.45
895.935	13.82
896.106	-0.51
896.276	5.63
896.447	38.4
896.617	22.02
896.788	50.69
896.958	-23.04
897.129	44.54
897.299	-18.94
897.47	46.59
897.64	26.11
897.81	22.02
897.981	34.3
898.151	48.64
898.322	36.35
898.492	77.31
898.662	11.78
898.832	44.54
899.003	36.35
899.173	11.78
899.343	67.07
899.513	28.16
