Data from USB4F104151__34__12-58-53-787.txt Node

Date: Fri Mar 14 12:58:53 EDT 2025
User: louis
Spectrometer: USB4F10415
Trigger mode: 4
Integration Time (sec): 1.000000E-2
Scans to average: 1
Electric dark correction enabled: true
Nonlinearity correction enabled: false
Boxcar width: 0
XAxis mode: Wavelengths
Number of Pixels in Spectrum: 3648
>>>>>Begin Spectral Data<<<<<
178.204	37.03
178.424	37.03
178.644	37.03
178.864	-94.04
179.084	-77.65
179.304	51.37
179.524	65.71
179.744	-12.12
179.964	-20.31
180.184	-26.45
180.404	22.7
180.624	-48.98
180.844	20.65
181.064	20.65
181.283	-59.22
181.503	-10.07
181.723	-3.93
181.943	-8.02
182.163	51.37
182.383	30.89
182.602	55.47
182.822	51.37
183.042	24.75
183.262	61.61
183.482	-26.45
183.701	24.75
183.921	34.99
184.141	-30.55
184.361	-26.45
184.58	-12.12
184.8	34.99
185.02	-65.36
185.239	34.99
185.459	-55.12
185.679	4.27
185.898	6.31
186.118	63.66
186.338	-57.17
186.557	22.7
186.777	10.41
186.997	-3.93
187.216	10.41
187.436	75.95
187.655	2.22
187.875	-51.03
188.095	-30.55
188.314	53.42
188.534	-32.6
188.753	6.31
188.973	-65.36
189.192	34.99
189.412	-34.64
189.631	-22.36
189.851	24.75
190.07	30.89
190.29	8.36
190.509	47.27
190.729	26.79
190.948	-10.07
191.168	80.04
191.387	10.41
191.607	43.18
191.826	12.46
192.045	-8.02
192.265	-24.4
192.484	51.37
192.704	-30.55
192.923	-59.22
193.142	106.67
193.362	-61.27
193.581	26.79
193.8	-36.69
194.02	0.17
194.239	-5.97
194.458	-42.84
194.678	47.27
194.897	37.03
195.116	-14.17
195.335	-12.12
195.555	71.85
195.774	-1.88
195.993	-12.12
196.212	-40.79
196.432	-3.93
196.651	-5.97
196.87	8.36
197.089	20.65
197.308	-10.07
197.528	41.13
197.747	18.6
197.966	-24.4
198.185	6.31
198.404	2.22
198.623	-8.02
198.842	16.55
199.062	14.51
199.281	6.31
199.5	20.65
199.719	32.94
199.938	4.27
200.157	-12.12
200.376	24.75
200.595	80.04
200.814	73.9
201.033	-5.97
201.252	10.41
201.471	-30.55
201.69	20.65
201.909	41.13
202.128	8.36
202.347	14.51
202.566	51.37
202.785	-3.93
203.004	-40.79
203.223	16.55
203.442	-26.45
203.661	77.99
203.879	-46.93
204.098	59.56
204.317	-61.27
204.536	-18.26
204.755	22.7
204.974	22.7
205.193	-16.21
205.411	-16.21
205.63	-57.17
205.849	39.08
206.068	-40.79
206.287	73.9
206.505	-20.31
206.724	-16.21
206.943	-30.55
207.162	16.55
207.381	39.08
207.599	-63.32
207.818	-3.93
208.037	-38.74
208.255	75.95
208.474	39.08
208.693	-3.93
208.911	-5.97
209.13	-79.7
209.349	-16.21
209.567	57.51
209.786	6.31
210.005	-1.88
210.223	-40.79
210.442	-44.88
210.661	28.84
210.879	28.84
211.098	32.94
211.316	22.7
211.535	24.75
211.753	-44.88
211.972	2.22
212.191	69.8
212.409	10.41
212.628	-53.08
212.846	4.27
213.065	114.86
213.283	47.27
213.502	-59.22
213.72	-20.31
213.938	92.33
214.157	63.66
214.375	-1.88
214.594	30.89
214.812	55.47
215.031	-18.26
215.249	41.13
215.467	-44.88
215.686	-3.93
215.904	69.8
216.122	37.03
216.341	59.56
216.559	-16.21
216.778	-5.97
216.996	32.94
217.214	43.18
217.432	-36.69
217.651	-24.4
217.869	20.65
218.087	53.42
218.306	-53.08
218.524	28.84
218.742	8.36
218.96	-1.88
219.179	-26.45
219.397	41.13
219.615	39.08
219.833	-24.4
220.051	-16.21
220.27	41.13
220.488	-1.88
220.706	-79.7
220.924	0.17
221.142	75.95
221.36	-20.31
221.578	-51.03
221.796	-46.93
222.015	-36.69
222.233	24.75
222.451	-12.12
222.669	34.99
222.887	28.84
223.105	-24.4
223.323	-12.12
223.541	-26.45
223.759	18.6
223.977	-34.64
224.195	-32.6
224.413	43.18
224.631	53.42
224.849	-3.93
225.067	51.37
225.285	-18.26
225.503	26.79
225.721	-28.5
225.939	47.27
226.157	14.51
226.375	22.7
226.592	-16.21
226.81	14.51
227.028	18.6
227.246	82.09
227.464	-22.36
227.682	28.84
227.9	-1.88
228.117	14.51
228.335	2.22
228.553	4.27
228.771	28.84
228.989	-24.4
229.206	-40.79
229.424	34.99
229.642	30.89
229.86	-32.6
230.077	-5.97
230.295	4.27
230.513	41.13
230.731	53.42
230.948	-57.17
231.166	30.89
231.384	-57.17
231.601	45.23
231.819	2.22
232.037	24.75
232.254	-20.31
232.472	-22.36
232.689	-10.07
232.907	71.85
233.125	-3.93
233.342	-10.07
233.56	-44.88
233.777	20.65
233.995	-16.21
234.213	-42.84
234.43	-5.97
234.648	-42.84
234.865	24.75
235.083	39.08
235.3	67.75
235.518	-32.6
235.735	10.41
235.953	8.36
236.17	-14.17
236.388	53.42
236.605	24.75
236.822	16.55
237.04	6.31
237.257	-5.97
237.475	37.03
237.692	-26.45
237.909	34.99
238.127	-40.79
238.344	32.94
238.562	2.22
238.779	-8.02
238.996	-24.4
239.214	22.7
239.431	-3.93
239.648	-18.26
239.865	-14.17
240.083	39.08
240.3	-61.27
240.517	45.23
240.735	67.75
240.952	-32.6
241.169	61.61
241.386	-42.84
241.603	0.17
241.821	-18.26
242.038	26.79
242.255	39.08
242.472	10.41
242.689	116.9
242.907	24.75
243.124	14.51
243.341	-26.45
243.558	-48.98
243.775	28.84
243.992	106.67
244.209	14.51
244.426	-26.45
244.643	18.6
244.86	10.41
245.078	6.31
245.295	-18.26
245.512	10.41
245.729	-14.17
245.946	0.17
246.163	14.51
246.38	59.56
246.597	-44.88
246.814	43.18
247.031	12.46
247.248	4.27
247.464	22.7
247.681	-1.88
247.898	2.22
248.115	32.94
248.332	41.13
248.549	49.32
248.766	45.23
248.983	14.51
249.2	32.94
249.417	-5.97
249.633	2.22
249.85	22.7
250.067	10.41
250.284	-38.74
250.501	0.17
250.717	16.55
250.934	-5.97
251.151	80.04
251.368	-30.55
251.585	77.99
251.801	-5.97
252.018	16.55
252.235	-1.88
252.451	-28.5
252.668	20.65
252.885	26.79
253.102	10.41
253.318	-10.07
253.535	28.84
253.752	20.65
253.968	-57.17
254.185	34.99
254.401	-1.88
254.618	59.56
254.835	-40.79
255.051	-40.79
255.268	18.6
255.484	6.31
255.701	41.13
255.917	-30.55
256.134	12.46
256.351	10.41
256.567	61.61
256.784	-40.79
257	24.75
257.217	24.75
257.433	16.55
257.65	-24.4
257.866	0.17
258.082	63.66
258.299	-128.85
258.515	32.94
258.732	61.61
258.948	2.22
259.165	-36.69
259.381	-3.93
259.597	14.51
259.814	-48.98
260.03	-24.4
260.246	-10.07
260.463	24.75
260.679	-16.21
260.895	-16.21
261.112	-75.6
261.328	-57.17
261.544	-32.6
261.761	-1.88
261.977	2.22
262.193	2.22
262.409	10.41
262.626	4.27
262.842	28.84
263.058	-10.07
263.274	24.75
263.49	-24.4
263.707	20.65
263.923	59.56
264.139	-65.36
264.355	0.17
264.571	-44.88
264.787	45.23
265.004	-28.5
265.22	6.31
265.436	37.03
265.652	24.75
265.868	-24.4
266.084	67.75
266.3	94.38
266.516	-3.93
266.732	39.08
266.948	69.8
267.164	51.37
267.38	-3.93
267.596	-26.45
267.812	-42.84
268.028	69.8
268.244	-24.4
268.46	2.22
268.676	-59.22
268.892	69.8
269.108	4.27
269.324	8.36
269.54	-40.79
269.756	24.75
269.972	32.94
270.188	-18.26
270.403	51.37
270.619	41.13
270.835	6.31
271.051	67.75
271.267	-51.03
271.483	65.71
271.698	-10.07
271.914	-48.98
272.13	22.7
272.346	12.46
272.562	-83.8
272.777	18.6
272.993	-10.07
273.209	77.99
273.425	65.71
273.64	0.17
273.856	37.03
274.072	-3.93
274.287	-22.36
274.503	30.89
274.719	59.56
274.934	0.17
275.15	-44.88
275.366	32.94
275.581	-40.79
275.797	8.36
276.012	16.55
276.228	14.51
276.444	4.27
276.659	0.17
276.875	45.23
277.09	34.99
277.306	-32.6
277.521	18.6
277.737	-12.12
277.952	67.75
278.168	12.46
278.383	-34.64
278.599	43.18
278.814	16.55
279.03	-22.36
279.245	45.23
279.461	-24.4
279.676	4.27
279.892	0.17
280.107	41.13
280.322	14.51
280.538	-10.07
280.753	-8.02
280.969	82.09
281.184	61.61
281.399	37.03
281.615	22.7
281.83	8.36
282.045	-22.36
282.26	-3.93
282.476	-44.88
282.691	-20.31
282.906	18.6
283.122	77.99
283.337	18.6
283.552	-42.84
283.767	-32.6
283.983	45.23
284.198	6.31
284.413	16.55
284.628	30.89
284.843	22.7
285.058	80.04
285.274	-36.69
285.489	-67.41
285.704	10.41
285.919	57.51
286.134	-3.93
286.349	24.75
286.564	65.71
286.779	-12.12
286.995	12.46
287.21	-42.84
287.425	24.75
287.64	-75.6
287.855	-30.55
288.07	30.89
288.285	24.75
288.5	12.46
288.715	28.84
288.93	8.36
289.145	-20.31
289.36	-44.88
289.575	34.99
289.79	22.7
290.004	47.27
290.219	86.19
290.434	45.23
290.649	-1.88
290.864	-18.26
291.079	-10.07
291.294	28.84
291.509	37.03
291.724	-3.93
291.938	-8.02
292.153	-1.88
292.368	-40.79
292.583	6.31
292.798	55.47
293.012	12.46
293.227	-63.32
293.442	57.51
293.657	-22.36
293.871	10.41
294.086	0.17
294.301	-28.5
294.516	28.84
294.73	59.56
294.945	-28.5
295.16	55.47
295.374	-3.93
295.589	32.94
295.804	-1.88
296.018	49.32
296.233	-18.26
296.447	86.19
296.662	30.89
296.877	39.08
297.091	6.31
297.306	6.31
297.52	39.08
297.735	-28.5
297.949	-67.41
298.164	-40.79
298.378	86.19
298.593	6.31
298.807	10.41
299.022	43.18
299.236	-5.97
299.451	-32.6
299.665	43.18
299.88	-38.74
300.094	-46.93
300.309	0.17
300.523	24.75
300.737	32.94
300.952	47.27
301.166	57.51
301.381	8.36
301.595	24.75
301.809	8.36
302.024	47.27
302.238	4.27
302.452	-18.26
302.667	12.46
302.881	30.89
303.095	0.17
303.309	-22.36
303.524	-10.07
303.738	-38.74
303.952	18.6
304.166	20.65
304.381	24.75
304.595	73.9
304.809	-34.64
305.023	80.04
305.237	32.94
305.452	90.28
305.666	88.23
305.88	30.89
306.094	16.55
306.308	49.32
306.522	-22.36
306.736	-34.64
306.95	-3.93
307.164	-30.55
307.379	-26.45
307.593	90.28
307.807	-10.07
308.021	16.55
308.235	8.36
308.449	26.79
308.663	-12.12
308.877	59.56
309.091	-24.4
309.305	-10.07
309.519	18.6
309.733	65.71
309.947	28.84
310.161	-12.12
310.374	-12.12
310.588	65.71
310.802	-3.93
311.016	34.99
311.23	37.03
311.444	-63.32
311.658	-3.93
311.872	-22.36
312.085	-10.07
312.299	39.08
312.513	-30.55
312.727	8.36
312.941	26.79
313.154	30.89
313.368	4.27
313.582	4.27
313.796	-40.79
314.009	-44.88
314.223	10.41
314.437	8.36
314.651	-18.26
314.864	28.84
315.078	43.18
315.292	47.27
315.505	57.51
315.719	-12.12
315.933	26.79
316.146	55.47
316.36	12.46
316.573	49.32
316.787	22.7
317.001	22.7
317.214	114.86
317.428	-12.12
317.641	51.37
317.855	8.36
318.068	37.03
318.282	-8.02
318.495	63.66
318.709	65.71
318.922	-3.93
319.136	57.51
319.349	39.08
319.563	-48.98
319.776	-46.93
319.99	-1.88
320.203	49.32
320.417	16.55
320.63	73.9
320.843	6.31
321.057	20.65
321.27	18.6
321.483	49.32
321.697	4.27
321.91	26.79
322.124	34.99
322.337	80.04
322.55	-48.98
322.763	32.94
322.977	45.23
323.19	-63.32
323.403	8.36
323.617	-30.55
323.83	-3.93
324.043	-18.26
324.256	-16.21
324.469	84.14
324.683	-18.26
324.896	28.84
325.109	-26.45
325.322	-12.12
325.535	86.19
325.748	57.51
325.962	-34.64
326.175	-51.03
326.388	18.6
326.601	-20.31
326.814	-8.02
327.027	98.47
327.24	-44.88
327.453	10.41
327.666	-36.69
327.879	-3.93
328.092	47.27
328.305	-10.07
328.518	-32.6
328.731	39.08
328.944	-14.17
329.157	-1.88
329.37	2.22
329.583	39.08
329.796	28.84
330.009	-10.07
330.222	-8.02
330.435	-5.97
330.648	30.89
330.861	65.71
331.073	2.22
331.286	34.99
331.499	80.04
331.712	16.55
331.925	20.65
332.138	-22.36
332.35	8.36
332.563	-18.26
332.776	47.27
332.989	-83.8
333.202	-18.26
333.414	-36.69
333.627	-10.07
333.84	20.65
334.053	26.79
334.265	10.41
334.478	-10.07
334.691	69.8
334.903	65.71
335.116	57.51
335.329	88.23
335.541	-12.12
335.754	26.79
335.966	2.22
336.179	32.94
336.392	-79.7
336.604	96.43
336.817	37.03
337.029	-10.07
337.242	80.04
337.454	-36.69
337.667	49.32
337.88	-57.17
338.092	53.42
338.305	30.89
338.517	18.6
338.729	-20.31
338.942	90.28
339.154	22.7
339.367	8.36
339.579	-63.32
339.792	22.7
340.004	18.6
340.217	18.6
340.429	-34.64
340.641	-44.88
340.854	65.71
341.066	14.51
341.278	114.86
341.491	-44.88
341.703	94.38
341.915	63.66
342.128	20.65
342.34	14.51
342.552	14.51
342.764	0.17
342.977	-63.32
343.189	8.36
343.401	32.94
343.613	41.13
343.826	30.89
344.038	16.55
344.25	0.17
344.462	55.47
344.674	-38.74
344.886	18.6
345.099	57.51
345.311	32.94
345.523	-42.84
345.735	2.22
345.947	18.6
346.159	-3.93
346.371	10.41
346.583	-63.32
346.795	30.89
347.007	-53.08
347.219	61.61
347.431	32.94
347.643	-26.45
347.855	8.36
348.067	-42.84
348.279	4.27
348.491	45.23
348.703	-24.4
348.915	-57.17
349.127	30.89
349.339	34.99
349.551	0.17
349.763	53.42
349.975	45.23
350.187	-1.88
350.399	51.37
350.61	45.23
350.822	-32.6
351.034	51.37
351.246	24.75
351.458	16.55
351.669	-1.88
351.881	8.36
352.093	67.75
352.305	-1.88
352.517	43.18
352.728	-98.13
352.94	22.7
353.152	57.51
353.363	4.27
353.575	26.79
353.787	12.46
353.999	43.18
354.21	37.03
354.422	-55.12
354.633	71.85
354.845	59.56
355.057	-38.74
355.268	-14.17
355.48	88.23
355.692	-14.17
355.903	16.55
356.115	2.22
356.326	-46.93
356.538	-32.6
356.749	30.89
356.961	73.9
357.172	41.13
357.384	49.32
357.595	0.17
357.807	20.65
358.018	0.17
358.23	-34.64
358.441	26.79
358.653	71.85
358.864	-30.55
359.075	20.65
359.287	2.22
359.498	43.18
359.709	14.51
359.921	59.56
360.132	94.38
360.344	55.47
360.555	-1.88
360.766	106.67
360.977	-28.5
361.189	20.65
361.4	55.47
361.611	-20.31
361.823	24.75
362.034	26.79
362.245	-30.55
362.456	-1.88
362.667	30.89
362.879	22.7
363.09	49.32
363.301	8.36
363.512	18.6
363.723	-10.07
363.935	39.08
364.146	-14.17
364.357	-34.64
364.568	114.86
364.779	-36.69
364.99	-10.07
365.201	-30.55
365.412	26.79
365.623	34.99
365.834	86.19
366.045	14.51
366.256	-22.36
366.467	47.27
366.678	-3.93
366.889	37.03
367.1	69.8
367.311	-65.36
367.522	-10.07
367.733	10.41
367.944	2.22
368.155	-83.8
368.366	6.31
368.577	32.94
368.788	30.89
368.999	39.08
369.209	45.23
369.42	30.89
369.631	6.31
369.842	41.13
370.053	-5.97
370.264	96.43
370.474	12.46
370.685	32.94
370.896	-24.4
371.107	53.42
371.317	22.7
371.528	49.32
371.739	-55.12
371.95	47.27
372.16	2.22
372.371	-16.21
372.582	-12.12
372.792	22.7
373.003	2.22
373.214	14.51
373.424	-10.07
373.635	20.65
373.846	-46.93
374.056	55.47
374.267	24.75
374.477	14.51
374.688	24.75
374.898	51.37
375.109	8.36
375.319	-18.26
375.53	18.6
375.74	47.27
375.951	-14.17
376.161	-10.07
376.372	-1.88
376.582	-36.69
376.793	28.84
377.003	12.46
377.214	49.32
377.424	53.42
377.635	65.71
377.845	41.13
378.055	28.84
378.266	18.6
378.476	-3.93
378.686	-22.36
378.897	20.65
379.107	2.22
379.317	30.89
379.528	98.47
379.738	43.18
379.948	16.55
380.158	51.37
380.369	-40.79
380.579	30.89
380.789	34.99
380.999	8.36
381.21	-5.97
381.42	94.38
381.63	-34.64
381.84	47.27
382.05	53.42
382.261	24.75
382.471	39.08
382.681	41.13
382.891	37.03
383.101	30.89
383.311	47.27
383.521	-12.12
383.731	6.31
383.941	49.32
384.151	-20.31
384.361	34.99
384.571	-5.97
384.781	-14.17
384.991	-14.17
385.201	100.52
385.411	26.79
385.621	-8.02
385.831	59.56
386.041	100.52
386.251	-5.97
386.461	41.13
386.671	-18.26
386.881	24.75
387.091	22.7
387.301	86.19
387.511	2.22
387.72	-53.08
387.93	-34.64
388.14	-22.36
388.35	92.33
388.56	49.32
388.769	49.32
388.979	129.19
389.189	-32.6
389.399	51.37
389.609	45.23
389.818	-14.17
390.028	47.27
390.238	8.36
390.447	43.18
390.657	26.79
390.867	-18.26
391.076	69.8
391.286	16.55
391.496	-5.97
391.705	0.17
391.915	71.85
392.125	47.27
392.334	2.22
392.544	51.37
392.753	71.85
392.963	-18.26
393.172	80.04
393.382	57.51
393.591	73.9
393.801	10.41
394.01	-1.88
394.22	73.9
394.429	-1.88
394.639	43.18
394.848	57.51
395.058	84.14
395.267	51.37
395.477	8.36
395.686	73.9
395.895	26.79
396.105	55.47
396.314	24.75
396.524	61.61
396.733	10.41
396.942	104.62
397.152	41.13
397.361	110.76
397.57	43.18
397.78	102.57
397.989	121
398.198	18.6
398.407	2.22
398.617	16.55
398.826	47.27
399.035	69.8
399.244	2.22
399.453	51.37
399.663	30.89
399.872	65.71
400.081	-1.88
400.29	39.08
400.499	47.27
400.708	57.51
400.917	106.67
401.127	8.36
401.336	41.13
401.545	82.09
401.754	0.17
401.963	92.33
402.172	90.28
402.381	84.14
402.59	18.6
402.799	32.94
403.008	47.27
403.217	106.67
403.426	129.19
403.635	63.66
403.844	57.51
404.053	123.05
404.262	67.75
404.471	100.52
404.68	147.62
404.888	127.14
405.097	39.08
405.306	80.04
405.515	37.03
405.724	55.47
405.933	98.47
406.142	39.08
406.35	45.23
406.559	75.95
406.768	77.99
406.977	77.99
407.185	123.05
407.394	92.33
407.603	108.71
407.812	145.58
408.02	94.38
408.229	108.71
408.438	102.57
408.646	67.75
408.855	166.06
409.064	164.01
409.272	114.86
409.481	135.34
409.69	143.53
409.898	153.77
410.107	149.67
410.315	123.05
410.524	135.34
410.733	149.67
410.941	192.68
411.15	73.9
411.358	180.39
411.567	247.97
411.775	174.25
411.984	170.15
412.192	161.96
412.401	172.2
412.609	288.93
412.818	184.49
413.026	276.65
413.234	276.65
413.443	270.5
413.651	258.21
413.86	247.97
414.068	250.02
414.276	280.74
414.485	364.71
414.693	346.28
414.901	321.7
415.11	323.75
415.318	319.65
415.526	346.28
415.734	377
415.943	409.76
416.151	415.91
416.359	448.68
416.567	428.2
416.776	508.07
416.984	475.3
417.192	503.97
417.4	473.25
417.608	477.35
417.817	499.88
418.025	616.61
418.233	489.64
418.441	549.03
418.649	587.94
418.857	555.17
419.065	649.38
419.273	589.99
419.481	710.82
419.689	706.72
419.897	821.41
420.105	735.39
420.313	784.54
420.521	852.13
420.729	813.21
420.937	829.6
421.145	866.46
421.353	942.24
421.561	1022.11
421.769	956.57
421.977	1018.01
422.185	997.53
422.393	1071.26
422.601	1171.61
422.809	1079.45
423.017	1130.65
423.224	1267.86
423.432	1280.15
423.64	1265.82
423.848	1366.17
424.056	1452.18
424.263	1403.03
424.471	1456.28
424.679	1386.65
424.887	1532.05
425.094	1554.58
425.302	1644.69
425.51	1622.16
425.718	1734.8
425.925	1779.86
426.133	1742.99
426.341	1896.59
426.548	2066.57
426.756	1955.98
426.964	1966.22
427.171	2121.87
427.379	2177.16
427.586	2199.69
427.794	2388.1
428.001	2381.96
428.209	2484.36
428.417	2517.12
428.624	2676.87
428.832	2582.66
429.039	2478.21
429.247	2605.19
429.454	2891.9
429.662	3160.19
429.869	2857.09
430.076	3014.78
430.284	2996.35
430.491	3131.51
430.699	3164.28
430.906	3250.3
431.114	3276.92
431.321	3391.61
431.528	3596.4
431.736	3645.56
431.943	4003.95
432.15	3688.56
432.358	3795.06
432.565	3881.07
432.772	4006
432.979	4221.03
433.187	4313.19
433.394	4399.21
433.601	4561
433.808	4571.24
434.016	4739.17
434.223	4821.09
434.43	5048.41
434.637	4995.17
434.844	5259.35
435.052	5537.88
435.259	5511.25
435.466	5415
435.673	5384.28
435.88	5767.25
436.087	5990.48
436.294	6221.9
436.501	5873.75
436.708	6084.69
436.915	6144.08
437.122	6596.68
437.329	6625.35
437.537	6830.15
437.743	6793.28
437.95	6748.23
438.157	7094.33
438.364	7264.32
438.571	7368.76
438.778	7442.49
438.985	8173.61
439.192	7751.73
439.399	7909.43
439.606	7962.67
439.813	8466.47
440.02	8788
440.227	8613.93
440.433	8521.77
440.64	8806.44
440.847	8919.07
441.054	8869.92
441.261	9476.12
441.467	9400.35
441.674	9664.54
441.881	10235.92
442.088	10000.4
442.294	10131.47
442.501	10289.17
442.708	10344.46
442.914	10745.86
443.121	11132.93
443.328	10985.48
443.534	11616.25
443.741	11495.42
443.948	11329.53
444.154	12095.47
444.361	12228.59
444.568	12081.14
444.774	12218.35
444.981	12457.96
445.187	12804.07
445.394	13144.03
445.6	13219.81
445.807	14266.32
446.013	13780.95
446.22	14141.39
446.426	14454.73
446.633	14800.84
446.839	15071.17
447.046	14501.84
447.252	15271.87
447.459	15249.35
447.665	15427.52
447.871	16181.17
448.078	17041.32
448.284	15941.56
448.491	16388.02
448.697	17375.14
448.903	17299.36
449.11	17373.09
449.316	17323.94
449.522	17483.68
449.728	18028.44
449.935	18311.06
450.141	18315.16
450.347	18675.6
450.553	18098.07
450.76	18241.43
450.966	18769.8
451.172	18589.58
451.378	19232.65
451.584	18720.65
451.791	19187.59
451.997	19009.42
452.203	19724.16
452.409	19543.94
452.615	19357.57
452.821	19050.38
453.027	18472.85
453.233	19666.81
453.44	18876.3
453.646	19011.46
453.852	19146.63
454.058	19500.93
454.264	18851.72
454.47	19236.74
454.676	18847.63
454.882	19470.21
455.088	17969.05
455.294	17751.96
455.5	18306.96
455.705	18464.66
455.911	17717.15
456.117	17573.79
456.323	17096.61
456.529	16453.55
456.735	16848.81
456.941	16836.52
457.147	16373.68
457.352	15845.3
457.558	15859.64
457.764	15714.23
457.97	15304.64
458.176	15275.97
458.381	14970.82
458.587	14561.23
458.793	14501.84
458.999	13391.84
459.204	14385.1
459.41	14301.14
459.616	13221.86
459.821	13236.19
460.027	13340.64
460.233	12894.18
460.438	12341.23
460.644	12455.92
460.85	11835.38
461.055	11620.35
461.261	11704.31
461.466	10760.2
461.672	10577.93
461.878	11280.38
462.083	10483.72
462.289	10248.21
462.494	10145.81
462.7	9670.68
462.905	9435.16
463.111	9746.45
463.316	9900.05
463.522	9592.86
463.727	9658.39
463.932	9766.93
464.138	9433.11
464.343	9582.62
464.549	9281.57
464.754	9496.6
464.959	9412.64
465.165	9631.77
465.37	9107.49
465.575	8917.03
465.781	9279.52
465.986	9447.45
466.191	8968.23
466.397	8675.37
466.602	8204.33
466.807	8677.41
467.012	8589.35
467.218	8505.38
467.423	8595.5
467.628	8628.26
467.833	9070.62
468.038	8581.16
468.244	8345.64
468.449	8575.02
468.654	8476.71
468.859	8163.37
469.064	8341.55
469.269	7972.91
469.474	8026.16
469.679	8251.44
469.885	7983.15
470.09	8089.65
470.295	8140.85
470.5	7991.34
470.705	7950.39
470.91	7764.02
471.115	7612.47
471.32	7870.51
471.525	7745.59
471.73	7450.68
471.935	7432.25
472.139	7288.89
472.344	7184.45
472.549	7481.4
472.754	7186.49
472.959	7055.42
473.164	6785.09
473.369	6838.34
473.574	7008.32
473.778	7147.58
473.983	6903.87
474.188	6926.4
474.393	6600.77
474.598	6568.01
474.802	6641.73
475.007	6555.72
475.212	6512.71
475.417	6412.36
475.621	6334.54
475.826	6371.4
476.031	6111.31
476.235	6037.58
476.44	6092.88
476.645	6152.27
476.849	6015.05
477.054	6041.68
477.259	5970
477.463	5963.86
477.668	5716.05
477.872	5748.82
478.077	5789.78
478.282	5486.68
478.486	5521.49
478.691	5523.54
478.895	5603.41
479.1	5513.3
479.304	5371.99
479.509	5208.16
479.713	5310.55
479.918	5294.17
480.122	5183.58
480.326	5324.89
480.531	5228.63
480.735	5339.23
480.94	5216.35
481.144	5359.7
481.348	5013.6
481.553	5197.92
481.757	5025.89
481.961	5095.52
482.166	5169.24
482.37	5204.06
482.574	5046.37
482.778	5081.18
482.983	5226.59
483.187	5072.99
483.391	5046.37
483.595	5079.13
483.8	5025.89
484.004	4933.73
484.208	5263.45
484.412	5173.34
484.616	5212.25
484.821	5097.56
485.025	5081.18
485.229	5083.23
485.433	5060.7
485.637	5036.13
485.841	5058.65
486.045	4913.25
486.249	5064.8
486.453	5154.91
486.657	5083.23
486.861	5245.02
487.065	5060.7
487.269	5159
487.473	5087.33
487.677	5070.94
487.881	4989.02
488.085	5058.65
488.289	5085.28
488.493	5161.05
488.697	5181.53
488.901	5193.82
489.105	5195.87
489.309	5199.96
489.512	5111.9
489.716	5261.4
489.92	5101.66
490.124	5161.05
490.328	5240.92
490.531	5337.18
490.735	5281.88
490.939	5273.69
491.143	5261.4
491.346	5230.68
491.55	5341.27
491.754	5466.2
491.958	5445.72
492.161	5361.75
492.365	5240.92
492.569	5396.57
492.772	5525.59
492.976	5466.2
493.18	5425.24
493.383	5748.82
493.587	5644.37
493.79	5779.54
493.994	5689.43
494.197	5795.92
494.401	5750.87
494.605	5685.33
494.808	5963.86
495.012	5947.47
495.215	5898.32
495.419	5746.77
495.622	5945.42
495.825	6008.91
496.029	6082.64
496.232	6201.42
496.436	6053.97
496.639	6375.5
496.843	6176.84
497.046	6418.5
497.249	6473.8
497.453	6553.67
497.656	6723.65
497.859	6735.94
498.063	6686.79
498.266	6758.47
498.469	6918.21
498.673	6922.31
498.876	6983.74
499.079	6983.74
499.282	6979.65
499.485	7442.49
499.689	7211.07
499.892	7524.41
500.095	7432.25
500.298	7825.46
500.501	7555.13
500.705	7690.29
500.908	7807.03
501.111	8083.5
501.314	7952.43
501.517	8040.5
501.72	8310.83
501.923	8243.24
502.126	8394.79
502.329	8663.08
502.532	8728.61
502.735	8632.36
502.938	8796.2
503.141	8808.48
503.344	8904.74
503.547	9242.65
503.75	9207.84
503.953	9426.97
504.156	9502.75
504.359	9555.99
504.562	9535.51
504.765	9730.07
504.968	9900.05
505.17	9914.39
505.373	10203.15
505.576	10346.51
505.779	10297.36
505.982	10622.98
506.185	10620.94
506.387	10936.32
506.59	10700.81
506.793	10985.48
506.996	10897.41
507.198	11274.24
507.401	11542.52
507.604	11352.06
507.807	11616.25
508.009	11683.83
508.212	11745.27
508.415	12109.81
508.617	12150.77
508.82	12177.39
509.022	12255.22
509.225	12474.35
509.428	12652.52
509.63	12830.69
509.833	12853.22
510.035	12969.96
510.238	13305.82
510.44	13518.81
510.643	13420.51
510.845	13631.45
511.048	13596.64
511.25	14102.48
511.453	14057.43
511.655	14442.45
511.858	14495.69
512.06	14399.44
512.262	14770.12
512.465	14561.23
512.667	14989.25
512.87	15253.44
513.072	15173.57
513.274	15587.26
513.477	15880.12
513.679	15876.02
513.881	15886.26
514.084	16342.96
514.286	16375.73
514.488	16326.58
514.69	16791.47
514.893	16709.55
515.095	16795.56
515.297	17194.92
515.499	17188.77
515.701	17479.58
515.904	17706.91
516.106	17584.03
516.308	17952.66
516.51	18366.35
516.712	18270.1
516.914	18507.66
517.116	18708.37
517.318	18653.07
517.52	19072.9
517.722	19113.86
517.925	19380.1
518.127	19584.9
518.329	19910.52
518.531	19683.2
518.733	20113.27
518.935	20330.36
519.136	20166.52
519.338	20651.89
519.54	20617.07
519.742	20926.32
519.944	21032.81
520.146	21536.61
520.348	21514.08
520.55	21886.81
520.752	22011.74
520.954	22118.23
521.155	21976.92
521.357	22402.9
521.559	22613.84
521.761	23113.55
521.963	22769.49
522.164	22841.17
522.366	23134.03
522.568	23205.7
522.77	23652.16
522.971	23949.12
523.173	23674.69
523.375	24270.65
523.576	23848.77
523.778	24037.18
523.98	24409.91
524.181	24467.25
524.383	24264.5
524.584	24936.24
524.786	24872.75
524.988	25257.77
525.189	24911.66
525.391	25356.07
525.592	25722.66
525.794	25376.55
525.995	25820.96
526.197	26099.48
526.398	25634.6
526.6	26107.68
526.801	25997.09
527.003	26208.03
527.204	26230.55
527.406	26779.41
527.607	26586.9
527.808	26808.08
528.01	26504.98
528.211	26537.75
528.412	27248.39
528.614	26894.1
528.815	27451.14
529.016	27272.97
529.218	26873.62
529.419	27315.98
529.62	27240.2
529.822	27270.92
530.023	27195.15
530.224	27604.74
530.425	27770.63
530.626	27385.61
530.828	27088.65
531.029	28000
531.23	27752.2
531.431	27594.5
531.632	27979.52
531.833	27928.32
532.035	27766.53
532.236	27840.26
532.437	27938.56
532.638	27956.99
532.839	27834.11
533.04	28247.8
533.241	27748.1
533.442	28241.66
533.643	27940.61
533.844	28215.04
534.045	28159.74
534.246	28026.62
534.447	28231.42
534.648	28032.77
534.849	28188.41
535.05	28182.27
535.251	28088.06
535.451	27961.09
535.652	28442.36
535.853	28409.59
536.054	28518.14
536.255	28352.25
536.456	28012.29
536.657	28702.45
536.857	28098.3
537.058	28258.04
537.259	28614.39
537.46	28335.87
537.66	28399.35
537.861	28225.28
538.062	28266.24
538.263	28176.12
538.463	28268.28
538.664	28393.21
538.865	28303.1
539.065	28524.28
539.266	27981.57
539.466	28403.45
539.667	28104.45
539.868	28503.8
540.068	28483.32
540.269	28022.53
540.469	28499.7
540.67	28086.01
540.87	28407.55
541.071	28284.67
541.271	28118.78
541.472	28305.15
541.672	28145.41
541.873	28475.13
542.073	27770.63
542.274	28489.46
542.474	28227.32
542.675	27709.19
542.875	28321.53
543.075	28559.09
543.276	27977.47
543.476	28616.44
543.676	28323.58
543.877	28471.03
544.077	28350.2
544.277	28425.98
544.478	28184.32
544.678	28382.97
544.878	28135.17
545.078	28393.21
545.279	28155.65
545.479	27973.38
545.679	28352.25
545.879	28063.49
546.079	28075.77
546.28	28315.39
546.48	27981.57
546.68	28272.38
546.88	28350.2
547.08	27993.86
547.28	28286.72
547.48	28223.23
547.68	28565.24
547.88	28253.95
548.081	28382.97
548.281	28182.27
548.481	27862.79
548.681	28538.62
548.881	28075.77
549.081	28153.6
549.28	28122.88
549.48	28405.5
549.68	27909.89
549.88	28395.26
550.08	28141.31
550.28	28348.15
550.48	27776.77
550.68	28172.03
550.88	28208.89
551.08	28083.97
551.279	28069.63
551.479	27746.05
551.679	27979.52
551.879	28045.05
552.079	27909.89
552.278	28131.07
552.478	28198.65
552.678	27889.41
552.878	28032.77
553.077	27621.13
553.277	27967.23
553.477	28344.06
553.676	27803.39
553.876	27973.38
554.076	28026.62
554.275	27543.3
554.475	27559.69
554.674	27772.67
554.874	28163.84
555.074	27803.39
555.273	28083.97
555.473	28110.59
555.672	27567.88
555.872	27756.29
556.071	27686.66
556.271	27756.29
556.47	27696.9
556.67	27576.07
556.869	27459.34
557.068	27594.5
557.268	27424.52
557.467	27729.67
557.667	27631.37
557.866	27463.43
558.065	27678.47
558.265	27121.42
558.464	27221.77
558.663	27668.23
558.863	27266.83
559.062	27780.87
559.261	27162.38
559.461	27285.26
559.66	26881.81
559.859	26902.29
560.058	26754.83
560.258	27189
560.457	26910.48
560.656	27221.77
560.855	26799.89
561.054	26973.97
561.253	26330.9
561.453	26865.42
561.652	27143.95
561.851	26779.41
562.05	26785.55
562.249	26302.23
562.448	26887.95
562.647	26613.52
562.846	26834.71
563.045	26617.62
563.244	26443.54
563.443	26760.98
563.642	26298.14
563.841	26261.27
564.04	26169.12
564.239	26349.34
564.438	26115.87
564.637	26257.18
564.836	26423.06
565.035	26056.48
565.234	26191.64
565.432	25982.75
565.631	25925.41
565.83	25898.78
566.029	25767.71
566.228	25825.06
566.427	25777.95
566.625	25827.1
566.824	25544.48
567.023	25874.21
567.222	25474.85
567.42	25481
567.619	25595.68
567.818	25530.15
568.016	25509.67
568.215	25648.93
568.414	25216.81
568.612	25354.02
568.811	25155.37
569.01	25351.98
569.208	24745.78
569.407	25163.56
569.605	25208.62
569.804	24919.85
570.002	24676.15
570.201	24743.73
570.4	24897.33
570.598	24731.44
570.797	24547.12
570.995	24614.71
571.193	24325.94
571.392	24635.19
571.59	24215.35
571.789	24571.7
571.987	24411.96
572.186	24289.08
572.384	23914.3
572.582	24194.87
572.781	23889.73
572.979	23875.39
573.177	24074.04
573.376	24098.62
573.574	23772.99
573.772	24033.08
573.971	23394.12
574.169	23955.26
574.367	23476.04
574.565	23701.31
574.763	23707.46
574.962	23236.42
575.16	23293.77
575.358	23328.58
575.556	23113.55
575.754	23191.37
575.952	23093.07
576.151	23002.96
576.349	22703.95
576.547	22947.66
576.745	22970.19
576.943	23041.87
577.141	22687.57
577.339	22538.07
577.537	22427.48
577.735	22574.93
577.933	22366.04
578.131	22484.82
578.329	22378.33
578.527	22456.15
578.725	22374.23
578.923	22544.21
579.121	22288.21
579.319	22443.86
579.516	22273.88
579.714	21942.11
579.912	22024.03
580.11	21741.41
580.308	21913.44
580.506	21946.2
580.704	21495.65
580.901	21479.27
581.099	21843.81
581.297	21512.03
581.495	21505.89
581.692	21405.54
581.89	21215.08
582.088	21487.46
582.285	21178.22
582.483	21419.88
582.681	21208.94
582.878	21030.76
583.076	20707.18
583.274	20891.5
583.471	20997.99
583.669	21151.59
583.866	20985.71
584.064	20805.49
584.262	20606.83
584.459	20848.49
584.657	20533.11
584.854	20580.21
585.052	20156.28
585.249	20610.93
585.447	20463.47
585.644	20318.07
585.841	20350.84
586.039	20465.52
586.236	20141.94
586.434	20049.78
586.631	19947.39
586.828	20225.91
587.026	20094.84
587.223	20076.41
587.42	19863.42
587.618	19834.75
587.815	19816.32
588.012	19679.1
588.21	19548.03
588.407	19926.91
588.604	19425.15
588.801	19531.65
588.999	19570.56
589.196	19406.72
589.393	19464.07
589.59	19361.67
589.787	19156.87
589.984	18937.74
590.182	18956.17
590.379	19138.44
590.576	18907.02
590.773	19066.76
590.97	18806.67
591.167	19044.23
591.364	18679.69
591.561	18829.2
591.758	18800.52
591.955	18616.21
592.152	18665.36
592.349	18452.37
592.546	18796.43
592.743	18571.15
592.94	18235.28
593.137	18544.53
593.334	18476.94
593.531	18104.21
593.727	18255.76
593.924	18321.3
594.121	17995.67
594.318	18034.58
594.515	17971.1
594.712	17932.19
594.908	18091.93
595.105	17985.43
595.302	17651.61
595.499	17823.64
595.696	17768.35
595.892	17731.48
596.089	17586.08
596.286	17504.16
596.482	17362.85
596.679	17403.81
596.876	17401.76
597.072	17309.6
597.269	17336.23
597.466	17196.96
597.662	17098.66
597.859	17239.97
598.055	17254.31
598.252	17178.53
598.448	17131.43
598.645	16922.54
598.841	16711.6
599.038	16762.79
599.234	16992.17
599.431	16656.3
599.627	16713.64
599.824	16773.03
600.02	16504.75
600.217	16654.25
600.413	16451.5
600.609	16340.91
600.806	16228.28
601.002	16529.33
601.198	16451.5
601.395	16234.42
601.591	16297.91
601.787	16232.37
601.984	16095.16
602.18	16273.33
602.376	16054.2
602.572	15824.83
602.769	15785.91
602.965	15597.5
603.161	15896.5
603.357	15925.18
603.553	15439.81
603.75	15949.75
603.946	15550.4
604.142	15583.16
604.338	15523.77
604.534	15794.11
604.73	15355.84
604.926	15286.21
605.122	15335.36
605.318	15263.68
605.514	15128.52
605.71	15042.5
605.906	15192
606.102	15054.79
606.298	15120.32
606.494	14843.85
606.69	15167.43
606.886	15046.6
607.082	14684.11
607.278	15103.94
607.474	14686.15
607.67	14993.35
607.866	14618.57
608.062	14905.29
608.257	14802.89
608.453	14403.53
608.649	14639.05
608.845	14561.23
609.041	14555.08
609.236	14606.28
609.432	14653.39
609.628	14626.76
609.824	14548.94
610.019	14307.28
610.215	14368.72
610.411	14342.1
610.606	14385.1
610.802	14399.44
610.998	14206.93
611.193	14432.21
611.389	13940.69
611.584	13991.89
611.78	13795.29
611.976	14180.31
612.171	13932.5
612.367	14051.28
612.562	13862.87
612.758	13787.1
612.953	13727.71
613.149	13940.69
613.344	13795.29
613.539	13991.89
613.735	13723.61
613.93	13889.49
614.126	14041.04
614.321	13871.06
614.517	14039
614.712	13926.36
614.907	13637.59
615.103	13778.9
615.298	13416.41
615.493	13510.62
615.688	13412.32
615.884	13762.52
616.079	13279.2
616.274	13488.09
616.47	13596.64
616.665	13455.33
616.86	13400.03
617.055	13524.96
617.25	13254.62
617.445	13154.27
617.641	13084.64
617.836	13135.84
618.031	12918.76
618.226	12912.61
618.421	13045.73
618.616	12965.86
618.811	12765.16
619.006	13076.45
619.201	12603.37
619.396	12918.76
619.591	12681.19
619.786	12500.97
619.981	12867.56
620.176	12824.55
620.371	12533.74
620.566	12464.11
620.761	12220.4
620.956	12484.59
621.151	12148.72
621.346	12300.27
621.541	12222.45
621.735	12564.46
621.93	12091.38
622.125	12132.34
622.32	12038.13
622.515	11839.48
622.709	11747.32
622.904	11782.13
623.099	11603.96
623.294	11638.78
623.488	11749.37
623.683	11409.4
623.878	11464.7
624.072	11395.07
624.267	11337.73
624.462	11464.7
624.656	11139.07
624.851	11218.94
625.046	11024.39
625.24	11098.11
625.435	11053.06
625.629	11087.87
625.824	10993.67
626.018	10999.81
626.213	10690.57
626.407	10764.29
626.602	10657.8
626.796	10530.83
626.991	10811.4
627.185	10457.1
627.38	10446.86
627.574	10371.08
627.768	10577.93
627.963	10299.41
628.157	10229.77
628.352	10280.97
628.546	10229.77
628.74	10106.9
628.935	10033.17
629.129	10049.55
629.323	9912.34
629.517	9811.99
629.712	10010.64
629.906	9852.95
630.1	9748.5
630.294	9783.32
630.489	9494.55
630.683	9656.34
630.877	9515.03
631.071	9476.12
631.265	9551.9
631.459	9494.55
631.653	9383.96
631.848	9203.74
632.042	9025.57
632.236	9185.31
632.43	9197.6
632.624	9084.96
632.818	9007.14
633.012	8994.85
633.206	9078.82
633.4	8861.73
633.594	8775.72
633.788	8900.64
633.982	9011.23
634.176	8757.29
634.369	8831.01
634.563	8738.85
634.757	8583.21
634.951	8585.26
635.145	8306.73
635.339	8722.47
635.533	8558.63
635.726	8550.44
635.92	8319.02
636.114	8435.75
636.308	8411.18
636.501	8155.18
636.695	8171.57
636.889	7940.15
637.083	8230.96
637.276	7993.39
637.47	8042.54
637.664	7886.9
637.857	7979.06
638.051	7993.39
638.244	7745.59
638.438	7798.84
638.632	7807.03
638.825	7489.59
639.019	7604.28
639.212	7616.57
639.406	7362.62
639.599	7702.58
639.793	7563.32
639.986	7426.11
640.18	7469.11
640.373	7522.36
640.567	7325.75
640.76	7258.17
640.954	7231.55
641.147	7170.11
641.34	7206.97
641.534	7147.58
641.727	7143.49
641.92	7157.82
642.114	6932.54
642.307	7090.24
642.5	6723.65
642.694	6948.93
642.887	6731.84
643.08	6903.87
643.273	6912.07
643.467	6602.82
643.66	6746.18
643.853	6606.92
644.046	6463.56
644.239	6559.81
644.432	6510.66
644.626	6328.39
644.819	6547.53
645.012	6490.18
645.205	6352.97
645.398	6506.57
645.591	6117.45
645.784	6379.59
645.977	6187.08
646.17	6221.9
646.363	6199.37
646.556	6115.41
646.749	5974.1
646.942	6031.44
647.135	5918.8
647.328	5970
647.521	5828.69
647.714	5797.97
647.907	5939.28
648.099	5867.6
648.292	5953.62
648.485	5904.46
648.678	5929.04
648.871	5681.24
649.064	5828.69
649.256	5752.91
649.449	5609.56
649.642	5677.14
649.835	5642.32
650.027	5472.34
650.22	5431.38
650.413	5439.58
650.605	5394.52
650.798	5419.1
650.991	5527.64
651.183	5277.79
651.376	5275.74
651.568	5408.86
651.761	5087.33
651.954	5335.13
652.146	5271.64
652.339	5154.91
652.531	5316.7
652.724	5269.59
652.916	5128.28
653.109	5083.23
653.301	5015.65
653.494	5105.76
653.686	4866.14
653.879	4946.02
654.071	4946.02
654.263	4966.49
654.456	4956.26
654.648	4849.76
654.84	4860
655.033	4876.38
655.225	4761.7
655.417	4759.65
655.61	4712.55
655.802	4737.12
655.994	4561
656.186	4554.85
656.379	4601.96
656.571	4446.31
656.763	4567.14
656.955	4513.89
657.148	4579.43
657.34	4333.67
657.532	4413.54
657.724	4360.3
657.916	4526.18
658.108	4481.13
658.3	4530.28
658.492	4339.82
658.684	4284.52
658.876	4202.6
659.068	4274.28
659.26	4266.09
659.452	4212.84
659.644	4247.66
659.836	4184.17
660.028	4120.68
660.22	4092.01
660.412	4143.21
660.604	4057.2
660.796	4077.68
660.988	4120.68
661.18	3883.12
661.372	4130.92
661.563	4081.77
661.755	4014.19
661.947	3936.37
662.139	3803.25
662.331	3772.53
662.522	3766.39
662.714	3887.22
662.906	3940.46
663.097	3954.8
663.289	3758.19
663.481	3776.63
663.673	3608.69
663.864	3760.24
664.056	3797.1
664.247	3698.8
664.439	3694.71
664.631	3623.03
664.822	3571.83
665.014	3668.08
665.205	3504.25
665.397	3473.53
665.588	3668.08
665.78	3410.04
665.971	3438.71
666.163	3555.44
666.354	3403.89
666.546	3332.22
666.737	3326.07
666.929	3397.75
667.12	3344.5
667.311	3391.61
667.503	3405.94
667.694	3332.22
667.885	3283.06
668.077	3324.02
668.268	3270.78
668.459	3240.06
668.651	3250.3
668.842	3291.26
669.033	3283.06
669.224	3106.94
669.416	3147.9
669.607	3080.32
669.798	3184.76
669.989	3262.58
670.18	3127.42
670.371	3246.2
670.563	3039.36
670.754	3127.42
670.945	2992.25
671.136	3106.94
671.327	3037.31
671.518	3006.59
671.709	3037.31
671.9	3119.23
672.091	3053.69
672.282	2982.01
672.473	2889.85
672.664	3004.54
672.855	3029.12
673.046	2873.47
673.237	2992.25
673.428	2934.91
673.619	2971.77
673.809	2875.52
674	2975.87
674.191	2834.56
674.382	2865.28
674.573	2771.07
674.764	2832.51
674.954	2785.41
675.145	2814.08
675.336	2773.12
675.527	2826.37
675.717	2859.14
675.908	2717.83
676.099	2971.77
676.289	2777.22
676.48	2613.38
676.671	2719.87
676.861	2689.15
677.052	2650.24
677.243	2734.21
677.433	2701.44
677.624	2705.54
677.814	2717.83
678.005	2564.23
678.195	2709.63
678.386	2836.61
678.576	2644.1
678.767	2637.95
678.957	2611.33
679.148	2656.39
679.338	2693.25
679.529	2779.26
679.719	2621.57
679.909	2549.89
680.1	2615.43
680.29	2564.23
680.481	2619.52
680.671	2599.04
680.861	2644.1
681.052	2519.17
681.242	2537.6
681.432	2685.06
681.622	2447.49
681.813	2566.28
682.003	2576.52
682.193	2498.69
682.383	2513.03
682.573	2517.12
682.764	2476.16
682.954	2621.57
683.144	2543.75
683.334	2513.03
683.524	2515.08
683.714	2470.02
683.904	2506.88
684.094	2537.6
684.284	2500.74
684.474	2488.45
684.664	2478.21
684.854	2498.69
685.044	2525.32
685.234	2519.17
685.424	2564.23
685.614	2521.22
685.804	2465.93
685.994	2449.54
686.184	2400.39
686.374	2451.59
686.564	2336.9
686.753	2498.69
686.943	2343.05
687.133	2445.45
687.323	2435.21
687.513	2373.77
687.702	2414.73
687.892	2353.29
688.082	2422.92
688.272	2332.81
688.461	2441.35
688.651	2388.1
688.841	2304.14
689.03	2431.11
689.22	2308.23
689.41	2353.29
689.599	2373.77
689.789	2300.04
689.979	2345.09
690.168	2384.01
690.358	2435.21
690.547	2326.66
690.737	2328.71
690.926	2254.98
691.116	2324.62
691.305	2207.88
691.495	2275.46
691.684	2240.65
691.874	2308.23
692.063	2414.73
692.252	2390.15
692.442	2289.8
692.631	2195.59
692.82	2295.94
693.01	2324.62
693.199	2267.27
693.388	2250.89
693.578	2261.13
693.767	2244.74
693.956	2320.52
694.146	2242.7
694.335	2150.54
694.524	2099.34
694.713	2175.11
694.902	2201.74
695.092	2160.78
695.281	2267.27
695.47	2125.96
695.659	2185.35
695.848	2216.07
696.037	2168.97
696.226	2150.54
696.415	2148.49
696.604	2224.26
696.793	2162.83
696.982	1976.46
697.171	2242.7
697.36	2109.58
697.549	2113.67
697.738	2140.3
697.927	2130.06
698.116	2146.44
698.305	2193.55
698.494	2027.66
698.683	2136.2
698.872	2050.19
699.061	2119.82
699.25	2052.24
699.438	2115.72
699.627	2076.81
699.816	2042
700.005	2003.08
700.193	2009.23
700.382	2160.78
700.571	2054.28
700.76	2044.04
700.948	2150.54
701.137	2001.04
701.326	2105.48
701.514	1958.03
701.703	2015.37
701.892	1953.93
702.08	2013.32
702.269	2011.28
702.457	1960.08
702.646	2117.77
702.834	1986.7
703.023	2019.47
703.212	2070.67
703.4	2013.32
703.589	1896.59
703.777	2042
703.965	1982.6
704.154	2035.85
704.342	1996.94
704.531	1994.89
704.719	1970.32
704.907	1951.88
705.096	1966.22
705.284	1849.49
705.472	1915.02
705.661	1882.25
705.849	1968.27
706.037	1865.87
706.226	1900.69
706.414	1937.55
706.602	1923.21
706.79	1884.3
706.979	1908.88
707.167	1904.78
707.355	1886.35
707.543	1855.63
707.731	1812.62
707.919	1900.69
708.107	1753.23
708.296	1704.08
708.484	1745.04
708.672	1919.12
708.86	1886.35
709.048	1882.25
709.236	1865.87
709.424	1960.08
709.612	1730.7
709.8	1796.24
709.988	1761.42
710.176	1865.87
710.364	1693.84
710.551	1753.23
710.739	1747.09
710.927	1702.03
711.115	1865.87
711.303	1702.03
711.491	1853.58
711.679	1742.99
711.866	1839.25
712.054	1777.81
712.242	1826.96
712.43	1851.53
712.617	1728.66
712.805	1595.54
712.993	1693.84
713.181	1794.19
713.368	1728.66
713.556	1720.46
713.744	1714.32
713.931	1761.42
714.119	1667.22
714.306	1759.38
714.494	1613.97
714.682	1734.8
714.869	1738.9
715.057	1675.41
715.244	1736.85
715.432	1695.89
715.619	1722.51
715.807	1699.98
715.994	1628.31
716.182	1679.51
716.369	1683.6
716.556	1683.6
716.744	1618.07
716.931	1667.22
717.119	1693.84
717.306	1638.55
717.493	1593.49
717.681	1628.31
717.868	1640.59
718.055	1525.91
718.242	1620.11
718.43	1558.67
718.617	1620.11
718.804	1558.67
718.991	1570.96
719.179	1566.87
719.366	1511.57
719.553	1665.17
719.74	1595.54
719.927	1521.81
720.114	1517.72
720.301	1536.15
720.488	1587.35
720.676	1577.11
720.863	1581.2
721.05	1558.67
721.237	1515.67
721.424	1523.86
721.611	1517.72
721.798	1570.96
721.985	1597.59
722.172	1472.66
722.358	1581.2
722.545	1523.86
722.732	1632.4
722.919	1507.48
723.106	1499.28
723.293	1523.86
723.48	1472.66
723.667	1497.24
723.853	1517.72
724.04	1562.77
724.227	1450.13
724.414	1456.28
724.6	1611.92
724.787	1564.82
724.974	1411.22
725.161	1398.93
725.347	1538.2
725.534	1503.38
725.72	1548.44
725.907	1595.54
726.094	1525.91
726.28	1464.47
726.467	1497.24
726.653	1466.52
726.84	1400.98
727.027	1419.41
727.213	1503.38
727.4	1532.05
727.586	1540.24
727.773	1435.8
727.959	1431.7
728.145	1317.01
728.332	1480.85
728.518	1462.42
728.705	1341.59
728.891	1333.4
729.077	1433.75
729.264	1329.3
729.45	1400.98
729.636	1489.04
729.823	1317.01
730.009	1390.74
730.195	1441.94
730.382	1417.37
730.568	1443.99
730.754	1384.6
730.94	1466.52
731.126	1431.7
731.313	1319.06
731.499	1380.5
731.685	1372.31
731.871	1394.84
732.057	1347.73
732.243	1362.07
732.429	1362.07
732.615	1435.8
732.801	1417.37
732.987	1310.87
733.173	1425.56
733.359	1323.16
733.545	1409.17
733.731	1290.39
733.917	1310.87
734.103	1388.69
734.289	1325.21
734.475	1333.4
734.661	1376.41
734.847	1300.63
735.033	1368.21
735.219	1366.17
735.404	1286.3
735.59	1349.78
735.776	1280.15
735.962	1394.84
736.148	1259.67
736.333	1235.1
736.519	1384.6
736.705	1364.12
736.89	1325.21
737.076	1226.9
737.262	1294.49
737.447	1357.97
737.633	1368.21
737.819	1212.57
738.004	1298.58
738.19	1271.96
738.375	1288.34
738.561	1284.25
738.747	1300.63
738.932	1243.29
739.118	1327.25
739.303	1276.06
739.489	1216.66
739.674	1286.3
739.859	1231
740.045	1282.2
740.23	1300.63
740.416	1245.34
740.601	1224.86
740.786	1355.93
740.972	1239.19
741.157	1251.48
741.342	1249.43
741.528	1202.33
741.713	1280.15
741.898	1214.62
742.084	1185.94
742.269	1198.23
742.454	1249.43
742.639	1224.86
742.824	1216.66
743.01	1194.14
743.195	1218.71
743.38	1101.98
743.565	1190.04
743.75	1099.93
743.935	1204.38
744.12	1140.89
744.305	1142.94
744.49	1104.03
744.675	1106.07
744.86	1222.81
745.045	1136.79
745.23	1179.8
745.415	1138.84
745.6	1085.59
745.785	1136.79
745.97	1147.03
746.155	1136.79
746.34	1106.07
746.525	1108.12
746.71	1073.31
746.895	1018.01
747.079	1036.44
747.264	1061.02
747.449	1067.16
747.634	1069.21
747.819	1044.63
748.003	968.86
748.188	1108.12
748.373	1018.01
748.557	1001.63
748.742	1038.49
748.927	1028.25
749.111	1036.44
749.296	1056.92
749.481	1069.21
749.665	1007.77
749.85	1009.82
750.034	921.76
750.219	915.61
750.404	934.04
750.588	975
750.773	891.04
750.957	921.76
751.141	944.28
751.326	991.39
751.51	913.56
751.695	964.76
751.879	960.67
752.064	981.15
752.248	958.62
752.432	878.75
752.617	934.04
752.801	989.34
752.985	835.74
753.17	866.46
753.354	850.08
753.538	843.93
753.722	794.78
753.907	827.55
754.091	827.55
754.275	833.69
754.459	956.57
754.643	759.97
754.828	845.98
755.012	710.82
755.196	845.98
755.38	807.07
755.564	848.03
755.748	780.45
755.932	796.83
756.116	831.65
756.3	796.83
756.484	858.27
756.668	807.07
756.852	747.68
757.036	843.93
757.22	766.11
757.404	706.72
757.588	766.11
757.772	706.72
757.956	809.12
758.14	676
758.323	688.29
758.507	766.11
758.691	719.01
758.875	669.86
759.059	639.14
759.242	747.68
759.426	655.52
759.61	710.82
759.794	624.8
759.977	762.02
760.161	727.2
760.345	706.72
760.528	616.61
760.712	710.82
760.895	620.71
761.079	680.1
761.263	680.1
761.446	606.37
761.63	620.71
761.813	663.71
761.997	653.47
762.18	651.42
762.364	514.21
762.547	573.6
762.731	559.27
762.914	702.62
763.098	542.88
763.281	653.47
763.464	649.38
763.648	639.14
763.831	587.94
764.015	596.13
764.198	639.14
764.381	598.18
764.564	682.14
764.748	626.85
764.931	534.69
765.114	618.66
765.297	604.32
765.481	606.37
765.664	571.55
765.847	596.13
766.03	602.27
766.213	616.61
766.397	647.33
766.58	596.13
766.763	575.65
766.946	585.89
767.129	555.17
767.312	546.98
767.495	536.74
767.678	514.21
767.861	647.33
768.044	565.41
768.227	530.59
768.41	555.17
768.593	503.97
768.776	544.93
768.959	534.69
769.142	565.41
769.324	585.89
769.507	608.42
769.69	524.45
769.873	546.98
770.056	604.32
770.239	456.87
770.421	522.4
770.604	589.99
770.787	555.17
770.97	520.35
771.152	598.18
771.335	544.93
771.518	563.36
771.7	534.69
771.883	553.12
772.066	522.4
772.248	465.06
772.431	485.54
772.613	530.59
772.796	473.25
772.978	497.83
773.161	473.25
773.343	467.11
773.526	506.02
773.708	432.29
773.891	440.48
774.073	452.77
774.256	395.43
774.438	460.96
774.621	440.48
774.803	442.53
774.985	487.59
775.168	524.45
775.35	389.28
775.532	540.83
775.715	415.91
775.897	407.72
776.079	391.33
776.261	475.3
776.444	413.86
776.626	409.76
776.808	362.66
776.99	475.3
777.173	399.52
777.355	420
777.537	399.52
777.719	395.43
777.901	393.38
778.083	424.1
778.265	364.71
778.447	297.13
778.629	317.61
778.811	389.28
778.993	381.09
779.175	336.04
779.357	434.34
779.539	325.8
779.721	374.95
779.903	399.52
780.085	344.23
780.267	323.75
780.449	317.61
780.631	333.99
780.812	338.09
780.994	319.65
781.176	444.58
781.358	395.43
781.54	311.46
781.721	342.18
781.903	385.19
782.085	401.57
782.267	313.51
782.448	319.65
782.63	319.65
782.812	348.33
782.993	276.65
783.175	360.61
783.357	311.46
783.538	323.75
783.72	321.7
783.901	366.76
784.083	258.21
784.264	368.81
784.446	342.18
784.627	344.23
784.809	264.36
784.99	245.93
785.172	319.65
785.353	301.22
785.535	264.36
785.716	260.26
785.897	233.64
786.079	338.09
786.26	264.36
786.441	266.41
786.623	227.5
786.804	282.79
786.985	301.22
787.167	276.65
787.348	178.34
787.529	274.6
787.71	247.97
787.891	293.03
788.073	284.84
788.254	223.4
788.435	262.31
788.616	286.89
788.797	268.45
788.978	207.02
789.159	274.6
789.34	227.5
789.522	266.41
789.703	204.97
789.884	170.15
790.065	237.74
790.246	225.45
790.427	231.59
790.607	280.74
790.788	233.64
790.969	188.58
791.15	221.35
791.331	168.1
791.512	223.4
791.693	182.44
791.874	125.1
792.054	231.59
792.235	190.63
792.416	276.65
792.597	243.88
792.778	182.44
792.958	254.12
793.139	155.82
793.32	221.35
793.5	176.3
793.681	202.92
793.862	233.64
794.042	196.78
794.223	223.4
794.404	147.62
794.584	164.01
794.765	153.77
794.945	149.67
795.126	227.5
795.306	204.97
795.487	180.39
795.667	145.58
795.848	202.92
796.028	180.39
796.209	254.12
796.389	141.48
796.57	211.11
796.75	161.96
796.93	135.34
797.111	157.86
797.291	133.29
797.471	104.62
797.652	178.34
797.832	204.97
798.012	166.06
798.192	88.23
798.373	127.14
798.553	116.9
798.733	155.82
798.913	137.38
799.093	121
799.274	110.76
799.454	164.01
799.634	116.9
799.814	159.91
799.994	110.76
800.174	200.87
800.354	170.15
800.534	88.23
800.714	178.34
800.894	121
801.074	98.47
801.254	57.51
801.434	159.91
801.614	166.06
801.794	188.58
801.974	313.51
802.154	227.5
802.334	188.58
802.514	114.86
802.693	161.96
802.873	125.1
803.053	166.06
803.233	168.1
803.413	186.54
803.592	155.82
803.772	59.56
803.952	133.29
804.131	127.14
804.311	121
804.491	194.73
804.67	149.67
804.85	143.53
805.03	92.33
805.209	127.14
805.389	133.29
805.568	135.34
805.748	67.75
805.928	139.43
806.107	188.58
806.287	110.76
806.466	170.15
806.646	133.29
806.825	106.67
807.004	141.48
807.184	102.57
807.363	159.91
807.543	0.17
807.722	94.38
807.901	186.54
808.081	59.56
808.26	90.28
808.439	102.57
808.619	92.33
808.798	104.62
808.977	73.9
809.156	49.32
809.336	106.67
809.515	153.77
809.694	137.38
809.873	121
810.052	2.22
810.231	73.9
810.411	143.53
810.59	63.66
810.769	88.23
810.948	116.9
811.127	26.79
811.306	100.52
811.485	178.34
811.664	61.61
811.843	55.47
812.022	112.81
812.201	141.48
812.38	127.14
812.559	112.81
812.737	69.8
812.916	67.75
813.095	88.23
813.274	67.75
813.453	75.95
813.632	98.47
813.811	55.47
813.989	45.23
814.168	82.09
814.347	75.95
814.526	186.54
814.704	69.8
814.883	151.72
815.062	47.27
815.24	100.52
815.419	34.99
815.598	98.47
815.776	86.19
815.955	108.71
816.133	59.56
816.312	63.66
816.49	102.57
816.669	57.51
816.847	69.8
817.026	41.13
817.204	61.61
817.383	63.66
817.561	65.71
817.74	86.19
817.918	110.76
818.097	73.9
818.275	112.81
818.453	-1.88
818.632	67.75
818.81	149.67
818.988	104.62
819.167	75.95
819.345	-1.88
819.523	30.89
819.701	125.1
819.879	141.48
820.058	43.18
820.236	71.85
820.414	-18.26
820.592	98.47
820.77	102.57
820.948	98.47
821.127	92.33
821.305	84.14
821.483	-20.31
821.661	49.32
821.839	80.04
822.017	37.03
822.195	43.18
822.373	14.51
822.551	43.18
822.729	77.99
822.907	32.94
823.085	86.19
823.262	51.37
823.44	63.66
823.618	10.41
823.796	75.95
823.974	-26.45
824.152	55.47
824.329	77.99
824.507	51.37
824.685	51.37
824.863	20.65
825.04	43.18
825.218	43.18
825.396	43.18
825.574	34.99
825.751	98.47
825.929	84.14
826.107	32.94
826.284	82.09
826.462	26.79
826.639	104.62
826.817	-14.17
826.994	125.1
827.172	18.6
827.349	57.51
827.527	102.57
827.704	53.42
827.882	71.85
828.059	90.28
828.237	14.51
828.414	45.23
828.591	41.13
828.769	80.04
828.946	55.47
829.124	84.14
829.301	65.71
829.478	51.37
829.655	47.27
829.833	182.44
830.01	22.7
830.187	26.79
830.364	96.43
830.542	10.41
830.719	-5.97
830.896	6.31
831.073	88.23
831.25	67.75
831.427	86.19
831.604	6.31
831.782	-5.97
831.959	94.38
832.136	94.38
832.313	90.28
832.49	22.7
832.667	-10.07
832.844	67.75
833.021	4.27
833.198	-20.31
833.374	6.31
833.551	73.9
833.728	39.08
833.905	0.17
834.082	14.51
834.259	88.23
834.436	96.43
834.612	20.65
834.789	80.04
834.966	39.08
835.143	71.85
835.319	18.6
835.496	65.71
835.673	55.47
835.85	24.75
836.026	77.99
836.203	116.9
836.38	2.22
836.556	16.55
836.733	-12.12
836.909	57.51
837.086	6.31
837.262	57.51
837.439	63.66
837.616	53.42
837.792	49.32
837.968	106.67
838.145	8.36
838.321	112.81
838.498	-12.12
838.674	55.47
838.851	37.03
839.027	41.13
839.203	47.27
839.38	75.95
839.556	45.23
839.732	73.9
839.909	37.03
840.085	77.99
840.261	20.65
840.437	22.7
840.614	39.08
840.79	71.85
840.966	53.42
841.142	80.04
841.318	-18.26
841.494	8.36
841.671	32.94
841.847	22.7
842.023	-8.02
842.199	8.36
842.375	-30.55
842.551	84.14
842.727	0.17
842.903	-18.26
843.079	4.27
843.255	61.61
843.431	51.37
843.607	67.75
843.783	-40.79
843.959	2.22
844.134	51.37
844.31	-8.02
844.486	30.89
844.662	-18.26
844.838	2.22
845.013	30.89
845.189	-10.07
845.365	30.89
845.541	51.37
845.716	26.79
845.892	-28.5
846.068	45.23
846.244	-24.4
846.419	-14.17
846.595	-10.07
846.77	45.23
846.946	4.27
847.122	-5.97
847.297	22.7
847.473	18.6
847.648	26.79
847.824	24.75
847.999	-38.74
848.175	65.71
848.35	59.56
848.526	77.99
848.701	30.89
848.876	-18.26
849.052	-20.31
849.227	67.75
849.403	-1.88
849.578	-44.88
849.753	22.7
849.929	6.31
850.104	-44.88
850.279	2.22
850.454	14.51
850.63	-18.26
850.805	-28.5
850.98	-18.26
851.155	51.37
851.33	71.85
851.505	43.18
851.681	80.04
851.856	-44.88
852.031	34.99
852.206	77.99
852.381	47.27
852.556	129.19
852.731	-1.88
852.906	0.17
853.081	55.47
853.256	8.36
853.431	-12.12
853.606	71.85
853.781	71.85
853.956	10.41
854.131	-18.26
854.305	-8.02
854.48	-8.02
854.655	2.22
854.83	92.33
855.005	-26.45
855.18	-36.69
855.354	-22.36
855.529	55.47
855.704	43.18
855.879	90.28
856.053	32.94
856.228	-1.88
856.403	22.7
856.577	30.89
856.752	-44.88
856.926	18.6
857.101	14.51
857.276	22.7
857.45	65.71
857.625	34.99
857.799	-38.74
857.974	18.6
858.148	-69.46
858.323	125.1
858.497	24.75
858.672	0.17
858.846	-10.07
859.02	-18.26
859.195	2.22
859.369	80.04
859.543	-1.88
859.718	47.27
859.892	6.31
860.066	12.46
860.241	61.61
860.415	22.7
860.589	-8.02
860.763	-3.93
860.938	-51.03
861.112	43.18
861.286	-57.17
861.46	18.6
861.634	-14.17
861.808	49.32
861.982	-67.41
862.157	45.23
862.331	-32.6
862.505	4.27
862.679	47.27
862.853	-46.93
863.027	-14.17
863.201	-16.21
863.375	8.36
863.549	-5.97
863.722	14.51
863.896	86.19
864.07	-46.93
864.244	-8.02
864.418	88.23
864.592	20.65
864.766	12.46
864.939	41.13
865.113	-32.6
865.287	75.95
865.461	-24.4
865.634	12.46
865.808	-89.94
865.982	-30.55
866.156	18.6
866.329	10.41
866.503	16.55
866.676	43.18
866.85	20.65
867.024	86.19
867.197	55.47
867.371	-65.36
867.544	65.71
867.718	51.37
867.891	43.18
868.065	-10.07
868.238	80.04
868.412	37.03
868.585	14.51
868.759	30.89
868.932	-24.4
869.105	-3.93
869.279	-51.03
869.452	-40.79
869.625	6.31
869.799	69.8
869.972	51.37
870.145	57.51
870.319	-30.55
870.492	-5.97
870.665	57.51
870.838	30.89
871.011	-3.93
871.185	-24.4
871.358	-5.97
871.531	-16.21
871.704	12.46
871.877	6.31
872.05	-59.22
872.223	-42.84
872.396	41.13
872.569	-16.21
872.742	-12.12
872.915	45.23
873.088	26.79
873.261	-20.31
873.434	53.42
873.607	22.7
873.78	0.17
873.953	22.7
874.126	55.47
874.299	80.04
874.471	4.27
874.644	-48.98
874.817	-12.12
874.99	22.7
875.163	18.6
875.335	-28.5
875.508	-26.45
875.681	80.04
875.853	-22.36
876.026	28.84
876.199	-55.12
876.371	43.18
876.544	84.14
876.717	14.51
876.889	22.7
877.062	-36.69
877.234	-12.12
877.407	55.47
877.579	-46.93
877.752	4.27
877.924	-53.08
878.097	-22.36
878.269	-34.64
878.442	-10.07
878.614	0.17
878.786	12.46
878.959	6.31
879.131	39.08
879.303	14.51
879.476	-22.36
879.648	-16.21
879.82	37.03
879.993	-44.88
880.165	-14.17
880.337	80.04
880.509	22.7
880.681	24.75
880.854	-40.79
881.026	-36.69
881.198	8.36
881.37	-24.4
881.542	34.99
881.714	8.36
881.886	-3.93
882.058	-34.64
882.23	-28.5
882.402	45.23
882.574	-65.36
882.746	12.46
882.918	2.22
883.09	-32.6
883.262	-22.36
883.434	-42.84
883.606	10.41
883.778	-10.07
883.95	43.18
884.122	-28.5
884.293	26.79
884.465	59.56
884.637	-3.93
884.809	-65.36
884.98	-36.69
885.152	-42.84
885.324	-34.64
885.496	61.61
885.667	69.8
885.839	2.22
886.011	61.61
886.182	-5.97
886.354	18.6
886.525	51.37
886.697	6.31
886.869	-12.12
887.04	43.18
887.212	2.22
887.383	28.84
887.555	-71.51
887.726	12.46
887.897	24.75
888.069	26.79
888.24	80.04
888.412	6.31
888.583	-67.41
888.754	-16.21
888.926	8.36
889.097	10.41
889.268	-3.93
889.44	2.22
889.611	-85.84
889.782	-46.93
889.953	20.65
890.125	43.18
890.296	-48.98
890.467	71.85
890.638	2.22
890.809	-24.4
890.98	-5.97
891.151	-42.84
891.323	0.17
891.494	14.51
891.665	45.23
891.836	-26.45
892.007	2.22
892.178	18.6
892.349	10.41
892.52	-24.4
892.691	-16.21
892.862	71.85
893.032	-40.79
893.203	0.17
893.374	-18.26
893.545	84.14
893.716	-18.26
893.887	8.36
894.057	28.84
894.228	10.41
894.399	-28.5
894.57	18.6
894.74	0.17
894.911	-5.97
895.082	-8.02
895.253	59.56
895.423	-5.97
895.594	-24.4
895.764	12.46
895.935	-5.97
896.106	69.8
896.276	32.94
896.447	-89.94
896.617	16.55
896.788	-1.88
896.958	-53.08
897.129	2.22
897.299	49.32
897.47	2.22
897.64	67.75
897.81	-8.02
897.981	-38.74
898.151	-18.26
898.322	0.17
898.492	-3.93
898.662	-5.97
898.832	-1.88
899.003	8.36
899.173	47.27
899.343	-57.17
899.513	8.36
