Data from USB4F104151__70__12-59-36-542.txt Node

Date: Fri Mar 14 12:59:36 EDT 2025
User: louis
Spectrometer: USB4F10415
Trigger mode: 4
Integration Time (sec): 1.000000E-2
Scans to average: 1
Electric dark correction enabled: true
Nonlinearity correction enabled: false
Boxcar width: 0
XAxis mode: Wavelengths
Number of Pixels in Spectrum: 3648
>>>>>Begin Spectral Data<<<<<
178.204	-47.27
178.424	-47.27
178.644	-47.27
178.864	-18.6
179.084	-39.08
179.304	-41.13
179.524	-26.79
179.744	30.55
179.964	-57.51
180.184	1.88
180.404	-65.71
180.624	42.84
180.844	73.56
181.064	38.74
181.283	-41.13
181.503	16.21
181.723	28.5
181.943	-28.84
182.163	-24.75
182.383	36.69
182.602	-86.19
182.822	-47.27
183.042	1.88
183.262	-51.37
183.482	79.7
183.701	5.97
183.921	-0.17
184.141	-6.31
184.361	48.98
184.58	42.84
184.8	20.31
185.02	-75.95
185.239	51.03
185.459	1.88
185.679	3.93
185.898	-34.99
186.118	91.99
186.338	-26.79
186.557	40.79
186.777	-53.42
186.997	-37.03
187.216	-61.61
187.436	-24.75
187.655	40.79
187.875	-2.22
188.095	14.17
188.314	96.08
188.534	8.02
188.753	36.69
188.973	16.21
189.192	12.12
189.412	-32.94
189.631	20.31
189.851	24.4
190.07	40.79
190.29	12.12
190.509	61.27
190.729	44.88
190.948	81.75
191.168	108.37
191.387	61.27
191.607	-10.41
191.826	48.98
192.045	-39.08
192.265	42.84
192.484	8.02
192.704	59.22
192.923	26.45
193.142	83.8
193.362	-55.47
193.581	32.6
193.8	-4.27
194.02	77.65
194.239	73.56
194.458	-22.7
194.678	16.21
194.897	26.45
195.116	-14.51
195.335	24.4
195.555	-0.17
195.774	8.02
195.993	-4.27
196.212	48.98
196.432	28.5
196.651	20.31
196.87	26.45
197.089	59.22
197.308	-61.61
197.528	28.5
197.747	10.07
197.966	48.98
198.185	108.37
198.404	8.02
198.623	18.26
198.842	61.27
199.062	8.02
199.281	16.21
199.5	-16.55
199.719	34.64
199.938	71.51
200.157	24.4
200.376	46.93
200.595	-22.7
200.814	32.6
201.033	-12.46
201.252	77.65
201.471	-14.51
201.69	24.4
201.909	61.27
202.128	55.12
202.347	1.88
202.566	-8.36
202.785	3.93
203.004	79.7
203.223	61.27
203.442	34.64
203.661	-6.31
203.879	57.17
204.098	-12.46
204.317	53.08
204.536	24.4
204.755	18.26
204.974	42.84
205.193	89.94
205.411	-0.17
205.63	48.98
205.849	22.36
206.068	-22.7
206.287	-0.17
206.505	-26.79
206.724	57.17
206.943	48.98
207.162	57.17
207.381	57.17
207.599	-6.31
207.818	34.64
208.037	16.21
208.255	5.97
208.474	34.64
208.693	-43.18
208.911	1.88
209.13	-18.6
209.349	12.12
209.567	57.17
209.786	12.12
210.005	22.36
210.223	51.03
210.442	48.98
210.661	26.45
210.879	12.12
211.098	73.56
211.316	-20.65
211.535	67.41
211.753	12.12
211.972	89.94
212.191	24.4
212.409	16.21
212.628	32.6
212.846	-14.51
213.065	-0.17
213.283	32.6
213.502	-8.36
213.72	-26.79
213.938	89.94
214.157	36.69
214.375	24.4
214.594	73.56
214.812	42.84
215.031	-49.32
215.249	34.64
215.467	48.98
215.686	-34.99
215.904	85.84
216.122	18.26
216.341	18.26
216.559	24.4
216.778	59.22
216.996	1.88
217.214	10.07
217.432	-20.65
217.651	-16.55
217.869	48.98
218.087	-24.75
218.306	-30.89
218.524	85.84
218.742	55.12
218.96	-18.6
219.179	46.93
219.397	96.08
219.615	44.88
219.833	28.5
220.051	79.7
220.27	114.52
220.488	38.74
220.706	16.21
220.924	-6.31
221.142	67.41
221.36	42.84
221.578	1.88
221.796	-30.89
222.015	53.08
222.233	26.45
222.451	69.46
222.669	5.97
222.887	-20.65
223.105	42.84
223.323	-0.17
223.541	3.93
223.759	46.93
223.977	24.4
224.195	42.84
224.413	18.26
224.631	-30.89
224.849	-0.17
225.067	51.03
225.285	51.03
225.503	-10.41
225.721	73.56
225.939	3.93
226.157	32.6
226.375	100.18
226.592	20.31
226.81	-6.31
227.028	46.93
227.246	73.56
227.464	-24.75
227.682	32.6
227.9	-22.7
228.117	91.99
228.335	106.32
228.553	14.17
228.771	30.55
228.989	48.98
229.206	36.69
229.424	8.02
229.642	-22.7
229.86	-49.32
230.077	10.07
230.295	-16.55
230.513	44.88
230.731	55.12
230.948	57.17
231.166	34.64
231.384	-4.27
231.601	34.64
231.819	91.99
232.037	40.79
232.254	1.88
232.472	18.26
232.689	65.36
232.907	-0.17
233.125	8.02
233.342	61.27
233.56	16.21
233.777	28.5
233.995	44.88
234.213	12.12
234.43	1.88
234.648	112.47
234.865	63.32
235.083	59.22
235.3	-20.65
235.518	69.46
235.735	16.21
235.953	12.12
236.17	83.8
236.388	32.6
236.605	48.98
236.822	24.4
237.04	57.17
237.257	38.74
237.475	-0.17
237.692	-6.31
237.909	5.97
238.127	63.32
238.344	51.03
238.562	20.31
238.779	42.84
238.996	-0.17
239.214	-28.84
239.431	12.12
239.648	-20.65
239.865	-4.27
240.083	53.08
240.3	-4.27
240.517	10.07
240.735	77.65
240.952	24.4
241.169	91.99
241.386	22.36
241.603	16.21
241.821	-30.89
242.038	44.88
242.255	-37.03
242.472	-14.51
242.689	28.5
242.907	28.5
243.124	-30.89
243.341	22.36
243.558	26.45
243.775	51.03
243.992	28.5
244.209	83.8
244.426	65.36
244.643	-8.36
244.86	53.08
245.078	36.69
245.295	28.5
245.512	-28.84
245.729	38.74
245.946	14.17
246.163	-0.17
246.38	46.93
246.597	44.88
246.814	-4.27
247.031	-16.55
247.248	96.08
247.464	38.74
247.681	48.98
247.898	12.12
248.115	14.17
248.332	55.12
248.549	14.17
248.766	24.4
248.983	83.8
249.2	-0.17
249.417	10.07
249.633	18.26
249.85	16.21
250.067	-41.13
250.284	3.93
250.501	10.07
250.717	36.69
250.934	28.5
251.151	57.17
251.368	-26.79
251.585	-26.79
251.801	3.93
252.018	57.17
252.235	20.31
252.451	-6.31
252.668	51.03
252.885	44.88
253.102	-24.75
253.318	51.03
253.535	73.56
253.752	-14.51
253.968	-4.27
254.185	-39.08
254.401	-8.36
254.618	48.98
254.835	73.56
255.051	91.99
255.268	-16.55
255.484	-57.51
255.701	12.12
255.917	40.79
256.134	34.64
256.351	38.74
256.567	5.97
256.784	-8.36
257	-4.27
257.217	1.88
257.433	20.31
257.65	75.6
257.866	96.08
258.082	12.12
258.299	-86.19
258.515	24.4
258.732	36.69
258.948	10.07
259.165	3.93
259.381	-4.27
259.597	-34.99
259.814	10.07
260.03	-10.41
260.246	-24.75
260.463	14.17
260.679	53.08
260.895	40.79
261.112	34.64
261.328	22.36
261.544	85.84
261.761	28.5
261.977	-39.08
262.193	24.4
262.409	44.88
262.626	24.4
262.842	-24.75
263.058	-6.31
263.274	108.37
263.49	44.88
263.707	81.75
263.923	81.75
264.139	10.07
264.355	57.17
264.571	24.4
264.787	42.84
265.004	55.12
265.22	12.12
265.436	40.79
265.652	44.88
265.868	81.75
266.084	48.98
266.3	32.6
266.516	55.12
266.732	-8.36
266.948	8.02
267.164	34.64
267.38	5.97
267.596	53.08
267.812	30.55
268.028	12.12
268.244	-30.89
268.46	-0.17
268.676	-24.75
268.892	1.88
269.108	26.45
269.324	28.5
269.54	1.88
269.756	-24.75
269.972	-18.6
270.188	14.17
270.403	3.93
270.619	-45.23
270.835	-18.6
271.051	1.88
271.267	71.51
271.483	1.88
271.698	36.69
271.914	-32.94
272.13	44.88
272.346	51.03
272.562	63.32
272.777	89.94
272.993	-2.22
273.209	8.02
273.425	20.31
273.64	36.69
273.856	53.08
274.072	1.88
274.287	-6.31
274.503	-12.46
274.719	26.45
274.934	61.27
275.15	-8.36
275.366	-16.55
275.581	8.02
275.797	-10.41
276.012	53.08
276.228	53.08
276.444	34.64
276.659	36.69
276.875	-32.94
277.09	135
277.306	5.97
277.521	83.8
277.737	22.36
277.952	36.69
278.168	26.45
278.383	20.31
278.599	59.22
278.814	28.5
279.03	-39.08
279.245	38.74
279.461	16.21
279.676	34.64
279.892	40.79
280.107	10.07
280.322	-24.75
280.538	98.13
280.753	75.6
280.969	22.36
281.184	-2.22
281.399	16.21
281.615	-2.22
281.83	-4.27
282.045	57.17
282.26	26.45
282.476	89.94
282.691	28.5
282.906	-20.65
283.122	65.36
283.337	14.17
283.552	30.55
283.767	26.45
283.983	38.74
284.198	28.5
284.413	48.98
284.628	34.64
284.843	-6.31
285.058	-18.6
285.274	-0.17
285.489	48.98
285.704	-45.23
285.919	-16.55
286.134	30.55
286.349	-6.31
286.564	-6.31
286.779	42.84
286.995	118.61
287.21	-8.36
287.425	48.98
287.64	26.45
287.855	12.12
288.07	-26.79
288.285	38.74
288.5	20.31
288.715	8.02
288.93	-2.22
289.145	3.93
289.36	-24.75
289.575	42.84
289.79	36.69
290.004	-82.09
290.219	1.88
290.434	5.97
290.649	36.69
290.864	-59.56
291.079	20.31
291.294	-26.79
291.509	-16.55
291.724	26.45
291.938	94.04
292.153	16.21
292.368	-26.79
292.583	-24.75
292.798	46.93
293.012	34.64
293.227	-34.99
293.442	-47.27
293.657	40.79
293.871	57.17
294.086	-39.08
294.301	104.28
294.516	12.12
294.73	-14.51
294.945	-55.47
295.16	57.17
295.374	34.64
295.589	-28.84
295.804	32.6
296.018	-59.56
296.233	1.88
296.447	-30.89
296.662	12.12
296.877	38.74
297.091	36.69
297.306	32.6
297.52	3.93
297.735	36.69
297.949	26.45
298.164	55.12
298.378	71.51
298.593	24.4
298.807	-39.08
299.022	12.12
299.236	51.03
299.451	26.45
299.665	3.93
299.88	-57.51
300.094	71.51
300.309	34.64
300.523	-6.31
300.737	48.98
300.952	-2.22
301.166	-20.65
301.381	-12.46
301.595	-10.41
301.809	-6.31
302.024	24.4
302.238	51.03
302.452	48.98
302.667	-8.36
302.881	48.98
303.095	59.22
303.309	65.36
303.524	22.36
303.738	44.88
303.952	-30.89
304.166	12.12
304.381	-18.6
304.595	57.17
304.809	5.97
305.023	30.55
305.237	12.12
305.452	65.36
305.666	71.51
305.88	3.93
306.094	3.93
306.308	22.36
306.522	-26.79
306.736	73.56
306.95	12.12
307.164	28.5
307.379	51.03
307.593	24.4
307.807	-6.31
308.021	87.89
308.235	51.03
308.449	34.64
308.663	-39.08
308.877	10.07
309.091	24.4
309.305	-0.17
309.519	34.64
309.733	32.6
309.947	44.88
310.161	26.45
310.374	20.31
310.588	-20.65
310.802	79.7
311.016	-14.51
311.23	-18.6
311.444	32.6
311.658	-14.51
311.872	26.45
312.085	-39.08
312.299	30.55
312.513	30.55
312.727	98.13
312.941	-26.79
313.154	114.52
313.368	48.98
313.582	-4.27
313.796	46.93
314.009	3.93
314.223	-8.36
314.437	12.12
314.651	42.84
314.864	26.45
315.078	79.7
315.292	-0.17
315.505	34.64
315.719	24.4
315.933	16.21
316.146	55.12
316.36	28.5
316.573	61.27
316.787	-0.17
317.001	-22.7
317.214	20.31
317.428	65.36
317.641	65.36
317.855	-0.17
318.068	-18.6
318.282	65.36
318.495	30.55
318.709	12.12
318.922	-2.22
319.136	-2.22
319.349	106.32
319.563	83.8
319.776	-28.84
319.99	-20.65
320.203	53.08
320.417	34.64
320.63	48.98
320.843	96.08
321.057	3.93
321.27	-18.6
321.483	3.93
321.697	30.55
321.91	40.79
322.124	20.31
322.337	-0.17
322.55	40.79
322.763	-0.17
322.977	75.6
323.19	-4.27
323.403	8.02
323.617	-2.22
323.83	24.4
324.043	38.74
324.256	-6.31
324.469	34.64
324.683	42.84
324.896	-39.08
325.109	24.4
325.322	3.93
325.535	69.46
325.748	40.79
325.962	-37.03
326.175	1.88
326.388	34.64
326.601	-41.13
326.814	12.12
327.027	16.21
327.24	61.27
327.453	-32.94
327.666	32.6
327.879	-26.79
328.092	73.56
328.305	61.27
328.518	8.02
328.731	14.17
328.944	42.84
329.157	38.74
329.37	-0.17
329.583	65.36
329.796	108.37
330.009	8.02
330.222	8.02
330.435	10.07
330.648	-24.75
330.861	5.97
331.073	-8.36
331.286	53.08
331.499	65.36
331.712	8.02
331.925	42.84
332.138	16.21
332.35	65.36
332.563	12.12
332.776	10.07
332.989	36.69
333.202	-39.08
333.414	18.26
333.627	-0.17
333.84	12.12
334.053	-24.75
334.265	51.03
334.478	14.17
334.691	20.31
334.903	20.31
335.116	32.6
335.329	42.84
335.541	48.98
335.754	89.94
335.966	-34.99
336.179	106.32
336.392	94.04
336.604	-4.27
336.817	46.93
337.029	28.5
337.242	-37.03
337.454	8.02
337.667	30.55
337.88	108.37
338.092	-32.94
338.305	128.85
338.517	-20.65
338.729	67.41
338.942	98.13
339.154	-12.46
339.367	59.22
339.579	20.31
339.792	-6.31
340.004	44.88
340.217	87.89
340.429	-0.17
340.641	-14.51
340.854	8.02
341.066	-14.51
341.278	77.65
341.491	-0.17
341.703	-16.55
341.915	-16.55
342.128	24.4
342.34	53.08
342.552	28.5
342.764	36.69
342.977	51.03
343.189	-8.36
343.401	94.04
343.613	16.21
343.826	8.02
344.038	-2.22
344.25	-51.37
344.462	67.41
344.674	-6.31
344.886	75.6
345.099	-8.36
345.311	30.55
345.523	18.26
345.735	8.02
345.947	30.55
346.159	67.41
346.371	67.41
346.583	53.08
346.795	48.98
347.007	89.94
347.219	8.02
347.431	3.93
347.643	32.6
347.855	34.64
348.067	-2.22
348.279	42.84
348.491	46.93
348.703	42.84
348.915	59.22
349.127	20.31
349.339	65.36
349.551	-14.51
349.763	8.02
349.975	51.03
350.187	-16.55
350.399	12.12
350.61	-37.03
350.822	59.22
351.034	73.56
351.246	-22.7
351.458	1.88
351.669	30.55
351.881	91.99
352.093	36.69
352.305	-8.36
352.517	1.88
352.728	106.32
352.94	-32.94
353.152	75.6
353.363	42.84
353.575	16.21
353.787	36.69
353.999	-47.27
354.21	73.56
354.422	-0.17
354.633	-41.13
354.845	75.6
355.057	-8.36
355.268	30.55
355.48	130.9
355.692	51.03
355.903	22.36
356.115	61.27
356.326	-69.8
356.538	48.98
356.749	-49.32
356.961	48.98
357.172	-10.41
357.384	48.98
357.595	16.21
357.807	24.4
358.018	-20.65
358.23	10.07
358.441	46.93
358.653	38.74
358.864	-2.22
359.075	42.84
359.287	42.84
359.498	12.12
359.709	22.36
359.921	44.88
360.132	22.36
360.344	-28.84
360.555	24.4
360.766	20.31
360.977	28.5
361.189	65.36
361.4	32.6
361.611	69.46
361.823	67.41
362.034	73.56
362.245	63.32
362.456	-18.6
362.667	-30.89
362.879	34.64
363.09	38.74
363.301	94.04
363.512	26.45
363.723	10.07
363.935	18.26
364.146	8.02
364.357	65.36
364.568	-20.65
364.779	14.17
364.99	10.07
365.201	63.32
365.412	12.12
365.623	65.36
365.834	1.88
366.045	26.45
366.256	63.32
366.467	44.88
366.678	87.89
366.889	-26.79
367.1	-12.46
367.311	-24.75
367.522	22.36
367.733	48.98
367.944	89.94
368.155	61.27
368.366	-10.41
368.577	38.74
368.788	16.21
368.999	-12.46
369.209	67.41
369.42	1.88
369.631	-24.75
369.842	14.17
370.053	5.97
370.264	48.98
370.474	73.56
370.685	14.17
370.896	42.84
371.107	36.69
371.317	16.21
371.528	24.4
371.739	65.36
371.95	42.84
372.16	96.08
372.371	65.36
372.582	42.84
372.792	28.5
373.003	118.61
373.214	-0.17
373.424	53.08
373.635	44.88
373.846	81.75
374.056	46.93
374.267	110.42
374.477	-0.17
374.688	38.74
374.898	57.17
375.109	-20.65
375.319	-24.75
375.53	118.61
375.74	26.45
375.951	18.26
376.161	-8.36
376.372	65.36
376.582	-12.46
376.793	143.19
377.003	53.08
377.214	59.22
377.424	53.08
377.635	75.6
377.845	8.02
378.055	-4.27
378.266	71.51
378.476	32.6
378.686	63.32
378.897	8.02
379.107	71.51
379.317	28.5
379.528	51.03
379.738	-6.31
379.948	3.93
380.158	-0.17
380.369	3.93
380.579	59.22
380.789	-8.36
380.999	16.21
381.21	57.17
381.42	28.5
381.63	-67.75
381.84	5.97
382.05	-26.79
382.261	104.28
382.471	-26.79
382.681	61.27
382.891	81.75
383.101	73.56
383.311	10.07
383.521	34.64
383.731	10.07
383.941	59.22
384.151	-20.65
384.361	24.4
384.571	10.07
384.781	48.98
384.991	98.13
385.201	32.6
385.411	28.5
385.621	-8.36
385.831	34.64
386.041	116.56
386.251	-47.27
386.461	40.79
386.671	63.32
386.881	30.55
387.091	3.93
387.301	55.12
387.511	32.6
387.72	44.88
387.93	61.27
388.14	81.75
388.35	42.84
388.56	32.6
388.769	-37.03
388.979	1.88
389.189	-37.03
389.399	89.94
389.609	106.32
389.818	40.79
390.028	28.5
390.238	48.98
390.447	-39.08
390.657	26.45
390.867	28.5
391.076	5.97
391.286	18.26
391.496	8.02
391.705	51.03
391.915	40.79
392.125	40.79
392.334	32.6
392.544	32.6
392.753	67.41
392.963	-10.41
393.172	8.02
393.382	26.45
393.591	163.67
393.801	34.64
394.01	130.9
394.22	71.51
394.429	44.88
394.639	46.93
394.848	38.74
395.058	67.41
395.267	-18.6
395.477	12.12
395.686	81.75
395.895	-22.7
396.105	32.6
396.314	87.89
396.524	75.6
396.733	61.27
396.942	65.36
397.152	46.93
397.361	30.55
397.57	10.07
397.78	-16.55
397.989	75.6
398.198	67.41
398.407	-2.22
398.617	69.46
398.826	32.6
399.035	65.36
399.244	89.94
399.453	-0.17
399.663	8.02
399.872	-24.75
400.081	46.93
400.29	32.6
400.499	-26.79
400.708	26.45
400.917	18.26
401.127	26.45
401.336	-8.36
401.545	91.99
401.754	65.36
401.963	53.08
402.172	10.07
402.381	102.23
402.59	48.98
402.799	32.6
403.008	67.41
403.217	10.07
403.426	77.65
403.635	48.98
403.844	-22.7
404.053	-2.22
404.262	48.98
404.471	38.74
404.68	96.08
404.888	40.79
405.097	73.56
405.306	32.6
405.515	73.56
405.724	28.5
405.933	94.04
406.142	130.9
406.35	94.04
406.559	69.46
406.768	26.45
406.977	73.56
407.185	63.32
407.394	69.46
407.603	59.22
407.812	94.04
408.02	87.89
408.229	75.6
408.438	81.75
408.646	40.79
408.855	98.13
409.064	46.93
409.272	104.28
409.481	79.7
409.69	157.52
409.898	53.08
410.107	79.7
410.315	73.56
410.524	14.17
410.733	147.28
410.941	65.36
411.15	63.32
411.358	104.28
411.567	110.42
411.775	128.85
411.984	151.38
412.192	218.96
412.401	114.52
412.609	132.95
412.818	186.19
413.026	120.66
413.234	120.66
413.443	190.29
413.651	161.62
413.86	100.18
414.068	212.82
414.276	225.11
414.485	124.76
414.693	155.47
414.901	184.15
415.11	167.76
415.318	94.04
415.526	157.52
415.734	135
415.943	190.29
416.151	216.91
416.359	169.81
416.567	214.87
416.776	194.39
416.984	270.16
417.192	253.78
417.4	212.82
417.608	245.59
417.817	292.69
418.025	257.87
418.233	247.63
418.441	276.31
418.649	280.4
418.857	372.56
419.065	356.18
419.273	284.5
419.481	360.27
419.689	331.6
419.897	399.18
420.105	388.94
420.313	352.08
420.521	413.52
420.729	470.86
420.937	448.33
421.145	479.05
421.353	417.61
421.561	460.62
421.769	440.14
421.977	513.87
422.185	472.91
422.393	573.26
422.601	546.64
422.809	655.18
423.017	460.62
423.224	612.17
423.432	573.26
423.64	534.35
423.848	726.86
424.056	761.67
424.263	685.9
424.471	638.8
424.679	720.71
424.887	722.76
425.094	747.34
425.302	778.06
425.51	718.67
425.718	874.31
425.925	804.68
426.133	855.88
426.341	915.27
426.548	931.66
426.756	902.98
426.964	890.7
427.171	862.02
427.379	1005.38
427.586	1050.44
427.794	1161.03
428.001	1113.92
428.209	1126.21
428.417	1077.06
428.624	1236.8
428.832	1255.23
429.039	1216.32
429.247	1320.77
429.454	1304.39
429.662	1408.83
429.869	1363.78
430.076	1390.4
430.284	1380.16
430.491	1388.35
430.699	1642.3
430.906	1564.48
431.114	1638.2
431.321	1642.3
431.528	1646.4
431.736	1701.69
431.943	1799.99
432.15	1724.22
432.358	1673.02
432.565	1859.38
432.772	1797.95
432.979	2035.51
433.187	2023.22
433.394	2060.09
433.601	2203.44
433.808	2084.66
434.016	2115.38
434.223	2193.2
434.43	2383.66
434.637	2225.97
434.844	2496.3
435.052	2545.45
435.259	2445.1
435.466	2531.12
435.673	2629.42
435.88	2823.98
436.087	2699.05
436.294	2832.17
436.501	2748.2
436.708	2746.16
436.915	2981.67
437.122	2987.82
437.329	2983.72
437.537	3170.08
437.743	2987.82
437.95	3079.97
438.157	3278.63
438.364	3309.35
438.571	3489.57
438.778	3530.53
438.985	3694.36
439.192	3493.66
439.399	3563.29
439.606	3641.12
439.813	3841.82
440.02	3931.93
440.227	4124.44
440.433	4048.66
440.64	4030.23
440.847	3989.27
441.054	4157.21
441.261	4362
441.467	4327.19
441.674	4488.98
441.881	4556.56
442.088	4534.03
442.294	4669.2
442.501	4628.24
442.708	4790.03
442.914	4998.92
443.121	5342.98
443.328	4908.81
443.534	5467.91
443.741	5164.81
443.948	5216.01
444.154	5785.34
444.361	5609.22
444.568	5596.93
444.774	5615.36
444.981	5644.03
445.187	5697.28
445.394	6072.06
445.6	5883.64
445.807	6653.68
446.013	6428.4
446.22	6469.36
446.426	6582
446.633	6770.41
446.839	6999.79
447.046	6733.55
447.252	6993.64
447.459	7063.27
447.665	7065.32
447.871	7425.76
448.078	7855.84
448.284	7489.25
448.491	7601.89
448.697	7909.08
448.903	8085.21
449.11	8081.11
449.316	7730.91
449.522	8146.65
449.728	8218.33
449.935	8175.32
450.141	8341.21
450.347	8515.28
450.553	8398.55
450.76	8453.84
450.966	8683.22
451.172	8480.47
451.378	8785.62
451.584	8591.06
451.791	9019.08
451.997	8861.39
452.203	9162.44
452.409	9006.8
452.615	8926.93
452.821	8769.23
453.027	8478.42
453.233	9017.04
453.44	8707.79
453.646	8781.52
453.852	8855.25
454.058	8912.59
454.264	8625.87
454.47	8836.81
454.676	8722.13
454.882	8967.88
455.088	8201.94
455.294	8408.79
455.5	8416.98
455.705	8494.8
455.911	8128.22
456.117	8150.74
456.323	7767.77
456.529	7454.44
456.735	7927.52
456.941	7845.6
457.147	7560.93
457.352	7276.26
457.558	7114.47
457.764	7175.91
457.97	6999.79
458.176	7020.27
458.381	7012.07
458.587	6514.42
458.793	6741.74
458.999	6342.39
459.204	6684.4
459.41	6528.75
459.616	5938.94
459.821	6149.88
460.027	6002.43
460.233	5934.84
460.438	5766.91
460.644	5756.67
460.85	5472
461.055	5242.63
461.261	5361.41
461.466	4890.38
461.672	4663.05
461.878	5240.58
462.083	4800.27
462.289	4777.74
462.494	4654.86
462.7	4577.04
462.905	4362
463.111	4493.07
463.316	4562.7
463.522	4548.37
463.727	4509.46
463.932	4349.71
464.138	4464.4
464.343	4419.35
464.549	4351.76
464.754	4509.46
464.959	4376.34
465.165	4507.41
465.37	4222.74
465.575	4167.45
465.781	4351.76
465.986	4327.19
466.191	4112.15
466.397	4077.34
466.602	3933.98
466.807	4173.59
467.012	4005.66
467.218	3962.65
467.423	3778.33
467.628	3981.08
467.833	4212.5
468.038	3919.64
468.244	3917.59
468.449	3993.37
468.654	3829.53
468.859	3864.35
469.064	3841.82
469.269	3692.32
469.474	3694.36
469.679	3905.31
469.885	3526.43
470.09	3774.24
470.295	3794.72
470.5	3534.62
470.705	3559.2
470.91	3548.96
471.115	3510.05
471.32	3673.89
471.525	3540.77
471.73	3585.82
471.935	3421.99
472.139	3274.53
472.344	3350.31
472.549	3469.09
472.754	3247.91
472.959	3227.43
473.164	3192.61
473.369	3104.55
473.574	3321.63
473.778	3368.74
473.983	3297.06
474.188	3194.66
474.393	3147.56
474.598	3104.55
474.802	3022.63
475.007	3120.93
475.212	2989.86
475.417	2981.67
475.621	2871.08
475.826	2899.75
476.031	2909.99
476.235	2789.16
476.44	2871.08
476.645	2813.74
476.849	2686.76
477.054	2957.1
477.259	2885.42
477.463	2758.44
477.668	2660.14
477.872	2764.59
478.077	2694.96
478.282	2570.03
478.486	2672.43
478.691	2602.8
478.895	2582.32
479.1	2619.18
479.304	2586.41
479.509	2549.55
479.713	2621.23
479.918	2514.73
480.122	2428.72
480.326	2463.54
480.531	2484.02
480.735	2481.97
480.94	2410.29
481.144	2469.68
481.348	2449.2
481.553	2324.27
481.757	2406.19
481.961	2477.87
482.166	2479.92
482.37	2291.51
482.574	2445.1
482.778	2428.72
482.983	2367.28
483.187	2363.19
483.391	2500.4
483.595	2449.2
483.8	2346.8
484.004	2565.93
484.208	2479.92
484.412	2400.05
484.616	2436.91
484.821	2402.1
485.025	2424.62
485.229	2330.42
485.433	2529.07
485.637	2453.3
485.841	2406.19
486.045	2357.04
486.249	2414.38
486.453	2303.79
486.657	2477.87
486.861	2535.21
487.065	2346.8
487.269	2393.9
487.473	2389.81
487.677	2514.73
487.881	2451.25
488.085	2432.82
488.289	2385.71
488.493	2465.58
488.697	2428.72
488.901	2436.91
489.105	2371.38
489.309	2436.91
489.512	2533.17
489.716	2508.59
489.92	2506.54
490.124	2404.14
490.328	2576.17
490.531	2520.88
490.735	2539.31
490.939	2555.69
491.143	2524.97
491.346	2443.06
491.55	2619.18
491.754	2481.97
491.958	2567.98
492.161	2506.54
492.365	2637.61
492.569	2559.79
492.772	2637.61
492.976	2699.05
493.18	2662.19
493.383	2690.86
493.587	2699.05
493.79	2670.38
493.994	2670.38
494.197	2789.16
494.401	2942.76
494.605	2662.19
494.808	2807.59
495.012	2866.99
495.215	2946.86
495.419	2885.42
495.622	2838.31
495.825	2887.47
496.029	2907.94
496.232	2983.72
496.436	2991.91
496.639	3057.45
496.843	2983.72
497.046	3063.59
497.249	3098.41
497.453	3163.94
497.656	3151.65
497.859	3106.6
498.063	3280.68
498.266	3364.64
498.469	3383.07
498.673	3405.6
498.876	3426.08
499.079	3481.38
499.282	3376.93
499.485	3518.24
499.689	3374.88
499.892	3630.88
500.095	3551.01
500.298	3610.4
500.501	3622.69
500.705	3653.41
500.908	3817.24
501.111	3854.11
501.314	3921.69
501.517	3987.22
501.72	4122.39
501.923	4065.05
502.126	4099.86
502.329	4187.93
502.532	4159.25
502.735	4243.22
502.938	4396.82
503.141	4398.87
503.344	4486.93
503.547	4601.62
503.75	4482.83
503.953	4640.53
504.156	4716.3
504.359	4732.69
504.562	4898.57
504.765	4910.86
504.968	4873.99
505.17	5017.35
505.373	4974.35
505.576	5052.17
505.779	5000.97
505.982	5259.01
506.185	5342.98
506.387	5273.35
506.59	5299.97
506.793	5629.7
506.996	5517.06
507.198	5689.09
507.401	5746.43
507.604	5873.4
507.807	5897.98
508.009	5801.72
508.212	5936.89
508.415	5918.46
508.617	6063.86
508.82	6121.21
509.022	6209.27
509.225	6467.31
509.428	6407.92
509.63	6432.5
509.833	6491.89
510.035	6690.54
510.238	6829.81
510.44	6799.09
510.643	6950.64
510.845	6915.82
511.048	7032.55
511.25	7147.24
511.453	7042.79
511.655	7460.58
511.858	7313.13
512.06	7374.56
512.262	7452.39
512.465	7499.49
512.667	7642.85
512.87	7681.76
513.072	7778.01
513.274	8079.07
513.477	8371.93
513.679	8240.86
513.881	8271.58
514.084	8390.36
514.286	8089.31
514.488	8316.63
514.69	8496.85
514.893	8675.02
515.095	8765.14
515.297	9004.75
515.499	9076.43
515.701	9017.04
515.904	9066.19
516.106	9240.26
516.308	9340.61
516.51	9492.16
516.712	9381.57
516.914	9787.07
517.116	9748.16
517.318	9903.81
517.52	9653.95
517.722	9918.14
517.925	10215.1
518.127	10055.36
518.329	10297.02
518.531	10340.02
518.733	10489.53
518.935	10749.62
519.136	10768.05
519.338	10833.58
519.54	10817.2
519.742	11101.87
519.944	11089.58
520.146	11286.19
520.348	11425.45
520.55	11155.12
520.752	11450.02
520.954	11736.74
521.155	11566.76
521.357	11968.16
521.559	12101.28
521.761	12093.08
521.963	12045.98
522.164	12224.15
522.366	12320.41
522.568	12426.9
522.77	12398.23
522.971	12697.24
523.173	12652.18
523.375	12902.03
523.576	12699.28
523.778	12887.7
523.98	13018.77
524.181	13262.47
524.383	13358.73
524.584	13596.29
524.786	13223.56
524.988	13416.07
525.189	13588.1
525.391	13651.59
525.592	13665.92
525.794	13862.53
525.995	13565.57
526.197	14071.42
526.398	13833.86
526.6	14052.99
526.801	14216.83
527.003	14157.44
527.204	13995.65
527.406	14343.8
527.607	14194.3
527.808	14610.04
528.01	14173.82
528.211	14433.91
528.412	14794.36
528.614	14634.61
528.815	14614.13
529.016	14724.72
529.218	14722.68
529.419	14698.1
529.62	14687.86
529.822	14593.65
530.023	15019.63
530.224	14798.45
530.425	14812.79
530.626	15056.5
530.828	14993.01
531.029	15033.97
531.23	15109.74
531.431	14888.56
531.632	15187.57
531.833	15240.81
532.035	15138.41
532.236	15056.5
532.437	15191.66
532.638	15249
532.839	15042.16
533.04	15001.2
533.241	15044.21
533.442	15591.02
533.643	15283.82
533.844	15165.04
534.045	15427.18
534.246	15353.45
534.447	15287.92
534.648	15394.41
534.849	15406.7
535.05	15466.09
535.251	15308.4
535.451	15175.28
535.652	15275.63
535.853	15249
536.054	15576.68
536.255	15271.53
536.456	15257.2
536.657	15529.58
536.857	15427.18
537.058	15394.41
537.259	15515.24
537.46	15476.33
537.66	15206
537.861	15431.27
538.062	15480.43
538.263	15558.25
538.463	15492.71
538.664	15437.42
538.865	15459.95
539.065	15392.36
539.266	15203.95
539.466	15599.21
539.667	15433.32
539.868	15593.06
540.068	15367.79
540.269	15300.2
540.469	15601.26
540.67	15306.35
540.87	15404.65
541.071	15574.63
541.271	15253.1
541.472	15455.85
541.672	15382.12
541.873	15308.4
542.073	14976.62
542.274	15515.24
542.474	15584.87
542.675	15253.1
542.875	15560.3
543.075	15466.09
543.276	15097.45
543.476	15691.37
543.676	15251.05
543.877	15468.14
544.077	15453.8
544.277	15199.85
544.478	15316.59
544.678	15629.93
544.878	15287.92
545.078	15443.56
545.279	15214.19
545.479	15410.79
545.679	15289.96
545.879	15234.67
546.079	15548.01
546.28	15255.15
546.48	15316.59
546.68	15404.65
546.88	15367.79
547.08	15515.24
547.28	15287.92
547.48	15175.28
547.68	15470.19
547.88	15042.16
548.081	15324.78
548.281	15199.85
548.481	15238.76
548.681	15384.17
548.881	15441.51
549.081	15275.63
549.28	15152.75
549.48	15586.92
549.68	15246.96
549.88	15414.89
550.08	15083.12
550.28	15343.21
550.48	15304.3
550.68	15351.4
550.88	15359.59
551.08	15265.39
551.279	15304.3
551.479	15062.64
551.679	15236.72
551.879	15224.43
552.079	15517.29
552.278	15191.66
552.478	15289.96
552.678	15310.44
552.878	15201.9
553.077	15136.37
553.277	15191.66
553.477	15523.43
553.676	14927.47
553.876	15054.45
554.076	15099.5
554.275	15322.73
554.475	15019.63
554.674	15050.35
554.874	15240.81
555.074	15255.15
555.273	15156.85
555.473	15388.27
555.672	15058.54
555.872	15038.06
556.071	15042.16
556.271	15105.65
556.47	15220.33
556.67	14923.38
556.869	14898.8
557.068	14982.77
557.268	14782.07
557.467	14943.86
557.667	14845.55
557.866	15029.87
558.065	14722.68
558.265	14906.99
558.464	14683.77
558.663	14837.36
558.863	14808.69
559.062	14997.1
559.261	15015.54
559.461	14714.48
559.66	14845.55
559.859	14972.53
560.058	14767.73
560.258	14724.72
560.457	14630.52
560.656	14528.12
560.855	14734.96
561.054	14407.29
561.253	14464.63
561.453	14345.85
561.652	14610.04
561.851	14526.07
562.05	14605.94
562.249	14349.95
562.448	14560.89
562.647	14526.07
562.846	14409.34
563.045	14519.93
563.244	14288.51
563.443	14493.3
563.642	14243.45
563.841	14179.96
564.04	14315.13
564.239	14343.8
564.438	14036.61
564.637	14073.47
564.836	14186.11
565.035	14163.58
565.234	14163.58
565.432	14167.68
565.631	13993.6
565.83	14118.53
566.029	13788.8
566.228	14073.47
566.427	13842.05
566.625	13620.87
566.824	13631.11
567.023	13663.88
567.222	13487.75
567.42	13811.33
567.619	13555.33
567.818	13565.57
568.016	13522.57
568.215	13739.65
568.414	13612.68
568.612	13489.8
568.811	13364.87
569.01	13592.2
569.208	13268.62
569.407	13360.78
569.605	13221.52
569.804	13096.59
570.002	13289.1
570.201	13266.57
570.4	13137.55
570.598	13239.95
570.797	13055.63
570.995	13260.43
571.193	13033.1
571.392	12990.1
571.59	12740.24
571.789	13135.5
571.987	12914.32
572.186	12768.91
572.384	12775.06
572.582	12787.35
572.781	12811.92
572.979	12715.67
573.177	12525.21
573.376	12603.03
573.574	12572.31
573.772	12514.97
573.971	12627.6
574.169	12646.04
574.367	12441.24
574.565	12492.44
574.763	12447.38
574.962	12377.75
575.16	12381.85
575.358	12271.26
575.556	12205.72
575.754	12355.22
575.952	12179.1
576.151	12281.5
576.349	11929.25
576.547	12076.7
576.745	12084.89
576.943	11990.69
577.141	12093.08
577.339	12082.84
577.537	11968.16
577.735	11863.71
577.933	11878.05
578.131	11808.42
578.329	11728.55
578.527	11622.05
578.725	11746.98
578.923	11536.04
579.121	11724.45
579.319	11693.73
579.516	11501.22
579.714	11568.8
579.912	11478.69
580.11	11312.81
580.308	11411.11
580.506	11507.37
580.704	11413.16
580.901	11591.33
581.099	11382.44
581.297	11239.08
581.495	11224.75
581.692	11095.72
581.89	11112.11
582.088	11151.02
582.285	11026.09
582.483	11232.94
582.681	11151.02
582.878	11026.09
583.076	11140.78
583.274	11099.82
583.471	10888.88
583.669	10761.91
583.866	10725.04
584.064	10837.68
584.262	10647.22
584.459	10790.58
584.657	10669.75
584.854	10890.93
585.052	10567.35
585.249	10661.55
585.447	10702.51
585.644	10462.9
585.841	10485.43
586.039	10649.27
586.236	10450.61
586.434	10327.74
586.631	10387.13
586.828	10380.98
587.026	10530.48
587.223	10401.46
587.42	10299.06
587.618	10268.34
587.815	10249.91
588.012	10129.08
588.21	10053.31
588.407	10102.46
588.604	10053.31
588.801	9901.76
588.999	9969.34
589.196	9981.63
589.393	10077.88
589.59	9969.34
589.787	9909.95
589.984	9776.83
590.182	9852.61
590.379	9811.65
590.576	9699.01
590.773	9854.65
590.97	9772.74
591.167	9930.43
591.364	9678.53
591.561	9674.43
591.758	9590.47
591.955	9508.55
592.152	9719.49
592.349	9486.02
592.546	9606.85
592.743	9557.7
592.94	9240.26
593.137	9438.92
593.334	9443.01
593.531	9451.21
593.727	9363.14
593.924	9371.33
594.121	9279.18
594.318	9283.27
594.515	9244.36
594.712	9320.14
594.908	9166.54
595.105	9234.12
595.302	9111.24
595.499	9092.81
595.696	9068.23
595.892	8953.55
596.089	9125.58
596.286	9146.06
596.482	9101
596.679	9072.33
596.876	8982.22
597.072	8974.03
597.269	8875.73
597.466	8967.88
597.662	8928.97
597.859	8683.22
598.055	8693.46
598.252	8482.52
598.448	8699.6
598.645	8701.65
598.841	8515.28
599.038	8503
599.234	8662.74
599.431	8486.61
599.627	8597.2
599.824	8648.4
600.02	8580.82
600.217	8507.09
600.413	8552.15
600.609	8406.74
600.806	8144.6
601.002	8392.41
601.198	8277.72
601.395	8197.85
601.591	8228.57
601.787	8216.28
601.984	8259.29
602.18	8230.62
602.376	8253.14
602.572	8052.44
602.769	8052.44
602.965	8064.73
603.161	8183.51
603.357	8050.39
603.553	7997.15
603.75	8093.4
603.946	7964.38
604.142	7870.17
604.338	7692
604.534	7839.45
604.73	7939.8
604.926	7816.93
605.122	7732.96
605.318	7800.54
605.514	7800.54
605.71	7894.75
605.906	7620.32
606.102	7655.14
606.298	7577.31
606.494	7716.58
606.69	7618.27
606.886	7507.68
607.082	7642.85
607.278	7519.97
607.474	7360.23
607.67	7603.94
607.866	7513.83
608.062	7536.35
608.257	7466.72
608.453	7433.96
608.649	7390.95
608.845	7489.25
609.041	7470.82
609.236	7296.74
609.432	7423.72
609.628	7370.47
609.824	7292.65
610.019	7274.21
610.215	7364.32
610.411	7237.35
610.606	7257.83
610.802	7151.34
610.998	7276.26
611.193	7249.64
611.389	7003.88
611.584	6954.73
611.78	6950.64
611.976	7050.99
612.171	6887.15
612.367	6887.15
612.562	6934.25
612.758	6954.73
612.953	6913.77
613.149	6823.66
613.344	6942.44
613.539	7091.95
613.735	6973.16
613.93	6913.77
614.126	6901.48
614.321	6971.11
614.517	6876.91
614.712	6932.2
614.907	6840.04
615.103	6971.11
615.298	6739.69
615.493	6876.91
615.688	6635.25
615.884	6928.11
616.079	6846.19
616.274	6723.31
616.47	6706.93
616.665	6670.06
616.86	6608.62
617.055	6645.49
617.25	6711.02
617.445	6721.26
617.641	6522.61
617.836	6504.18
618.031	6358.77
618.226	6510.32
618.421	6459.12
618.616	6684.4
618.811	6350.58
619.006	6571.76
619.201	6139.64
619.396	6409.97
619.591	6278.9
619.786	6420.21
619.981	6278.9
620.176	6209.27
620.371	6287.09
620.566	6233.85
620.761	6221.56
620.956	6270.71
621.151	6153.98
621.346	6289.14
621.541	6110.97
621.735	6131.45
621.93	5934.84
622.125	5977.85
622.32	5947.13
622.515	6008.57
622.709	5924.6
622.904	6004.47
623.099	5775.1
623.294	5799.68
623.488	5637.89
623.683	5779.2
623.878	5533.44
624.072	5703.42
624.267	5775.1
624.462	5562.11
624.656	5576.45
624.851	5533.44
625.046	5412.61
625.24	5566.21
625.435	5414.66
625.629	5488.39
625.824	5486.34
626.018	5420.8
626.213	5351.17
626.407	5316.36
626.602	5234.44
626.796	5322.5
626.991	5447.43
627.185	5136.13
627.38	5209.86
627.574	5091.08
627.768	5117.7
627.963	5119.75
628.157	5029.64
628.352	5043.98
628.546	4957.96
628.74	5054.22
628.935	5009.16
629.129	4871.95
629.323	4871.95
629.517	4808.46
629.712	4708.11
629.906	4859.66
630.1	4906.76
630.294	4685.58
630.489	4714.25
630.683	4779.79
630.877	4736.78
631.071	4597.52
631.265	4685.58
631.459	4589.33
631.653	4618
631.848	4499.22
632.042	4531.98
632.236	4499.22
632.43	4454.16
632.624	4491.02
632.818	4431.63
633.012	4411.15
633.206	4378.39
633.4	4507.41
633.594	4353.81
633.788	4341.52
633.982	4308.76
634.176	4298.52
634.369	4194.07
634.563	4181.78
634.757	4243.22
634.951	4192.02
635.145	4187.93
635.339	4206.36
635.533	4110.1
635.726	4230.93
635.92	4083.48
636.114	4228.88
636.308	4075.29
636.501	4040.47
636.695	4050.71
636.889	3974.94
637.083	3972.89
637.276	3999.51
637.47	3976.98
637.664	3884.83
637.857	3882.78
638.051	3845.91
638.244	3860.25
638.438	3858.2
638.632	3794.72
638.825	3651.36
639.019	3792.67
639.212	3831.58
639.406	3575.58
639.599	3639.07
639.793	3559.2
639.986	3526.43
640.18	3579.68
640.373	3583.77
640.567	3673.89
640.76	3589.92
640.954	3505.95
641.147	3491.62
641.34	3448.61
641.534	3516.19
641.727	3493.66
641.92	3444.51
642.114	3409.7
642.307	3493.66
642.5	3383.07
642.694	3303.2
642.887	3321.63
643.08	3446.56
643.273	3157.8
643.467	3243.81
643.66	3264.29
643.853	3202.85
644.046	3182.37
644.239	3086.12
644.432	3209
644.626	3129.13
644.819	3182.37
645.012	3200.8
645.205	2981.67
645.398	3045.16
645.591	3006.25
645.784	3063.59
645.977	2891.56
646.17	3102.5
646.363	2965.29
646.556	2975.53
646.749	3034.92
646.942	2832.17
647.135	2850.6
647.328	2909.99
647.521	2797.35
647.714	2729.77
647.907	2766.64
648.099	2750.25
648.292	2778.92
648.485	2783.02
648.678	2623.28
648.871	2840.36
649.064	2742.06
649.256	2768.68
649.449	2713.39
649.642	2561.84
649.835	2629.42
650.027	2707.24
650.22	2582.32
650.413	2719.53
650.605	2682.67
650.798	2555.69
650.991	2619.18
651.183	2443.06
651.376	2512.69
651.568	2551.6
651.761	2541.36
651.954	2445.1
652.146	2518.83
652.339	2533.17
652.531	2357.04
652.724	2516.78
652.916	2402.1
653.109	2416.43
653.301	2402.1
653.494	2408.24
653.686	2379.57
653.879	2336.56
654.071	2447.15
654.263	2453.3
654.456	2363.19
654.648	2363.19
654.84	2221.88
655.033	2273.07
655.225	2273.07
655.417	2219.83
655.61	2285.36
655.802	2197.3
655.994	2135.86
656.186	2166.58
656.379	2221.88
656.571	2131.76
656.763	2123.57
656.955	2123.57
657.148	2119.48
657.34	2166.58
657.532	2019.13
657.724	2178.87
657.916	2125.62
658.108	1972.02
658.3	2049.85
658.492	2000.69
658.684	2076.47
658.876	1994.55
659.068	2199.35
659.26	1926.97
659.452	2025.27
659.644	1974.07
659.836	1953.59
660.028	1935.16
660.22	1912.63
660.412	1906.49
660.604	1982.26
660.796	1826.62
660.988	1918.78
661.18	1795.9
661.372	1843
661.563	1892.15
661.755	1859.38
661.947	1910.58
662.139	1793.85
662.331	1879.86
662.522	1802.04
662.714	1816.38
662.906	1681.21
663.097	1752.89
663.289	1695.55
663.481	1720.12
663.673	1728.31
663.864	1738.55
664.056	1728.31
664.247	1613.63
664.439	1693.5
664.631	1677.12
664.822	1730.36
665.014	1709.88
665.205	1691.45
665.397	1703.74
665.588	1638.2
665.78	1623.87
665.971	1664.83
666.163	1462.08
666.354	1642.3
666.546	1560.38
666.737	1466.17
666.929	1662.78
667.12	1652.54
667.311	1623.87
667.503	1621.82
667.694	1625.92
667.885	1584.96
668.077	1462.08
668.268	1625.92
668.459	1533.76
668.651	1546.05
668.842	1464.13
669.033	1523.52
669.224	1382.21
669.416	1582.91
669.607	1498.94
669.798	1433.41
669.989	1414.98
670.18	1490.75
670.371	1376.06
670.563	1455.94
670.754	1429.31
670.945	1394.5
671.136	1386.3
671.327	1374.02
671.518	1406.78
671.709	1410.88
671.9	1429.31
672.091	1345.34
672.282	1464.13
672.473	1460.03
672.664	1292.1
672.855	1357.63
673.046	1414.98
673.237	1433.41
673.428	1328.96
673.619	1433.41
673.809	1314.63
674	1345.34
674.191	1394.5
674.382	1474.37
674.573	1328.96
674.764	1421.12
674.954	1460.03
675.145	1257.28
675.336	1298.24
675.527	1331.01
675.717	1423.17
675.908	1384.26
676.099	1369.92
676.289	1464.13
676.48	1257.28
676.671	1304.39
676.861	1388.35
677.052	1197.89
677.243	1191.75
677.433	1281.86
677.624	1363.78
677.814	1249.09
678.005	1218.37
678.195	1320.77
678.386	1283.91
678.576	1285.95
678.767	1345.34
678.957	1298.24
679.148	1314.63
679.338	1285.95
679.529	1197.89
679.719	1222.47
679.909	1310.53
680.1	1414.98
680.29	1210.18
680.481	1294.15
680.671	1386.3
680.861	1277.76
681.052	1376.06
681.242	1265.47
681.432	1294.15
681.622	1312.58
681.813	1376.06
682.003	1294.15
682.193	1257.28
682.383	1269.57
682.573	1132.36
682.764	1212.23
682.954	1365.82
683.144	1263.43
683.334	1263.43
683.524	1269.57
683.714	1234.75
683.904	1255.23
684.094	1197.89
684.284	1277.76
684.474	1265.47
684.664	1337.15
684.854	1244.99
685.044	1369.92
685.234	1193.8
685.424	1443.65
685.614	1242.95
685.804	1353.54
685.994	1210.18
686.184	1222.47
686.374	1367.87
686.564	1240.9
686.753	1261.38
686.943	1175.36
687.133	1220.42
687.323	1251.14
687.513	1265.47
687.702	1163.08
687.892	1220.42
688.082	1249.09
688.272	1154.88
688.461	1220.42
688.651	1204.03
688.841	1228.61
689.03	1247.04
689.22	1247.04
689.41	1279.81
689.599	1263.43
689.789	1244.99
689.979	1214.27
690.168	1226.56
690.358	1251.14
690.547	1244.99
690.737	1294.15
690.926	1228.61
691.116	1253.19
691.305	1212.23
691.495	1206.08
691.684	1302.34
691.874	1204.03
692.063	1208.13
692.252	1204.03
692.442	1189.7
692.631	1175.36
692.82	1183.56
693.01	1236.8
693.199	1134.4
693.388	1093.44
693.578	1187.65
693.767	1111.88
693.956	1136.45
694.146	1101.64
694.335	1146.69
694.524	1169.22
694.713	1281.86
694.902	1122.12
695.092	1320.77
695.281	1187.65
695.47	1165.12
695.659	1228.61
695.848	1091.4
696.037	1150.79
696.226	1185.6
696.415	1163.08
696.604	1238.85
696.793	1097.54
696.982	1179.46
697.171	1161.03
697.36	1163.08
697.549	1238.85
697.738	1181.51
697.927	1244.99
698.116	1122.12
698.305	1212.23
698.494	1193.8
698.683	1097.54
698.872	1148.74
699.061	1249.09
699.25	1240.9
699.438	1154.88
699.627	1210.18
699.816	1283.91
700.005	1226.56
700.193	1140.55
700.382	1146.69
700.571	1072.96
700.76	1212.23
700.948	1173.32
701.137	1163.08
701.326	1109.83
701.514	1238.85
701.703	1167.17
701.892	1126.21
702.08	1158.98
702.269	1249.09
702.457	1138.5
702.646	1136.45
702.834	1140.55
703.023	1124.16
703.212	1087.3
703.4	1079.11
703.589	1089.35
703.777	1179.46
703.965	1154.88
704.154	1058.63
704.342	1089.35
704.531	1052.49
704.719	1120.07
704.907	1138.5
705.096	1161.03
705.284	1099.59
705.472	1093.44
705.661	1152.84
705.849	1158.98
706.037	1113.92
706.226	1113.92
706.414	1138.5
706.602	1062.73
706.79	1075.01
706.979	1173.32
707.167	1077.06
707.355	1044.29
707.543	1015.62
707.731	1083.2
707.919	1050.44
708.107	1118.02
708.296	984.9
708.484	1056.58
708.672	1050.44
708.86	1066.82
709.048	1040.2
709.236	1068.87
709.424	1156.93
709.612	1130.31
709.8	995.14
709.988	1050.44
710.176	1040.2
710.364	1021.77
710.551	1048.39
710.739	958.28
710.927	1058.63
711.115	1027.91
711.303	1005.38
711.491	1077.06
711.679	960.33
711.866	1070.92
712.054	1046.34
712.242	1089.35
712.43	1005.38
712.617	1044.29
712.805	1007.43
712.993	1023.81
713.181	939.85
713.368	1107.78
713.556	1085.25
713.744	1009.48
713.931	888.65
714.119	980.81
714.306	1032.01
714.494	950.09
714.682	1079.11
714.869	986.95
715.057	1048.39
715.244	991.05
715.432	1036.1
715.619	1040.2
715.807	962.37
715.994	911.18
716.182	1027.91
716.369	958.28
716.556	1007.43
716.744	945.99
716.931	1025.86
717.119	1034.05
717.306	1027.91
717.493	982.85
717.681	968.52
717.868	1062.73
718.055	1001.29
718.242	995.14
718.43	1038.15
718.617	1048.39
718.804	982.85
718.991	974.66
719.179	964.42
719.366	964.42
719.553	880.46
719.74	927.56
719.927	968.52
720.114	911.18
720.301	937.8
720.488	921.42
720.676	931.66
720.863	927.56
721.05	902.98
721.237	890.7
721.424	935.75
721.611	929.61
721.798	913.22
721.985	925.51
722.172	970.57
722.358	841.54
722.545	933.7
722.732	962.37
722.919	980.81
723.106	1005.38
723.293	880.46
723.48	902.98
723.667	995.14
723.853	888.65
724.04	872.26
724.227	968.52
724.414	890.7
724.6	911.18
724.787	960.33
724.974	911.18
725.161	859.98
725.347	898.89
725.534	837.45
725.72	878.41
725.907	853.83
726.094	798.54
726.28	892.74
726.467	839.5
726.653	952.13
726.84	864.07
727.027	894.79
727.213	909.13
727.4	823.11
727.586	960.33
727.773	794.44
727.959	872.26
728.145	878.41
728.332	763.72
728.518	857.93
728.705	855.88
728.891	855.88
729.077	894.79
729.264	765.77
729.45	917.32
729.636	855.88
729.823	888.65
730.009	843.59
730.195	796.49
730.382	898.89
730.568	849.74
730.754	878.41
730.94	798.54
731.126	894.79
731.313	872.26
731.499	874.31
731.685	911.18
731.871	890.7
732.057	884.55
732.243	835.4
732.429	859.98
732.615	845.64
732.801	837.45
732.987	782.15
733.173	921.42
733.359	884.55
733.545	870.22
733.731	722.76
733.917	794.44
734.103	747.34
734.289	833.35
734.475	792.39
734.661	874.31
734.847	866.12
735.033	890.7
735.219	831.3
735.404	782.15
735.59	722.76
735.776	857.93
735.962	886.6
736.148	845.64
736.333	798.54
736.519	716.62
736.705	859.98
736.89	841.54
737.076	821.06
737.262	759.63
737.447	792.39
737.633	808.78
737.819	724.81
738.004	827.21
738.19	780.11
738.375	802.63
738.561	763.72
738.747	761.67
738.932	759.63
739.118	814.92
739.303	708.43
739.489	866.12
739.674	745.29
739.859	902.98
740.045	831.3
740.23	794.44
740.416	720.71
740.601	755.53
740.786	751.43
740.972	694.09
741.157	757.58
741.342	816.97
741.528	743.24
741.713	702.28
741.898	728.91
742.084	657.23
742.269	755.53
742.454	804.68
742.639	741.19
742.824	773.96
743.01	780.11
743.195	778.06
743.38	706.38
743.565	829.26
743.75	669.52
743.935	767.82
744.12	757.58
744.305	769.87
744.49	638.8
744.675	687.95
744.86	730.95
745.045	728.91
745.23	665.42
745.415	698.19
745.6	673.61
745.785	642.89
745.97	712.52
746.155	753.48
746.34	747.34
746.525	827.21
746.71	739.15
746.895	589.64
747.079	724.81
747.264	737.1
747.449	749.39
747.634	689.99
747.819	671.56
748.003	595.79
748.188	669.52
748.373	620.36
748.557	653.13
748.742	612.17
748.927	620.36
749.111	591.69
749.296	616.27
749.481	679.75
749.665	597.84
749.85	616.27
750.034	608.08
750.219	581.45
750.404	563.02
750.588	665.42
750.773	536.4
750.957	620.36
751.141	542.54
751.326	603.98
751.51	552.78
751.695	581.45
751.879	681.8
752.064	556.88
752.248	601.93
752.432	583.5
752.617	534.35
752.801	583.5
752.985	515.92
753.17	563.02
753.354	556.88
753.538	573.26
753.722	603.98
753.907	479.05
754.091	544.59
754.275	573.26
754.459	524.11
754.643	509.77
754.828	532.3
755.012	532.3
755.196	569.16
755.38	460.62
755.564	470.86
755.748	452.43
755.932	460.62
756.116	483.15
756.3	503.63
756.484	497.49
756.668	573.26
756.852	495.44
757.036	569.16
757.22	470.86
757.404	550.73
757.588	505.68
757.772	552.78
757.956	421.71
758.14	444.24
758.323	474.96
758.507	524.11
758.691	474.96
758.875	540.49
759.059	364.37
759.242	382.8
759.426	474.96
759.61	409.42
759.794	370.51
759.977	462.67
760.161	501.58
760.345	429.9
760.528	421.71
760.712	401.23
760.895	456.53
761.079	415.57
761.263	376.66
761.446	352.08
761.63	491.34
761.813	419.66
761.997	477.01
762.18	405.33
762.364	329.55
762.547	347.98
762.731	319.31
762.914	376.66
763.098	364.37
763.281	417.61
763.464	425.81
763.648	380.75
763.831	419.66
764.015	386.9
764.198	364.37
764.381	315.22
764.564	347.98
764.748	360.27
764.931	395.09
765.114	460.62
765.297	290.64
765.481	417.61
765.664	434
765.847	378.7
766.03	352.08
766.213	370.51
766.397	393.04
766.58	360.27
766.763	374.61
766.946	352.08
767.129	335.7
767.312	347.98
767.495	352.08
767.678	393.04
767.861	384.85
768.044	282.45
768.227	317.26
768.41	276.31
768.593	425.81
768.776	382.8
768.959	323.41
769.142	364.37
769.324	354.13
769.507	352.08
769.69	317.26
769.873	298.83
770.056	339.79
770.239	319.31
770.421	374.61
770.604	282.45
770.787	341.84
770.97	329.55
771.152	243.54
771.335	350.03
771.518	270.16
771.7	331.6
771.883	347.98
772.066	294.74
772.248	261.97
772.431	266.07
772.613	282.45
772.796	298.83
772.978	315.22
773.161	298.83
773.343	243.54
773.526	233.3
773.708	380.75
773.891	313.17
774.073	298.83
774.256	243.54
774.438	307.02
774.621	274.26
774.803	354.13
774.985	286.54
775.168	313.17
775.35	239.44
775.532	225.11
775.715	274.26
775.897	278.35
776.079	247.63
776.261	233.3
776.444	343.89
776.626	245.59
776.808	218.96
776.99	286.54
777.173	241.49
777.355	364.37
777.537	350.03
777.719	231.25
777.901	233.3
778.083	188.24
778.265	249.68
778.447	204.63
778.629	212.82
778.811	247.63
778.993	261.97
779.175	280.4
779.357	233.3
779.539	204.63
779.721	249.68
779.903	206.67
780.085	233.3
780.267	221.01
780.449	223.06
780.631	302.93
780.812	137.04
780.994	227.15
781.176	196.43
781.358	268.11
781.54	282.45
781.721	145.24
781.903	239.44
782.085	241.49
782.267	190.29
782.448	165.71
782.63	229.2
782.812	157.52
782.993	206.67
783.175	157.52
783.357	186.19
783.538	223.06
783.72	178
783.901	147.28
784.083	163.67
784.264	243.54
784.446	190.29
784.627	180.05
784.809	184.15
784.99	165.71
785.172	229.2
785.353	264.02
785.535	155.47
785.716	112.47
785.897	243.54
786.079	214.87
786.26	198.48
786.441	212.82
786.623	108.37
786.804	233.3
786.985	223.06
787.167	75.6
787.348	132.95
787.529	241.49
787.71	257.87
787.891	157.52
788.073	198.48
788.254	118.61
788.435	161.62
788.616	194.39
788.797	114.52
788.978	204.63
789.159	132.95
789.34	157.52
789.522	112.47
789.703	182.1
789.884	157.52
790.065	55.12
790.246	135
790.427	163.67
790.607	175.95
790.788	175.95
790.969	143.19
791.15	200.53
791.331	118.61
791.512	120.66
791.693	124.76
791.874	153.43
792.054	128.85
792.235	83.8
792.416	145.24
792.597	192.34
792.778	147.28
792.958	206.67
793.139	145.24
793.32	102.23
793.5	87.89
793.681	141.14
793.862	102.23
794.042	108.37
794.223	202.58
794.404	63.32
794.584	-6.31
794.765	137.04
794.945	147.28
795.126	102.23
795.306	83.8
795.487	75.6
795.667	135
795.848	188.24
796.028	83.8
796.209	130.9
796.389	91.99
796.57	106.32
796.75	153.43
796.93	180.05
797.111	100.18
797.291	155.47
797.471	141.14
797.652	124.76
797.832	48.98
798.012	122.71
798.192	143.19
798.373	124.76
798.553	112.47
798.733	202.58
798.913	38.74
799.093	149.33
799.274	69.46
799.454	104.28
799.634	71.51
799.814	149.33
799.994	110.42
800.174	53.08
800.354	112.47
800.534	122.71
800.714	147.28
800.894	63.32
801.074	106.32
801.254	100.18
801.434	147.28
801.614	83.8
801.794	112.47
801.974	352.08
802.154	65.36
802.334	96.08
802.514	63.32
802.693	122.71
802.873	40.79
803.053	141.14
803.233	102.23
803.413	34.64
803.592	44.88
803.772	73.56
803.952	87.89
804.131	65.36
804.311	44.88
804.491	104.28
804.67	69.46
804.85	26.45
805.03	34.64
805.209	118.61
805.389	46.93
805.568	89.94
805.748	81.75
805.928	114.52
806.107	104.28
806.287	83.8
806.466	57.17
806.646	102.23
806.825	91.99
807.004	137.04
807.184	114.52
807.363	59.22
807.543	116.56
807.722	48.98
807.901	83.8
808.081	34.64
808.26	73.56
808.439	51.03
808.619	112.47
808.798	91.99
808.977	83.8
809.156	55.12
809.336	198.48
809.515	94.04
809.694	89.94
809.873	65.36
810.052	30.55
810.231	135
810.411	8.02
810.59	61.27
810.769	67.41
810.948	124.76
811.127	-22.7
811.306	10.07
811.485	104.28
811.664	124.76
811.843	-0.17
812.022	73.56
812.201	14.17
812.38	89.94
812.559	55.12
812.737	110.42
812.916	42.84
813.095	51.03
813.274	28.5
813.453	67.41
813.632	40.79
813.811	200.53
813.989	61.27
814.168	81.75
814.347	67.41
814.526	87.89
814.704	135
814.883	87.89
815.062	57.17
815.24	75.6
815.419	69.46
815.598	73.56
815.776	-6.31
815.955	42.84
816.133	59.22
816.312	126.8
816.49	30.55
816.669	32.6
816.847	100.18
817.026	96.08
817.204	77.65
817.383	106.32
817.561	55.12
817.74	108.37
817.918	94.04
818.097	46.93
818.275	114.52
818.453	24.4
818.632	100.18
818.81	55.12
818.988	67.41
819.167	34.64
819.345	32.6
819.523	114.52
819.701	73.56
819.879	10.07
820.058	81.75
820.236	59.22
820.414	55.12
820.592	40.79
820.77	38.74
820.948	42.84
821.127	42.84
821.305	132.95
821.483	-16.55
821.661	20.31
821.839	65.36
822.017	79.7
822.195	104.28
822.373	34.64
822.551	28.5
822.729	89.94
822.907	34.64
823.085	46.93
823.262	3.93
823.44	75.6
823.618	-18.6
823.796	77.65
823.974	59.22
824.152	-18.6
824.329	67.41
824.507	143.19
824.685	42.84
824.863	30.55
825.04	40.79
825.218	32.6
825.396	12.12
825.574	73.56
825.751	167.76
825.929	10.07
826.107	44.88
826.284	24.4
826.462	57.17
826.639	28.5
826.817	46.93
826.994	51.03
827.172	73.56
827.349	87.89
827.527	-6.31
827.704	81.75
827.882	69.46
828.059	53.08
828.237	79.7
828.414	26.45
828.591	22.36
828.769	48.98
828.946	-4.27
829.124	110.42
829.301	1.88
829.478	65.36
829.655	112.47
829.833	116.56
830.01	-12.46
830.187	30.55
830.364	63.32
830.542	-20.65
830.719	53.08
830.896	1.88
831.073	18.26
831.25	-8.36
831.427	55.12
831.604	79.7
831.782	-4.27
831.959	40.79
832.136	36.69
832.313	69.46
832.49	22.36
832.667	5.97
832.844	-2.22
833.021	-6.31
833.198	38.74
833.374	53.08
833.551	51.03
833.728	53.08
833.905	-8.36
834.082	40.79
834.259	30.55
834.436	18.26
834.612	26.45
834.789	40.79
834.966	128.85
835.143	14.17
835.319	5.97
835.496	28.5
835.673	40.79
835.85	42.84
836.026	51.03
836.203	38.74
836.38	28.5
836.556	59.22
836.733	8.02
836.909	48.98
837.086	30.55
837.262	30.55
837.439	71.51
837.616	61.27
837.792	38.74
837.968	10.07
838.145	55.12
838.321	59.22
838.498	65.36
838.674	26.45
838.851	10.07
839.027	42.84
839.203	16.21
839.38	51.03
839.556	36.69
839.732	98.13
839.909	16.21
840.085	44.88
840.261	3.93
840.437	22.36
840.614	67.41
840.79	65.36
840.966	85.84
841.142	-0.17
841.318	18.26
841.494	57.17
841.671	42.84
841.847	-2.22
842.023	38.74
842.199	55.12
842.375	65.36
842.551	-2.22
842.727	-34.99
842.903	73.56
843.079	65.36
843.255	79.7
843.431	67.41
843.607	65.36
843.783	-41.13
843.959	96.08
844.134	57.17
844.31	104.28
844.486	34.64
844.662	61.27
844.838	24.4
845.013	75.6
845.189	83.8
845.365	65.36
845.541	48.98
845.716	106.32
845.892	40.79
846.068	42.84
846.244	16.21
846.419	42.84
846.595	46.93
846.77	10.07
846.946	34.64
847.122	16.21
847.297	28.5
847.473	59.22
847.648	16.21
847.824	-34.99
847.999	20.31
848.175	-22.7
848.35	26.45
848.526	8.02
848.701	59.22
848.876	24.4
849.052	-45.23
849.227	36.69
849.403	18.26
849.578	44.88
849.753	10.07
849.929	-0.17
850.104	-20.65
850.279	61.27
850.454	26.45
850.63	16.21
850.805	-34.99
850.98	112.47
851.155	-2.22
851.33	65.36
851.505	14.17
851.681	63.32
851.856	51.03
852.031	65.36
852.206	40.79
852.381	-12.46
852.556	83.8
852.731	77.65
852.906	-14.51
853.081	110.42
853.256	-0.17
853.431	40.79
853.606	32.6
853.781	65.36
853.956	-26.79
854.131	5.97
854.305	-18.6
854.48	59.22
854.655	-41.13
854.83	24.4
855.005	-6.31
855.18	85.84
855.354	-2.22
855.529	85.84
855.704	73.56
855.879	98.13
856.053	26.45
856.228	75.6
856.403	16.21
856.577	57.17
856.752	-28.84
856.926	124.76
857.101	-49.32
857.276	-8.36
857.45	-8.36
857.625	91.99
857.799	-37.03
857.974	73.56
858.148	48.98
858.323	34.64
858.497	-34.99
858.672	83.8
858.846	18.26
859.02	20.31
859.195	59.22
859.369	14.17
859.543	8.02
859.718	-26.79
859.892	16.21
860.066	-0.17
860.241	-34.99
860.415	46.93
860.589	40.79
860.763	48.98
860.938	12.12
861.112	-24.75
861.286	-20.65
861.46	-30.89
861.634	16.21
861.808	30.55
861.982	57.17
862.157	81.75
862.331	-6.31
862.505	3.93
862.679	-6.31
862.853	75.6
863.027	-2.22
863.201	65.36
863.375	85.84
863.549	-14.51
863.722	55.12
863.896	26.45
864.07	34.64
864.244	32.6
864.418	42.84
864.592	22.36
864.766	48.98
864.939	-73.9
865.113	-16.55
865.287	-14.51
865.461	-30.89
865.634	73.56
865.808	-14.51
865.982	8.02
866.156	59.22
866.329	36.69
866.503	32.6
866.676	26.45
866.85	-6.31
867.024	5.97
867.197	42.84
867.371	-12.46
867.544	40.79
867.718	20.31
867.891	69.46
868.065	22.36
868.238	75.6
868.412	40.79
868.585	-0.17
868.759	8.02
868.932	3.93
869.105	-2.22
869.279	-18.6
869.452	59.22
869.625	38.74
869.799	36.69
869.972	-24.75
870.145	81.75
870.319	-4.27
870.492	28.5
870.665	10.07
870.838	81.75
871.011	-8.36
871.185	40.79
871.358	-39.08
871.531	8.02
871.704	8.02
871.877	-41.13
872.05	40.79
872.223	-0.17
872.396	40.79
872.569	-26.79
872.742	16.21
872.915	-16.55
873.088	8.02
873.261	20.31
873.434	-22.7
873.607	30.55
873.78	8.02
873.953	46.93
874.126	-8.36
874.299	22.36
874.471	61.27
874.644	48.98
874.817	77.65
874.99	36.69
875.163	3.93
875.335	40.79
875.508	44.88
875.681	67.41
875.853	24.4
876.026	67.41
876.199	-0.17
876.371	-24.75
876.544	48.98
876.717	16.21
876.889	-22.7
877.062	26.45
877.234	14.17
877.407	-41.13
877.579	-65.71
877.752	85.84
877.924	-8.36
878.097	5.97
878.269	42.84
878.442	59.22
878.614	65.36
878.786	-24.75
878.959	34.64
879.131	44.88
879.303	-22.7
879.476	67.41
879.648	-12.46
879.82	8.02
879.993	-14.51
880.165	22.36
880.337	26.45
880.509	36.69
880.681	1.88
880.854	-8.36
881.026	24.4
881.198	40.79
881.37	1.88
881.542	65.36
881.714	28.5
881.886	12.12
882.058	44.88
882.23	34.64
882.402	26.45
882.574	34.64
882.746	-69.8
882.918	75.6
883.09	-0.17
883.262	40.79
883.434	5.97
883.606	-24.75
883.778	-14.51
883.95	44.88
884.122	24.4
884.293	36.69
884.465	51.03
884.637	38.74
884.809	-8.36
884.98	16.21
885.152	55.12
885.324	53.08
885.496	18.26
885.667	5.97
885.839	10.07
886.011	-4.27
886.182	-26.79
886.354	40.79
886.525	57.17
886.697	-47.27
886.869	1.88
887.04	-20.65
887.212	22.36
887.383	55.12
887.555	1.88
887.726	-16.55
887.897	1.88
888.069	83.8
888.24	10.07
888.412	-2.22
888.583	26.45
888.754	3.93
888.926	-47.27
889.097	-20.65
889.268	8.02
889.44	40.79
889.611	-69.8
889.782	89.94
889.953	-39.08
890.125	112.47
890.296	-16.55
890.467	55.12
890.638	-30.89
890.809	38.74
890.98	5.97
891.151	28.5
891.323	-53.42
891.494	61.27
891.665	34.64
891.836	3.93
892.007	30.55
892.178	-16.55
892.349	14.17
892.52	63.32
892.691	55.12
892.862	24.4
893.032	42.84
893.203	-41.13
893.374	30.55
893.545	57.17
893.716	42.84
893.887	16.21
894.057	59.22
894.228	20.31
894.399	-86.19
894.57	94.04
894.74	57.17
894.911	44.88
895.082	24.4
895.253	-24.75
895.423	59.22
895.594	5.97
895.764	26.45
895.935	5.97
896.106	5.97
896.276	-14.51
896.447	-45.23
896.617	18.26
896.788	-2.22
896.958	83.8
897.129	69.46
897.299	44.88
897.47	8.02
897.64	-22.7
897.81	51.03
897.981	48.98
898.151	16.21
898.322	26.45
898.492	10.07
898.662	10.07
898.832	-41.13
899.003	-10.41
899.173	20.31
899.343	73.56
899.513	-4.27
