Data from USB4F104151__79__12-59-50-180.txt Node

Date: Fri Mar 14 12:59:50 EDT 2025
User: louis
Spectrometer: USB4F10415
Trigger mode: 4
Integration Time (sec): 1.000000E-2
Scans to average: 1
Electric dark correction enabled: true
Nonlinearity correction enabled: false
Boxcar width: 0
XAxis mode: Wavelengths
Number of Pixels in Spectrum: 3648
>>>>>Begin Spectral Data<<<<<
178.204	-57.17
178.424	-57.17
178.644	-57.17
178.864	-14.17
179.084	-57.17
179.304	-20.31
179.524	-8.02
179.744	26.79
179.964	39.08
180.184	24.75
180.404	-26.45
180.624	32.94
180.844	-32.6
181.064	-48.98
181.283	61.61
181.503	-57.17
181.723	8.36
181.943	-55.12
182.163	-34.64
182.383	12.46
182.602	8.36
182.822	28.84
183.042	69.8
183.262	-3.93
183.482	10.41
183.701	26.79
183.921	59.56
184.141	-61.27
184.361	84.14
184.58	-40.79
184.8	55.47
185.02	45.23
185.239	30.89
185.459	12.46
185.679	-28.5
185.898	34.99
186.118	37.03
186.338	-48.98
186.557	59.56
186.777	-89.94
186.997	39.08
187.216	-10.07
187.436	32.94
187.655	-59.22
187.875	90.28
188.095	32.94
188.314	41.13
188.534	20.65
188.753	8.36
188.973	-79.7
189.192	26.79
189.412	45.23
189.631	75.95
189.851	-3.93
190.07	67.75
190.29	14.51
190.509	22.7
190.729	34.99
190.948	-8.02
191.168	-36.69
191.387	51.37
191.607	45.23
191.826	20.65
192.045	32.94
192.265	34.99
192.484	-22.36
192.704	67.75
192.923	-30.55
193.142	108.71
193.362	98.47
193.581	80.04
193.8	-24.4
194.02	-3.93
194.239	59.56
194.458	67.75
194.678	0.17
194.897	37.03
195.116	39.08
195.335	63.66
195.555	47.27
195.774	26.79
195.993	-1.88
196.212	32.94
196.432	18.6
196.651	-16.21
196.87	12.46
197.089	34.99
197.308	-57.17
197.528	-30.55
197.747	18.6
197.966	24.75
198.185	18.6
198.404	-55.12
198.623	12.46
198.842	59.56
199.062	-16.21
199.281	32.94
199.5	57.51
199.719	57.51
199.938	-5.97
200.157	28.84
200.376	65.71
200.595	20.65
200.814	6.31
201.033	-20.31
201.252	34.99
201.471	28.84
201.69	39.08
201.909	61.61
202.128	0.17
202.347	-14.17
202.566	20.65
202.785	18.6
203.004	8.36
203.223	55.47
203.442	-30.55
203.661	-16.21
203.879	24.75
204.098	-10.07
204.317	-36.69
204.536	14.51
204.755	18.6
204.974	59.56
205.193	6.31
205.411	116.9
205.63	-48.98
205.849	18.6
206.068	39.08
206.287	-46.93
206.505	-1.88
206.724	24.75
206.943	37.03
207.162	34.99
207.381	0.17
207.599	26.79
207.818	-1.88
208.037	102.57
208.255	65.71
208.474	51.37
208.693	-77.65
208.911	12.46
209.13	43.18
209.349	-16.21
209.567	22.7
209.786	24.75
210.005	22.7
210.223	67.75
210.442	65.71
210.661	67.75
210.879	24.75
211.098	-69.46
211.316	43.18
211.535	18.6
211.753	-53.08
211.972	-57.17
212.191	-77.65
212.409	-8.02
212.628	-16.21
212.846	24.75
213.065	30.89
213.283	86.19
213.502	-34.64
213.72	-3.93
213.938	-22.36
214.157	34.99
214.375	24.75
214.594	28.84
214.812	-30.55
215.031	-16.21
215.249	-14.17
215.467	18.6
215.686	43.18
215.904	20.65
216.122	77.99
216.341	55.47
216.559	-1.88
216.778	49.32
216.996	-14.17
217.214	12.46
217.432	22.7
217.651	51.37
217.869	16.55
218.087	-40.79
218.306	-18.26
218.524	4.27
218.742	51.37
218.96	8.36
219.179	-32.6
219.397	41.13
219.615	86.19
219.833	2.22
220.051	8.36
220.27	73.9
220.488	-14.17
220.706	-40.79
220.924	-18.26
221.142	34.99
221.36	55.47
221.578	26.79
221.796	-32.6
222.015	59.56
222.233	100.52
222.451	37.03
222.669	47.27
222.887	90.28
223.105	-16.21
223.323	73.9
223.541	0.17
223.759	39.08
223.977	-32.6
224.195	-3.93
224.413	-5.97
224.631	61.61
224.849	37.03
225.067	8.36
225.285	57.51
225.503	41.13
225.721	-38.74
225.939	28.84
226.157	-20.31
226.375	88.23
226.592	-24.4
226.81	-3.93
227.028	41.13
227.246	61.61
227.464	0.17
227.682	45.23
227.9	-24.4
228.117	-18.26
228.335	-8.02
228.553	8.36
228.771	63.66
228.989	-14.17
229.206	53.42
229.424	41.13
229.642	-14.17
229.86	-28.5
230.077	73.9
230.295	-30.55
230.513	28.84
230.731	53.42
230.948	-26.45
231.166	143.53
231.384	28.84
231.601	10.41
231.819	39.08
232.037	-30.55
232.254	-51.03
232.472	43.18
232.689	49.32
232.907	26.79
233.125	34.99
233.342	-38.74
233.56	22.7
233.777	14.51
233.995	-24.4
234.213	47.27
234.43	24.75
234.648	-22.36
234.865	49.32
235.083	14.51
235.3	22.7
235.518	92.33
235.735	-10.07
235.953	-26.45
236.17	16.55
236.388	-1.88
236.605	-26.45
236.822	69.8
237.04	-5.97
237.257	63.66
237.475	-3.93
237.692	4.27
237.909	18.6
238.127	41.13
238.344	-10.07
238.562	-5.97
238.779	-26.45
238.996	8.36
239.214	-18.26
239.431	10.41
239.648	28.84
239.865	45.23
240.083	-20.31
240.3	133.29
240.517	41.13
240.735	4.27
240.952	39.08
241.169	37.03
241.386	-18.26
241.603	10.41
241.821	47.27
242.038	2.22
242.255	-42.84
242.472	-46.93
242.689	53.42
242.907	-16.21
243.124	-22.36
243.341	114.86
243.558	55.47
243.775	12.46
243.992	2.22
244.209	-67.41
244.426	-22.36
244.643	26.79
244.86	12.46
245.078	57.51
245.295	90.28
245.512	-1.88
245.729	43.18
245.946	-5.97
246.163	43.18
246.38	65.71
246.597	61.61
246.814	71.85
247.031	24.75
247.248	47.27
247.464	41.13
247.681	49.32
247.898	-3.93
248.115	-24.4
248.332	-46.93
248.549	51.37
248.766	-5.97
248.983	10.41
249.2	14.51
249.417	24.75
249.633	57.51
249.85	20.65
250.067	53.42
250.284	-46.93
250.501	61.61
250.717	41.13
250.934	-24.4
251.151	92.33
251.368	45.23
251.585	55.47
251.801	32.94
252.018	18.6
252.235	51.37
252.451	-73.56
252.668	37.03
252.885	59.56
253.102	4.27
253.318	0.17
253.535	34.99
253.752	32.94
253.968	-16.21
254.185	-73.56
254.401	26.79
254.618	63.66
254.835	2.22
255.051	57.51
255.268	43.18
255.484	34.99
255.701	-40.79
255.917	41.13
256.134	80.04
256.351	-1.88
256.567	2.22
256.784	32.94
257	16.55
257.217	-36.69
257.433	90.28
257.65	-3.93
257.866	4.27
258.082	10.41
258.299	-28.5
258.515	65.71
258.732	43.18
258.948	45.23
259.165	53.42
259.381	6.31
259.597	20.65
259.814	51.37
260.03	-22.36
260.246	-51.03
260.463	-48.98
260.679	14.51
260.895	34.99
261.112	84.14
261.328	41.13
261.544	65.71
261.761	-48.98
261.977	-10.07
262.193	43.18
262.409	10.41
262.626	-1.88
262.842	-59.22
263.058	77.99
263.274	24.75
263.49	65.71
263.707	-22.36
263.923	-24.4
264.139	-16.21
264.355	41.13
264.571	-26.45
264.787	49.32
265.004	110.76
265.22	16.55
265.436	-48.98
265.652	6.31
265.868	49.32
266.084	-14.17
266.3	12.46
266.516	8.36
266.732	-12.12
266.948	-3.93
267.164	96.43
267.38	8.36
267.596	20.65
267.812	-16.21
268.028	90.28
268.244	34.99
268.46	41.13
268.676	-18.26
268.892	28.84
269.108	88.23
269.324	30.89
269.54	26.79
269.756	59.56
269.972	8.36
270.188	12.46
270.403	-30.55
270.619	-40.79
270.835	-14.17
271.051	-12.12
271.267	-14.17
271.483	24.75
271.698	-14.17
271.914	55.47
272.13	37.03
272.346	67.75
272.562	30.89
272.777	28.84
272.993	8.36
273.209	2.22
273.425	53.42
273.64	-16.21
273.856	92.33
274.072	100.52
274.287	37.03
274.503	61.61
274.719	65.71
274.934	14.51
275.15	-8.02
275.366	43.18
275.581	6.31
275.797	2.22
276.012	41.13
276.228	61.61
276.444	28.84
276.659	49.32
276.875	18.6
277.09	2.22
277.306	-1.88
277.521	24.75
277.737	-3.93
277.952	49.32
278.168	10.41
278.383	34.99
278.599	10.41
278.814	57.51
279.03	-3.93
279.245	57.51
279.461	-24.4
279.676	-48.98
279.892	14.51
280.107	12.46
280.322	67.75
280.538	-28.5
280.753	67.75
280.969	12.46
281.184	57.51
281.399	16.55
281.615	59.56
281.83	49.32
282.045	-8.02
282.26	16.55
282.476	43.18
282.691	34.99
282.906	-24.4
283.122	39.08
283.337	-12.12
283.552	-12.12
283.767	20.65
283.983	-12.12
284.198	6.31
284.413	90.28
284.628	30.89
284.843	84.14
285.058	-14.17
285.274	-5.97
285.489	14.51
285.704	8.36
285.919	10.41
286.134	4.27
286.349	6.31
286.564	-1.88
286.779	-26.45
286.995	65.71
287.21	6.31
287.425	55.47
287.64	2.22
287.855	28.84
288.07	-10.07
288.285	39.08
288.5	49.32
288.715	49.32
288.93	45.23
289.145	61.61
289.36	39.08
289.575	30.89
289.79	12.46
290.004	16.55
290.219	-1.88
290.434	100.52
290.649	-22.36
290.864	28.84
291.079	20.65
291.294	57.51
291.509	57.51
291.724	18.6
291.938	94.38
292.153	49.32
292.368	-18.26
292.583	-55.12
292.798	82.09
293.012	-55.12
293.227	32.94
293.442	37.03
293.657	0.17
293.871	51.37
294.086	32.94
294.301	65.71
294.516	8.36
294.73	37.03
294.945	22.7
295.16	41.13
295.374	14.51
295.589	8.36
295.804	39.08
296.018	-30.55
296.233	22.7
296.447	41.13
296.662	-46.93
296.877	100.52
297.091	16.55
297.306	-22.36
297.52	65.71
297.735	0.17
297.949	61.61
298.164	139.43
298.378	49.32
298.593	47.27
298.807	14.51
299.022	77.99
299.236	61.61
299.451	4.27
299.665	-5.97
299.88	-16.21
300.094	-3.93
300.309	55.47
300.523	53.42
300.737	-3.93
300.952	-3.93
301.166	-12.12
301.381	47.27
301.595	20.65
301.809	-18.26
302.024	63.66
302.238	18.6
302.452	-38.74
302.667	-20.31
302.881	-20.31
303.095	-1.88
303.309	-8.02
303.524	-28.5
303.738	6.31
303.952	0.17
304.166	0.17
304.381	34.99
304.595	84.14
304.809	10.41
305.023	-46.93
305.237	41.13
305.452	-38.74
305.666	4.27
305.88	34.99
306.094	80.04
306.308	4.27
306.522	45.23
306.736	-24.4
306.95	47.27
307.164	37.03
307.379	82.09
307.593	-44.88
307.807	59.56
308.021	10.41
308.235	6.31
308.449	8.36
308.663	-1.88
308.877	67.75
309.091	0.17
309.305	88.23
309.519	12.46
309.733	28.84
309.947	-8.02
310.161	30.89
310.374	-18.26
310.588	12.46
310.802	39.08
311.016	-14.17
311.23	-14.17
311.444	90.28
311.658	0.17
311.872	-1.88
312.085	12.46
312.299	100.52
312.513	63.66
312.727	118.95
312.941	-38.74
313.154	12.46
313.368	34.99
313.582	32.94
313.796	73.9
314.009	-5.97
314.223	34.99
314.437	41.13
314.651	61.61
314.864	45.23
315.078	-14.17
315.292	-71.51
315.505	49.32
315.719	-12.12
315.933	34.99
316.146	18.6
316.36	16.55
316.573	8.36
316.787	61.61
317.001	-8.02
317.214	-3.93
317.428	18.6
317.641	30.89
317.855	-24.4
318.068	-3.93
318.282	8.36
318.495	45.23
318.709	49.32
318.922	63.66
319.136	127.14
319.349	-8.02
319.563	-12.12
319.776	28.84
319.99	12.46
320.203	55.47
320.417	69.8
320.63	41.13
320.843	-8.02
321.057	63.66
321.27	18.6
321.483	-3.93
321.697	37.03
321.91	4.27
322.124	34.99
322.337	20.65
322.55	-5.97
322.763	-20.31
322.977	-12.12
323.19	-53.08
323.403	-12.12
323.617	22.7
323.83	30.89
324.043	18.6
324.256	2.22
324.469	22.7
324.683	22.7
324.896	2.22
325.109	73.9
325.322	32.94
325.535	-5.97
325.748	37.03
325.962	73.9
326.175	90.28
326.388	63.66
326.601	55.47
326.814	-8.02
327.027	6.31
327.24	96.43
327.453	6.31
327.666	41.13
327.879	-20.31
328.092	8.36
328.305	16.55
328.518	28.84
328.731	12.46
328.944	77.99
329.157	10.41
329.37	47.27
329.583	-1.88
329.796	10.41
330.009	57.51
330.222	-18.26
330.435	20.65
330.648	65.71
330.861	-14.17
331.073	20.65
331.286	123.05
331.499	-38.74
331.712	2.22
331.925	24.75
332.138	8.36
332.35	51.37
332.563	26.79
332.776	59.56
332.989	8.36
333.202	8.36
333.414	82.09
333.627	4.27
333.84	18.6
334.053	-1.88
334.265	73.9
334.478	75.95
334.691	2.22
334.903	-53.08
335.116	-36.69
335.329	-20.31
335.541	67.75
335.754	4.27
335.966	-3.93
336.179	41.13
336.392	-16.21
336.604	24.75
336.817	-5.97
337.029	73.9
337.242	0.17
337.454	-12.12
337.667	39.08
337.88	20.65
338.092	-20.31
338.305	10.41
338.517	-12.12
338.729	2.22
338.942	61.61
339.154	41.13
339.367	-10.07
339.579	-24.4
339.792	49.32
340.004	22.7
340.217	51.37
340.429	75.95
340.641	47.27
340.854	18.6
341.066	-8.02
341.278	6.31
341.491	51.37
341.703	22.7
341.915	34.99
342.128	75.95
342.34	-8.02
342.552	16.55
342.764	-94.04
342.977	59.56
343.189	-10.07
343.401	26.79
343.613	-55.12
343.826	14.51
344.038	-10.07
344.25	-24.4
344.462	-5.97
344.674	-10.07
344.886	20.65
345.099	4.27
345.311	-18.26
345.523	18.6
345.735	0.17
345.947	20.65
346.159	-30.55
346.371	45.23
346.583	26.79
346.795	43.18
347.007	47.27
347.219	37.03
347.431	-12.12
347.643	-5.97
347.855	45.23
348.067	84.14
348.279	-32.6
348.491	0.17
348.703	53.42
348.915	-12.12
349.127	-59.22
349.339	45.23
349.551	32.94
349.763	59.56
349.975	98.47
350.187	86.19
350.399	22.7
350.61	12.46
350.822	30.89
351.034	63.66
351.246	-59.22
351.458	-44.88
351.669	-32.6
351.881	-18.26
352.093	114.86
352.305	16.55
352.517	51.37
352.728	73.9
352.94	59.56
353.152	20.65
353.363	-8.02
353.575	-8.02
353.787	61.61
353.999	45.23
354.21	53.42
354.422	32.94
354.633	24.75
354.845	90.28
355.057	88.23
355.268	82.09
355.48	-51.03
355.692	32.94
355.903	55.47
356.115	37.03
356.326	67.75
356.538	47.27
356.749	59.56
356.961	4.27
357.172	18.6
357.384	61.61
357.595	75.95
357.807	41.13
358.018	0.17
358.23	24.75
358.441	22.7
358.653	43.18
358.864	-18.26
359.075	77.99
359.287	43.18
359.498	73.9
359.709	4.27
359.921	51.37
360.132	-24.4
360.344	10.41
360.555	0.17
360.766	34.99
360.977	8.36
361.189	8.36
361.4	-8.02
361.611	34.99
361.823	26.79
362.034	26.79
362.245	0.17
362.456	73.9
362.667	30.89
362.879	30.89
363.09	28.84
363.301	34.99
363.512	61.61
363.723	43.18
363.935	-12.12
364.146	-22.36
364.357	65.71
364.568	-5.97
364.779	14.51
364.99	57.51
365.201	55.47
365.412	-24.4
365.623	28.84
365.834	20.65
366.045	-8.02
366.256	37.03
366.467	39.08
366.678	22.7
366.889	86.19
367.1	12.46
367.311	37.03
367.522	2.22
367.733	34.99
367.944	20.65
368.155	6.31
368.366	34.99
368.577	57.51
368.788	43.18
368.999	53.42
369.209	34.99
369.42	73.9
369.631	18.6
369.842	-3.93
370.053	8.36
370.264	-1.88
370.474	61.61
370.685	32.94
370.896	32.94
371.107	14.51
371.317	-8.02
371.528	6.31
371.739	8.36
371.95	-3.93
372.16	90.28
372.371	-65.36
372.582	8.36
372.792	53.42
373.003	10.41
373.214	6.31
373.424	32.94
373.635	18.6
373.846	-104.28
374.056	-34.64
374.267	37.03
374.477	24.75
374.688	-18.26
374.898	53.42
375.109	-18.26
375.319	-63.32
375.53	-1.88
375.74	49.32
375.951	0.17
376.161	57.51
376.372	2.22
376.582	49.32
376.793	6.31
377.003	47.27
377.214	-20.31
377.424	0.17
377.635	10.41
377.845	-24.4
378.055	30.89
378.266	-22.36
378.476	28.84
378.686	-28.5
378.897	59.56
379.107	18.6
379.317	20.65
379.528	34.99
379.738	24.75
379.948	18.6
380.158	90.28
380.369	-16.21
380.579	-3.93
380.789	10.41
380.999	-3.93
381.21	32.94
381.42	2.22
381.63	32.94
381.84	18.6
382.05	32.94
382.261	34.99
382.471	57.51
382.681	4.27
382.891	16.55
383.101	53.42
383.311	28.84
383.521	57.51
383.731	28.84
383.941	-5.97
384.151	0.17
384.361	80.04
384.571	37.03
384.781	47.27
384.991	39.08
385.201	127.14
385.411	-8.02
385.621	34.99
385.831	96.43
386.041	26.79
386.251	73.9
386.461	0.17
386.671	67.75
386.881	24.75
387.091	8.36
387.301	61.61
387.511	28.84
387.72	-10.07
387.93	-22.36
388.14	-14.17
388.35	26.79
388.56	-20.31
388.769	98.47
388.979	34.99
389.189	22.7
389.399	18.6
389.609	57.51
389.818	34.99
390.028	28.84
390.238	20.65
390.447	61.61
390.657	51.37
390.867	18.6
391.076	94.38
391.286	0.17
391.496	57.51
391.705	28.84
391.915	116.9
392.125	34.99
392.334	8.36
392.544	104.62
392.753	57.51
392.963	2.22
393.172	47.27
393.382	-12.12
393.591	12.46
393.801	0.17
394.01	67.75
394.22	34.99
394.429	57.51
394.639	65.71
394.848	100.52
395.058	-96.08
395.267	8.36
395.477	32.94
395.686	12.46
395.895	67.75
396.105	0.17
396.314	-3.93
396.524	-28.5
396.733	94.38
396.942	61.61
397.152	65.71
397.361	22.7
397.57	-1.88
397.78	82.09
397.989	53.42
398.198	127.14
398.407	98.47
398.617	45.23
398.826	57.51
399.035	69.8
399.244	-16.21
399.453	16.55
399.663	55.47
399.872	26.79
400.081	49.32
400.29	59.56
400.499	41.13
400.708	69.8
400.917	47.27
401.127	65.71
401.336	28.84
401.545	22.7
401.754	133.29
401.963	166.06
402.172	26.79
402.381	51.37
402.59	47.27
402.799	73.9
403.008	4.27
403.217	102.57
403.426	-24.4
403.635	59.56
403.844	0.17
404.053	141.48
404.262	110.76
404.471	57.51
404.68	24.75
404.888	108.71
405.097	24.75
405.306	110.76
405.515	10.41
405.724	106.67
405.933	82.09
406.142	57.51
406.35	172.2
406.559	127.14
406.768	51.37
406.977	61.61
407.185	80.04
407.394	57.51
407.603	147.62
407.812	129.19
408.02	118.95
408.229	73.9
408.438	121
408.646	174.25
408.855	135.34
409.064	174.25
409.272	69.8
409.481	114.86
409.69	170.15
409.898	86.19
410.107	147.62
410.315	133.29
410.524	129.19
410.733	139.43
410.941	188.58
411.15	143.53
411.358	131.24
411.567	229.54
411.775	161.96
411.984	186.54
412.192	311.46
412.401	245.93
412.609	186.54
412.818	229.54
413.026	247.97
413.234	247.97
413.443	213.16
413.651	250.02
413.86	180.39
414.068	209.06
414.276	219.3
414.485	184.49
414.693	276.65
414.901	297.13
415.11	366.76
415.318	217.26
415.526	358.57
415.734	301.22
415.943	391.33
416.151	409.76
416.359	385.19
416.567	389.28
416.776	393.38
416.984	383.14
417.192	436.39
417.4	387.24
417.608	399.52
417.817	438.44
418.025	506.02
418.233	460.96
418.441	499.88
418.649	544.93
418.857	583.84
419.065	616.61
419.273	549.03
419.481	635.04
419.689	649.38
419.897	575.65
420.105	649.38
420.313	688.29
420.521	608.42
420.729	680.1
420.937	735.39
421.145	737.44
421.353	729.25
421.561	798.88
421.769	749.73
421.977	913.56
422.185	821.41
422.393	870.56
422.601	921.76
422.809	854.17
423.017	956.57
423.224	1069.21
423.432	1050.78
423.64	1075.35
423.848	1147.03
424.056	1106.07
424.263	1108.12
424.471	1243.29
424.679	1198.23
424.887	1269.91
425.094	1339.54
425.302	1368.21
425.51	1419.41
425.718	1398.93
425.925	1384.6
426.133	1538.2
426.341	1661.07
426.548	1605.78
426.756	1587.35
426.964	1697.94
427.171	1654.93
427.379	1788.05
427.586	1835.15
427.794	1786
428.001	1976.46
428.209	1966.22
428.417	1960.08
428.624	2132.11
428.832	2048.14
429.039	2066.57
429.247	2271.37
429.454	2343.05
429.662	2482.31
429.869	2257.03
430.076	2627.71
430.284	2449.54
430.491	2556.04
430.699	2676.87
430.906	2662.53
431.114	2644.1
431.321	2764.93
431.528	2752.64
431.736	2963.58
431.943	3172.47
432.15	3006.59
432.358	3098.75
432.565	3324.02
432.772	3305.59
432.979	3440.76
433.187	3565.68
433.394	3496.05
433.601	3848.3
433.808	3780.72
434.016	3719.28
434.223	3954.8
434.43	4339.82
434.637	4057.2
434.844	4229.23
435.052	4380.78
435.259	4438.12
435.466	4362.34
435.673	4366.44
435.88	4587.62
436.087	4847.71
436.294	5091.42
436.501	4665.44
436.708	4905.06
436.915	5161.05
437.122	5310.55
437.329	5218.4
437.537	5415
437.743	5537.88
437.95	5548.12
438.157	5781.59
438.364	6002.77
438.571	6027.34
438.778	6080.59
438.985	6594.63
439.192	6367.31
439.399	6393.93
439.606	6404.17
439.813	6723.65
440.02	7206.97
440.227	6946.88
440.433	6938.69
440.64	7202.88
440.847	6998.08
441.054	7159.87
441.261	7915.57
441.467	7817.27
441.674	7809.08
441.881	8192.05
442.088	8259.63
442.294	7944.24
442.501	8407.08
442.708	8439.85
442.914	8634.41
443.121	9109.54
443.328	8841.25
443.534	9388.06
443.741	9291.8
443.948	9150.5
444.154	9904.15
444.361	9703.45
444.568	9701.4
444.774	9596.95
444.981	10090.51
445.187	10295.31
445.394	10651.66
445.6	10348.56
445.807	11587.58
446.013	11317.25
446.22	11339.77
446.426	11737.08
446.633	12013.56
446.839	12054.51
447.046	11767.8
447.252	12455.92
447.459	12447.72
447.665	12406.77
447.871	12912.61
448.078	13447.13
448.284	12789.74
448.491	13162.47
448.697	13610.97
448.903	13819.86
449.11	14082
449.316	13881.3
449.522	14022.61
449.728	14692.3
449.935	14729.16
450.141	14780.36
450.347	15001.54
450.553	14456.78
450.76	14493.65
450.966	15189.95
451.172	15019.97
451.378	15478.72
451.584	15024.07
451.791	15640.51
451.997	15355.84
452.203	15781.82
452.409	16003
452.615	15898.55
452.821	15237.06
453.027	15067.08
453.233	15617.98
453.44	15269.83
453.646	15355.84
453.852	15656.89
454.058	15792.06
454.264	15179.72
454.47	15478.72
454.676	15128.52
454.882	15878.07
455.088	14460.88
455.294	14630.86
455.5	14747.59
455.705	14845.9
455.911	14325.71
456.117	13922.26
456.323	13883.35
456.529	13113.31
456.735	13801.43
456.941	13524.96
457.147	13172.71
457.352	12648.43
457.558	12560.36
457.764	12636.14
457.97	12492.78
458.176	12304.37
458.381	12283.89
458.587	11563
458.793	11685.88
458.999	10944.52
459.204	11800.57
459.41	11481.08
459.616	10625.03
459.821	10831.88
460.027	10698.76
460.233	10428.43
460.438	9926.68
460.644	10012.69
460.85	9381.92
461.055	9549.85
461.261	9519.13
461.466	8941.6
461.672	8489
461.878	9093.15
462.083	8503.34
462.289	8304.68
462.494	8228.91
462.7	7864.37
462.905	7649.33
463.111	8048.69
463.316	7972.91
463.522	7784.5
463.727	7800.88
463.932	7850.03
464.138	7802.93
464.343	7675.96
464.549	7514.17
464.754	7839.8
464.959	7671.86
465.165	7678.01
465.37	7299.13
465.575	7098.43
465.781	7471.16
465.986	7215.16
466.191	7096.38
466.397	7045.18
466.602	6709.32
466.807	7088.19
467.012	6967.36
467.218	6854.72
467.423	6975.55
467.628	6776.9
467.833	7323.71
468.038	6981.7
468.244	6801.47
468.449	7024.7
468.654	6754.37
468.859	6801.47
469.064	6756.42
469.269	6422.6
469.474	6312.01
469.679	6686.79
469.885	6570.05
470.09	6555.72
470.295	6553.67
470.5	6359.11
470.705	6309.96
470.91	6232.14
471.115	6258.76
471.32	6301.77
471.525	6037.58
471.73	6168.65
471.935	6142.03
472.139	5970
472.344	5894.22
472.549	6008.91
472.754	5843.03
472.959	5681.24
473.164	5627.99
473.369	5419.1
473.574	5724.24
473.778	5570.65
473.983	5617.75
474.188	5578.84
474.393	5263.45
474.598	5404.76
474.802	5292.12
475.007	5265.5
475.212	5228.63
475.417	5113.95
475.621	5222.49
475.826	5068.89
476.031	4870.24
476.235	4898.91
476.44	4890.72
476.645	4882.53
476.849	5009.5
477.054	4730.98
477.259	4796.51
477.463	4722.79
477.668	4622.44
477.872	4669.54
478.077	4710.5
478.282	4618.34
478.486	4481.13
478.691	4563.05
478.895	4413.54
479.1	4491.37
479.304	4393.06
479.509	4370.54
479.713	4425.83
479.918	4401.26
480.122	4259.95
480.326	4472.93
480.531	4415.59
480.735	4276.33
480.94	4225.13
481.144	4292.71
481.348	4153.45
481.553	4290.67
481.757	4120.68
481.961	4300.91
482.166	4327.53
482.37	4317.29
482.574	4202.6
482.778	4175.98
482.983	4135.02
483.187	4239.47
483.391	4192.36
483.595	4055.15
483.8	3952.75
484.004	4040.81
484.208	4268.14
484.412	4268.14
484.616	4122.73
484.821	4225.13
485.025	4102.25
485.229	4231.27
485.433	4272.23
485.637	4249.71
485.841	4128.88
486.045	4153.45
486.249	4106.35
486.453	4163.69
486.657	4251.75
486.861	4294.76
487.065	4096.11
487.269	4124.78
487.473	3987.57
487.677	4124.78
487.881	4227.18
488.085	4257.9
488.289	4139.12
488.493	4055.15
488.697	4061.29
488.901	4200.55
489.105	4311.14
489.309	4319.34
489.512	4196.46
489.716	4251.75
489.92	4251.75
490.124	4100.2
490.328	4235.37
490.531	4212.84
490.735	4278.38
490.939	4321.38
491.143	4227.18
491.346	4163.69
491.55	4374.63
491.754	4448.36
491.958	4376.68
492.161	4411.5
492.365	4460.65
492.569	4370.54
492.772	4448.36
492.976	4466.79
493.18	4563.05
493.383	4524.13
493.587	4665.44
493.79	4677.73
493.994	4513.89
494.197	4583.52
494.401	4698.21
494.605	4778.08
494.808	4804.71
495.012	4898.91
495.215	4864.1
495.419	5070.94
495.622	4931.68
495.825	4995.17
496.029	4978.78
496.232	5210.2
496.436	5046.37
496.639	5177.44
496.843	5111.9
497.046	5263.45
497.249	5355.61
497.453	5396.57
497.656	5304.41
497.859	5443.67
498.063	5441.62
498.266	5638.23
498.469	5472.34
498.673	5488.73
498.876	5658.71
499.079	5773.39
499.282	5939.28
499.485	5902.42
499.689	6006.86
499.892	5994.58
500.095	6230.09
500.298	6293.58
500.501	6154.32
500.705	6318.15
500.908	6418.5
501.111	6662.21
501.314	6330.44
501.517	6477.9
501.72	6684.74
501.923	6737.99
502.126	6826.05
502.329	6993.98
502.532	7094.33
502.735	7110.72
502.938	7299.13
503.141	7151.68
503.344	7440.44
503.547	7403.58
503.75	7602.23
503.953	7643.19
504.156	7579.7
504.359	7651.38
504.562	7790.64
504.765	7958.58
504.968	8226.86
505.17	8093.74
505.373	8118.32
505.576	8351.79
505.779	8495.15
505.982	8538.15
506.185	8749.09
506.387	8734.76
506.59	8693.8
506.793	8773.67
506.996	8808.48
507.198	9435.16
507.401	9011.23
507.604	9326.62
507.807	9445.4
508.009	9521.18
508.212	9635.86
508.415	9797.65
508.617	9764.89
508.82	10043.41
509.022	9916.44
509.225	10272.78
509.428	10397.71
509.63	10461.2
509.833	10364.94
510.035	10768.39
510.238	10563.59
510.44	10876.93
510.643	11204.61
510.845	11198.46
511.048	11261.95
511.25	11382.78
511.453	11214.85
511.655	11816.95
511.858	11569.15
512.06	11722.74
512.262	12038.13
512.465	11923.44
512.667	12163.06
512.87	12310.51
513.072	12345.33
513.274	12548.08
513.477	12675.05
513.679	12965.86
513.881	12972
514.084	13082.6
514.286	13092.83
514.488	13266.91
514.69	13780.95
514.893	13643.74
515.095	13615.07
515.297	13887.45
515.499	14108.63
515.701	14024.66
515.904	14145.49
516.106	14524.37
516.308	14409.68
516.51	14931.91
516.712	14815.18
516.914	14989.25
517.116	15275.97
517.318	15271.87
517.52	15509.44
517.722	15499.2
517.925	15613.88
518.127	15931.32
518.329	16215.99
518.531	16215.99
518.733	16136.12
518.935	16502.7
519.136	16529.33
519.338	16746.41
519.54	16744.36
519.742	16983.98
519.944	16973.74
520.146	17469.34
520.348	17518.5
520.55	17727.39
520.752	17612.7
520.954	18059.16
521.155	17717.15
521.357	18352.02
521.559	18362.26
521.761	18417.55
521.963	18628.49
522.164	18591.63
522.366	18767.76
522.568	18843.53
522.77	18952.07
522.971	19525.5
523.173	19484.55
523.375	19429.25
523.576	19388.29
523.778	19498.88
523.98	19758.97
524.181	19840.89
524.383	19885.95
524.584	20193.14
524.786	20049.78
524.988	20139.9
525.189	20270.97
525.391	20445.04
525.592	20567.92
525.794	20643.7
525.995	20723.57
526.197	20758.38
526.398	20715.37
526.6	20893.55
526.801	21159.78
527.003	21192.55
527.204	21432.16
527.406	21456.74
527.607	21610.34
527.808	21555.04
528.01	21415.78
528.211	21557.09
528.412	22259.54
528.614	21843.81
528.815	21985.12
529.016	22021.98
529.218	21796.7
529.419	22093.66
529.62	21868.38
529.822	21921.63
530.023	22400.85
530.224	21956.44
530.425	22161.24
530.626	22077.27
530.828	22015.83
531.029	22918.99
531.23	22275.93
531.431	22280.02
531.632	22208.34
531.833	22378.33
532.035	22521.68
532.236	22476.63
532.437	22751.06
532.638	22638.42
532.839	22687.57
533.04	22689.62
533.241	22636.37
533.442	22814.54
533.643	22884.17
533.844	22703.95
534.045	22771.54
534.246	22574.93
534.447	22888.27
534.648	22480.72
534.849	22761.3
535.05	22787.92
535.251	22718.29
535.451	22794.06
535.652	22802.25
535.853	22906.7
536.054	22671.18
536.255	22800.21
536.456	22691.66
536.657	23025.48
536.857	23199.56
537.058	22691.66
537.259	23146.31
537.46	22826.83
537.66	22605.65
537.861	23084.87
538.062	22638.42
538.263	22742.86
538.463	22744.91
538.664	22689.62
538.865	22927.18
539.065	23105.35
539.266	22767.44
539.466	23148.36
539.667	22472.53
539.868	22703.95
540.068	22771.54
540.269	22976.33
540.469	22904.65
540.67	22824.78
540.87	22646.61
541.071	22908.75
541.271	23033.68
541.472	23048.01
541.672	22763.34
541.873	22730.58
542.073	22458.2
542.274	23248.71
542.474	22634.32
542.675	22355.8
542.875	22775.63
543.075	22789.97
543.276	22579.03
543.476	22968.14
543.676	22581.07
543.877	22585.17
544.077	23025.48
544.277	22699.86
544.478	22632.27
544.678	23113.55
544.878	22933.32
545.078	22763.34
545.279	22507.35
545.479	22693.71
545.679	22923.08
545.879	22634.32
546.079	22662.99
546.28	22708.05
546.48	22445.91
546.68	23019.34
546.88	22806.35
547.08	22665.04
547.28	22533.97
547.48	22585.17
547.68	22728.53
547.88	22245.21
548.081	22806.35
548.281	22802.25
548.481	22482.77
548.681	22783.82
548.881	22966.09
549.081	22660.94
549.28	22374.23
549.48	22841.17
549.68	22511.44
549.88	23033.68
550.08	22648.66
550.28	22849.36
550.48	22511.44
550.68	22789.97
550.88	22511.44
551.08	22622.03
551.279	22591.31
551.479	22363.99
551.679	22826.83
551.879	22468.44
552.079	22630.23
552.278	22359.89
552.478	22691.66
552.678	22337.37
552.878	22417.24
553.077	22392.66
553.277	22179.67
553.477	22962
553.676	22570.83
553.876	22216.54
554.076	22593.36
554.275	22212.44
554.475	22171.48
554.674	22437.72
554.874	22388.57
555.074	22536.02
555.273	22642.51
555.473	22703.95
555.672	22136.66
555.872	22288.21
556.071	22181.72
556.271	22486.87
556.47	22165.34
556.67	22241.11
556.869	22294.36
557.068	22439.76
557.268	21956.44
557.467	22208.34
557.667	21921.63
557.866	22196.06
558.065	22198.1
558.265	21772.13
558.464	22021.98
558.663	22345.56
558.863	21718.88
559.062	22308.69
559.261	21993.31
559.461	22222.68
559.66	21610.34
559.859	21938.01
560.058	21698.4
560.258	21876.57
560.457	21600.1
560.656	21895
560.855	21643.1
561.054	21727.07
561.253	21546.85
561.453	21630.82
561.652	21731.17
561.851	21624.67
562.05	21612.38
562.249	21438.31
562.448	21788.51
562.647	21522.27
562.846	21417.83
563.045	21348.2
563.244	21186.41
563.443	21725.02
563.642	20983.66
563.841	21364.58
564.04	21057.39
564.239	21735.26
564.438	21307.24
564.637	20971.37
564.836	21182.31
565.035	21100.39
565.234	21149.54
565.432	21010.28
565.631	20973.42
565.83	21350.24
566.029	20793.2
566.228	20905.84
566.427	20895.6
566.625	20746.09
566.824	20545.39
567.023	20680.56
567.222	20416.37
567.42	20856.68
567.619	20588.4
567.818	20506.48
568.016	20541.3
568.215	20688.75
568.414	20832.11
568.612	20621.17
568.811	20215.67
569.01	20561.78
569.208	20232.05
569.407	20125.56
569.605	19867.52
569.804	20504.43
570.002	20035.45
570.201	20193.14
570.4	20053.88
570.598	19953.53
570.797	19924.86
570.995	19947.39
571.193	19705.73
571.392	19965.82
571.59	19677.05
571.789	19865.47
571.987	19707.77
572.186	19476.35
572.384	19333
572.582	19457.92
572.781	19414.91
572.979	19339.14
573.177	19343.24
573.376	19664.77
573.574	19232.65
573.772	19394.43
573.971	19048.33
574.169	19218.31
574.367	19148.68
574.565	18909.07
574.763	18841.48
574.962	18990.98
575.16	18931.59
575.358	19044.23
575.556	18849.68
575.754	18982.79
575.952	18587.54
576.151	18685.84
576.349	18526.1
576.547	18415.51
576.745	18696.08
576.943	18548.62
577.141	18458.51
577.339	18366.35
577.537	18522
577.735	18339.73
577.933	18292.63
578.131	18390.93
578.329	18016.15
578.527	18227.09
578.725	18163.61
578.923	17860.51
579.121	18007.96
579.319	18040.73
579.516	18081.69
579.714	18091.93
579.912	17780.64
580.11	17504.16
580.308	17835.93
580.506	17571.74
580.704	17319.84
580.901	17706.91
581.099	17913.75
581.297	17641.37
581.495	17522.59
581.692	17473.44
581.89	17223.59
582.088	17604.51
582.285	17334.18
582.483	17213.35
582.681	17285.03
582.878	17094.57
583.076	16926.63
583.274	17317.79
583.471	17002.41
583.669	17098.66
583.866	16992.17
584.064	16934.82
584.262	16736.17
584.459	16998.31
584.657	16523.18
584.854	16725.93
585.052	16680.88
585.249	16508.85
585.447	16725.93
585.644	16347.06
585.841	16672.68
586.039	16553.9
586.236	16322.48
586.434	16406.45
586.631	16273.33
586.828	16363.44
587.026	16207.8
587.223	16484.27
587.42	16072.63
587.618	15896.5
587.815	16048.05
588.012	16197.56
588.21	15837.11
588.407	16119.73
588.604	16064.44
588.801	15718.33
588.999	15876.02
589.196	15919.03
589.393	15771.58
589.59	15734.71
589.787	15632.32
589.984	15675.32
590.182	15181.76
590.379	15656.89
590.576	15523.77
590.773	15400.9
590.97	15271.87
591.167	15318.98
591.364	15151.04
591.561	15380.42
591.758	14796.74
591.955	14956.49
592.152	15230.91
592.349	14862.28
592.546	15052.74
592.743	14976.97
592.94	14821.32
593.137	14909.38
593.334	14704.59
593.531	14624.72
593.727	15052.74
593.924	14929.86
594.121	14471.12
594.318	14634.96
594.515	14364.62
594.712	14835.66
594.908	14378.96
595.105	14495.69
595.302	14499.79
595.499	14510.03
595.696	14333.9
595.892	14221.27
596.089	14157.78
596.286	14501.84
596.482	14342.1
596.679	14190.55
596.876	14389.2
597.072	13965.27
597.269	14051.28
597.466	14004.18
597.662	13928.41
597.859	14012.37
598.055	13885.4
598.252	14092.24
598.448	13776.86
598.645	13842.39
598.841	13479.9
599.038	13785.05
599.234	13653.98
599.431	13535.2
599.627	13461.47
599.824	13699.03
600.02	13514.72
600.217	13570.01
600.413	13481.95
600.609	13363.17
600.806	13295.58
601.002	13381.6
601.198	13135.84
601.395	13262.82
601.591	13156.32
601.787	13074.4
601.984	13031.4
602.18	13187.04
602.376	13062.12
602.572	12992.48
602.769	12861.41
602.965	12750.82
603.161	13010.92
603.357	12734.44
603.553	12967.91
603.75	12734.44
603.946	12527.6
604.142	12859.37
604.338	12460.01
604.534	12619.75
604.73	12478.44
604.926	12318.7
605.122	12464.11
605.318	12480.49
605.514	12410.86
605.71	12298.22
605.906	12474.35
606.102	12621.8
606.298	12134.39
606.494	12296.18
606.69	12435.44
606.886	12240.88
607.082	12191.73
607.278	12050.42
607.474	12023.8
607.67	12095.47
607.866	11745.27
608.062	12023.8
608.257	11911.16
608.453	11896.82
608.649	11839.48
608.845	11644.92
609.041	11667.45
609.236	11929.59
609.432	11835.38
609.628	11788.28
609.824	11839.48
610.019	11618.3
610.215	11571.19
610.411	11622.39
610.606	11460.6
610.802	11718.65
610.998	11653.11
611.193	11638.78
611.389	11448.32
611.584	11601.91
611.78	11472.89
611.976	11358.21
612.171	11231.23
612.367	11429.88
612.562	11497.47
612.758	11128.83
612.953	11225.09
613.149	11474.94
613.344	11198.46
613.539	11501.56
613.735	11143.17
613.93	11175.94
614.126	11085.83
614.321	11321.34
614.517	11175.94
614.712	11163.65
614.907	10952.71
615.103	11098.11
615.298	11194.37
615.493	11290.62
615.688	11118.59
615.884	11214.85
616.079	10921.99
616.274	11034.63
616.47	10905.6
616.665	10975.24
616.86	10967.04
617.055	10723.34
617.25	10858.5
617.445	10940.42
617.641	10860.55
617.836	10915.84
618.031	10668.04
618.226	10711.05
618.421	10536.97
618.616	10510.35
618.811	10295.31
619.006	10567.69
619.201	10354.7
619.396	10444.81
619.591	10237.97
619.786	10387.47
619.981	10197.01
620.176	10092.56
620.371	10227.73
620.566	10047.51
620.761	10123.28
620.956	10080.27
621.151	10072.08
621.346	10113.04
621.541	9879.57
621.735	9961.49
621.93	9850.9
622.125	9887.76
622.32	9920.53
622.515	9779.22
622.709	9572.38
622.904	9555.99
623.099	9414.68
623.294	9576.47
623.488	9672.73
623.683	9422.87
623.878	9562.14
624.072	9386.01
624.267	9310.24
624.462	9252.89
624.656	9168.93
624.851	9050.14
625.046	9084.96
625.24	9181.21
625.435	9052.19
625.629	8994.85
625.824	8839.2
626.018	9052.19
626.213	8806.44
626.407	8859.68
626.602	8607.78
626.796	8685.61
626.991	8644.65
627.185	8521.77
627.38	8482.86
627.574	8323.12
627.768	8398.89
627.963	8458.28
628.157	8390.7
628.352	8474.67
628.546	8323.12
628.74	8286.25
628.935	8142.89
629.129	8136.75
629.323	8007.73
629.517	8140.85
629.712	7929.91
629.906	7970.87
630.1	7823.41
630.294	7870.51
630.489	7786.55
630.683	8015.92
630.877	7745.59
631.071	7792.69
631.265	7665.72
631.459	7751.73
631.653	7604.28
631.848	7655.48
632.042	7571.51
632.236	7667.77
632.43	7710.77
632.624	7395.39
632.818	7147.58
633.012	7297.08
633.206	7333.95
633.4	7415.87
633.594	7252.03
633.788	7225.4
633.982	7123.01
634.176	7080
634.369	7172.16
634.563	7020.61
634.757	7047.23
634.951	7168.06
635.145	6895.68
635.339	6963.26
635.533	6928.45
635.726	6944.83
635.92	6856.77
636.114	6848.58
636.308	6815.81
636.501	6752.32
636.695	6643.78
636.889	6615.11
637.083	6654.02
637.276	6625.35
637.47	6512.71
637.664	6414.41
637.857	6549.57
638.051	6455.37
638.244	6307.91
638.438	6277.19
638.632	6365.26
638.825	6191.18
639.019	6275.15
639.212	6105.17
639.406	6152.27
639.599	6109.26
639.793	6391.88
639.986	6080.59
640.18	5871.7
640.373	6043.73
640.567	5959.76
640.76	5939.28
640.954	5980.24
641.147	5826.64
641.34	5843.03
641.534	5797.97
641.727	5709.91
641.92	5804.11
642.114	5709.91
642.307	5638.23
642.5	5494.87
642.694	5412.95
642.887	5642.32
643.08	5546.07
643.273	5595.22
643.467	5566.55
643.66	5560.41
643.853	5439.58
644.046	5439.58
644.239	5288.03
644.432	5349.47
644.626	5216.35
644.819	5292.12
645.012	5296.22
645.205	5320.79
645.398	5187.68
645.591	5300.31
645.784	5234.78
645.977	5122.14
646.17	5087.33
646.363	5009.5
646.556	5017.69
646.749	4968.54
646.942	4958.3
647.135	4900.96
647.328	4898.91
647.521	4816.99
647.714	4862.05
647.907	4851.81
648.099	4794.47
648.292	4788.32
648.485	4700.26
648.678	4741.22
648.871	4716.64
649.064	4712.55
649.256	4579.43
649.449	4556.9
649.642	4581.48
649.835	4657.25
650.027	4411.5
650.22	4544.61
650.413	4388.97
650.605	4522.09
650.798	4442.21
650.991	4436.07
651.183	4339.82
651.376	4370.54
651.568	4290.67
651.761	4204.65
651.954	4317.29
652.146	4358.25
652.339	4087.92
652.531	4208.75
652.724	4255.85
652.916	4096.11
653.109	4188.27
653.301	4178.03
653.494	4196.46
653.686	4014.19
653.879	4241.51
654.071	4085.87
654.263	3944.56
654.456	4044.91
654.648	4110.44
654.84	4034.67
655.033	3948.65
655.225	3965.04
655.417	3854.45
655.61	3844.21
655.802	3934.32
655.994	3807.34
656.186	3895.41
656.379	3778.67
656.571	3633.27
656.763	3692.66
656.955	3897.46
657.148	3786.86
657.34	3704.95
657.532	3715.19
657.724	3731.57
657.916	3704.95
658.108	3702.9
658.3	3567.73
658.492	3672.18
658.684	3604.6
658.876	3467.38
659.068	3598.45
659.26	3541.11
659.452	3551.35
659.644	3330.17
659.836	3342.46
660.028	3371.13
660.22	3451
660.412	3395.7
660.604	3465.33
660.796	3309.69
660.988	3330.17
661.18	3199.1
661.372	3221.63
661.563	3252.35
661.755	3145.85
661.947	3299.45
662.139	3227.77
662.331	3178.62
662.522	3164.28
662.714	3217.53
662.906	3151.99
663.097	3100.8
663.289	3158.14
663.481	3084.41
663.673	3174.52
663.864	3059.84
664.056	3022.97
664.247	2957.44
664.439	2975.87
664.631	3014.78
664.822	2973.82
665.014	2916.48
665.205	2949.25
665.397	2898.05
665.588	2910.33
665.78	2922.62
665.971	2887.81
666.163	2914.43
666.354	2859.14
666.546	2965.63
666.737	2836.61
666.929	2795.65
667.12	2740.35
667.311	2842.75
667.503	2771.07
667.694	2766.98
667.885	2742.4
668.077	2756.74
668.268	2758.78
668.459	2705.54
668.651	2668.67
668.842	2670.72
669.033	2785.41
669.224	2623.62
669.416	2676.87
669.607	2543.75
669.798	2695.3
669.989	2607.23
670.18	2467.97
670.371	2476.16
670.563	2558.08
670.754	2584.71
670.945	2467.97
671.136	2570.37
671.327	2588.8
671.518	2408.58
671.709	2504.84
671.9	2472.07
672.091	2459.78
672.282	2474.12
672.473	2386.05
672.664	2398.34
672.855	2353.29
673.046	2334.86
673.237	2338.95
673.428	2363.53
673.619	2443.4
673.809	2349.19
674	2351.24
674.191	2371.72
674.382	2394.25
674.573	2400.39
674.764	2240.65
674.954	2246.79
675.145	2377.86
675.336	2332.81
675.527	2144.39
675.717	2304.14
675.908	2302.09
676.099	2314.38
676.289	2267.27
676.48	2218.12
676.671	2175.11
676.861	2312.33
677.052	2285.7
677.243	2214.02
677.433	2220.17
677.624	2214.02
677.814	2199.69
678.005	2230.41
678.195	2254.98
678.386	2146.44
678.576	2191.5
678.767	2203.79
678.957	2211.98
679.148	2191.5
679.338	2156.68
679.529	2189.45
679.719	2125.96
679.909	2138.25
680.1	2187.4
680.29	2162.83
680.481	2156.68
680.671	2173.07
680.861	1968.27
681.052	2166.92
681.242	2187.4
681.432	2091.15
681.622	2058.38
681.813	2140.3
682.003	2107.53
682.193	2076.81
682.383	2023.56
682.573	2099.34
682.764	2035.85
682.954	1992.84
683.144	2162.83
683.334	1962.12
683.524	2132.11
683.714	2097.29
683.904	2025.61
684.094	2048.14
684.284	2078.86
684.474	2031.76
684.664	2031.76
684.854	1998.99
685.044	1943.69
685.234	2146.44
685.424	2089.1
685.614	2033.8
685.804	1929.36
685.994	2050.19
686.184	1990.8
686.374	1894.54
686.564	1958.03
686.753	2025.61
686.943	1865.87
687.133	1982.6
687.323	1939.6
687.513	1953.93
687.702	2023.56
687.892	1884.3
688.082	2056.33
688.272	2037.9
688.461	1869.97
688.651	1908.88
688.841	1912.97
689.03	1966.22
689.22	1874.06
689.41	1869.97
689.599	1837.2
689.789	1900.69
689.979	1892.49
690.168	1904.78
690.358	1921.17
690.547	1882.25
690.737	1853.58
690.926	1837.2
691.116	1939.6
691.305	1900.69
691.495	1935.5
691.684	1855.63
691.874	1861.77
692.063	1857.68
692.252	1826.96
692.442	1822.86
692.631	1691.79
692.82	1761.42
693.01	1878.16
693.199	1720.46
693.388	1818.77
693.578	1829.01
693.767	1751.18
693.956	1882.25
694.146	1755.28
694.335	1898.64
694.524	1769.62
694.713	1839.25
694.902	1738.9
695.092	1779.86
695.281	1742.99
695.47	1734.8
695.659	1794.19
695.848	1675.41
696.037	1693.84
696.226	1679.51
696.415	1669.27
696.604	1769.62
696.793	1820.81
696.982	1693.84
697.171	1702.03
697.36	1669.27
697.549	1753.23
697.738	1736.85
697.927	1765.52
698.116	1814.67
698.305	1632.4
698.494	1665.17
698.683	1613.97
698.872	1693.84
699.061	1659.03
699.25	1689.74
699.438	1747.09
699.627	1656.98
699.816	1763.47
700.005	1646.74
700.193	1691.79
700.382	1673.36
700.571	1624.21
700.76	1632.4
700.948	1648.79
701.137	1677.46
701.326	1763.47
701.514	1650.83
701.703	1728.66
701.892	1564.82
702.08	1597.59
702.269	1624.21
702.457	1648.79
702.646	1591.44
702.834	1568.91
703.023	1495.19
703.212	1648.79
703.4	1521.81
703.589	1503.38
703.777	1732.75
703.965	1585.3
704.154	1730.7
704.342	1525.91
704.531	1527.96
704.719	1548.44
704.907	1593.49
705.096	1607.83
705.284	1599.63
705.472	1532.05
705.661	1540.24
705.849	1513.62
706.037	1562.77
706.226	1446.04
706.414	1513.62
706.602	1566.87
706.79	1511.57
706.979	1525.91
707.167	1476.76
707.355	1564.82
707.543	1548.44
707.731	1499.28
707.919	1632.4
708.107	1435.8
708.296	1351.83
708.484	1515.67
708.672	1525.91
708.86	1487
709.048	1472.66
709.236	1556.63
709.424	1525.91
709.612	1458.32
709.8	1495.19
709.988	1392.79
710.176	1552.53
710.364	1349.78
710.551	1357.97
710.739	1415.32
710.927	1431.7
711.115	1452.18
711.303	1466.52
711.491	1460.37
711.679	1439.89
711.866	1392.79
712.054	1351.83
712.242	1435.8
712.43	1460.37
712.617	1409.17
712.805	1433.75
712.993	1327.25
713.181	1388.69
713.368	1378.45
713.556	1460.37
713.744	1325.21
713.931	1499.28
714.119	1425.56
714.306	1409.17
714.494	1460.37
714.682	1417.37
714.869	1407.13
715.057	1368.21
715.244	1341.59
715.432	1372.31
715.619	1374.36
715.807	1433.75
715.994	1321.11
716.182	1360.02
716.369	1368.21
716.556	1317.01
716.744	1458.32
716.931	1310.87
717.119	1419.41
717.306	1427.6
717.493	1396.89
717.681	1325.21
717.868	1343.64
718.055	1314.97
718.242	1302.68
718.43	1269.91
718.617	1294.49
718.804	1345.69
718.991	1306.77
719.179	1241.24
719.366	1243.29
719.553	1333.4
719.74	1294.49
719.927	1343.64
720.114	1306.77
720.301	1149.08
720.488	1300.63
720.676	1269.91
720.863	1280.15
721.05	1269.91
721.237	1247.38
721.424	1218.71
721.611	1286.3
721.798	1263.77
721.985	1196.18
722.172	1177.75
722.358	1163.42
722.545	1261.72
722.732	1155.23
722.919	1239.19
723.106	1290.39
723.293	1208.47
723.48	1165.46
723.667	1233.05
723.853	1245.34
724.04	1171.61
724.227	1249.43
724.414	1173.66
724.6	1286.3
724.787	1142.94
724.974	1218.71
725.161	1233.05
725.347	1169.56
725.534	1237.14
725.72	1245.34
725.907	1165.46
726.094	1196.18
726.28	1130.65
726.467	1175.7
726.653	1192.09
726.84	1210.52
727.027	1151.13
727.213	1192.09
727.4	1048.73
727.586	1196.18
727.773	1077.4
727.959	1052.83
728.145	1063.07
728.332	1214.62
728.518	1196.18
728.705	1067.16
728.891	1097.88
729.077	1112.22
729.264	1233.05
729.45	1120.41
729.636	1095.83
729.823	1128.6
730.009	1099.93
730.195	1136.79
730.382	1056.92
730.568	1167.51
730.754	1091.74
730.94	1134.75
731.126	1196.18
731.313	1159.32
731.499	1073.31
731.685	1175.7
731.871	1130.65
732.057	1171.61
732.243	1042.59
732.429	1091.74
732.615	1228.95
732.801	1126.55
732.987	1106.07
733.173	993.44
733.359	1226.9
733.545	1138.84
733.731	1056.92
733.917	1138.84
734.103	1104.03
734.289	1157.27
734.475	1106.07
734.661	1011.87
734.847	1175.7
735.033	1130.65
735.219	1069.21
735.404	1061.02
735.59	1077.4
735.776	1048.73
735.962	1026.2
736.148	1140.89
736.333	1077.4
736.519	1108.12
736.705	1099.93
736.89	1063.07
737.076	977.05
737.262	1093.79
737.447	985.24
737.633	1083.55
737.819	1063.07
738.004	1011.87
738.19	1011.87
738.375	1034.39
738.561	1050.78
738.747	1046.68
738.932	950.43
739.118	995.48
739.303	987.29
739.489	1087.64
739.674	977.05
739.859	983.2
740.045	954.52
740.23	979.1
740.416	995.48
740.601	1063.07
740.786	1036.44
740.972	977.05
741.157	1032.35
741.342	1015.96
741.528	999.58
741.713	952.48
741.898	1040.54
742.084	968.86
742.269	983.2
742.454	972.96
742.639	968.86
742.824	999.58
743.01	938.14
743.195	956.57
743.38	858.27
743.565	960.67
743.75	927.9
743.935	989.34
744.12	950.43
744.305	981.15
744.49	950.43
744.675	858.27
744.86	942.24
745.045	991.39
745.23	921.76
745.415	917.66
745.6	954.52
745.785	925.85
745.97	905.37
746.155	841.89
746.34	915.61
746.525	907.42
746.71	905.37
746.895	860.32
747.079	823.45
747.264	762.02
747.449	934.04
747.634	878.75
747.819	755.87
748.003	854.17
748.188	782.49
748.373	858.27
748.557	788.64
748.742	837.79
748.927	876.7
749.111	886.94
749.296	755.87
749.481	854.17
749.665	714.91
749.85	669.86
750.034	860.32
750.219	749.73
750.404	852.13
750.588	835.74
750.773	792.73
750.957	753.82
751.141	745.63
751.326	807.07
751.51	794.78
751.695	757.92
751.879	782.49
752.064	757.92
752.248	764.06
752.432	714.91
752.617	749.73
752.801	737.44
752.985	686.24
753.17	723.1
753.354	671.9
753.538	657.57
753.722	706.72
753.907	684.19
754.091	702.62
754.275	659.62
754.459	698.53
754.643	690.34
754.828	714.91
755.012	620.71
755.196	649.38
755.38	628.9
755.564	663.71
755.748	657.57
755.932	587.94
756.116	620.71
756.3	579.75
756.484	669.86
756.668	579.75
756.852	532.64
757.036	583.84
757.22	655.52
757.404	630.95
757.588	544.93
757.772	565.41
757.956	596.13
758.14	551.07
758.323	614.56
758.507	559.27
758.691	532.64
758.875	626.85
759.059	596.13
759.242	544.93
759.426	553.12
759.61	583.84
759.794	618.66
759.977	501.92
760.161	606.37
760.345	546.98
760.528	583.84
760.712	450.72
760.895	553.12
761.079	596.13
761.263	567.46
761.446	635.04
761.63	563.36
761.813	497.83
761.997	577.7
762.18	540.83
762.364	483.49
762.547	471.2
762.731	561.31
762.914	542.88
763.098	510.11
763.281	532.64
763.464	366.76
763.648	477.35
763.831	538.79
764.015	331.94
764.198	512.16
764.381	479.4
764.564	495.78
764.748	536.74
764.931	551.07
765.114	542.88
765.297	514.21
765.481	522.4
765.664	463.01
765.847	450.72
766.03	557.22
766.213	510.11
766.397	456.87
766.58	485.54
766.763	426.15
766.946	473.25
767.129	516.26
767.312	426.15
767.495	458.92
767.678	467.11
767.861	506.02
768.044	448.68
768.227	456.87
768.41	397.48
768.593	467.11
768.776	426.15
768.959	481.44
769.142	450.72
769.324	481.44
769.507	446.63
769.69	368.81
769.873	426.15
770.056	360.61
770.239	430.24
770.421	434.34
770.604	422.05
770.787	395.43
770.97	385.19
771.152	383.14
771.335	495.78
771.518	450.72
771.7	493.73
771.883	397.48
772.066	405.67
772.248	426.15
772.431	458.92
772.613	422.05
772.796	338.09
772.978	377
773.161	422.05
773.343	389.28
773.526	352.42
773.708	379.04
773.891	434.34
774.073	411.81
774.256	342.18
774.438	422.05
774.621	426.15
774.803	323.75
774.985	340.13
775.168	405.67
775.35	370.85
775.532	344.23
775.715	393.38
775.897	393.38
776.079	379.04
776.261	350.37
776.444	278.69
776.626	379.04
776.808	323.75
776.99	411.81
777.173	342.18
777.355	336.04
777.537	303.27
777.719	409.76
777.901	352.42
778.083	278.69
778.265	356.52
778.447	354.47
778.629	362.66
778.811	417.96
778.993	243.88
779.175	297.13
779.357	204.97
779.539	354.47
779.721	280.74
779.903	313.51
780.085	381.09
780.267	293.03
780.449	303.27
780.631	393.38
780.812	254.12
780.994	258.21
781.176	293.03
781.358	313.51
781.54	311.46
781.721	333.99
781.903	295.08
782.085	293.03
782.267	243.88
782.448	286.89
782.63	270.5
782.812	278.69
782.993	264.36
783.175	331.94
783.357	196.78
783.538	276.65
783.72	258.21
783.901	358.57
784.083	247.97
784.264	301.22
784.446	280.74
784.627	245.93
784.809	196.78
784.99	270.5
785.172	133.29
785.353	270.5
785.535	247.97
785.716	204.97
785.897	301.22
786.079	207.02
786.26	264.36
786.441	254.12
786.623	278.69
786.804	213.16
786.985	221.35
787.167	213.16
787.348	313.51
787.529	213.16
787.71	223.4
787.891	268.45
788.073	209.06
788.254	172.2
788.435	239.78
788.616	260.26
788.797	215.21
788.978	141.48
789.159	200.87
789.34	164.01
789.522	178.34
789.703	121
789.884	155.82
790.065	139.43
790.246	213.16
790.427	204.97
790.607	252.07
790.788	161.96
790.969	231.59
791.15	213.16
791.331	174.25
791.512	229.54
791.693	198.82
791.874	221.35
792.054	260.26
792.235	207.02
792.416	258.21
792.597	202.92
792.778	110.76
792.958	147.62
793.139	209.06
793.32	180.39
793.5	121
793.681	170.15
793.862	125.1
794.042	114.86
794.223	100.52
794.404	188.58
794.584	147.62
794.765	157.86
794.945	168.1
795.126	170.15
795.306	157.86
795.487	139.43
795.667	106.67
795.848	114.86
796.028	184.49
796.209	149.67
796.389	192.68
796.57	92.33
796.75	88.23
796.93	225.45
797.111	135.34
797.291	151.72
797.471	145.58
797.652	202.92
797.832	141.48
798.012	114.86
798.192	131.24
798.373	121
798.553	110.76
798.733	123.05
798.913	92.33
799.093	90.28
799.274	125.1
799.454	145.58
799.634	174.25
799.814	139.43
799.994	137.38
800.174	170.15
800.354	75.95
800.534	82.09
800.714	98.47
800.894	34.99
801.074	57.51
801.254	153.77
801.434	133.29
801.614	80.04
801.794	88.23
801.974	346.28
802.154	121
802.334	166.06
802.514	174.25
802.693	71.85
802.873	106.67
803.053	110.76
803.233	159.91
803.413	77.99
803.592	61.61
803.772	39.08
803.952	125.1
804.131	43.18
804.311	108.71
804.491	135.34
804.67	45.23
804.85	129.19
805.03	129.19
805.209	155.82
805.389	53.42
805.568	77.99
805.748	131.24
805.928	67.75
806.107	53.42
806.287	104.62
806.466	88.23
806.646	123.05
806.825	110.76
807.004	106.67
807.184	164.01
807.363	73.9
807.543	125.1
807.722	94.38
807.901	125.1
808.081	135.34
808.26	100.52
808.439	65.71
808.619	12.46
808.798	102.57
808.977	49.32
809.156	53.42
809.336	110.76
809.515	88.23
809.694	133.29
809.873	131.24
810.052	125.1
810.231	-8.02
810.411	143.53
810.59	100.52
810.769	67.75
810.948	77.99
811.127	41.13
811.306	100.52
811.485	90.28
811.664	82.09
811.843	-8.02
812.022	77.99
812.201	63.66
812.38	63.66
812.559	86.19
812.737	141.48
812.916	104.62
813.095	77.99
813.274	86.19
813.453	53.42
813.632	80.04
813.811	102.57
813.989	32.94
814.168	55.47
814.347	-10.07
814.526	77.99
814.704	92.33
814.883	20.65
815.062	92.33
815.24	133.29
815.419	49.32
815.598	71.85
815.776	32.94
815.955	80.04
816.133	24.75
816.312	61.61
816.49	61.61
816.669	55.47
816.847	47.27
817.026	8.36
817.204	41.13
817.383	37.03
817.561	67.75
817.74	90.28
817.918	90.28
818.097	75.95
818.275	41.13
818.453	98.47
818.632	53.42
818.81	110.76
818.988	82.09
819.167	129.19
819.345	155.82
819.523	73.9
819.701	8.36
819.879	141.48
820.058	84.14
820.236	22.7
820.414	61.61
820.592	143.53
820.77	43.18
820.948	86.19
821.127	43.18
821.305	157.86
821.483	47.27
821.661	98.47
821.839	41.13
822.017	8.36
822.195	-18.26
822.373	57.51
822.551	49.32
822.729	4.27
822.907	41.13
823.085	90.28
823.262	116.9
823.44	129.19
823.618	67.75
823.796	77.99
823.974	47.27
824.152	63.66
824.329	14.51
824.507	12.46
824.685	49.32
824.863	94.38
825.04	80.04
825.218	112.81
825.396	32.94
825.574	22.7
825.751	47.27
825.929	41.13
826.107	-63.32
826.284	16.55
826.462	16.55
826.639	-3.93
826.817	92.33
826.994	100.52
827.172	59.56
827.349	71.85
827.527	-22.36
827.704	-26.45
827.882	32.94
828.059	41.13
828.237	-22.36
828.414	92.33
828.591	73.9
828.769	12.46
828.946	100.52
829.124	100.52
829.301	34.99
829.478	24.75
829.655	75.95
829.833	37.03
830.01	28.84
830.187	34.99
830.364	37.03
830.542	55.47
830.719	112.81
830.896	90.28
831.073	82.09
831.25	45.23
831.427	34.99
831.604	32.94
831.782	-22.36
831.959	69.8
832.136	82.09
832.313	41.13
832.49	39.08
832.667	18.6
832.844	-20.31
833.021	51.37
833.198	2.22
833.374	37.03
833.551	45.23
833.728	94.38
833.905	45.23
834.082	71.85
834.259	75.95
834.436	24.75
834.612	90.28
834.789	43.18
834.966	28.84
835.143	77.99
835.319	32.94
835.496	77.99
835.673	75.95
835.85	98.47
836.026	92.33
836.203	73.9
836.38	24.75
836.556	43.18
836.733	80.04
836.909	20.65
837.086	-48.98
837.262	47.27
837.439	77.99
837.616	-38.74
837.792	80.04
837.968	32.94
838.145	-30.55
838.321	24.75
838.498	26.79
838.674	-28.5
838.851	-5.97
839.027	-20.31
839.203	-8.02
839.38	63.66
839.556	86.19
839.732	6.31
839.909	55.47
840.085	67.75
840.261	12.46
840.437	71.85
840.614	30.89
840.79	43.18
840.966	49.32
841.142	47.27
841.318	34.99
841.494	-48.98
841.671	73.9
841.847	-5.97
842.023	63.66
842.199	53.42
842.375	16.55
842.551	55.47
842.727	12.46
842.903	39.08
843.079	65.71
843.255	69.8
843.431	49.32
843.607	8.36
843.783	-40.79
843.959	77.99
844.134	16.55
844.31	63.66
844.486	34.99
844.662	43.18
844.838	47.27
845.013	-20.31
845.189	59.56
845.365	84.14
845.541	14.51
845.716	18.6
845.892	43.18
846.068	61.61
846.244	59.56
846.419	37.03
846.595	34.99
846.77	61.61
846.946	88.23
847.122	51.37
847.297	55.47
847.473	123.05
847.648	57.51
847.824	45.23
847.999	-12.12
848.175	65.71
848.35	12.46
848.526	16.55
848.701	63.66
848.876	61.61
849.052	32.94
849.227	28.84
849.403	69.8
849.578	49.32
849.753	43.18
849.929	10.41
850.104	22.7
850.279	92.33
850.454	6.31
850.63	30.89
850.805	45.23
850.98	4.27
851.155	-40.79
851.33	26.79
851.505	-34.64
851.681	16.55
851.856	51.37
852.031	6.31
852.206	45.23
852.381	22.7
852.556	6.31
852.731	-3.93
852.906	0.17
853.081	53.42
853.256	10.41
853.431	24.75
853.606	-8.02
853.781	-8.02
853.956	47.27
854.131	37.03
854.305	98.47
854.48	0.17
854.655	28.84
854.83	28.84
855.005	6.31
855.18	98.47
855.354	8.36
855.529	90.28
855.704	12.46
855.879	4.27
856.053	37.03
856.228	-59.22
856.403	12.46
856.577	20.65
856.752	30.89
856.926	4.27
857.101	6.31
857.276	12.46
857.45	34.99
857.625	-48.98
857.799	14.51
857.974	37.03
858.148	14.51
858.323	24.75
858.497	32.94
858.672	16.55
858.846	6.31
859.02	4.27
859.195	-85.84
859.369	34.99
859.543	32.94
859.718	18.6
859.892	-16.21
860.066	-3.93
860.241	4.27
860.415	30.89
860.589	55.47
860.763	108.71
860.938	4.27
861.112	-20.31
861.286	-5.97
861.46	47.27
861.634	30.89
861.808	69.8
861.982	-3.93
862.157	-36.69
862.331	49.32
862.505	24.75
862.679	10.41
862.853	84.14
863.027	24.75
863.201	8.36
863.375	-5.97
863.549	-30.55
863.722	-18.26
863.896	45.23
864.07	-20.31
864.244	75.95
864.418	16.55
864.592	2.22
864.766	22.7
864.939	49.32
865.113	-40.79
865.287	61.61
865.461	-30.55
865.634	-16.21
865.808	47.27
865.982	-3.93
866.156	-26.45
866.329	-8.02
866.503	0.17
866.676	16.55
866.85	-44.88
867.024	71.85
867.197	82.09
867.371	26.79
867.544	-22.36
867.718	39.08
867.891	84.14
868.065	-12.12
868.238	-55.12
868.412	8.36
868.585	6.31
868.759	22.7
868.932	16.55
869.105	16.55
869.279	-108.37
869.452	45.23
869.625	-24.4
869.799	53.42
869.972	-20.31
870.145	8.36
870.319	-34.64
870.492	82.09
870.665	47.27
870.838	32.94
871.011	77.99
871.185	43.18
871.358	-26.45
871.531	67.75
871.704	-12.12
871.877	-18.26
872.05	-44.88
872.223	75.95
872.396	65.71
872.569	63.66
872.742	26.79
872.915	26.79
873.088	53.42
873.261	-16.21
873.434	24.75
873.607	57.51
873.78	20.65
873.953	37.03
874.126	-3.93
874.299	90.28
874.471	-46.93
874.644	67.75
874.817	-12.12
874.99	57.51
875.163	-18.26
875.335	45.23
875.508	-22.36
875.681	-1.88
875.853	34.99
876.026	2.22
876.199	-18.26
876.371	-63.32
876.544	61.61
876.717	-71.51
876.889	53.42
877.062	26.79
877.234	4.27
877.407	24.75
877.579	-36.69
877.752	12.46
877.924	22.7
878.097	14.51
878.269	-46.93
878.442	-18.26
878.614	28.84
878.786	-24.4
878.959	18.6
879.131	-14.17
879.303	-55.12
879.476	24.75
879.648	-18.26
879.82	-22.36
879.993	12.46
880.165	-81.75
880.337	-36.69
880.509	6.31
880.681	-1.88
880.854	-24.4
881.026	-48.98
881.198	55.47
881.37	-61.27
881.542	37.03
881.714	-12.12
881.886	49.32
882.058	-3.93
882.23	47.27
882.402	24.75
882.574	88.23
882.746	47.27
882.918	73.9
883.09	18.6
883.262	6.31
883.434	2.22
883.606	-36.69
883.778	43.18
883.95	-14.17
884.122	-5.97
884.293	-3.93
884.465	-22.36
884.637	51.37
884.809	-26.45
884.98	-18.26
885.152	41.13
885.324	-53.08
885.496	-3.93
885.667	6.31
885.839	34.99
886.011	-40.79
886.182	-24.4
886.354	49.32
886.525	-16.21
886.697	53.42
886.869	-22.36
887.04	32.94
887.212	-22.36
887.383	39.08
887.555	2.22
887.726	32.94
887.897	43.18
888.069	-18.26
888.24	-8.02
888.412	55.47
888.583	41.13
888.754	18.6
888.926	-34.64
889.097	20.65
889.268	-5.97
889.44	14.51
889.611	-75.6
889.782	-30.55
889.953	-12.12
890.125	34.99
890.296	0.17
890.467	-32.6
890.638	86.19
890.809	10.41
890.98	10.41
891.151	49.32
891.323	39.08
891.494	34.99
891.665	0.17
891.836	63.66
892.007	-57.17
892.178	-16.21
892.349	-32.6
892.52	12.46
892.691	24.75
892.862	-38.74
893.032	-73.56
893.203	-36.69
893.374	-24.4
893.545	61.61
893.716	18.6
893.887	69.8
894.057	73.9
894.228	8.36
894.399	-12.12
894.57	2.22
894.74	47.27
894.911	47.27
895.082	4.27
895.253	-14.17
895.423	18.6
895.594	-5.97
895.764	-22.36
895.935	-59.22
896.106	-73.56
896.276	-1.88
896.447	28.84
896.617	12.46
896.788	51.37
896.958	-34.64
897.129	-8.02
897.299	34.99
897.47	118.95
897.64	-36.69
897.81	0.17
897.981	12.46
898.151	-10.07
898.322	-61.27
898.492	0.17
898.662	-22.36
898.832	-22.36
899.003	-48.98
899.173	14.51
899.343	32.94
899.513	61.61
