Data from USB4F104151__60__12-59-22-552.txt Node

Date: Fri Mar 14 12:59:22 EDT 2025
User: louis
Spectrometer: USB4F10415
Trigger mode: 4
Integration Time (sec): 1.000000E-2
Scans to average: 1
Electric dark correction enabled: true
Nonlinearity correction enabled: false
Boxcar width: 0
XAxis mode: Wavelengths
Number of Pixels in Spectrum: 3648
>>>>>Begin Spectral Data<<<<<
178.204	-29.01
178.424	-29.01
178.644	-29.01
178.864	-31.06
179.084	-8.53
179.304	-47.44
179.524	11.95
179.744	7.85
179.964	-24.92
180.184	73.39
180.404	11.95
180.624	-12.63
180.844	16.04
181.064	-8.53
181.283	7.85
181.503	-37.2
181.723	1.71
181.943	89.77
182.163	44.71
182.383	-10.58
182.602	-24.92
182.822	50.86
183.042	122.54
183.262	38.57
183.482	9.9
183.701	-16.73
183.921	18.09
184.141	18.09
184.361	1.71
184.58	-12.63
184.8	44.71
185.02	-31.06
185.239	24.23
185.459	-72.02
185.679	-2.39
185.898	-24.92
186.118	44.71
186.338	87.72
186.557	104.11
186.777	11.95
186.997	57
187.216	1.71
187.436	-2.39
187.655	18.09
187.875	30.38
188.095	-26.96
188.314	5.8
188.534	59.05
188.753	-2.39
188.973	22.19
189.192	1.71
189.412	-63.83
189.631	24.23
189.851	38.57
190.07	46.76
190.29	-45.4
190.509	32.43
190.729	-10.58
190.948	-8.53
191.168	59.05
191.387	67.24
191.607	54.95
191.826	-22.87
192.045	61.1
192.265	-4.44
192.484	69.29
192.704	-80.21
192.923	40.62
193.142	-6.49
193.362	-12.63
193.581	54.95
193.8	18.09
194.02	30.38
194.239	1.71
194.458	-2.39
194.678	13.99
194.897	-8.53
195.116	59.05
195.335	42.67
195.555	22.19
195.774	73.39
195.993	38.57
196.212	91.82
196.432	36.52
196.651	50.86
196.87	26.28
197.089	48.81
197.308	-8.53
197.528	22.19
197.747	11.95
197.966	54.95
198.185	13.99
198.404	40.62
198.623	65.19
198.842	59.05
199.062	28.33
199.281	13.99
199.5	-45.4
199.719	-6.49
199.938	57
200.157	50.86
200.376	5.8
200.595	71.34
200.814	26.28
201.033	95.91
201.252	102.06
201.471	34.47
201.69	-51.54
201.909	42.67
202.128	34.47
202.347	18.09
202.566	48.81
202.785	24.23
203.004	20.14
203.223	22.19
203.442	-4.44
203.661	24.23
203.879	-10.58
204.098	95.91
204.317	75.43
204.536	16.04
204.755	-0.34
204.974	5.8
205.193	73.39
205.411	40.62
205.63	-8.53
205.849	77.48
206.068	-35.16
206.287	-45.4
206.505	65.19
206.724	63.15
206.943	-16.73
207.162	-2.39
207.381	-33.11
207.599	-24.92
207.818	18.09
208.037	22.19
208.255	30.38
208.474	52.91
208.693	-26.96
208.911	52.91
209.13	38.57
209.349	34.47
209.567	48.81
209.786	54.95
210.005	-10.58
210.223	34.47
210.442	-6.49
210.661	3.75
210.879	34.47
211.098	26.28
211.316	65.19
211.535	-57.68
211.753	-4.44
211.972	-37.2
212.191	136.87
212.409	52.91
212.628	11.95
212.846	-24.92
213.065	81.58
213.283	32.43
213.502	-26.96
213.72	50.86
213.938	36.52
214.157	87.72
214.375	-20.82
214.594	-35.16
214.812	85.67
215.031	-18.77
215.249	-26.96
215.467	-8.53
215.686	-43.35
215.904	22.19
216.122	32.43
216.341	18.09
216.559	36.52
216.778	63.15
216.996	54.95
217.214	32.43
217.432	46.76
217.651	18.09
217.869	-0.34
218.087	13.99
218.306	-43.35
218.524	63.15
218.742	3.75
218.96	83.63
219.179	-16.73
219.397	18.09
219.615	57
219.833	-14.68
220.051	-39.25
220.27	52.91
220.488	16.04
220.706	38.57
220.924	67.24
221.142	16.04
221.36	-2.39
221.578	40.62
221.796	18.09
222.015	61.1
222.233	20.14
222.451	95.91
222.669	13.99
222.887	11.95
223.105	83.63
223.323	91.82
223.541	13.99
223.759	40.62
223.977	-4.44
224.195	102.06
224.413	61.1
224.631	-6.49
224.849	-55.64
225.067	13.99
225.285	42.67
225.503	32.43
225.721	42.67
225.939	46.76
226.157	40.62
226.375	104.11
226.592	34.47
226.81	22.19
227.028	1.71
227.246	57
227.464	11.95
227.682	122.54
227.9	48.81
228.117	69.29
228.335	-2.39
228.553	42.67
228.771	87.72
228.989	20.14
229.206	75.43
229.424	-4.44
229.642	9.9
229.86	-0.34
230.077	18.09
230.295	7.85
230.513	44.71
230.731	89.77
230.948	20.14
231.166	108.2
231.384	36.52
231.601	20.14
231.819	24.23
232.037	-0.34
232.254	93.87
232.472	48.81
232.689	79.53
232.907	91.82
233.125	13.99
233.342	-51.54
233.56	112.3
233.777	-69.97
233.995	22.19
234.213	93.87
234.43	-6.49
234.648	69.29
234.865	7.85
235.083	26.28
235.3	-18.77
235.518	5.8
235.735	28.33
235.953	-8.53
236.17	61.1
236.388	-8.53
236.605	93.87
236.822	65.19
237.04	11.95
237.257	59.05
237.475	42.67
237.692	95.91
237.909	28.33
238.127	3.75
238.344	18.09
238.562	-10.58
238.779	7.85
238.996	-10.58
239.214	1.71
239.431	61.1
239.648	-8.53
239.865	52.91
240.083	42.67
240.3	-37.2
240.517	42.67
240.735	-12.63
240.952	11.95
241.169	16.04
241.386	38.57
241.603	18.09
241.821	11.95
242.038	69.29
242.255	79.53
242.472	24.23
242.689	79.53
242.907	38.57
243.124	28.33
243.341	65.19
243.558	50.86
243.775	18.09
243.992	20.14
244.209	54.95
244.426	87.72
244.643	48.81
244.86	-6.49
245.078	95.91
245.295	18.09
245.512	18.09
245.729	9.9
245.946	54.95
246.163	-6.49
246.38	26.28
246.597	-63.83
246.814	46.76
247.031	77.48
247.248	42.67
247.464	18.09
247.681	85.67
247.898	-8.53
248.115	44.71
248.332	-29.01
248.549	20.14
248.766	46.76
248.983	24.23
249.2	-35.16
249.417	36.52
249.633	40.62
249.85	-24.92
250.067	-26.96
250.284	42.67
250.501	-14.68
250.717	79.53
250.934	71.34
251.151	5.8
251.368	-6.49
251.585	16.04
251.801	38.57
252.018	46.76
252.235	34.47
252.451	22.19
252.668	46.76
252.885	65.19
253.102	30.38
253.318	24.23
253.535	7.85
253.752	26.28
253.968	34.47
254.185	30.38
254.401	-8.53
254.618	13.99
254.835	32.43
255.051	5.8
255.268	50.86
255.484	24.23
255.701	-31.06
255.917	22.19
256.134	-35.16
256.351	-8.53
256.567	-84.31
256.784	24.23
257	-57.68
257.217	91.82
257.433	28.33
257.65	97.96
257.866	20.14
258.082	85.67
258.299	7.85
258.515	59.05
258.732	-29.01
258.948	18.09
259.165	79.53
259.381	95.91
259.597	34.47
259.814	52.91
260.03	5.8
260.246	-10.58
260.463	75.43
260.679	-16.73
260.895	-6.49
261.112	26.28
261.328	24.23
261.544	102.06
261.761	28.33
261.977	11.95
262.193	40.62
262.409	79.53
262.626	30.38
262.842	73.39
263.058	59.05
263.274	30.38
263.49	46.76
263.707	-2.39
263.923	-8.53
264.139	1.71
264.355	-31.06
264.571	87.72
264.787	-0.34
265.004	34.47
265.22	48.81
265.436	118.44
265.652	93.87
265.868	-10.58
266.084	-8.53
266.3	-18.77
266.516	-10.58
266.732	3.75
266.948	77.48
267.164	26.28
267.38	-24.92
267.596	44.71
267.812	69.29
268.028	65.19
268.244	13.99
268.46	24.23
268.676	83.63
268.892	50.86
269.108	40.62
269.324	28.33
269.54	59.05
269.756	44.71
269.972	-10.58
270.188	57
270.403	26.28
270.619	-4.44
270.835	46.76
271.051	77.48
271.267	-31.06
271.483	69.29
271.698	46.76
271.914	48.81
272.13	36.52
272.346	-35.16
272.562	-10.58
272.777	50.86
272.993	24.23
273.209	38.57
273.425	-0.34
273.64	50.86
273.856	73.39
274.072	-6.49
274.287	34.47
274.503	46.76
274.719	83.63
274.934	22.19
275.15	-16.73
275.366	38.57
275.581	79.53
275.797	-43.35
276.012	71.34
276.228	30.38
276.444	18.09
276.659	63.15
276.875	36.52
277.09	9.9
277.306	-6.49
277.521	89.77
277.737	67.24
277.952	71.34
278.168	7.85
278.383	30.38
278.599	-20.82
278.814	7.85
279.03	-18.77
279.245	36.52
279.461	46.76
279.676	-4.44
279.892	11.95
280.107	38.57
280.322	-0.34
280.538	20.14
280.753	-29.01
280.969	26.28
281.184	61.1
281.399	52.91
281.615	54.95
281.83	16.04
282.045	36.52
282.26	50.86
282.476	57
282.691	59.05
282.906	-16.73
283.122	71.34
283.337	24.23
283.552	22.19
283.767	-29.01
283.983	11.95
284.198	57
284.413	61.1
284.628	30.38
284.843	26.28
285.058	34.47
285.274	130.73
285.489	28.33
285.704	124.58
285.919	7.85
286.134	13.99
286.349	40.62
286.564	-39.25
286.779	38.57
286.995	83.63
287.21	18.09
287.425	22.19
287.64	-63.83
287.855	24.23
288.07	59.05
288.285	16.04
288.5	112.3
288.715	42.67
288.93	16.04
289.145	54.95
289.36	46.76
289.575	13.99
289.79	71.34
290.004	112.3
290.219	97.96
290.434	48.81
290.649	5.8
290.864	67.24
291.079	18.09
291.294	95.91
291.509	28.33
291.724	67.24
291.938	57
292.153	52.91
292.368	42.67
292.583	38.57
292.798	44.71
293.012	89.77
293.227	5.8
293.442	24.23
293.657	-10.58
293.871	40.62
294.086	30.38
294.301	63.15
294.516	-16.73
294.73	91.82
294.945	-24.92
295.16	40.62
295.374	46.76
295.589	3.75
295.804	-33.11
296.018	18.09
296.233	-4.44
296.447	44.71
296.662	83.63
296.877	83.63
297.091	54.95
297.306	22.19
297.52	44.71
297.735	20.14
297.949	44.71
298.164	65.19
298.378	-31.06
298.593	63.15
298.807	-29.01
299.022	65.19
299.236	7.85
299.451	36.52
299.665	73.39
299.88	65.19
300.094	28.33
300.309	18.09
300.523	85.67
300.737	42.67
300.952	-12.63
301.166	32.43
301.381	38.57
301.595	22.19
301.809	104.11
302.024	112.3
302.238	48.81
302.452	91.82
302.667	-29.01
302.881	26.28
303.095	87.72
303.309	-2.39
303.524	26.28
303.738	32.43
303.952	44.71
304.166	73.39
304.381	1.71
304.595	-6.49
304.809	69.29
305.023	67.24
305.237	30.38
305.452	38.57
305.666	75.43
305.88	-31.06
306.094	67.24
306.308	95.91
306.522	57
306.736	65.19
306.95	42.67
307.164	100.01
307.379	5.8
307.593	-16.73
307.807	38.57
308.021	7.85
308.235	1.71
308.449	48.81
308.663	9.9
308.877	54.95
309.091	24.23
309.305	18.09
309.519	59.05
309.733	63.15
309.947	24.23
310.161	38.57
310.374	79.53
310.588	26.28
310.802	1.71
311.016	9.9
311.23	61.1
311.444	-18.77
311.658	-29.01
311.872	87.72
312.085	16.04
312.299	16.04
312.513	46.76
312.727	65.19
312.941	-18.77
313.154	34.47
313.368	50.86
313.582	22.19
313.796	50.86
314.009	11.95
314.223	-6.49
314.437	87.72
314.651	106.15
314.864	61.1
315.078	1.71
315.292	38.57
315.505	24.23
315.719	22.19
315.933	40.62
316.146	83.63
316.36	-0.34
316.573	87.72
316.787	-8.53
317.001	42.67
317.214	32.43
317.428	7.85
317.641	7.85
317.855	40.62
318.068	1.71
318.282	40.62
318.495	-14.68
318.709	-12.63
318.922	50.86
319.136	40.62
319.349	38.57
319.563	-6.49
319.776	48.81
319.99	54.95
320.203	-18.77
320.417	81.58
320.63	65.19
320.843	61.1
321.057	-8.53
321.27	63.15
321.483	-4.44
321.697	59.05
321.91	1.71
322.124	79.53
322.337	18.09
322.55	-31.06
322.763	9.9
322.977	63.15
323.19	1.71
323.403	114.34
323.617	59.05
323.83	-63.83
324.043	26.28
324.256	38.57
324.469	-8.53
324.683	16.04
324.896	57
325.109	38.57
325.322	38.57
325.535	-35.16
325.748	7.85
325.962	32.43
326.175	-14.68
326.388	16.04
326.601	77.48
326.814	13.99
327.027	48.81
327.24	110.25
327.453	24.23
327.666	67.24
327.879	65.19
328.092	16.04
328.305	42.67
328.518	38.57
328.731	61.1
328.944	34.47
329.157	69.29
329.37	50.86
329.583	118.44
329.796	42.67
330.009	-72.02
330.222	40.62
330.435	-6.49
330.648	42.67
330.861	91.82
331.073	108.2
331.286	155.3
331.499	28.33
331.712	24.23
331.925	46.76
332.138	40.62
332.35	97.96
332.563	30.38
332.776	-31.06
332.989	59.05
333.202	18.09
333.414	95.91
333.627	75.43
333.84	18.09
334.053	-49.49
334.265	-6.49
334.478	30.38
334.691	42.67
334.903	26.28
335.116	-6.49
335.329	71.34
335.541	59.05
335.754	22.19
335.966	32.43
336.179	-2.39
336.392	-6.49
336.604	28.33
336.817	32.43
337.029	46.76
337.242	18.09
337.454	93.87
337.667	-45.4
337.88	106.15
338.092	20.14
338.305	54.95
338.517	-8.53
338.729	91.82
338.942	102.06
339.154	-63.83
339.367	16.04
339.579	28.33
339.792	16.04
340.004	57
340.217	-18.77
340.429	32.43
340.641	42.67
340.854	73.39
341.066	-2.39
341.278	75.43
341.491	36.52
341.703	5.8
341.915	-2.39
342.128	44.71
342.34	81.58
342.552	13.99
342.764	57
342.977	-22.87
343.189	75.43
343.401	85.67
343.613	34.47
343.826	-65.88
344.038	-12.63
344.25	22.19
344.462	-10.58
344.674	79.53
344.886	34.47
345.099	38.57
345.311	5.8
345.523	-26.96
345.735	65.19
345.947	63.15
346.159	-22.87
346.371	38.57
346.583	22.19
346.795	122.54
347.007	67.24
347.219	126.63
347.431	-20.82
347.643	42.67
347.855	-41.3
348.067	9.9
348.279	5.8
348.491	24.23
348.703	-43.35
348.915	59.05
349.127	7.85
349.339	34.47
349.551	69.29
349.763	-2.39
349.975	44.71
350.187	42.67
350.399	44.71
350.61	65.19
350.822	-29.01
351.034	-10.58
351.246	36.52
351.458	71.34
351.669	22.19
351.881	61.1
352.093	13.99
352.305	91.82
352.517	81.58
352.728	9.9
352.94	22.19
353.152	46.76
353.363	38.57
353.575	9.9
353.787	42.67
353.999	-8.53
354.21	69.29
354.422	24.23
354.633	24.23
354.845	22.19
355.057	52.91
355.268	-61.78
355.48	5.8
355.692	69.29
355.903	69.29
356.115	52.91
356.326	-2.39
356.538	102.06
356.749	46.76
356.961	28.33
357.172	79.53
357.384	52.91
357.595	77.48
357.807	65.19
358.018	22.19
358.23	3.75
358.441	63.15
358.653	75.43
358.864	79.53
359.075	69.29
359.287	63.15
359.498	-6.49
359.709	-26.96
359.921	-18.77
360.132	5.8
360.344	11.95
360.555	83.63
360.766	71.34
360.977	40.62
361.189	30.38
361.4	1.71
361.611	106.15
361.823	93.87
362.034	48.81
362.245	13.99
362.456	42.67
362.667	34.47
362.879	18.09
363.09	50.86
363.301	36.52
363.512	48.81
363.723	112.3
363.935	54.95
364.146	13.99
364.357	69.29
364.568	71.34
364.779	16.04
364.99	48.81
365.201	-12.63
365.412	71.34
365.623	44.71
365.834	65.19
366.045	81.58
366.256	63.15
366.467	75.43
366.678	48.81
366.889	-10.58
367.1	16.04
367.311	18.09
367.522	18.09
367.733	69.29
367.944	-0.34
368.155	7.85
368.366	44.71
368.577	38.57
368.788	140.97
368.999	20.14
369.209	40.62
369.42	48.81
369.631	71.34
369.842	-26.96
370.053	22.19
370.264	16.04
370.474	11.95
370.685	83.63
370.896	40.62
371.107	-6.49
371.317	-2.39
371.528	22.19
371.739	-0.34
371.95	38.57
372.16	67.24
372.371	18.09
372.582	24.23
372.792	32.43
373.003	1.71
373.214	-8.53
373.424	95.91
373.635	-14.68
373.846	13.99
374.056	38.57
374.267	63.15
374.477	42.67
374.688	13.99
374.898	42.67
375.109	59.05
375.319	40.62
375.53	145.06
375.74	-2.39
375.951	50.86
376.161	22.19
376.372	-8.53
376.582	54.95
376.793	46.76
377.003	-37.2
377.214	28.33
377.424	-16.73
377.635	-10.58
377.845	-16.73
378.055	67.24
378.266	20.14
378.476	128.68
378.686	40.62
378.897	48.81
379.107	106.15
379.317	22.19
379.528	87.72
379.738	63.15
379.948	44.71
380.158	40.62
380.369	73.39
380.579	120.49
380.789	118.44
380.999	73.39
381.21	36.52
381.42	106.15
381.63	28.33
381.84	52.91
382.05	110.25
382.261	63.15
382.471	24.23
382.681	-31.06
382.891	59.05
383.101	138.92
383.311	11.95
383.521	-51.54
383.731	46.76
383.941	26.28
384.151	112.3
384.361	54.95
384.571	38.57
384.781	-14.68
384.991	-0.34
385.201	26.28
385.411	24.23
385.621	87.72
385.831	67.24
386.041	46.76
386.251	-37.2
386.461	26.28
386.671	54.95
386.881	75.43
387.091	30.38
387.301	-8.53
387.511	61.1
387.72	145.06
387.93	52.91
388.14	26.28
388.35	34.47
388.56	71.34
388.769	73.39
388.979	26.28
389.189	32.43
389.399	38.57
389.609	-20.82
389.818	145.06
390.028	13.99
390.238	79.53
390.447	57
390.657	54.95
390.867	32.43
391.076	95.91
391.286	91.82
391.496	-0.34
391.705	13.99
391.915	145.06
392.125	63.15
392.334	-2.39
392.544	91.82
392.753	57
392.963	42.67
393.172	50.86
393.382	48.81
393.591	65.19
393.801	30.38
394.01	67.24
394.22	67.24
394.429	54.95
394.639	48.81
394.848	63.15
395.058	-0.34
395.267	67.24
395.477	124.58
395.686	61.1
395.895	136.87
396.105	61.1
396.314	91.82
396.524	50.86
396.733	83.63
396.942	79.53
397.152	54.95
397.361	102.06
397.57	100.01
397.78	116.39
397.989	57
398.198	77.48
398.407	106.15
398.617	136.87
398.826	5.8
399.035	106.15
399.244	81.58
399.453	30.38
399.663	73.39
399.872	-2.39
400.081	93.87
400.29	97.96
400.499	9.9
400.708	134.82
400.917	79.53
401.127	112.3
401.336	138.92
401.545	81.58
401.754	85.67
401.963	20.14
402.172	81.58
402.381	95.91
402.59	81.58
402.799	59.05
403.008	79.53
403.217	179.88
403.426	73.39
403.635	95.91
403.844	85.67
404.053	114.34
404.262	110.25
404.471	114.34
404.68	149.16
404.888	126.63
405.097	89.77
405.306	151.21
405.515	67.24
405.724	145.06
405.933	190.12
406.142	149.16
406.35	120.49
406.559	104.11
406.768	104.11
406.977	136.87
407.185	143.02
407.394	173.74
407.603	159.4
407.812	175.78
408.02	147.11
408.229	149.16
408.438	169.64
408.646	100.01
408.855	130.73
409.064	222.89
409.272	173.74
409.481	202.41
409.69	153.26
409.898	231.08
410.107	206.5
410.315	257.7
410.524	159.4
410.733	218.79
410.941	208.55
411.15	200.36
411.358	237.22
411.567	288.42
411.775	284.33
411.984	206.5
412.192	247.46
412.401	353.96
412.609	284.33
412.818	288.42
413.026	200.36
413.234	386.72
413.443	296.61
413.651	284.33
413.86	313
414.068	341.67
414.276	376.48
414.485	437.92
414.693	347.81
414.901	497.32
415.11	442.02
415.318	382.63
415.526	546.47
415.734	423.59
415.943	392.87
416.151	521.89
416.359	464.55
416.567	499.36
416.776	513.7
416.984	536.23
417.192	525.99
417.4	521.89
417.608	634.53
417.817	609.95
418.025	538.27
418.233	636.58
418.441	685.73
418.649	792.22
418.857	673.44
419.065	726.69
419.273	736.93
419.481	726.69
419.689	765.6
419.897	874.14
420.105	880.29
420.313	878.24
420.521	964.25
420.729	1029.79
420.937	1021.6
421.145	1001.12
421.353	1138.33
421.561	1113.75
421.769	1070.75
421.977	1085.08
422.185	1199.77
422.393	1207.96
422.601	1384.09
422.809	1382.04
423.017	1205.91
423.224	1474.2
423.432	1371.8
423.64	1478.29
423.848	1545.88
424.056	1484.44
424.263	1533.59
424.471	1672.85
424.679	1674.9
424.887	1773.2
425.094	1799.82
425.302	1781.39
425.51	1851.02
425.718	1881.74
425.925	1816.21
426.133	2035.34
426.341	2205.32
426.548	2320.01
426.756	2080.39
426.964	2205.32
427.171	2377.35
427.379	2406.02
427.586	2444.93
427.794	2414.21
428.001	2748.03
428.209	2750.08
428.417	2793.09
428.624	2889.34
428.832	2942.59
429.039	2973.31
429.247	2893.44
429.454	3272.31
429.662	3475.06
429.869	3167.87
430.076	3335.8
430.284	3323.51
430.491	3552.88
430.699	3624.56
430.906	3509.88
431.114	3700.34
431.321	3868.27
431.528	3747.44
431.736	4126.32
431.943	4281.96
432.15	4243.05
432.358	4273.77
432.565	4521.57
432.772	4404.84
432.979	4755.04
433.187	4818.53
433.394	4767.33
433.601	5086.81
433.808	5170.78
434.016	5105.24
434.223	5523.03
434.43	5604.95
434.637	5547.61
434.844	5856.85
435.052	6151.76
435.259	5862.99
435.466	6153.8
435.673	5883.47
435.88	6377.03
436.087	6608.45
436.294	6780.48
436.501	6534.73
436.708	6882.88
436.915	6897.22
437.122	7114.3
437.329	7165.5
437.537	7517.75
437.743	7802.42
437.95	7568.95
438.157	7890.48
438.364	8226.35
438.571	8046.13
438.778	8183.34
438.985	8898.08
439.192	8775.2
439.399	8920.61
439.606	8934.95
439.813	9119.26
440.02	9852.44
440.227	9582.1
440.433	9475.61
440.64	9860.63
440.847	9659.93
441.054	9958.93
441.261	10737.16
441.467	10636.81
441.674	10618.38
441.881	11105.79
442.088	11175.42
442.294	10921.48
442.501	11316.73
442.708	11654.65
442.914	11976.18
443.121	12611.05
443.328	12469.74
443.534	13217.25
443.741	12742.12
443.948	12512.75
444.154	13665.75
444.361	13383.13
444.568	13409.76
444.774	13436.38
444.981	13725.15
445.187	14163.41
445.394	14562.76
445.6	14665.16
445.807	15787.45
446.013	15377.86
446.22	15603.13
446.426	16305.59
446.633	16442.8
446.839	16864.68
447.046	16303.54
447.252	17175.97
447.459	17321.38
447.665	17221.03
447.871	17964.44
448.078	18691.47
448.284	17849.75
448.491	18435.47
448.697	19041.67
448.903	19443.07
449.11	19289.48
449.316	19299.72
449.522	19740.03
449.728	19893.63
449.935	20358.52
450.141	20174.2
450.347	20843.88
450.553	20241.78
450.76	20395.38
450.966	21175.66
451.172	20796.78
451.378	21407.08
451.584	21034.35
451.791	21472.61
451.997	21409.12
452.203	22140.25
452.409	22216.02
452.615	21484.9
452.821	21130.6
453.027	20694.38
453.233	21779.81
453.44	20776.3
453.646	21130.6
453.852	21210.47
454.058	21722.46
454.264	21118.31
454.47	21536.1
454.676	21149.03
454.882	21456.23
455.088	19981.69
455.294	20157.82
455.5	20368.76
455.705	21011.82
455.911	20057.46
456.117	19381.63
456.323	19273.09
456.529	18146.71
456.735	18865.55
456.941	18556.3
457.147	18421.14
457.352	17712.54
457.558	17485.22
457.764	17255.84
457.97	17096.1
458.176	16784.81
458.381	16801.19
458.587	16047.54
458.793	16162.23
458.999	15340.99
459.204	16264.63
459.41	15936.95
459.616	14601.68
459.821	14962.12
460.027	14693.83
460.233	14491.09
460.438	13753.82
460.644	13784.54
460.85	13274.59
461.055	13184.48
461.261	12969.44
461.466	11994.61
461.672	11578.87
461.878	12543.47
462.083	11826.68
462.289	11544.06
462.494	11326.97
462.7	10954.24
462.905	10538.51
463.111	11021.83
463.316	10905.09
463.522	10835.46
463.727	11017.73
463.932	10800.65
464.138	10726.92
464.343	10638.86
464.549	10210.83
464.754	10761.73
464.959	10501.64
465.165	10595.85
465.37	10309.13
465.575	9926.16
465.781	10343.95
465.986	10286.61
466.191	10034.71
466.397	9803.29
466.602	9401.88
466.807	9569.82
467.012	9737.75
467.218	9522.71
467.423	9489.95
467.628	9410.08
467.833	9930.26
468.038	9561.62
468.244	9459.23
468.449	9754.13
468.654	9451.03
468.859	9192.99
469.064	9334.3
469.269	8910.37
469.474	8982.05
469.679	9121.31
469.885	8863.27
470.09	8816.16
470.295	8781.35
470.5	8797.73
470.705	8807.97
470.91	8676.9
471.115	8656.42
471.32	8662.57
471.525	8646.18
471.73	8398.38
471.935	8326.7
472.139	8044.08
472.344	8134.19
472.549	8162.86
472.754	8062.51
472.959	7814.71
473.164	7714.36
473.369	7687.73
473.574	7837.24
473.778	7851.57
473.983	7738.93
474.188	7611.96
474.393	7499.32
474.598	7491.13
474.802	7390.78
475.007	7177.79
475.212	7433.79
475.417	6964.8
475.621	7083.58
475.826	6958.66
476.031	6936.13
476.235	6757.96
476.44	7034.43
476.645	6815.3
476.849	7009.86
477.054	6622.79
477.259	6602.31
477.463	6630.98
477.668	6434.38
477.872	6495.82
478.077	6352.46
478.282	6327.88
478.486	6090.32
478.691	6100.56
478.895	6180.43
479.1	6006.35
479.304	6030.93
479.509	5862.99
479.713	5949.01
479.918	5973.58
480.122	5885.52
480.326	6053.45
480.531	5817.94
480.735	5746.26
480.94	5785.17
481.144	6014.54
481.348	5750.35
481.553	5858.9
481.757	5682.77
481.961	5674.58
482.166	5748.31
482.37	5860.95
482.574	5731.92
482.778	5602.9
482.983	5799.51
483.187	5750.35
483.391	5906
483.595	5699.16
483.8	5779.03
484.004	5738.07
484.208	5678.68
484.412	5731.92
484.616	5738.07
484.821	5791.31
485.025	5629.52
485.229	5805.65
485.433	5625.43
485.637	5707.35
485.841	5586.52
486.045	5748.31
486.249	5664.34
486.453	5633.62
486.657	5678.68
486.861	5664.34
487.065	5563.99
487.269	5588.57
487.473	5510.74
487.677	5645.91
487.881	5684.82
488.085	5791.31
488.289	5889.62
488.493	5604.95
488.697	5801.55
488.901	5772.88
489.105	5731.92
489.309	5717.59
489.512	5764.69
489.716	5752.4
489.92	5824.08
490.124	5848.66
490.328	5932.62
490.531	5832.27
490.735	5969.49
490.939	5873.23
491.143	5883.47
491.346	5985.87
491.55	5824.08
491.754	6004.3
491.958	5992.02
492.161	6086.22
492.365	6153.8
492.569	6078.03
492.772	6162
492.976	6186.57
493.18	6127.18
493.383	6170.19
493.587	6303.31
493.79	6280.78
493.994	6315.59
494.197	6399.56
494.401	6420.04
494.605	6512.2
494.808	6579.78
495.012	6618.69
495.215	6673.99
495.419	6737.48
495.622	6645.32
495.825	6649.41
496.029	6751.81
496.232	7036.48
496.436	6946.37
496.639	7036.48
496.843	7124.54
497.046	7149.12
497.249	7226.94
497.453	7173.69
497.656	7333.43
497.859	7374.39
498.063	7558.71
498.266	7589.43
498.469	7661.11
498.673	7663.16
498.876	7859.76
499.079	8001.07
499.282	7910.96
499.485	8109.61
499.689	8316.46
499.892	8134.19
500.095	8357.42
500.298	8513.06
500.501	8603.18
500.705	8699.43
500.908	8762.92
501.111	8812.07
501.314	8891.94
501.517	9041.44
501.72	9131.55
501.923	9188.89
502.126	9555.48
502.329	9354.78
502.532	9424.41
502.735	9655.83
502.938	9907.73
503.141	10008.08
503.344	10169.87
503.547	10061.33
503.75	10243.6
503.953	10704.39
504.156	10462.73
504.359	10642.95
504.562	10634.76
504.765	10976.77
504.968	10989.06
505.17	11267.58
505.373	11232.77
505.576	11460.09
505.779	11548.15
505.982	11668.98
506.185	11791.86
506.387	11869.69
506.59	12221.94
506.793	12316.14
506.996	12064.24
507.198	12752.36
507.401	12623.34
507.604	12836.33
507.807	12916.2
508.009	12991.97
508.212	13366.75
508.415	13630.94
508.617	13544.92
508.82	13675.99
509.022	13569.5
509.225	14142.93
509.428	14136.79
509.63	14292.43
509.833	14376.4
510.035	14710.22
510.238	14675.4
510.44	15076.8
510.643	15066.56
510.845	15406.53
511.048	15275.46
511.25	15504.83
511.453	15701.44
511.655	16156.08
511.858	16123.32
512.06	16494
512.262	16475.57
512.465	16545.2
512.667	16606.64
512.87	17034.66
513.072	17089.96
513.274	17261.99
513.477	17524.13
513.679	17913.24
513.881	18363.79
514.084	18367.89
514.286	18371.99
514.488	18595.21
514.69	19086.73
514.893	18967.95
515.095	19072.39
515.297	19494.27
515.499	19576.19
515.701	19834.24
515.904	19930.49
516.106	20108.66
516.308	20290.93
516.51	20522.35
516.712	20780.4
516.914	20899.18
517.116	21185.9
517.318	21429.6
517.52	21247.33
517.722	21806.43
517.925	21626.21
518.127	22142.3
518.329	22050.14
518.531	22304.09
518.733	22674.77
518.935	23090.51
519.136	23172.43
519.338	23326.02
519.54	23321.93
519.742	23639.36
519.944	24036.67
520.146	24243.51
520.348	24321.34
520.55	24358.2
520.752	24632.63
520.954	25240.87
521.155	25040.17
521.357	25081.13
521.559	25894.18
521.761	25949.47
521.963	25974.05
522.164	25781.54
522.366	26230.04
522.568	26488.09
522.77	26543.38
522.971	27208.97
523.173	26846.48
523.375	27110.67
523.576	27088.14
523.778	27145.48
523.98	27546.89
524.181	27940.1
524.383	27663.62
524.584	27864.32
524.786	28316.92
524.988	28192
525.189	28431.61
525.391	28781.81
525.592	29115.63
525.794	29158.64
525.995	29056.24
526.197	29457.64
526.398	29140.21
526.6	29580.52
526.801	29627.62
527.003	30026.98
527.204	30010.59
527.406	30311.64
527.607	29877.47
527.808	30342.36
528.01	29824.23
528.211	30434.52
528.412	30600.41
528.614	30973.14
528.815	30663.89
529.016	31032.53
529.218	30739.67
529.419	30899.41
529.62	30995.67
529.822	31016.15
530.023	31063.25
530.224	31444.17
530.425	31153.36
530.626	30635.22
530.828	30985.43
531.029	31646.92
531.23	31405.26
531.431	31474.89
531.632	31395.02
531.833	31792.33
532.035	31481.03
532.236	31878.34
532.437	31999.17
532.638	31700.17
532.839	31927.49
533.04	31945.92
533.241	31685.83
533.442	32353.47
533.643	31982.79
533.844	31646.92
534.045	32179.39
534.246	31974.59
534.447	32019.65
534.648	32089.28
534.849	32079.04
535.05	31868.1
535.251	32423.1
535.451	31810.76
535.652	32300.22
535.853	32138.43
536.054	32326.85
536.255	32355.52
536.456	31829.19
536.657	32736.44
536.857	32244.93
537.058	32003.27
537.259	32371.9
537.46	32171.2
537.66	32304.32
537.861	32421.05
538.062	32165.06
538.263	32298.17
538.463	32220.35
538.664	32236.73
538.865	32642.23
539.065	32560.31
539.266	32416.96
539.466	32738.49
539.667	31929.54
539.868	32617.66
540.068	32351.42
540.269	32363.71
540.469	32412.86
540.67	32224.45
540.87	32185.54
541.071	32357.56
541.271	32441.53
541.472	32095.42
541.672	32052.42
541.873	32154.82
542.073	31757.51
542.274	32562.36
542.474	32267.45
542.675	32031.94
542.875	32404.67
543.075	31904.96
543.276	31956.16
543.476	32339.13
543.676	31859.91
543.877	32462.01
544.077	32031.94
544.277	32242.88
544.478	32011.46
544.678	32187.58
544.878	32273.6
545.078	32183.49
545.279	31933.64
545.479	32113.86
545.679	32466.11
545.879	32089.28
546.079	32072.9
546.28	31943.88
546.48	31788.23
546.68	32122.05
546.88	31880.39
547.08	31913.16
547.28	31978.69
547.48	31919.3
547.68	32107.71
547.88	31782.09
548.081	32156.86
548.281	32388.28
548.481	31784.13
548.681	32347.33
548.881	32085.19
549.081	32042.18
549.28	32183.49
549.48	32302.27
549.68	31800.52
549.88	32171.2
550.08	31894.72
550.28	32220.35
550.48	31954.12
550.68	32058.56
550.88	31399.12
551.08	31648.97
551.279	32142.53
551.479	31997.12
551.679	31847.62
551.879	31700.17
552.079	32181.44
552.278	31771.85
552.478	32042.18
552.678	32040.13
552.878	31655.11
553.077	31663.3
553.277	31540.43
553.477	32138.43
553.676	31673.54
553.876	31933.64
554.076	31331.53
554.275	31691.98
554.475	31405.26
554.674	31780.04
554.874	31706.31
555.074	31765.7
555.273	31626.44
555.473	31696.07
555.672	31401.16
555.872	31519.95
556.071	31517.9
556.271	31474.89
556.47	31526.09
556.67	31032.53
556.869	30926.03
557.068	31347.92
557.268	31026.39
557.467	31208.65
557.667	31323.34
557.866	31417.55
558.065	31288.53
558.265	31050.96
558.464	31286.48
558.663	31399.12
558.863	30729.43
559.062	31317.2
559.261	30819.54
559.461	31288.53
559.66	30538.97
559.859	30797.01
560.058	30506.2
560.258	30973.14
560.457	30414.04
560.656	30872.79
560.855	30637.27
561.054	30930.13
561.253	30328.03
561.453	30536.92
561.652	30729.43
561.851	30616.79
562.05	30389.47
562.249	30293.21
562.448	30483.67
562.647	30452.95
562.846	30381.28
563.045	30018.78
563.244	30057.7
563.443	30655.7
563.642	29723.88
563.841	29949.15
564.04	29711.59
564.239	30213.34
564.438	29791.46
564.637	30172.38
564.836	29768.93
565.035	29682.92
565.234	29865.19
565.432	29510.89
565.631	29258.99
565.83	29490.41
566.029	29388.01
566.228	29340.91
566.427	29385.96
566.625	29099.25
566.824	28738.8
567.023	29146.35
567.222	28822.77
567.42	29328.62
567.619	29011.18
567.818	28845.3
568.016	28785.91
568.215	28783.86
568.414	28501.24
568.612	28982.51
568.811	28595.45
569.01	28482.81
569.208	28069.12
569.407	28955.89
569.605	28110.08
569.804	28607.73
570.002	27919.62
570.201	28355.83
570.4	28226.81
570.598	27837.7
570.797	28075.26
570.995	27909.38
571.193	27641.09
571.392	28108.03
571.59	27852.03
571.789	27481.35
571.987	27645.19
572.186	27647.24
572.384	27348.23
572.582	27419.91
572.781	27503.88
572.979	27127.05
573.177	26944.78
573.376	27305.23
573.574	27084.05
573.772	26967.31
573.971	26918.16
574.169	26754.32
574.367	26682.64
574.565	27153.68
574.763	26881.3
574.962	26735.89
575.16	26094.88
575.358	26606.87
575.556	26223.9
575.754	26520.85
575.952	25961.76
576.151	26060.06
576.349	26029.34
576.547	25890.08
576.745	26174.75
576.943	25861.41
577.141	25832.74
577.339	25818.4
577.537	25740.58
577.735	25455.91
577.933	25417
578.131	25695.52
578.329	25134.38
578.527	25429.29
578.725	25103.66
578.923	25210.15
579.121	25079.08
579.319	24950.06
579.516	25390.38
579.714	25165.1
579.912	25068.84
580.11	24558.9
580.308	24818.99
580.506	24644.91
580.704	24333.62
580.901	24794.42
581.099	24823.09
581.297	24245.56
581.495	24397.11
581.692	24630.58
581.89	24046.91
582.088	24233.27
582.285	24018.24
582.483	24317.24
582.681	24012.09
582.878	23876.93
583.076	23840.06
583.274	24081.72
583.471	23448.9
583.669	23698.75
583.866	23502.15
584.064	23641.41
584.262	23207.24
584.459	23670.08
584.657	23672.13
584.854	23227.72
585.052	23033.16
585.249	22975.82
585.447	23225.67
585.644	22881.61
585.841	23098.7
586.039	23211.34
586.236	22551.89
586.434	22566.23
586.631	22318.42
586.828	22738.26
587.026	22666.58
587.223	22803.79
587.42	22705.49
587.618	22564.18
587.815	22400.34
588.012	22023.51
588.21	22386.01
588.407	22437.2
588.604	22154.58
588.801	21865.82
588.999	21982.56
589.196	21914.97
589.393	21847.39
589.59	21583.2
589.787	21974.36
589.984	21507.43
590.182	21376.36
590.379	21347.68
590.576	21370.21
590.773	21691.74
590.97	21394.79
591.167	21357.92
591.364	20977
591.561	20968.81
591.758	21189.99
591.955	21048.68
592.152	21155.18
592.349	20710.77
592.546	21009.77
592.743	20915.56
592.94	20731.25
593.137	20788.59
593.334	20581.74
593.531	20397.43
593.727	20444.53
593.924	20714.86
594.121	20188.53
594.318	20487.54
594.515	19891.58
594.712	20311.41
594.908	20252.02
595.105	20266.36
595.302	20209.01
595.499	20036.98
595.696	19625.34
595.892	19875.2
596.089	20127.1
596.286	19635.58
596.482	19793.28
596.679	19707.26
596.876	19684.73
597.072	19537.28
597.269	19471.75
597.466	19475.84
597.662	19051.91
597.859	19348.87
598.055	19414.4
598.252	19221.89
598.448	18914.7
598.645	19133.83
598.841	19084.68
599.038	19015.05
599.234	19043.72
599.431	18591.12
599.627	18716.05
599.824	18701.71
600.02	18748.81
600.217	18591.12
600.413	18650.51
600.609	18541.97
600.806	18226.58
601.002	18316.69
601.198	18226.58
601.395	18161.05
601.591	18314.64
601.787	17878.43
601.984	18056.6
602.18	17911.19
602.376	17882.52
602.572	17708.44
602.769	17868.19
602.965	17540.51
603.161	17878.43
603.357	17567.13
603.553	17606.05
603.75	17628.57
603.946	17403.3
604.142	17507.74
604.338	17511.84
604.534	17632.67
604.73	17388.96
604.926	17397.15
605.122	17114.53
605.318	17309.09
605.514	17001.9
605.71	16903.59
605.906	16956.84
606.102	16893.35
606.298	17020.33
606.494	17038.76
606.69	17079.72
606.886	16840.11
607.082	16455.09
607.278	16899.5
607.474	16483.76
607.67	16713.13
607.866	16422.32
608.062	16686.51
608.257	16522.67
608.453	16289.2
608.649	16618.93
608.845	16229.81
609.041	16446.9
609.236	16448.94
609.432	16156.08
609.628	16256.43
609.824	16141.75
610.019	16225.72
610.215	15977.91
610.411	16125.36
610.606	15723.96
610.802	15961.53
610.998	16076.21
611.193	16088.5
611.389	15969.72
611.584	15705.53
611.78	15812.03
611.976	15799.74
612.171	15830.46
612.367	15625.66
612.562	15678.91
612.758	15447.49
612.953	15392.19
613.149	15562.17
613.344	15336.9
613.539	15609.28
613.735	15463.87
613.93	15500.73
614.126	15121.86
614.321	15498.69
614.517	15369.66
614.712	15185.35
614.907	15168.96
615.103	15297.99
615.298	15111.62
615.493	15424.96
615.688	15099.33
615.884	15320.51
616.079	14908.87
616.274	15148.48
616.47	14892.49
616.665	14800.33
616.86	14910.92
617.055	14777.8
617.25	14933.45
617.445	14556.62
617.641	14681.55
617.836	14757.32
618.031	14345.68
618.226	14718.41
618.421	14425.55
618.616	14564.81
618.811	14235.09
619.006	14480.85
619.201	14325.2
619.396	14448.08
619.591	13917.65
619.786	14478.8
619.981	14104.02
620.176	14351.82
620.371	14030.29
620.566	14214.61
620.761	14030.29
620.956	13981.14
621.151	13776.34
621.346	13899.22
621.541	13688.28
621.735	13624.79
621.93	13325.79
622.125	13325.79
622.32	13483.48
622.515	13483.48
622.709	12922.34
622.904	13145.57
623.099	13051.36
623.294	13172.19
623.488	12846.57
623.683	13041.12
623.878	12721.64
624.072	12916.2
624.267	12805.61
624.462	12652.01
624.656	12418.54
624.851	12635.63
625.046	12473.84
625.24	12518.89
625.435	12391.92
625.629	12432.88
625.824	12162.55
626.018	12088.82
626.213	11853.3
626.407	11877.88
626.602	11863.54
626.796	11959.8
626.991	11767.29
627.185	11812.34
627.38	11765.24
627.574	11478.52
627.768	11482.62
627.963	11435.52
628.157	11507.2
628.352	11398.65
628.546	11419.13
628.74	11283.97
628.935	11265.53
629.129	11163.14
629.323	10997.25
629.517	10974.72
629.712	10882.56
629.906	10978.82
630.1	10903.04
630.294	10821.13
630.489	10753.54
630.683	10853.89
630.877	10483.21
631.071	10550.79
631.265	10577.42
631.459	10532.36
631.653	10411.53
631.848	10468.87
632.042	10438.16
632.236	10440.2
632.43	10216.97
632.624	10395.15
632.818	10120.72
633.012	10118.67
633.206	9995.79
633.4	10055.19
633.594	9834
633.788	9960.98
633.982	9813.52
634.176	9819.67
634.369	9657.88
634.563	9657.88
634.757	9709.08
634.951	9575.96
635.145	9782.81
635.339	9506.33
635.533	9567.77
635.726	9487.9
635.92	9262.62
636.114	9438.75
636.308	9221.66
636.501	9170.46
636.695	9037.34
636.889	9000.48
637.083	9115.17
637.276	9082.4
637.47	8967.71
637.664	8906.27
637.857	8893.99
638.051	8703.53
638.244	8832.55
638.438	8732.2
638.632	8570.41
638.825	8586.79
639.019	8498.73
639.212	8384.04
639.406	8433.19
639.599	8388.14
639.793	8590.89
639.986	8248.88
640.18	8242.73
640.373	8257.07
640.567	8138.29
640.76	8044.08
640.954	8142.38
641.147	8060.46
641.34	7835.19
641.534	7960.11
641.727	7878.19
641.92	7894.58
642.114	7761.46
642.307	7906.87
642.5	7800.37
642.694	7679.54
642.887	7585.33
643.08	7706.17
643.273	7558.71
643.467	7624.25
643.66	7534.14
643.853	7349.82
644.046	7231.04
644.239	7401.02
644.432	7292.48
644.626	7253.56
644.819	7104.06
645.012	7087.68
645.205	7142.97
645.398	7280.19
645.591	6927.94
645.784	7046.72
645.977	6919.75
646.17	6739.52
646.363	6798.91
646.556	6678.08
646.749	6807.11
646.942	6839.87
647.135	6731.33
647.328	6815.3
647.521	6747.72
647.714	6401.61
647.907	6540.87
648.099	6510.15
648.292	6555.21
648.485	6270.54
648.678	6336.07
648.871	6454.86
649.064	6436.42
649.256	6276.68
649.449	6186.57
649.642	6106.7
649.835	6205
650.027	6086.22
650.22	6012.49
650.413	6032.97
650.605	6061.65
650.798	5832.27
650.991	5912.14
651.183	5869.14
651.376	5768.79
651.568	5989.97
651.761	5758.55
651.954	5846.61
652.146	5815.89
652.339	5774.93
652.531	5650
652.724	5760.59
652.916	5578.33
653.109	5541.46
653.301	5643.86
653.494	5660.24
653.686	5574.23
653.879	5371.48
654.071	5430.87
654.263	5322.33
654.456	5381.72
654.648	5312.09
654.84	5320.28
655.033	5373.53
655.225	5150.3
655.417	5207.64
655.61	5260.89
655.802	5172.83
655.994	5291.61
656.186	5191.26
656.379	5002.85
656.571	5115.48
656.763	5021.28
656.955	5052
657.148	4922.98
657.34	5047.9
657.532	5058.14
657.724	4945.5
657.916	5035.61
658.108	4916.83
658.3	4775.52
658.492	4851.3
658.684	4742.75
658.876	4595.3
659.068	4740.71
659.26	4607.59
659.452	4591.2
659.644	4720.23
659.836	4544.1
660.028	4718.18
660.22	4593.25
660.412	4544.1
660.604	4578.92
660.796	4535.91
660.988	4470.37
661.18	4443.75
661.372	4406.89
661.563	4327.02
661.755	4349.54
661.947	4238.95
662.139	4347.5
662.331	4341.35
662.522	4292.2
662.714	4222.57
662.906	4189.8
663.097	4247.15
663.289	4218.47
663.481	4132.46
663.673	4226.67
663.864	3952.24
664.056	4109.93
664.247	4183.66
664.439	3999.34
664.631	3982.96
664.822	3931.76
665.014	3962.48
665.205	3995.25
665.397	3858.03
665.588	3997.29
665.78	3933.81
665.971	3876.46
666.163	3933.81
666.354	3800.69
666.546	3833.46
666.737	3708.53
666.929	3823.22
667.12	3688.05
667.311	3657.33
667.503	3573.36
667.694	3724.91
667.885	3628.66
668.077	3655.28
668.268	3589.75
668.459	3657.33
668.651	3561.08
668.842	3475.06
669.033	3405.43
669.224	3544.69
669.416	3552.88
669.607	3671.67
669.798	3532.4
669.989	3608.18
670.18	3522.16
670.371	3339.9
670.563	3542.64
670.754	3434.1
670.945	3446.39
671.136	3348.09
671.327	3364.47
671.518	3245.69
671.709	3321.46
671.9	3317.37
672.091	3395.19
672.282	3307.13
672.473	3180.15
672.664	3405.43
672.855	3276.41
673.046	3163.77
673.237	3274.36
673.428	3169.91
673.619	3176.06
673.809	3131
674	3145.34
674.191	3229.31
674.382	3167.87
674.573	3120.76
674.764	3186.3
674.954	3167.87
675.145	3241.59
675.336	3114.62
675.527	3073.66
675.717	3184.25
675.908	3092.09
676.099	3163.77
676.289	3034.75
676.48	3004.03
676.671	2889.34
676.861	3016.32
677.052	3020.41
677.243	3081.85
677.433	3055.23
677.624	3020.41
677.814	3014.27
678.005	3032.7
678.195	3028.6
678.386	2997.88
678.576	2930.3
678.767	2866.81
678.957	2776.7
679.148	2883.2
679.338	3008.12
679.529	2864.77
679.719	2922.11
679.909	2930.3
680.1	2967.17
680.29	2827.9
680.481	2866.81
680.671	2846.34
680.861	2963.07
681.052	2899.58
681.242	2932.35
681.432	2797.18
681.622	2915.97
681.813	2778.75
682.003	2872.96
682.193	2760.32
682.383	2848.38
682.573	2946.69
682.764	2766.46
682.954	2891.39
683.144	2860.67
683.334	2748.03
683.524	2840.19
683.714	2778.75
683.904	2784.9
684.094	2809.47
684.284	2844.29
684.474	2899.58
684.664	2776.7
684.854	2760.32
685.044	2834.05
685.234	2774.66
685.424	2848.38
685.614	2748.03
685.804	2643.59
685.994	2707.07
686.184	2809.47
686.374	2670.21
686.564	2825.86
686.753	2696.83
686.943	2850.43
687.133	2651.78
687.323	2680.45
687.513	2678.4
687.702	2772.61
687.892	2809.47
688.082	2741.89
688.272	2651.78
688.461	2782.85
688.651	2690.69
688.841	2619.01
689.03	2690.69
689.22	2643.59
689.41	2637.44
689.599	2741.89
689.789	2668.16
689.979	2670.21
690.168	2565.76
690.358	2627.2
690.547	2510.47
690.737	2584.2
690.926	2659.97
691.116	2625.15
691.305	2610.82
691.495	2659.97
691.684	2596.48
691.874	2627.2
692.063	2649.73
692.252	2518.66
692.442	2565.76
692.631	2553.48
692.82	2561.67
693.01	2662.02
693.199	2528.9
693.388	2424.45
693.578	2528.9
693.767	2592.39
693.956	2520.71
694.146	2520.71
694.335	2520.71
694.524	2475.65
694.713	2580.1
694.902	2494.08
695.092	2434.69
695.281	2612.87
695.47	2541.19
695.659	2545.28
695.848	2612.87
696.037	2453.13
696.226	2440.84
696.415	2549.38
696.604	2457.22
696.793	2342.53
696.982	2344.58
697.171	2426.5
697.36	2442.89
697.549	2371.21
697.738	2530.95
697.927	2410.12
698.116	2440.84
698.305	2350.73
698.494	2401.93
698.683	2348.68
698.872	2401.93
699.061	2414.21
699.25	2297.48
699.438	2461.32
699.627	2381.45
699.816	2432.65
700.005	2444.93
700.193	2408.07
700.382	2473.6
700.571	2496.13
700.76	2231.94
700.948	2279.05
701.137	2287.24
701.326	2201.23
701.514	2281.1
701.703	2301.58
701.892	2260.62
702.08	2328.2
702.269	2383.49
702.457	2285.19
702.646	2266.76
702.834	2258.57
703.023	2391.69
703.212	2340.49
703.4	2244.23
703.589	2190.99
703.777	2289.29
703.965	2240.14
704.154	2270.86
704.342	2279.05
704.531	2260.62
704.719	2205.32
704.907	2248.33
705.096	2268.81
705.284	2156.17
705.472	2201.23
705.661	2375.3
705.849	2135.69
706.037	2217.61
706.226	2221.7
706.414	2078.35
706.602	2188.94
706.79	2127.5
706.979	2221.7
707.167	2309.77
707.355	2127.5
707.543	2096.78
707.731	2078.35
707.919	2113.16
708.107	2152.07
708.296	2158.22
708.484	2154.12
708.672	2045.58
708.86	2180.75
709.048	2170.51
709.236	2147.98
709.424	2186.89
709.612	2186.89
709.8	2080.39
709.988	2111.11
710.176	1978
710.364	2117.26
710.551	1980.04
710.739	2125.45
710.927	2012.81
711.115	1955.47
711.303	1965.71
711.491	2152.07
711.679	2113.16
711.866	2006.67
712.054	2029.2
712.242	2037.39
712.43	2078.35
712.617	2047.63
712.805	2010.76
712.993	1910.41
713.181	1965.71
713.368	1932.94
713.556	2064.01
713.744	1906.32
713.931	1980.04
714.119	1965.71
714.306	1969.8
714.494	1957.52
714.682	1918.61
714.869	1916.56
715.057	2010.76
715.244	1906.32
715.432	1910.41
715.619	1906.32
715.807	1889.93
715.994	1992.33
716.182	1818.25
716.369	1963.66
716.556	1914.51
716.744	1918.61
716.931	1855.12
717.119	1871.5
717.306	1959.56
717.493	1898.13
717.681	1934.99
717.868	1836.69
718.055	1859.21
718.242	1957.52
718.43	1838.73
718.617	1941.13
718.804	1742.48
718.991	1851.02
719.179	1848.97
719.366	1791.63
719.553	1752.72
719.74	1767.06
719.927	1656.47
720.114	1656.47
720.301	1756.82
720.488	1795.73
720.676	1748.62
720.863	1781.39
721.05	1824.4
721.237	1715.86
721.424	1767.06
721.611	1754.77
721.798	1695.38
721.985	1777.3
722.172	1836.69
722.358	1547.92
722.545	1765.01
722.732	1769.1
722.919	1711.76
723.106	1672.85
723.293	1732.24
723.48	1693.33
723.667	1658.51
723.853	1668.75
724.04	1711.76
724.227	1793.68
724.414	1730.19
724.6	1713.81
724.787	1678.99
724.974	1539.73
725.161	1572.5
725.347	1734.29
725.534	1648.27
725.72	1597.07
725.907	1695.38
726.094	1740.43
726.28	1537.68
726.467	1633.94
726.653	1771.15
726.84	1556.11
727.027	1732.24
727.213	1609.36
727.4	1701.52
727.586	1742.48
727.773	1640.08
727.959	1592.98
728.145	1627.79
728.332	1556.11
728.518	1689.23
728.705	1674.9
728.891	1623.7
729.077	1582.74
729.264	1588.88
729.45	1580.69
729.636	1556.11
729.823	1535.64
730.009	1603.22
730.195	1506.96
730.382	1592.98
730.568	1461.91
730.754	1631.89
730.94	1609.36
731.126	1584.79
731.313	1531.54
731.499	1588.88
731.685	1552.02
731.871	1500.82
732.057	1453.72
732.243	1480.34
732.429	1570.45
732.615	1613.46
732.801	1556.11
732.987	1552.02
733.173	1486.48
733.359	1433.24
733.545	1578.64
733.731	1453.72
733.917	1549.97
734.103	1502.87
734.289	1539.73
734.475	1506.96
734.661	1445.52
734.847	1470.1
735.033	1504.92
735.219	1490.58
735.404	1449.62
735.59	1480.34
735.776	1418.9
735.962	1480.34
736.148	1564.31
736.333	1408.66
736.519	1509.01
736.705	1410.71
736.89	1457.81
737.076	1470.1
737.262	1468.05
737.447	1496.72
737.633	1494.68
737.819	1455.76
738.004	1361.56
738.19	1468.05
738.375	1459.86
738.561	1388.18
738.747	1382.04
738.932	1498.77
739.118	1466
739.303	1394.33
739.489	1492.63
739.674	1396.37
739.859	1392.28
740.045	1394.33
740.23	1429.14
740.416	1402.52
740.601	1482.39
740.786	1273.5
740.972	1373.85
741.157	1363.61
741.342	1410.71
741.528	1377.94
741.713	1365.65
741.898	1316.5
742.084	1382.04
742.269	1334.93
742.454	1228.44
742.639	1318.55
742.824	1390.23
743.01	1222.3
743.195	1318.55
743.38	1246.87
743.565	1300.12
743.75	1261.21
743.935	1332.89
744.12	1271.45
744.305	1357.46
744.49	1287.83
744.675	1326.74
744.86	1308.31
745.045	1218.2
745.23	1359.51
745.415	1257.11
745.6	1220.25
745.785	1220.25
745.97	1269.4
746.155	1103.51
746.34	1195.67
746.525	1193.62
746.71	1160.86
746.895	1255.06
747.079	1195.67
747.264	1263.26
747.449	1173.14
747.634	1218.2
747.819	1212.06
748.003	1144.47
748.188	1087.13
748.373	1263.26
748.557	1162.9
748.742	1132.19
748.927	1126.04
749.111	1193.62
749.296	1160.86
749.481	1013.4
749.665	1123.99
749.85	1083.03
750.034	1054.36
750.219	1078.94
750.404	1015.45
750.588	1097.37
750.773	1074.84
750.957	1074.84
751.141	1052.31
751.326	1037.98
751.51	1103.51
751.695	937.63
751.879	1074.84
752.064	1023.64
752.248	1003.16
752.432	1064.6
752.617	1068.7
752.801	925.34
752.985	980.64
753.17	1007.26
753.354	968.35
753.538	927.39
753.722	925.34
753.907	962.2
754.091	880.29
754.275	1025.69
754.459	1068.7
754.643	919.2
754.828	898.72
755.012	919.2
755.196	927.39
755.38	927.39
755.564	972.44
755.748	865.95
755.932	894.62
756.116	927.39
756.3	890.53
756.484	865.95
756.668	849.57
756.852	874.14
757.036	855.71
757.22	822.94
757.404	833.18
757.588	775.84
757.772	775.84
757.956	851.61
758.14	804.51
758.323	775.84
758.507	833.18
758.691	773.79
758.875	771.74
759.059	775.84
759.242	741.02
759.426	773.79
759.61	769.69
759.794	784.03
759.977	749.22
760.161	734.88
760.345	712.35
760.528	722.59
760.712	775.84
760.895	736.93
761.079	720.54
761.263	710.3
761.446	757.41
761.63	734.88
761.813	659.1
761.997	769.69
762.18	640.67
762.364	671.39
762.547	669.34
762.731	702.11
762.914	716.45
763.098	644.77
763.281	687.78
763.464	671.39
763.648	671.39
763.831	636.58
764.015	638.62
764.198	718.5
764.381	687.78
764.564	710.3
764.748	665.25
764.931	716.45
765.114	691.87
765.297	644.77
765.481	634.53
765.664	646.82
765.847	677.54
766.03	671.39
766.213	616.1
766.397	622.24
766.58	601.76
766.763	546.47
766.946	593.57
767.129	698.02
767.312	605.86
767.495	640.67
767.678	673.44
767.861	720.54
768.044	589.47
768.227	671.39
768.41	612
768.593	640.67
768.776	638.62
768.959	607.91
769.142	612
769.324	573.09
769.507	579.23
769.69	650.91
769.873	597.67
770.056	669.34
770.239	560.8
770.421	609.95
770.604	655.01
770.787	646.82
770.97	585.38
771.152	597.67
771.335	534.18
771.518	573.09
771.7	591.52
771.883	609.95
772.066	577.19
772.248	571.04
772.431	542.37
772.613	501.41
772.796	511.65
772.978	536.23
773.161	560.8
773.343	521.89
773.526	442.02
773.708	509.6
773.891	495.27
774.073	587.43
774.256	538.27
774.438	538.27
774.621	452.26
774.803	587.43
774.985	515.75
775.168	482.98
775.35	487.08
775.532	515.75
775.715	450.21
775.897	448.16
776.079	519.84
776.261	509.6
776.444	530.08
776.626	501.41
776.808	466.6
776.99	538.27
777.173	427.68
777.355	528.03
777.537	482.98
777.719	458.4
777.901	419.49
778.083	345.77
778.265	462.5
778.447	439.97
778.629	476.84
778.811	444.07
778.993	485.03
779.175	448.16
779.357	401.06
779.539	452.26
779.721	423.59
779.903	364.2
780.085	437.92
780.267	450.21
780.449	421.54
780.631	372.39
780.812	366.25
780.994	319.14
781.176	368.29
781.358	464.55
781.54	382.63
781.721	405.16
781.903	380.58
782.085	356.01
782.267	439.97
782.448	392.87
782.63	425.64
782.812	351.91
782.993	356.01
783.175	333.48
783.357	339.62
783.538	382.63
783.72	308.9
783.901	360.1
784.083	300.71
784.264	317.09
784.446	366.25
784.627	356.01
784.809	362.15
784.99	294.57
785.172	319.14
785.353	325.29
785.535	308.9
785.716	272.04
785.897	292.52
786.079	292.52
786.26	292.52
786.441	317.09
786.623	280.23
786.804	319.14
786.985	282.28
787.167	302.76
787.348	222.89
787.529	362.15
787.71	366.25
787.891	302.76
788.073	315.05
788.254	255.65
788.435	243.37
788.616	308.9
788.797	208.55
788.978	288.42
789.159	265.89
789.34	276.13
789.522	235.18
789.703	243.37
789.884	229.03
790.065	282.28
790.246	284.33
790.427	321.19
790.607	276.13
790.788	214.7
790.969	188.07
791.15	243.37
791.331	267.94
791.512	298.66
791.693	269.99
791.874	194.22
792.054	188.07
792.235	212.65
792.416	231.08
792.597	245.41
792.778	206.5
792.958	317.09
793.139	249.51
793.32	229.03
793.5	186.02
793.681	243.37
793.862	210.6
794.042	204.46
794.223	188.07
794.404	235.18
794.584	204.46
794.765	263.85
794.945	261.8
795.126	220.84
795.306	167.59
795.487	198.31
795.667	153.26
795.848	218.79
796.028	200.36
796.209	251.56
796.389	272.04
796.57	210.6
796.75	226.98
796.93	220.84
797.111	175.78
797.291	163.5
797.471	239.27
797.652	208.55
797.832	159.4
798.012	196.26
798.192	231.08
798.373	116.39
798.553	147.11
798.733	202.41
798.913	114.34
799.093	130.73
799.274	188.07
799.454	186.02
799.634	263.85
799.814	226.98
799.994	222.89
800.174	190.12
800.354	169.64
800.534	241.32
800.714	177.83
800.894	149.16
801.074	143.02
801.254	128.68
801.434	136.87
801.614	136.87
801.794	112.3
801.974	339.62
802.154	147.11
802.334	151.21
802.514	186.02
802.693	183.98
802.873	122.54
803.053	188.07
803.233	214.7
803.413	179.88
803.592	245.41
803.772	130.73
803.952	218.79
804.131	153.26
804.311	169.64
804.491	179.88
804.67	69.29
804.85	108.2
805.03	159.4
805.209	198.31
805.389	190.12
805.568	106.15
805.748	112.3
805.928	173.74
806.107	188.07
806.287	87.72
806.466	161.45
806.646	114.34
806.825	145.06
807.004	186.02
807.184	140.97
807.363	116.39
807.543	128.68
807.722	155.3
807.901	65.19
808.081	95.91
808.26	157.35
808.439	65.19
808.619	134.82
808.798	169.64
808.977	89.77
809.156	155.3
809.336	165.54
809.515	155.3
809.694	130.73
809.873	114.34
810.052	100.01
810.231	165.54
810.411	63.15
810.59	149.16
810.769	79.53
810.948	188.07
811.127	120.49
811.306	120.49
811.485	95.91
811.664	177.83
811.843	124.58
812.022	136.87
812.201	136.87
812.38	169.64
812.559	44.71
812.737	153.26
812.916	71.34
813.095	155.3
813.274	124.58
813.453	106.15
813.632	163.5
813.811	206.5
813.989	81.58
814.168	108.2
814.347	116.39
814.526	79.53
814.704	114.34
814.883	87.72
815.062	143.02
815.24	75.43
815.419	120.49
815.598	83.63
815.776	73.39
815.955	112.3
816.133	106.15
816.312	54.95
816.49	75.43
816.669	73.39
816.847	161.45
817.026	91.82
817.204	71.34
817.383	132.78
817.561	77.48
817.74	104.11
817.918	165.54
818.097	57
818.275	91.82
818.453	100.01
818.632	126.63
818.81	104.11
818.988	85.67
819.167	128.68
819.345	145.06
819.523	67.24
819.701	57
819.879	140.97
820.058	28.33
820.236	65.19
820.414	61.1
820.592	161.45
820.77	11.95
820.948	67.24
821.127	136.87
821.305	91.82
821.483	85.67
821.661	81.58
821.839	130.73
822.017	40.62
822.195	138.92
822.373	120.49
822.551	114.34
822.729	128.68
822.907	118.44
823.085	52.91
823.262	95.91
823.44	85.67
823.618	38.57
823.796	63.15
823.974	161.45
824.152	34.47
824.329	130.73
824.507	149.16
824.685	63.15
824.863	122.54
825.04	91.82
825.218	59.05
825.396	118.44
825.574	120.49
825.751	120.49
825.929	57
826.107	-43.35
826.284	52.91
826.462	102.06
826.639	112.3
826.817	136.87
826.994	73.39
827.172	-2.39
827.349	110.25
827.527	54.95
827.704	89.77
827.882	83.63
828.059	79.53
828.237	63.15
828.414	118.44
828.591	40.62
828.769	57
828.946	38.57
829.124	161.45
829.301	114.34
829.478	75.43
829.655	63.15
829.833	75.43
830.01	63.15
830.187	69.29
830.364	85.67
830.542	30.38
830.719	120.49
830.896	67.24
831.073	20.14
831.25	118.44
831.427	30.38
831.604	79.53
831.782	44.71
831.959	159.4
832.136	59.05
832.313	65.19
832.49	97.96
832.667	97.96
832.844	77.48
833.021	85.67
833.198	38.57
833.374	26.28
833.551	48.81
833.728	-16.73
833.905	71.34
834.082	97.96
834.259	54.95
834.436	145.06
834.612	30.38
834.789	87.72
834.966	97.96
835.143	67.24
835.319	9.9
835.496	73.39
835.673	81.58
835.85	38.57
836.026	122.54
836.203	104.11
836.38	93.87
836.556	59.05
836.733	34.47
836.909	48.81
837.086	1.71
837.262	36.52
837.439	48.81
837.616	48.81
837.792	108.2
837.968	-26.96
838.145	-55.64
838.321	-10.58
838.498	54.95
838.674	71.34
838.851	97.96
839.027	38.57
839.203	57
839.38	3.75
839.556	18.09
839.732	61.1
839.909	11.95
840.085	65.19
840.261	67.24
840.437	128.68
840.614	57
840.79	18.09
840.966	83.63
841.142	9.9
841.318	7.85
841.494	65.19
841.671	63.15
841.847	48.81
842.023	24.23
842.199	-0.34
842.375	52.91
842.551	83.63
842.727	79.53
842.903	-6.49
843.079	-18.77
843.255	52.91
843.431	44.71
843.607	48.81
843.783	-90.45
843.959	130.73
844.134	3.75
844.31	95.91
844.486	36.52
844.662	-18.77
844.838	87.72
845.013	44.71
845.189	59.05
845.365	42.67
845.541	16.04
845.716	40.62
845.892	54.95
846.068	81.58
846.244	-8.53
846.419	87.72
846.595	32.43
846.77	20.14
846.946	38.57
847.122	-6.49
847.297	57
847.473	40.62
847.648	54.95
847.824	116.39
847.999	-45.4
848.175	104.11
848.35	81.58
848.526	36.52
848.701	89.77
848.876	1.71
849.052	34.47
849.227	7.85
849.403	87.72
849.578	65.19
849.753	-0.34
849.929	-61.78
850.104	71.34
850.279	75.43
850.454	100.01
850.63	50.86
850.805	67.24
850.98	-18.77
851.155	1.71
851.33	-14.68
851.505	46.76
851.681	28.33
851.856	-2.39
852.031	75.43
852.206	20.14
852.381	69.29
852.556	-20.82
852.731	26.28
852.906	69.29
853.081	-22.87
853.256	61.1
853.431	46.76
853.606	91.82
853.781	-35.16
853.956	-76.12
854.131	13.99
854.305	5.8
854.48	67.24
854.655	-0.34
854.83	20.14
855.005	-2.39
855.18	132.78
855.354	-14.68
855.529	28.33
855.704	63.15
855.879	73.39
856.053	16.04
856.228	57
856.403	-55.64
856.577	-2.39
856.752	40.62
856.926	38.57
857.101	61.1
857.276	36.52
857.45	59.05
857.625	-20.82
857.799	46.76
857.974	11.95
858.148	40.62
858.323	-0.34
858.497	67.24
858.672	-37.2
858.846	5.8
859.02	69.29
859.195	-35.16
859.369	7.85
859.543	-8.53
859.718	-6.49
859.892	5.8
860.066	5.8
860.241	40.62
860.415	-53.59
860.589	42.67
860.763	13.99
860.938	-76.12
861.112	11.95
861.286	-65.88
861.46	-22.87
861.634	36.52
861.808	24.23
861.982	13.99
862.157	-6.49
862.331	48.81
862.505	67.24
862.679	-2.39
862.853	28.33
863.027	-8.53
863.201	9.9
863.375	30.38
863.549	42.67
863.722	-35.16
863.896	1.71
864.07	38.57
864.244	26.28
864.418	26.28
864.592	63.15
864.766	9.9
864.939	9.9
865.113	79.53
865.287	52.91
865.461	91.82
865.634	71.34
865.808	3.75
865.982	-45.4
866.156	26.28
866.329	-8.53
866.503	-39.25
866.676	54.95
866.85	9.9
867.024	5.8
867.197	87.72
867.371	38.57
867.544	71.34
867.718	11.95
867.891	16.04
868.065	36.52
868.238	28.33
868.412	24.23
868.585	-37.2
868.759	46.76
868.932	44.71
869.105	11.95
869.279	-18.77
869.452	77.48
869.625	-18.77
869.799	48.81
869.972	38.57
870.145	-2.39
870.319	100.01
870.492	124.58
870.665	89.77
870.838	40.62
871.011	65.19
871.185	1.71
871.358	-8.53
871.531	-22.87
871.704	50.86
871.877	28.33
872.05	54.95
872.223	5.8
872.396	44.71
872.569	13.99
872.742	-4.44
872.915	-43.35
873.088	18.09
873.261	13.99
873.434	24.23
873.607	-26.96
873.78	79.53
873.953	22.19
874.126	73.39
874.299	30.38
874.471	34.47
874.644	7.85
874.817	24.23
874.99	34.47
875.163	-0.34
875.335	16.04
875.508	50.86
875.681	24.23
875.853	-14.68
876.026	5.8
876.199	18.09
876.371	30.38
876.544	9.9
876.717	63.15
876.889	50.86
877.062	26.28
877.234	22.19
877.407	-2.39
877.579	1.71
877.752	5.8
877.924	-49.49
878.097	44.71
878.269	48.81
878.442	-20.82
878.614	-6.49
878.786	67.24
878.959	-6.49
879.131	120.49
879.303	-59.73
879.476	9.9
879.648	36.52
879.82	42.67
879.993	-35.16
880.165	-98.64
880.337	63.15
880.509	-33.11
880.681	-14.68
880.854	65.19
881.026	-53.59
881.198	38.57
881.37	42.67
881.542	61.1
881.714	38.57
881.886	42.67
882.058	-12.63
882.23	3.75
882.402	46.76
882.574	75.43
882.746	11.95
882.918	-43.35
883.09	-2.39
883.262	40.62
883.434	-12.63
883.606	7.85
883.778	-55.64
883.95	-43.35
884.122	16.04
884.293	-39.25
884.465	-57.68
884.637	34.47
884.809	-43.35
884.98	26.28
885.152	30.38
885.324	13.99
885.496	-35.16
885.667	9.9
885.839	50.86
886.011	91.82
886.182	44.71
886.354	20.14
886.525	34.47
886.697	26.28
886.869	13.99
887.04	-26.96
887.212	61.1
887.383	-0.34
887.555	-8.53
887.726	77.48
887.897	1.71
888.069	16.04
888.24	42.67
888.412	106.15
888.583	5.8
888.754	32.43
888.926	40.62
889.097	36.52
889.268	-0.34
889.44	38.57
889.611	20.14
889.782	-35.16
889.953	1.71
890.125	-41.3
890.296	5.8
890.467	-6.49
890.638	75.43
890.809	-45.4
890.98	9.9
891.151	30.38
891.323	46.76
891.494	-10.58
891.665	-16.73
891.836	-0.34
892.007	20.14
892.178	-24.92
892.349	34.47
892.52	-4.44
892.691	-2.39
892.862	52.91
893.032	-35.16
893.203	13.99
893.374	30.38
893.545	-33.11
893.716	18.09
893.887	71.34
894.057	65.19
894.228	91.82
894.399	44.71
894.57	18.09
894.74	22.19
894.911	-10.58
895.082	-8.53
895.253	-16.73
895.423	40.62
895.594	5.8
895.764	-20.82
895.935	-6.49
896.106	16.04
896.276	-10.58
896.447	18.09
896.617	11.95
896.788	-4.44
896.958	38.57
897.129	5.8
897.299	77.48
897.47	1.71
897.64	30.38
897.81	-0.34
897.981	11.95
898.151	-12.63
898.322	48.81
898.492	-16.73
898.662	-10.58
898.832	-24.92
899.003	59.05
899.173	85.67
899.343	-22.87
899.513	1.71
