Data from USB4F104151__0__12-58-20-898.txt Node

Date: Fri Mar 14 12:58:20 EDT 2025
User: louis
Spectrometer: USB4F10415
Trigger mode: 4
Integration Time (sec): 1.000000E-2
Scans to average: 1
Electric dark correction enabled: true
Nonlinearity correction enabled: false
Boxcar width: 0
XAxis mode: Wavelengths
Number of Pixels in Spectrum: 3648
>>>>>Begin Spectral Data<<<<<
178.204	-103.59
178.424	-103.59
178.644	-103.59
178.864	-44.2
179.084	-54.44
179.304	4.95
179.524	-29.87
179.744	21.33
179.964	-5.29
180.184	-44.2
180.404	41.81
180.624	-60.59
180.844	35.67
181.064	-50.35
181.283	21.33
181.503	-25.77
181.723	90.96
181.943	27.48
182.163	17.24
182.383	-9.39
182.602	25.43
182.822	-31.91
183.042	21.33
183.262	-25.77
183.482	-7.34
183.701	-1.19
183.921	11.09
184.141	-42.15
184.361	-15.53
184.58	-5.29
184.8	31.57
185.02	33.62
185.239	7
185.459	90.96
185.679	78.68
185.898	-3.24
186.118	-40.11
186.338	-36.01
186.557	62.29
186.777	33.62
186.997	47.96
187.216	43.86
187.436	70.48
187.655	52.05
187.875	9.05
188.095	-15.53
188.314	15.19
188.534	52.05
188.753	60.24
188.973	9.05
189.192	29.52
189.412	58.2
189.631	47.96
189.851	9.05
190.07	0.85
190.29	-66.73
190.509	-1.19
190.729	15.19
190.948	19.29
191.168	95.06
191.387	0.85
191.607	-9.39
191.826	-21.67
192.045	25.43
192.265	-25.77
192.484	29.52
192.704	4.95
192.923	35.67
193.142	35.67
193.362	-40.11
193.581	97.11
193.8	-3.24
194.02	-19.63
194.239	111.44
194.458	4.95
194.678	25.43
194.897	25.43
195.116	25.43
195.335	27.48
195.555	23.38
195.774	-7.34
195.993	0.85
196.212	-5.29
196.432	-81.07
196.651	80.72
196.87	-5.29
197.089	72.53
197.308	43.86
197.528	25.43
197.747	-5.29
197.966	52.05
198.185	66.39
198.404	74.58
198.623	9.05
198.842	41.81
199.062	23.38
199.281	9.05
199.5	0.85
199.719	-42.15
199.938	11.09
200.157	101.2
200.376	11.09
200.595	60.24
200.814	43.86
201.033	37.72
201.252	93.01
201.471	15.19
201.69	0.85
201.909	27.48
202.128	39.76
202.347	25.43
202.566	64.34
202.785	41.81
203.004	23.38
203.223	17.24
203.442	-74.92
203.661	-13.48
203.879	52.05
204.098	-15.53
204.317	21.33
204.536	45.91
204.755	-11.43
204.974	52.05
205.193	-19.63
205.411	54.1
205.63	29.52
205.849	2.9
206.068	-40.11
206.287	25.43
206.505	52.05
206.724	90.96
206.943	25.43
207.162	-21.67
207.381	41.81
207.599	74.58
207.818	68.44
208.037	-40.11
208.255	39.76
208.474	60.24
208.693	56.15
208.911	41.81
209.13	47.96
209.349	103.25
209.567	43.86
209.786	64.34
210.005	58.2
210.223	17.24
210.442	-7.34
210.661	2.9
210.879	60.24
211.098	21.33
211.316	66.39
211.535	0.85
211.753	25.43
211.972	107.35
212.191	21.33
212.409	-40.11
212.628	45.91
212.846	52.05
213.065	2.9
213.283	60.24
213.502	-36.01
213.72	86.87
213.938	-64.68
214.157	-46.25
214.375	33.62
214.594	64.34
214.812	-52.39
215.031	52.05
215.249	9.05
215.467	-25.77
215.686	33.62
215.904	21.33
216.122	19.29
216.341	64.34
216.559	60.24
216.778	76.63
216.996	-17.58
217.214	-7.34
217.432	2.9
217.651	-9.39
217.869	29.52
218.087	29.52
218.306	66.39
218.524	35.67
218.742	60.24
218.96	70.48
219.179	37.72
219.397	-3.24
219.615	31.57
219.833	-29.87
220.051	-5.29
220.27	95.06
220.488	21.33
220.706	29.52
220.924	-27.82
221.142	37.72
221.36	39.76
221.578	-13.48
221.796	13.14
222.015	-5.29
222.233	-23.72
222.451	43.86
222.669	27.48
222.887	27.48
223.105	72.53
223.323	56.15
223.541	-11.43
223.759	45.91
223.977	31.57
224.195	2.9
224.413	23.38
224.631	25.43
224.849	-48.3
225.067	-9.39
225.285	50
225.503	54.1
225.721	-21.67
225.939	43.86
226.157	101.2
226.375	52.05
226.592	31.57
226.81	31.57
227.028	56.15
227.246	93.01
227.464	-9.39
227.682	-5.29
227.9	15.19
228.117	-9.39
228.335	23.38
228.553	43.86
228.771	13.14
228.989	27.48
229.206	21.33
229.424	47.96
229.642	-23.72
229.86	15.19
230.077	56.15
230.295	23.38
230.513	60.24
230.731	17.24
230.948	80.72
231.166	84.82
231.384	52.05
231.601	-19.63
231.819	76.63
232.037	76.63
232.254	15.19
232.472	33.62
232.689	56.15
232.907	-13.48
233.125	60.24
233.342	50
233.56	39.76
233.777	19.29
233.995	15.19
234.213	86.87
234.43	27.48
234.648	52.05
234.865	50
235.083	33.62
235.3	39.76
235.518	-19.63
235.735	62.29
235.953	99.16
236.17	72.53
236.388	50
236.605	-3.24
236.822	35.67
237.04	-7.34
237.257	-33.96
237.475	76.63
237.692	82.77
237.909	0.85
238.127	13.14
238.344	17.24
238.562	103.25
238.779	-29.87
238.996	-31.91
239.214	19.29
239.431	58.2
239.648	-27.82
239.865	7
240.083	82.77
240.3	-13.48
240.517	70.48
240.735	56.15
240.952	27.48
241.169	4.95
241.386	-9.39
241.603	35.67
241.821	56.15
242.038	45.91
242.255	-48.3
242.472	82.77
242.689	23.38
242.907	68.44
243.124	78.68
243.341	37.72
243.558	29.52
243.775	-48.3
243.992	-19.63
244.209	72.53
244.426	9.05
244.643	117.59
244.86	43.86
245.078	17.24
245.295	41.81
245.512	43.86
245.729	52.05
245.946	0.85
246.163	76.63
246.38	25.43
246.597	0.85
246.814	62.29
247.031	25.43
247.248	64.34
247.464	-42.15
247.681	11.09
247.898	7
248.115	11.09
248.332	9.05
248.549	60.24
248.766	74.58
248.983	-7.34
249.2	54.1
249.417	107.35
249.633	64.34
249.85	17.24
250.067	-5.29
250.284	90.96
250.501	60.24
250.717	52.05
250.934	-56.49
251.151	21.33
251.368	11.09
251.585	47.96
251.801	21.33
252.018	-11.43
252.235	90.96
252.451	-29.87
252.668	19.29
252.885	19.29
253.102	7
253.318	70.48
253.535	37.72
253.752	33.62
253.968	66.39
254.185	-29.87
254.401	60.24
254.618	25.43
254.835	29.52
255.051	93.01
255.268	64.34
255.484	99.16
255.701	39.76
255.917	52.05
256.134	-15.53
256.351	50
256.567	-15.53
256.784	74.58
257	56.15
257.217	64.34
257.433	60.24
257.65	43.86
257.866	25.43
258.082	4.95
258.299	-25.77
258.515	45.91
258.732	-42.15
258.948	2.9
259.165	43.86
259.381	33.62
259.597	64.34
259.814	41.81
260.03	86.87
260.246	62.29
260.463	68.44
260.679	19.29
260.895	15.19
261.112	45.91
261.328	72.53
261.544	19.29
261.761	37.72
261.977	82.77
262.193	90.96
262.409	-1.19
262.626	33.62
262.842	47.96
263.058	0.85
263.274	0.85
263.49	-38.06
263.707	64.34
263.923	74.58
264.139	-7.34
264.355	43.86
264.571	131.92
264.787	-15.53
265.004	11.09
265.22	45.91
265.436	-1.19
265.652	19.29
265.868	37.72
266.084	-21.67
266.3	17.24
266.516	31.57
266.732	54.1
266.948	-46.25
267.164	60.24
267.38	7
267.596	123.73
267.812	37.72
268.028	70.48
268.244	-5.29
268.46	21.33
268.676	43.86
268.892	68.44
269.108	39.76
269.324	23.38
269.54	101.2
269.756	47.96
269.972	9.05
270.188	50
270.403	74.58
270.619	76.63
270.835	74.58
271.051	43.86
271.267	52.05
271.483	52.05
271.698	-13.48
271.914	31.57
272.13	13.14
272.346	-33.96
272.562	95.06
272.777	-7.34
272.993	93.01
273.209	37.72
273.425	52.05
273.64	-7.34
273.856	15.19
274.072	-44.2
274.287	-5.29
274.503	39.76
274.719	31.57
274.934	41.81
275.15	-11.43
275.366	52.05
275.581	-31.91
275.797	35.67
276.012	0.85
276.228	45.91
276.444	29.52
276.659	52.05
276.875	-21.67
277.09	76.63
277.306	23.38
277.521	19.29
277.737	13.14
277.952	-3.24
278.168	-29.87
278.383	74.58
278.599	-1.19
278.814	17.24
279.03	43.86
279.245	76.63
279.461	37.72
279.676	-5.29
279.892	21.33
280.107	39.76
280.322	-42.15
280.538	-29.87
280.753	29.52
280.969	2.9
281.184	50
281.399	35.67
281.615	29.52
281.83	148.31
282.045	86.87
282.26	0.85
282.476	41.81
282.691	-25.77
282.906	-97.45
283.122	35.67
283.337	-27.82
283.552	68.44
283.767	39.76
283.983	131.92
284.198	2.9
284.413	88.92
284.628	19.29
284.843	21.33
285.058	-29.87
285.274	74.58
285.489	23.38
285.704	50
285.919	27.48
286.134	13.14
286.349	35.67
286.564	58.2
286.779	11.09
286.995	-15.53
287.21	-13.48
287.425	41.81
287.64	76.63
287.855	-5.29
288.07	2.9
288.285	17.24
288.5	-19.63
288.715	52.05
288.93	4.95
289.145	80.72
289.36	31.57
289.575	21.33
289.79	86.87
290.004	37.72
290.219	68.44
290.434	2.9
290.649	4.95
290.864	25.43
291.079	25.43
291.294	35.67
291.509	39.76
291.724	-33.96
291.938	54.1
292.153	66.39
292.368	2.9
292.583	-15.53
292.798	76.63
293.012	66.39
293.227	56.15
293.442	27.48
293.657	45.91
293.871	2.9
294.086	52.05
294.301	78.68
294.516	29.52
294.73	43.86
294.945	-40.11
295.16	45.91
295.374	58.2
295.589	60.24
295.804	2.9
296.018	93.01
296.233	-48.3
296.447	82.77
296.662	111.44
296.877	54.1
297.091	-5.29
297.306	72.53
297.52	-52.39
297.735	17.24
297.949	105.3
298.164	43.86
298.378	58.2
298.593	41.81
298.807	54.1
299.022	62.29
299.236	31.57
299.451	2.9
299.665	-64.68
299.88	11.09
300.094	109.4
300.309	47.96
300.523	25.43
300.737	-27.82
300.952	-1.19
301.166	50
301.381	52.05
301.595	109.4
301.809	25.43
302.024	-33.96
302.238	76.63
302.452	45.91
302.667	-54.44
302.881	21.33
303.095	99.16
303.309	35.67
303.524	-5.29
303.738	-25.77
303.952	33.62
304.166	56.15
304.381	7
304.595	82.77
304.809	2.9
305.023	133.97
305.237	-31.91
305.452	19.29
305.666	56.15
305.88	-11.43
306.094	33.62
306.308	2.9
306.522	82.77
306.736	90.96
306.95	27.48
307.164	25.43
307.379	-21.67
307.593	109.4
307.807	7
308.021	90.96
308.235	41.81
308.449	27.48
308.663	33.62
308.877	101.2
309.091	-19.63
309.305	129.88
309.519	50
309.733	74.58
309.947	-38.06
310.161	41.81
310.374	-44.2
310.588	-15.53
310.802	-21.67
311.016	54.1
311.23	29.52
311.444	-15.53
311.658	84.82
311.872	84.82
312.085	7
312.299	62.29
312.513	74.58
312.727	56.15
312.941	-7.34
313.154	50
313.368	58.2
313.582	99.16
313.796	43.86
314.009	35.67
314.223	60.24
314.437	39.76
314.651	47.96
314.864	-5.29
315.078	11.09
315.292	41.81
315.505	19.29
315.719	95.06
315.933	80.72
316.146	23.38
316.36	45.91
316.573	37.72
316.787	-13.48
317.001	-31.91
317.214	54.1
317.428	93.01
317.641	-29.87
317.855	23.38
318.068	50
318.282	35.67
318.495	43.86
318.709	47.96
318.922	13.14
319.136	21.33
319.349	0.85
319.563	-38.06
319.776	-29.87
319.99	-3.24
320.203	17.24
320.417	39.76
320.63	43.86
320.843	9.05
321.057	74.58
321.27	35.67
321.483	140.12
321.697	113.49
321.91	-23.72
322.124	35.67
322.337	68.44
322.55	17.24
322.763	-25.77
322.977	-13.48
323.19	78.68
323.403	9.05
323.617	115.54
323.83	68.44
324.043	29.52
324.256	4.95
324.469	97.11
324.683	35.67
324.896	-5.29
325.109	7
325.322	68.44
325.535	-9.39
325.748	-17.58
325.962	105.3
326.175	35.67
326.388	76.63
326.601	-3.24
326.814	43.86
327.027	37.72
327.24	78.68
327.453	50
327.666	78.68
327.879	-13.48
328.092	45.91
328.305	74.58
328.518	99.16
328.731	29.52
328.944	9.05
329.157	27.48
329.37	4.95
329.583	13.14
329.796	66.39
330.009	25.43
330.222	23.38
330.435	13.14
330.648	60.24
330.861	60.24
331.073	-1.19
331.286	0.85
331.499	129.88
331.712	13.14
331.925	78.68
332.138	2.9
332.35	9.05
332.563	11.09
332.776	11.09
332.989	47.96
333.202	43.86
333.414	62.29
333.627	2.9
333.84	35.67
334.053	25.43
334.265	41.81
334.478	35.67
334.691	37.72
334.903	17.24
335.116	31.57
335.329	58.2
335.541	105.3
335.754	60.24
335.966	25.43
336.179	25.43
336.392	47.96
336.604	23.38
336.817	19.29
337.029	-11.43
337.242	60.24
337.454	56.15
337.667	21.33
337.88	101.2
338.092	-17.58
338.305	9.05
338.517	58.2
338.729	43.86
338.942	60.24
339.154	50
339.367	72.53
339.579	45.91
339.792	-58.54
340.004	29.52
340.217	0.85
340.429	86.87
340.641	27.48
340.854	0.85
341.066	-31.91
341.278	-1.19
341.491	103.25
341.703	23.38
341.915	-25.77
342.128	54.1
342.34	-19.63
342.552	27.48
342.764	50
342.977	11.09
343.189	37.72
343.401	4.95
343.613	35.67
343.826	9.05
344.038	41.81
344.25	-7.34
344.462	97.11
344.674	82.77
344.886	-7.34
345.099	76.63
345.311	95.06
345.523	84.82
345.735	72.53
345.947	25.43
346.159	70.48
346.371	33.62
346.583	23.38
346.795	56.15
347.007	-7.34
347.219	50
347.431	15.19
347.643	41.81
347.855	25.43
348.067	74.58
348.279	76.63
348.491	70.48
348.703	-13.48
348.915	54.1
349.127	21.33
349.339	35.67
349.551	50
349.763	72.53
349.975	60.24
350.187	50
350.399	76.63
350.61	23.38
350.822	25.43
351.034	60.24
351.246	95.06
351.458	115.54
351.669	41.81
351.881	45.91
352.093	109.4
352.305	39.76
352.517	101.2
352.728	-13.48
352.94	0.85
353.152	39.76
353.363	-52.39
353.575	11.09
353.787	21.33
353.999	35.67
354.21	60.24
354.422	117.59
354.633	103.25
354.845	52.05
355.057	4.95
355.268	33.62
355.48	58.2
355.692	33.62
355.903	2.9
356.115	64.34
356.326	27.48
356.538	50
356.749	41.81
356.961	66.39
357.172	84.82
357.384	41.81
357.595	109.4
357.807	56.15
358.018	76.63
358.23	9.05
358.441	43.86
358.653	68.44
358.864	72.53
359.075	9.05
359.287	29.52
359.498	17.24
359.709	19.29
359.921	-1.19
360.132	15.19
360.344	54.1
360.555	25.43
360.766	27.48
360.977	21.33
361.189	37.72
361.4	41.81
361.611	47.96
361.823	101.2
362.034	50
362.245	50
362.456	39.76
362.667	50
362.879	62.29
363.09	0.85
363.301	74.58
363.512	66.39
363.723	-27.82
363.935	31.57
364.146	0.85
364.357	-17.58
364.568	82.77
364.779	60.24
364.99	66.39
365.201	82.77
365.412	142.16
365.623	90.96
365.834	9.05
366.045	27.48
366.256	2.9
366.467	62.29
366.678	4.95
366.889	15.19
367.1	78.68
367.311	76.63
367.522	56.15
367.733	66.39
367.944	88.92
368.155	33.62
368.366	37.72
368.577	93.01
368.788	66.39
368.999	-11.43
369.209	21.33
369.42	39.76
369.631	127.83
369.842	43.86
370.053	60.24
370.264	78.68
370.474	-13.48
370.685	90.96
370.896	70.48
371.107	17.24
371.317	84.82
371.528	72.53
371.739	56.15
371.95	13.14
372.16	64.34
372.371	45.91
372.582	25.43
372.792	29.52
373.003	54.1
373.214	60.24
373.424	41.81
373.635	37.72
373.846	74.58
374.056	9.05
374.267	-21.67
374.477	11.09
374.688	58.2
374.898	64.34
375.109	99.16
375.319	27.48
375.53	43.86
375.74	68.44
375.951	35.67
376.161	68.44
376.372	78.68
376.582	-17.58
376.793	-29.87
377.003	84.82
377.214	74.58
377.424	60.24
377.635	33.62
377.845	52.05
378.055	117.59
378.266	0.85
378.476	11.09
378.686	-19.63
378.897	111.44
379.107	31.57
379.317	13.14
379.528	41.81
379.738	60.24
379.948	7
380.158	76.63
380.369	82.77
380.579	95.06
380.789	33.62
380.999	76.63
381.21	133.97
381.42	39.76
381.63	68.44
381.84	60.24
382.05	35.67
382.261	107.35
382.471	47.96
382.681	21.33
382.891	33.62
383.101	103.25
383.311	-25.77
383.521	4.95
383.731	45.91
383.941	41.81
384.151	27.48
384.361	17.24
384.571	-66.73
384.781	23.38
384.991	99.16
385.201	17.24
385.411	107.35
385.621	29.52
385.831	9.05
386.041	-9.39
386.251	93.01
386.461	15.19
386.671	-19.63
386.881	47.96
387.091	58.2
387.301	-15.53
387.511	-15.53
387.72	17.24
387.93	54.1
388.14	4.95
388.35	68.44
388.56	50
388.769	-23.72
388.979	58.2
389.189	-11.43
389.399	76.63
389.609	78.68
389.818	41.81
390.028	43.86
390.238	76.63
390.447	62.29
390.657	21.33
390.867	29.52
391.076	23.38
391.286	66.39
391.496	47.96
391.705	-29.87
391.915	101.2
392.125	74.58
392.334	109.4
392.544	97.11
392.753	60.24
392.963	111.44
393.172	66.39
393.382	21.33
393.591	72.53
393.801	70.48
394.01	50
394.22	86.87
394.429	80.72
394.639	101.2
394.848	95.06
395.058	9.05
395.267	133.97
395.477	58.2
395.686	54.1
395.895	127.83
396.105	109.4
396.314	17.24
396.524	80.72
396.733	93.01
396.942	82.77
397.152	99.16
397.361	64.34
397.57	123.73
397.78	29.52
397.989	82.77
398.198	142.16
398.407	0.85
398.617	70.48
398.826	70.48
399.035	62.29
399.244	93.01
399.453	123.73
399.663	29.52
399.872	72.53
400.081	95.06
400.29	86.87
400.499	90.96
400.708	123.73
400.917	109.4
401.127	131.92
401.336	2.9
401.545	119.64
401.754	74.58
401.963	99.16
402.172	-3.24
402.381	136.02
402.59	95.06
402.799	158.55
403.008	156.5
403.217	93.01
403.426	62.29
403.635	119.64
403.844	111.44
404.053	90.96
404.262	207.7
404.471	86.87
404.68	138.07
404.888	144.21
405.097	107.35
405.306	146.26
405.515	107.35
405.724	154.45
405.933	183.12
406.142	195.41
406.35	103.25
406.559	115.54
406.768	152.4
406.977	209.75
407.185	142.16
407.394	160.59
407.603	138.07
407.812	97.11
408.02	187.22
408.229	197.46
408.438	207.7
408.646	78.68
408.855	154.45
409.064	205.65
409.272	174.93
409.481	262.99
409.69	271.19
409.898	232.27
410.107	242.51
410.315	260.95
410.524	269.14
410.733	279.38
410.941	303.95
411.15	291.66
411.358	285.52
411.567	285.52
411.775	269.14
411.984	338.77
412.192	308.05
412.401	338.77
412.609	408.4
412.818	383.82
413.026	441.17
413.234	400.21
413.443	398.16
413.651	428.88
413.86	447.31
414.068	475.98
414.276	441.17
414.485	473.93
414.693	465.74
414.901	516.94
415.11	523.09
415.318	521.04
415.526	574.28
415.734	672.59
415.943	605
416.151	674.64
416.359	613.2
416.567	693.07
416.776	643.92
416.984	783.18
417.192	717.64
417.4	787.27
417.608	846.66
417.817	830.28
418.025	858.95
418.233	865.1
418.441	867.14
418.649	940.87
418.857	914.25
419.065	1030.98
419.273	973.64
419.481	1033.03
419.689	1139.52
419.897	1248.07
420.105	1241.92
420.313	1182.53
420.521	1260.35
420.729	1348.42
420.937	1360.7
421.145	1252.16
421.353	1356.61
421.561	1526.59
421.769	1532.73
421.977	1532.73
422.185	1487.68
422.393	1596.22
422.601	1698.62
422.809	1739.58
423.017	1661.76
423.224	1813.31
423.432	1960.76
423.64	2020.15
423.848	2038.58
424.056	2112.31
424.263	2214.71
424.471	2116.41
424.679	2278.19
424.887	2360.11
425.094	2337.59
425.302	2386.74
425.51	2472.75
425.718	2573.1
425.925	2523.95
426.133	2708.27
426.341	2839.34
426.548	2902.83
426.756	3009.32
426.964	3119.91
427.171	3154.73
427.379	3246.88
427.586	3179.3
427.794	3359.52
428.001	3601.18
428.209	3738.4
428.417	3652.38
428.624	3992.34
428.832	3906.33
429.039	3965.72
429.247	3973.91
429.454	4320.02
429.662	4512.53
429.869	4360.98
430.076	4709.13
430.284	4412.18
430.491	4596.5
430.699	4942.6
430.906	4856.59
431.114	5075.72
431.321	5204.74
431.528	5212.93
431.736	5499.65
431.943	5956.35
432.15	5696.25
432.358	5864.19
432.565	6040.31
432.772	6132.47
432.979	6372.08
433.187	6343.41
433.394	6523.63
433.601	6982.38
433.808	6955.76
434.016	6865.64
434.223	7297.77
434.43	7805.66
434.637	7518.95
434.844	7889.63
435.052	8383.19
435.259	8080.09
435.466	8217.3
435.673	8104.67
435.88	8569.55
436.087	9085.64
436.294	9054.92
436.501	8737.49
436.708	9071.31
436.915	9470.66
437.122	9685.7
437.329	9816.77
437.537	10212.03
437.743	10207.93
437.95	10187.45
438.157	10719.92
438.364	11117.23
438.571	10871.47
438.778	11072.17
438.985	12143.26
439.192	11543.21
439.399	12010.14
439.606	11809.44
439.813	12253.85
440.02	13116.05
440.227	12890.77
440.433	12724.88
440.64	13089.42
440.847	12937.87
441.054	13724.29
441.261	14154.37
441.467	14330.49
441.674	14566.01
441.881	14948.98
442.088	14955.12
442.294	14994.03
442.501	15215.21
442.708	15596.14
442.914	16321.12
443.121	16603.74
443.328	16484.95
443.534	17363.53
443.741	17052.24
443.948	16933.46
444.154	18074.18
444.361	17932.87
444.568	18264.64
444.774	18086.47
444.981	18170.43
445.187	18788.92
445.394	19786.28
445.6	19315.25
445.807	21453.33
446.013	20062.76
446.22	20945.43
446.426	21621.26
446.633	21828.1
446.839	22659.58
447.046	21744.14
447.252	22864.38
447.459	22891
447.665	22698.49
447.871	24146.4
448.078	24971.74
448.284	23783.91
448.491	24162.79
448.697	25295.32
448.903	26026.44
449.11	25815.5
449.316	25588.17
449.522	25944.52
449.728	26622.4
449.935	27146.68
450.141	26986.94
450.347	27877.8
450.553	26847.68
450.76	27259.32
450.966	27931.05
451.172	27576.75
451.378	28266.92
451.584	27703.73
451.791	28459.43
451.997	28307.88
452.203	28899.74
452.409	29016.47
452.615	28586.4
452.821	27808.17
453.027	27384.24
453.233	28920.22
453.44	28027.31
453.646	28123.56
453.852	28127.66
454.058	29079.96
454.264	27984.3
454.47	28496.29
454.676	27417.01
454.882	29114.78
455.088	26126.79
455.294	26601.92
455.5	26999.23
455.705	27294.13
455.911	25868.75
456.117	25780.68
456.323	25293.27
456.529	23978.47
456.735	25178.58
456.941	24795.61
457.147	24166.88
457.352	23204.34
457.558	23020.02
457.764	22964.73
457.97	22385.15
458.176	22123.01
458.381	22288.9
458.587	21277.2
458.793	21711.37
458.999	19790.38
459.204	21574.16
459.41	20806.17
459.616	19438.12
459.821	19530.28
460.027	19745.32
460.233	19073.59
460.438	18168.38
460.644	18764.34
460.85	17711.69
461.055	17345.1
461.261	17197.65
461.466	15827.56
461.672	15510.12
461.878	16345.69
462.083	15368.81
462.289	15034.99
462.494	14846.58
462.7	14312.06
462.905	14111.36
463.111	14463.61
463.316	14467.7
463.522	14137.98
463.727	14180.99
463.932	14131.84
464.138	14248.57
464.343	14148.22
464.549	13685.38
464.754	14199.42
464.959	13961.86
465.165	13818.5
465.37	13226.64
465.575	13077.13
465.781	13548.17
465.986	13613.7
466.191	13116.05
466.397	12714.64
466.602	12014.24
466.807	12655.25
467.012	12704.4
467.218	12655.25
467.423	12436.12
467.628	12626.58
467.833	12976.78
468.038	12389.02
468.244	12081.82
468.449	12784.27
468.654	12259.99
468.859	12020.38
469.064	11907.74
469.269	11526.82
469.474	11733.67
469.679	12069.53
469.885	11578.02
470.09	12147.36
470.295	11975.33
470.5	11477.67
470.705	11518.63
470.91	11086.51
471.115	11256.49
471.32	11020.97
471.525	11201.19
471.73	10881.71
471.935	11006.64
472.139	10539.7
472.344	10773.17
472.549	10570.42
472.754	10519.22
472.959	10300.09
473.164	10109.63
473.369	9999.04
473.574	10298.04
473.778	10099.39
473.983	10152.63
474.188	10013.37
474.393	9568.96
474.598	9421.51
474.802	9521.86
475.007	9507.52
475.212	9419.46
475.417	9110.22
475.621	8934.09
475.826	9212.62
476.031	9016.01
476.235	8825.55
476.44	9052.88
476.645	8741.58
476.849	8864.46
477.054	8760.02
477.259	8368.85
477.463	8620.75
477.668	8295.13
477.872	8348.37
478.077	8123.1
478.282	8178.39
478.486	7899.87
478.691	7981.79
478.895	7965.4
479.1	7875.29
479.304	7805.66
479.509	7568.1
479.713	7914.2
479.918	7805.66
480.122	7639.78
480.326	7824.09
480.531	7609.06
480.735	7541.47
480.94	7525.09
481.144	7764.7
481.348	7512.8
481.553	7447.27
481.757	7277.29
481.961	7465.7
482.166	7428.84
482.37	7455.46
482.574	7293.67
482.778	7443.17
482.983	7504.61
483.187	7420.64
483.391	7342.82
483.595	7414.5
483.8	7213.8
484.004	7246.57
484.208	7414.5
484.412	7234.28
484.616	7324.39
484.821	7328.49
485.025	7246.57
485.229	7316.2
485.433	7267.05
485.637	7389.92
485.841	7178.98
486.045	7236.33
486.249	7176.94
486.453	7250.66
486.657	7219.94
486.861	7299.81
487.065	7160.55
487.269	7273.19
487.473	7107.3
487.677	7301.86
487.881	7301.86
488.085	7252.71
488.289	7265
488.493	7414.5
488.697	7428.84
488.901	7332.58
489.105	7590.63
489.309	7441.12
489.512	7348.97
489.716	7178.98
489.92	7441.12
490.124	7453.41
490.328	7529.19
490.531	7463.65
490.735	7566.05
490.939	7578.34
491.143	7623.39
491.346	7490.28
491.55	7742.18
491.754	7805.66
491.958	7652.06
492.161	7586.53
492.365	7781.09
492.569	7727.84
492.772	7541.47
492.976	7906.01
493.18	7906.01
493.383	8041.18
493.587	8116.95
493.79	8172.25
493.994	7889.63
494.197	7805.66
494.401	8192.73
494.605	8162.01
494.808	8274.65
495.012	8411.86
495.215	8348.37
495.419	8331.99
495.622	8422.1
495.825	8383.19
496.029	8692.43
496.232	8684.24
496.436	8700.62
496.639	9018.06
496.843	8790.74
497.046	9040.59
497.249	9067.21
497.453	9321.16
497.656	9493.19
497.859	9126.6
498.063	9333.45
498.266	9380.55
498.469	9632.45
498.673	9736.9
498.876	9599.68
499.079	9902.78
499.282	9966.27
499.485	10304.18
499.689	10291.9
499.892	10336.95
500.095	10517.17
500.298	10566.32
500.501	10617.52
500.705	10715.83
500.908	11166.38
501.111	11125.42
501.314	11287.21
501.517	11131.56
501.72	11504.29
501.923	11578.02
502.126	11690.66
502.329	11975.33
502.532	12020.38
502.735	11934.37
502.938	12333.72
503.141	12346.01
503.344	12440.22
503.547	12311.19
503.75	12647.06
503.953	13169.29
504.156	13038.22
504.359	12898.96
504.562	12991.12
504.765	13451.91
504.968	13646.47
505.17	13787.78
505.373	13937.28
505.576	13906.56
505.779	14412.41
505.982	14531.19
506.185	14754.42
506.387	14649.97
506.59	14899.83
506.793	15100.53
506.996	15331.95
507.198	15536.74
507.401	15487.59
507.604	15571.56
507.807	15938.15
508.009	16085.6
508.212	16294.49
508.415	16462.43
508.617	16951.89
508.82	16718.42
509.022	16951.89
509.225	17099.34
509.428	17451.6
509.63	17474.12
509.833	17668.68
510.035	18131.52
510.238	17887.81
510.44	18055.75
510.643	18178.62
510.845	18424.38
511.048	18821.69
511.25	18895.41
511.453	18919.99
511.655	20001.32
511.858	19372.59
512.06	19563.05
512.262	19919.4
512.465	19749.42
512.667	20288.03
512.87	20341.28
513.072	20748.82
513.274	20957.72
513.477	21096.98
513.679	21303.82
513.881	21828.1
514.084	21803.53
514.286	21899.78
514.488	22116.87
514.69	22708.73
514.893	22737.4
515.095	22745.59
515.297	23052.79
515.499	23030.26
515.701	23568.88
515.904	23581.17
516.106	23857.64
516.308	24291.81
516.51	24228.32
516.712	24381.92
516.914	24828.38
517.116	25461.2
517.318	25127.38
517.52	25321.94
517.722	25401.81
517.925	25733.58
518.127	26190.28
518.329	26282.44
518.531	26190.28
518.733	26997.18
518.935	26976.7
519.136	27072.95
519.338	27527.6
519.54	27533.75
519.742	28041.64
519.944	27967.91
520.146	28135.85
520.348	28613.02
520.55	28627.36
520.752	28897.69
520.954	29374.87
521.155	29464.98
521.357	29256.09
521.559	29700.5
521.761	30194.06
521.963	30126.47
522.164	30130.57
522.366	30470.53
522.568	30902.65
522.77	31019.39
522.971	31582.58
523.173	31342.97
523.375	31234.42
523.576	31691.12
523.778	31541.62
523.98	32258.41
524.181	32233.83
524.383	32285.03
524.584	32680.29
524.786	32661.86
524.988	32627.04
525.189	32850.27
525.391	33106.27
525.592	33417.56
525.794	33567.06
525.995	33517.91
526.197	33341.78
526.398	33769.81
526.6	34001.23
526.801	34044.24
527.003	34287.95
527.204	34369.86
527.406	34898.24
527.607	34236.75
527.808	34621.77
528.01	33853.78
528.211	34476.36
528.412	35127.61
528.614	35326.27
528.815	35234.11
529.016	35322.17
529.218	35268.92
529.419	35176.76
529.62	35445.05
529.822	35307.83
530.023	35356.99
530.224	35539.26
530.425	35643.7
530.626	35432.76
530.828	35395.9
531.029	36122.93
531.23	35610.93
531.431	36081.97
531.632	35688.76
531.833	36065.58
532.035	35907.89
532.236	36264.24
532.437	36317.48
532.638	35694.9
532.839	36196.65
533.04	36395.31
533.241	35791.16
533.442	36587.82
533.643	36301.1
533.844	36200.75
534.045	36520.23
534.246	36096.3
534.447	36346.15
534.648	36190.51
534.849	36258.09
535.05	36000.05
535.251	36370.73
535.451	36016.43
535.652	36292.91
535.853	36350.25
536.054	36483.37
536.255	36110.64
536.456	35954.99
536.657	37011.74
536.857	36540.71
537.058	36041.01
537.259	36337.96
537.46	36370.73
537.66	36088.11
537.861	36417.83
538.062	36346.15
538.263	36477.22
538.463	35696.95
538.664	36331.82
538.865	36297
539.065	35993.9
539.266	35723.57
539.466	36600.1
539.667	35991.86
539.868	36190.51
540.068	36438.31
540.269	36196.65
540.469	36475.18
540.67	36260.14
540.87	36229.42
541.071	35957.04
541.271	36340.01
541.472	36100.4
541.672	36454.7
541.873	36149.55
542.073	35946.8
542.274	36180.27
542.474	36038.96
542.675	35983.66
542.875	36137.26
543.075	35850.55
543.276	35266.88
543.476	36208.94
543.676	35815.73
543.877	36176.17
544.077	35942.7
544.277	35989.81
544.478	35793.2
544.678	36565.29
544.878	35924.27
545.078	36106.54
545.279	35729.72
545.479	35809.59
545.679	36036.91
545.879	35787.06
546.079	35895.6
546.28	36061.49
546.48	35320.12
546.68	35838.26
546.88	35680.56
547.08	35776.82
547.28	35645.75
547.48	35340.6
547.68	35780.92
547.88	35744.05
548.081	36110.64
548.281	35721.52
548.481	35324.22
548.681	35770.68
548.881	35733.81
549.081	36018.48
549.28	35684.66
549.48	36020.53
549.68	35649.85
549.88	35938.61
550.08	35729.72
550.28	35686.71
550.48	35629.37
550.68	35852.59
550.88	35174.72
551.08	35324.22
551.279	35678.52
551.479	35234.11
551.679	35602.74
551.879	35434.81
552.079	35447.1
552.278	35606.84
552.478	35602.74
552.678	35688.76
552.878	35277.12
553.077	35432.76
553.277	35021.12
553.477	36002.1
553.676	35393.85
553.876	35377.47
554.076	35141.95
554.275	35393.85
554.475	34906.43
554.674	35649.85
554.874	35316.03
555.074	35088.7
555.273	35406.14
555.473	35238.2
555.672	35055.93
555.872	34840.9
556.071	34978.11
556.271	34851.14
556.47	34898.24
556.67	35166.52
556.869	34775.36
557.068	34945.34
557.268	34765.12
557.467	34550.09
557.667	34474.31
557.866	35037.5
558.065	34908.48
558.265	34492.74
558.464	34605.38
558.663	34713.92
558.863	34490.7
559.062	34871.62
559.261	34396.49
559.461	34464.07
559.66	34439.5
559.859	34562.37
560.058	34056.53
560.258	34601.29
560.457	33890.64
560.656	34363.72
560.855	34279.75
561.054	34253.13
561.253	33894.74
561.453	34107.72
561.652	34187.6
561.851	34175.31
562.05	33950.03
562.249	33669.46
562.448	33956.18
562.647	34011.47
562.846	33755.47
563.045	33894.74
563.244	33304.92
563.443	34048.33
563.642	33182.04
563.841	33479
564.04	33739.09
564.239	33536.34
564.438	33343.83
564.637	33466.71
564.836	33282.39
565.035	32964.96
565.234	33061.21
565.432	33018.21
565.631	32907.62
565.83	32899.42
566.029	32696.67
566.228	32719.2
566.427	32772.45
566.625	32633.19
566.824	32407.91
567.023	32530.79
567.222	32199.02
567.42	32815.46
567.619	32668
567.818	32041.32
568.016	32223.59
568.215	32321.9
568.414	32153.96
568.612	32242.03
568.811	31754.61
569.01	32065.9
569.208	31793.52
569.407	31639.92
569.605	31213.95
569.804	32000.37
570.002	31334.78
570.201	31836.53
570.4	31457.65
570.598	31342.97
570.797	31140.22
570.995	31390.07
571.193	30761.34
571.392	31406.45
571.59	31093.11
571.789	30769.54
571.987	31084.92
572.186	30800.26
572.384	30572.93
572.582	30656.9
572.781	30962.04
572.979	30423.43
573.177	30466.44
573.376	30486.92
573.574	30146.95
573.772	30157.19
573.971	30308.74
574.169	30247.3
574.367	29575.57
574.565	29972.88
574.763	29874.57
574.962	29649.3
575.16	29491.6
575.358	29720.98
575.556	29327.77
575.754	29483.41
575.952	29235.61
576.151	29299.09
576.349	28946.84
576.547	29002.14
576.745	28989.85
576.943	29325.72
577.141	29182.36
577.339	29008.28
577.537	28563.87
577.735	29012.38
577.933	28486.05
578.131	28801.44
578.329	28383.65
578.527	28291.49
578.725	28391.84
578.923	28504.48
579.121	28248.49
579.319	28328.36
579.516	28170.66
579.714	28236.2
579.912	27914.67
580.11	27869.61
580.308	27879.85
580.506	27926.96
580.704	27511.22
580.901	27976.11
581.099	27951.53
581.297	27371.96
581.495	27451.83
581.692	27605.42
581.89	27058.62
582.088	27533.75
582.285	27290.04
582.483	27118.01
582.681	27197.88
582.878	26970.55
583.076	26925.5
583.274	26878.4
583.471	26374.59
583.669	26931.64
583.866	26157.51
584.064	26751.42
584.262	26196.42
584.459	26413.51
584.657	26110.41
584.854	26579.39
585.052	25917.9
585.249	26194.37
585.447	26100.17
585.644	25592.27
585.841	25987.53
586.039	25911.75
586.236	25522.64
586.434	25913.8
586.631	25459.15
586.828	25725.39
587.026	25340.37
587.223	25514.45
587.42	25135.57
587.618	25405.91
587.815	24977.88
588.012	25041.37
588.21	24789.47
588.407	25444.82
588.604	24867.29
588.801	24938.97
588.999	24463.84
589.196	24652.25
589.393	24599.01
589.59	24367.59
589.787	24469.98
589.984	24429.02
590.182	24390.11
590.379	24447.46
590.576	24283.62
590.773	24115.69
590.97	24125.93
591.167	24240.61
591.364	23710.19
591.561	23800.3
591.758	23818.73
591.955	23683.56
592.152	23572.97
592.349	23263.73
592.546	23515.63
592.743	23714.28
592.94	23288.31
593.137	23564.78
593.334	23339.51
593.531	22845.94
593.727	23007.73
593.924	23376.37
594.121	22807.03
594.318	22952.44
594.515	22780.41
594.712	23024.12
594.908	22606.33
595.105	22733.31
595.302	22508.03
595.499	22573.56
595.696	22233.6
595.892	22450.69
596.089	22555.13
596.286	22516.22
596.482	22241.79
596.679	22231.55
596.876	22213.12
597.072	22141.44
597.269	21940.74
597.466	21918.21
597.662	21660.17
597.859	21799.43
598.055	21942.79
598.252	21486.09
598.448	21457.42
598.645	21240.34
598.841	21621.26
599.038	21406.22
599.234	21391.89
599.431	21051.92
599.627	21119.51
599.824	21137.94
600.02	21273.1
600.217	20797.98
600.413	20982.29
600.609	20941.33
600.806	20668.95
601.002	20840.98
601.198	20488.73
601.395	20544.03
601.591	20206.11
601.787	20406.81
601.984	20531.74
602.18	20406.81
602.376	20480.54
602.572	19970.6
602.769	20253.22
602.965	20007.46
603.161	20202.02
603.357	20136.48
603.553	19974.69
603.75	19853.86
603.946	19640.87
604.142	19923.49
604.338	19540.52
604.534	19571.24
604.73	19194.42
604.926	19448.36
605.122	19661.35
605.318	19604.01
605.514	19436.08
605.71	18719.29
605.906	19345.97
606.102	19120.69
606.298	19145.27
606.494	19114.55
606.69	18874.93
606.886	19079.73
607.082	18940.47
607.278	19153.46
607.474	18719.29
607.67	18688.57
607.866	18604.6
608.062	18805.3
608.257	18602.55
608.453	18469.44
608.649	18790.97
608.845	18481.72
609.041	18569.79
609.236	18416.19
609.432	18494.01
609.628	18174.53
609.824	18160.19
610.019	18176.58
610.215	18076.23
610.411	18166.34
610.606	17912.39
610.802	18094.66
610.998	18082.37
611.193	17896
611.389	17654.34
611.584	17822.28
611.78	17748.55
611.976	17853
612.171	17820.23
612.367	17597
612.562	17525.32
612.758	17453.64
612.953	17168.98
613.149	17812.04
613.344	17482.31
613.539	17893.96
613.735	17607.24
613.93	17558.09
614.126	17367.63
614.321	17648.2
614.517	17379.92
614.712	17306.19
614.907	17130.06
615.103	17205.84
615.298	16826.96
615.493	17388.11
615.688	17029.71
615.884	17148.5
616.079	16863.83
616.274	17281.61
616.47	17029.71
616.665	17048.15
616.86	16941.65
617.055	16745.05
617.25	16601.69
617.445	16925.27
617.641	16433.75
617.836	16751.19
618.031	16630.36
618.226	16716.37
618.421	16343.64
618.616	16605.78
618.811	16181.85
619.006	16550.49
619.201	16089.7
619.396	16441.95
619.591	16032.35
619.786	16355.93
619.981	16024.16
620.176	16112.22
620.371	15706.73
620.566	16042.59
620.761	15655.53
620.956	15751.78
621.151	15622.76
621.346	15551.08
621.541	15311.47
621.735	15501.93
621.93	15108.72
622.125	15123.05
622.32	14959.22
622.515	15164.01
622.709	14936.69
622.904	14926.45
623.099	14740.08
623.294	14928.5
623.488	14541.43
623.683	14756.47
623.878	14539.38
624.072	14363.26
624.267	14514.81
624.462	14131.84
624.656	13886.08
624.851	14248.57
625.046	13959.81
625.24	13974.14
625.435	13912.71
625.629	13998.72
625.824	13699.72
626.018	13683.33
626.213	13630.09
626.407	13494.92
626.602	13443.72
626.796	13386.38
626.991	13396.62
627.185	13329.03
627.38	13339.27
627.574	13236.88
627.768	13124.24
627.963	12980.88
628.157	12941.97
628.352	12802.71
628.546	12552.85
628.74	12735.12
628.935	12731.03
629.129	12612.24
629.323	12444.31
629.517	12325.53
629.712	12550.81
629.906	12341.91
630.1	12319.39
630.294	12216.99
630.489	11981.47
630.683	12083.87
630.877	12102.3
631.071	11834.02
631.265	12040.86
631.459	11741.86
631.653	11532.97
631.848	11629.22
632.042	11381.42
632.236	11791.01
632.43	11535.01
632.624	11463.33
632.818	11508.39
633.012	11397.8
633.206	11147.95
633.4	11174.57
633.594	10969.77
633.788	10803.89
633.982	10920.62
634.176	10863.28
634.369	10916.53
634.563	10875.57
634.757	10998.45
634.951	10996.4
635.145	10629.81
635.339	10638
635.533	10568.37
635.726	10459.83
635.92	10420.92
636.114	10570.42
636.308	10363.58
636.501	10465.97
636.695	10357.43
636.889	10056.38
637.083	10212.03
637.276	10107.58
637.47	10111.68
637.664	9990.84
637.857	10044.09
638.051	10146.49
638.244	9798.34
638.438	9859.77
638.632	9870.01
638.825	9583.3
639.019	9700.03
639.212	9599.68
639.406	9448.13
639.599	9515.72
639.793	9478.85
639.986	9282.25
640.18	9312.97
640.373	9220.81
640.567	9337.54
640.76	9206.47
640.954	9175.75
641.147	8954.57
641.34	9061.07
641.534	8872.65
641.727	8862.41
641.92	8841.93
642.114	8592.08
642.307	8714.96
642.5	8620.75
642.694	8696.53
642.887	8532.69
643.08	8557.27
643.273	8467.16
643.467	8368.85
643.66	8280.79
643.853	8313.56
644.046	8299.22
644.239	8192.73
644.432	8200.92
644.626	8272.6
644.819	8157.91
645.012	8053.47
645.205	8063.71
645.398	8100.57
645.591	7946.97
645.784	7744.22
645.977	7770.85
646.17	7934.68
646.363	7592.67
646.556	7590.63
646.749	7699.17
646.942	7596.77
647.135	7516.9
647.328	7574.24
647.521	7420.64
647.714	7432.93
647.907	7457.51
648.099	7301.86
648.292	7172.84
648.485	7181.03
648.678	7275.24
648.871	7285.48
649.064	7058.15
649.256	7158.5
649.449	7035.63
649.642	7166.7
649.835	6935.28
650.027	6824.69
650.22	6904.56
650.413	6816.49
650.605	6802.16
650.798	6843.12
650.991	6523.63
651.183	6785.77
651.376	6466.29
651.568	6714.09
651.761	6607.6
651.954	6570.74
652.146	6347.51
652.339	6505.2
652.531	6488.82
652.724	6411
652.916	6329.08
653.109	6279.93
653.301	6345.46
653.494	6263.54
653.686	6292.21
653.879	6304.5
654.071	6189.81
654.263	6103.8
654.456	6296.31
654.648	6091.51
654.84	5892.86
655.033	6095.61
655.225	5970.68
655.417	5999.35
655.61	5968.63
655.802	6052.6
655.994	5710.59
656.186	5792.51
656.379	5856
656.571	5888.76
656.763	5765.89
656.955	5806.84
657.148	5796.6
657.34	5604.1
657.532	5616.38
657.724	5554.94
657.916	5477.12
658.108	5487.36
658.3	5483.27
658.492	5483.27
658.684	5462.79
658.876	5337.86
659.068	5266.18
659.26	5260.04
659.452	5323.52
659.644	5235.46
659.836	5133.06
660.028	5223.17
660.22	5147.4
660.412	5106.44
660.604	4901.64
660.796	5122.82
660.988	5030.66
661.18	5006.09
661.372	4975.37
661.563	4879.11
661.755	4907.79
661.947	4952.84
662.139	4854.54
662.331	4911.88
662.522	4619.02
662.714	4805.39
662.906	4768.52
663.097	4815.63
663.289	4786.96
663.481	4619.02
663.673	4631.31
663.864	4514.58
664.056	4533.01
664.247	4629.26
664.439	4455.19
664.631	4426.51
664.822	4588.3
665.014	4498.19
665.205	4254.48
665.397	4344.6
665.588	4385.55
665.78	4428.56
665.971	4358.93
666.163	4408.08
666.354	4145.94
666.546	4184.85
666.737	4170.52
666.929	4115.22
667.12	4248.34
667.311	4123.41
667.503	4031.26
667.694	4080.41
667.885	3971.86
668.077	4133.65
668.268	4014.87
668.459	4002.58
668.651	3937.05
668.842	3992.34
669.033	3840.79
669.224	4002.58
669.416	4006.68
669.607	3912.47
669.798	3885.85
669.989	3818.27
670.18	3756.83
670.371	3816.22
670.563	3838.75
670.754	3803.93
670.945	3666.72
671.136	3881.75
671.327	3748.64
671.518	3734.3
671.709	3734.3
671.9	3636
672.091	3672.86
672.282	3582.75
672.473	3533.6
672.664	3590.94
672.855	3539.74
673.046	3519.26
673.237	3613.47
673.428	3638.05
673.619	3498.78
673.809	3408.67
674	3480.35
674.191	3406.63
674.382	3365.67
674.573	3402.53
674.764	3533.6
674.954	3343.14
675.145	3400.48
675.336	3418.91
675.527	3310.37
675.717	3367.71
675.908	3277.6
676.099	3293.99
676.289	3232.55
676.48	3234.6
676.671	3218.21
676.861	3177.25
677.052	3167.01
677.243	3115.81
677.433	3167.01
677.624	3169.06
677.814	3285.8
678.005	3230.5
678.195	3072.81
678.386	3083.05
678.576	3058.47
678.767	3021.61
678.957	3040.04
679.148	3126.05
679.338	3107.62
679.529	3007.27
679.719	3011.37
679.909	3132.2
680.1	3003.18
680.29	2982.7
680.481	2878.25
680.671	3031.85
680.861	2861.87
681.052	2966.31
681.242	3011.37
681.432	2997.03
681.622	3019.56
681.813	2872.11
682.003	2925.35
682.193	2962.22
682.383	2814.76
682.573	2843.43
682.764	2870.06
682.954	2868.01
683.144	2827.05
683.334	2874.15
683.524	2794.28
683.714	2804.52
683.904	2743.08
684.094	2855.72
684.284	2714.41
684.474	2722.6
684.664	2708.27
684.854	2698.03
685.044	2722.6
685.234	2685.74
685.424	2802.47
685.614	2593.58
685.804	2734.89
685.994	2706.22
686.184	2726.7
686.374	2646.83
686.564	2638.64
686.753	2687.79
686.943	2609.97
687.133	2652.97
687.323	2745.13
687.513	2679.6
687.702	2591.53
687.892	2665.26
688.082	2624.3
688.272	2644.78
688.461	2759.47
688.651	2546.48
688.841	2605.87
689.03	2532.14
689.22	2526
689.41	2566.96
689.599	2569.01
689.789	2630.45
689.979	2577.2
690.168	2485.04
690.358	2464.56
690.547	2513.71
690.737	2589.49
690.926	2562.86
691.116	2474.8
691.305	2597.68
691.495	2450.22
691.684	2444.08
691.874	2493.23
692.063	2456.37
692.252	2482.99
692.442	2487.09
692.631	2394.93
692.82	2386.74
693.01	2370.35
693.199	2360.11
693.388	2403.12
693.578	2421.55
693.767	2382.64
693.956	2294.58
694.146	2495.28
694.335	2439.98
694.524	2439.98
694.713	2476.85
694.902	2349.87
695.092	2329.39
695.281	2253.62
695.47	2300.72
695.659	2333.49
695.848	2304.82
696.037	2310.96
696.226	2358.07
696.415	2331.44
696.604	2368.31
696.793	2288.43
696.982	2343.73
697.171	2286.39
697.36	2368.31
697.549	2267.95
697.738	2126.64
697.927	2347.83
698.116	2315.06
698.305	2300.72
698.494	2233.14
698.683	2253.62
698.872	2444.08
699.061	2265.91
699.25	2292.53
699.438	2208.56
699.627	2206.52
699.816	2333.49
700.005	2227
700.193	2231.09
700.382	2276.15
700.571	2261.81
700.76	2235.19
700.948	2165.56
701.137	2134.84
701.326	2167.6
701.514	2222.9
701.703	2259.76
701.892	2179.89
702.08	2231.09
702.269	2181.94
702.457	2210.61
702.646	2173.75
702.834	2179.89
703.023	2208.56
703.212	2210.61
703.4	2085.69
703.589	2093.88
703.777	2147.12
703.965	2202.42
704.154	1995.57
704.342	2153.27
704.531	2097.97
704.719	2054.97
704.907	2233.14
705.096	2005.81
705.284	2034.49
705.472	2034.49
705.661	2061.11
705.849	2061.11
706.037	1999.67
706.226	2046.77
706.414	2198.32
706.602	1975.1
706.79	2147.12
706.979	2114.36
707.167	2116.41
707.355	2032.44
707.543	2069.3
707.731	1995.57
707.919	2020.15
708.107	2009.91
708.296	2001.72
708.484	1983.29
708.672	2063.16
708.86	2081.59
709.048	2016.05
709.236	1909.56
709.424	1946.42
709.612	2001.72
709.8	1884.98
709.988	1852.22
710.176	2007.86
710.364	1901.37
710.551	1938.23
710.739	1975.1
710.927	1907.51
711.115	1862.46
711.303	1907.51
711.491	1882.94
711.679	1796.92
711.866	1852.22
712.054	1770.3
712.242	1919.8
712.43	1874.74
712.617	1827.64
712.805	1850.17
712.993	1819.45
713.181	1803.07
713.368	1897.27
713.556	1895.22
713.744	1823.55
713.931	1835.83
714.119	1848.12
714.306	1805.11
714.494	1798.97
714.682	1852.22
714.869	1829.69
715.057	1807.16
715.244	1860.41
715.432	1749.82
715.619	1813.31
715.807	1786.68
715.994	1811.26
716.182	1790.78
716.369	1776.44
716.556	1727.29
716.744	1729.34
716.931	1835.83
717.119	1751.87
717.306	1794.87
717.493	1684.28
717.681	1790.78
717.868	1608.51
718.055	1684.28
718.242	1735.48
718.43	1674.04
718.617	1663.8
718.804	1610.56
718.991	1805.11
719.179	1594.17
719.366	1751.87
719.553	1747.77
719.74	1610.56
719.927	1557.31
720.114	1684.28
720.301	1602.36
720.488	1667.9
720.676	1542.97
720.863	1620.8
721.05	1749.82
721.237	1680.19
721.424	1547.07
721.611	1467.2
721.798	1563.45
721.985	1549.12
722.172	1612.6
722.358	1575.74
722.545	1573.69
722.732	1614.65
722.919	1596.22
723.106	1540.93
723.293	1542.97
723.48	1610.56
723.667	1448.77
723.853	1534.78
724.04	1626.94
724.227	1616.7
724.414	1526.59
724.6	1465.15
724.787	1542.97
724.974	1573.69
725.161	1549.12
725.347	1434.43
725.534	1536.83
725.72	1571.65
725.907	1469.25
726.094	1512.25
726.28	1497.92
726.467	1459.01
726.653	1518.4
726.84	1383.23
727.027	1545.02
727.213	1389.38
727.4	1444.67
727.586	1479.49
727.773	1432.38
727.959	1551.17
728.145	1379.14
728.332	1338.18
728.518	1362.75
728.705	1356.61
728.891	1401.66
729.077	1413.95
729.264	1540.93
729.45	1422.14
729.636	1473.34
729.823	1303.36
730.009	1438.53
730.195	1338.18
730.382	1397.57
730.568	1405.76
730.754	1401.66
730.94	1325.89
731.126	1370.94
731.313	1409.86
731.499	1352.51
731.685	1395.52
731.871	1448.77
732.057	1360.7
732.243	1381.18
732.429	1393.47
732.615	1358.66
732.801	1315.65
732.987	1350.46
733.173	1338.18
733.359	1289.03
733.545	1352.51
733.731	1338.18
733.917	1280.83
734.103	1352.51
734.289	1405.76
734.475	1278.79
734.661	1268.55
734.847	1311.55
735.033	1225.54
735.219	1307.46
735.404	1307.46
735.59	1313.6
735.776	1350.46
735.962	1282.88
736.148	1262.4
736.333	1305.41
736.519	1317.7
736.705	1180.48
736.89	1354.56
737.076	1243.97
737.262	1215.3
737.447	1301.31
737.633	1309.51
737.819	1157.96
738.004	1321.79
738.19	1180.48
738.375	1164.1
738.561	1305.41
738.747	1225.54
738.932	1219.39
739.118	1215.3
739.303	1252.16
739.489	1284.93
739.674	1211.2
739.859	1198.92
740.045	1129.28
740.23	1168.2
740.416	1166.15
740.601	1170.24
740.786	1155.91
740.972	1172.29
741.157	1192.77
741.342	1160
741.528	1143.62
741.713	1100.61
741.898	1123.14
742.084	1205.06
742.269	1203.01
742.454	1217.35
742.639	1157.96
742.824	1110.85
743.01	1106.76
743.195	1145.67
743.38	1174.34
743.565	1039.17
743.75	1131.33
743.935	1055.56
744.12	1129.28
744.305	1039.17
744.49	1096.52
744.675	1026.89
744.86	1041.22
745.045	1082.18
745.23	979.78
745.415	1016.65
745.6	1078.08
745.785	1012.55
745.97	1098.56
746.155	1028.93
746.34	1053.51
746.525	1022.79
746.71	1076.04
746.895	944.97
747.079	1098.56
747.264	992.07
747.449	1053.51
747.634	1037.13
747.819	1041.22
748.003	1020.74
748.188	996.17
748.373	1022.79
748.557	922.44
748.742	1065.8
748.927	987.97
749.111	951.11
749.296	856.9
749.481	942.92
749.665	971.59
749.85	961.35
750.034	940.87
750.219	854.86
750.404	869.19
750.588	953.16
750.773	901.96
750.957	854.86
751.141	904.01
751.326	887.62
751.51	846.66
751.695	940.87
751.879	926.54
752.064	779.08
752.248	861
752.432	901.96
752.617	861
752.801	879.43
752.985	803.66
753.17	893.77
753.354	885.58
753.538	856.9
753.722	799.56
753.907	697.16
754.091	869.19
754.275	768.84
754.459	815.94
754.643	764.75
754.828	785.23
755.012	807.75
755.196	762.7
755.38	774.99
755.564	836.42
755.748	729.93
755.932	799.56
756.116	684.87
756.3	770.89
756.484	774.99
756.668	719.69
756.852	738.12
757.036	744.27
757.22	777.03
757.404	656.2
757.588	736.07
757.772	715.59
757.956	715.59
758.14	762.7
758.323	729.93
758.507	691.02
758.691	674.64
758.875	705.35
759.059	682.83
759.242	713.55
759.426	754.51
759.61	656.2
759.794	648.01
759.977	686.92
760.161	668.49
760.345	688.97
760.528	676.68
760.712	676.68
760.895	621.39
761.079	654.16
761.263	639.82
761.446	553.8
761.63	676.68
761.813	617.29
761.997	529.23
762.18	617.29
762.364	643.92
762.547	645.96
762.731	609.1
762.914	635.72
763.098	594.76
763.281	602.96
763.464	617.29
763.648	574.28
763.831	582.48
764.015	615.24
764.198	613.2
764.381	633.68
764.564	568.14
764.748	557.9
764.931	656.2
765.114	594.76
765.297	590.67
765.481	607.05
765.664	611.15
765.847	586.57
766.03	617.29
766.213	578.38
766.397	627.53
766.58	607.05
766.763	598.86
766.946	613.2
767.129	600.91
767.312	572.24
767.495	521.04
767.678	516.94
767.861	566.09
768.044	574.28
768.227	602.96
768.41	566.09
768.593	531.28
768.776	553.8
768.959	617.29
769.142	510.8
769.324	516.94
769.507	598.86
769.69	584.52
769.873	467.79
770.056	492.37
770.239	602.96
770.421	541.52
770.604	537.42
770.787	461.65
770.97	502.61
771.152	582.48
771.335	537.42
771.518	430.93
771.7	500.56
771.883	475.98
772.066	512.85
772.248	461.65
772.431	488.27
772.613	502.61
772.796	594.76
772.978	504.65
773.161	529.23
773.343	512.85
773.526	469.84
773.708	482.13
773.891	502.61
774.073	512.85
774.256	492.37
774.438	482.13
774.621	418.64
774.803	465.74
774.985	432.97
775.168	478.03
775.35	469.84
775.532	451.41
775.715	414.54
775.897	422.73
776.079	473.93
776.261	373.58
776.444	457.55
776.626	426.83
776.808	346.96
776.99	514.89
777.173	428.88
777.355	488.27
777.537	406.35
777.719	408.4
777.901	330.58
778.083	414.54
778.265	490.32
778.447	439.12
778.629	416.59
778.811	383.82
778.993	420.69
779.175	326.48
779.357	332.62
779.539	457.55
779.721	394.06
779.903	418.64
780.085	330.58
780.267	394.06
780.449	324.43
780.631	349.01
780.812	449.36
780.994	406.35
781.176	346.96
781.358	328.53
781.54	297.81
781.721	279.38
781.903	361.3
782.085	318.29
782.267	369.49
782.448	336.72
782.63	242.51
782.812	291.66
782.993	361.3
783.175	371.54
783.357	289.62
783.538	375.63
783.72	299.86
783.901	277.33
784.083	367.44
784.264	353.1
784.446	373.58
784.627	306
784.809	318.29
784.99	312.14
785.172	312.14
785.353	297.81
785.535	275.28
785.716	267.09
785.897	303.95
786.079	250.71
786.26	295.76
786.441	338.77
786.623	260.95
786.804	240.47
786.985	306
787.167	363.34
787.348	258.9
787.529	330.58
787.71	213.84
787.891	314.19
788.073	248.66
788.254	328.53
788.435	287.57
788.616	254.8
788.797	250.71
788.978	320.34
789.159	209.75
789.34	254.8
789.522	262.99
789.703	283.47
789.884	273.23
790.065	187.22
790.246	299.86
790.427	267.09
790.607	258.9
790.788	246.61
790.969	258.9
791.15	213.84
791.331	275.28
791.512	195.41
791.693	224.08
791.874	318.29
792.054	189.27
792.235	281.43
792.416	176.98
792.597	234.32
792.778	224.08
792.958	170.83
793.139	207.7
793.32	176.98
793.5	191.31
793.681	240.47
793.862	166.74
794.042	234.32
794.223	191.31
794.404	211.79
794.584	234.32
794.765	201.55
794.945	230.23
795.126	252.75
795.306	179.03
795.487	125.78
795.667	170.83
795.848	172.88
796.028	215.89
796.209	248.66
796.389	240.47
796.57	232.27
796.75	170.83
796.93	179.03
797.111	203.6
797.291	148.31
797.471	172.88
797.652	191.31
797.832	207.7
798.012	181.07
798.192	191.31
798.373	179.03
798.553	172.88
798.733	166.74
798.913	185.17
799.093	168.79
799.274	113.49
799.454	156.5
799.634	168.79
799.814	136.02
799.994	125.78
800.174	234.32
800.354	207.7
800.534	176.98
800.714	136.02
800.894	115.54
801.074	119.64
801.254	109.4
801.434	150.36
801.614	189.27
801.794	138.07
801.974	367.44
802.154	203.6
802.334	219.99
802.514	99.16
802.693	168.79
802.873	109.4
803.053	138.07
803.233	199.51
803.413	101.2
803.592	70.48
803.772	140.12
803.952	234.32
804.131	142.16
804.311	150.36
804.491	213.84
804.67	117.59
804.85	140.12
805.03	127.83
805.209	222.03
805.389	142.16
805.568	166.74
805.748	154.45
805.928	105.3
806.107	205.65
806.287	142.16
806.466	90.96
806.646	160.59
806.825	133.97
807.004	224.08
807.184	131.92
807.363	189.27
807.543	152.4
807.722	90.96
807.901	156.5
808.081	170.83
808.26	131.92
808.439	119.64
808.619	160.59
808.798	95.06
808.977	131.92
809.156	129.88
809.336	82.77
809.515	205.65
809.694	99.16
809.873	82.77
810.052	107.35
810.231	109.4
810.411	166.74
810.59	115.54
810.769	133.97
810.948	197.46
811.127	58.2
811.306	144.21
811.485	111.44
811.664	107.35
811.843	144.21
812.022	117.59
812.201	93.01
812.38	60.24
812.559	136.02
812.737	105.3
812.916	95.06
813.095	82.77
813.274	86.87
813.453	56.15
813.632	107.35
813.811	103.25
813.989	95.06
814.168	127.83
814.347	123.73
814.526	150.36
814.704	84.82
814.883	109.4
815.062	84.82
815.24	86.87
815.419	107.35
815.598	93.01
815.776	95.06
815.955	90.96
816.133	99.16
816.312	152.4
816.49	125.78
816.669	162.64
816.847	123.73
817.026	119.64
817.204	68.44
817.383	115.54
817.561	45.91
817.74	93.01
817.918	127.83
818.097	121.68
818.275	99.16
818.453	66.39
818.632	76.63
818.81	41.81
818.988	109.4
819.167	19.29
819.345	66.39
819.523	113.49
819.701	90.96
819.879	119.64
820.058	133.97
820.236	82.77
820.414	115.54
820.592	99.16
820.77	62.29
820.948	144.21
821.127	64.34
821.305	88.92
821.483	101.2
821.661	43.86
821.839	58.2
822.017	68.44
822.195	9.05
822.373	123.73
822.551	70.48
822.729	84.82
822.907	99.16
823.085	86.87
823.262	127.83
823.44	-33.96
823.618	101.2
823.796	76.63
823.974	78.68
824.152	101.2
824.329	82.77
824.507	93.01
824.685	50
824.863	74.58
825.04	86.87
825.218	84.82
825.396	43.86
825.574	78.68
825.751	-31.91
825.929	172.88
826.107	29.52
826.284	95.06
826.462	70.48
826.639	31.57
826.817	66.39
826.994	31.57
827.172	50
827.349	101.2
827.527	33.62
827.704	166.74
827.882	127.83
828.059	68.44
828.237	60.24
828.414	99.16
828.591	52.05
828.769	84.82
828.946	78.68
829.124	101.2
829.301	56.15
829.478	76.63
829.655	-7.34
829.833	156.5
830.01	33.62
830.187	140.12
830.364	41.81
830.542	60.24
830.719	41.81
830.896	90.96
831.073	58.2
831.25	97.11
831.427	136.02
831.604	105.3
831.782	58.2
831.959	47.96
832.136	41.81
832.313	62.29
832.49	74.58
832.667	131.92
832.844	11.09
833.021	90.96
833.198	27.48
833.374	50
833.551	25.43
833.728	50
833.905	27.48
834.082	78.68
834.259	99.16
834.436	80.72
834.612	52.05
834.789	41.81
834.966	-17.58
835.143	68.44
835.319	70.48
835.496	115.54
835.673	29.52
835.85	68.44
836.026	60.24
836.203	35.67
836.38	39.76
836.556	56.15
836.733	15.19
836.909	9.05
837.086	54.1
837.262	47.96
837.439	70.48
837.616	68.44
837.792	4.95
837.968	45.91
838.145	2.9
838.321	131.92
838.498	13.14
838.674	58.2
838.851	-5.29
839.027	-7.34
839.203	74.58
839.38	50
839.556	66.39
839.732	125.78
839.909	43.86
840.085	13.14
840.261	58.2
840.437	-15.53
840.614	47.96
840.79	117.59
840.966	-15.53
841.142	86.87
841.318	-33.96
841.494	35.67
841.671	35.67
841.847	103.25
842.023	9.05
842.199	37.72
842.375	117.59
842.551	70.48
842.727	37.72
842.903	80.72
843.079	90.96
843.255	76.63
843.431	50
843.607	90.96
843.783	11.09
843.959	37.72
844.134	-44.2
844.31	-29.87
844.486	37.72
844.662	93.01
844.838	-1.19
845.013	78.68
845.189	4.95
845.365	23.38
845.541	58.2
845.716	29.52
845.892	33.62
846.068	2.9
846.244	31.57
846.419	99.16
846.595	31.57
846.77	-11.43
846.946	60.24
847.122	58.2
847.297	-3.24
847.473	152.4
847.648	25.43
847.824	21.33
847.999	33.62
848.175	74.58
848.35	0.85
848.526	37.72
848.701	54.1
848.876	109.4
849.052	9.05
849.227	60.24
849.403	37.72
849.578	74.58
849.753	50
849.929	45.91
850.104	41.81
850.279	9.05
850.454	88.92
850.63	64.34
850.805	-50.35
850.98	82.77
851.155	45.91
851.33	-7.34
851.505	4.95
851.681	43.86
851.856	39.76
852.031	25.43
852.206	70.48
852.381	37.72
852.556	64.34
852.731	17.24
852.906	17.24
853.081	2.9
853.256	82.77
853.431	43.86
853.606	4.95
853.781	21.33
853.956	-7.34
854.131	123.73
854.305	-36.01
854.48	-13.48
854.655	17.24
854.83	-21.67
855.005	70.48
855.18	15.19
855.354	56.15
855.529	64.34
855.704	19.29
855.879	25.43
856.053	2.9
856.228	27.48
856.403	17.24
856.577	29.52
856.752	-15.53
856.926	2.9
857.101	0.85
857.276	68.44
857.45	95.06
857.625	39.76
857.799	17.24
857.974	60.24
858.148	17.24
858.323	25.43
858.497	86.87
858.672	58.2
858.846	103.25
859.02	47.96
859.195	37.72
859.369	33.62
859.543	11.09
859.718	15.19
859.892	4.95
860.066	41.81
860.241	15.19
860.415	-3.24
860.589	0.85
860.763	-11.43
860.938	15.19
861.112	11.09
861.286	19.29
861.46	47.96
861.634	-23.72
861.808	11.09
861.982	-9.39
862.157	17.24
862.331	62.29
862.505	-3.24
862.679	43.86
862.853	-7.34
863.027	109.4
863.201	29.52
863.375	41.81
863.549	11.09
863.722	-38.06
863.896	37.72
864.07	-1.19
864.244	-15.53
864.418	-11.43
864.592	11.09
864.766	62.29
864.939	41.81
865.113	37.72
865.287	66.39
865.461	19.29
865.634	86.87
865.808	7
865.982	76.63
866.156	-5.29
866.329	23.38
866.503	37.72
866.676	13.14
866.85	-31.91
867.024	64.34
867.197	9.05
867.371	50
867.544	29.52
867.718	-38.06
867.891	86.87
868.065	74.58
868.238	-7.34
868.412	109.4
868.585	33.62
868.759	19.29
868.932	-31.91
869.105	-7.34
869.279	-42.15
869.452	25.43
869.625	2.9
869.799	54.1
869.972	-66.73
870.145	-21.67
870.319	-5.29
870.492	-33.96
870.665	33.62
870.838	56.15
871.011	-33.96
871.185	19.29
871.358	-33.96
871.531	62.29
871.704	4.95
871.877	41.81
872.05	41.81
872.223	43.86
872.396	43.86
872.569	62.29
872.742	-29.87
872.915	27.48
873.088	15.19
873.261	78.68
873.434	-5.29
873.607	62.29
873.78	58.2
873.953	-23.72
874.126	31.57
874.299	11.09
874.471	-5.29
874.644	19.29
874.817	-11.43
874.99	9.05
875.163	-64.68
875.335	25.43
875.508	11.09
875.681	52.05
875.853	9.05
876.026	7
876.199	27.48
876.371	35.67
876.544	58.2
876.717	15.19
876.889	11.09
877.062	70.48
877.234	-11.43
877.407	113.49
877.579	-1.19
877.752	37.72
877.924	-3.24
878.097	31.57
878.269	-5.29
878.442	50
878.614	-3.24
878.786	-11.43
878.959	-9.39
879.131	52.05
879.303	-46.25
879.476	35.67
879.648	15.19
879.82	31.57
879.993	78.68
880.165	33.62
880.337	27.48
880.509	52.05
880.681	52.05
880.854	-23.72
881.026	2.9
881.198	78.68
881.37	-29.87
881.542	43.86
881.714	11.09
881.886	0.85
882.058	-25.77
882.23	37.72
882.402	39.76
882.574	-11.43
882.746	21.33
882.918	13.14
883.09	9.05
883.262	25.43
883.434	45.91
883.606	-25.77
883.778	13.14
883.95	78.68
884.122	-50.35
884.293	-13.48
884.465	29.52
884.637	62.29
884.809	80.72
884.98	117.59
885.152	-1.19
885.324	90.96
885.496	-3.24
885.667	82.77
885.839	43.86
886.011	60.24
886.182	-31.91
886.354	78.68
886.525	-33.96
886.697	39.76
886.869	29.52
887.04	23.38
887.212	39.76
887.383	101.2
887.555	9.05
887.726	-15.53
887.897	13.14
888.069	27.48
888.24	7
888.412	82.77
888.583	21.33
888.754	-62.63
888.926	-81.07
889.097	45.91
889.268	31.57
889.44	15.19
889.611	-81.07
889.782	21.33
889.953	7
890.125	13.14
890.296	64.34
890.467	72.53
890.638	31.57
890.809	50
890.98	33.62
891.151	93.01
891.323	-15.53
891.494	43.86
891.665	15.19
891.836	0.85
892.007	25.43
892.178	107.35
892.349	-40.11
892.52	50
892.691	72.53
892.862	21.33
893.032	-19.63
893.203	37.72
893.374	52.05
893.545	66.39
893.716	25.43
893.887	27.48
894.057	-3.24
894.228	54.1
894.399	66.39
894.57	-1.19
894.74	29.52
894.911	41.81
895.082	-31.91
895.253	21.33
895.423	23.38
895.594	56.15
895.764	9.05
895.935	7
896.106	35.67
896.276	39.76
896.447	17.24
896.617	0.85
896.788	7
896.958	-31.91
897.129	45.91
897.299	-5.29
897.47	-25.77
897.64	-7.34
897.81	-44.2
897.981	43.86
898.151	60.24
898.322	-9.39
898.492	-7.34
898.662	-5.29
898.832	2.9
899.003	2.9
899.173	-87.21
899.343	2.9
899.513	-7.34
