Data from USB4F104151__65__12-59-28-423.txt Node

Date: Fri Mar 14 12:59:28 EDT 2025
User: louis
Spectrometer: USB4F10415
Trigger mode: 4
Integration Time (sec): 1.000000E-2
Scans to average: 1
Electric dark correction enabled: true
Nonlinearity correction enabled: false
Boxcar width: 0
XAxis mode: Wavelengths
Number of Pixels in Spectrum: 3648
>>>>>Begin Spectral Data<<<<<
178.204	21.67
178.424	21.67
178.644	21.67
178.864	27.82
179.084	-45.91
179.304	1.19
179.524	-43.86
179.744	48.3
179.964	74.92
180.184	-82.77
180.404	-21.33
180.624	-15.19
180.844	-13.14
181.064	38.06
181.283	-2.9
181.503	23.72
181.723	-7
181.943	-7
182.163	-21.33
182.383	19.63
182.602	19.63
182.822	-13.14
183.042	-11.09
183.262	19.63
183.482	97.45
183.701	-25.43
183.921	52.39
184.141	21.67
184.361	48.3
184.58	72.87
184.8	-17.24
185.02	46.25
185.239	5.29
185.459	11.43
185.679	29.87
185.898	-21.33
186.118	3.24
186.338	38.06
186.557	115.88
186.777	-23.38
186.997	-2.9
187.216	48.3
187.436	17.58
187.655	23.72
187.875	85.16
188.095	-2.9
188.314	119.98
188.534	68.78
188.753	21.67
188.973	87.21
189.192	60.59
189.412	-19.29
189.631	15.53
189.851	38.06
190.07	54.44
190.29	-4.95
190.509	13.48
190.729	103.59
190.948	11.43
191.168	62.63
191.387	79.02
191.607	9.39
191.826	3.24
192.045	-27.48
192.265	25.77
192.484	95.4
192.704	13.48
192.923	-37.72
193.142	101.55
193.362	36.01
193.581	56.49
193.8	85.16
194.02	85.16
194.239	7.34
194.458	27.82
194.678	-19.29
194.897	-60.24
195.116	21.67
195.335	13.48
195.555	111.78
195.774	-27.48
195.993	-37.72
196.212	-35.67
196.432	36.01
196.651	13.48
196.87	-9.05
197.089	36.01
197.308	-2.9
197.528	15.53
197.747	-17.24
197.966	7.34
198.185	79.02
198.404	21.67
198.623	31.91
198.842	-7
199.062	74.92
199.281	38.06
199.5	-13.14
199.719	40.11
199.938	5.29
200.157	66.73
200.376	62.63
200.595	-2.9
200.814	7.34
201.033	-29.52
201.252	17.58
201.471	-21.33
201.69	-15.19
201.909	33.96
202.128	38.06
202.347	-4.95
202.566	68.78
202.785	42.15
203.004	-33.62
203.223	52.39
203.442	23.72
203.661	-0.85
203.879	-13.14
204.098	-4.95
204.317	15.53
204.536	68.78
204.755	-29.52
204.974	9.39
205.193	89.26
205.411	79.02
205.63	42.15
205.849	44.2
206.068	29.87
206.287	23.72
206.505	38.06
206.724	50.35
206.943	7.34
207.162	-17.24
207.381	9.39
207.599	52.39
207.818	-23.38
208.037	3.24
208.255	17.58
208.474	31.91
208.693	36.01
208.911	68.78
209.13	52.39
209.349	-33.62
209.567	46.25
209.786	83.11
210.005	17.58
210.223	31.91
210.442	5.29
210.661	9.39
210.879	31.91
211.098	1.19
211.316	68.78
211.535	89.26
211.753	29.87
211.972	48.3
212.191	72.87
212.409	56.49
212.628	13.48
212.846	109.74
213.065	11.43
213.283	64.68
213.502	60.59
213.72	15.53
213.938	56.49
214.157	-9.05
214.375	46.25
214.594	36.01
214.812	-19.29
215.031	38.06
215.249	-58.2
215.467	44.2
215.686	54.44
215.904	-41.81
216.122	-33.62
216.341	44.2
216.559	-27.48
216.778	29.87
216.996	64.68
217.214	74.92
217.432	-78.68
217.651	-2.9
217.869	9.39
218.087	46.25
218.306	36.01
218.524	1.19
218.742	85.16
218.96	-2.9
219.179	29.87
219.397	83.11
219.615	31.91
219.833	-2.9
220.051	44.2
220.27	-17.24
220.488	113.83
220.706	76.97
220.924	25.77
221.142	52.39
221.36	81.07
221.578	38.06
221.796	15.53
222.015	36.01
222.233	93.35
222.451	-31.57
222.669	-27.48
222.887	115.88
223.105	33.96
223.323	-13.14
223.541	36.01
223.759	44.2
223.977	-15.19
224.195	9.39
224.413	46.25
224.631	93.35
224.849	-43.86
225.067	91.31
225.285	11.43
225.503	29.87
225.721	19.63
225.939	-39.76
226.157	19.63
226.375	60.59
226.592	-11.09
226.81	44.2
227.028	79.02
227.246	42.15
227.464	29.87
227.682	-0.85
227.9	29.87
228.117	119.98
228.335	-72.53
228.553	93.35
228.771	3.24
228.989	48.3
229.206	9.39
229.424	-9.05
229.642	3.24
229.86	-4.95
230.077	85.16
230.295	48.3
230.513	64.68
230.731	27.82
230.948	27.82
231.166	15.53
231.384	46.25
231.601	56.49
231.819	54.44
232.037	60.59
232.254	-31.57
232.472	23.72
232.689	76.97
232.907	25.77
233.125	-11.09
233.342	44.2
233.56	33.96
233.777	85.16
233.995	-25.43
234.213	40.11
234.43	85.16
234.648	11.43
234.865	83.11
235.083	31.91
235.3	54.44
235.518	-7
235.735	40.11
235.953	19.63
236.17	3.24
236.388	27.82
236.605	-21.33
236.822	11.43
237.04	17.58
237.257	-4.95
237.475	1.19
237.692	70.83
237.909	21.67
238.127	-0.85
238.344	-11.09
238.562	9.39
238.779	9.39
238.996	17.58
239.214	76.97
239.431	72.87
239.648	48.3
239.865	23.72
240.083	52.39
240.3	-17.24
240.517	5.29
240.735	62.63
240.952	1.19
241.169	76.97
241.386	-0.85
241.603	9.39
241.821	44.2
242.038	56.49
242.255	23.72
242.472	11.43
242.689	-29.52
242.907	3.24
243.124	62.63
243.341	23.72
243.558	36.01
243.775	-29.52
243.992	29.87
244.209	48.3
244.426	99.5
244.643	87.21
244.86	21.67
245.078	68.78
245.295	52.39
245.512	40.11
245.729	40.11
245.946	-0.85
246.163	11.43
246.38	-29.52
246.597	-45.91
246.814	13.48
247.031	52.39
247.248	91.31
247.464	27.82
247.681	87.21
247.898	36.01
248.115	42.15
248.332	23.72
248.549	27.82
248.766	36.01
248.983	46.25
249.2	142.5
249.417	50.35
249.633	74.92
249.85	31.91
250.067	60.59
250.284	-7
250.501	-7
250.717	44.2
250.934	11.43
251.151	62.63
251.368	66.73
251.585	68.78
251.801	13.48
252.018	44.2
252.235	-37.72
252.451	-15.19
252.668	81.07
252.885	3.24
253.102	93.35
253.318	50.35
253.535	33.96
253.752	15.53
253.968	31.91
254.185	3.24
254.401	-78.68
254.618	36.01
254.835	40.11
255.051	62.63
255.268	76.97
255.484	48.3
255.701	-9.05
255.917	25.77
256.134	36.01
256.351	15.53
256.567	17.58
256.784	7.34
257	-39.76
257.217	17.58
257.433	13.48
257.65	44.2
257.866	-7
258.082	56.49
258.299	48.3
258.515	56.49
258.732	17.58
258.948	48.3
259.165	21.67
259.381	101.55
259.597	76.97
259.814	64.68
260.03	105.64
260.246	5.29
260.463	93.35
260.679	19.63
260.895	-4.95
261.112	52.39
261.328	-19.29
261.544	7.34
261.761	50.35
261.977	-21.33
262.193	54.44
262.409	-9.05
262.626	29.87
262.842	11.43
263.058	5.29
263.274	83.11
263.49	48.3
263.707	83.11
263.923	25.77
264.139	19.63
264.355	44.2
264.571	13.48
264.787	74.92
265.004	33.96
265.22	36.01
265.436	70.83
265.652	13.48
265.868	62.63
266.084	17.58
266.3	3.24
266.516	66.73
266.732	-33.62
266.948	56.49
267.164	89.26
267.38	115.88
267.596	62.63
267.812	19.63
268.028	5.29
268.244	107.69
268.46	-35.67
268.676	9.39
268.892	48.3
269.108	42.15
269.324	87.21
269.54	62.63
269.756	36.01
269.972	76.97
270.188	72.87
270.403	27.82
270.619	40.11
270.835	-17.24
271.051	13.48
271.267	-35.67
271.483	21.67
271.698	-4.95
271.914	58.54
272.13	89.26
272.346	74.92
272.562	-15.19
272.777	99.5
272.993	79.02
273.209	36.01
273.425	36.01
273.64	-0.85
273.856	-11.09
274.072	48.3
274.287	3.24
274.503	7.34
274.719	58.54
274.934	3.24
275.15	66.73
275.366	111.78
275.581	7.34
275.797	23.72
276.012	36.01
276.228	-0.85
276.444	19.63
276.659	3.24
276.875	46.25
277.09	-29.52
277.306	5.29
277.521	27.82
277.737	44.2
277.952	38.06
278.168	36.01
278.383	42.15
278.599	40.11
278.814	13.48
279.03	50.35
279.245	27.82
279.461	-19.29
279.676	91.31
279.892	-23.38
280.107	11.43
280.322	7.34
280.538	85.16
280.753	54.44
280.969	46.25
281.184	-11.09
281.399	23.72
281.615	38.06
281.83	58.54
282.045	-11.09
282.26	13.48
282.476	38.06
282.691	54.44
282.906	-15.19
283.122	56.49
283.337	-2.9
283.552	119.98
283.767	13.48
283.983	76.97
284.198	-4.95
284.413	25.77
284.628	44.2
284.843	38.06
285.058	46.25
285.274	36.01
285.489	17.58
285.704	122.02
285.919	23.72
286.134	25.77
286.349	-25.43
286.564	42.15
286.779	60.59
286.995	52.39
287.21	21.67
287.425	76.97
287.64	-2.9
287.855	66.73
288.07	95.4
288.285	46.25
288.5	42.15
288.715	21.67
288.93	81.07
289.145	25.77
289.36	13.48
289.575	25.77
289.79	40.11
290.004	25.77
290.219	9.39
290.434	68.78
290.649	40.11
290.864	-9.05
291.079	42.15
291.294	44.2
291.509	101.55
291.724	15.53
291.938	60.59
292.153	46.25
292.368	19.63
292.583	56.49
292.798	23.72
293.012	42.15
293.227	-4.95
293.442	44.2
293.657	-54.1
293.871	81.07
294.086	58.54
294.301	101.55
294.516	19.63
294.73	-13.14
294.945	87.21
295.16	64.68
295.374	72.87
295.589	23.72
295.804	-7
296.018	46.25
296.233	101.55
296.447	62.63
296.662	101.55
296.877	42.15
297.091	15.53
297.306	42.15
297.52	42.15
297.735	113.83
297.949	62.63
298.164	58.54
298.378	38.06
298.593	13.48
298.807	56.49
299.022	111.78
299.236	-0.85
299.451	79.02
299.665	7.34
299.88	29.87
300.094	27.82
300.309	44.2
300.523	52.39
300.737	11.43
300.952	60.59
301.166	27.82
301.381	64.68
301.595	9.39
301.809	-41.81
302.024	13.48
302.238	-0.85
302.452	36.01
302.667	7.34
302.881	44.2
303.095	52.39
303.309	38.06
303.524	44.2
303.738	46.25
303.952	1.19
304.166	27.82
304.381	-56.15
304.595	-0.85
304.809	58.54
305.023	-9.05
305.237	-13.14
305.452	29.87
305.666	42.15
305.88	60.59
306.094	48.3
306.308	46.25
306.522	33.96
306.736	21.67
306.95	72.87
307.164	85.16
307.379	-0.85
307.593	17.58
307.807	44.2
308.021	29.87
308.235	19.63
308.449	54.44
308.663	52.39
308.877	91.31
309.091	128.17
309.305	46.25
309.519	15.53
309.733	46.25
309.947	31.91
310.161	42.15
310.374	60.59
310.588	23.72
310.802	68.78
311.016	62.63
311.23	27.82
311.444	27.82
311.658	31.91
311.872	19.63
312.085	-41.81
312.299	33.96
312.513	-37.72
312.727	97.45
312.941	62.63
313.154	19.63
313.368	36.01
313.582	31.91
313.796	29.87
314.009	60.59
314.223	3.24
314.437	-39.76
314.651	50.35
314.864	11.43
315.078	72.87
315.292	42.15
315.505	-29.52
315.719	52.39
315.933	66.73
316.146	148.65
316.36	17.58
316.573	85.16
316.787	89.26
317.001	17.58
317.214	15.53
317.428	91.31
317.641	27.82
317.855	70.83
318.068	54.44
318.282	44.2
318.495	-45.91
318.709	56.49
318.922	56.49
319.136	-7
319.349	91.31
319.563	136.36
319.776	109.74
319.99	-15.19
320.203	-11.09
320.417	66.73
320.63	99.5
320.843	52.39
321.057	-37.72
321.27	52.39
321.483	81.07
321.697	42.15
321.91	62.63
322.124	113.83
322.337	40.11
322.55	36.01
322.763	-4.95
322.977	56.49
323.19	68.78
323.403	42.15
323.617	-64.34
323.83	38.06
324.043	58.54
324.256	27.82
324.469	23.72
324.683	81.07
324.896	-37.72
325.109	48.3
325.322	46.25
325.535	70.83
325.748	56.49
325.962	40.11
326.175	52.39
326.388	58.54
326.601	-45.91
326.814	124.07
327.027	48.3
327.24	48.3
327.453	38.06
327.666	29.87
327.879	-31.57
328.092	101.55
328.305	38.06
328.518	-13.14
328.731	3.24
328.944	72.87
329.157	17.58
329.37	19.63
329.583	-17.24
329.796	66.73
330.009	-29.52
330.222	89.26
330.435	-9.05
330.648	40.11
330.861	64.68
331.073	85.16
331.286	103.59
331.499	19.63
331.712	3.24
331.925	-4.95
332.138	52.39
332.35	19.63
332.563	48.3
332.776	115.88
332.989	3.24
333.202	-4.95
333.414	36.01
333.627	107.69
333.84	-7
334.053	103.59
334.265	27.82
334.478	64.68
334.691	13.48
334.903	50.35
335.116	29.87
335.329	5.29
335.541	31.91
335.754	72.87
335.966	99.5
336.179	56.49
336.392	-25.43
336.604	62.63
336.817	93.35
337.029	95.4
337.242	13.48
337.454	-7
337.667	89.26
337.88	68.78
338.092	1.19
338.305	23.72
338.517	31.91
338.729	93.35
338.942	-9.05
339.154	27.82
339.367	-4.95
339.579	70.83
339.792	27.82
340.004	44.2
340.217	-0.85
340.429	60.59
340.641	5.29
340.854	70.83
341.066	3.24
341.278	111.78
341.491	60.59
341.703	38.06
341.915	95.4
342.128	52.39
342.34	64.68
342.552	11.43
342.764	23.72
342.977	95.4
343.189	36.01
343.401	31.91
343.613	54.44
343.826	13.48
344.038	31.91
344.25	11.43
344.462	109.74
344.674	52.39
344.886	7.34
345.099	46.25
345.311	36.01
345.523	54.44
345.735	-9.05
345.947	-19.29
346.159	29.87
346.371	89.26
346.583	50.35
346.795	46.25
347.007	91.31
347.219	60.59
347.431	11.43
347.643	23.72
347.855	68.78
348.067	52.39
348.279	29.87
348.491	44.2
348.703	-15.19
348.915	87.21
349.127	70.83
349.339	70.83
349.551	31.91
349.763	83.11
349.975	38.06
350.187	11.43
350.399	50.35
350.61	46.25
350.822	-21.33
351.034	38.06
351.246	3.24
351.458	38.06
351.669	64.68
351.881	72.87
352.093	46.25
352.305	64.68
352.517	62.63
352.728	138.41
352.94	83.11
353.152	46.25
353.363	9.39
353.575	54.44
353.787	38.06
353.999	136.36
354.21	42.15
354.422	95.4
354.633	-23.38
354.845	93.35
355.057	-25.43
355.268	48.3
355.48	87.21
355.692	48.3
355.903	19.63
356.115	19.63
356.326	-17.24
356.538	76.97
356.749	48.3
356.961	66.73
357.172	44.2
357.384	72.87
357.595	17.58
357.807	27.82
358.018	74.92
358.23	81.07
358.441	62.63
358.653	40.11
358.864	85.16
359.075	56.49
359.287	42.15
359.498	44.2
359.709	-35.67
359.921	42.15
360.132	19.63
360.344	52.39
360.555	13.48
360.766	38.06
360.977	85.16
361.189	11.43
361.4	-13.14
361.611	52.39
361.823	62.63
362.034	5.29
362.245	42.15
362.456	29.87
362.667	38.06
362.879	64.68
363.09	13.48
363.301	79.02
363.512	76.97
363.723	33.96
363.935	21.67
364.146	109.74
364.357	97.45
364.568	87.21
364.779	36.01
364.99	52.39
365.201	23.72
365.412	54.44
365.623	56.49
365.834	60.59
366.045	-39.76
366.256	56.49
366.467	-19.29
366.678	103.59
366.889	-39.76
367.1	19.63
367.311	7.34
367.522	7.34
367.733	13.48
367.944	-2.9
368.155	21.67
368.366	31.91
368.577	44.2
368.788	5.29
368.999	72.87
369.209	27.82
369.42	117.93
369.631	113.83
369.842	13.48
370.053	85.16
370.264	54.44
370.474	36.01
370.685	-11.09
370.896	72.87
371.107	19.63
371.317	79.02
371.528	36.01
371.739	87.21
371.95	93.35
372.16	-4.95
372.371	-29.52
372.582	27.82
372.792	40.11
373.003	70.83
373.214	5.29
373.424	54.44
373.635	-31.57
373.846	74.92
374.056	-21.33
374.267	23.72
374.477	40.11
374.688	33.96
374.898	-2.9
375.109	87.21
375.319	23.72
375.53	29.87
375.74	11.43
375.951	13.48
376.161	38.06
376.372	76.97
376.582	74.92
376.793	38.06
377.003	50.35
377.214	74.92
377.424	40.11
377.635	1.19
377.845	38.06
378.055	29.87
378.266	5.29
378.476	40.11
378.686	48.3
378.897	99.5
379.107	38.06
379.317	56.49
379.528	93.35
379.738	52.39
379.948	85.16
380.158	128.17
380.369	1.19
380.579	70.83
380.789	83.11
380.999	1.19
381.21	33.96
381.42	46.25
381.63	58.54
381.84	36.01
382.05	42.15
382.261	46.25
382.471	66.73
382.681	54.44
382.891	11.43
383.101	105.64
383.311	101.55
383.521	68.78
383.731	81.07
383.941	85.16
384.151	40.11
384.361	48.3
384.571	19.63
384.781	54.44
384.991	99.5
385.201	134.31
385.411	33.96
385.621	62.63
385.831	50.35
386.041	93.35
386.251	40.11
386.461	44.2
386.671	54.44
386.881	52.39
387.091	21.67
387.301	95.4
387.511	44.2
387.72	52.39
387.93	144.55
388.14	68.78
388.35	46.25
388.56	40.11
388.769	31.91
388.979	122.02
389.189	17.58
389.399	58.54
389.609	-25.43
389.818	40.11
390.028	76.97
390.238	42.15
390.447	42.15
390.657	85.16
390.867	19.63
391.076	109.74
391.286	50.35
391.496	50.35
391.705	85.16
391.915	62.63
392.125	119.98
392.334	134.31
392.544	99.5
392.753	60.59
392.963	-25.43
393.172	83.11
393.382	42.15
393.591	7.34
393.801	126.12
394.01	81.07
394.22	107.69
394.429	95.4
394.639	-0.85
394.848	85.16
395.058	76.97
395.267	56.49
395.477	95.4
395.686	62.63
395.895	83.11
396.105	60.59
396.314	38.06
396.524	56.49
396.733	46.25
396.942	70.83
397.152	-23.38
397.361	119.98
397.57	44.2
397.78	62.63
397.989	46.25
398.198	72.87
398.407	117.93
398.617	52.39
398.826	72.87
399.035	52.39
399.244	144.55
399.453	111.78
399.663	109.74
399.872	70.83
400.081	91.31
400.29	50.35
400.499	132.26
400.708	140.46
400.917	101.55
401.127	105.64
401.336	54.44
401.545	97.45
401.754	111.78
401.963	87.21
402.172	87.21
402.381	91.31
402.59	87.21
402.799	85.16
403.008	62.63
403.217	122.02
403.426	103.59
403.635	76.97
403.844	122.02
404.053	93.35
404.262	156.84
404.471	99.5
404.68	85.16
404.888	167.08
405.097	160.94
405.306	117.93
405.515	97.45
405.724	76.97
405.933	66.73
406.142	62.63
406.35	72.87
406.559	103.59
406.768	79.02
406.977	171.18
407.185	144.55
407.394	162.98
407.603	144.55
407.812	150.7
408.02	154.79
408.229	171.18
408.438	167.08
408.646	142.5
408.855	212.14
409.064	216.23
409.272	144.55
409.481	158.89
409.69	191.66
409.898	240.81
410.107	281.77
410.315	195.75
410.524	142.5
410.733	158.89
410.941	232.62
411.15	183.46
411.358	267.43
411.567	193.7
411.775	179.37
411.984	318.63
412.192	298.15
412.401	275.62
412.609	335.01
412.818	332.97
413.026	351.4
413.234	302.25
413.443	373.92
413.651	351.4
413.86	335.01
414.068	437.41
414.276	429.22
414.485	388.26
414.693	410.79
414.901	410.79
415.11	308.39
415.318	468.13
415.526	468.13
415.734	492.71
415.943	437.41
416.151	527.52
416.359	525.47
416.567	529.57
416.776	597.15
416.984	578.72
417.192	564.39
417.4	560.29
417.608	550.05
417.817	777.37
418.025	685.22
418.233	679.07
418.441	660.64
418.649	707.74
418.857	806.05
419.065	689.31
419.273	711.84
419.481	828.57
419.689	842.91
419.897	869.53
420.105	902.3
420.313	941.21
420.521	1029.27
420.729	945.31
420.937	990.36
421.145	1105.05
421.353	1076.38
421.561	1127.58
421.769	1193.11
421.977	1219.74
422.185	1201.3
422.393	1311.89
422.601	1385.62
422.809	1344.66
423.017	1436.82
423.224	1371.29
423.432	1422.48
423.64	1416.34
423.848	1590.42
424.056	1514.64
424.263	1662.1
424.471	1655.95
424.679	1608.85
424.887	1725.58
425.094	1895.57
425.302	1789.07
425.51	1973.39
425.718	2024.59
425.925	2047.12
426.133	2163.85
426.341	2165.9
426.548	2235.53
426.756	2237.58
426.964	2264.2
427.171	2469
427.379	2524.29
427.586	2544.77
427.794	2579.59
428.001	2870.4
428.209	2864.25
428.417	2790.53
428.624	3017.85
428.832	3110.01
429.039	3036.28
429.247	3071.1
429.454	3329.14
429.662	3456.12
429.869	3333.24
430.076	3544.18
430.284	3353.72
430.491	3554.42
430.699	3746.93
430.906	3765.36
431.114	3736.69
431.321	3884.14
431.528	3990.64
431.736	4283.5
431.943	4519.01
432.15	4310.12
432.358	4338.79
432.565	4496.49
432.772	4447.33
432.979	4789.35
433.187	4895.84
433.394	4899.94
433.601	5383.26
433.808	5155.93
434.016	5368.92
434.223	5450.84
434.43	5772.37
434.637	5616.72
434.844	6165.58
435.052	6224.97
435.259	6288.46
435.466	6138.96
435.673	6204.49
435.88	6485.06
436.087	6837.31
436.294	7005.25
436.501	6794.31
436.708	6970.43
436.915	6964.29
437.122	7648.31
437.329	7539.77
437.537	7640.12
437.743	7777.33
437.95	7660.6
438.157	8109.1
438.364	8371.24
438.571	8545.32
438.778	8391.72
438.985	9327.64
439.192	8967.2
439.399	9163.81
439.606	8944.67
439.813	9446.43
440.02	10140.69
440.227	9919.51
440.433	9876.5
440.64	10036.24
440.847	10261.52
441.054	10333.2
441.261	10966.02
441.467	10761.22
441.674	11037.7
441.881	11443.2
442.088	11400.19
442.294	11392
442.501	11604.99
442.708	11824.12
442.914	12489.71
443.121	12903.4
443.328	12508.14
443.534	13212.64
443.741	12798.95
443.948	12968.93
444.154	13831.13
444.361	13730.78
444.568	13661.15
444.774	13771.74
444.981	14021.59
445.187	14459.85
445.394	15127.49
445.6	14971.85
445.807	16350.13
446.013	15819.71
446.22	15967.16
446.426	16708.52
446.633	16839.59
446.839	17318.82
447.046	16702.38
447.252	17752.99
447.459	17689.5
447.665	17800.09
447.871	18680.72
448.078	19299.2
448.284	18398.1
448.491	18942.86
448.697	19630.98
448.903	20073.34
449.11	19962.75
449.316	19739.52
449.522	20472.69
449.728	20575.09
449.935	21009.26
450.141	20982.63
450.347	21181.29
450.553	20722.54
450.76	21113.7
450.966	21594.98
451.172	21449.57
451.378	21826.4
451.584	21394.28
451.791	22203.22
451.997	22143.83
452.203	22582.1
452.409	22762.32
452.615	22428.5
452.821	21678.94
453.027	21531.49
453.233	22465.36
453.44	21719.9
453.646	21943.13
453.852	22070.11
454.058	22358.87
454.264	21623.65
454.47	22281.05
454.676	21869.4
454.882	22307.67
455.088	20360.05
455.294	20929.39
455.5	21011.31
455.705	21248.87
455.911	20499.31
456.117	19850.11
456.323	19749.76
456.529	18969.48
456.735	19655.55
456.941	19178.37
457.147	19069.83
457.352	18246.55
457.558	18037.66
457.764	18097.05
457.97	17849.24
458.176	17460.13
458.381	17529.76
458.587	16370.61
458.793	16688.04
458.999	15700.92
459.204	16675.76
459.41	16397.23
459.616	15293.38
459.821	15573.95
460.027	15057.86
460.233	14785.48
460.438	14101.46
460.644	14509.01
460.85	13874.13
461.055	13632.47
461.261	13702.11
461.466	12499.95
461.672	12024.82
461.878	13161.44
462.083	12096.5
462.289	11727.86
462.494	11813.88
462.7	11521.02
462.905	10951.68
463.111	11385.85
463.316	11492.35
463.522	11236.35
463.727	11232.26
463.932	11068.42
464.138	11088.9
464.343	10886.15
464.549	10767.37
464.754	10941.44
464.959	11179.01
465.165	10918.92
465.37	10507.27
465.575	10259.47
465.781	10564.62
465.986	10554.38
466.191	10351.63
466.397	10150.93
466.602	9659.42
466.807	9921.56
467.012	9911.32
467.218	9790.49
467.423	9808.92
467.628	9884.69
467.833	10384.4
468.038	9882.64
468.244	9524.25
468.449	9909.27
468.654	9751.57
468.859	9731.09
469.064	9522.2
469.269	9311.26
469.474	9221.15
469.679	9427.99
469.885	9274.4
470.09	9358.36
470.295	9260.06
470.5	8842.28
470.705	8981.54
470.91	8858.66
471.115	8913.95
471.32	9053.22
471.525	8893.47
471.73	8623.14
471.935	8692.77
472.139	8391.72
472.344	8320.04
472.549	8305.71
472.754	8334.38
472.959	7842.87
473.164	7943.22
473.369	8029.23
473.574	8051.76
473.778	8043.57
473.983	7824.44
474.188	7996.46
474.393	7533.62
474.598	7576.63
474.802	7468.09
475.007	7547.96
475.212	7552.06
475.417	7291.96
475.621	7212.09
475.826	7236.67
476.031	7152.7
476.235	6861.89
476.44	7070.78
476.645	7083.07
476.849	7025.73
477.054	6855.75
477.259	6923.33
477.463	6751.3
477.668	6478.92
477.872	6749.25
478.077	6540.36
478.282	6390.86
478.486	6212.68
478.691	6462.54
478.895	6376.52
479.1	6241.36
479.304	6310.99
479.509	6118.48
479.713	6378.57
479.918	6063.18
480.122	6032.46
480.326	5985.36
480.531	6014.03
480.735	5983.31
480.94	6011.98
481.144	6169.68
481.348	5829.71
481.553	6005.84
481.757	5909.58
481.961	5887.06
482.166	6079.57
482.37	6003.79
482.574	5928.02
482.778	5940.3
482.983	5897.3
483.187	5866.58
483.391	5960.78
483.595	5846.1
483.8	5893.2
484.004	5858.39
484.208	6048.85
484.412	5870.67
484.616	5919.82
484.821	5973.07
485.025	5712.98
485.229	5928.02
485.433	5803.09
485.637	5911.63
485.841	5925.97
486.045	5811.28
486.249	5897.3
486.453	5745.75
486.657	5858.39
486.861	6057.04
487.065	5823.57
487.269	5807.19
487.473	5715.03
487.677	5880.91
487.881	6020.17
488.085	5758.03
488.289	5901.39
488.493	5860.43
488.697	5999.7
488.901	5860.43
489.105	5975.12
489.309	6098
489.512	5860.43
489.716	6071.37
489.92	5975.12
490.124	6034.51
490.328	6239.31
490.531	6100.05
490.735	6237.26
490.939	6188.11
491.143	5925.97
491.346	6159.44
491.55	6141
491.754	6155.34
491.958	6134.86
492.161	6184.01
492.365	6333.51
492.569	6243.4
492.772	6302.79
492.976	6270.03
493.18	6315.08
493.383	6501.45
493.587	6507.59
493.79	6691.91
493.994	6509.64
494.197	6554.69
494.401	6458.44
494.605	6618.18
494.808	6812.74
495.012	6790.21
495.215	6808.64
495.419	6911.04
495.622	6962.24
495.825	6800.45
496.029	6923.33
496.232	7199.8
496.436	7126.08
496.639	7390.27
496.843	7214.14
497.046	7533.62
497.249	7476.28
497.453	7357.5
497.656	7631.93
497.859	7689.27
498.063	7705.65
498.266	7924.79
498.469	7799.86
498.673	8037.42
498.876	7953.46
499.079	7978.03
499.282	8158.25
499.485	8481.83
499.689	8348.72
499.892	8397.87
500.095	8582.18
500.298	8754.21
500.501	8553.51
500.705	8879.14
500.908	9192.48
501.111	9180.19
501.314	9251.87
501.517	9600.02
501.72	9550.87
501.923	9532.44
502.126	9618.46
502.329	9868.31
502.532	9923.6
502.735	10028.05
502.938	10316.81
503.141	10294.29
503.344	10390.54
503.547	10722.31
503.75	10679.3
503.953	10880
504.156	11031.55
504.359	11109.38
504.562	11299.84
504.765	11353.09
504.968	11619.32
505.17	11613.18
505.373	11584.51
505.576	11916.28
505.779	12108.79
505.982	12125.17
506.185	12258.29
506.387	12278.77
506.59	12477.42
506.793	12753.9
506.996	12766.18
507.198	13116.39
507.401	13190.11
507.604	13487.07
507.807	13515.74
508.009	13800.41
508.212	13597.66
508.415	14152.66
508.617	14250.96
508.82	14334.93
509.022	14377.94
509.225	14779.34
509.428	14699.47
509.63	15090.63
509.833	14879.69
510.035	15446.97
510.238	15397.82
510.44	15346.62
510.643	15862.71
510.845	15791.03
511.048	15860.66
511.25	16233.39
511.453	16409.52
511.655	17218.47
511.858	16710.57
512.06	17277.86
512.262	17437.6
512.465	17587.1
512.667	17615.77
512.87	17953.69
513.072	18019.22
513.274	18207.64
513.477	18467.73
513.679	18428.82
513.881	18684.81
514.084	18983.82
514.286	19225.48
514.488	19125.13
514.69	19929.98
514.893	19757.95
515.095	19706.75
515.297	20390.77
515.499	20192.12
515.701	20718.45
515.904	20824.94
516.106	21005.16
516.308	21177.19
516.51	21566.31
516.712	21457.76
516.914	22240.09
517.116	22170.46
517.318	22305.62
517.52	22414.16
517.722	22528.85
517.925	22778.7
518.127	23290.7
518.329	23348.04
518.531	23075.66
518.733	23698.24
518.935	24073.02
519.136	24062.78
519.338	24587.06
519.54	24707.89
519.742	24798
519.944	24875.82
520.146	25295.66
520.348	25740.07
520.55	25529.13
520.752	25760.55
520.954	26354.46
521.155	26211.1
521.357	26671.89
521.559	26874.64
521.761	27038.48
521.963	27198.22
522.164	27106.06
522.366	27390.73
522.568	27540.23
522.77	28005.12
522.971	28418.81
523.173	28128
523.375	28265.21
523.576	28537.59
523.778	28627.7
523.98	29102.83
524.181	29076.21
524.383	29149.93
524.584	29399.79
524.786	29965.03
524.988	29446.89
525.189	29938.4
525.391	30012.13
525.592	30814.93
525.794	30823.12
525.995	30247.65
526.197	30810.84
526.398	30798.55
526.6	30857.94
526.801	30995.15
527.003	31148.75
527.204	31238.86
527.406	31402.7
527.607	31847.11
527.808	32228.03
528.01	31322.83
528.211	31955.65
528.412	32295.61
528.614	32111.3
528.815	32027.33
529.016	32365.24
529.218	32000.71
529.419	32461.5
529.62	32559.8
529.822	32389.82
530.023	32625.34
530.224	32748.21
530.425	32410.3
530.626	32737.98
530.828	32744.12
531.029	33471.15
531.23	33002.16
531.431	33053.36
531.632	33114.8
531.833	32948.92
532.035	33401.52
532.236	33225.39
532.437	33499.82
532.638	33340.08
532.839	33569.45
533.04	33374.89
533.241	33221.3
533.442	33704.62
533.643	33761.96
533.844	33393.33
534.045	33460.91
534.246	33215.15
534.447	33972.9
534.648	33610.41
534.849	34085.54
535.05	33184.43
535.251	33553.07
535.451	33600.17
535.652	33847.97
535.853	34030.24
536.054	33999.52
536.255	33577.64
536.456	33571.5
536.657	33821.35
536.857	33456.81
537.058	33688.23
537.259	34095.78
537.46	33639.08
537.66	33462.96
537.861	33993.38
538.062	33790.63
538.263	33925.8
538.463	33585.83
538.664	34011.81
538.865	33884.84
539.065	34171.55
539.266	33616.55
539.466	34368.16
539.667	33456.81
539.868	34177.7
540.068	33811.11
540.269	33692.33
540.469	34050.72
540.67	33747.62
540.87	33768.1
541.071	33798.82
541.271	33659.56
541.472	33512.11
541.672	33745.58
541.873	33544.87
542.073	33477.29
542.274	34030.24
542.474	33872.55
542.675	33643.18
542.875	33913.51
543.075	33428.14
543.276	33008.31
543.476	33999.52
543.676	33368.75
543.877	33903.27
544.077	33747.62
544.277	33534.63
544.478	33385.13
544.678	33755.82
544.878	33618.6
545.078	34026.15
545.279	33454.76
545.479	33434.28
545.679	33723.05
545.879	33520.3
546.079	33772.2
546.28	33499.82
546.48	33063.6
546.68	33847.97
546.88	33794.73
547.08	33634.99
547.28	33389.23
547.48	33166
547.68	33401.52
547.88	33272.49
548.081	33628.84
548.281	33573.55
548.481	33376.94
548.681	33880.74
548.881	33700.52
549.081	33589.93
549.28	33460.91
549.48	33596.07
549.68	33548.97
549.88	33606.31
550.08	33499.82
550.28	33577.64
550.48	33368.75
550.68	33751.72
550.88	33401.52
551.08	33520.3
551.279	33751.72
551.479	33206.96
551.679	33276.59
551.879	33458.86
552.079	33381.04
552.278	33442.48
552.478	33262.26
552.678	33532.59
552.878	33422
553.077	33299.12
553.277	33051.31
553.477	33587.88
553.676	33161.9
553.876	33446.57
554.076	33276.59
554.275	33256.11
554.475	33028.79
554.674	33286.83
554.874	33299.12
555.074	33079.99
555.273	33161.9
555.473	33548.97
555.672	33350.32
555.872	33063.6
556.071	33110.71
556.271	33122.99
556.47	33004.21
556.67	32811.7
556.869	32713.4
557.068	32996.02
557.268	32742.07
557.467	32748.21
557.667	33053.36
557.866	32760.5
558.065	32475.84
558.265	32393.92
558.464	32615.1
558.663	32754.36
558.863	32162.5
559.062	32668.34
559.261	32670.39
559.461	32447.16
559.66	32314.05
559.859	32418.49
560.058	32271.04
560.258	32348.86
560.457	31955.65
560.656	32633.53
560.855	32072.39
561.054	32277.18
561.253	31757
561.453	32248.51
561.652	31896.26
561.851	32271.04
562.05	32135.87
562.249	31580.87
562.448	31881.92
562.647	31795.91
562.846	31640.26
563.045	31544.01
563.244	31541.96
563.443	31963.84
563.642	31365.84
563.841	31367.88
564.04	31056.59
564.239	31767.24
564.438	31089.36
564.637	31343.31
564.836	31345.36
565.035	30868.18
565.234	30905.04
565.432	30767.83
565.631	30771.93
565.83	30903
566.029	30679.77
566.228	30755.54
566.427	30710.49
566.625	30513.88
566.824	30163.68
567.023	30667.48
567.222	30327.52
567.42	30507.74
567.619	30210.78
567.818	30327.52
568.016	30397.15
568.215	30399.19
568.414	29858.53
568.612	30161.63
568.811	30210.78
569.01	29946.59
569.208	29471.46
569.407	30128.86
569.605	29403.88
569.804	29780.71
570.002	29356.78
570.201	29749.99
570.4	28893.94
570.598	29178.61
570.797	29293.29
570.995	29659.88
571.193	29088.49
571.392	29309.68
571.59	28941.04
571.789	28893.94
571.987	28881.65
572.186	28719.86
572.384	28408.57
572.582	28889.84
572.781	28928.75
572.979	28291.83
573.177	28367.61
573.376	28226.3
573.574	28293.88
573.772	28369.66
573.971	28168.96
574.169	28070.65
574.367	27972.35
574.565	27886.34
574.763	27941.63
574.962	27552.52
575.16	27370.25
575.358	27761.41
575.556	27147.02
575.754	27679.49
575.952	27116.3
576.151	27630.34
576.349	27142.92
576.547	26923.79
576.745	27339.53
576.943	26909.46
577.141	27065.1
577.339	27083.53
577.537	26927.89
577.735	26710.8
577.933	26305.31
578.131	26942.22
578.329	26307.35
578.527	26329.88
578.725	26397.46
578.923	26479.38
579.121	26422.04
579.319	26207
579.516	26497.81
579.714	26325.78
579.912	26063.64
580.11	25821.98
580.308	25996.06
580.506	25889.57
580.704	25226.03
580.901	25643.81
581.099	25748.26
581.297	25473.83
581.495	25453.35
581.692	25522.98
581.89	25217.83
582.088	25570.08
582.285	25283.37
582.483	25377.58
582.681	24884.01
582.878	24896.3
583.076	24924.97
583.274	25367.34
583.471	24531.76
583.669	24711.99
583.866	24800.05
584.064	24849.2
584.262	24161.08
584.459	24744.75
584.657	24335.16
584.854	24601.4
585.052	24085.31
585.249	24189.75
585.447	24286.01
585.644	23903.04
585.841	24283.96
586.039	24152.89
586.236	23829.31
586.434	23640.9
586.631	23485.25
586.828	23638.85
587.026	23706.43
587.223	23771.97
587.42	23395.14
587.618	23565.12
587.815	23294.79
588.012	23382.85
588.21	23434.05
588.407	23233.35
588.604	23108.43
588.801	22864.72
588.999	22973.26
589.196	22823.76
589.393	22715.22
589.59	22719.31
589.787	22416.21
589.984	22436.69
590.182	22264.66
590.379	22692.69
590.576	22244.18
590.773	22442.84
590.97	22528.85
591.167	22301.53
591.364	22215.51
591.561	21850.97
591.758	22061.91
591.955	22043.48
592.152	22147.93
592.349	21906.27
592.546	21728.1
592.743	21721.95
592.94	21431.14
593.137	21531.49
593.334	21705.57
593.531	21361.51
593.727	21474.15
593.924	21582.69
594.121	21310.31
594.318	21207.91
594.515	21130.09
594.712	21298.02
594.908	20988.78
595.105	21130.09
595.302	21039.98
595.499	21111.66
595.696	20632.43
595.892	20441.97
596.089	20894.57
596.286	20939.63
596.482	20540.27
596.679	20507.51
596.876	20814.7
597.072	20867.95
597.269	20417.4
597.466	20317.04
597.662	20202.36
597.859	20116.34
598.055	20065.14
598.252	20140.92
598.448	19991.42
598.645	19862.4
598.841	19526.53
599.038	19796.86
599.234	19800.96
599.431	19565.44
599.627	19495.81
599.824	19583.87
600.02	19379.07
600.217	19516.29
600.413	19504
600.609	19161.99
600.806	19096.46
601.002	19528.58
601.198	19129.22
601.395	18981.77
601.591	18918.28
601.787	18994.06
601.984	18848.65
602.18	19043.21
602.376	18879.37
602.572	18889.61
602.769	18654.09
602.965	18344.85
603.161	18271.12
603.357	18465.68
603.553	18322.32
603.75	18604.94
603.946	18369.43
604.142	18336.66
604.338	18041.75
604.534	18361.23
604.73	18064.28
604.926	18004.89
605.122	18144.15
605.318	17961.88
605.514	17826.71
605.71	17849.24
605.906	17558.43
606.102	17882.01
606.298	17869.72
606.494	17734.56
606.69	17566.62
606.886	17523.62
607.082	17353.63
607.278	17656.73
607.474	17353.63
607.67	17271.72
607.866	17163.17
608.062	17310.63
608.257	17193.89
608.453	17337.25
608.649	17386.4
608.845	17085.35
609.041	17040.29
609.236	17079.21
609.432	16821.16
609.628	17103.78
609.824	16999.34
610.019	16657.32
610.215	16868.27
610.411	16718.76
610.606	16708.52
610.802	16640.94
610.998	16524.21
611.193	16501.68
611.389	16487.34
611.584	16501.68
611.78	16290.74
611.976	16651.18
612.171	16348.08
612.367	16329.65
612.562	16440.24
612.758	15928.25
612.953	16159.67
613.149	16112.56
613.344	15821.75
613.539	16081.85
613.735	16319.41
613.93	16227.25
614.126	16085.94
614.321	16083.89
614.517	16128.95
614.712	16065.46
614.907	15932.34
615.103	15807.42
615.298	16135.09
615.493	15969.21
615.688	15659.96
615.884	15836.09
616.079	15610.81
616.274	15975.35
616.47	15739.83
616.665	15590.33
616.86	15631.29
617.055	15510.46
617.25	15406.02
617.445	15446.97
617.641	15272.9
617.836	15508.41
618.031	15154.12
618.226	15346.62
618.421	15045.57
618.616	15328.19
618.811	15047.62
619.006	15297.47
619.201	14814.15
619.396	14973.89
619.591	14625.74
619.786	15111.11
619.981	14648.27
620.176	14908.36
620.371	14592.97
620.566	14756.81
620.761	14394.32
620.956	14728.14
621.151	14347.22
621.346	14437.33
621.541	14193.62
621.735	14261.2
621.93	13994.97
622.125	14126.04
622.32	14027.73
622.515	13913.05
622.709	13704.15
622.904	13773.78
623.099	13521.88
623.294	13769.69
623.488	13462.49
623.683	13304.8
623.878	13401.05
624.072	13405.15
624.267	13329.38
624.462	13245.41
624.656	13081.57
624.851	13106.15
625.046	12919.78
625.24	12891.11
625.435	12575.72
625.629	12911.59
625.824	12962.79
626.018	12602.35
626.213	12567.53
626.407	12721.13
626.602	12266.48
626.796	12196.85
626.991	12262.38
627.185	12086.26
627.38	12037.11
627.574	12030.96
627.768	11873.27
627.963	11934.71
628.157	11822.07
628.352	11686.9
628.546	11906.04
628.74	11871.22
628.935	11834.36
629.129	11693.05
629.323	11387.9
629.517	11580.41
629.712	11228.16
629.906	11377.66
630.1	11189.25
630.294	11142.14
630.489	11322.37
630.683	11232.26
630.877	11035.65
631.071	10990.59
631.265	10959.88
631.459	10953.73
631.653	10710.02
631.848	10863.62
632.042	10742.79
632.236	10800.13
632.43	10431.5
632.624	10564.62
632.818	10593.29
633.012	10714.12
633.206	10402.83
633.4	10302.48
633.594	10175.5
633.788	10183.7
633.982	10433.55
634.176	10157.07
634.369	10056.72
634.563	10101.78
634.757	9997.33
634.951	10007.57
635.145	9917.46
635.339	9862.16
635.533	9640.98
635.726	9722.9
635.92	9634.84
636.114	9759.77
636.308	9526.3
636.501	9767.96
636.695	9554.97
636.889	9327.64
637.083	9157.66
637.276	9219.1
637.47	9276.45
637.664	9278.49
637.857	9405.47
638.051	8979.49
638.244	8879.14
638.438	9067.55
638.632	8954.91
638.825	8813.6
639.019	8743.97
639.212	8739.88
639.406	8864.8
639.599	8735.78
639.793	8670.25
639.986	8545.32
640.18	8514.6
640.373	8434.73
640.567	8500.26
640.76	8459.31
640.954	8258.6
641.147	8371.24
641.34	8217.65
641.534	8188.97
641.727	8248.36
641.92	8145.97
642.114	7973.94
642.307	8119.34
642.5	7922.74
642.694	7777.33
642.887	7816.24
643.08	7955.51
643.273	7707.7
643.467	7789.62
643.66	7687.22
643.853	7695.41
644.046	7795.76
644.239	7695.41
644.432	7484.47
644.626	7466.04
644.819	7441.47
645.012	7429.18
645.205	7367.74
645.398	7375.93
645.591	7267.39
645.784	7216.19
645.977	7240.76
646.17	7130.17
646.363	7167.04
646.556	7013.44
646.749	7089.21
646.942	7001.15
647.135	7021.63
647.328	6851.65
647.521	6894.66
647.714	6749.25
647.907	6810.69
648.099	6734.92
648.292	6675.52
648.485	6577.22
648.678	6663.24
648.871	6609.99
649.064	6687.81
649.256	6474.82
649.449	6446.15
649.642	6419.53
649.835	6259.79
650.027	6278.22
650.22	6425.67
650.413	6329.42
650.605	6163.53
650.798	6120.53
650.991	6114.38
651.183	6120.53
651.376	6100.05
651.568	6130.77
651.761	5870.67
651.954	5909.58
652.146	5874.77
652.339	5944.4
652.531	5887.06
652.724	5901.39
652.916	5862.48
653.109	5831.76
653.301	5721.17
653.494	5852.24
653.686	5700.69
653.879	5739.6
654.071	5626.96
654.263	5608.53
654.456	5553.24
654.648	5590.1
654.84	5436.5
655.033	5477.46
655.225	5524.57
655.417	5395.54
655.61	5385.3
655.802	5299.29
655.994	5360.73
656.186	5287
656.379	5276.76
656.571	5327.96
656.763	5287
656.955	5114.97
657.148	5168.22
657.34	5221.47
657.532	5039.2
657.724	5119.07
657.916	5069.92
658.108	4904.03
658.3	4940.9
658.492	5031.01
658.684	4967.52
658.876	4854.88
659.068	4832.35
659.26	4815.97
659.452	4793.44
659.644	4858.98
659.836	4713.57
660.028	4848.74
660.22	4625.51
660.412	4727.91
660.604	4580.45
660.796	4824.16
660.988	4549.73
661.18	4476.01
661.372	4516.97
661.563	4508.77
661.755	4404.33
661.947	4607.08
662.139	4312.17
662.331	4510.82
662.522	4428.9
662.714	4342.89
662.906	4430.95
663.097	4373.61
663.289	4273.26
663.481	4295.79
663.673	4287.59
663.864	4150.38
664.056	4170.86
664.247	4256.87
664.439	4097.13
664.631	4236.39
664.822	4172.91
665.014	4152.43
665.205	4062.32
665.397	3996.78
665.588	3890.29
665.78	3964.01
665.971	3939.44
666.163	3849.33
666.354	3839.09
666.546	4054.12
666.737	3875.95
666.929	4033.65
667.12	3892.34
667.311	3861.62
667.503	3746.93
667.694	3947.63
667.885	3820.66
668.077	3884.14
668.268	3615.86
668.459	3632.24
668.651	3736.69
668.842	3728.5
669.033	3818.61
669.224	3679.35
669.416	3701.87
669.607	3515.51
669.798	3648.63
669.989	3589.24
670.18	3370.1
670.371	3568.76
670.563	3478.65
670.754	3607.67
670.945	3331.19
671.136	3552.37
671.327	3443.83
671.518	3372.15
671.709	3533.94
671.9	3445.88
672.091	3472.5
672.282	3261.56
672.473	3441.78
672.664	3458.17
672.855	3357.82
673.046	3353.72
673.237	3406.97
673.428	3337.34
673.619	3421.3
673.809	3257.46
674	3230.84
674.191	3257.46
674.382	3228.79
674.573	3239.03
674.764	3236.99
674.954	3396.73
675.145	3208.31
675.336	3204.22
675.527	3218.55
675.717	3298.42
675.908	3236.99
676.099	3198.07
676.289	3097.72
676.48	3085.44
676.671	3062.91
676.861	3036.28
677.052	3093.63
677.243	3052.67
677.433	3153.02
677.624	3101.82
677.814	3140.73
678.005	3128.44
678.195	3140.73
678.386	3046.52
678.576	3024
678.767	3165.31
678.957	2972.8
679.148	3095.68
679.338	3081.34
679.529	2999.42
679.719	3095.68
679.909	3021.95
680.1	3011.71
680.29	2948.22
680.481	2866.3
680.671	2968.7
680.861	3150.97
681.052	2976.89
681.242	3097.72
681.432	3034.24
681.622	2974.85
681.813	3085.44
682.003	2925.69
682.193	2913.41
682.383	3073.15
682.573	3026.04
682.764	2950.27
682.954	2835.58
683.144	2968.7
683.334	2874.49
683.524	2962.56
683.714	2931.84
683.904	2833.54
684.094	2987.13
684.284	2964.61
684.474	2933.89
684.664	2997.37
684.854	2903.17
685.044	2845.82
685.234	2942.08
685.424	2837.63
685.614	2868.35
685.804	2956.41
685.994	2813.06
686.184	2948.22
686.374	2821.25
686.564	2821.25
686.753	2905.21
686.943	2878.59
687.133	2966.65
687.323	2864.25
687.513	2806.91
687.702	2796.67
687.892	2960.51
688.082	2948.22
688.272	2927.74
688.461	2864.25
688.651	2915.45
688.841	2835.58
689.03	2780.29
689.22	2720.9
689.41	2825.34
689.599	2790.53
689.789	2716.8
689.979	2866.3
690.168	2847.87
690.358	2737.28
690.547	2679.94
690.737	2763.9
690.926	2675.84
691.116	2757.76
691.305	2718.85
691.495	2821.25
691.684	2673.79
691.874	2772.1
692.063	2720.9
692.252	2690.18
692.442	2657.41
692.631	2727.04
692.82	2677.89
693.01	2624.64
693.199	2655.36
693.388	2573.44
693.578	2563.2
693.767	2815.1
693.956	2679.94
694.146	2782.34
694.335	2512
694.524	2595.97
694.713	2618.5
694.902	2700.42
695.092	2555.01
695.281	2538.63
695.47	2542.72
695.659	2550.92
695.848	2499.72
696.037	2729.09
696.226	2522.24
696.415	2612.35
696.604	2657.41
696.793	2469
696.982	2612.35
697.171	2563.2
697.36	2530.44
697.549	2485.38
697.738	2555.01
697.927	2430.09
698.116	2485.38
698.305	2536.58
698.494	2481.28
698.683	2618.5
698.872	2430.09
699.061	2583.68
699.25	2473.09
699.438	2520.2
699.627	2550.92
699.816	2532.48
700.005	2477.19
700.193	2493.57
700.382	2624.64
700.571	2405.51
700.76	2358.41
700.948	2546.82
701.137	2575.49
701.326	2444.42
701.514	2483.33
701.703	2446.47
701.892	2339.97
702.08	2356.36
702.269	2198.67
702.457	2452.61
702.646	2391.17
702.834	2366.6
703.023	2350.21
703.212	2419.85
703.4	2409.61
703.589	2430.09
703.777	2372.74
703.965	2411.65
704.154	2278.54
704.342	2342.02
704.531	2311.3
704.719	2331.78
704.907	2440.33
705.096	2344.07
705.284	2253.96
705.472	2335.88
705.661	2395.27
705.849	2276.49
706.037	2292.87
706.226	2329.74
706.414	2202.76
706.602	2258.06
706.79	2354.31
706.979	2276.49
707.167	2378.89
707.355	2149.51
707.543	2337.93
707.731	2296.97
707.919	2264.2
708.107	2210.95
708.296	2313.35
708.484	2270.34
708.672	2167.95
708.86	2219.14
709.048	2235.53
709.236	2206.86
709.424	2227.34
709.612	2163.85
709.8	2139.27
709.988	2196.62
710.176	2210.95
710.364	2241.67
710.551	2067.6
710.739	2126.99
710.927	2202.76
711.115	2217.1
711.303	2145.42
711.491	2096.27
711.679	2151.56
711.866	2221.19
712.054	2149.51
712.242	2094.22
712.43	2118.79
712.617	2124.94
712.805	2012.3
712.993	2145.42
713.181	2049.16
713.368	2059.4
713.556	2133.13
713.744	2020.49
713.931	2059.4
714.119	2155.66
714.306	2036.88
714.494	2051.21
714.682	1965.2
714.869	2057.36
715.057	2088.07
715.244	1971.34
715.432	2022.54
715.619	1977.48
715.807	1954.96
715.994	2063.5
716.182	1961.1
716.369	1977.48
716.556	1961.1
716.744	1989.77
716.931	1893.52
717.119	2049.16
717.306	2014.35
717.493	1877.13
717.681	2065.55
717.868	1975.44
718.055	1914
718.242	2028.68
718.43	2000.01
718.617	1948.81
718.804	1834.13
718.991	1879.18
719.179	1897.61
719.366	1844.37
719.553	1914
719.74	1887.37
719.927	1752.21
720.114	1764.5
720.301	1879.18
720.488	1889.42
720.676	1854.61
720.863	1834.13
721.05	1875.09
721.237	1899.66
721.424	1944.72
721.611	1881.23
721.798	1809.55
721.985	1875.09
722.172	1832.08
722.358	1758.35
722.545	1895.57
722.732	1850.51
722.919	1813.65
723.106	1756.3
723.293	1862.8
723.48	1784.98
723.667	1797.26
723.853	1836.17
724.04	1787.02
724.227	1791.12
724.414	1690.77
724.6	1774.74
724.787	1729.68
724.974	1766.54
725.161	1762.45
725.347	1797.26
725.534	1791.12
725.72	1701.01
725.907	1666.19
726.094	1793.17
726.28	1684.62
726.467	1678.48
726.653	1623.19
726.84	1766.54
727.027	1797.26
727.213	1684.62
727.4	1608.85
727.586	1707.15
727.773	1612.95
727.959	1598.61
728.145	1647.76
728.332	1717.39
728.518	1815.69
728.705	1764.5
728.891	1553.55
729.077	1797.26
729.264	1608.85
729.45	1668.24
729.636	1664.15
729.823	1637.52
730.009	1674.39
730.195	1612.95
730.382	1662.1
730.568	1619.09
730.754	1606.8
730.94	1672.34
731.126	1586.32
731.313	1641.62
731.499	1623.19
731.685	1662.1
731.871	1508.5
732.057	1590.42
732.243	1551.51
732.429	1559.7
732.615	1545.36
732.801	1664.15
732.987	1586.32
733.173	1576.08
733.359	1631.38
733.545	1649.81
733.731	1614.99
733.917	1684.62
734.103	1729.68
734.289	1633.43
734.475	1537.17
734.661	1629.33
734.847	1469.59
735.033	1510.55
735.219	1465.49
735.404	1614.99
735.59	1610.9
735.776	1447.06
735.962	1557.65
736.148	1545.36
736.333	1488.02
736.519	1492.12
736.705	1578.13
736.89	1580.18
737.076	1553.55
737.262	1510.55
737.447	1531.03
737.633	1436.82
737.819	1547.41
738.004	1557.65
738.19	1475.73
738.375	1555.6
738.561	1508.5
738.747	1404.05
738.932	1506.45
739.118	1494.16
739.303	1467.54
739.489	1428.63
739.674	1383.57
739.859	1490.07
740.045	1498.26
740.23	1494.16
740.416	1412.25
740.601	1379.48
740.786	1498.26
740.972	1389.72
741.157	1447.06
741.342	1389.72
741.528	1471.64
741.713	1494.16
741.898	1442.96
742.084	1367.19
742.269	1379.48
742.454	1361.05
742.639	1442.96
742.824	1408.15
743.01	1305.75
743.195	1336.47
743.38	1338.52
743.565	1301.65
743.75	1285.27
743.935	1262.74
744.12	1299.61
744.305	1342.61
744.49	1311.89
744.675	1344.66
744.86	1361.05
745.045	1348.76
745.23	1342.61
745.415	1340.57
745.6	1361.05
745.785	1328.28
745.97	1258.65
746.155	1283.22
746.34	1229.98
746.525	1244.31
746.71	1250.46
746.895	1221.78
747.079	1272.98
747.264	1215.64
747.449	1203.35
747.634	1225.88
747.819	1203.35
748.003	1170.58
748.188	1164.44
748.373	1236.12
748.557	1266.84
748.742	1168.54
748.927	1125.53
749.111	1289.37
749.296	1158.3
749.481	1176.73
749.665	1162.39
749.85	1148.06
750.034	1174.68
750.219	1322.13
750.404	1010.84
750.588	1148.06
750.773	1076.38
750.957	1039.51
751.141	1086.62
751.326	1043.61
751.51	1078.43
751.695	1125.53
751.879	1098.91
752.064	1129.63
752.248	1029.27
752.432	1092.76
752.617	1057.95
752.801	1053.85
752.985	1033.37
753.17	1049.75
753.354	992.41
753.538	955.55
753.722	951.45
753.907	978.08
754.091	914.59
754.275	881.82
754.459	906.4
754.643	912.54
754.828	976.03
755.012	920.73
755.196	937.12
755.38	906.4
755.564	1039.51
755.748	867.49
755.932	920.73
756.116	898.2
756.3	834.72
756.484	943.26
756.668	840.86
756.852	937.12
757.036	912.54
757.22	842.91
757.404	855.2
757.588	920.73
757.772	910.49
757.956	822.43
758.14	851.1
758.323	875.68
758.507	842.91
758.691	822.43
758.875	849.05
759.059	939.16
759.242	865.44
759.426	834.72
759.61	793.76
759.794	789.66
759.977	726.18
760.161	855.2
760.345	801.95
760.528	775.33
760.712	740.51
760.895	849.05
761.079	726.18
761.263	760.99
761.446	744.61
761.63	756.9
761.813	793.76
761.997	736.42
762.18	709.79
762.364	773.28
762.547	683.17
762.731	717.98
762.914	648.35
763.098	732.32
763.281	634.02
763.464	717.98
763.648	650.4
763.831	625.83
764.015	617.63
764.198	703.65
764.381	709.79
764.564	650.4
764.748	717.98
764.931	683.17
765.114	715.94
765.297	709.79
765.481	736.42
765.664	670.88
765.847	699.55
766.03	765.09
766.213	666.78
766.397	715.94
766.58	625.83
766.763	613.54
766.946	572.58
767.129	646.3
767.312	615.59
767.495	650.4
767.678	615.59
767.861	615.59
768.044	621.73
768.227	631.97
768.41	605.35
768.593	627.87
768.776	683.17
768.959	601.25
769.142	572.58
769.324	543.91
769.507	631.97
769.69	611.49
769.873	623.78
770.056	638.11
770.239	552.1
770.421	644.26
770.604	552.1
770.787	554.15
770.97	601.25
771.152	615.59
771.335	588.96
771.518	621.73
771.7	615.59
771.883	638.11
772.066	556.19
772.248	529.57
772.431	627.87
772.613	582.82
772.796	570.53
772.978	449.7
773.161	572.58
773.343	593.06
773.526	576.67
773.708	621.73
773.891	558.24
774.073	578.72
774.256	576.67
774.438	525.47
774.621	488.61
774.803	545.95
774.985	545.95
775.168	609.44
775.35	597.15
775.532	504.99
775.715	511.14
775.897	529.57
776.079	433.32
776.261	437.41
776.444	533.67
776.626	421.03
776.808	500.9
776.99	484.52
777.173	427.17
777.355	449.7
777.537	468.13
777.719	449.7
777.901	445.6
778.083	455.84
778.265	498.85
778.447	414.88
778.629	429.22
778.811	447.65
778.993	466.08
779.175	490.66
779.357	447.65
779.539	449.7
779.721	421.03
779.903	461.99
780.085	453.8
780.267	425.12
780.449	412.84
780.631	433.32
780.812	423.08
780.994	345.25
781.176	351.4
781.358	330.92
781.54	304.29
781.721	412.84
781.903	371.88
782.085	359.59
782.267	308.39
782.448	363.69
782.63	371.88
782.812	341.16
782.993	425.12
783.175	355.49
783.357	339.11
783.538	421.03
783.72	267.43
783.901	367.78
784.083	384.16
784.264	304.29
784.446	351.4
784.627	355.49
784.809	339.11
784.99	412.84
785.172	337.06
785.353	320.68
785.535	412.84
785.716	337.06
785.897	330.92
786.079	310.44
786.26	281.77
786.441	380.07
786.623	324.77
786.804	384.16
786.985	332.97
787.167	294.05
787.348	341.16
787.529	298.15
787.71	314.53
787.891	314.53
788.073	306.34
788.254	287.91
788.435	310.44
788.616	261.29
788.797	294.05
788.978	367.78
789.159	304.29
789.34	240.81
789.522	330.92
789.703	269.48
789.884	230.57
790.065	298.15
790.246	261.29
790.427	300.2
790.607	253.09
790.788	251.05
790.969	267.43
791.15	265.38
791.331	228.52
791.512	167.08
791.693	208.04
791.874	292.01
792.054	232.62
792.235	251.05
792.416	277.67
792.597	218.28
792.778	281.77
792.958	240.81
793.139	283.81
793.32	214.18
793.5	228.52
793.681	261.29
793.862	199.85
794.042	220.33
794.223	230.57
794.404	240.81
794.584	259.24
794.765	171.18
794.945	111.78
795.126	253.09
795.306	210.09
795.487	210.09
795.667	165.03
795.848	175.27
796.028	263.33
796.209	193.7
796.389	203.94
796.57	216.23
796.75	210.09
796.93	195.75
797.111	152.74
797.291	185.51
797.471	175.27
797.652	191.66
797.832	208.04
798.012	197.8
798.192	220.33
798.373	255.14
798.553	205.99
798.733	234.66
798.913	208.04
799.093	265.38
799.274	144.55
799.454	169.13
799.634	167.08
799.814	122.02
799.994	105.64
800.174	244.9
800.354	136.36
800.534	179.37
800.714	216.23
800.894	160.94
801.074	212.14
801.254	150.7
801.434	228.52
801.614	117.93
801.794	87.21
801.974	480.42
802.154	179.37
802.334	208.04
802.514	165.03
802.693	187.56
802.873	162.98
803.053	234.66
803.233	144.55
803.413	183.46
803.592	167.08
803.772	171.18
803.952	146.6
804.131	257.19
804.311	79.02
804.491	189.61
804.67	126.12
804.85	130.22
805.03	191.66
805.209	136.36
805.389	138.41
805.568	234.66
805.748	130.22
805.928	205.99
806.107	138.41
806.287	128.17
806.466	144.55
806.646	193.7
806.825	214.18
807.004	162.98
807.184	122.02
807.363	183.46
807.543	142.5
807.722	115.88
807.901	201.9
808.081	187.56
808.26	158.89
808.439	167.08
808.619	130.22
808.798	103.59
808.977	162.98
809.156	144.55
809.336	189.61
809.515	158.89
809.694	138.41
809.873	195.75
810.052	134.31
810.231	150.7
810.411	119.98
810.59	107.69
810.769	148.65
810.948	142.5
811.127	99.5
811.306	167.08
811.485	117.93
811.664	177.32
811.843	191.66
812.022	50.35
812.201	212.14
812.38	111.78
812.559	76.97
812.737	122.02
812.916	85.16
813.095	136.36
813.274	154.79
813.453	175.27
813.632	134.31
813.811	103.59
813.989	38.06
814.168	134.31
814.347	117.93
814.526	122.02
814.704	130.22
814.883	119.98
815.062	173.22
815.24	74.92
815.419	162.98
815.598	142.5
815.776	115.88
815.955	101.55
816.133	107.69
816.312	101.55
816.49	128.17
816.669	76.97
816.847	81.07
817.026	124.07
817.204	76.97
817.383	132.26
817.561	25.77
817.74	85.16
817.918	130.22
818.097	99.5
818.275	132.26
818.453	152.74
818.632	85.16
818.81	68.78
818.988	156.84
819.167	128.17
819.345	81.07
819.523	89.26
819.701	44.2
819.879	105.64
820.058	111.78
820.236	70.83
820.414	122.02
820.592	93.35
820.77	103.59
820.948	89.26
821.127	117.93
821.305	132.26
821.483	126.12
821.661	70.83
821.839	132.26
822.017	126.12
822.195	44.2
822.373	79.02
822.551	79.02
822.729	85.16
822.907	46.25
823.085	130.22
823.262	109.74
823.44	144.55
823.618	15.53
823.796	27.82
823.974	97.45
824.152	50.35
824.329	89.26
824.507	36.01
824.685	103.59
824.863	31.91
825.04	-2.9
825.218	109.74
825.396	64.68
825.574	81.07
825.751	81.07
825.929	130.22
826.107	140.46
826.284	117.93
826.462	1.19
826.639	105.64
826.817	56.49
826.994	146.6
827.172	31.91
827.349	72.87
827.527	79.02
827.704	210.09
827.882	119.98
828.059	66.73
828.237	101.55
828.414	140.46
828.591	97.45
828.769	56.49
828.946	101.55
829.124	50.35
829.301	99.5
829.478	36.01
829.655	103.59
829.833	56.49
830.01	76.97
830.187	7.34
830.364	50.35
830.542	91.31
830.719	52.39
830.896	95.4
831.073	117.93
831.25	58.54
831.427	60.59
831.604	44.2
831.782	38.06
831.959	160.94
832.136	83.11
832.313	85.16
832.49	31.91
832.667	109.74
832.844	11.43
833.021	68.78
833.198	23.72
833.374	40.11
833.551	-15.19
833.728	109.74
833.905	9.39
834.082	76.97
834.259	68.78
834.436	44.2
834.612	115.88
834.789	68.78
834.966	93.35
835.143	142.5
835.319	36.01
835.496	124.07
835.673	107.69
835.85	40.11
836.026	72.87
836.203	31.91
836.38	38.06
836.556	79.02
836.733	31.91
836.909	76.97
837.086	93.35
837.262	101.55
837.439	85.16
837.616	97.45
837.792	31.91
837.968	128.17
838.145	101.55
838.321	31.91
838.498	54.44
838.674	93.35
838.851	33.96
839.027	105.64
839.203	99.5
839.38	44.2
839.556	72.87
839.732	62.63
839.909	15.53
840.085	3.24
840.261	5.29
840.437	54.44
840.614	-56.15
840.79	85.16
840.966	38.06
841.142	3.24
841.318	87.21
841.494	68.78
841.671	11.43
841.847	-0.85
842.023	-19.29
842.199	58.54
842.375	60.59
842.551	101.55
842.727	-45.91
842.903	62.63
843.079	7.34
843.255	87.21
843.431	74.92
843.607	-29.52
843.783	19.63
843.959	103.59
844.134	113.83
844.31	11.43
844.486	-74.58
844.662	3.24
844.838	-35.67
845.013	74.92
845.189	62.63
845.365	95.4
845.541	62.63
845.716	38.06
845.892	21.67
846.068	93.35
846.244	111.78
846.419	19.63
846.595	3.24
846.77	38.06
846.946	56.49
847.122	103.59
847.297	-4.95
847.473	85.16
847.648	36.01
847.824	-35.67
847.999	1.19
848.175	68.78
848.35	64.68
848.526	17.58
848.701	-9.05
848.876	33.96
849.052	46.25
849.227	93.35
849.403	-45.91
849.578	38.06
849.753	7.34
849.929	44.2
850.104	93.35
850.279	44.2
850.454	56.49
850.63	74.92
850.805	66.73
850.98	89.26
851.155	62.63
851.33	79.02
851.505	79.02
851.681	64.68
851.856	-7
852.031	52.39
852.206	31.91
852.381	87.21
852.556	-9.05
852.731	19.63
852.906	17.58
853.081	27.82
853.256	40.11
853.431	44.2
853.606	93.35
853.781	76.97
853.956	-2.9
854.131	25.77
854.305	5.29
854.48	-11.09
854.655	46.25
854.83	44.2
855.005	40.11
855.18	-17.24
855.354	72.87
855.529	48.3
855.704	66.73
855.879	91.31
856.053	-11.09
856.228	62.63
856.403	38.06
856.577	60.59
856.752	72.87
856.926	103.59
857.101	91.31
857.276	-37.72
857.45	-4.95
857.625	36.01
857.799	46.25
857.974	70.83
858.148	54.44
858.323	21.67
858.497	5.29
858.672	-41.81
858.846	-0.85
859.02	81.07
859.195	85.16
859.369	62.63
859.543	36.01
859.718	27.82
859.892	79.02
860.066	87.21
860.241	19.63
860.415	38.06
860.589	74.92
860.763	60.59
860.938	36.01
861.112	15.53
861.286	7.34
861.46	97.45
861.634	40.11
861.808	48.3
861.982	9.39
862.157	36.01
862.331	7.34
862.505	19.63
862.679	17.58
862.853	36.01
863.027	21.67
863.201	38.06
863.375	42.15
863.549	64.68
863.722	36.01
863.896	-11.09
864.07	-7
864.244	-33.62
864.418	42.15
864.592	-19.29
864.766	1.19
864.939	36.01
865.113	46.25
865.287	29.87
865.461	23.72
865.634	36.01
865.808	13.48
865.982	33.96
866.156	29.87
866.329	38.06
866.503	91.31
866.676	-2.9
866.85	1.19
867.024	42.15
867.197	19.63
867.371	-2.9
867.544	87.21
867.718	-11.09
867.891	38.06
868.065	76.97
868.238	74.92
868.412	3.24
868.585	74.92
868.759	-78.68
868.932	64.68
869.105	111.78
869.279	52.39
869.452	56.49
869.625	3.24
869.799	64.68
869.972	13.48
870.145	87.21
870.319	-0.85
870.492	-35.67
870.665	66.73
870.838	50.35
871.011	36.01
871.185	74.92
871.358	-13.14
871.531	46.25
871.704	15.53
871.877	27.82
872.05	72.87
872.223	-19.29
872.396	64.68
872.569	23.72
872.742	5.29
872.915	60.59
873.088	27.82
873.261	13.48
873.434	79.02
873.607	58.54
873.78	-27.48
873.953	36.01
874.126	-13.14
874.299	-15.19
874.471	31.91
874.644	74.92
874.817	48.3
874.99	101.55
875.163	44.2
875.335	66.73
875.508	70.83
875.681	68.78
875.853	-47.96
876.026	36.01
876.199	11.43
876.371	-13.14
876.544	31.91
876.717	-11.09
876.889	-31.57
877.062	5.29
877.234	-15.19
877.407	25.77
877.579	21.67
877.752	36.01
877.924	52.39
878.097	93.35
878.269	17.58
878.442	3.24
878.614	109.74
878.786	-2.9
878.959	60.59
879.131	-11.09
879.303	60.59
879.476	17.58
879.648	31.91
879.82	52.39
879.993	-74.58
880.165	-7
880.337	23.72
880.509	29.87
880.681	-23.38
880.854	36.01
881.026	19.63
881.198	-25.43
881.37	36.01
881.542	54.44
881.714	58.54
881.886	103.59
882.058	11.43
882.23	119.98
882.402	66.73
882.574	46.25
882.746	29.87
882.918	62.63
883.09	-25.43
883.262	19.63
883.434	60.59
883.606	9.39
883.778	31.91
883.95	5.29
884.122	44.2
884.293	27.82
884.465	44.2
884.637	36.01
884.809	-11.09
884.98	46.25
885.152	40.11
885.324	93.35
885.496	-19.29
885.667	-47.96
885.839	-45.91
886.011	23.72
886.182	-37.72
886.354	7.34
886.525	42.15
886.697	50.35
886.869	25.77
887.04	11.43
887.212	81.07
887.383	62.63
887.555	21.67
887.726	46.25
887.897	44.2
888.069	11.43
888.24	-17.24
888.412	79.02
888.583	70.83
888.754	-13.14
888.926	25.77
889.097	21.67
889.268	29.87
889.44	48.3
889.611	46.25
889.782	-66.39
889.953	-58.2
890.125	13.48
890.296	21.67
890.467	-4.95
890.638	38.06
890.809	85.16
890.98	62.63
891.151	76.97
891.323	91.31
891.494	89.26
891.665	1.19
891.836	25.77
892.007	52.39
892.178	-4.95
892.349	11.43
892.52	21.67
892.691	52.39
892.862	52.39
893.032	-21.33
893.203	19.63
893.374	42.15
893.545	89.26
893.716	-11.09
893.887	54.44
894.057	-11.09
894.228	48.3
894.399	107.69
894.57	-21.33
894.74	25.77
894.911	5.29
895.082	-13.14
895.253	27.82
895.423	27.82
895.594	29.87
895.764	42.15
895.935	40.11
896.106	7.34
896.276	-60.24
896.447	29.87
896.617	9.39
896.788	3.24
896.958	105.64
897.129	38.06
897.299	36.01
897.47	-41.81
897.64	-9.05
897.81	-4.95
897.981	58.54
898.151	40.11
898.322	19.63
898.492	-13.14
898.662	-17.24
898.832	48.3
899.003	76.97
899.173	36.01
899.343	29.87
899.513	-17.24
