Data from USB4F104151__38__12-58-58-626.txt Node

Date: Fri Mar 14 12:58:58 EDT 2025
User: louis
Spectrometer: USB4F10415
Trigger mode: 4
Integration Time (sec): 1.000000E-2
Scans to average: 1
Electric dark correction enabled: true
Nonlinearity correction enabled: false
Boxcar width: 0
XAxis mode: Wavelengths
Number of Pixels in Spectrum: 3648
>>>>>Begin Spectral Data<<<<<
178.204	-10.58
178.424	-10.58
178.644	-10.58
178.864	-82.26
179.084	-29.01
179.304	1.71
179.524	-0.34
179.744	18.09
179.964	-12.63
180.184	5.8
180.404	-41.3
180.624	-59.73
180.844	11.95
181.064	71.34
181.283	5.8
181.503	-24.92
181.723	24.23
181.943	32.43
182.163	36.52
182.383	-55.64
182.602	26.28
182.822	-6.49
183.042	63.15
183.262	13.99
183.482	-14.68
183.701	1.71
183.921	-6.49
184.141	16.04
184.361	44.71
184.58	-47.44
184.8	54.95
185.02	-49.49
185.239	13.99
185.459	54.95
185.679	87.72
185.898	-76.12
186.118	46.76
186.338	3.75
186.557	95.91
186.777	50.86
186.997	22.19
187.216	73.39
187.436	59.05
187.655	-45.4
187.875	-39.25
188.095	44.71
188.314	48.81
188.534	69.29
188.753	65.19
188.973	7.85
189.192	89.77
189.412	5.8
189.631	75.43
189.851	-26.96
190.07	9.9
190.29	-37.2
190.509	48.81
190.729	-133.46
190.948	38.57
191.168	89.77
191.387	-26.96
191.607	5.8
191.826	-14.68
192.045	3.75
192.265	5.8
192.484	-8.53
192.704	5.8
192.923	1.71
193.142	18.09
193.362	77.48
193.581	13.99
193.8	75.43
194.02	5.8
194.239	-57.68
194.458	34.47
194.678	-18.77
194.897	-16.73
195.116	-0.34
195.335	-8.53
195.555	13.99
195.774	5.8
195.993	-102.74
196.212	46.76
196.432	34.47
196.651	-72.02
196.87	46.76
197.089	91.82
197.308	36.52
197.528	-6.49
197.747	-20.82
197.966	16.04
198.185	73.39
198.404	36.52
198.623	1.71
198.842	-88.4
199.062	11.95
199.281	73.39
199.5	28.33
199.719	26.28
199.938	28.33
200.157	91.82
200.376	40.62
200.595	-47.44
200.814	-63.83
201.033	-26.96
201.252	-26.96
201.471	-37.2
201.69	-35.16
201.909	13.99
202.128	5.8
202.347	-22.87
202.566	-16.73
202.785	-43.35
203.004	-14.68
203.223	-0.34
203.442	44.71
203.661	22.19
203.879	28.33
204.098	100.01
204.317	57
204.536	50.86
204.755	24.23
204.974	34.47
205.193	61.1
205.411	18.09
205.63	30.38
205.849	13.99
206.068	1.71
206.287	32.43
206.505	-43.35
206.724	-12.63
206.943	-6.49
207.162	63.15
207.381	-6.49
207.599	-6.49
207.818	1.71
208.037	9.9
208.255	13.99
208.474	32.43
208.693	-2.39
208.911	-2.39
209.13	-6.49
209.349	13.99
209.567	-59.73
209.786	18.09
210.005	32.43
210.223	16.04
210.442	-6.49
210.661	-4.44
210.879	38.57
211.098	22.19
211.316	7.85
211.535	18.09
211.753	-102.74
211.972	110.25
212.191	-4.44
212.409	20.14
212.628	-35.16
212.846	26.28
213.065	11.95
213.283	22.19
213.502	-24.92
213.72	-6.49
213.938	46.76
214.157	-35.16
214.375	46.76
214.594	20.14
214.812	24.23
215.031	-31.06
215.249	30.38
215.467	106.15
215.686	-35.16
215.904	1.71
216.122	-29.01
216.341	-29.01
216.559	5.8
216.778	40.62
216.996	-47.44
217.214	44.71
217.432	18.09
217.651	-29.01
217.869	9.9
218.087	20.14
218.306	13.99
218.524	28.33
218.742	-45.4
218.96	-12.63
219.179	18.09
219.397	102.06
219.615	28.33
219.833	34.47
220.051	1.71
220.27	59.05
220.488	38.57
220.706	102.06
220.924	-47.44
221.142	-14.68
221.36	40.62
221.578	26.28
221.796	-18.77
222.015	73.39
222.233	54.95
222.451	65.19
222.669	-8.53
222.887	-16.73
223.105	1.71
223.323	-10.58
223.541	20.14
223.759	28.33
223.977	-63.83
224.195	-29.01
224.413	-33.11
224.631	52.91
224.849	18.09
225.067	3.75
225.285	18.09
225.503	-16.73
225.721	-24.92
225.939	54.95
226.157	20.14
226.375	130.73
226.592	22.19
226.81	-63.83
227.028	13.99
227.246	11.95
227.464	-26.96
227.682	63.15
227.9	32.43
228.117	40.62
228.335	26.28
228.553	42.67
228.771	-18.77
228.989	42.67
229.206	1.71
229.424	54.95
229.642	-57.68
229.86	18.09
230.077	-37.2
230.295	-14.68
230.513	71.34
230.731	54.95
230.948	67.24
231.166	30.38
231.384	26.28
231.601	9.9
231.819	-33.11
232.037	42.67
232.254	34.47
232.472	-31.06
232.689	69.29
232.907	63.15
233.125	28.33
233.342	20.14
233.56	-65.88
233.777	-26.96
233.995	36.52
234.213	18.09
234.43	-0.34
234.648	24.23
234.865	44.71
235.083	11.95
235.3	11.95
235.518	63.15
235.735	24.23
235.953	83.63
236.17	44.71
236.388	36.52
236.605	30.38
236.822	71.34
237.04	13.99
237.257	9.9
237.475	-10.58
237.692	34.47
237.909	-69.97
238.127	63.15
238.344	65.19
238.562	77.48
238.779	32.43
238.996	-31.06
239.214	46.76
239.431	13.99
239.648	1.71
239.865	-20.82
240.083	85.67
240.3	26.28
240.517	24.23
240.735	18.09
240.952	57
241.169	9.9
241.386	-22.87
241.603	-2.39
241.821	34.47
242.038	54.95
242.255	20.14
242.472	5.8
242.689	18.09
242.907	-16.73
243.124	44.71
243.341	34.47
243.558	42.67
243.775	1.71
243.992	91.82
244.209	-35.16
244.426	65.19
244.643	28.33
244.86	-22.87
245.078	40.62
245.295	-6.49
245.512	-8.53
245.729	-51.54
245.946	28.33
246.163	48.81
246.38	48.81
246.597	26.28
246.814	36.52
247.031	3.75
247.248	-12.63
247.464	40.62
247.681	20.14
247.898	-8.53
248.115	5.8
248.332	-80.21
248.549	-24.92
248.766	-47.44
248.983	-6.49
249.2	-76.12
249.417	-37.2
249.633	-43.35
249.85	79.53
250.067	-10.58
250.284	-6.49
250.501	77.48
250.717	22.19
250.934	13.99
251.151	-53.59
251.368	40.62
251.585	44.71
251.801	-0.34
252.018	28.33
252.235	63.15
252.451	-29.01
252.668	11.95
252.885	36.52
253.102	24.23
253.318	20.14
253.535	46.76
253.752	40.62
253.968	-20.82
254.185	38.57
254.401	36.52
254.618	18.09
254.835	-2.39
255.051	30.38
255.268	11.95
255.484	-63.83
255.701	-12.63
255.917	-0.34
256.134	-4.44
256.351	34.47
256.567	7.85
256.784	-72.02
257	-31.06
257.217	42.67
257.433	-55.64
257.65	42.67
257.866	13.99
258.082	-55.64
258.299	-33.11
258.515	-18.77
258.732	18.09
258.948	-2.39
259.165	100.01
259.381	-4.44
259.597	59.05
259.814	3.75
260.03	24.23
260.246	67.24
260.463	77.48
260.679	7.85
260.895	42.67
261.112	-14.68
261.328	1.71
261.544	3.75
261.761	28.33
261.977	11.95
262.193	-16.73
262.409	28.33
262.626	-8.53
262.842	3.75
263.058	-35.16
263.274	38.57
263.49	69.29
263.707	32.43
263.923	11.95
264.139	38.57
264.355	1.71
264.571	67.24
264.787	34.47
265.004	16.04
265.22	20.14
265.436	13.99
265.652	18.09
265.868	-4.44
266.084	-31.06
266.3	28.33
266.516	34.47
266.732	75.43
266.948	-6.49
267.164	42.67
267.38	13.99
267.596	26.28
267.812	63.15
268.028	61.1
268.244	59.05
268.46	9.9
268.676	1.71
268.892	5.8
269.108	46.76
269.324	-14.68
269.54	3.75
269.756	9.9
269.972	-22.87
270.188	-0.34
270.403	11.95
270.619	9.9
270.835	18.09
271.051	30.38
271.267	-2.39
271.483	24.23
271.698	69.29
271.914	36.52
272.13	-2.39
272.346	-18.77
272.562	-2.39
272.777	-0.34
272.993	-2.39
273.209	9.9
273.425	-4.44
273.64	42.67
273.856	24.23
274.072	65.19
274.287	20.14
274.503	-18.77
274.719	36.52
274.934	52.91
275.15	-47.44
275.366	42.67
275.581	-84.31
275.797	7.85
276.012	-47.44
276.228	50.86
276.444	22.19
276.659	-41.3
276.875	28.33
277.09	13.99
277.306	13.99
277.521	-4.44
277.737	-43.35
277.952	-22.87
278.168	11.95
278.383	52.91
278.599	32.43
278.814	57
279.03	-8.53
279.245	48.81
279.461	28.33
279.676	83.63
279.892	-22.87
280.107	7.85
280.322	-55.64
280.538	-12.63
280.753	-35.16
280.969	38.57
281.184	40.62
281.399	18.09
281.615	20.14
281.83	-2.39
282.045	26.28
282.26	-10.58
282.476	100.01
282.691	-35.16
282.906	26.28
283.122	20.14
283.337	-20.82
283.552	16.04
283.767	-47.44
283.983	20.14
284.198	18.09
284.413	-4.44
284.628	-37.2
284.843	54.95
285.058	28.33
285.274	71.34
285.489	-22.87
285.704	-29.01
285.919	-51.54
286.134	-20.82
286.349	-16.73
286.564	-63.83
286.779	42.67
286.995	40.62
287.21	3.75
287.425	38.57
287.64	28.33
287.855	71.34
288.07	22.19
288.285	30.38
288.5	73.39
288.715	-8.53
288.93	-59.73
289.145	65.19
289.36	16.04
289.575	1.71
289.79	20.14
290.004	-16.73
290.219	57
290.434	-10.58
290.649	1.71
290.864	54.95
291.079	26.28
291.294	34.47
291.509	-29.01
291.724	13.99
291.938	1.71
292.153	52.91
292.368	-31.06
292.583	-8.53
292.798	106.15
293.012	85.67
293.227	38.57
293.442	67.24
293.657	95.91
293.871	46.76
294.086	54.95
294.301	18.09
294.516	-51.54
294.73	50.86
294.945	-16.73
295.16	20.14
295.374	46.76
295.589	13.99
295.804	50.86
296.018	18.09
296.233	3.75
296.447	57
296.662	54.95
296.877	48.81
297.091	-12.63
297.306	3.75
297.52	24.23
297.735	28.33
297.949	-49.49
298.164	93.87
298.378	9.9
298.593	9.9
298.807	-51.54
299.022	50.86
299.236	18.09
299.451	1.71
299.665	-4.44
299.88	38.57
300.094	-31.06
300.309	3.75
300.523	-2.39
300.737	67.24
300.952	-10.58
301.166	87.72
301.381	-0.34
301.595	-57.68
301.809	44.71
302.024	34.47
302.238	-18.77
302.452	13.99
302.667	-8.53
302.881	-8.53
303.095	116.39
303.309	18.09
303.524	26.28
303.738	22.19
303.952	-26.96
304.166	13.99
304.381	-45.4
304.595	34.47
304.809	38.57
305.023	54.95
305.237	32.43
305.452	36.52
305.666	67.24
305.88	71.34
306.094	36.52
306.308	36.52
306.522	65.19
306.736	-0.34
306.95	40.62
307.164	28.33
307.379	-0.34
307.593	24.23
307.807	54.95
308.021	-12.63
308.235	71.34
308.449	44.71
308.663	24.23
308.877	50.86
309.091	-4.44
309.305	-22.87
309.519	26.28
309.733	24.23
309.947	63.15
310.161	-20.82
310.374	30.38
310.588	-0.34
310.802	-29.01
311.016	52.91
311.23	46.76
311.444	5.8
311.658	-8.53
311.872	40.62
312.085	-26.96
312.299	132.78
312.513	24.23
312.727	75.43
312.941	-8.53
313.154	42.67
313.368	-35.16
313.582	44.71
313.796	50.86
314.009	-12.63
314.223	32.43
314.437	52.91
314.651	-18.77
314.864	9.9
315.078	34.47
315.292	46.76
315.505	97.96
315.719	30.38
315.933	22.19
316.146	-33.11
316.36	38.57
316.573	-26.96
316.787	1.71
317.001	-59.73
317.214	67.24
317.428	5.8
317.641	-37.2
317.855	42.67
318.068	28.33
318.282	-94.55
318.495	9.9
318.709	11.95
318.922	40.62
319.136	34.47
319.349	5.8
319.563	-22.87
319.776	16.04
319.99	-47.44
320.203	59.05
320.417	81.58
320.63	1.71
320.843	36.52
321.057	-20.82
321.27	-12.63
321.483	61.1
321.697	-14.68
321.91	57
322.124	36.52
322.337	1.71
322.55	-6.49
322.763	-2.39
322.977	34.47
323.19	11.95
323.403	9.9
323.617	63.15
323.83	22.19
324.043	34.47
324.256	36.52
324.469	40.62
324.683	11.95
324.896	-22.87
325.109	16.04
325.322	-31.06
325.535	59.05
325.748	22.19
325.962	44.71
326.175	9.9
326.388	65.19
326.601	38.57
326.814	-47.44
327.027	63.15
327.24	28.33
327.453	-0.34
327.666	75.43
327.879	20.14
328.092	20.14
328.305	24.23
328.518	-4.44
328.731	54.95
328.944	-65.88
329.157	-4.44
329.37	18.09
329.583	-18.77
329.796	22.19
330.009	71.34
330.222	-4.44
330.435	34.47
330.648	-10.58
330.861	-8.53
331.073	30.38
331.286	30.38
331.499	36.52
331.712	52.91
331.925	-6.49
332.138	-55.64
332.35	26.28
332.563	24.23
332.776	26.28
332.989	11.95
333.202	-10.58
333.414	-20.82
333.627	-22.87
333.84	-31.06
334.053	40.62
334.265	16.04
334.478	73.39
334.691	-26.96
334.903	-31.06
335.116	-4.44
335.329	18.09
335.541	-20.82
335.754	-37.2
335.966	-74.07
336.179	11.95
336.392	22.19
336.604	50.86
336.817	16.04
337.029	71.34
337.242	-4.44
337.454	36.52
337.667	42.67
337.88	48.81
338.092	-6.49
338.305	71.34
338.517	22.19
338.729	9.9
338.942	-14.68
339.154	3.75
339.367	34.47
339.579	32.43
339.792	87.72
340.004	38.57
340.217	57
340.429	11.95
340.641	-22.87
340.854	5.8
341.066	28.33
341.278	5.8
341.491	46.76
341.703	61.1
341.915	-43.35
342.128	104.11
342.34	18.09
342.552	18.09
342.764	13.99
342.977	110.25
343.189	91.82
343.401	13.99
343.613	52.91
343.826	52.91
344.038	28.33
344.25	18.09
344.462	20.14
344.674	36.52
344.886	13.99
345.099	-6.49
345.311	57
345.523	-29.01
345.735	46.76
345.947	30.38
346.159	-29.01
346.371	1.71
346.583	-0.34
346.795	59.05
347.007	18.09
347.219	44.71
347.431	-35.16
347.643	63.15
347.855	3.75
348.067	87.72
348.279	-0.34
348.491	52.91
348.703	-8.53
348.915	13.99
349.127	44.71
349.339	59.05
349.551	-6.49
349.763	93.87
349.975	69.29
350.187	54.95
350.399	-0.34
350.61	-26.96
350.822	-57.68
351.034	59.05
351.246	7.85
351.458	44.71
351.669	26.28
351.881	20.14
352.093	3.75
352.305	40.62
352.517	42.67
352.728	75.43
352.94	-12.63
353.152	20.14
353.363	-37.2
353.575	-8.53
353.787	73.39
353.999	44.71
354.21	77.48
354.422	-4.44
354.633	-41.3
354.845	-12.63
355.057	67.24
355.268	59.05
355.48	5.8
355.692	-10.58
355.903	57
356.115	-14.68
356.326	48.81
356.538	30.38
356.749	-55.64
356.961	63.15
357.172	32.43
357.384	-41.3
357.595	16.04
357.807	7.85
358.018	100.01
358.23	20.14
358.441	34.47
358.653	13.99
358.864	1.71
359.075	40.62
359.287	32.43
359.498	57
359.709	57
359.921	46.76
360.132	-35.16
360.344	22.19
360.555	5.8
360.766	83.63
360.977	-6.49
361.189	18.09
361.4	-37.2
361.611	69.29
361.823	-43.35
362.034	11.95
362.245	28.33
362.456	-72.02
362.667	50.86
362.879	30.38
363.09	22.19
363.301	-29.01
363.512	20.14
363.723	20.14
363.935	-53.59
364.146	36.52
364.357	32.43
364.568	-29.01
364.779	63.15
364.99	-26.96
365.201	20.14
365.412	59.05
365.623	-12.63
365.834	13.99
366.045	-22.87
366.256	54.95
366.467	11.95
366.678	44.71
366.889	13.99
367.1	73.39
367.311	-31.06
367.522	-6.49
367.733	38.57
367.944	-20.82
368.155	13.99
368.366	1.71
368.577	32.43
368.788	65.19
368.999	-2.39
369.209	36.52
369.42	32.43
369.631	44.71
369.842	22.19
370.053	1.71
370.264	36.52
370.474	106.15
370.685	-22.87
370.896	79.53
371.107	-20.82
371.317	38.57
371.528	-14.68
371.739	11.95
371.95	52.91
372.16	44.71
372.371	46.76
372.582	52.91
372.792	36.52
373.003	13.99
373.214	-80.21
373.424	59.05
373.635	3.75
373.846	110.25
374.056	18.09
374.267	50.86
374.477	38.57
374.688	26.28
374.898	-10.58
375.109	61.1
375.319	59.05
375.53	52.91
375.74	30.38
375.951	28.33
376.161	-18.77
376.372	83.63
376.582	22.19
376.793	1.71
377.003	22.19
377.214	3.75
377.424	-14.68
377.635	-0.34
377.845	-53.59
378.055	50.86
378.266	87.72
378.476	9.9
378.686	3.75
378.897	-22.87
379.107	-22.87
379.317	-51.54
379.528	24.23
379.738	69.29
379.948	26.28
380.158	61.1
380.369	-10.58
380.579	48.81
380.789	-24.92
380.999	59.05
381.21	85.67
381.42	20.14
381.63	73.39
381.84	106.15
382.05	57
382.261	-20.82
382.471	-2.39
382.681	97.96
382.891	34.47
383.101	83.63
383.311	24.23
383.521	38.57
383.731	13.99
383.941	42.67
384.151	75.43
384.361	73.39
384.571	1.71
384.781	50.86
384.991	59.05
385.201	59.05
385.411	67.24
385.621	40.62
385.831	-10.58
386.041	11.95
386.251	-0.34
386.461	61.1
386.671	-2.39
386.881	77.48
387.091	77.48
387.301	95.91
387.511	-12.63
387.72	28.33
387.93	26.28
388.14	63.15
388.35	26.28
388.56	1.71
388.769	52.91
388.979	9.9
389.189	-14.68
389.399	85.67
389.609	30.38
389.818	28.33
390.028	46.76
390.238	75.43
390.447	-47.44
390.657	-47.44
390.867	83.63
391.076	89.77
391.286	-20.82
391.496	-14.68
391.705	-0.34
391.915	3.75
392.125	-6.49
392.334	-18.77
392.544	69.29
392.753	59.05
392.963	75.43
393.172	57
393.382	7.85
393.591	59.05
393.801	36.52
394.01	67.24
394.22	57
394.429	97.96
394.639	36.52
394.848	-14.68
395.058	44.71
395.267	-45.4
395.477	126.63
395.686	100.01
395.895	124.58
396.105	104.11
396.314	34.47
396.524	16.04
396.733	-41.3
396.942	63.15
397.152	-6.49
397.361	38.57
397.57	24.23
397.78	71.34
397.989	89.77
398.198	63.15
398.407	30.38
398.617	87.72
398.826	36.52
399.035	87.72
399.244	97.96
399.453	132.78
399.663	40.62
399.872	48.81
400.081	65.19
400.29	138.92
400.499	85.67
400.708	-29.01
400.917	44.71
401.127	54.95
401.336	28.33
401.545	114.34
401.754	79.53
401.963	5.8
402.172	16.04
402.381	-20.82
402.59	-8.53
402.799	77.48
403.008	46.76
403.217	79.53
403.426	106.15
403.635	100.01
403.844	77.48
404.053	124.58
404.262	22.19
404.471	79.53
404.68	-12.63
404.888	118.44
405.097	11.95
405.306	77.48
405.515	20.14
405.724	132.78
405.933	30.38
406.142	44.71
406.35	3.75
406.559	71.34
406.768	65.19
406.977	173.74
407.185	89.77
407.394	116.39
407.603	102.06
407.812	104.11
408.02	149.16
408.229	110.25
408.438	130.73
408.646	42.67
408.855	145.06
409.064	102.06
409.272	75.43
409.481	171.69
409.69	116.39
409.898	126.63
410.107	136.87
410.315	138.92
410.524	130.73
410.733	263.85
410.941	198.31
411.15	192.17
411.358	140.97
411.567	255.65
411.775	132.78
411.984	210.6
412.192	208.55
412.401	259.75
412.609	235.18
412.818	241.32
413.026	245.41
413.234	341.67
413.443	165.54
413.651	280.23
413.86	313
414.068	327.33
414.276	288.42
414.485	220.84
414.693	349.86
414.901	382.63
415.11	403.11
415.318	315.05
415.526	439.97
415.734	407.2
415.943	382.63
416.151	386.72
416.359	462.5
416.567	358.05
416.776	485.03
416.984	478.88
417.192	517.79
417.4	538.27
417.608	425.64
417.817	517.79
418.025	493.22
418.233	665.25
418.441	515.75
418.649	620.19
418.857	675.49
419.065	599.71
419.273	679.58
419.481	716.45
419.689	695.97
419.897	812.7
420.105	790.17
420.313	781.98
420.521	818.85
420.729	800.41
420.937	814.75
421.145	892.57
421.353	849.57
421.561	974.49
421.769	1085.08
421.977	1017.5
422.185	1033.88
422.393	1044.12
422.601	1179.29
422.809	1128.09
423.017	1181.34
423.224	1267.35
423.432	1105.56
423.64	1230.49
423.848	1420.95
424.056	1339.03
424.263	1506.96
424.471	1463.96
424.679	1445.52
424.887	1580.69
425.094	1580.69
425.302	1601.17
425.51	1664.66
425.718	1740.43
425.925	1707.66
426.133	1803.92
426.341	1855.12
426.548	1951.37
426.756	1928.85
426.964	2000.52
427.171	1957.52
427.379	2117.26
427.586	2154.12
427.794	2363.01
428.001	2369.16
428.209	2440.84
428.417	2432.65
428.624	2651.78
428.832	2586.24
429.039	2543.24
429.247	2557.57
429.454	2803.33
429.662	3049.08
429.869	2870.91
430.076	3059.32
430.284	2928.25
430.491	3112.57
430.699	3210.87
430.906	3208.83
431.114	3356.28
431.321	3606.13
431.528	3532.4
431.736	3778.16
431.943	3876.46
432.15	3542.64
432.358	3821.17
432.565	4073.07
432.772	4052.59
432.979	4261.48
433.187	4318.82
433.394	4329.06
433.601	4646.5
433.808	4746.85
434.016	4689.51
434.223	4752.99
434.43	5107.29
434.637	5121.63
434.844	5443.16
435.052	5484.12
435.259	5310.04
435.466	5324.38
435.673	5389.91
435.88	5461.59
436.087	6026.83
436.294	5895.76
436.501	5811.79
436.708	6164.04
436.915	6313.55
437.122	6551.11
437.329	6436.42
437.537	6686.28
437.743	6911.55
437.95	6745.67
438.157	6962.75
438.364	7204.41
438.571	7343.67
438.778	7245.37
438.985	7947.83
439.192	7644.73
439.399	7894.58
439.606	7874.1
439.813	8277.55
440.02	8625.7
440.227	8533.54
440.433	8435.24
440.64	8711.72
440.847	8812.07
441.054	8734.25
441.261	9629.21
441.467	9289.24
441.674	9756.18
441.881	9989.65
442.088	10026.51
442.294	9987.6
442.501	10149.39
442.708	10401.29
442.914	10874.37
443.121	11451.9
443.328	10743.3
443.534	11740.66
443.741	11384.32
443.948	11468.28
444.154	12084.72
444.361	12054
444.568	11906.55
444.774	12043.76
444.981	12406.25
445.187	12606.95
445.394	13043.17
445.6	12916.2
445.807	14206.42
446.013	13731.29
446.22	13880.79
446.426	14427.6
446.633	14669.26
446.839	15123.91
447.046	14648.78
447.252	15439.3
447.459	15310.27
447.665	15199.68
447.871	16016.82
448.078	16637.36
448.284	15930.81
448.491	16188.85
448.697	17073.57
448.903	17311.14
449.11	17124.77
449.316	17065.38
449.522	17325.47
449.728	17618.33
449.935	17831.32
450.141	17935.77
450.347	18863.5
450.553	18087.32
450.76	18058.65
450.966	18894.22
451.172	18636.17
451.378	18961.8
451.584	18738.57
451.791	19205.51
451.997	19162.5
452.203	19379.59
452.409	19295.62
452.615	19152.26
452.821	18867.59
453.027	18349.46
453.233	19172.74
453.44	18900.36
453.646	19094.92
453.852	19099.02
454.058	19172.74
454.264	18816.4
454.47	19289.48
454.676	18640.27
454.882	19496.32
455.088	17636.77
455.294	17941.91
455.5	18101.65
455.705	18468.24
455.911	17683.87
456.117	17130.92
456.323	16913.83
456.529	16379.31
456.735	16985.51
456.941	16539.05
457.147	16297.39
457.352	15848.89
457.558	15463.87
457.764	15625.66
457.97	15406.53
458.176	14994.89
458.381	15183.3
458.587	14144.98
458.793	14298.58
458.999	13579.74
459.204	14642.64
459.41	14038.48
459.616	12967.4
459.821	13100.51
460.027	13100.51
460.233	12785.13
460.438	12271.09
460.644	12191.22
460.85	11861.49
461.055	11552.25
461.261	11576.83
461.466	10929.67
461.672	10434.06
461.878	11005.44
462.083	10432.01
462.289	10124.82
462.494	10003.99
462.7	9709.08
462.905	9143.84
463.111	9717.27
463.316	9852.44
463.522	9455.13
463.727	9621.02
463.932	9494.04
464.138	9319.96
464.343	9457.18
464.549	9102.88
464.754	9664.02
464.959	9491.99
465.165	9332.25
465.37	9088.54
465.575	8887.84
465.781	9127.46
465.986	9213.47
466.191	8801.83
466.397	8621.61
466.602	8261.16
466.807	8660.52
467.012	8633.89
467.218	8621.61
467.423	8445.48
467.628	8564.26
467.833	8812.07
468.038	8609.32
468.244	8275.5
468.449	8572.46
468.654	8113.71
468.859	8091.18
469.064	8183.34
469.269	7751.22
469.474	7976.5
469.679	7882.29
469.885	7839.28
470.09	7976.5
470.295	8093.23
470.5	7614.01
470.705	7857.71
470.91	7755.32
471.115	7605.81
471.32	7638.58
471.525	7583.29
471.73	7474.74
471.935	7226.94
472.139	7190.08
472.344	7126.59
472.549	7247.42
472.754	7046.72
472.959	6981.18
473.164	6852.16
473.369	6794.82
473.574	6911.55
473.778	6932.03
473.983	6868.55
474.188	6688.32
474.393	6583.88
474.598	6667.84
474.802	6456.9
475.007	6469.19
475.212	6600.26
475.417	6225.48
475.621	6364.75
475.826	6262.35
476.031	6086.22
476.235	6053.45
476.44	6030.93
476.645	5891.66
476.849	6024.78
477.054	6016.59
477.259	5830.23
477.463	5787.22
477.668	5580.37
477.872	5629.52
478.077	5719.64
478.282	5592.66
478.486	5572.18
478.691	5518.93
478.895	5396.06
479.1	5473.88
479.304	5445.21
479.509	5373.53
479.713	5424.73
479.918	5377.62
480.122	5045.85
480.326	5338.71
480.531	5283.42
480.735	5221.98
480.94	5107.29
481.144	5369.43
481.348	5029.47
481.553	5156.44
481.757	5123.68
481.961	4937.31
482.166	5267.03
482.37	5213.79
482.574	5070.43
482.778	4865.63
482.983	5123.68
483.187	5140.06
483.391	5111.39
483.595	4886.11
483.8	5056.09
484.004	5109.34
484.208	5074.53
484.412	4992.61
484.616	5131.87
484.821	5074.53
485.025	4943.46
485.229	5035.61
485.433	5125.72
485.637	4970.08
485.841	5039.71
486.045	4990.56
486.249	5088.86
486.453	5008.99
486.657	5113.44
486.861	5142.11
487.065	5058.14
487.269	5119.58
487.473	5029.47
487.677	5264.99
487.881	5189.21
488.085	5049.95
488.289	5070.43
488.493	4943.46
488.697	5234.27
488.901	5111.39
489.105	5062.24
489.309	5035.61
489.512	5183.07
489.716	5158.49
489.92	5400.15
490.124	5113.44
490.328	5138.01
490.531	5047.9
490.735	5314.14
490.939	5205.6
491.143	5281.37
491.346	5213.79
491.55	5248.6
491.754	5338.71
491.958	5394.01
492.161	5332.57
492.365	5377.62
492.569	5451.35
492.772	5359.19
492.976	5490.26
493.18	5635.67
493.383	5465.69
493.587	5529.17
493.79	5664.34
493.994	5445.21
494.197	5529.17
494.401	5647.96
494.605	5707.35
494.808	5887.57
495.012	5867.09
495.215	5797.46
495.419	5879.38
495.622	5912.14
495.825	6073.93
496.029	5938.77
496.232	6233.68
496.436	6131.28
496.639	6202.96
496.843	6073.93
497.046	6329.93
497.249	6434.38
497.453	6461
497.656	6438.47
497.859	6329.93
498.063	6708.8
498.266	6655.56
498.469	6692.42
498.673	6780.48
498.876	6919.75
499.079	6972.99
499.282	7108.16
499.485	7112.25
499.689	7261.76
499.892	7358.01
500.095	7378.49
500.298	7626.29
500.501	7288.38
500.705	7603.77
500.908	7708.21
501.111	8021.55
501.314	7919.15
501.517	7829.04
501.72	8117.81
501.923	8212.01
502.126	8472.11
502.329	8398.38
502.532	8574.5
502.735	8515.11
502.938	8615.46
503.141	8891.94
503.344	8971.81
503.547	8973.86
503.75	9037.34
503.953	9104.93
504.156	9274.91
504.359	9262.62
504.562	9692.69
504.765	9575.96
504.968	9670.17
505.17	9774.61
505.373	10024.47
505.576	10210.83
505.779	10276.37
505.982	10362.38
506.185	10595.85
506.387	10448.4
506.59	10577.42
506.793	10984.96
506.996	10909.19
507.198	11257.34
507.401	11240.96
507.604	11314.69
507.807	11478.52
508.009	11613.69
508.212	11519.48
508.415	11810.29
508.617	11994.61
508.82	12066.29
509.022	12027.38
509.225	12469.74
509.428	12525.04
509.63	12565.99
509.833	12647.91
510.035	12873.19
510.238	13120.99
510.44	13303.26
510.643	13268.45
510.845	13606.36
511.048	13555.16
511.25	13956.57
511.453	14054.87
511.655	14165.46
511.858	14321.1
512.06	14317.01
512.262	14579.15
512.465	14699.98
512.667	14710.22
512.87	15056.32
513.072	15003.08
513.274	15283.65
513.477	15523.26
513.679	15607.23
513.881	15947.19
514.084	16336.31
514.286	15961.53
514.488	16281.01
514.69	16811.43
514.893	16569.77
515.095	16752.04
515.297	17132.97
515.499	17163.68
515.701	17356.19
515.904	17657.25
516.106	17526.18
516.308	18013.59
516.51	17814.94
516.712	18148.76
516.914	18566.54
517.116	18748.81
517.318	18648.46
517.52	18849.16
517.722	18898.31
517.925	19269
518.127	19629.44
518.329	19715.45
518.531	19733.89
518.733	19842.43
518.935	19903.87
519.136	20559.22
519.338	20634.99
519.54	20522.35
519.742	20831.6
519.944	20981.1
520.146	21370.21
520.348	21312.87
520.55	21570.91
520.752	21599.59
520.954	22271.32
521.155	21871.96
521.357	22205.78
521.559	22474.07
521.761	22904.14
521.963	22832.46
522.164	22963.53
522.366	23104.84
522.568	23190.86
522.77	23668.03
522.971	23545.16
523.173	23690.56
523.375	23856.45
523.576	23833.92
523.778	24218.94
523.98	24415.54
524.181	24421.69
524.383	24646.96
524.584	24892.72
524.786	24806.7
524.988	24495.41
525.189	25122.09
525.391	25386.28
525.592	25322.79
525.794	25584.93
525.995	25513.25
526.197	25470.25
526.398	25945.37
526.6	25920.8
526.801	26236.19
527.003	26262.81
527.204	26156.32
527.406	26305.82
527.607	26430.74
527.808	26338.58
528.01	26586.39
528.211	26461.46
528.412	26836.24
528.614	26787.09
528.815	26985.74
529.016	26871.06
529.218	26701.08
529.419	27141.39
529.62	27325.71
529.822	27045.13
530.023	27192.59
530.224	27415.82
530.425	27591.94
530.626	27309.32
530.828	27145.48
531.029	27927.81
531.23	27405.58
531.431	27520.26
531.632	27757.83
531.833	27798.79
532.035	27479.3
532.236	27847.94
532.437	27792.64
532.638	27745.54
532.839	27794.69
533.04	27919.62
533.241	27723.01
533.442	28304.63
533.643	28058.88
533.844	27790.59
534.045	28077.31
534.246	27991.3
534.447	28208.38
534.648	28040.45
534.849	27749.64
535.05	27811.07
535.251	28153.09
535.451	28126.46
535.652	28153.09
535.853	27960.58
536.054	27927.81
536.255	28411.13
536.456	28077.31
536.657	28587.25
536.857	28327.16
537.058	28044.54
537.259	28300.54
537.46	28454.14
537.66	28099.84
537.861	28310.78
538.062	28325.11
538.263	28507.38
538.463	27938.05
538.664	28146.94
538.865	28144.89
539.065	28484.86
539.266	27989.25
539.466	28353.79
539.667	27985.15
539.868	28386.55
540.068	28046.59
540.269	28151.04
540.469	28445.94
540.67	28022.02
540.87	28425.46
541.071	28013.82
541.271	28005.63
541.472	28278.01
541.672	28026.11
541.873	28267.77
542.073	27512.07
542.274	28187.9
542.474	28124.41
542.675	28026.11
542.875	28265.72
543.075	28116.22
543.276	28040.45
543.476	28300.54
543.676	27761.92
543.877	27927.81
544.077	28241.15
544.277	27792.64
544.478	28224.76
544.678	28237.05
544.878	28280.06
545.078	27815.17
545.279	27782.4
545.479	28169.47
545.679	28337.4
545.879	28243.2
546.079	27929.86
546.28	27907.33
546.48	27880.71
546.68	27931.9
546.88	28183.8
547.08	27749.64
547.28	27907.33
547.48	27655.43
547.68	27864.32
547.88	27841.79
548.081	28200.19
548.281	27798.79
548.481	27632.9
548.681	27938.05
548.881	27847.94
549.081	27862.27
549.28	28120.32
549.48	28001.54
549.68	27520.26
549.88	28370.17
550.08	27878.66
550.28	27757.83
550.48	27745.54
550.68	28187.9
550.88	27704.58
551.08	27768.07
551.279	27847.94
551.479	27559.17
551.679	27852.03
551.879	27987.2
552.079	27800.83
552.278	27751.68
552.478	27903.23
552.678	27530.5
552.878	27854.08
553.077	27884.8
553.277	27647.24
553.477	28105.98
553.676	27641.09
553.876	27811.07
554.076	27593.99
554.275	27591.94
554.475	27524.36
554.674	27628.81
554.874	27553.03
555.074	27522.31
555.273	27333.9
555.473	27653.38
555.672	27391.24
555.872	27481.35
556.071	27260.17
556.271	27784.45
556.47	27544.84
556.67	27219.21
556.869	27434.25
557.068	27260.17
557.268	26895.63
557.467	27395.34
557.667	27075.85
557.866	27243.79
558.065	27163.92
558.265	27266.31
558.464	27174.16
558.663	27307.27
558.863	26936.59
559.062	27370.76
559.261	26684.69
559.461	27479.3
559.66	26858.77
559.859	26971.41
560.058	26619.16
560.258	26787.09
560.457	26422.55
560.656	26916.11
560.855	26676.5
561.054	26793.23
561.253	26787.09
561.453	26570.01
561.652	26709.27
561.851	26768.66
562.05	26527
562.249	26393.88
562.448	26799.38
562.647	26527
562.846	26422.55
563.045	26610.96
563.244	26092.83
563.443	26527
563.642	25941.28
563.841	26021.15
564.04	26131.74
564.239	26457.37
564.438	26121.5
564.637	26049.82
564.836	26316.06
565.035	25853.22
565.234	25996.57
565.432	25664.8
565.631	25687.33
565.83	25707.81
566.029	25535.78
566.228	25341.22
566.427	25716
566.625	25349.42
566.824	25322.79
567.023	25388.33
567.222	25161
567.42	25507.11
567.619	25218.35
567.818	25316.65
568.016	25083.18
568.215	25230.63
568.414	25105.71
568.612	25187.63
568.811	24821.04
569.01	24593.72
569.208	24487.22
569.407	24972.59
569.605	24501.56
569.804	24954.16
570.002	24288.57
570.201	24571.19
570.4	24335.67
570.598	24624.43
570.797	24407.35
570.995	24304.95
571.193	24134.97
571.392	24481.08
571.59	23954.75
571.789	24229.18
571.987	23897.41
572.186	23641.41
572.384	23829.82
572.582	24048.96
572.781	23954.75
572.979	23364.93
573.177	23866.69
573.376	23729.47
573.574	23311.69
573.772	23629.12
573.971	23567.68
574.169	23387.46
574.367	22959.44
574.565	23424.33
574.763	23358.79
574.962	23160.14
575.16	22752.59
575.358	23137.61
575.556	22709.58
575.754	22959.44
575.952	22617.43
576.151	22721.87
576.349	22560.08
576.547	22783.31
576.745	22783.31
576.943	22377.81
577.141	22463.83
577.339	22377.81
577.537	22082.91
577.735	22351.19
577.933	21966.17
578.131	22334.81
578.329	21863.77
578.527	21927.26
578.725	22130.01
578.923	22314.33
579.121	21790.05
579.319	21648.74
579.516	21738.85
579.714	22070.62
579.912	21519.71
580.11	21546.34
580.308	21630.3
580.506	21327.21
580.704	21173.61
580.901	21491.04
581.099	21312.87
581.297	21136.74
581.495	20974.95
581.692	20979.05
581.89	20985.19
582.088	21282.15
582.285	20917.61
582.483	21153.13
582.681	21189.99
582.878	20782.45
583.076	20815.21
583.274	20518.26
583.471	20395.38
583.669	20671.86
583.866	20528.5
584.064	20757.87
584.262	20366.71
584.459	20358.52
584.657	19946.87
584.854	20299.12
585.052	20333.94
585.249	20333.94
585.447	20141.43
585.644	19957.11
585.841	20223.35
586.039	19768.7
586.236	19631.49
586.434	19666.3
586.631	19768.7
586.828	19844.48
587.026	19598.72
587.223	19639.68
587.42	19475.84
587.618	19793.28
587.815	19377.54
588.012	19248.52
588.21	19426.69
588.407	19537.28
588.604	19322.24
588.801	19205.51
588.999	19217.8
589.196	18908.55
589.393	19123.59
589.59	18972.04
589.787	18701.71
589.984	18677.13
590.182	18587.02
590.379	18662.8
590.576	18652.56
590.773	18748.81
590.97	18650.51
591.167	18496.91
591.364	18345.36
591.561	18255.25
591.758	18281.88
591.955	18124.18
592.152	18423.19
592.349	18195.86
592.546	18167.19
592.743	18337.17
592.94	17941.91
593.137	18019.74
593.334	18013.59
593.531	17773.98
593.727	17976.73
593.924	17943.96
594.121	17495.46
594.318	17718.68
594.515	17294.75
594.712	17733.02
594.908	17423.78
595.105	17694.11
595.302	17667.49
595.499	17450.4
595.696	17298.85
595.892	17192.36
596.089	17145.25
596.286	17341.86
596.482	17132.97
596.679	17145.25
596.876	17122.73
597.072	17044.9
597.269	17114.53
597.466	16846.25
597.662	16721.32
597.859	16905.64
598.055	16846.25
598.252	16702.89
598.448	16725.42
598.645	16557.49
598.841	16565.68
599.038	16350.64
599.234	16567.73
599.431	16242.1
599.627	16395.7
599.824	16422.32
600.02	16336.31
600.217	16428.46
600.413	16332.21
600.609	16133.56
600.806	15916.47
601.002	16008.63
601.198	16039.35
601.395	15762.87
601.591	15730.11
601.787	15801.79
601.984	15840.7
602.18	15680.96
602.376	15547.84
602.572	15633.85
602.769	15539.65
602.965	15443.39
603.161	15549.89
603.357	15504.83
603.553	15490.49
603.75	15420.86
603.946	15121.86
604.142	15429.06
604.338	15134.15
604.534	15191.49
604.73	14998.98
604.926	14736.84
605.122	15021.51
605.318	14925.25
605.514	14839.24
605.71	15035.85
605.906	14845.38
606.102	14683.59
606.298	14800.33
606.494	14620.11
606.69	14761.42
606.886	14710.22
607.082	14468.56
607.278	14509.52
607.474	14132.69
607.67	14337.49
607.866	14294.48
608.062	14618.06
608.257	14194.13
608.453	14585.29
608.649	14323.15
608.845	14355.92
609.041	14417.36
609.236	14329.3
609.432	14300.62
609.628	14280.14
609.824	14015.96
610.019	13788.63
610.215	14104.02
610.411	13884.89
610.606	13901.27
610.802	13983.19
610.998	13858.26
611.193	13772.25
611.389	13829.59
611.584	13645.27
611.78	13772.25
611.976	13759.96
612.171	13657.56
612.367	13708.76
612.562	13528.54
612.758	13544.92
612.953	13444.57
613.149	13561.31
613.344	13542.88
613.539	13811.16
613.735	13313.5
613.93	13395.42
614.126	13325.79
614.321	13409.76
614.517	13381.09
614.712	13118.95
614.907	13417.95
615.103	13354.46
615.298	13284.83
615.493	13393.37
615.688	13155.81
615.884	13223.39
616.079	13045.22
616.274	13297.12
616.47	13260.26
616.665	13041.12
616.86	12871.14
617.055	13041.12
617.25	13071.84
617.445	13139.43
617.641	12678.63
617.836	12975.59
618.031	12654.06
618.226	13022.69
618.421	12522.99
618.616	12674.54
618.811	12580.33
619.006	12705.26
619.201	12475.88
619.396	12441.07
619.591	12262.9
619.786	12482.03
619.981	12176.88
620.176	12271.09
620.371	12420.59
620.566	12174.83
620.761	12334.57
620.956	12361.2
621.151	11916.79
621.346	12037.62
621.541	11787.77
621.735	11896.31
621.93	11814.39
622.125	11834.87
622.32	11472.38
622.515	11736.57
622.709	11525.63
622.904	11476.48
623.099	11355.65
623.294	11437.56
623.488	11238.91
623.683	11206.14
623.878	10960.39
624.072	11372.03
624.267	11185.66
624.462	11003.39
624.656	10919.43
624.851	10835.46
625.046	10595.85
625.24	10817.03
625.435	10757.64
625.629	10771.97
625.824	10659.34
626.018	10604.04
626.213	10503.69
626.407	10532.36
626.602	10374.67
626.796	10542.6
626.991	10151.44
627.185	10219.02
627.38	10180.11
627.574	10188.3
627.768	9907.73
627.963	10065.43
628.157	9864.72
628.352	10008.08
628.546	9739.8
628.74	9917.97
628.935	9713.17
629.129	9791
629.323	9598.49
629.517	9690.65
629.712	9377.31
629.906	9430.55
630.1	9358.88
630.294	9518.62
630.489	9580.06
630.683	9354.78
630.877	9268.77
631.071	9170.46
631.265	9119.26
631.459	8957.47
631.653	9137.7
631.848	9012.77
632.042	8941.09
632.236	9104.93
632.43	8775.2
632.624	8881.7
632.818	8758.82
633.012	8740.39
633.206	8767.01
633.4	8797.73
633.594	8554.02
633.788	8504.87
633.982	8537.64
634.176	8572.46
634.369	8531.5
634.563	8422.95
634.757	8375.85
634.951	8289.84
635.145	8271.4
635.339	8357.42
635.533	8001.07
635.726	8152.62
635.92	7984.69
636.114	8107.57
636.308	7888.43
636.501	7999.02
636.695	7949.87
636.889	7671.35
637.083	7775.8
637.276	7716.4
637.47	7654.97
637.664	7665.21
637.857	7634.49
638.051	7474.74
638.244	7478.84
638.438	7591.48
638.632	7413.31
638.825	7388.73
639.019	7370.3
639.212	7298.62
639.406	7267.9
639.599	7370.3
639.793	7351.87
639.986	7138.88
640.18	7251.52
640.373	7153.21
640.567	7001.66
640.76	7099.97
640.954	6989.38
641.147	6972.99
641.34	6942.27
641.534	6778.44
641.727	7005.76
641.92	6737.48
642.114	6776.39
642.307	6747.72
642.5	6518.34
642.694	6542.92
642.887	6653.51
643.08	6635.08
643.273	6530.63
643.467	6522.44
643.66	6563.4
643.853	6506.06
644.046	6301.26
644.239	6176.33
644.432	6272.59
644.626	6315.59
644.819	6209.1
645.012	6338.12
645.205	6284.87
645.398	6084.17
645.591	5918.29
645.784	6125.13
645.977	6053.45
646.17	5992.02
646.363	5926.48
646.556	5932.62
646.749	5891.66
646.942	5840.47
647.135	5676.63
647.328	5707.35
647.521	5813.84
647.714	5699.16
647.907	5766.74
648.099	5676.63
648.292	5629.52
648.485	5690.96
648.678	5508.69
648.871	5619.28
649.064	5432.92
649.256	5559.89
649.449	5383.77
649.642	5279.32
649.835	5328.47
650.027	5353.05
650.22	5322.33
650.413	5320.28
650.605	5295.71
650.798	5236.31
650.991	5228.12
651.183	5260.89
651.376	5000.8
651.568	5092.96
651.761	5004.89
651.954	5158.49
652.146	5017.18
652.339	4892.26
652.531	4941.41
652.724	4857.44
652.916	4865.63
653.109	4888.16
653.301	4826.72
653.494	4853.34
653.686	4785.76
653.879	4976.22
654.071	4879.97
654.263	4773.47
654.456	4820.58
654.648	4785.76
654.84	4531.81
655.033	4607.59
655.225	4562.53
655.417	4429.42
655.61	4640.36
655.802	4607.59
655.994	4449.89
656.186	4480.61
656.379	4513.38
656.571	4464.23
656.763	4400.74
656.955	4310.63
657.148	4427.37
657.34	4173.42
657.532	4464.23
657.724	4281.96
657.916	4261.48
658.108	4214.38
658.3	4122.22
658.492	4163.18
658.684	4173.42
658.876	4116.08
659.068	4204.14
659.26	4107.88
659.452	4040.3
659.644	4116.08
659.836	4107.88
660.028	3993.2
660.22	3942
660.412	3892.85
660.604	3757.68
660.796	3923.57
660.988	3974.77
661.18	3878.51
661.372	3884.66
661.563	3827.31
661.755	3774.07
661.947	3769.97
662.139	3759.73
662.331	3780.21
662.522	3624.56
662.714	3630.71
662.906	3620.47
663.097	3702.39
663.289	3509.88
663.481	3573.36
663.673	3573.36
663.864	3567.22
664.056	3516.02
664.247	3524.21
664.439	3466.87
664.631	3622.52
664.822	3503.73
665.014	3487.35
665.205	3544.69
665.397	3356.28
665.588	3278.46
665.78	3278.46
665.971	3219.07
666.163	3360.38
666.354	3407.48
666.546	3395.19
666.737	3331.7
666.929	3196.54
667.12	3176.06
667.311	3196.54
667.503	3151.48
667.694	3073.66
667.885	3190.39
668.077	3149.43
668.268	3223.16
668.459	3073.66
668.651	3225.21
668.842	3053.18
669.033	3212.92
669.224	3085.95
669.416	3131
669.607	3126.91
669.798	2864.77
669.989	2934.4
670.18	3014.27
670.371	3124.86
670.563	2981.5
670.754	2926.21
670.945	2987.65
671.136	3014.27
671.327	3026.56
671.518	2893.44
671.709	2928.25
671.9	2932.35
672.091	2891.39
672.282	2868.86
672.473	2909.82
672.664	2924.16
672.855	2805.38
673.046	2971.26
673.237	2850.43
673.428	2856.58
673.619	2836.1
673.809	2768.51
674	2864.77
674.191	2741.89
674.382	2801.28
674.573	2848.38
674.764	2768.51
674.954	2719.36
675.145	2754.18
675.336	2731.65
675.527	2719.36
675.717	2647.68
675.908	2655.87
676.099	2674.31
676.289	2580.1
676.48	2602.63
676.671	2606.72
676.861	2678.4
677.052	2631.3
677.243	2508.42
677.433	2590.34
677.624	2653.83
677.814	2518.66
678.005	2504.32
678.195	2580.1
678.386	2403.97
678.576	2604.67
678.767	2463.37
678.957	2492.04
679.148	2436.74
679.338	2541.19
679.529	2508.42
679.719	2428.55
679.909	2553.48
680.1	2516.61
680.29	2459.27
680.481	2508.42
680.671	2563.72
680.861	2594.44
681.052	2539.14
681.242	2520.71
681.432	2514.56
681.622	2403.97
681.813	2489.99
682.003	2477.7
682.193	2514.56
682.383	2469.51
682.573	2541.19
682.764	2389.64
682.954	2420.36
683.144	2477.7
683.334	2446.98
683.524	2420.36
683.714	2406.02
683.904	2371.21
684.094	2428.55
684.284	2541.19
684.474	2367.11
684.664	2371.21
684.854	2535.04
685.044	2399.88
685.234	2342.53
685.424	2510.47
685.614	2494.08
685.804	2350.73
685.994	2270.86
686.184	2352.77
686.374	2393.73
686.564	2393.73
686.753	2336.39
686.943	2348.68
687.133	2270.86
687.323	2246.28
687.513	2246.28
687.702	2373.25
687.892	2387.59
688.082	2320.01
688.272	2289.29
688.461	2403.97
688.651	2365.06
688.841	2344.58
689.03	2283.14
689.22	2246.28
689.41	2283.14
689.599	2203.27
689.789	2211.46
689.979	2289.29
690.168	2313.86
690.358	2266.76
690.547	2209.42
690.737	2299.53
690.926	2299.53
691.116	2244.23
691.305	2272.9
691.495	2244.23
691.684	2166.41
691.874	2152.07
692.063	2092.68
692.252	2215.56
692.442	2219.66
692.631	2098.83
692.82	2299.53
693.01	2147.98
693.199	2229.9
693.388	2119.31
693.578	2211.46
693.767	2221.7
693.956	2074.25
694.146	2231.94
694.335	2074.25
694.524	2053.77
694.713	2123.4
694.902	2010.76
695.092	2219.66
695.281	2098.83
695.47	2160.27
695.659	2113.16
695.848	2135.69
696.037	2147.98
696.226	2061.96
696.415	2139.79
696.604	2064.01
696.793	2137.74
696.982	2147.98
697.171	2123.4
697.36	2088.59
697.549	1961.61
697.738	2086.54
697.927	2029.2
698.116	2072.2
698.305	2049.68
698.494	2125.45
698.683	2002.57
698.872	2008.72
699.061	2016.91
699.25	2090.63
699.438	1978
699.627	2070.16
699.816	2000.52
700.005	2055.82
700.193	2031.24
700.382	2000.52
700.571	1971.85
700.76	2004.62
700.948	1988.24
701.137	1957.52
701.326	1975.95
701.514	1945.23
701.703	1998.48
701.892	2037.39
702.08	2035.34
702.269	2047.63
702.457	1951.37
702.646	1795.73
702.834	1926.8
703.023	1951.37
703.212	1920.65
703.4	1941.13
703.589	1928.85
703.777	1914.51
703.965	1930.89
704.154	1959.56
704.342	1838.73
704.531	1912.46
704.719	1955.47
704.907	1984.14
705.096	1900.17
705.284	1926.8
705.472	1904.27
705.661	1863.31
705.849	1887.89
706.037	1992.33
706.226	1861.26
706.414	1875.6
706.602	1920.65
706.79	1881.74
706.979	1734.29
707.167	1726.1
707.355	1785.49
707.543	1775.25
707.731	1814.16
707.919	1820.3
708.107	1826.45
708.296	1820.3
708.484	1781.39
708.672	1779.34
708.86	1767.06
709.048	1959.56
709.236	1738.38
709.424	1746.58
709.612	1805.97
709.8	1783.44
709.988	1898.13
710.176	1857.17
710.364	1803.92
710.551	1738.38
710.739	1803.92
710.927	1832.59
711.115	1740.43
711.303	1777.3
711.491	1726.1
711.679	1738.38
711.866	1756.82
712.054	1662.61
712.242	1762.96
712.43	1805.97
712.617	1822.35
712.805	1672.85
712.993	1740.43
713.181	1674.9
713.368	1715.86
713.556	1767.06
713.744	1625.75
713.931	1744.53
714.119	1670.8
714.306	1754.77
714.494	1580.69
714.682	1676.95
714.869	1660.56
715.057	1717.9
715.244	1705.62
715.432	1529.49
715.619	1595.03
715.807	1666.71
715.994	1607.31
716.182	1617.55
716.369	1664.66
716.556	1650.32
716.744	1627.79
716.931	1617.55
717.119	1590.93
717.306	1570.45
717.493	1588.88
717.681	1605.27
717.868	1574.55
718.055	1580.69
718.242	1517.2
718.43	1590.93
718.617	1658.51
718.804	1560.21
718.991	1623.7
719.179	1509.01
719.366	1574.55
719.553	1486.48
719.74	1521.3
719.927	1547.92
720.114	1633.94
720.301	1500.82
720.488	1584.79
720.676	1607.31
720.863	1601.17
721.05	1461.91
721.237	1545.88
721.424	1525.4
721.611	1566.35
721.798	1496.72
721.985	1404.57
722.172	1572.5
722.358	1537.68
722.545	1572.5
722.732	1496.72
722.919	1513.11
723.106	1525.4
723.293	1439.38
723.48	1394.33
723.667	1584.79
723.853	1431.19
724.04	1416.85
724.227	1410.71
724.414	1533.59
724.6	1382.04
724.787	1470.1
724.974	1418.9
725.161	1564.31
725.347	1455.76
725.534	1517.2
725.72	1525.4
725.907	1496.72
726.094	1457.81
726.28	1484.44
726.467	1566.35
726.653	1453.72
726.84	1361.56
727.027	1439.38
727.213	1345.17
727.4	1459.86
727.586	1500.82
727.773	1371.8
727.959	1423
728.145	1418.9
728.332	1412.76
728.518	1330.84
728.705	1353.37
728.891	1423
729.077	1437.33
729.264	1365.65
729.45	1502.87
729.636	1384.09
729.823	1316.5
730.009	1511.06
730.195	1314.45
730.382	1359.51
730.568	1433.24
730.754	1328.79
730.94	1459.86
731.126	1316.5
731.313	1382.04
731.499	1339.03
731.685	1355.41
731.871	1394.33
732.057	1384.09
732.243	1361.56
732.429	1386.13
732.615	1445.52
732.801	1418.9
732.987	1386.13
733.173	1328.79
733.359	1406.61
733.545	1437.33
733.731	1377.94
733.917	1408.66
734.103	1318.55
734.289	1367.7
734.475	1246.87
734.661	1339.03
734.847	1390.23
735.033	1273.5
735.219	1357.46
735.404	1322.65
735.59	1289.88
735.776	1265.3
735.962	1308.31
736.148	1375.89
736.333	1330.84
736.519	1232.54
736.705	1242.78
736.89	1298.07
737.076	1334.93
737.262	1261.21
737.447	1410.71
737.633	1334.93
737.819	1234.58
738.004	1267.35
738.19	1230.49
738.375	1277.59
738.561	1293.97
738.747	1353.37
738.932	1185.43
739.118	1255.06
739.303	1273.5
739.489	1328.79
739.674	1263.26
739.859	1271.45
740.045	1220.25
740.23	1277.59
740.416	1285.78
740.601	1267.35
740.786	1240.73
740.972	1222.3
741.157	1275.54
741.342	1177.24
741.528	1212.06
741.713	1167
741.898	1238.68
742.084	1107.61
742.269	1167
742.454	1226.39
742.639	1214.1
742.824	1205.91
743.01	1115.8
743.195	1291.93
743.38	1158.81
743.565	1201.82
743.75	1185.43
743.935	1169.05
744.12	1191.58
744.305	1173.14
744.49	1205.91
744.675	1136.28
744.86	1142.43
745.045	1109.66
745.23	1136.28
745.415	1074.84
745.6	1128.09
745.785	1066.65
745.97	1136.28
746.155	1115.8
746.34	1171.1
746.525	1083.03
746.71	1113.75
746.895	1062.55
747.079	1050.27
747.264	1115.8
747.449	1066.65
747.634	1056.41
747.819	1085.08
748.003	1003.16
748.188	1001.12
748.373	1025.69
748.557	972.44
748.742	1050.27
748.927	954.01
749.111	1044.12
749.296	964.25
749.481	1066.65
749.665	976.54
749.85	978.59
750.034	931.48
750.219	994.97
750.404	927.39
750.588	876.19
750.773	874.14
750.957	898.72
751.141	935.58
751.326	962.2
751.51	978.59
751.695	874.14
751.879	878.24
752.064	913.05
752.248	935.58
752.432	984.73
752.617	827.04
752.801	911
752.985	908.96
753.17	1001.12
753.354	853.66
753.538	851.61
753.722	804.51
753.907	755.36
754.091	853.66
754.275	820.89
754.459	870.05
754.643	835.23
754.828	810.65
755.012	814.75
755.196	824.99
755.38	796.32
755.564	804.51
755.748	765.6
755.932	777.89
756.116	827.04
756.3	757.41
756.484	800.41
756.668	747.17
756.852	747.17
757.036	751.26
757.22	763.55
757.404	724.64
757.588	784.03
757.772	794.27
757.956	722.59
758.14	796.32
758.323	722.59
758.507	730.78
758.691	757.41
758.875	630.43
759.059	714.4
759.242	788.13
759.426	706.21
759.61	679.58
759.794	636.58
759.977	640.67
760.161	708.26
760.345	628.39
760.528	655.01
760.712	634.53
760.895	632.48
761.079	583.33
761.263	650.91
761.446	622.24
761.63	652.96
761.813	657.06
761.997	581.28
762.18	677.54
762.364	624.29
762.547	591.52
762.731	628.39
762.914	558.75
763.098	562.85
763.281	589.47
763.464	640.67
763.648	579.23
763.831	612
764.015	589.47
764.198	618.15
764.381	640.67
764.564	571.04
764.748	575.14
764.931	534.18
765.114	597.67
765.297	575.14
765.481	601.76
765.664	603.81
765.847	595.62
766.03	614.05
766.213	507.55
766.397	546.47
766.58	544.42
766.763	589.47
766.946	540.32
767.129	609.95
767.312	503.46
767.495	550.56
767.678	525.99
767.861	552.61
768.044	544.42
768.227	540.32
768.41	550.56
768.593	509.6
768.776	517.79
768.959	515.75
769.142	489.12
769.324	517.79
769.507	495.27
769.69	503.46
769.873	597.67
770.056	542.37
770.239	501.41
770.421	478.88
770.604	519.84
770.787	525.99
770.97	525.99
771.152	505.51
771.335	507.55
771.518	474.79
771.7	474.79
771.883	489.12
772.066	511.65
772.248	478.88
772.431	517.79
772.613	501.41
772.796	472.74
772.978	523.94
773.161	503.46
773.343	493.22
773.526	521.89
773.708	444.07
773.891	491.17
774.073	482.98
774.256	448.16
774.438	499.36
774.621	472.74
774.803	519.84
774.985	439.97
775.168	388.77
775.35	394.92
775.532	442.02
775.715	460.45
775.897	427.68
776.079	425.64
776.261	415.4
776.444	401.06
776.626	366.25
776.808	341.67
776.99	491.17
777.173	392.87
777.355	456.36
777.537	331.43
777.719	450.21
777.901	327.33
778.083	409.25
778.265	403.11
778.447	433.83
778.629	480.93
778.811	341.67
778.993	405.16
779.175	437.92
779.357	439.97
779.539	378.53
779.721	360.1
779.903	392.87
780.085	409.25
780.267	396.96
780.449	333.48
780.631	399.01
780.812	349.86
780.994	310.95
781.176	386.72
781.358	335.53
781.54	302.76
781.721	396.96
781.903	360.1
782.085	372.39
782.267	298.66
782.448	249.51
782.63	368.29
782.812	278.18
782.993	288.42
783.175	351.91
783.357	372.39
783.538	284.33
783.72	229.03
783.901	284.33
784.083	259.75
784.264	300.71
784.446	257.7
784.627	280.23
784.809	274.09
784.99	331.43
785.172	194.22
785.353	290.47
785.535	288.42
785.716	269.99
785.897	263.85
786.079	241.32
786.26	337.57
786.441	224.94
786.623	210.6
786.804	267.94
786.985	235.18
787.167	261.8
787.348	243.37
787.529	206.5
787.71	173.74
787.891	349.86
788.073	274.09
788.254	226.98
788.435	222.89
788.616	245.41
788.797	212.65
788.978	224.94
789.159	153.26
789.34	302.76
789.522	233.13
789.703	226.98
789.884	243.37
790.065	206.5
790.246	259.75
790.427	222.89
790.607	198.31
790.788	186.02
790.969	147.11
791.15	253.61
791.331	286.37
791.512	255.65
791.693	255.65
791.874	245.41
792.054	263.85
792.235	245.41
792.416	181.93
792.597	153.26
792.778	214.7
792.958	202.41
793.139	163.5
793.32	181.93
793.5	177.83
793.681	272.04
793.862	192.17
794.042	214.7
794.223	206.5
794.404	200.36
794.584	175.78
794.765	173.74
794.945	181.93
795.126	167.59
795.306	206.5
795.487	235.18
795.667	179.88
795.848	216.74
796.028	138.92
796.209	202.41
796.389	145.06
796.57	165.54
796.75	134.82
796.93	157.35
797.111	171.69
797.291	159.4
797.471	269.99
797.652	118.44
797.832	149.16
798.012	243.37
798.192	190.12
798.373	143.02
798.553	188.07
798.733	169.64
798.913	159.4
799.093	192.17
799.274	128.68
799.454	106.15
799.634	93.87
799.814	220.84
799.994	42.67
800.174	124.58
800.354	143.02
800.534	145.06
800.714	128.68
800.894	54.95
801.074	108.2
801.254	149.16
801.434	104.11
801.614	153.26
801.794	138.92
801.974	300.71
802.154	167.59
802.334	126.63
802.514	130.73
802.693	169.64
802.873	167.59
803.053	143.02
803.233	159.4
803.413	18.09
803.592	145.06
803.772	183.98
803.952	186.02
804.131	100.01
804.311	124.58
804.491	108.2
804.67	159.4
804.85	73.39
805.03	140.97
805.209	73.39
805.389	149.16
805.568	46.76
805.748	157.35
805.928	151.21
806.107	190.12
806.287	75.43
806.466	48.81
806.646	186.02
806.825	69.29
807.004	151.21
807.184	147.11
807.363	136.87
807.543	132.78
807.722	149.16
807.901	140.97
808.081	118.44
808.26	44.71
808.439	116.39
808.619	52.91
808.798	153.26
808.977	48.81
809.156	106.15
809.336	143.02
809.515	183.98
809.694	102.06
809.873	120.49
810.052	161.45
810.231	151.21
810.411	95.91
810.59	73.39
810.769	116.39
810.948	216.74
811.127	85.67
811.306	57
811.485	61.1
811.664	83.63
811.843	100.01
812.022	116.39
812.201	24.23
812.38	95.91
812.559	85.67
812.737	83.63
812.916	151.21
813.095	71.34
813.274	93.87
813.453	120.49
813.632	-49.49
813.811	151.21
813.989	77.48
814.168	67.24
814.347	32.43
814.526	138.92
814.704	124.58
814.883	116.39
815.062	50.86
815.24	44.71
815.419	102.06
815.598	112.3
815.776	42.67
815.955	79.53
816.133	18.09
816.312	59.05
816.49	67.24
816.669	65.19
816.847	124.58
817.026	48.81
817.204	81.58
817.383	42.67
817.561	83.63
817.74	34.47
817.918	124.58
818.097	89.77
818.275	71.34
818.453	67.24
818.632	63.15
818.81	95.91
818.988	114.34
819.167	108.2
819.345	126.63
819.523	26.28
819.701	89.77
819.879	93.87
820.058	140.97
820.236	124.58
820.414	-14.68
820.592	85.67
820.77	9.9
820.948	22.19
821.127	93.87
821.305	40.62
821.483	77.48
821.661	69.29
821.839	50.86
822.017	69.29
822.195	73.39
822.373	26.28
822.551	52.91
822.729	9.9
822.907	87.72
823.085	79.53
823.262	97.96
823.44	20.14
823.618	71.34
823.796	30.38
823.974	97.96
824.152	40.62
824.329	57
824.507	130.73
824.685	24.23
824.863	75.43
825.04	3.75
825.218	100.01
825.396	81.58
825.574	61.1
825.751	85.67
825.929	20.14
826.107	100.01
826.284	20.14
826.462	59.05
826.639	32.43
826.817	54.95
826.994	34.47
827.172	77.48
827.349	79.53
827.527	18.09
827.704	57
827.882	81.58
828.059	34.47
828.237	-10.58
828.414	28.33
828.591	61.1
828.769	71.34
828.946	40.62
829.124	34.47
829.301	22.19
829.478	-16.73
829.655	11.95
829.833	36.52
830.01	54.95
830.187	81.58
830.364	-4.44
830.542	13.99
830.719	83.63
830.896	124.58
831.073	-0.34
831.25	59.05
831.427	24.23
831.604	67.24
831.782	24.23
831.959	16.04
832.136	20.14
832.313	52.91
832.49	-0.34
832.667	95.91
832.844	-10.58
833.021	54.95
833.198	85.67
833.374	9.9
833.551	71.34
833.728	7.85
833.905	16.04
834.082	3.75
834.259	67.24
834.436	85.67
834.612	-8.53
834.789	22.19
834.966	46.76
835.143	18.09
835.319	11.95
835.496	48.81
835.673	13.99
835.85	52.91
836.026	11.95
836.203	57
836.38	24.23
836.556	13.99
836.733	36.52
836.909	24.23
837.086	18.09
837.262	32.43
837.439	20.14
837.616	-8.53
837.792	54.95
837.968	-22.87
838.145	75.43
838.321	69.29
838.498	32.43
838.674	75.43
838.851	9.9
839.027	38.57
839.203	77.48
839.38	1.71
839.556	-4.44
839.732	81.58
839.909	-10.58
840.085	38.57
840.261	95.91
840.437	20.14
840.614	-0.34
840.79	3.75
840.966	48.81
841.142	22.19
841.318	48.81
841.494	32.43
841.671	52.91
841.847	-29.01
842.023	9.9
842.199	59.05
842.375	40.62
842.551	28.33
842.727	-12.63
842.903	126.63
843.079	61.1
843.255	5.8
843.431	52.91
843.607	26.28
843.783	34.47
843.959	7.85
844.134	-4.44
844.31	81.58
844.486	36.52
844.662	-31.06
844.838	67.24
845.013	16.04
845.189	87.72
845.365	-24.92
845.541	-37.2
845.716	18.09
845.892	18.09
846.068	5.8
846.244	110.25
846.419	34.47
846.595	16.04
846.77	50.86
846.946	-16.73
847.122	5.8
847.297	-41.3
847.473	77.48
847.648	52.91
847.824	-6.49
847.999	30.38
848.175	-6.49
848.35	24.23
848.526	71.34
848.701	1.71
848.876	-18.77
849.052	1.71
849.227	13.99
849.403	-10.58
849.578	-24.92
849.753	44.71
849.929	22.19
850.104	-37.2
850.279	5.8
850.454	-37.2
850.63	36.52
850.805	28.33
850.98	36.52
851.155	7.85
851.33	11.95
851.505	-45.4
851.681	9.9
851.856	-18.77
852.031	100.01
852.206	36.52
852.381	1.71
852.556	-12.63
852.731	24.23
852.906	20.14
853.081	-14.68
853.256	42.67
853.431	40.62
853.606	38.57
853.781	52.91
853.956	73.39
854.131	34.47
854.305	11.95
854.48	-26.96
854.655	44.71
854.83	79.53
855.005	13.99
855.18	50.86
855.354	65.19
855.529	-6.49
855.704	59.05
855.879	-43.35
856.053	9.9
856.228	18.09
856.403	-47.44
856.577	-45.4
856.752	11.95
856.926	63.15
857.101	9.9
857.276	1.71
857.45	34.47
857.625	-12.63
857.799	9.9
857.974	69.29
858.148	-35.16
858.323	-8.53
858.497	48.81
858.672	32.43
858.846	-10.58
859.02	38.57
859.195	-14.68
859.369	13.99
859.543	40.62
859.718	34.47
859.892	18.09
860.066	28.33
860.241	-41.3
860.415	-6.49
860.589	48.81
860.763	-39.25
860.938	-6.49
861.112	-12.63
861.286	-20.82
861.46	-2.39
861.634	30.38
861.808	7.85
861.982	-18.77
862.157	77.48
862.331	18.09
862.505	-39.25
862.679	-8.53
862.853	42.67
863.027	28.33
863.201	57
863.375	-10.58
863.549	-22.87
863.722	-29.01
863.896	-35.16
864.07	-41.3
864.244	71.34
864.418	50.86
864.592	87.72
864.766	79.53
864.939	11.95
865.113	9.9
865.287	-22.87
865.461	-20.82
865.634	-16.73
865.808	83.63
865.982	-16.73
866.156	63.15
866.329	-53.59
866.503	-20.82
866.676	87.72
866.85	13.99
867.024	13.99
867.197	100.01
867.371	22.19
867.544	34.47
867.718	69.29
867.891	46.76
868.065	38.57
868.238	-4.44
868.412	44.71
868.585	46.76
868.759	22.19
868.932	3.75
869.105	42.67
869.279	7.85
869.452	114.34
869.625	-22.87
869.799	32.43
869.972	-43.35
870.145	-14.68
870.319	32.43
870.492	-26.96
870.665	11.95
870.838	59.05
871.011	-37.2
871.185	22.19
871.358	18.09
871.531	20.14
871.704	20.14
871.877	30.38
872.05	-10.58
872.223	50.86
872.396	69.29
872.569	-31.06
872.742	-53.59
872.915	-55.64
873.088	22.19
873.261	-45.4
873.434	-37.2
873.607	-39.25
873.78	18.09
873.953	26.28
874.126	34.47
874.299	-69.97
874.471	-4.44
874.644	-4.44
874.817	-8.53
874.99	7.85
875.163	75.43
875.335	-12.63
875.508	36.52
875.681	40.62
875.853	16.04
876.026	-61.78
876.199	-24.92
876.371	-41.3
876.544	50.86
876.717	22.19
876.889	-24.92
877.062	20.14
877.234	-10.58
877.407	67.24
877.579	30.38
877.752	18.09
877.924	13.99
878.097	26.28
878.269	42.67
878.442	5.8
878.614	79.53
878.786	-22.87
878.959	46.76
879.131	40.62
879.303	7.85
879.476	11.95
879.648	28.33
879.82	-6.49
879.993	-2.39
880.165	-22.87
880.337	-31.06
880.509	11.95
880.681	-8.53
880.854	1.71
881.026	-45.4
881.198	32.43
881.37	-16.73
881.542	9.9
881.714	-14.68
881.886	30.38
882.058	-22.87
882.23	9.9
882.402	-84.31
882.574	34.47
882.746	-47.44
882.918	75.43
883.09	13.99
883.262	-53.59
883.434	9.9
883.606	5.8
883.778	-12.63
883.95	38.57
884.122	-22.87
884.293	-4.44
884.465	36.52
884.637	-53.59
884.809	-16.73
884.98	1.71
885.152	40.62
885.324	5.8
885.496	-8.53
885.667	-14.68
885.839	20.14
886.011	16.04
886.182	-10.58
886.354	26.28
886.525	-47.44
886.697	3.75
886.869	-6.49
887.04	16.04
887.212	30.38
887.383	42.67
887.555	-31.06
887.726	28.33
887.897	20.14
888.069	-43.35
888.24	-10.58
888.412	73.39
888.583	52.91
888.754	-26.96
888.926	44.71
889.097	20.14
889.268	-8.53
889.44	18.09
889.611	-61.78
889.782	54.95
889.953	42.67
890.125	75.43
890.296	-24.92
890.467	9.9
890.638	22.19
890.809	-16.73
890.98	-4.44
891.151	5.8
891.323	-8.53
891.494	9.9
891.665	18.09
891.836	18.09
892.007	50.86
892.178	11.95
892.349	-14.68
892.52	5.8
892.691	44.71
892.862	-35.16
893.032	-125.27
893.203	-12.63
893.374	-20.82
893.545	32.43
893.716	-14.68
893.887	-10.58
894.057	5.8
894.228	-67.92
894.399	-4.44
894.57	-59.73
894.74	48.81
894.911	-33.11
895.082	20.14
895.253	-29.01
895.423	-14.68
895.594	7.85
895.764	22.19
895.935	24.23
896.106	-63.83
896.276	20.14
896.447	5.8
896.617	38.57
896.788	-74.07
896.958	11.95
897.129	-43.35
897.299	18.09
897.47	48.81
897.64	11.95
897.81	67.24
897.981	3.75
898.151	38.57
898.322	87.72
898.492	7.85
898.662	-33.11
898.832	-20.82
899.003	50.86
899.173	83.63
899.343	-6.49
899.513	-14.68
