Data from USB4F104151__91__13-00-05-459.txt Node

Date: Fri Mar 14 13:00:05 EDT 2025
User: louis
Spectrometer: USB4F10415
Trigger mode: 4
Integration Time (sec): 1.000000E-2
Scans to average: 1
Electric dark correction enabled: true
Nonlinearity correction enabled: false
Boxcar width: 0
XAxis mode: Wavelengths
Number of Pixels in Spectrum: 3648
>>>>>Begin Spectral Data<<<<<
178.204	-96.08
178.424	-96.08
178.644	-96.08
178.864	4.27
179.084	-26.45
179.304	8.36
179.524	-26.45
179.744	28.84
179.964	-16.21
180.184	28.84
180.404	14.51
180.624	-26.45
180.844	0.17
181.064	-16.21
181.283	2.22
181.503	10.41
181.723	-8.02
181.943	-32.6
182.163	30.89
182.383	69.8
182.602	-36.69
182.822	51.37
183.042	-1.88
183.262	-30.55
183.482	43.18
183.701	10.41
183.921	20.65
184.141	39.08
184.361	-8.02
184.58	14.51
184.8	-63.32
185.02	41.13
185.239	32.94
185.459	-12.12
185.679	6.31
185.898	-75.6
186.118	-32.6
186.338	-48.98
186.557	41.13
186.777	-1.88
186.997	-26.45
187.216	47.27
187.436	6.31
187.655	28.84
187.875	-30.55
188.095	-16.21
188.314	6.31
188.534	24.75
188.753	-32.6
188.973	47.27
189.192	6.31
189.412	14.51
189.631	26.79
189.851	-20.31
190.07	-12.12
190.29	57.51
190.509	4.27
190.729	47.27
190.948	18.6
191.168	34.99
191.387	30.89
191.607	-8.02
191.826	37.03
192.045	20.65
192.265	2.22
192.484	-8.02
192.704	-5.97
192.923	-14.17
193.142	30.89
193.362	2.22
193.581	-10.07
193.8	8.36
194.02	16.55
194.239	4.27
194.458	116.9
194.678	-16.21
194.897	-5.97
195.116	10.41
195.335	6.31
195.555	-8.02
195.774	22.7
195.993	49.32
196.212	-14.17
196.432	37.03
196.651	8.36
196.87	43.18
197.089	28.84
197.308	-26.45
197.528	20.65
197.747	-24.4
197.966	16.55
198.185	43.18
198.404	26.79
198.623	-67.41
198.842	43.18
199.062	-63.32
199.281	12.46
199.5	18.6
199.719	0.17
199.938	12.46
200.157	37.03
200.376	-1.88
200.595	61.61
200.814	20.65
201.033	-1.88
201.252	-14.17
201.471	10.41
201.69	0.17
201.909	57.51
202.128	-1.88
202.347	37.03
202.566	34.99
202.785	-3.93
203.004	20.65
203.223	47.27
203.442	-32.6
203.661	-59.22
203.879	-32.6
204.098	63.66
204.317	-40.79
204.536	8.36
204.755	18.6
204.974	-14.17
205.193	-22.36
205.411	55.47
205.63	41.13
205.849	14.51
206.068	69.8
206.287	16.55
206.505	18.6
206.724	65.71
206.943	-18.26
207.162	-3.93
207.381	2.22
207.599	8.36
207.818	-8.02
208.037	24.75
208.255	-1.88
208.474	51.37
208.693	-1.88
208.911	47.27
209.13	0.17
209.349	-46.93
209.567	-40.79
209.786	0.17
210.005	63.66
210.223	2.22
210.442	-65.36
210.661	-24.4
210.879	24.75
211.098	32.94
211.316	30.89
211.535	-12.12
211.753	2.22
211.972	41.13
212.191	100.52
212.409	-26.45
212.628	4.27
212.846	-34.64
213.065	47.27
213.283	-1.88
213.502	-75.6
213.72	-81.75
213.938	-48.98
214.157	-24.4
214.375	26.79
214.594	57.51
214.812	-3.93
215.031	-5.97
215.249	18.6
215.467	16.55
215.686	12.46
215.904	57.51
216.122	30.89
216.341	-71.51
216.559	53.42
216.778	45.23
216.996	49.32
217.214	34.99
217.432	-12.12
217.651	-18.26
217.869	-42.84
218.087	-12.12
218.306	20.65
218.524	8.36
218.742	45.23
218.96	30.89
219.179	14.51
219.397	39.08
219.615	75.95
219.833	43.18
220.051	41.13
220.27	57.51
220.488	18.6
220.706	-1.88
220.924	24.75
221.142	39.08
221.36	12.46
221.578	10.41
221.796	-5.97
222.015	-51.03
222.233	-53.08
222.451	-42.84
222.669	-18.26
222.887	88.23
223.105	14.51
223.323	30.89
223.541	24.75
223.759	-5.97
223.977	2.22
224.195	69.8
224.413	55.47
224.631	47.27
224.849	39.08
225.067	-10.07
225.285	20.65
225.503	8.36
225.721	-3.93
225.939	32.94
226.157	-32.6
226.375	71.85
226.592	18.6
226.81	26.79
227.028	65.71
227.246	30.89
227.464	-14.17
227.682	75.95
227.9	41.13
228.117	41.13
228.335	59.56
228.553	47.27
228.771	-32.6
228.989	-14.17
229.206	-1.88
229.424	-5.97
229.642	16.55
229.86	18.6
230.077	51.37
230.295	20.65
230.513	57.51
230.731	55.47
230.948	2.22
231.166	22.7
231.384	18.6
231.601	16.55
231.819	32.94
232.037	-30.55
232.254	10.41
232.472	-26.45
232.689	-8.02
232.907	96.43
233.125	-69.46
233.342	-36.69
233.56	-24.4
233.777	61.61
233.995	6.31
234.213	51.37
234.43	-10.07
234.648	-18.26
234.865	37.03
235.083	-61.27
235.3	41.13
235.518	28.84
235.735	12.46
235.953	-1.88
236.17	22.7
236.388	-5.97
236.605	47.27
236.822	71.85
237.04	-22.36
237.257	-5.97
237.475	-8.02
237.692	-5.97
237.909	45.23
238.127	41.13
238.344	-22.36
238.562	2.22
238.779	-20.31
238.996	-1.88
239.214	-46.93
239.431	-22.36
239.648	0.17
239.865	-67.41
240.083	-38.74
240.3	-69.46
240.517	14.51
240.735	6.31
240.952	-20.31
241.169	22.7
241.386	-30.55
241.603	8.36
241.821	28.84
242.038	39.08
242.255	55.47
242.472	47.27
242.689	53.42
242.907	8.36
243.124	-10.07
243.341	-48.98
243.558	14.51
243.775	34.99
243.992	10.41
244.209	28.84
244.426	6.31
244.643	57.51
244.86	10.41
245.078	22.7
245.295	75.95
245.512	24.75
245.729	41.13
245.946	55.47
246.163	16.55
246.38	63.66
246.597	0.17
246.814	-16.21
247.031	10.41
247.248	-40.79
247.464	51.37
247.681	-26.45
247.898	24.75
248.115	-30.55
248.332	4.27
248.549	47.27
248.766	59.56
248.983	-46.93
249.2	65.71
249.417	14.51
249.633	-30.55
249.85	-38.74
250.067	8.36
250.284	18.6
250.501	-1.88
250.717	49.32
250.934	26.79
251.151	26.79
251.368	77.99
251.585	-12.12
251.801	-5.97
252.018	53.42
252.235	-1.88
252.451	-44.88
252.668	14.51
252.885	-36.69
253.102	12.46
253.318	8.36
253.535	53.42
253.752	10.41
253.968	45.23
254.185	-18.26
254.401	-1.88
254.618	30.89
254.835	8.36
255.051	71.85
255.268	30.89
255.484	22.7
255.701	-1.88
255.917	-14.17
256.134	51.37
256.351	-42.84
256.567	-18.26
256.784	2.22
257	6.31
257.217	73.9
257.433	-14.17
257.65	94.38
257.866	8.36
258.082	4.27
258.299	22.7
258.515	37.03
258.732	-46.93
258.948	47.27
259.165	8.36
259.381	-1.88
259.597	-51.03
259.814	-32.6
260.03	-73.56
260.246	4.27
260.463	26.79
260.679	59.56
260.895	24.75
261.112	20.65
261.328	-14.17
261.544	-20.31
261.761	51.37
261.977	10.41
262.193	16.55
262.409	-32.6
262.626	30.89
262.842	-26.45
263.058	34.99
263.274	82.09
263.49	20.65
263.707	112.81
263.923	-55.12
264.139	24.75
264.355	34.99
264.571	0.17
264.787	8.36
265.004	75.95
265.22	-14.17
265.436	26.79
265.652	16.55
265.868	-5.97
266.084	-8.02
266.3	-8.02
266.516	-57.17
266.732	10.41
266.948	104.62
267.164	61.61
267.38	41.13
267.596	-26.45
267.812	45.23
268.028	16.55
268.244	22.7
268.46	34.99
268.676	-30.55
268.892	41.13
269.108	-36.69
269.324	-10.07
269.54	-1.88
269.756	-36.69
269.972	47.27
270.188	-20.31
270.403	-51.03
270.619	14.51
270.835	16.55
271.051	-1.88
271.267	10.41
271.483	37.03
271.698	34.99
271.914	47.27
272.13	-63.32
272.346	-26.45
272.562	-12.12
272.777	14.51
272.993	32.94
273.209	69.8
273.425	20.65
273.64	59.56
273.856	-14.17
274.072	51.37
274.287	18.6
274.503	-16.21
274.719	12.46
274.934	-26.45
275.15	10.41
275.366	8.36
275.581	0.17
275.797	12.46
276.012	2.22
276.228	-22.36
276.444	-1.88
276.659	24.75
276.875	41.13
277.09	22.7
277.306	-18.26
277.521	-44.88
277.737	-22.36
277.952	6.31
278.168	24.75
278.383	59.56
278.599	2.22
278.814	67.75
279.03	37.03
279.245	39.08
279.461	22.7
279.676	2.22
279.892	41.13
280.107	-85.84
280.322	-75.6
280.538	32.94
280.753	-38.74
280.969	71.85
281.184	12.46
281.399	30.89
281.615	-10.07
281.83	-18.26
282.045	14.51
282.26	18.6
282.476	2.22
282.691	-24.4
282.906	-24.4
283.122	-36.69
283.337	-42.84
283.552	-55.12
283.767	73.9
283.983	-18.26
284.198	-26.45
284.413	-28.5
284.628	-22.36
284.843	61.61
285.058	88.23
285.274	32.94
285.489	18.6
285.704	57.51
285.919	-16.21
286.134	41.13
286.349	-5.97
286.564	-18.26
286.779	37.03
286.995	14.51
287.21	116.9
287.425	43.18
287.64	24.75
287.855	86.19
288.07	8.36
288.285	-28.5
288.5	-44.88
288.715	18.6
288.93	30.89
289.145	45.23
289.36	28.84
289.575	18.6
289.79	-38.74
290.004	37.03
290.219	-8.02
290.434	26.79
290.649	55.47
290.864	30.89
291.079	4.27
291.294	8.36
291.509	-3.93
291.724	18.6
291.938	22.7
292.153	16.55
292.368	8.36
292.583	-53.08
292.798	22.7
293.012	6.31
293.227	-46.93
293.442	-3.93
293.657	41.13
293.871	43.18
294.086	-16.21
294.301	0.17
294.516	-40.79
294.73	6.31
294.945	39.08
295.16	47.27
295.374	98.47
295.589	63.66
295.804	34.99
296.018	26.79
296.233	-36.69
296.447	24.75
296.662	-12.12
296.877	80.04
297.091	-1.88
297.306	28.84
297.52	-55.12
297.735	18.6
297.949	0.17
298.164	39.08
298.378	-40.79
298.593	51.37
298.807	-8.02
299.022	12.46
299.236	-98.13
299.451	-8.02
299.665	2.22
299.88	-34.64
300.094	-18.26
300.309	-3.93
300.523	-40.79
300.737	8.36
300.952	53.42
301.166	-59.22
301.381	-8.02
301.595	59.56
301.809	-1.88
302.024	-3.93
302.238	57.51
302.452	16.55
302.667	84.14
302.881	14.51
303.095	-28.5
303.309	22.7
303.524	51.37
303.738	-3.93
303.952	30.89
304.166	71.85
304.381	10.41
304.595	16.55
304.809	2.22
305.023	4.27
305.237	28.84
305.452	-24.4
305.666	-10.07
305.88	39.08
306.094	45.23
306.308	73.9
306.522	-5.97
306.736	24.75
306.95	6.31
307.164	-12.12
307.379	-32.6
307.593	51.37
307.807	75.95
308.021	8.36
308.235	2.22
308.449	22.7
308.663	14.51
308.877	114.86
309.091	20.65
309.305	2.22
309.519	-42.84
309.733	12.46
309.947	43.18
310.161	65.71
310.374	55.47
310.588	39.08
310.802	-40.79
311.016	-18.26
311.23	90.28
311.444	57.51
311.658	-26.45
311.872	67.75
312.085	39.08
312.299	63.66
312.513	82.09
312.727	18.6
312.941	-1.88
313.154	39.08
313.368	30.89
313.582	0.17
313.796	-38.74
314.009	110.76
314.223	22.7
314.437	8.36
314.651	0.17
314.864	41.13
315.078	-42.84
315.292	-46.93
315.505	16.55
315.719	22.7
315.933	-18.26
316.146	-38.74
316.36	6.31
316.573	51.37
316.787	-1.88
317.001	-20.31
317.214	-51.03
317.428	0.17
317.641	6.31
317.855	71.85
318.068	-30.55
318.282	77.99
318.495	-44.88
318.709	18.6
318.922	4.27
319.136	-1.88
319.349	10.41
319.563	55.47
319.776	-63.32
319.99	0.17
320.203	16.55
320.417	71.85
320.63	20.65
320.843	28.84
321.057	6.31
321.27	26.79
321.483	-32.6
321.697	59.56
321.91	0.17
322.124	-16.21
322.337	51.37
322.55	-24.4
322.763	41.13
322.977	20.65
323.19	-42.84
323.403	-40.79
323.617	4.27
323.83	20.65
324.043	2.22
324.256	-10.07
324.469	-36.69
324.683	24.75
324.896	-18.26
325.109	37.03
325.322	-24.4
325.535	63.66
325.748	10.41
325.962	2.22
326.175	45.23
326.388	73.9
326.601	61.61
326.814	59.56
327.027	55.47
327.24	37.03
327.453	28.84
327.666	-10.07
327.879	30.89
328.092	86.19
328.305	14.51
328.518	24.75
328.731	-14.17
328.944	-5.97
329.157	-18.26
329.37	22.7
329.583	-1.88
329.796	39.08
330.009	-32.6
330.222	0.17
330.435	34.99
330.648	51.37
330.861	-24.4
331.073	14.51
331.286	22.7
331.499	-18.26
331.712	57.51
331.925	45.23
332.138	-38.74
332.35	59.56
332.563	-34.64
332.776	-8.02
332.989	39.08
333.202	63.66
333.414	59.56
333.627	16.55
333.84	18.6
334.053	-14.17
334.265	6.31
334.478	-48.98
334.691	41.13
334.903	6.31
335.116	41.13
335.329	75.95
335.541	16.55
335.754	-10.07
335.966	10.41
336.179	59.56
336.392	24.75
336.604	6.31
336.817	24.75
337.029	96.43
337.242	39.08
337.454	80.04
337.667	-26.45
337.88	59.56
338.092	51.37
338.305	14.51
338.517	77.99
338.729	77.99
338.942	10.41
339.154	-18.26
339.367	6.31
339.579	30.89
339.792	45.23
340.004	41.13
340.217	-110.42
340.429	65.71
340.641	6.31
340.854	63.66
341.066	22.7
341.278	24.75
341.491	28.84
341.703	6.31
341.915	-22.36
342.128	-10.07
342.34	24.75
342.552	26.79
342.764	49.32
342.977	28.84
343.189	61.61
343.401	59.56
343.613	37.03
343.826	41.13
344.038	28.84
344.25	34.99
344.462	55.47
344.674	16.55
344.886	18.6
345.099	-1.88
345.311	4.27
345.523	6.31
345.735	57.51
345.947	-34.64
346.159	4.27
346.371	-1.88
346.583	16.55
346.795	6.31
347.007	-1.88
347.219	39.08
347.431	121
347.643	39.08
347.855	34.99
348.067	57.51
348.279	12.46
348.491	-34.64
348.703	6.31
348.915	24.75
349.127	63.66
349.339	22.7
349.551	12.46
349.763	80.04
349.975	14.51
350.187	6.31
350.399	10.41
350.61	-36.69
350.822	-34.64
351.034	-32.6
351.246	-16.21
351.458	-40.79
351.669	18.6
351.881	-24.4
352.093	-34.64
352.305	90.28
352.517	10.41
352.728	-10.07
352.94	18.6
353.152	18.6
353.363	-5.97
353.575	16.55
353.787	-91.99
353.999	43.18
354.21	-22.36
354.422	18.6
354.633	12.46
354.845	104.62
355.057	-5.97
355.268	10.41
355.48	-36.69
355.692	30.89
355.903	24.75
356.115	22.7
356.326	-67.41
356.538	26.79
356.749	-5.97
356.961	47.27
357.172	10.41
357.384	-32.6
357.595	18.6
357.807	16.55
358.018	-24.4
358.23	80.04
358.441	43.18
358.653	-51.03
358.864	22.7
359.075	57.51
359.287	55.47
359.498	41.13
359.709	71.85
359.921	-24.4
360.132	67.75
360.344	2.22
360.555	43.18
360.766	-18.26
360.977	-20.31
361.189	59.56
361.4	-26.45
361.611	-36.69
361.823	-32.6
362.034	47.27
362.245	114.86
362.456	2.22
362.667	-12.12
362.879	84.14
363.09	-18.26
363.301	20.65
363.512	20.65
363.723	98.47
363.935	41.13
364.146	-59.22
364.357	51.37
364.568	6.31
364.779	30.89
364.99	71.85
365.201	6.31
365.412	24.75
365.623	-14.17
365.834	41.13
366.045	6.31
366.256	-34.64
366.467	14.51
366.678	108.71
366.889	30.89
367.1	20.65
367.311	2.22
367.522	-22.36
367.733	20.65
367.944	22.7
368.155	-32.6
368.366	10.41
368.577	20.65
368.788	88.23
368.999	-3.93
369.209	2.22
369.42	45.23
369.631	39.08
369.842	45.23
370.053	86.19
370.264	2.22
370.474	32.94
370.685	67.75
370.896	26.79
371.107	14.51
371.317	53.42
371.528	-34.64
371.739	77.99
371.95	10.41
372.16	-38.74
372.371	57.51
372.582	-20.31
372.792	10.41
373.003	-8.02
373.214	61.61
373.424	-32.6
373.635	-26.45
373.846	88.23
374.056	30.89
374.267	22.7
374.477	51.37
374.688	-3.93
374.898	20.65
375.109	51.37
375.319	39.08
375.53	18.6
375.74	-8.02
375.951	4.27
376.161	51.37
376.372	57.51
376.582	57.51
376.793	96.43
377.003	0.17
377.214	22.7
377.424	0.17
377.635	14.51
377.845	41.13
378.055	84.14
378.266	-8.02
378.476	75.95
378.686	0.17
378.897	30.89
379.107	32.94
379.317	123.05
379.528	-32.6
379.738	-1.88
379.948	47.27
380.158	22.7
380.369	-65.36
380.579	16.55
380.789	22.7
380.999	73.9
381.21	18.6
381.42	65.71
381.63	20.65
381.84	24.75
382.05	-53.08
382.261	55.47
382.471	10.41
382.681	37.03
382.891	80.04
383.101	0.17
383.311	20.65
383.521	63.66
383.731	14.51
383.941	96.43
384.151	63.66
384.361	69.8
384.571	90.28
384.781	57.51
384.991	-10.07
385.201	55.47
385.411	30.89
385.621	-1.88
385.831	51.37
386.041	-8.02
386.251	-12.12
386.461	90.28
386.671	22.7
386.881	41.13
387.091	43.18
387.301	73.9
387.511	-12.12
387.72	12.46
387.93	-8.02
388.14	37.03
388.35	-46.93
388.56	28.84
388.769	127.14
388.979	88.23
389.189	16.55
389.399	39.08
389.609	10.41
389.818	65.71
390.028	47.27
390.238	41.13
390.447	22.7
390.657	121
390.867	69.8
391.076	14.51
391.286	24.75
391.496	-20.31
391.705	67.75
391.915	47.27
392.125	-34.64
392.334	16.55
392.544	0.17
392.753	67.75
392.963	-34.64
393.172	123.05
393.382	-16.21
393.591	39.08
393.801	2.22
394.01	-8.02
394.22	39.08
394.429	28.84
394.639	-69.46
394.848	53.42
395.058	39.08
395.267	51.37
395.477	49.32
395.686	123.05
395.895	39.08
396.105	51.37
396.314	10.41
396.524	55.47
396.733	77.99
396.942	45.23
397.152	12.46
397.361	69.8
397.57	18.6
397.78	8.36
397.989	43.18
398.198	45.23
398.407	-1.88
398.617	59.56
398.826	98.47
399.035	16.55
399.244	88.23
399.453	59.56
399.663	86.19
399.872	26.79
400.081	102.57
400.29	2.22
400.499	57.51
400.708	41.13
400.917	10.41
401.127	151.72
401.336	24.75
401.545	57.51
401.754	55.47
401.963	90.28
402.172	63.66
402.381	65.71
402.59	143.53
402.799	88.23
403.008	71.85
403.217	-5.97
403.426	55.47
403.635	-40.79
403.844	49.32
404.053	-12.12
404.262	100.52
404.471	30.89
404.68	51.37
404.888	-8.02
405.097	82.09
405.306	63.66
405.515	43.18
405.724	96.43
405.933	110.76
406.142	59.56
406.35	84.14
406.559	110.76
406.768	16.55
406.977	149.67
407.185	112.81
407.394	108.71
407.603	67.75
407.812	116.9
408.02	90.28
408.229	121
408.438	73.9
408.646	116.9
408.855	77.99
409.064	100.52
409.272	82.09
409.481	157.86
409.69	43.18
409.898	100.52
410.107	71.85
410.315	129.19
410.524	168.1
410.733	67.75
410.941	198.82
411.15	215.21
411.358	155.82
411.567	139.43
411.775	155.82
411.984	256.17
412.192	237.74
412.401	188.58
412.609	190.63
412.818	241.83
413.026	186.54
413.234	282.79
413.443	219.3
413.651	209.06
413.86	252.07
414.068	305.32
414.276	286.89
414.485	223.4
414.693	219.3
414.901	288.93
415.11	276.65
415.318	319.65
415.526	336.04
415.734	311.46
415.943	333.99
416.151	336.04
416.359	379.04
416.567	336.04
416.776	354.47
416.984	381.09
417.192	432.29
417.4	473.25
417.608	403.62
417.817	434.34
418.025	495.78
418.233	467.11
418.441	446.63
418.649	487.59
418.857	549.03
419.065	546.98
419.273	503.97
419.481	592.03
419.689	594.08
419.897	628.9
420.105	598.18
420.313	704.67
420.521	712.86
420.729	731.3
420.937	784.54
421.145	800.93
421.353	743.58
421.561	780.45
421.769	852.13
421.977	825.5
422.185	913.56
422.393	854.17
422.601	925.85
422.809	1005.72
423.017	1005.72
423.224	999.58
423.432	1071.26
423.64	1063.07
423.848	1161.37
424.056	1114.27
424.263	1165.46
424.471	1263.77
424.679	1247.38
424.887	1206.42
425.094	1323.16
425.302	1345.69
425.51	1396.89
425.718	1443.99
425.925	1400.98
426.133	1437.84
426.341	1607.83
426.548	1646.74
426.756	1616.02
426.964	1648.79
427.171	1792.14
427.379	1937.55
427.586	1837.2
427.794	1857.68
428.001	1984.65
428.209	2062.48
428.417	2132.11
428.624	2226.31
428.832	2095.24
429.039	2209.93
429.247	2209.93
429.454	2431.11
429.662	2527.36
429.869	2453.64
430.076	2472.07
430.284	2578.56
430.491	2502.79
430.699	2742.4
430.906	2746.5
431.114	2775.17
431.321	2820.22
431.528	2953.34
431.736	3141.75
431.943	3217.53
432.15	3246.2
432.358	3221.63
432.565	3379.32
432.772	3326.07
432.979	3586.16
433.187	3641.46
433.394	3799.15
433.601	3944.56
433.808	3866.74
434.016	3799.15
434.223	4186.22
434.43	4243.56
434.637	4175.98
434.844	4319.34
435.052	4606.05
435.259	4536.42
435.466	4630.63
435.673	4542.57
435.88	4841.57
436.087	4937.82
436.294	5089.37
436.501	4978.78
436.708	4941.92
436.915	5216.35
437.122	5496.92
437.329	5421.14
437.537	5650.52
437.743	5746.77
437.95	5724.24
438.157	5949.52
438.364	6129.74
438.571	6127.69
438.778	6232.14
438.985	6717.51
439.192	6512.71
439.399	6873.15
439.606	6760.52
439.813	6891.59
440.02	7469.11
440.227	7295.04
440.433	7333.95
440.64	7243.84
440.847	7452.73
441.054	7581.75
441.261	8110.13
441.467	7946.29
441.674	8153.13
441.881	8521.77
442.088	8339.5
442.294	8241.2
442.501	8566.82
442.708	8822.82
442.914	9158.69
443.121	9412.64
443.328	9207.84
443.534	9869.33
443.741	9629.72
443.948	9496.6
444.154	10162.19
444.361	10197.01
444.568	10311.69
444.774	10231.82
444.981	10432.52
445.187	10534.92
445.394	11175.94
445.6	10838.02
445.807	12179.44
446.013	11393.02
446.22	11710.46
446.426	12177.39
446.633	12253.17
446.839	12673
447.046	12214.26
447.252	13037.54
447.459	12943.33
447.665	12959.72
447.871	13461.47
448.078	14215.12
448.284	13578.2
448.491	13684.7
448.697	14268.37
448.903	14600.14
449.11	14718.92
449.316	14417.87
449.522	14655.44
449.728	15112.13
449.935	15480.77
450.141	15312.83
450.347	15448
450.553	15163.33
450.76	15284.16
450.966	16265.14
451.172	15826.87
451.378	16031.67
451.584	16023.48
451.791	16230.32
451.997	16056.25
452.203	16408.5
452.409	16770.99
452.615	16273.33
452.821	15833.02
453.027	15755.19
453.233	16209.84
453.44	15916.98
453.646	15857.59
453.852	16017.33
454.058	16449.46
454.264	15959.99
454.47	16324.53
454.676	15998.9
454.882	16154.55
455.088	14868.42
455.294	14811.08
455.5	15339.46
455.705	15427.52
455.911	14999.49
456.117	14675.91
456.323	14706.63
456.529	13744.09
456.735	14213.07
456.941	14116.82
457.147	13473.76
457.352	13264.86
457.558	13211.62
457.764	12957.67
457.97	13182.95
458.176	12730.34
458.381	12765.16
458.587	12101.62
458.793	12320.75
458.999	11411.45
459.204	12189.68
459.41	12066.8
459.616	11149.31
459.821	11280.38
460.027	10991.62
460.233	10870.79
460.438	10278.93
460.644	10508.3
460.85	10160.14
461.055	9766.93
461.261	9773.08
461.466	9103.39
461.672	8890.4
461.878	9525.27
462.083	8837.16
462.289	8618.02
462.494	8640.55
462.7	8108.08
462.905	7936.05
463.111	8429.61
463.316	8202.29
463.522	8245.29
463.727	8106.03
463.932	8093.74
464.138	8128.56
464.343	7944.24
464.549	7919.67
464.754	8183.85
464.959	7977.01
465.165	8163.37
465.37	7764.02
465.575	7520.31
465.781	7794.74
465.986	7800.88
466.191	7477.3
466.397	7315.52
466.602	7057.47
466.807	7381.05
467.012	7180.35
467.218	7075.9
467.423	7192.64
467.628	7147.58
467.833	7616.57
468.038	7364.67
468.244	7071.81
468.449	7264.32
468.654	7049.28
468.859	7145.53
469.064	7000.13
469.269	6787.14
469.474	6801.47
469.679	6959.17
469.885	6889.54
470.09	6797.38
470.295	6774.85
470.5	6582.34
470.705	6748.23
470.91	6504.52
471.115	6488.14
471.32	6541.38
471.525	6533.19
471.73	6277.19
471.935	6359.11
472.139	6305.87
472.344	6258.76
472.549	5986.38
472.754	6043.73
472.959	6039.63
473.164	5931.09
473.369	5759.06
473.574	5982.29
473.778	5988.43
473.983	5791.83
474.188	5820.5
474.393	5587.03
474.598	5478.49
474.802	5507.16
475.007	5679.19
475.212	5709.91
475.417	5455.96
475.621	5277.79
475.826	5447.77
476.031	5277.79
476.235	5240.92
476.44	5271.64
476.645	5169.24
476.849	5238.87
477.054	5097.56
477.259	4872.29
477.463	5107.8
477.668	4855.9
477.872	5060.7
478.077	4819.04
478.282	4833.38
478.486	4704.35
478.691	4767.84
478.895	4683.88
479.1	4786.27
479.304	4679.78
479.509	4550.76
479.713	4655.2
479.918	4698.21
480.122	4421.74
480.326	4507.75
480.531	4554.85
480.735	4382.82
480.94	4391.02
481.144	4540.52
481.348	4356.2
481.553	4474.98
481.757	4323.43
481.961	4280.43
482.166	4446.31
482.37	4345.96
482.574	4448.36
482.778	4350.06
482.983	4429.93
483.187	4278.38
483.391	4348.01
483.595	4200.55
483.8	4415.59
484.004	4409.45
484.208	4534.37
484.412	4356.2
484.616	4364.39
484.821	4415.59
485.025	4302.95
485.229	4409.45
485.433	4438.12
485.637	4362.34
485.841	4407.4
486.045	4370.54
486.249	4479.08
486.453	4378.73
486.657	4270.19
486.861	4339.82
487.065	4466.79
487.269	4290.67
487.473	4407.4
487.677	4376.68
487.881	4417.64
488.085	4300.91
488.289	4427.88
488.493	4419.69
488.697	4397.16
488.901	4452.45
489.105	4296.81
489.309	4495.46
489.512	4448.36
489.716	4358.25
489.92	4577.38
490.124	4474.98
490.328	4540.52
490.531	4499.56
490.735	4520.04
490.939	4419.69
491.143	4513.89
491.346	4493.41
491.55	4585.57
491.754	4558.95
491.958	4776.03
492.161	4730.98
492.365	4677.73
492.569	4692.07
492.772	4753.51
492.976	4755.55
493.18	4798.56
493.383	4802.66
493.587	4784.23
493.79	4792.42
493.994	4749.41
494.197	4989.02
494.401	4911.2
494.605	4948.06
494.808	4948.06
495.012	5185.63
495.215	5011.55
495.419	5130.33
495.622	5050.46
495.825	5240.92
496.029	5236.83
496.232	5349.47
496.436	5234.78
496.639	5335.13
496.843	5437.53
497.046	5548.12
497.249	5496.92
497.453	5675.09
497.656	5662.8
497.859	5757.01
498.063	5906.51
498.266	5953.62
498.469	5892.18
498.673	5947.47
498.876	6101.07
499.079	6150.22
499.282	6299.72
499.485	6410.31
499.689	6346.83
499.892	6369.35
500.095	6531.14
500.298	6715.46
500.501	6461.51
500.705	6705.22
500.908	6922.31
501.111	6996.03
501.314	6867.01
501.517	7120.96
501.72	7051.33
501.923	7125.05
502.126	7202.88
502.329	7493.69
502.532	7538.74
502.735	7450.68
502.938	7559.22
503.141	7839.8
503.344	7843.89
503.547	7872.56
503.75	8132.65
503.953	8353.84
504.156	8409.13
504.359	8349.74
504.562	8314.92
504.765	8507.43
504.968	8460.33
505.17	8724.52
505.373	8749.09
505.576	9056.29
505.779	8849.44
505.982	9140.26
506.185	9179.17
506.387	9435.16
506.59	9549.85
506.793	9551.9
506.996	9527.32
507.198	9850.9
507.401	10027.03
507.604	10149.9
507.807	10244.11
508.009	10237.97
508.212	10377.23
508.415	10403.85
508.617	10811.4
508.82	10905.6
509.022	10731.53
509.225	10850.31
509.428	11098.11
509.63	11079.68
509.833	11134.98
510.035	11636.73
510.238	11501.56
510.44	11735.03
510.643	11845.62
510.845	11970.55
511.048	11984.88
511.25	12095.47
511.453	12326.89
511.655	12591.08
511.858	12412.91
512.06	12642.28
512.262	12879.85
512.465	12820.46
512.667	13268.96
512.87	13262.82
513.072	13400.03
513.274	13656.03
513.477	13567.96
513.679	14036.95
513.881	13934.55
514.084	14180.31
514.286	14280.66
514.488	14358.48
514.69	14753.74
514.893	14979.01
515.095	15171.52
515.297	15038.41
515.499	15325.12
515.701	15245.25
515.904	15445.95
516.106	15628.22
516.308	15720.38
516.51	16132.02
516.712	16054.2
516.914	16295.86
517.116	16494.51
517.318	16603.05
517.52	16639.92
517.722	16799.66
517.925	17080.23
518.127	17221.54
518.329	17528.74
518.531	17375.14
518.733	17633.18
518.935	17885.08
519.136	17686.43
519.338	17956.76
519.54	18292.63
519.742	18302.87
519.944	18565.01
520.146	18823.05
520.348	19120.01
520.55	18980.75
520.752	19103.62
520.954	19384.19
521.155	19353.48
521.357	19482.5
521.559	20002.68
521.761	20111.22
521.963	20043.64
522.164	20006.78
522.366	20496.24
522.568	20615.02
522.77	20764.53
522.971	20918.12
523.173	20877.16
523.375	20954.99
523.576	21016.43
523.778	21032.81
523.98	21696.35
524.181	21606.24
524.383	21366.63
524.584	21968.73
524.786	21833.57
524.988	21837.66
525.189	21903.2
525.391	22179.67
525.592	22581.07
525.794	22447.96
525.995	22667.09
526.197	22632.27
526.398	22839.12
526.6	22740.82
526.801	23144.27
527.003	23289.67
527.204	23369.54
527.406	23545.67
527.607	23236.42
527.808	23406.41
528.01	23371.59
528.211	23637.83
528.412	23893.82
528.614	23906.11
528.815	23824.19
529.016	24049.47
529.218	23877.44
529.419	24016.7
529.62	24084.28
529.822	23818.05
530.023	24069.95
530.224	24180.54
530.425	24497.97
530.626	24217.4
530.828	24207.16
531.029	24764.21
531.23	24250.17
531.431	24278.84
531.632	24375.09
531.833	24583.99
532.035	24790.83
532.236	24557.36
532.437	24713.01
532.638	24618.8
532.839	24477.49
533.04	24962.86
533.241	24426.29
533.442	24975.15
533.643	24835.89
533.844	24973.1
534.045	24973.1
534.246	24569.65
534.447	25317.16
534.648	24815.41
534.849	25077.55
535.05	24829.74
535.251	24684.34
535.451	24731.44
535.652	24868.66
535.853	25050.92
536.054	24825.65
536.255	24983.34
536.456	24739.63
536.657	25173.8
536.857	24751.92
537.058	25038.64
537.259	24911.66
537.46	25136.94
537.66	25141.04
537.861	24868.66
538.062	24926
538.263	25030.44
538.463	24987.44
538.664	24842.03
538.865	25085.74
539.065	25255.72
539.266	24534.84
539.466	25564.96
539.667	24729.39
539.868	25231.15
540.068	25065.26
540.269	24860.46
540.469	24979.25
540.67	24962.86
540.87	25014.06
541.071	25106.22
541.271	24936.24
541.472	24753.97
541.672	24821.55
541.873	24934.19
542.073	24848.18
542.274	25087.79
542.474	24829.74
542.675	24831.79
542.875	25012.01
543.075	24897.33
543.276	24710.96
543.476	25001.77
543.676	24516.4
543.877	25204.52
544.077	24956.72
544.277	24594.23
544.478	24874.8
544.678	24837.94
544.878	24837.94
545.078	24944.43
545.279	24842.03
545.479	24604.47
545.679	24643.38
545.879	25089.84
546.079	24860.46
546.28	24921.9
546.48	24745.78
546.68	25030.44
546.88	24919.85
547.08	24811.31
547.28	24704.82
547.48	24457.01
547.68	25073.45
547.88	24647.47
548.081	24919.85
548.281	24471.35
548.481	24606.52
548.681	24893.23
548.881	24821.55
549.081	24964.91
549.28	24811.31
549.48	25003.82
549.68	24799.02
549.88	25122.6
550.08	24626.99
550.28	24663.86
550.48	24899.37
550.68	25091.88
550.88	24581.94
551.08	24442.68
551.279	24745.78
551.479	24977.2
551.679	24665.91
551.879	24725.3
552.079	25110.32
552.278	24672.05
552.478	24659.76
552.678	24502.07
552.878	24637.23
553.077	24676.15
553.277	24368.95
553.477	24626.99
553.676	24581.94
553.876	24649.52
554.076	24504.12
554.275	24543.03
554.475	24313.66
554.674	24633.14
554.874	24510.26
555.074	24465.21
555.273	24526.64
555.473	24682.29
555.672	24633.14
555.872	24549.17
556.071	24549.17
556.271	24846.13
556.47	24594.23
556.67	24055.61
556.869	24475.45
557.068	24409.91
557.268	24090.43
557.467	24063.8
557.667	24221.5
557.866	23977.79
558.065	24045.37
558.265	24110.91
558.464	24227.64
558.663	24217.4
558.863	23797.57
559.062	24428.34
559.261	24004.41
559.461	24305.46
559.66	24002.36
559.859	23994.17
560.058	23582.53
560.258	23959.36
560.457	23580.48
560.656	23973.69
560.855	24164.15
561.054	24141.63
561.253	23922.49
561.453	23920.45
561.652	23646.02
561.851	23799.62
562.05	23486.28
562.249	23523.14
562.448	23605.06
562.647	23414.6
562.846	23674.69
563.045	23533.38
563.244	23248.71
563.443	23637.83
563.642	23086.92
563.841	23420.74
564.04	23402.31
564.239	23234.38
564.438	23129.93
564.637	23162.7
564.836	23457.6
565.035	23091.02
565.234	22847.31
565.432	23045.96
565.631	23144.27
565.83	23441.22
566.029	22740.82
566.228	22908.75
566.427	22767.44
566.625	22378.33
566.824	22644.56
567.023	22658.9
567.222	22380.37
567.42	22660.94
567.619	22691.66
567.818	22490.96
568.016	22474.58
568.215	22724.43
568.414	22378.33
568.612	22464.34
568.811	22427.48
569.01	22157.14
569.208	21925.72
569.407	22292.31
569.605	21917.53
569.804	21796.7
570.002	21868.38
570.201	22038.36
570.4	21878.62
570.598	21641.06
570.797	21516.13
570.995	21929.82
571.193	21411.68
571.392	21813.09
571.59	21419.88
571.789	21700.45
571.987	21393.25
572.186	21303.14
572.384	21206.89
572.582	21417.83
572.781	21143.4
572.979	20926.32
573.177	21145.45
573.376	21403.49
573.574	21079.91
573.772	21272.42
573.971	21073.77
574.169	20895.6
574.367	20686.7
574.565	20873.07
574.763	20680.56
574.962	20490.1
575.16	20553.59
575.358	20576.11
575.556	20219.77
575.754	20795.25
575.952	20379.51
576.151	20352.88
576.349	20416.37
576.547	20285.3
576.745	20469.62
576.943	20029.31
577.141	20060.02
577.339	20045.69
577.537	20049.78
577.735	20250.49
577.933	19795.84
578.131	19978.11
578.329	19832.7
578.527	19548.03
578.725	19810.17
578.923	19955.58
579.121	19711.87
579.319	19521.41
579.516	19873.66
579.714	19445.63
579.912	19529.6
580.11	19423.11
580.308	19429.25
580.506	19455.87
580.704	19296.13
580.901	19253.12
581.099	19068.81
581.297	19058.57
581.495	18888.59
581.692	19124.1
581.89	18800.52
582.088	18995.08
582.285	19120.01
582.483	18988.94
582.681	18947.98
582.878	18640.78
583.076	18714.51
583.274	18718.61
583.471	18691.98
583.669	18524.05
583.866	18247.57
584.064	18446.23
584.262	18257.81
584.459	18341.78
584.657	18055.06
584.854	18485.14
585.052	17840.03
585.249	18223
585.447	18153.37
585.644	18014.1
585.841	18134.93
586.039	18261.91
586.236	17786.78
586.434	17663.9
586.631	17735.58
586.828	17854.36
587.026	17786.78
587.223	17649.57
587.42	17840.03
587.618	17455.01
587.815	17348.51
588.012	17244.07
588.21	17455.01
588.407	17600.41
588.604	17305.51
588.801	17127.33
588.999	17149.86
589.196	17104.81
589.393	17184.68
589.59	17082.28
589.787	17006.5
589.984	17053.61
590.182	16674.73
590.379	16863.15
590.576	16785.32
590.773	16826.28
590.97	16684.97
591.167	16891.82
591.364	16523.18
591.561	16877.48
591.758	16570.29
591.955	16451.5
592.152	16607.15
592.349	16373.68
592.546	16226.23
592.743	16500.65
592.94	16017.33
593.137	16211.89
593.334	16512.94
593.531	16242.61
593.727	16023.48
593.924	15886.26
594.121	15773.63
594.318	15925.18
594.515	15767.48
594.712	15830.97
594.908	15912.89
595.105	15474.62
595.302	15800.25
595.499	15542.21
595.696	15697.85
595.892	15710.14
596.089	15407.04
596.286	15491.01
596.482	15458.24
596.679	15560.64
596.876	15589.31
597.072	15306.69
597.269	15329.22
597.466	15161.28
597.662	15310.79
597.859	15263.68
598.055	15165.38
598.252	14907.34
598.448	14895.05
598.645	15062.98
598.841	14856.14
599.038	14944.2
599.234	14895.05
599.431	14866.38
599.627	14598.09
599.824	14837.7
600.02	14604.24
600.217	14602.19
600.413	14786.51
600.609	14608.33
600.806	14301.14
601.002	14702.54
601.198	14458.83
601.395	14299.09
601.591	14387.15
601.787	14430.16
601.984	14276.56
602.18	14544.84
602.376	13948.89
602.572	14249.94
602.769	14049.24
602.965	14043.09
603.161	14036.95
603.357	13891.54
603.553	13969.37
603.75	14120.92
603.946	13694.94
604.142	14002.13
604.338	13664.22
604.534	13598.68
604.73	13615.07
604.926	13666.27
605.122	13694.94
605.318	13527
605.514	13369.31
605.71	13426.65
605.906	13223.9
606.102	13477.85
606.298	13391.84
606.494	13303.78
606.69	13510.62
606.886	13361.12
607.082	13150.18
607.278	13123.55
607.474	13078.5
607.67	13037.54
607.866	13055.97
608.062	13252.58
608.257	13035.49
608.453	12978.15
608.649	13213.67
608.845	12785.64
609.041	13096.93
609.236	12912.61
609.432	12892.13
609.628	12804.07
609.824	12892.13
610.019	12849.13
610.215	12842.98
610.411	12752.87
610.606	12623.85
610.802	12640.23
610.998	12658.67
611.193	12664.81
611.389	12711.91
611.584	12511.21
611.78	12507.12
611.976	12601.32
612.171	12490.73
612.367	12437.48
612.562	12425.2
612.758	12281.84
612.953	12109.81
613.149	12740.58
613.344	12322.8
613.539	12576.75
613.735	12236.78
613.93	12427.25
614.126	12074.99
614.321	12163.06
614.517	12261.36
614.712	12185.58
614.907	11954.16
615.103	12130.29
615.298	12083.19
615.493	12136.43
615.688	12062.71
615.884	12318.7
616.079	11821.05
616.274	12156.91
616.47	11960.31
616.665	11892.73
616.86	12134.39
617.055	11917.3
617.25	11599.87
617.445	11599.87
617.641	11687.93
617.836	11759.61
618.031	11642.87
618.226	11501.56
618.421	11585.53
618.616	11517.95
618.811	11384.83
619.006	11675.64
619.201	11431.93
619.396	11421.69
619.591	11499.52
619.786	11321.34
619.981	11116.55
620.176	11315.2
620.371	11091.97
620.566	11069.44
620.761	10913.8
620.956	11075.59
621.151	11104.26
621.346	10825.73
621.541	10745.86
621.735	10983.43
621.93	10651.66
622.125	10739.72
622.32	10647.56
622.515	10631.18
622.709	10467.34
622.904	10692.62
623.099	10541.07
623.294	10432.52
623.488	10328.08
623.683	10268.69
623.878	10190.86
624.072	10293.26
624.267	10164.24
624.462	10176.53
624.656	10012.69
624.851	9893.91
625.046	9951.25
625.24	9799.7
625.435	9842.71
625.629	9693.21
625.824	9664.54
626.018	9773.08
626.213	9449.5
626.407	9508.89
626.602	9343
626.796	9541.66
626.991	9439.26
627.185	9330.72
627.38	9388.06
627.574	9351.2
627.768	9107.49
627.963	9203.74
628.157	9041.95
628.352	8984.61
628.546	8953.89
628.74	9134.11
628.935	8837.16
629.129	8783.91
629.323	8798.24
629.517	8788
629.712	8757.29
629.906	8724.52
630.1	8454.19
630.294	8603.69
630.489	8601.64
630.683	8820.77
630.877	8583.21
631.071	8431.66
631.265	8466.47
631.459	8220.72
631.653	8405.03
631.848	8370.22
632.042	8347.69
632.236	8146.99
632.43	7977.01
632.624	8134.7
632.818	8011.82
633.012	8026.16
633.206	7942.19
633.4	8093.74
633.594	7788.6
633.788	7839.8
633.982	8011.82
634.176	7790.64
634.369	7813.17
634.563	7725.11
634.757	7731.25
634.951	7686.2
635.145	7692.34
635.339	7419.96
635.533	7591.99
635.726	7448.63
635.92	7391.29
636.114	7256.12
636.308	7194.68
636.501	7102.53
636.695	7411.77
636.889	7192.64
637.083	7192.64
637.276	7270.46
637.47	7151.68
637.664	7057.47
637.857	7028.8
638.051	6910.02
638.244	6914.11
638.438	7034.94
638.632	6744.13
638.825	6826.05
639.019	6750.28
639.212	6733.89
639.406	6656.07
639.599	6613.06
639.793	6631.49
639.986	6703.17
640.18	6555.72
640.373	6473.8
640.567	6457.42
640.76	6555.72
640.954	6514.76
641.147	6236.24
641.34	6293.58
641.534	6316.11
641.727	6256.72
641.92	6244.43
642.114	6246.48
642.307	6193.23
642.5	6125.65
642.694	6133.84
642.887	6010.96
643.08	5967.95
643.273	5941.33
643.467	6031.44
643.66	5888.08
643.853	5861.46
644.046	5800.02
644.239	5873.75
644.432	5859.41
644.626	5693.52
644.819	5701.72
645.012	5683.28
645.205	5634.13
645.398	5568.6
645.591	5584.98
645.784	5570.65
645.977	5470.3
646.17	5562.45
646.363	5505.11
646.556	5335.13
646.749	5167.2
646.942	5390.42
647.135	5228.63
647.328	5324.89
647.521	5236.83
647.714	5318.75
647.907	5167.2
648.099	5193.82
648.292	5204.06
648.485	5072.99
648.678	5105.76
648.871	5058.65
649.064	4999.26
649.256	5040.22
649.449	4972.64
649.642	4937.82
649.835	4855.9
650.027	4868.19
650.22	4857.95
650.413	4927.58
650.605	4860
650.798	4866.14
650.991	4638.82
651.183	4704.35
651.376	4634.72
651.568	4726.88
651.761	4628.58
651.954	4507.75
652.146	4542.57
652.339	4540.52
652.531	4628.58
652.724	4481.13
652.916	4415.59
653.109	4393.06
653.301	4270.19
653.494	4407.4
653.686	4421.74
653.879	4280.43
654.071	4335.72
654.263	4481.13
654.456	4442.21
654.648	4309.1
654.84	4339.82
655.033	4257.9
655.225	4241.51
655.417	4104.3
655.61	4225.13
655.802	4184.17
655.994	4053.1
656.186	4061.29
656.379	4118.64
656.571	4094.06
656.763	4145.26
656.955	3909.74
657.148	4114.54
657.34	4010.09
657.532	3876.98
657.724	3776.63
657.916	3928.17
658.108	3846.26
658.3	3870.83
658.492	3842.16
658.684	3770.48
658.876	3745.91
659.068	3784.82
659.26	3684.47
659.452	3758.19
659.644	3819.63
659.836	3745.91
660.028	3653.75
660.22	3422.33
660.412	3645.56
660.604	3541.11
660.796	3590.26
660.988	3586.16
661.18	3489.91
661.372	3506.29
661.563	3483.77
661.755	3381.37
661.947	3502.2
662.139	3364.98
662.331	3430.52
662.522	3354.74
662.714	3414.13
662.906	3266.68
663.097	3360.89
663.289	3373.18
663.481	3217.53
663.673	3328.12
663.864	3223.67
664.056	3227.77
664.247	3299.45
664.439	3129.47
664.631	3231.87
664.822	3166.33
665.014	3205.24
665.205	3098.75
665.397	3090.56
665.588	3092.6
665.78	3057.79
665.971	3139.71
666.163	3113.08
666.354	3131.51
666.546	3053.69
666.737	2932.86
666.929	3049.6
667.12	2930.81
667.311	3008.64
667.503	2982.01
667.694	3033.21
667.885	2957.44
668.077	3010.68
668.268	2822.27
668.459	2812.03
668.651	2857.09
668.842	2826.37
669.033	2824.32
669.224	2844.8
669.416	2752.64
669.607	2779.26
669.798	2715.78
669.989	2922.62
670.18	2670.72
670.371	2771.07
670.563	2689.15
670.754	2611.33
670.945	2664.58
671.136	2826.37
671.327	2814.08
671.518	2693.25
671.709	2666.63
671.9	2723.97
672.091	2519.17
672.282	2609.28
672.473	2447.49
672.664	2734.21
672.855	2549.89
673.046	2609.28
673.237	2429.06
673.428	2476.16
673.619	2621.57
673.809	2427.01
674	2570.37
674.191	2508.93
674.382	2422.92
674.573	2521.22
674.764	2463.88
674.954	2490.5
675.145	2443.4
675.336	2404.49
675.527	2543.75
675.717	2459.78
675.908	2384.01
676.099	2429.06
676.289	2455.69
676.48	2467.97
676.671	2455.69
676.861	2478.21
677.052	2386.05
677.243	2338.95
677.433	2433.16
677.624	2386.05
677.814	2447.49
678.005	2447.49
678.195	2410.63
678.386	2353.29
678.576	2326.66
678.767	2357.38
678.957	2291.85
679.148	2377.86
679.338	2341
679.529	2318.47
679.719	2330.76
679.909	2334.86
680.1	2218.12
680.29	2287.75
680.481	2297.99
680.671	2381.96
680.861	2185.35
681.052	2297.99
681.242	2306.18
681.432	2228.36
681.622	2234.5
681.813	2193.55
682.003	2343.05
682.193	2324.62
682.383	2287.75
682.573	2195.59
682.764	2232.46
682.954	2261.13
683.144	2261.13
683.334	2201.74
683.524	2226.31
683.714	2207.88
683.904	2166.92
684.094	2246.79
684.284	2156.68
684.474	2244.74
684.664	2181.26
684.854	2171.02
685.044	2181.26
685.234	2295.94
685.424	2099.34
685.614	2197.64
685.804	2181.26
685.994	2234.5
686.184	2273.42
686.374	2160.78
686.564	2023.56
686.753	2177.16
686.943	2113.67
687.133	2244.74
687.323	2168.97
687.513	2177.16
687.702	2078.86
687.892	2160.78
688.082	2046.09
688.272	2064.52
688.461	2070.67
688.651	2089.1
688.841	2138.25
689.03	2119.82
689.22	1988.75
689.41	2035.85
689.599	2023.56
689.789	2115.72
689.979	2162.83
690.168	2050.19
690.358	1960.08
690.547	2050.19
690.737	1923.21
690.926	2072.72
691.116	2044.04
691.305	1980.56
691.495	1996.94
691.684	2058.38
691.874	2021.52
692.063	2042
692.252	1980.56
692.442	2050.19
692.631	1996.94
692.82	1982.6
693.01	2042
693.199	1986.7
693.388	1953.93
693.578	1906.83
693.767	2003.08
693.956	1925.26
694.146	1929.36
694.335	1990.8
694.524	1898.64
694.713	1925.26
694.902	1837.2
695.092	1941.65
695.281	2009.23
695.47	1953.93
695.659	1933.45
695.848	1929.36
696.037	1800.34
696.226	1972.36
696.415	1869.97
696.604	1960.08
696.793	1845.39
696.982	1919.12
697.171	1908.88
697.36	1796.24
697.549	1857.68
697.738	1941.65
697.927	1826.96
698.116	1781.9
698.305	1841.29
698.494	1722.51
698.683	1898.64
698.872	1837.2
699.061	1806.48
699.25	1818.77
699.438	1857.68
699.627	1818.77
699.816	1804.43
700.005	1820.81
700.193	1853.58
700.382	1742.99
700.571	1851.53
700.76	1751.18
700.948	1847.44
701.137	1763.47
701.326	1851.53
701.514	1808.53
701.703	1847.44
701.892	1824.91
702.08	1888.4
702.269	1816.72
702.457	1781.9
702.646	1802.38
702.834	1777.81
703.023	1740.94
703.212	1765.52
703.4	1679.51
703.589	1710.22
703.777	1761.42
703.965	1663.12
704.154	1726.61
704.342	1730.7
704.531	1669.27
704.719	1652.88
704.907	1677.46
705.096	1671.31
705.284	1726.61
705.472	1695.89
705.661	1677.46
705.849	1753.23
706.037	1726.61
706.226	1695.89
706.414	1777.81
706.602	1618.07
706.79	1536.15
706.979	1751.18
707.167	1695.89
707.355	1599.63
707.543	1722.51
707.731	1679.51
707.919	1648.79
708.107	1691.79
708.296	1667.22
708.484	1654.93
708.672	1622.16
708.86	1728.66
709.048	1628.31
709.236	1693.84
709.424	1546.39
709.612	1564.82
709.8	1521.81
709.988	1654.93
710.176	1546.39
710.364	1573.01
710.551	1599.63
710.739	1638.55
710.927	1605.78
711.115	1523.86
711.303	1575.06
711.491	1536.15
711.679	1620.11
711.866	1568.91
712.054	1536.15
712.242	1534.1
712.43	1546.39
712.617	1634.45
712.805	1570.96
712.993	1476.76
713.181	1460.37
713.368	1505.43
713.556	1505.43
713.744	1505.43
713.931	1493.14
714.119	1525.91
714.306	1530
714.494	1501.33
714.682	1505.43
714.869	1474.71
715.057	1489.04
715.244	1515.67
715.432	1616.02
715.619	1464.47
715.807	1474.71
715.994	1589.39
716.182	1464.47
716.369	1491.09
716.556	1501.33
716.744	1480.85
716.931	1403.03
717.119	1415.32
717.306	1392.79
717.493	1439.89
717.681	1513.62
717.868	1497.24
718.055	1409.17
718.242	1429.65
718.43	1470.61
718.617	1400.98
718.804	1368.21
718.991	1431.7
719.179	1542.29
719.366	1407.13
719.553	1407.13
719.74	1415.32
719.927	1403.03
720.114	1390.74
720.301	1419.41
720.488	1366.17
720.676	1413.27
720.863	1413.27
721.05	1345.69
721.237	1468.56
721.424	1302.68
721.611	1327.25
721.798	1296.53
721.985	1355.93
722.172	1366.17
722.358	1288.34
722.545	1292.44
722.732	1280.15
722.919	1296.53
723.106	1306.77
723.293	1341.59
723.48	1271.96
723.667	1306.77
723.853	1296.53
724.04	1292.44
724.227	1370.26
724.414	1286.3
724.6	1214.62
724.787	1220.76
724.974	1235.1
725.161	1265.82
725.347	1183.9
725.534	1317.01
725.72	1282.2
725.907	1312.92
726.094	1314.97
726.28	1286.3
726.467	1249.43
726.653	1278.1
726.84	1257.62
727.027	1255.58
727.213	1298.58
727.4	1343.64
727.586	1314.97
727.773	1296.53
727.959	1257.62
728.145	1255.58
728.332	1251.48
728.518	1235.1
728.705	1263.77
728.891	1247.38
729.077	1212.57
729.264	1214.62
729.45	1226.9
729.636	1179.8
729.823	1247.38
730.009	1106.07
730.195	1204.38
730.382	1222.81
730.568	1192.09
730.754	1284.25
730.94	1319.06
731.126	1247.38
731.313	1278.1
731.499	1226.9
731.685	1253.53
731.871	1251.48
732.057	1181.85
732.243	1245.34
732.429	1169.56
732.615	1267.86
732.801	1212.57
732.987	1128.6
733.173	1171.61
733.359	1134.75
733.545	1239.19
733.731	1106.07
733.917	1251.48
734.103	1061.02
734.289	1140.89
734.475	1095.83
734.661	1085.59
734.847	1241.24
735.033	1165.46
735.219	1194.14
735.404	1226.9
735.59	1151.13
735.776	1169.56
735.962	1132.7
736.148	1198.23
736.333	1104.03
736.519	1122.46
736.705	1071.26
736.89	1144.99
737.076	1187.99
737.262	1194.14
737.447	1099.93
737.633	1099.93
737.819	1106.07
738.004	1171.61
738.19	1089.69
738.375	1061.02
738.561	1071.26
738.747	1132.7
738.932	1024.16
739.118	1151.13
739.303	1101.98
739.489	1032.35
739.674	1073.31
739.859	1042.59
740.045	1235.1
740.23	995.48
740.416	1046.68
740.601	1083.55
740.786	1149.08
740.972	1157.27
741.157	1050.78
741.342	1056.92
741.528	1056.92
741.713	1155.23
741.898	1065.11
742.084	1122.46
742.269	1087.64
742.454	1063.07
742.639	1079.45
742.824	1011.87
743.01	1018.01
743.195	981.15
743.38	1015.96
743.565	1038.49
743.75	1048.73
743.935	979.1
744.12	1028.25
744.305	977.05
744.49	913.56
744.675	970.91
744.86	983.2
745.045	991.39
745.23	966.81
745.415	987.29
745.6	1018.01
745.785	913.56
745.97	1067.16
746.155	1093.79
746.34	850.08
746.525	897.18
746.71	925.85
746.895	934.04
747.079	952.48
747.264	942.24
747.449	925.85
747.634	989.34
747.819	1005.72
748.003	919.71
748.188	932
748.373	1036.44
748.557	882.85
748.742	915.61
748.927	911.52
749.111	909.47
749.296	878.75
749.481	934.04
749.665	893.09
749.85	870.56
750.034	780.45
750.219	800.93
750.404	942.24
750.588	891.04
750.773	751.78
750.957	835.74
751.141	858.27
751.326	780.45
751.51	743.58
751.695	788.64
751.879	790.69
752.064	819.36
752.248	743.58
752.432	839.84
752.617	710.82
752.801	753.82
752.985	870.56
753.17	764.06
753.354	788.64
753.538	678.05
753.722	680.1
753.907	825.5
754.091	774.3
754.275	698.53
754.459	700.58
754.643	729.25
754.828	622.75
755.012	632.99
755.196	725.15
755.38	796.83
755.564	659.62
755.748	716.96
755.932	688.29
756.116	802.97
756.3	667.81
756.484	641.18
756.668	667.81
756.852	667.81
757.036	620.71
757.22	598.18
757.404	596.13
757.588	719.01
757.772	694.43
757.956	639.14
758.14	768.16
758.323	579.75
758.507	692.38
758.691	757.92
758.875	628.9
759.059	610.47
759.242	600.23
759.426	587.94
759.61	567.46
759.794	639.14
759.977	608.42
760.161	641.18
760.345	569.51
760.528	641.18
760.712	514.21
760.895	614.56
761.079	598.18
761.263	538.79
761.446	508.07
761.63	620.71
761.813	622.75
761.997	514.21
762.18	553.12
762.364	669.86
762.547	501.92
762.731	614.56
762.914	587.94
763.098	604.32
763.281	489.64
763.464	526.5
763.648	514.21
763.831	489.64
764.015	534.69
764.198	481.44
764.381	448.68
764.564	530.59
764.748	577.7
764.931	489.64
765.114	530.59
765.297	518.31
765.481	481.44
765.664	479.4
765.847	467.11
766.03	508.07
766.213	538.79
766.397	563.36
766.58	497.83
766.763	524.45
766.946	481.44
767.129	524.45
767.312	467.11
767.495	467.11
767.678	422.05
767.861	544.93
768.044	448.68
768.227	432.29
768.41	473.25
768.593	450.72
768.776	508.07
768.959	403.62
769.142	454.82
769.324	473.25
769.507	469.16
769.69	559.27
769.873	510.11
770.056	420
770.239	452.77
770.421	489.64
770.604	436.39
770.787	434.34
770.97	434.34
771.152	434.34
771.335	471.2
771.518	399.52
771.7	395.43
771.883	508.07
772.066	456.87
772.248	456.87
772.431	440.48
772.613	463.01
772.796	409.76
772.978	475.3
773.161	520.35
773.343	438.44
773.526	379.04
773.708	377
773.891	397.48
774.073	501.92
774.256	426.15
774.438	477.35
774.621	458.92
774.803	444.58
774.985	409.76
775.168	428.2
775.35	393.38
775.532	331.94
775.715	370.85
775.897	374.95
776.079	362.66
776.261	426.15
776.444	278.69
776.626	475.3
776.808	377
776.99	448.68
777.173	336.04
777.355	415.91
777.537	327.85
777.719	350.37
777.901	409.76
778.083	327.85
778.265	319.65
778.447	409.76
778.629	280.74
778.811	252.07
778.993	276.65
779.175	401.57
779.357	252.07
779.539	284.84
779.721	286.89
779.903	319.65
780.085	235.69
780.267	276.65
780.449	325.8
780.631	344.23
780.812	319.65
780.994	303.27
781.176	346.28
781.358	241.83
781.54	215.21
781.721	317.61
781.903	266.41
782.085	241.83
782.267	268.45
782.448	280.74
782.63	266.41
782.812	352.42
782.993	299.17
783.175	252.07
783.357	274.6
783.538	274.6
783.72	323.75
783.901	293.03
784.083	211.11
784.264	268.45
784.446	295.08
784.627	176.3
784.809	223.4
784.99	258.21
785.172	274.6
785.353	182.44
785.535	229.54
785.716	219.3
785.897	245.93
786.079	243.88
786.26	239.78
786.441	278.69
786.623	186.54
786.804	182.44
786.985	180.39
787.167	268.45
787.348	207.02
787.529	213.16
787.71	204.97
787.891	235.69
788.073	215.21
788.254	225.45
788.435	209.06
788.616	204.97
788.797	194.73
788.978	127.14
789.159	153.77
789.34	149.67
789.522	200.87
789.703	229.54
789.884	184.49
790.065	288.93
790.246	250.02
790.427	194.73
790.607	180.39
790.788	143.53
790.969	215.21
791.15	161.96
791.331	204.97
791.512	180.39
791.693	198.82
791.874	143.53
792.054	225.45
792.235	184.49
792.416	149.67
792.597	196.78
792.778	168.1
792.958	133.29
793.139	170.15
793.32	149.67
793.5	178.34
793.681	215.21
793.862	245.93
794.042	155.82
794.223	135.34
794.404	166.06
794.584	198.82
794.765	196.78
794.945	151.72
795.126	217.26
795.306	147.62
795.487	198.82
795.667	149.67
795.848	213.16
796.028	166.06
796.209	157.86
796.389	159.91
796.57	188.58
796.75	182.44
796.93	172.2
797.111	176.3
797.291	172.2
797.471	145.58
797.652	155.82
797.832	137.38
798.012	125.1
798.192	133.29
798.373	139.43
798.553	90.28
798.733	159.91
798.913	137.38
799.093	133.29
799.274	137.38
799.454	204.97
799.634	106.67
799.814	145.58
799.994	123.05
800.174	108.71
800.354	151.72
800.534	172.2
800.714	129.19
800.894	94.38
801.074	127.14
801.254	116.9
801.434	65.71
801.614	121
801.794	153.77
801.974	374.95
802.154	151.72
802.334	164.01
802.514	73.9
802.693	129.19
802.873	161.96
803.053	147.62
803.233	116.9
803.413	102.57
803.592	75.95
803.772	82.09
803.952	102.57
804.131	57.51
804.311	108.71
804.491	135.34
804.67	96.43
804.85	116.9
805.03	104.62
805.209	137.38
805.389	84.14
805.568	106.67
805.748	49.32
805.928	106.67
806.107	143.53
806.287	121
806.466	151.72
806.646	43.18
806.825	88.23
807.004	73.9
807.184	63.66
807.363	125.1
807.543	59.56
807.722	61.61
807.901	125.1
808.081	57.51
808.26	63.66
808.439	96.43
808.619	34.99
808.798	114.86
808.977	49.32
809.156	164.01
809.336	112.81
809.515	90.28
809.694	77.99
809.873	51.37
810.052	57.51
810.231	121
810.411	61.61
810.59	71.85
810.769	98.47
810.948	94.38
811.127	61.61
811.306	75.95
811.485	90.28
811.664	92.33
811.843	98.47
812.022	71.85
812.201	2.22
812.38	104.62
812.559	75.95
812.737	137.38
812.916	141.48
813.095	75.95
813.274	96.43
813.453	96.43
813.632	59.56
813.811	63.66
813.989	94.38
814.168	75.95
814.347	53.42
814.526	75.95
814.704	145.58
814.883	102.57
815.062	34.99
815.24	71.85
815.419	86.19
815.598	20.65
815.776	-48.98
815.955	82.09
816.133	49.32
816.312	57.51
816.49	84.14
816.669	47.27
816.847	-10.07
817.026	129.19
817.204	82.09
817.383	22.7
817.561	67.75
817.74	51.37
817.918	88.23
818.097	-1.88
818.275	71.85
818.453	104.62
818.632	30.89
818.81	24.75
818.988	90.28
819.167	77.99
819.345	67.75
819.523	71.85
819.701	20.65
819.879	73.9
820.058	57.51
820.236	-32.6
820.414	10.41
820.592	55.47
820.77	73.9
820.948	67.75
821.127	6.31
821.305	39.08
821.483	39.08
821.661	18.6
821.839	96.43
822.017	41.13
822.195	47.27
822.373	100.52
822.551	20.65
822.729	71.85
822.907	73.9
823.085	129.19
823.262	102.57
823.44	32.94
823.618	51.37
823.796	-24.4
823.974	12.46
824.152	10.41
824.329	4.27
824.507	39.08
824.685	8.36
824.863	39.08
825.04	67.75
825.218	-14.17
825.396	34.99
825.574	55.47
825.751	80.04
825.929	39.08
826.107	34.99
826.284	22.7
826.462	73.9
826.639	32.94
826.817	86.19
826.994	4.27
827.172	57.51
827.349	71.85
827.527	26.79
827.704	-10.07
827.882	131.24
828.059	45.23
828.237	63.66
828.414	41.13
828.591	-1.88
828.769	49.32
828.946	67.75
829.124	22.7
829.301	92.33
829.478	49.32
829.655	-22.36
829.833	65.71
830.01	47.27
830.187	-10.07
830.364	39.08
830.542	51.37
830.719	32.94
830.896	77.99
831.073	51.37
831.25	37.03
831.427	16.55
831.604	53.42
831.782	34.99
831.959	16.55
832.136	-1.88
832.313	-14.17
832.49	28.84
832.667	100.52
832.844	30.89
833.021	49.32
833.198	22.7
833.374	71.85
833.551	28.84
833.728	24.75
833.905	39.08
834.082	8.36
834.259	-40.79
834.436	-1.88
834.612	-32.6
834.789	20.65
834.966	34.99
835.143	47.27
835.319	18.6
835.496	-26.45
835.673	53.42
835.85	63.66
836.026	73.9
836.203	82.09
836.38	32.94
836.556	22.7
836.733	41.13
836.909	18.6
837.086	6.31
837.262	18.6
837.439	-51.03
837.616	-8.02
837.792	57.51
837.968	73.9
838.145	-55.12
838.321	16.55
838.498	53.42
838.674	10.41
838.851	63.66
839.027	-1.88
839.203	16.55
839.38	67.75
839.556	16.55
839.732	28.84
839.909	18.6
840.085	102.57
840.261	39.08
840.437	-5.97
840.614	45.23
840.79	18.6
840.966	-3.93
841.142	16.55
841.318	24.75
841.494	65.71
841.671	39.08
841.847	30.89
842.023	-26.45
842.199	22.7
842.375	57.51
842.551	-8.02
842.727	-40.79
842.903	96.43
843.079	12.46
843.255	63.66
843.431	-8.02
843.607	24.75
843.783	18.6
843.959	-16.21
844.134	-26.45
844.31	14.51
844.486	-3.93
844.662	16.55
844.838	53.42
845.013	-14.17
845.189	63.66
845.365	71.85
845.541	22.7
845.716	71.85
845.892	16.55
846.068	-12.12
846.244	6.31
846.419	30.89
846.595	47.27
846.77	-24.4
846.946	28.84
847.122	-42.84
847.297	20.65
847.473	39.08
847.648	41.13
847.824	-44.88
847.999	18.6
848.175	-8.02
848.35	16.55
848.526	51.37
848.701	45.23
848.876	34.99
849.052	51.37
849.227	24.75
849.403	24.75
849.578	-5.97
849.753	16.55
849.929	-32.6
850.104	-26.45
850.279	47.27
850.454	69.8
850.63	6.31
850.805	-30.55
850.98	8.36
851.155	26.79
851.33	-24.4
851.505	-51.03
851.681	24.75
851.856	-57.17
852.031	-8.02
852.206	30.89
852.381	22.7
852.556	-10.07
852.731	65.71
852.906	-59.22
853.081	30.89
853.256	8.36
853.431	14.51
853.606	10.41
853.781	-40.79
853.956	51.37
854.131	67.75
854.305	-1.88
854.48	18.6
854.655	0.17
854.83	18.6
855.005	-5.97
855.18	49.32
855.354	-22.36
855.529	-40.79
855.704	131.24
855.879	45.23
856.053	53.42
856.228	-1.88
856.403	14.51
856.577	24.75
856.752	-14.17
856.926	-40.79
857.101	16.55
857.276	14.51
857.45	18.6
857.625	-14.17
857.799	-26.45
857.974	2.22
858.148	-51.03
858.323	39.08
858.497	-53.08
858.672	67.75
858.846	30.89
859.02	67.75
859.195	-1.88
859.369	10.41
859.543	-18.26
859.718	-8.02
859.892	41.13
860.066	18.6
860.241	43.18
860.415	-10.07
860.589	6.31
860.763	28.84
860.938	-59.22
861.112	34.99
861.286	59.56
861.46	14.51
861.634	2.22
861.808	-8.02
861.982	-18.26
862.157	-34.64
862.331	2.22
862.505	-24.4
862.679	-73.56
862.853	-5.97
863.027	55.47
863.201	-1.88
863.375	8.36
863.549	-44.88
863.722	-10.07
863.896	-3.93
864.07	-8.02
864.244	-34.64
864.418	41.13
864.592	-69.46
864.766	57.51
864.939	-3.93
865.113	-59.22
865.287	-8.02
865.461	-44.88
865.634	39.08
865.808	-3.93
865.982	61.61
866.156	-36.69
866.329	12.46
866.503	30.89
866.676	8.36
866.85	4.27
867.024	16.55
867.197	6.31
867.371	24.75
867.544	-53.08
867.718	-55.12
867.891	41.13
868.065	-34.64
868.238	10.41
868.412	-48.98
868.585	-51.03
868.759	10.41
868.932	-30.55
869.105	82.09
869.279	-1.88
869.452	-61.27
869.625	-5.97
869.799	-61.27
869.972	20.65
870.145	69.8
870.319	-8.02
870.492	12.46
870.665	-20.31
870.838	-59.22
871.011	-65.36
871.185	-67.41
871.358	-12.12
871.531	-5.97
871.704	14.51
871.877	32.94
872.05	22.7
872.223	45.23
872.396	-10.07
872.569	-14.17
872.742	-94.04
872.915	-14.17
873.088	69.8
873.261	77.99
873.434	-48.98
873.607	4.27
873.78	-55.12
873.953	-30.55
874.126	49.32
874.299	30.89
874.471	-46.93
874.644	51.37
874.817	22.7
874.99	53.42
875.163	-26.45
875.335	34.99
875.508	8.36
875.681	30.89
875.853	-22.36
876.026	-1.88
876.199	32.94
876.371	-22.36
876.544	20.65
876.717	59.56
876.889	22.7
877.062	-5.97
877.234	14.51
877.407	59.56
877.579	10.41
877.752	8.36
877.924	-8.02
878.097	53.42
878.269	43.18
878.442	28.84
878.614	12.46
878.786	30.89
878.959	-71.51
879.131	-26.45
879.303	-57.17
879.476	39.08
879.648	39.08
879.82	-30.55
879.993	-5.97
880.165	-55.12
880.337	-3.93
880.509	73.9
880.681	-5.97
880.854	-28.5
881.026	-32.6
881.198	2.22
881.37	30.89
881.542	47.27
881.714	14.51
881.886	22.7
882.058	-28.5
882.23	55.47
882.402	-71.51
882.574	45.23
882.746	41.13
882.918	-3.93
883.09	75.95
883.262	16.55
883.434	12.46
883.606	6.31
883.778	67.75
883.95	45.23
884.122	4.27
884.293	30.89
884.465	-44.88
884.637	12.46
884.809	-44.88
884.98	-5.97
885.152	-30.55
885.324	45.23
885.496	-18.26
885.667	-1.88
885.839	69.8
886.011	16.55
886.182	18.6
886.354	41.13
886.525	-8.02
886.697	32.94
886.869	-10.07
887.04	-26.45
887.212	6.31
887.383	22.7
887.555	-69.46
887.726	47.27
887.897	4.27
888.069	-26.45
888.24	-22.36
888.412	-1.88
888.583	18.6
888.754	-42.84
888.926	47.27
889.097	-67.41
889.268	26.79
889.44	6.31
889.611	16.55
889.782	-18.26
889.953	-8.02
890.125	-34.64
890.296	39.08
890.467	26.79
890.638	10.41
890.809	10.41
890.98	4.27
891.151	16.55
891.323	6.31
891.494	14.51
891.665	41.13
891.836	-18.26
892.007	-10.07
892.178	16.55
892.349	-26.45
892.52	14.51
892.691	-51.03
892.862	6.31
893.032	26.79
893.203	-10.07
893.374	18.6
893.545	20.65
893.716	-1.88
893.887	34.99
894.057	6.31
894.228	14.51
894.399	-30.55
894.57	24.75
894.74	-32.6
894.911	18.6
895.082	-3.93
895.253	49.32
895.423	43.18
895.594	-10.07
895.764	-3.93
895.935	104.62
896.106	67.75
896.276	-18.26
896.447	43.18
896.617	-55.12
896.788	14.51
896.958	-10.07
897.129	-44.88
897.299	18.6
897.47	-42.84
897.64	-51.03
897.81	45.23
897.981	12.46
898.151	-26.45
898.322	-44.88
898.492	24.75
898.662	-20.31
898.832	-3.93
899.003	-100.18
899.173	-14.17
899.343	-36.69
899.513	67.75
