Data from USB4F104151__35__12-58-54-067.txt Node

Date: Fri Mar 14 12:58:54 EDT 2025
User: louis
Spectrometer: USB4F10415
Trigger mode: 4
Integration Time (sec): 1.000000E-2
Scans to average: 1
Electric dark correction enabled: true
Nonlinearity correction enabled: false
Boxcar width: 0
XAxis mode: Wavelengths
Number of Pixels in Spectrum: 3648
>>>>>Begin Spectral Data<<<<<
178.204	-42.5
178.424	-42.5
178.644	-42.5
178.864	-99.84
179.084	-32.26
179.304	14.85
179.524	33.28
179.744	-17.92
179.964	-73.21
180.184	-26.11
180.404	-19.97
180.624	31.23
180.844	-24.06
181.064	8.7
181.283	43.52
181.503	-30.21
181.723	59.9
181.943	-44.54
182.163	-17.92
182.383	-60.93
182.602	20.99
182.822	-67.07
183.042	-93.69
183.262	-22.02
183.482	-7.68
183.701	-73.21
183.921	-40.45
184.141	49.66
184.361	-13.82
184.58	-79.36
184.8	8.7
185.02	45.57
185.239	20.99
185.459	-71.17
185.679	53.76
185.898	-62.98
186.118	-36.35
186.338	-7.68
186.557	8.7
186.777	-17.92
186.997	-34.3
187.216	-1.54
187.436	-34.3
187.655	35.33
187.875	29.18
188.095	-9.73
188.314	18.94
188.534	47.62
188.753	41.47
188.973	-38.4
189.192	35.33
189.412	31.23
189.631	47.62
189.851	111.1
190.07	-36.35
190.29	-19.97
190.509	-22.02
190.729	18.94
190.948	-9.73
191.168	25.09
191.387	68.09
191.607	-38.4
191.826	-13.82
192.045	-30.21
192.265	-9.73
192.484	-3.58
192.704	-11.78
192.923	-40.45
193.142	4.61
193.362	6.66
193.581	27.14
193.8	25.09
194.02	2.56
194.239	12.8
194.458	6.66
194.678	-48.64
194.897	2.56
195.116	-1.54
195.335	-11.78
195.555	-19.97
195.774	2.56
195.993	-38.4
196.212	-3.58
196.432	-5.63
196.651	4.61
196.87	0.51
197.089	20.99
197.308	-40.45
197.528	10.75
197.747	-46.59
197.966	-13.82
198.185	23.04
198.404	-7.68
198.623	-17.92
198.842	-24.06
199.062	-40.45
199.281	39.42
199.5	14.85
199.719	109.05
199.938	-56.83
200.157	0.51
200.376	-9.73
200.595	-22.02
200.814	-46.59
201.033	-9.73
201.252	41.47
201.471	-30.21
201.69	8.7
201.909	59.9
202.128	-54.78
202.347	33.28
202.566	-32.26
202.785	10.75
203.004	88.57
203.223	43.52
203.442	27.14
203.661	-11.78
203.879	14.85
204.098	51.71
204.317	-17.92
204.536	23.04
204.755	-13.82
204.974	-22.02
205.193	84.48
205.411	98.81
205.63	12.8
205.849	-30.21
206.068	27.14
206.287	68.09
206.505	29.18
206.724	-54.78
206.943	39.42
207.162	-28.16
207.381	-32.26
207.599	39.42
207.818	96.77
208.037	25.09
208.255	-71.17
208.474	-38.4
208.693	41.47
208.911	53.76
209.13	29.18
209.349	-30.21
209.567	-32.26
209.786	-5.63
210.005	78.33
210.223	8.7
210.442	37.38
210.661	2.56
210.879	25.09
211.098	-46.59
211.316	-19.97
211.535	-9.73
211.753	-1.54
211.972	35.33
212.191	-54.78
212.409	16.9
212.628	-22.02
212.846	-15.87
213.065	-52.74
213.283	-22.02
213.502	-9.73
213.72	53.76
213.938	41.47
214.157	59.9
214.375	35.33
214.594	0.51
214.812	-7.68
215.031	2.56
215.249	-9.73
215.467	10.75
215.686	29.18
215.904	23.04
216.122	23.04
216.341	14.85
216.559	55.81
216.778	76.29
216.996	-17.92
217.214	51.71
217.432	20.99
217.651	-93.69
217.869	-38.4
218.087	-30.21
218.306	16.9
218.524	-5.63
218.742	49.66
218.96	2.56
219.179	8.7
219.397	-34.3
219.615	76.29
219.833	16.9
220.051	6.66
220.27	23.04
220.488	-54.78
220.706	33.28
220.924	-36.35
221.142	2.56
221.36	20.99
221.578	-30.21
221.796	-15.87
222.015	43.52
222.233	-17.92
222.451	-9.73
222.669	4.61
222.887	-5.63
223.105	-46.59
223.323	37.38
223.541	-9.73
223.759	33.28
223.977	47.62
224.195	4.61
224.413	20.99
224.631	94.72
224.849	23.04
225.067	53.76
225.285	-60.93
225.503	-7.68
225.721	-26.11
225.939	29.18
226.157	78.33
226.375	80.38
226.592	49.66
226.81	8.7
227.028	55.81
227.246	61.95
227.464	-7.68
227.682	-3.58
227.9	-24.06
228.117	25.09
228.335	-44.54
228.553	-13.82
228.771	-13.82
228.989	0.51
229.206	-54.78
229.424	20.99
229.642	-7.68
229.86	-17.92
230.077	10.75
230.295	61.95
230.513	10.75
230.731	45.57
230.948	27.14
231.166	4.61
231.384	-40.45
231.601	59.9
231.819	14.85
232.037	49.66
232.254	53.76
232.472	-46.59
232.689	-15.87
232.907	12.8
233.125	10.75
233.342	35.33
233.56	-65.02
233.777	47.62
233.995	20.99
234.213	10.75
234.43	72.19
234.648	20.99
234.865	14.85
235.083	-11.78
235.3	0.51
235.518	53.76
235.735	-7.68
235.953	4.61
236.17	-44.54
236.388	-48.64
236.605	-3.58
236.822	-13.82
237.04	37.38
237.257	76.29
237.475	0.51
237.692	27.14
237.909	49.66
238.127	8.7
238.344	4.61
238.562	45.57
238.779	-13.82
238.996	2.56
239.214	59.9
239.431	39.42
239.648	57.86
239.865	-19.97
240.083	-77.31
240.3	43.52
240.517	-3.58
240.735	-17.92
240.952	43.52
241.169	29.18
241.386	-34.3
241.603	-38.4
241.821	51.71
242.038	-54.78
242.255	14.85
242.472	74.24
242.689	16.9
242.907	29.18
243.124	6.66
243.341	-34.3
243.558	39.42
243.775	-36.35
243.992	2.56
244.209	27.14
244.426	43.52
244.643	-13.82
244.86	-30.21
245.078	2.56
245.295	-15.87
245.512	8.7
245.729	-48.64
245.946	-24.06
246.163	8.7
246.38	-17.92
246.597	61.95
246.814	18.94
247.031	-28.16
247.248	-50.69
247.464	45.57
247.681	-34.3
247.898	27.14
248.115	20.99
248.332	43.52
248.549	-3.58
248.766	35.33
248.983	-5.63
249.2	18.94
249.417	16.9
249.633	2.56
249.85	-15.87
250.067	8.7
250.284	-19.97
250.501	-1.54
250.717	117.25
250.934	-58.88
251.151	-15.87
251.368	6.66
251.585	27.14
251.801	4.61
252.018	-36.35
252.235	-54.78
252.451	-7.68
252.668	6.66
252.885	-22.02
253.102	47.62
253.318	-15.87
253.535	-28.16
253.752	-30.21
253.968	-40.45
254.185	31.23
254.401	-17.92
254.618	31.23
254.835	8.7
255.051	51.71
255.268	-1.54
255.484	2.56
255.701	31.23
255.917	8.7
256.134	27.14
256.351	-34.3
256.567	2.56
256.784	29.18
257	-52.74
257.217	-3.58
257.433	-22.02
257.65	18.94
257.866	10.75
258.082	37.38
258.299	-5.63
258.515	27.14
258.732	-38.4
258.948	14.85
259.165	23.04
259.381	18.94
259.597	31.23
259.814	8.7
260.03	-7.68
260.246	-15.87
260.463	6.66
260.679	-58.88
260.895	94.72
261.112	47.62
261.328	57.86
261.544	-13.82
261.761	-26.11
261.977	-19.97
262.193	33.28
262.409	39.42
262.626	-44.54
262.842	-11.78
263.058	-38.4
263.274	39.42
263.49	0.51
263.707	-30.21
263.923	0.51
264.139	-13.82
264.355	45.57
264.571	-32.26
264.787	86.53
265.004	76.29
265.22	8.7
265.436	-22.02
265.652	-17.92
265.868	23.04
266.084	-34.3
266.3	-15.87
266.516	-28.16
266.732	10.75
266.948	16.9
267.164	-28.16
267.38	-9.73
267.596	43.52
267.812	23.04
268.028	31.23
268.244	-44.54
268.46	6.66
268.676	18.94
268.892	-3.58
269.108	35.33
269.324	35.33
269.54	-3.58
269.756	45.57
269.972	-9.73
270.188	-71.17
270.403	37.38
270.619	-19.97
270.835	-26.11
271.051	16.9
271.267	-36.35
271.483	35.33
271.698	35.33
271.914	68.09
272.13	-44.54
272.346	-40.45
272.562	51.71
272.777	-26.11
272.993	-5.63
273.209	-17.92
273.425	-44.54
273.64	4.61
273.856	64
274.072	10.75
274.287	51.71
274.503	37.38
274.719	53.76
274.934	4.61
275.15	-38.4
275.366	-52.74
275.581	-48.64
275.797	-7.68
276.012	18.94
276.228	39.42
276.444	31.23
276.659	-22.02
276.875	35.33
277.09	-19.97
277.306	-24.06
277.521	33.28
277.737	16.9
277.952	-9.73
278.168	47.62
278.383	2.56
278.599	-13.82
278.814	-3.58
279.03	-5.63
279.245	14.85
279.461	49.66
279.676	-36.35
279.892	29.18
280.107	16.9
280.322	-38.4
280.538	-30.21
280.753	-36.35
280.969	18.94
281.184	-38.4
281.399	-22.02
281.615	78.33
281.83	2.56
282.045	-83.45
282.26	25.09
282.476	-5.63
282.691	-17.92
282.906	-34.3
283.122	-13.82
283.337	16.9
283.552	29.18
283.767	16.9
283.983	4.61
284.198	2.56
284.413	59.9
284.628	-30.21
284.843	61.95
285.058	35.33
285.274	90.62
285.489	4.61
285.704	27.14
285.919	-5.63
286.134	43.52
286.349	10.75
286.564	92.67
286.779	14.85
286.995	-15.87
287.21	78.33
287.425	-38.4
287.64	4.61
287.855	10.75
288.07	23.04
288.285	64
288.5	-65.02
288.715	84.48
288.93	6.66
289.145	-3.58
289.36	10.75
289.575	-54.78
289.79	14.85
290.004	31.23
290.219	-62.98
290.434	-28.16
290.649	25.09
290.864	45.57
291.079	16.9
291.294	10.75
291.509	18.94
291.724	43.52
291.938	6.66
292.153	14.85
292.368	-26.11
292.583	6.66
292.798	-13.82
293.012	2.56
293.227	-44.54
293.442	-22.02
293.657	-48.64
293.871	6.66
294.086	2.56
294.301	-22.02
294.516	27.14
294.73	6.66
294.945	-38.4
295.16	29.18
295.374	47.62
295.589	-54.78
295.804	-30.21
296.018	-30.21
296.233	51.71
296.447	-3.58
296.662	-9.73
296.877	6.66
297.091	0.51
297.306	29.18
297.52	-24.06
297.735	10.75
297.949	-50.69
298.164	20.99
298.378	23.04
298.593	20.99
298.807	-75.26
299.022	-19.97
299.236	-5.63
299.451	16.9
299.665	-30.21
299.88	-32.26
300.094	-1.54
300.309	6.66
300.523	49.66
300.737	-1.54
300.952	-54.78
301.166	47.62
301.381	-26.11
301.595	-19.97
301.809	-50.69
302.024	-34.3
302.238	-44.54
302.452	-30.21
302.667	2.56
302.881	47.62
303.095	14.85
303.309	-1.54
303.524	-5.63
303.738	43.52
303.952	-42.5
304.166	-50.69
304.381	31.23
304.595	0.51
304.809	6.66
305.023	10.75
305.237	-3.58
305.452	0.51
305.666	49.66
305.88	2.56
306.094	-38.4
306.308	23.04
306.522	-42.5
306.736	-15.87
306.95	-26.11
307.164	55.81
307.379	8.7
307.593	-19.97
307.807	35.33
308.021	4.61
308.235	-22.02
308.449	27.14
308.663	-62.98
308.877	64
309.091	-7.68
309.305	90.62
309.519	0.51
309.733	39.42
309.947	20.99
310.161	20.99
310.374	-22.02
310.588	-75.26
310.802	27.14
311.016	23.04
311.23	12.8
311.444	-5.63
311.658	-69.12
311.872	33.28
312.085	-13.82
312.299	-15.87
312.513	86.53
312.727	29.18
312.941	25.09
313.154	72.19
313.368	18.94
313.582	-22.02
313.796	-22.02
314.009	-9.73
314.223	23.04
314.437	-28.16
314.651	16.9
314.864	12.8
315.078	74.24
315.292	-11.78
315.505	49.66
315.719	12.8
315.933	-44.54
316.146	-83.45
316.36	-19.97
316.573	10.75
316.787	49.66
317.001	57.86
317.214	39.42
317.428	18.94
317.641	47.62
317.855	-34.3
318.068	37.38
318.282	-7.68
318.495	10.75
318.709	-22.02
318.922	-50.69
319.136	35.33
319.349	-42.5
319.563	47.62
319.776	-42.5
319.99	68.09
320.203	-22.02
320.417	43.52
320.63	10.75
320.843	55.81
321.057	10.75
321.27	74.24
321.483	-34.3
321.697	43.52
321.91	14.85
322.124	64
322.337	-5.63
322.55	-24.06
322.763	47.62
322.977	70.14
323.19	-44.54
323.403	45.57
323.617	-3.58
323.83	20.99
324.043	61.95
324.256	6.66
324.469	4.61
324.683	-1.54
324.896	16.9
325.109	-22.02
325.322	23.04
325.535	0.51
325.748	4.61
325.962	10.75
326.175	-11.78
326.388	86.53
326.601	51.71
326.814	-1.54
327.027	0.51
327.24	18.94
327.453	-19.97
327.666	82.43
327.879	10.75
328.092	111.1
328.305	-32.26
328.518	47.62
328.731	18.94
328.944	-3.58
329.157	33.28
329.37	8.7
329.583	84.48
329.796	31.23
330.009	27.14
330.222	0.51
330.435	-5.63
330.648	10.75
330.861	53.76
331.073	29.18
331.286	-38.4
331.499	35.33
331.712	70.14
331.925	68.09
332.138	8.7
332.35	10.75
332.563	-19.97
332.776	-7.68
332.989	4.61
333.202	51.71
333.414	51.71
333.627	29.18
333.84	14.85
334.053	29.18
334.265	43.52
334.478	45.57
334.691	-1.54
334.903	18.94
335.116	6.66
335.329	27.14
335.541	-44.54
335.754	41.47
335.966	51.71
336.179	-5.63
336.392	8.7
336.604	104.96
336.817	43.52
337.029	68.09
337.242	27.14
337.454	35.33
337.667	76.29
337.88	14.85
338.092	4.61
338.305	-15.87
338.517	14.85
338.729	-11.78
338.942	31.23
339.154	18.94
339.367	55.81
339.579	-9.73
339.792	43.52
340.004	27.14
340.217	64
340.429	-34.3
340.641	2.56
340.854	37.38
341.066	-1.54
341.278	74.24
341.491	-13.82
341.703	29.18
341.915	6.66
342.128	8.7
342.34	12.8
342.552	-65.02
342.764	10.75
342.977	10.75
343.189	-7.68
343.401	-30.21
343.613	53.76
343.826	53.76
344.038	27.14
344.25	41.47
344.462	6.66
344.674	-1.54
344.886	18.94
345.099	-62.98
345.311	-60.93
345.523	43.52
345.735	-7.68
345.947	31.23
346.159	27.14
346.371	-1.54
346.583	23.04
346.795	4.61
347.007	-38.4
347.219	-5.63
347.431	61.95
347.643	49.66
347.855	6.66
348.067	86.53
348.279	-73.21
348.491	-73.21
348.703	29.18
348.915	2.56
349.127	-22.02
349.339	29.18
349.551	4.61
349.763	-32.26
349.975	-34.3
350.187	6.66
350.399	-13.82
350.61	10.75
350.822	39.42
351.034	-1.54
351.246	4.61
351.458	14.85
351.669	-17.92
351.881	2.56
352.093	-60.93
352.305	100.86
352.517	0.51
352.728	-15.87
352.94	-56.83
353.152	61.95
353.363	-42.5
353.575	18.94
353.787	18.94
353.999	31.23
354.21	-44.54
354.422	45.57
354.633	-34.3
354.845	27.14
355.057	14.85
355.268	49.66
355.48	-17.92
355.692	-38.4
355.903	-11.78
356.115	55.81
356.326	-5.63
356.538	66.05
356.749	6.66
356.961	-17.92
357.172	23.04
357.384	-42.5
357.595	53.76
357.807	59.9
358.018	33.28
358.23	-11.78
358.441	43.52
358.653	57.86
358.864	12.8
359.075	-22.02
359.287	-32.26
359.498	16.9
359.709	41.47
359.921	-13.82
360.132	-46.59
360.344	43.52
360.555	-44.54
360.766	20.99
360.977	-99.84
361.189	-44.54
361.4	78.33
361.611	43.52
361.823	25.09
362.034	57.86
362.245	25.09
362.456	35.33
362.667	-30.21
362.879	-22.02
363.09	4.61
363.301	47.62
363.512	49.66
363.723	-30.21
363.935	-3.58
364.146	74.24
364.357	98.81
364.568	23.04
364.779	-34.3
364.99	29.18
365.201	-50.69
365.412	-3.58
365.623	45.57
365.834	86.53
366.045	-60.93
366.256	25.09
366.467	-3.58
366.678	-17.92
366.889	29.18
367.1	10.75
367.311	66.05
367.522	59.9
367.733	29.18
367.944	10.75
368.155	64
368.366	18.94
368.577	51.71
368.788	25.09
368.999	18.94
369.209	51.71
369.42	10.75
369.631	33.28
369.842	-48.64
370.053	-58.88
370.264	-60.93
370.474	-1.54
370.685	76.29
370.896	6.66
371.107	-1.54
371.317	-3.58
371.528	90.62
371.739	35.33
371.95	-58.88
372.16	61.95
372.371	16.9
372.582	92.67
372.792	25.09
373.003	-13.82
373.214	-17.92
373.424	-7.68
373.635	4.61
373.846	37.38
374.056	-11.78
374.267	23.04
374.477	-1.54
374.688	37.38
374.898	84.48
375.109	57.86
375.319	68.09
375.53	-3.58
375.74	-11.78
375.951	47.62
376.161	78.33
376.372	68.09
376.582	35.33
376.793	49.66
377.003	84.48
377.214	10.75
377.424	-83.45
377.635	-11.78
377.845	31.23
378.055	-9.73
378.266	-1.54
378.476	2.56
378.686	-26.11
378.897	37.38
379.107	25.09
379.317	12.8
379.528	-7.68
379.738	-28.16
379.948	-32.26
380.158	29.18
380.369	-17.92
380.579	64
380.789	-38.4
380.999	43.52
381.21	2.56
381.42	72.19
381.63	43.52
381.84	-1.54
382.05	61.95
382.261	14.85
382.471	49.66
382.681	-7.68
382.891	-30.21
383.101	-50.69
383.311	23.04
383.521	74.24
383.731	27.14
383.941	-15.87
384.151	61.95
384.361	84.48
384.571	29.18
384.781	37.38
384.991	45.57
385.201	43.52
385.411	18.94
385.621	84.48
385.831	18.94
386.041	29.18
386.251	-30.21
386.461	64
386.671	14.85
386.881	-28.16
387.091	-19.97
387.301	68.09
387.511	-28.16
387.72	49.66
387.93	57.86
388.14	-15.87
388.35	6.66
388.56	59.9
388.769	41.47
388.979	45.57
389.189	14.85
389.399	109.05
389.609	2.56
389.818	20.99
390.028	39.42
390.238	45.57
390.447	35.33
390.657	45.57
390.867	-15.87
391.076	14.85
391.286	35.33
391.496	4.61
391.705	18.94
391.915	80.38
392.125	29.18
392.334	80.38
392.544	31.23
392.753	31.23
392.963	-30.21
393.172	31.23
393.382	4.61
393.591	35.33
393.801	37.38
394.01	49.66
394.22	-30.21
394.429	66.05
394.639	-22.02
394.848	68.09
395.058	88.57
395.267	-7.68
395.477	6.66
395.686	25.09
395.895	20.99
396.105	107.01
396.314	68.09
396.524	12.8
396.733	4.61
396.942	2.56
397.152	59.9
397.361	49.66
397.57	61.95
397.78	64
397.989	86.53
398.198	127.49
398.407	37.38
398.617	8.7
398.826	-46.59
399.035	33.28
399.244	-54.78
399.453	90.62
399.663	80.38
399.872	84.48
400.081	18.94
400.29	51.71
400.499	18.94
400.708	6.66
400.917	-3.58
401.127	84.48
401.336	-5.63
401.545	82.43
401.754	33.28
401.963	107.01
402.172	129.53
402.381	-32.26
402.59	14.85
402.799	90.62
403.008	94.72
403.217	-19.97
403.426	86.53
403.635	12.8
403.844	23.04
404.053	107.01
404.262	49.66
404.471	43.52
404.68	156.16
404.888	129.53
405.097	4.61
405.306	41.47
405.515	53.76
405.724	78.33
405.933	53.76
406.142	117.25
406.35	61.95
406.559	-7.68
406.768	113.15
406.977	186.88
407.185	80.38
407.394	8.7
407.603	129.53
407.812	182.78
408.02	182.78
408.229	129.53
408.438	133.63
408.646	160.25
408.855	125.44
409.064	186.88
409.272	98.81
409.481	125.44
409.69	137.73
409.898	82.43
410.107	158.21
410.315	113.15
410.524	145.92
410.733	174.59
410.941	166.4
411.15	203.26
411.358	190.97
411.567	211.45
411.775	266.75
411.984	199.16
412.192	231.93
412.401	320
412.609	215.55
412.818	287.23
413.026	268.8
413.234	227.84
413.443	303.61
413.651	328.19
413.86	281.08
414.068	283.13
414.276	332.28
414.485	313.85
414.693	311.8
414.901	276.99
415.11	348.67
415.318	434.68
415.526	317.95
415.734	371.19
415.943	354.81
416.151	401.91
416.359	360.95
416.567	422.39
416.776	442.87
416.984	469.5
417.192	412.15
417.4	477.69
417.608	453.11
417.817	494.07
418.025	510.46
418.233	641.53
418.441	492.02
418.649	477.69
418.857	610.81
419.065	674.29
419.273	680.44
419.481	686.58
419.689	713.21
419.897	748.02
420.105	827.89
420.313	758.26
420.521	797.17
420.729	772.6
420.937	850.42
421.145	860.66
421.353	911.86
421.561	1018.35
421.769	1047.02
421.977	1028.59
422.185	1018.35
422.393	1026.54
422.601	1102.32
422.809	1202.67
423.017	1163.76
423.224	1217.01
423.432	1262.06
423.64	1286.64
423.848	1450.47
424.056	1337.84
424.263	1384.94
424.471	1419.75
424.679	1561.06
424.887	1522.15
425.094	1630.7
425.302	1513.96
425.51	1626.6
425.718	1698.28
425.925	1753.57
426.133	1733.09
426.341	1886.69
426.548	2040.29
426.756	1997.28
426.964	1939.94
427.171	2118.11
427.379	2316.76
427.586	2181.6
427.794	2267.61
428.001	2474.46
428.209	2550.23
428.417	2460.12
428.624	2658.78
428.832	2615.77
429.039	2521.56
429.247	2537.95
429.454	2904.53
429.662	3078.61
429.869	2779.61
430.076	3023.31
430.284	2953.68
430.491	3043.79
430.699	3140.05
430.906	3318.22
431.114	3357.13
431.321	3381.71
431.528	3463.63
431.736	3652.04
431.943	3977.67
432.15	3875.27
432.358	3944.9
432.565	4010.43
432.772	4000.19
432.979	4239.81
433.187	4192.7
433.394	4504
433.601	4534.71
433.808	4628.92
434.016	4614.59
434.223	4923.83
434.43	5061.04
434.637	4940.21
434.844	5284.27
435.052	5507.5
435.259	5566.89
435.466	5454.25
435.673	5564.84
435.88	5824.94
436.087	6078.88
436.294	6058.4
436.501	5908.9
436.708	5878.18
436.915	6437.28
437.122	6490.52
437.329	6549.92
437.537	6746.52
437.743	6848.92
437.95	6783.38
438.157	7014.8
438.364	7207.31
438.571	7473.55
438.778	7336.34
438.985	8069.51
439.192	7702.92
439.399	8042.89
439.606	7858.57
439.813	8413.57
440.02	8831.35
440.227	8720.76
440.433	8544.64
440.64	8927.61
440.847	8718.71
441.054	8960.38
441.261	9623.92
441.467	9673.07
441.674	9609.58
441.881	10070.37
442.088	10076.52
442.294	10013.03
442.501	10129.77
442.708	10365.28
442.914	10895.71
443.121	11567.44
443.328	11108.69
443.534	11628.88
443.741	11565.39
443.948	11229.52
444.154	12265.8
444.361	12052.81
444.568	12273.99
444.774	12325.19
444.981	12374.34
445.187	12636.48
445.394	13123.9
445.6	13197.62
445.807	14422.31
446.013	13916.46
446.22	14158.12
446.426	14633.25
446.633	14477.6
446.839	15208.73
447.046	14670.11
447.252	15182.1
447.459	15376.66
447.665	15517.97
447.871	16132.36
448.078	16881.92
448.284	15989
448.491	16331.01
448.697	16972.03
448.903	17385.72
449.11	17555.7
449.316	17287.42
449.522	17594.61
449.728	17912.05
449.935	18082.03
450.141	18139.37
450.347	18620.64
450.553	18120.94
450.76	18145.52
450.966	19171.55
451.172	18559.2
451.378	19110.11
451.584	18522.34
451.791	19273.95
451.997	19122.4
452.203	19638.48
452.409	19716.31
452.615	19478.74
452.821	18708.71
453.027	18606.31
453.233	19661.01
453.44	18655.46
453.646	19212.51
453.852	19159.26
454.058	19587.29
454.264	18860.26
454.47	19353.82
454.676	18712.8
454.882	19437.78
455.088	17877.23
455.294	18106.6
455.5	18211.05
455.705	18782.43
455.911	17979.63
456.117	17311.99
456.323	17125.63
456.529	16314.63
456.735	17070.33
456.941	16597.25
457.147	16470.28
457.352	16128.27
457.558	15700.24
457.764	15700.24
457.97	15253.78
458.176	15249.69
458.381	15374.61
458.587	14244.13
458.793	14414.12
458.999	13441.33
459.204	14709.02
459.41	14262.57
459.616	13439.28
459.821	13478.19
460.027	13273.4
460.233	12763.45
460.438	12501.31
460.644	12466.5
460.85	12030.28
461.055	11897.16
461.261	11694.41
461.466	10690.91
461.672	10746.2
461.878	11467.09
462.083	10473.82
462.289	10340.71
462.494	10385.76
462.7	9791.85
462.905	9578.86
463.111	10068.33
463.316	9804.14
463.522	9476.46
463.727	9699.69
463.932	9720.17
464.138	9488.75
464.343	9365.87
464.549	9353.59
464.754	9630.06
464.959	9478.51
465.165	9509.23
465.37	9169.27
465.575	8864.12
465.781	9040.25
465.986	9253.23
466.191	8812.92
466.397	8843.64
466.602	8135.04
466.807	8468.86
467.012	8683.9
467.218	8761.72
467.423	8440.19
467.628	8567.17
467.833	9023.86
468.038	8538.49
468.244	8225.15
468.449	8671.61
468.654	8229.25
468.859	8372.61
469.064	8235.39
469.269	8032.65
469.474	7983.49
469.679	8266.11
469.885	8079.75
470.09	8049.03
470.295	7907.72
470.5	7928.2
470.705	7993.73
470.91	7805.32
471.115	7670.15
471.32	7788.94
471.525	7725.45
471.73	7395.73
471.935	7426.45
472.139	7410.06
472.344	7424.4
472.549	7139.73
472.754	7203.22
472.959	6977.94
473.164	6941.08
473.369	6680.99
473.574	7201.17
473.778	7006.61
473.983	6984.09
474.188	6853.02
474.393	6685.08
474.598	6707.61
474.802	6570.4
475.007	6476.19
475.212	6468
475.417	6343.07
475.621	6310.3
475.826	6300.06
476.031	6111.65
476.235	6115.75
476.44	6271.39
476.645	6144.42
476.849	6033.83
477.054	5857.7
477.259	6158.75
477.463	5941.67
477.668	5740.97
477.872	5783.98
478.077	5839.27
478.282	5583.27
478.486	5648.81
478.691	5605.8
478.895	5489.07
479.1	5548.46
479.304	5446.06
479.509	5175.73
479.713	5433.77
479.918	5261.74
480.122	5435.82
480.326	5208.5
480.531	5417.39
480.735	5226.93
480.94	5261.74
481.144	5396.91
481.348	5083.57
481.553	5280.18
481.757	5097.91
481.961	5175.73
482.166	5099.95
482.37	5173.68
482.574	5018.04
482.778	5128.63
482.983	5312.94
483.187	5163.44
483.391	5081.52
483.595	5028.28
483.8	5038.52
484.004	5099.95
484.208	5085.62
484.412	5011.89
484.616	5169.59
484.821	4968.88
485.025	4987.32
485.229	5175.73
485.433	5142.96
485.637	5202.35
485.841	5007.8
486.045	5073.33
486.249	5261.74
486.453	5036.47
486.657	5110.19
486.861	5011.89
487.065	5079.47
487.269	5091.76
487.473	5001.65
487.677	5108.15
487.881	5138.87
488.085	5065.14
488.289	5093.81
488.493	5134.77
488.697	5208.5
488.901	5231.02
489.105	5120.43
489.309	5188.02
489.512	5159.35
489.716	5022.13
489.92	5188.02
490.124	5110.19
490.328	5286.32
490.531	5149.11
490.735	5194.16
490.939	5255.6
491.143	5206.45
491.346	5153.2
491.55	5259.7
491.754	5276.08
491.958	5534.12
492.161	5290.42
492.365	5425.58
492.569	5540.27
492.772	5573.03
492.976	5538.22
493.18	5632.43
493.383	5441.96
493.587	5560.75
493.79	5650.86
493.994	5616.04
494.197	5788.07
494.401	5765.54
494.605	5826.98
494.808	6089.12
495.012	5994.92
495.215	5845.41
495.419	5974.44
495.622	5939.62
495.825	6140.32
496.029	5935.53
496.232	6318.5
496.436	6177.19
496.639	6322.59
496.843	6396.32
497.046	6332.83
497.249	6445.47
497.453	6539.68
497.656	6478.24
497.859	6611.36
498.063	6754.71
498.266	6719.9
498.469	6820.25
498.673	6930.84
498.876	7152.02
499.079	7197.07
499.282	7139.73
499.485	7319.95
499.689	7289.23
499.892	7424.4
500.095	7463.31
500.298	7610.76
500.501	7580.04
500.705	7827.85
500.908	7827.85
501.111	8020.36
501.314	8133
501.517	8092.04
501.72	8202.63
501.923	8180.1
502.126	8540.54
502.329	8573.31
502.532	8530.3
502.735	8778.11
502.938	8776.06
503.141	8782.2
503.344	8925.56
503.547	8974.71
503.75	9341.3
503.953	9363.83
504.156	9478.51
504.359	9687.4
504.562	9496.94
504.765	9877.87
504.968	9783.66
505.17	10097
505.373	10025.32
505.576	10230.12
505.779	10412.39
505.982	10547.55
506.185	10768.73
506.387	10770.78
506.59	10914.14
506.793	11116.89
506.996	11047.26
507.198	11426.13
507.401	11329.88
507.604	11440.47
507.807	11563.34
508.009	11858.25
508.212	11968.84
508.415	11977.03
508.617	12323.14
508.82	12061
509.022	12140.87
509.225	12800.32
509.428	12775.74
509.63	12964.15
509.833	12910.91
510.035	13236.53
510.238	13058.36
510.44	13281.59
510.643	13615.41
510.845	13711.66
511.048	13664.56
511.25	13764.91
511.453	13994.28
511.655	14598.43
511.858	14436.64
512.06	14596.39
512.262	14688.54
512.465	14598.43
512.667	15184.15
512.87	15251.74
513.072	15198.49
513.274	15493.4
513.477	15632.66
513.679	15769.87
513.881	16042.25
514.084	16208.14
514.286	16267.53
514.488	16392.45
514.69	16822.53
514.893	16800
515.095	17121.53
515.297	17336.57
515.499	17395.96
515.701	17561.84
515.904	17416.44
516.106	17897.71
516.308	17895.66
516.51	18176.23
516.712	18354.41
516.914	18419.94
517.116	19058.91
517.318	18843.87
517.52	19196.12
517.722	19212.51
517.925	19503.32
518.127	19785.94
518.329	19847.38
518.531	19962.06
518.733	20142.28
518.935	20357.32
519.136	20252.87
519.338	20854.98
519.54	20895.94
519.742	21063.87
519.944	21168.32
520.146	21551.29
520.348	21594.29
520.55	21745.84
520.752	21760.18
520.954	22364.33
521.155	22075.57
521.357	22591.66
521.559	22268.08
521.761	23175.33
521.963	22692.01
522.164	22868.13
522.366	23605.4
522.568	23632.02
522.77	23670.93
522.971	23830.68
523.173	23756.95
523.375	23804.05
523.576	24146.06
523.778	24240.27
523.98	24631.43
524.181	24475.79
524.383	24604.81
524.584	25247.87
524.786	25057.41
524.988	25075.84
525.189	25438.33
525.391	25573.5
525.592	25415.8
525.794	25524.35
525.995	25827.45
526.197	25847.93
526.398	25970.8
526.6	26028.15
526.801	26175.6
527.003	26402.93
527.204	26341.49
527.406	26478.7
527.607	26482.8
527.808	26968.16
528.01	26208.37
528.211	26503.28
528.412	27172.96
528.614	26906.73
528.815	27056.23
529.016	27486.3
529.218	26980.45
529.419	27504.73
529.62	27465.82
529.822	27351.13
530.023	27504.73
530.224	27662.43
530.425	27490.4
530.626	27277.41
530.828	27420.77
531.029	27799.64
531.23	27764.82
531.431	27545.69
531.632	27719.77
531.833	28051.54
532.035	27709.53
532.236	27895.89
532.437	27918.42
532.638	28086.36
532.839	28217.43
533.04	28000.34
533.241	28000.34
533.442	28381.26
533.643	28338.26
533.844	28213.33
534.045	28516.43
534.246	27994.2
534.447	28223.57
534.648	27992.15
534.849	28252.24
535.05	28278.86
535.251	28194.9
535.451	28252.24
535.652	28481.61
535.853	28526.67
536.054	28436.56
536.255	28475.47
536.456	28371.02
536.657	28313.68
536.857	28586.06
537.058	28137.55
537.259	28741.71
537.46	28409.93
537.66	28475.47
537.861	28493.9
538.062	28534.86
538.263	28471.37
538.463	28153.94
538.664	28448.85
538.865	28383.31
539.065	28115.03
539.266	28225.62
539.466	28692.55
539.667	28422.22
539.868	28328.02
540.068	28301.39
540.269	28266.58
540.469	28813.38
540.67	28407.89
540.87	28473.42
541.071	28481.61
541.271	28366.93
541.472	28188.75
541.672	28399.69
541.873	28137.55
542.073	28063.83
542.274	28817.48
542.474	28643.4
542.675	28100.69
542.875	28518.48
543.075	28596.3
543.276	27889.75
543.476	28518.48
543.676	28295.25
543.877	28459.09
544.077	28086.36
544.277	28219.47
544.478	28342.35
544.678	28346.45
544.878	28307.54
545.078	28211.28
545.279	28276.82
545.479	28258.38
545.679	28422.22
545.879	28248.14
546.079	28024.92
546.28	28010.58
546.48	27912.28
546.68	28313.68
546.88	28274.77
547.08	28295.25
547.28	27895.89
547.48	28176.47
547.68	28299.34
547.88	28031.06
548.081	28393.55
548.281	28328.02
548.481	28029.01
548.681	28295.25
548.881	28096.6
549.081	28211.28
549.28	27994.2
549.48	28371.02
549.68	28319.82
549.88	28483.66
550.08	28096.6
550.28	28289.1
550.48	27988.05
550.68	28350.54
550.88	28020.82
551.08	27899.99
551.279	27928.66
551.479	27945.05
551.679	28264.53
551.879	27807.83
552.079	27910.23
552.278	27799.64
552.478	28047.44
552.678	28252.24
552.878	28330.06
553.077	28029.01
553.277	27795.54
553.477	28342.35
553.676	27967.57
553.876	27674.71
554.076	28235.86
554.275	27844.7
554.475	27600.99
554.674	28004.44
554.874	27844.7
555.074	27801.69
555.273	27736.15
555.473	27936.85
555.672	27523.16
555.872	27521.12
556.071	27971.67
556.271	28037.2
556.47	27441.25
556.67	27742.3
556.869	27248.74
557.068	27658.33
557.268	27551.84
557.467	27588.7
557.667	27684.95
557.866	27441.25
558.065	27140.19
558.265	27330.65
558.464	27025.51
558.663	27390.05
558.863	27099.23
559.062	27664.47
559.261	27211.87
559.461	27279.46
559.66	27185.25
559.859	26914.92
560.058	26839.14
560.258	27258.98
560.457	26818.66
560.656	27273.31
560.855	26751.08
561.054	27097.19
561.253	26871.91
561.453	26658.92
561.652	26953.83
561.851	27236.45
562.05	26845.29
562.249	26763.37
562.448	26787.94
562.647	26773.61
562.846	26677.35
563.045	26634.35
563.244	26345.58
563.443	26640.49
563.642	26073.2
563.841	26499.18
564.04	26400.88
564.239	26404.97
564.438	26015.86
564.637	26278
564.836	26470.51
565.035	25843.83
565.234	25938.04
565.432	26327.15
565.631	25849.97
565.83	26099.83
566.029	25677.94
566.228	25835.64
566.427	25940.08
566.625	25710.71
566.824	25491.58
567.023	25882.74
567.222	25305.21
567.42	26003.57
567.619	25698.42
567.818	25237.63
568.016	25333.89
568.215	25679.99
568.414	25319.55
568.612	25634.94
568.811	25155.71
569.01	25268.35
569.208	24930.44
569.407	24893.57
569.605	24821.89
569.804	24971.39
570.002	25018.5
570.201	24905.86
570.4	24613
570.598	24717.45
570.797	24846.47
570.995	24877.19
571.193	24443.02
571.392	24522.89
571.59	24211.6
571.789	24211.6
571.987	24246.41
572.186	23988.37
572.384	23767.19
572.582	24285.33
572.781	24451.21
572.979	23961.75
573.177	24197.26
573.376	24268.94
573.574	23683.22
573.772	23949.46
573.971	23908.5
574.169	23709.85
574.367	23322.78
574.565	23550.1
574.763	23445.66
574.962	23158.94
575.16	23105.7
575.358	23677.08
575.556	23124.13
575.754	23548.06
575.952	23001.25
576.151	23228.57
576.349	22933.67
576.547	22798.5
576.745	22868.13
576.943	23038.11
577.141	22685.86
577.339	22911.14
577.537	22892.71
577.735	22796.45
577.933	22212.78
578.131	22712.49
578.329	22663.33
578.527	22317.23
578.725	22206.64
578.923	22415.53
579.121	22137.01
579.319	22134.96
579.516	22481.06
579.714	22372.52
579.912	22161.58
580.11	21991.6
580.308	21815.48
580.506	21926.07
580.704	21487.8
580.901	21889.2
581.099	22040.75
581.297	21233.85
581.495	21313.72
581.692	21455.03
581.89	21207.23
582.088	21383.35
582.285	21536.95
582.483	21309.63
582.681	20973.76
582.878	21315.77
583.076	20977.86
583.274	21221.56
583.471	20809.92
583.669	20959.42
583.866	20859.07
584.064	21020.86
584.262	20562.12
584.459	20857.03
584.657	20848.83
584.854	21020.86
585.052	20666.56
585.249	20801.73
585.447	20598.98
585.644	20281.55
585.841	20416.71
586.039	20623.56
586.236	20125.9
586.434	20084.94
586.631	20123.85
586.828	20334.79
587.026	19841.23
587.223	20031.69
587.42	19572.95
587.618	19577.05
587.815	19591.38
588.012	19759.31
588.21	19820.75
588.407	19661.01
588.604	19693.78
588.801	19591.38
588.999	19544.28
589.196	19542.23
589.393	19298.52
589.59	19335.38
589.787	19349.72
589.984	18979.04
590.182	19249.37
590.379	19251.42
590.576	18862.3
590.773	19167.45
590.97	18823.39
591.167	19032.29
591.364	18751.71
591.561	18847.97
591.758	18542.82
591.955	18639.08
592.152	18626.79
592.349	18606.31
592.546	18647.27
592.743	18428.13
592.94	18061.55
593.137	18479.33
593.334	18516.2
593.531	18184.43
593.727	18421.99
593.924	18315.5
594.121	18145.52
594.318	18120.94
594.515	17703.15
594.712	17987.82
594.908	17819.89
595.105	17756.4
595.302	18020.59
595.499	17977.58
595.696	17477.88
595.892	17692.91
596.089	17946.86
596.286	17594.61
596.482	17617.14
596.679	17488.12
596.876	17443.06
597.072	17279.22
597.269	17563.89
597.466	17236.22
597.662	17074.43
597.859	17131.77
598.055	17105.15
598.252	17027.32
598.448	17031.42
598.645	16937.21
598.841	16701.7
599.038	16763.14
599.234	17037.56
599.431	16568.58
599.627	16640.26
599.824	16816.38
600.02	16496.9
600.217	16650.5
600.413	16627.97
600.609	16425.22
600.806	16576.77
601.002	16824.58
601.198	16324.87
601.395	16228.62
601.591	16285.96
601.787	16177.42
601.984	16029.96
602.18	16032.01
602.376	15923.47
602.572	15902.99
602.769	16070.92
602.965	16001.29
603.161	15882.51
603.357	15880.46
603.553	15917.33
603.75	15718.67
603.946	15667.47
604.142	15796.49
604.338	15311.13
604.534	15806.73
604.73	15270.17
604.926	15509.78
605.122	15509.78
605.318	15257.88
605.514	15104.28
605.71	15178.01
605.906	15452.44
606.102	15108.38
606.298	14885.15
606.494	15171.86
606.69	15010.07
606.886	15087.9
607.082	14668.06
607.278	15145.24
607.474	15026.46
607.67	14938.4
607.866	14852.38
608.062	14879
608.257	14762.27
608.453	14897.44
608.649	14786.85
608.845	14293.29
609.041	14373.16
609.236	14559.52
609.432	14610.72
609.628	14610.72
609.824	14510.37
610.019	14332.2
610.215	14588.19
610.411	14119.21
610.606	14338.34
610.802	14240.04
610.998	14385.44
611.193	14483.75
611.389	14205.22
611.584	14006.57
611.78	13941.04
611.976	14049.58
612.171	13769.01
612.367	14074.15
612.562	13887.79
612.758	13728.05
612.953	13934.89
613.149	13992.23
613.344	13936.94
613.539	14027.05
613.735	13742.38
613.93	13994.28
614.126	13848.88
614.321	13695.28
614.517	13719.85
614.712	13990.19
614.907	13783.34
615.103	13723.95
615.298	13506.87
615.493	13758.77
615.688	13422.9
615.884	13713.71
616.079	13308.21
616.274	13564.21
616.47	13586.74
616.665	13345.08
616.86	13392.18
617.055	13357.36
617.25	13158.71
617.445	13119.8
617.641	13332.79
617.836	13263.16
618.031	13121.85
618.226	13242.68
618.421	13125.94
618.616	13236.53
618.811	13048.12
619.006	13017.4
619.201	12800.32
619.396	12857.66
619.591	12601.66
619.786	12794.17
619.981	12710.21
620.176	12792.12
620.371	12689.73
620.566	12515.65
620.761	12476.74
620.956	12386.63
621.151	12202.31
621.346	12374.34
621.541	12032.33
621.735	12255.56
621.93	11991.37
622.125	12173.64
622.32	11841.87
622.515	11901.26
622.709	11944.27
622.904	11800.91
623.099	11645.26
623.294	11663.69
623.488	11706.7
623.683	11604.3
623.878	11465.04
624.072	11696.46
624.267	11362.64
624.462	11118.93
624.656	11258.2
624.851	11102.55
625.046	11553.1
625.24	11198.81
625.435	11075.93
625.629	11051.35
625.824	11086.17
626.018	10701.15
626.213	10903.9
626.407	10830.17
626.602	10578.27
626.796	10772.83
626.991	10752.35
627.185	10455.39
627.38	10469.73
627.574	10340.71
627.768	10228.07
627.963	10498.4
628.157	10068.33
628.352	10373.47
628.546	9957.74
628.74	10279.27
628.935	9980.26
629.129	10293.6
629.323	9890.15
629.517	9791.85
629.712	9562.48
629.906	9865.58
630.1	9619.82
630.294	9709.93
630.489	9613.68
630.683	9509.23
630.877	9601.39
631.071	9591.15
631.265	9593.2
631.459	9574.77
631.653	9210.23
631.848	9425.26
632.042	9249.14
632.236	9296.24
632.43	9126.26
632.624	9179.51
632.818	9052.53
633.012	8927.61
633.206	9030.01
633.4	8978.81
633.594	8751.48
633.788	8892.79
633.982	8843.64
634.176	8722.81
634.369	8692.09
634.563	8518.01
634.757	8657.28
634.951	8587.64
635.145	8388.99
635.339	8530.3
635.533	8477.05
635.726	8350.08
635.92	8206.72
636.114	8341.89
636.308	8333.7
636.501	8204.67
636.695	8190.34
636.889	8243.59
637.083	7989.64
637.276	8264.07
637.47	8063.36
637.664	7897.48
637.857	7973.25
638.051	8012.17
638.244	7627.15
638.438	7827.85
638.632	7762.31
638.825	7559.56
639.019	7735.69
639.212	7418.25
639.406	7518.61
639.599	7561.61
639.793	7451.02
639.986	7414.16
640.18	7506.32
640.373	7369.1
640.567	7457.17
640.76	7352.72
640.954	7405.97
641.147	7199.12
641.34	7207.31
641.534	7111.06
641.727	7242.13
641.92	6988.18
642.114	7086.48
642.307	7072.15
642.5	6822.3
642.694	6734.23
642.887	6810.01
643.08	6846.87
643.273	6744.47
643.467	6750.62
643.66	6652.31
643.853	6623.64
644.046	6463.9
644.239	6689.18
644.432	6728.09
644.626	6429.09
644.819	6472.09
645.012	6381.98
645.205	6508.96
645.398	6435.23
645.591	6250.91
645.784	6214.05
645.977	6205.86
646.17	6195.62
646.363	6181.28
646.556	6097.31
646.749	6273.44
646.942	6109.6
647.135	6078.88
647.328	6068.64
647.521	6046.12
647.714	5902.76
647.907	5765.54
648.099	5794.22
648.292	5982.63
648.485	5722.54
648.678	5769.64
648.871	5773.74
649.064	5652.91
649.256	5644.71
649.449	5695.91
649.642	5577.13
649.835	5595.56
650.027	5546.41
650.22	5509.55
650.413	5550.51
650.605	5360.05
650.798	5417.39
650.991	5306.8
651.183	5403.05
651.376	5509.55
651.568	5290.42
651.761	5310.89
651.954	5190.06
652.146	5274.03
652.339	5255.6
652.531	5183.92
652.724	5083.57
652.916	4925.88
653.109	5108.15
653.301	5034.42
653.494	5065.14
653.686	4917.68
653.879	5095.86
654.071	4899.25
654.263	4895.16
654.456	4907.45
654.648	4843.96
654.84	4809.14
655.033	4817.33
655.225	4749.75
655.417	4755.9
655.61	4727.22
655.802	4682.17
655.994	4721.08
656.186	4608.44
656.379	4600.25
656.571	4573.63
656.763	4616.63
656.955	4467.13
657.148	4512.19
657.34	4432.32
657.532	4602.3
657.724	4499.9
657.916	4393.4
658.108	4444.6
658.3	4350.4
658.492	4391.36
658.684	4403.64
658.876	4174.27
659.068	4403.64
659.26	4331.97
659.452	4272.57
659.644	4262.33
659.836	4155.84
660.028	4133.31
660.22	4151.74
660.412	4114.88
660.604	4104.64
660.796	4053.44
660.988	4037.06
661.18	3967.43
661.372	3903.94
661.563	4051.39
661.755	3934.66
661.947	3916.23
662.139	3889.6
662.331	3987.91
662.522	3774.92
662.714	3781.06
662.906	3826.12
663.097	3844.55
663.289	3772.87
663.481	3631.56
663.673	3865.03
663.864	3748.29
664.056	3729.86
664.247	3561.93
664.439	3672.52
664.631	3606.98
664.822	3576.27
665.014	3662.28
665.205	3654.09
665.397	3428.81
665.588	3623.37
665.78	3484.11
665.971	3463.63
666.163	3488.2
666.354	3529.16
666.546	3574.22
666.737	3465.68
666.929	3568.07
667.12	3385.8
667.311	3445.2
667.503	3209.68
667.694	3269.07
667.885	3187.15
668.077	3232.21
668.268	3170.77
668.459	3271.12
668.651	3230.16
668.842	3219.92
669.033	3256.78
669.224	3054.03
669.416	3088.85
669.607	3250.64
669.798	3248.59
669.989	3170.77
670.18	3244.49
670.371	3148.24
670.563	3041.75
670.754	3205.58
670.945	3019.22
671.136	3011.03
671.327	2912.72
671.518	3058.13
671.709	3029.46
671.9	3086.8
672.091	2990.55
672.282	3045.84
672.473	2916.82
672.664	2968.02
672.855	2968.02
673.046	2845.14
673.237	2988.5
673.428	2877.91
673.619	2916.82
673.809	2701.78
674	2968.02
674.191	2871.76
674.382	2916.82
674.573	2839
674.764	2802.13
674.954	2816.47
675.145	2812.37
675.336	2775.51
675.527	2734.55
675.717	2744.79
675.908	2650.58
676.099	2845.14
676.289	2697.69
676.48	2802.13
676.671	2757.08
676.861	2828.76
677.052	2759.13
677.243	2632.15
677.433	2623.96
677.624	2894.29
677.814	2617.82
678.005	2644.44
678.195	2689.49
678.386	2671.06
678.576	2664.92
678.767	2685.4
678.957	2724.31
679.148	2591.19
679.338	2578.9
679.529	2609.62
679.719	2521.56
679.909	2583
680.1	2683.35
680.29	2523.61
680.481	2611.67
680.671	2521.56
680.861	2685.4
681.052	2623.96
681.242	2671.06
681.432	2607.58
681.622	2505.18
681.813	2445.79
682.003	2486.75
682.193	2458.07
682.383	2609.62
682.573	2550.23
682.764	2562.52
682.954	2507.23
683.144	2484.7
683.334	2583
683.524	2496.99
683.714	2509.27
683.904	2464.22
684.094	2488.79
684.284	2372.06
684.474	2382.3
684.664	2568.66
684.854	2466.27
685.044	2523.61
685.234	2238.94
685.424	2494.94
685.614	2484.7
685.804	2537.95
685.994	2462.17
686.184	2453.98
686.374	2560.47
686.564	2470.36
686.753	2361.82
686.943	2476.51
687.133	2417.12
687.323	2347.48
687.513	2388.44
687.702	2353.63
687.892	2304.48
688.082	2310.62
688.272	2351.58
688.461	2402.78
688.651	2423.26
688.841	2519.51
689.03	2394.59
689.22	2361.82
689.41	2423.26
689.599	2312.67
689.789	2382.3
689.979	2378.2
690.168	2398.68
690.358	2271.71
690.547	2302.43
690.737	2406.88
690.926	2406.88
691.116	2126.3
691.305	2306.52
691.495	2257.37
691.684	2271.71
691.874	2353.63
692.063	2202.08
692.252	2365.92
692.442	2331.1
692.631	2218.46
692.82	2331.1
693.01	2292.19
693.199	2068.96
693.388	2177.5
693.578	2200.03
693.767	2175.45
693.956	2288.09
694.146	2208.22
694.335	2138.59
694.524	2218.46
694.713	2163.17
694.902	2226.65
695.092	2177.5
695.281	2148.83
695.47	2228.7
695.659	2107.87
695.848	2132.45
696.037	2122.21
696.226	2126.3
696.415	2152.93
696.604	2075.1
696.793	2101.73
696.982	2181.6
697.171	2124.26
697.36	2157.02
697.549	2124.26
697.738	2105.82
697.927	2036.19
698.116	2066.91
698.305	2052.58
698.494	2105.82
698.683	2095.58
698.872	2005.47
699.061	2095.58
699.25	2077.15
699.438	2044.38
699.627	2105.82
699.816	2068.96
700.005	2187.74
700.193	2085.34
700.382	2101.73
700.571	1917.41
700.76	2023.91
700.948	2058.72
701.137	2023.91
701.326	2050.53
701.514	2028
701.703	2003.43
701.892	1993.19
702.08	2058.72
702.269	1944.03
702.457	1927.65
702.646	1980.9
702.834	1960.42
703.023	1993.19
703.212	1984.99
703.4	1970.66
703.589	1931.75
703.777	1954.27
703.965	2054.62
704.154	1989.09
704.342	2007.52
704.531	1864.16
704.719	1987.04
704.907	2019.81
705.096	1937.89
705.284	1968.61
705.472	1896.93
705.661	1941.99
705.849	1905.12
706.037	1892.84
706.226	1866.21
706.414	1903.07
706.602	1968.61
706.79	1808.87
706.979	1855.97
707.167	1968.61
707.355	1905.12
707.543	1915.36
707.731	2017.76
707.919	1909.22
708.107	1792.48
708.296	1726.95
708.484	1823.2
708.672	1837.54
708.86	1888.74
709.048	1839.59
709.236	1878.5
709.424	1903.07
709.612	1833.44
709.8	1796.58
709.988	1876.45
710.176	1868.26
710.364	1724.9
710.551	1716.71
710.739	1741.29
710.927	1763.81
711.115	1739.24
711.303	1839.59
711.491	1767.91
711.679	1774.05
711.866	1792.48
712.054	1774.05
712.242	1718.76
712.43	1757.67
712.617	1708.52
712.805	1739.24
712.993	1663.46
713.181	1671.65
713.368	1823.2
713.556	1685.99
713.744	1722.85
713.931	1708.52
714.119	1681.89
714.306	1733.09
714.494	1626.6
714.682	1673.7
714.869	1737.19
715.057	1575.4
715.244	1581.54
715.432	1694.18
715.619	1759.72
715.807	1626.6
715.994	1710.57
716.182	1665.51
716.369	1698.28
716.556	1649.13
716.744	1507.82
716.931	1667.56
717.119	1587.69
717.306	1550.82
717.493	1585.64
717.681	1561.06
717.868	1673.7
718.055	1690.09
718.242	1690.09
718.43	1583.59
718.617	1559.02
718.804	1618.41
718.991	1579.5
719.179	1534.44
719.366	1599.98
719.553	1616.36
719.74	1534.44
719.927	1612.26
720.114	1563.11
720.301	1575.4
720.488	1565.16
720.676	1554.92
720.863	1624.55
721.05	1505.77
721.237	1604.07
721.424	1585.64
721.611	1599.98
721.798	1479.15
721.985	1538.54
722.172	1606.12
722.358	1561.06
722.545	1548.78
722.732	1526.25
722.919	1520.1
723.106	1366.51
723.293	1468.91
723.48	1520.1
723.667	1546.73
723.853	1575.4
724.04	1473
724.227	1561.06
724.414	1485.29
724.6	1577.45
724.787	1489.39
724.974	1470.95
725.161	1503.72
725.347	1458.67
725.534	1438.19
725.72	1364.46
725.907	1436.14
726.094	1520.1
726.28	1522.15
726.467	1419.75
726.653	1419.75
726.84	1346.03
727.027	1442.28
727.213	1470.95
727.4	1417.71
727.586	1409.51
727.773	1544.68
727.959	1454.57
728.145	1468.91
728.332	1380.84
728.518	1473
728.705	1511.91
728.891	1456.62
729.077	1436.14
729.264	1444.33
729.45	1343.98
729.636	1389.03
729.823	1395.18
730.009	1403.37
730.195	1450.47
730.382	1401.32
730.568	1325.55
730.754	1446.38
730.94	1395.18
731.126	1380.84
731.313	1417.71
731.499	1429.99
731.685	1331.69
731.871	1337.84
732.057	1382.89
732.243	1354.22
732.429	1360.36
732.615	1413.61
732.801	1386.99
732.987	1346.03
733.173	1272.3
733.359	1411.56
733.545	1331.69
733.731	1319.4
733.917	1378.79
734.103	1395.18
734.289	1423.85
734.475	1460.71
734.661	1348.08
734.847	1329.64
735.033	1374.7
735.219	1317.36
735.404	1298.92
735.59	1253.87
735.776	1307.12
735.962	1229.29
736.148	1352.17
736.333	1372.65
736.519	1247.72
736.705	1329.64
736.89	1511.91
737.076	1364.46
737.262	1341.93
737.447	1231.34
737.633	1245.68
737.819	1284.59
738.004	1298.92
738.19	1270.25
738.375	1288.68
738.561	1280.49
738.747	1276.4
738.932	1270.25
739.118	1278.44
739.303	1276.4
739.489	1270.25
739.674	1206.77
739.859	1360.36
740.045	1214.96
740.23	1257.96
740.416	1221.1
740.601	1198.57
740.786	1208.81
740.972	1264.11
741.157	1212.91
741.342	1174
741.528	1354.22
741.713	1262.06
741.898	1251.82
742.084	1296.88
742.269	1210.86
742.454	1188.33
742.639	1182.19
742.824	1120.75
743.01	1174
743.195	1165.81
743.38	1124.85
743.565	1100.27
743.75	1200.62
743.935	1116.65
744.12	1112.56
744.305	1071.6
744.49	1167.85
744.675	1116.65
744.86	1153.52
745.045	1192.43
745.23	1087.98
745.415	1198.57
745.6	1128.94
745.785	1143.28
745.97	1147.37
746.155	1143.28
746.34	1114.61
746.525	1001.97
746.71	1124.85
746.895	1047.02
747.079	1030.64
747.264	1030.64
747.449	1069.55
747.634	1069.55
747.819	1085.94
748.003	1022.45
748.188	983.54
748.373	1014.26
748.557	952.82
748.742	987.63
748.927	1053.17
749.111	1032.69
749.296	989.68
749.481	1047.02
749.665	1022.45
749.85	985.58
750.034	963.06
750.219	936.43
750.404	993.78
750.588	958.96
750.773	915.95
750.957	932.34
751.141	899.57
751.326	901.62
751.51	952.82
751.695	887.28
751.879	874.99
752.064	905.71
752.248	856.56
752.432	942.58
752.617	899.57
752.801	948.72
752.985	809.46
753.17	797.17
753.354	911.86
753.538	905.71
753.722	813.56
753.907	860.66
754.091	872.95
754.275	840.18
754.459	877.04
754.643	774.64
754.828	872.95
755.012	862.71
755.196	860.66
755.38	733.68
755.564	891.38
755.748	772.6
755.932	829.94
756.116	764.4
756.3	760.31
756.484	743.92
756.668	694.77
756.852	725.49
757.036	702.97
757.22	717.3
757.404	641.53
757.588	760.31
757.772	741.88
757.956	764.4
758.14	778.74
758.323	717.3
758.507	836.08
758.691	653.81
758.875	754.16
759.059	725.49
759.242	657.91
759.426	721.4
759.61	745.97
759.794	700.92
759.977	721.4
760.161	795.12
760.345	735.73
760.528	688.63
760.712	723.44
760.895	670.2
761.079	672.25
761.263	629.24
761.446	715.25
761.63	702.97
761.813	727.54
761.997	569.85
762.18	659.96
762.364	633.33
762.547	635.38
762.731	625.14
762.914	623.09
763.098	604.66
763.281	631.29
763.464	602.61
763.648	641.53
763.831	625.14
764.015	635.38
764.198	580.09
764.381	633.33
764.564	530.94
764.748	528.89
764.931	561.66
765.114	629.24
765.297	537.08
765.481	567.8
765.664	555.51
765.847	578.04
766.03	528.89
766.213	586.23
766.397	496.12
766.58	578.04
766.763	569.85
766.946	643.57
767.129	633.33
767.312	555.51
767.495	553.46
767.678	549.37
767.861	573.94
768.044	485.88
768.227	532.98
768.41	563.7
768.593	549.37
768.776	535.03
768.959	627.19
769.142	516.6
769.324	553.46
769.507	596.47
769.69	453.11
769.873	532.98
770.056	496.12
770.239	518.65
770.421	506.36
770.604	543.22
770.787	586.23
770.97	502.26
771.152	414.2
771.335	580.09
771.518	510.46
771.7	475.64
771.883	492.02
772.066	539.13
772.248	575.99
772.431	514.55
772.613	487.93
772.796	469.5
772.978	485.88
773.161	467.45
773.343	412.15
773.526	444.92
773.708	465.4
773.891	467.45
774.073	530.94
774.256	377.34
774.438	485.88
774.621	457.21
774.803	479.74
774.985	424.44
775.168	489.98
775.35	453.11
775.532	489.98
775.715	420.35
775.897	426.49
776.079	473.59
776.261	451.07
776.444	379.39
776.626	436.73
776.808	340.47
776.99	391.67
777.173	365.05
777.355	408.06
777.537	397.82
777.719	463.35
777.901	418.3
778.083	430.59
778.265	438.78
778.447	358.91
778.629	371.19
778.811	373.24
778.993	369.15
779.175	338.43
779.357	334.33
779.539	358.91
779.721	389.63
779.903	313.85
780.085	291.32
780.267	326.14
780.449	365.05
780.631	260.6
780.812	375.29
780.994	344.57
781.176	350.71
781.358	313.85
781.54	346.62
781.721	276.99
781.903	344.57
782.085	365.05
782.267	416.25
782.448	326.14
782.63	301.56
782.812	262.65
782.993	320
783.175	246.27
783.357	301.56
783.538	266.75
783.72	266.75
783.901	313.85
784.083	332.28
784.264	340.47
784.446	274.94
784.627	221.69
784.809	268.8
784.99	264.7
785.172	287.23
785.353	369.15
785.535	303.61
785.716	274.94
785.897	207.36
786.079	289.28
786.26	268.8
786.441	268.8
786.623	215.55
786.804	322.04
786.985	201.21
787.167	315.9
787.348	299.52
787.529	170.49
787.71	276.99
787.891	272.89
788.073	229.88
788.254	305.66
788.435	240.12
788.616	256.51
788.797	166.4
788.978	256.51
789.159	207.36
789.34	238.08
789.522	145.92
789.703	176.64
789.884	180.73
790.065	293.37
790.246	264.7
790.427	240.12
790.607	229.88
790.788	238.08
790.969	227.84
791.15	145.92
791.331	223.74
791.512	180.73
791.693	248.32
791.874	258.56
792.054	238.08
792.235	227.84
792.416	227.84
792.597	238.08
792.778	68.09
792.958	215.55
793.139	248.32
793.32	193.02
793.5	162.3
793.681	227.84
793.862	199.16
794.042	174.59
794.223	139.77
794.404	178.69
794.584	111.1
794.765	158.21
794.945	119.29
795.126	193.02
795.306	190.97
795.487	133.63
795.667	137.73
795.848	215.55
796.028	123.39
796.209	168.45
796.389	158.21
796.57	166.4
796.75	164.35
796.93	211.45
797.111	131.58
797.291	166.4
797.471	119.29
797.652	170.49
797.832	135.68
798.012	137.73
798.192	123.39
798.373	94.72
798.553	135.68
798.733	109.05
798.913	78.33
799.093	102.91
799.274	193.02
799.454	152.06
799.634	168.45
799.814	156.16
799.994	166.4
800.174	158.21
800.354	125.44
800.534	184.83
800.714	139.77
800.894	143.87
801.074	145.92
801.254	119.29
801.434	203.26
801.614	131.58
801.794	121.34
801.974	393.72
802.154	147.97
802.334	86.53
802.514	145.92
802.693	162.3
802.873	86.53
803.053	178.69
803.233	104.96
803.413	55.81
803.592	150.01
803.772	119.29
803.952	131.58
804.131	207.36
804.311	66.05
804.491	137.73
804.67	121.34
804.85	92.67
805.03	107.01
805.209	94.72
805.389	29.18
805.568	111.1
805.748	94.72
805.928	119.29
806.107	190.97
806.287	92.67
806.466	88.57
806.646	59.9
806.825	143.87
807.004	100.86
807.184	143.87
807.363	133.63
807.543	100.86
807.722	51.71
807.901	154.11
808.081	129.53
808.26	82.43
808.439	115.2
808.619	66.05
808.798	31.23
808.977	184.83
809.156	188.93
809.336	61.95
809.515	117.25
809.694	109.05
809.873	53.76
810.052	109.05
810.231	109.05
810.411	53.76
810.59	156.16
810.769	115.2
810.948	84.48
811.127	111.1
811.306	90.62
811.485	107.01
811.664	64
811.843	109.05
812.022	41.47
812.201	100.86
812.38	111.1
812.559	61.95
812.737	78.33
812.916	37.38
813.095	111.1
813.274	59.9
813.453	86.53
813.632	43.52
813.811	111.1
813.989	43.52
814.168	72.19
814.347	33.28
814.526	82.43
814.704	111.1
814.883	111.1
815.062	74.24
815.24	90.62
815.419	16.9
815.598	90.62
815.776	88.57
815.955	82.43
816.133	104.96
816.312	113.15
816.49	92.67
816.669	37.38
816.847	57.86
817.026	86.53
817.204	133.63
817.383	100.86
817.561	49.66
817.74	158.21
817.918	107.01
818.097	90.62
818.275	109.05
818.453	117.25
818.632	16.9
818.81	68.09
818.988	14.85
819.167	37.38
819.345	143.87
819.523	43.52
819.701	113.15
819.879	127.49
820.058	76.29
820.236	49.66
820.414	57.86
820.592	84.48
820.77	59.9
820.948	37.38
821.127	16.9
821.305	86.53
821.483	47.62
821.661	57.86
821.839	98.81
822.017	57.86
822.195	43.52
822.373	100.86
822.551	18.94
822.729	98.81
822.907	-32.26
823.085	66.05
823.262	8.7
823.44	76.29
823.618	86.53
823.796	64
823.974	-17.92
824.152	78.33
824.329	41.47
824.507	92.67
824.685	125.44
824.863	51.71
825.04	127.49
825.218	-15.87
825.396	8.7
825.574	66.05
825.751	10.75
825.929	104.96
826.107	-11.78
826.284	47.62
826.462	111.1
826.639	8.7
826.817	66.05
826.994	49.66
827.172	20.99
827.349	43.52
827.527	80.38
827.704	31.23
827.882	-11.78
828.059	76.29
828.237	33.28
828.414	98.81
828.591	55.81
828.769	94.72
828.946	-40.45
829.124	76.29
829.301	68.09
829.478	45.57
829.655	111.1
829.833	74.24
830.01	61.95
830.187	35.33
830.364	131.58
830.542	4.61
830.719	33.28
830.896	64
831.073	94.72
831.25	53.76
831.427	27.14
831.604	64
831.782	100.86
831.959	41.47
832.136	18.94
832.313	-1.54
832.49	6.66
832.667	88.57
832.844	86.53
833.021	59.9
833.198	29.18
833.374	57.86
833.551	74.24
833.728	68.09
833.905	55.81
834.082	10.75
834.259	59.9
834.436	74.24
834.612	-38.4
834.789	100.86
834.966	-1.54
835.143	94.72
835.319	16.9
835.496	64
835.673	25.09
835.85	-11.78
836.026	-32.26
836.203	76.29
836.38	57.86
836.556	14.85
836.733	-13.82
836.909	27.14
837.086	33.28
837.262	129.53
837.439	-5.63
837.616	68.09
837.792	117.25
837.968	-15.87
838.145	-26.11
838.321	33.28
838.498	107.01
838.674	64
838.851	107.01
839.027	23.04
839.203	14.85
839.38	29.18
839.556	-3.58
839.732	43.52
839.909	14.85
840.085	64
840.261	66.05
840.437	20.99
840.614	31.23
840.79	29.18
840.966	92.67
841.142	49.66
841.318	-32.26
841.494	-5.63
841.671	-30.21
841.847	49.66
842.023	2.56
842.199	76.29
842.375	-19.97
842.551	35.33
842.727	2.56
842.903	70.14
843.079	37.38
843.255	80.38
843.431	29.18
843.607	76.29
843.783	49.66
843.959	61.95
844.134	-54.78
844.31	12.8
844.486	14.85
844.662	-44.54
844.838	12.8
845.013	27.14
845.189	57.86
845.365	33.28
845.541	41.47
845.716	-9.73
845.892	80.38
846.068	-1.54
846.244	-1.54
846.419	29.18
846.595	2.56
846.77	18.94
846.946	-28.16
847.122	72.19
847.297	-36.35
847.473	10.75
847.648	-5.63
847.824	-38.4
847.999	23.04
848.175	18.94
848.35	29.18
848.526	31.23
848.701	29.18
848.876	18.94
849.052	74.24
849.227	-17.92
849.403	70.14
849.578	76.29
849.753	31.23
849.929	78.33
850.104	12.8
850.279	0.51
850.454	-67.07
850.63	-52.74
850.805	37.38
850.98	27.14
851.155	-7.68
851.33	35.33
851.505	25.09
851.681	2.56
851.856	39.42
852.031	-17.92
852.206	-67.07
852.381	35.33
852.556	53.76
852.731	23.04
852.906	2.56
853.081	-22.02
853.256	43.52
853.431	-19.97
853.606	6.66
853.781	2.56
853.956	20.99
854.131	-9.73
854.305	-19.97
854.48	14.85
854.655	-26.11
854.83	-7.68
855.005	-13.82
855.18	29.18
855.354	-42.5
855.529	-36.35
855.704	-17.92
855.879	47.62
856.053	25.09
856.228	64
856.403	20.99
856.577	-3.58
856.752	4.61
856.926	-65.02
857.101	-30.21
857.276	20.99
857.45	8.7
857.625	66.05
857.799	14.85
857.974	57.86
858.148	-118.27
858.323	-26.11
858.497	72.19
858.672	12.8
858.846	31.23
859.02	-5.63
859.195	-62.98
859.369	18.94
859.543	-19.97
859.718	-19.97
859.892	10.75
860.066	-9.73
860.241	25.09
860.415	-46.59
860.589	14.85
860.763	-54.78
860.938	-56.83
861.112	-15.87
861.286	43.52
861.46	41.47
861.634	-13.82
861.808	20.99
861.982	-30.21
862.157	23.04
862.331	-5.63
862.505	-30.21
862.679	43.52
862.853	-1.54
863.027	27.14
863.201	84.48
863.375	-44.54
863.549	14.85
863.722	0.51
863.896	-34.3
864.07	53.76
864.244	-7.68
864.418	-15.87
864.592	-58.88
864.766	-3.58
864.939	61.95
865.113	43.52
865.287	-30.21
865.461	0.51
865.634	20.99
865.808	-9.73
865.982	-13.82
866.156	-32.26
866.329	49.66
866.503	82.43
866.676	59.9
866.85	-87.55
867.024	0.51
867.197	39.42
867.371	-13.82
867.544	-9.73
867.718	23.04
867.891	-24.06
868.065	78.33
868.238	-50.69
868.412	-5.63
868.585	20.99
868.759	-28.16
868.932	-13.82
869.105	-19.97
869.279	-36.35
869.452	-17.92
869.625	2.56
869.799	2.56
869.972	29.18
870.145	8.7
870.319	14.85
870.492	-15.87
870.665	4.61
870.838	-1.54
871.011	-19.97
871.185	64
871.358	-38.4
871.531	20.99
871.704	-56.83
871.877	33.28
872.05	14.85
872.223	45.57
872.396	-58.88
872.569	-65.02
872.742	-15.87
872.915	0.51
873.088	-34.3
873.261	-17.92
873.434	-3.58
873.607	16.9
873.78	-48.64
873.953	-9.73
874.126	-5.63
874.299	37.38
874.471	-28.16
874.644	66.05
874.817	-19.97
874.99	18.94
875.163	-65.02
875.335	16.9
875.508	12.8
875.681	8.7
875.853	-38.4
876.026	14.85
876.199	-28.16
876.371	-34.3
876.544	-13.82
876.717	6.66
876.889	27.14
877.062	66.05
877.234	-116.22
877.407	25.09
877.579	-7.68
877.752	10.75
877.924	16.9
878.097	14.85
878.269	10.75
878.442	-22.02
878.614	-15.87
878.786	-19.97
878.959	18.94
879.131	-52.74
879.303	-22.02
879.476	6.66
879.648	-7.68
879.82	4.61
879.993	-19.97
880.165	-13.82
880.337	-13.82
880.509	27.14
880.681	-11.78
880.854	-30.21
881.026	-22.02
881.198	70.14
881.37	0.51
881.542	47.62
881.714	-132.61
881.886	-34.3
882.058	-36.35
882.23	2.56
882.402	23.04
882.574	64
882.746	43.52
882.918	29.18
883.09	-1.54
883.262	-3.58
883.434	6.66
883.606	14.85
883.778	-22.02
883.95	-32.26
884.122	-17.92
884.293	-19.97
884.465	-62.98
884.637	61.95
884.809	-3.58
884.98	-44.54
885.152	39.42
885.324	-7.68
885.496	-24.06
885.667	-11.78
885.839	-22.02
886.011	12.8
886.182	37.38
886.354	18.94
886.525	27.14
886.697	76.29
886.869	-19.97
887.04	-19.97
887.212	12.8
887.383	-13.82
887.555	-69.12
887.726	27.14
887.897	-22.02
888.069	84.48
888.24	-54.78
888.412	-13.82
888.583	-22.02
888.754	-22.02
888.926	-5.63
889.097	-15.87
889.268	-40.45
889.44	-71.17
889.611	14.85
889.782	18.94
889.953	-62.98
890.125	2.56
890.296	-73.21
890.467	35.33
890.638	33.28
890.809	25.09
890.98	41.47
891.151	2.56
891.323	-65.02
891.494	-17.92
891.665	-44.54
891.836	51.71
892.007	-1.54
892.178	-46.59
892.349	-7.68
892.52	16.9
892.691	0.51
892.862	-5.63
893.032	-71.17
893.203	20.99
893.374	27.14
893.545	-5.63
893.716	-46.59
893.887	-54.78
894.057	18.94
894.228	16.9
894.399	-5.63
894.57	12.8
894.74	-36.35
894.911	27.14
895.082	-22.02
895.253	27.14
895.423	20.99
895.594	6.66
895.764	29.18
895.935	-36.35
896.106	-7.68
896.276	-30.21
896.447	4.61
896.617	12.8
896.788	-89.6
896.958	45.57
897.129	-93.69
897.299	-52.74
897.47	-7.68
897.64	6.66
897.81	-52.74
897.981	25.09
898.151	-11.78
898.322	-30.21
898.492	45.57
898.662	-44.54
898.832	-42.5
899.003	-42.5
899.173	-40.45
899.343	-17.92
899.513	16.9
