Data from USB4F104151__103__13-00-26-816.txt Node

Date: Fri Mar 14 13:00:26 EDT 2025
User: louis
Spectrometer: USB4F10415
Trigger mode: 4
Integration Time (sec): 1.000000E-2
Scans to average: 1
Electric dark correction enabled: true
Nonlinearity correction enabled: false
Boxcar width: 0
XAxis mode: Wavelengths
Number of Pixels in Spectrum: 3648
>>>>>Begin Spectral Data<<<<<
178.204	-33.28
178.424	-33.28
178.644	-33.28
178.864	-59.9
179.084	-4.61
179.304	1.54
179.524	9.73
179.744	32.26
179.964	-29.18
180.184	-0.51
180.404	60.93
180.624	73.21
180.844	-29.18
181.064	-25.09
181.283	-35.33
181.503	-64
181.723	5.63
181.943	13.82
182.163	50.69
182.383	28.16
182.602	99.84
182.822	44.54
183.042	-25.09
183.262	7.68
183.482	38.4
183.701	114.17
183.921	62.98
184.141	11.78
184.361	97.79
184.58	48.64
184.8	-20.99
185.02	15.87
185.239	-6.66
185.459	11.78
185.679	28.16
185.898	56.83
186.118	48.64
186.338	3.58
186.557	81.41
186.777	34.3
186.997	132.61
187.216	24.06
187.436	73.21
187.655	65.02
187.875	93.69
188.095	17.92
188.314	-20.99
188.534	36.35
188.753	1.54
188.973	87.55
189.192	52.74
189.412	60.93
189.631	42.5
189.851	-10.75
190.07	44.54
190.29	15.87
190.509	3.58
190.729	38.4
190.948	36.35
191.168	77.31
191.387	101.89
191.607	-53.76
191.826	52.74
192.045	83.45
192.265	42.5
192.484	50.69
192.704	69.12
192.923	22.02
193.142	22.02
193.362	5.63
193.581	38.4
193.8	65.02
194.02	46.59
194.239	83.45
194.458	83.45
194.678	-4.61
194.897	73.21
195.116	38.4
195.335	67.07
195.555	60.93
195.774	-12.8
195.993	85.5
196.212	-14.85
196.432	50.69
196.651	42.5
196.87	-55.81
197.089	46.59
197.308	40.45
197.528	99.84
197.747	-4.61
197.966	34.3
198.185	42.5
198.404	9.73
198.623	52.74
198.842	48.64
199.062	30.21
199.281	24.06
199.5	62.98
199.719	67.07
199.938	24.06
200.157	114.17
200.376	11.78
200.595	22.02
200.814	9.73
201.033	44.54
201.252	56.83
201.471	-14.85
201.69	-33.28
201.909	36.35
202.128	65.02
202.347	60.93
202.566	110.08
202.785	69.12
203.004	-16.9
203.223	65.02
203.442	36.35
203.661	58.88
203.879	71.17
204.098	50.69
204.317	13.82
204.536	56.83
204.755	26.11
204.974	52.74
205.193	28.16
205.411	83.45
205.63	58.88
205.849	48.64
206.068	24.06
206.287	24.06
206.505	69.12
206.724	32.26
206.943	46.59
207.162	44.54
207.381	81.41
207.599	42.5
207.818	-4.61
208.037	-8.7
208.255	38.4
208.474	11.78
208.693	40.45
208.911	54.78
209.13	83.45
209.349	42.5
209.567	40.45
209.786	81.41
210.005	34.3
210.223	-6.66
210.442	67.07
210.661	22.02
210.879	58.88
211.098	65.02
211.316	71.17
211.535	103.93
211.753	-0.51
211.972	97.79
212.191	28.16
212.409	77.31
212.628	36.35
212.846	24.06
213.065	83.45
213.283	99.84
213.502	19.97
213.72	77.31
213.938	60.93
214.157	42.5
214.375	56.83
214.594	9.73
214.812	42.5
215.031	30.21
215.249	40.45
215.467	-23.04
215.686	19.97
215.904	157.18
216.122	-8.7
216.341	48.64
216.559	11.78
216.778	40.45
216.996	73.21
217.214	7.68
217.432	40.45
217.651	19.97
217.869	36.35
218.087	67.07
218.306	50.69
218.524	50.69
218.742	-6.66
218.96	97.79
219.179	5.63
219.397	24.06
219.615	77.31
219.833	122.37
220.051	30.21
220.27	54.78
220.488	40.45
220.706	9.73
220.924	44.54
221.142	65.02
221.36	30.21
221.578	73.21
221.796	-49.66
222.015	38.4
222.233	30.21
222.451	17.92
222.669	17.92
222.887	67.07
223.105	28.16
223.323	38.4
223.541	44.54
223.759	-6.66
223.977	19.97
224.195	34.3
224.413	9.73
224.631	1.54
224.849	28.16
225.067	-20.99
225.285	15.87
225.503	87.55
225.721	99.84
225.939	67.07
226.157	-12.8
226.375	-0.51
226.592	38.4
226.81	52.74
227.028	48.64
227.246	34.3
227.464	44.54
227.682	91.65
227.9	40.45
228.117	95.74
228.335	42.5
228.553	-8.7
228.771	24.06
228.989	79.36
229.206	-6.66
229.424	40.45
229.642	44.54
229.86	99.84
230.077	77.31
230.295	36.35
230.513	13.82
230.731	19.97
230.948	19.97
231.166	42.5
231.384	60.93
231.601	7.68
231.819	1.54
232.037	85.5
232.254	-18.94
232.472	9.73
232.689	128.51
232.907	132.61
233.125	38.4
233.342	28.16
233.56	13.82
233.777	-20.99
233.995	52.74
234.213	81.41
234.43	42.5
234.648	128.51
234.865	22.02
235.083	9.73
235.3	7.68
235.518	28.16
235.735	46.59
235.953	157.18
236.17	-23.04
236.388	44.54
236.605	42.5
236.822	79.36
237.04	-12.8
237.257	11.78
237.475	42.5
237.692	40.45
237.909	-68.09
238.127	40.45
238.344	46.59
238.562	5.63
238.779	42.5
238.996	-41.47
239.214	62.98
239.431	50.69
239.648	24.06
239.865	91.65
240.083	9.73
240.3	32.26
240.517	17.92
240.735	87.55
240.952	105.98
241.169	32.26
241.386	9.73
241.603	52.74
241.821	-6.66
242.038	15.87
242.255	54.78
242.472	22.02
242.689	60.93
242.907	36.35
243.124	44.54
243.341	30.21
243.558	48.64
243.775	50.69
243.992	17.92
244.209	54.78
244.426	17.92
244.643	73.21
244.86	-6.66
245.078	32.26
245.295	89.6
245.512	15.87
245.729	15.87
245.946	108.03
246.163	71.17
246.38	58.88
246.597	75.26
246.814	73.21
247.031	36.35
247.248	69.12
247.464	40.45
247.681	101.89
247.898	69.12
248.115	-0.51
248.332	52.74
248.549	56.83
248.766	81.41
248.983	32.26
249.2	69.12
249.417	95.74
249.633	38.4
249.85	93.69
250.067	56.83
250.284	56.83
250.501	87.55
250.717	40.45
250.934	-20.99
251.151	75.26
251.368	81.41
251.585	42.5
251.801	99.84
252.018	30.21
252.235	5.63
252.451	-0.51
252.668	-6.66
252.885	75.26
253.102	44.54
253.318	122.37
253.535	22.02
253.752	28.16
253.968	108.03
254.185	32.26
254.401	26.11
254.618	89.6
254.835	48.64
255.051	44.54
255.268	-18.94
255.484	-16.9
255.701	13.82
255.917	44.54
256.134	38.4
256.351	44.54
256.567	28.16
256.784	58.88
257	62.98
257.217	3.58
257.433	-12.8
257.65	79.36
257.866	40.45
258.082	7.68
258.299	17.92
258.515	71.17
258.732	85.5
258.948	44.54
259.165	56.83
259.381	73.21
259.597	97.79
259.814	3.58
260.03	19.97
260.246	26.11
260.463	60.93
260.679	9.73
260.895	42.5
261.112	73.21
261.328	7.68
261.544	52.74
261.761	22.02
261.977	91.65
262.193	17.92
262.409	71.17
262.626	36.35
262.842	85.5
263.058	97.79
263.274	44.54
263.49	22.02
263.707	60.93
263.923	11.78
264.139	28.16
264.355	32.26
264.571	3.58
264.787	91.65
265.004	85.5
265.22	75.26
265.436	54.78
265.652	58.88
265.868	17.92
266.084	-16.9
266.3	99.84
266.516	52.74
266.732	17.92
266.948	28.16
267.164	22.02
267.38	50.69
267.596	87.55
267.812	54.78
268.028	91.65
268.244	85.5
268.46	93.69
268.676	11.78
268.892	130.56
269.108	13.82
269.324	28.16
269.54	50.69
269.756	69.12
269.972	24.06
270.188	108.03
270.403	-12.8
270.619	75.26
270.835	-33.28
271.051	22.02
271.267	-8.7
271.483	36.35
271.698	-27.14
271.914	83.45
272.13	81.41
272.346	136.7
272.562	56.83
272.777	52.74
272.993	48.64
273.209	44.54
273.425	69.12
273.64	40.45
273.856	58.88
274.072	81.41
274.287	83.45
274.503	95.74
274.719	56.83
274.934	28.16
275.15	28.16
275.366	22.02
275.581	67.07
275.797	79.36
276.012	-23.04
276.228	24.06
276.444	44.54
276.659	69.12
276.875	56.83
277.09	101.89
277.306	120.32
277.521	62.98
277.737	52.74
277.952	85.5
278.168	19.97
278.383	32.26
278.599	22.02
278.814	-16.9
279.03	67.07
279.245	15.87
279.461	26.11
279.676	108.03
279.892	40.45
280.107	73.21
280.322	26.11
280.538	40.45
280.753	5.63
280.969	-0.51
281.184	11.78
281.399	28.16
281.615	24.06
281.83	87.55
282.045	67.07
282.26	1.54
282.476	71.17
282.691	60.93
282.906	85.5
283.122	65.02
283.337	-4.61
283.552	22.02
283.767	22.02
283.983	22.02
284.198	11.78
284.413	26.11
284.628	19.97
284.843	65.02
285.058	56.83
285.274	34.3
285.489	19.97
285.704	52.74
285.919	79.36
286.134	13.82
286.349	24.06
286.564	-14.85
286.779	7.68
286.995	75.26
287.21	26.11
287.425	7.68
287.64	103.93
287.855	24.06
288.07	-16.9
288.285	54.78
288.5	75.26
288.715	99.84
288.93	65.02
289.145	87.55
289.36	32.26
289.575	5.63
289.79	15.87
290.004	28.16
290.219	7.68
290.434	44.54
290.649	9.73
290.864	99.84
291.079	34.3
291.294	124.41
291.509	11.78
291.724	58.88
291.938	19.97
292.153	24.06
292.368	58.88
292.583	54.78
292.798	56.83
293.012	32.26
293.227	36.35
293.442	-6.66
293.657	13.82
293.871	50.69
294.086	67.07
294.301	54.78
294.516	89.6
294.73	7.68
294.945	17.92
295.16	50.69
295.374	128.51
295.589	32.26
295.804	24.06
296.018	28.16
296.233	40.45
296.447	75.26
296.662	7.68
296.877	99.84
297.091	42.5
297.306	136.7
297.52	50.69
297.735	48.64
297.949	67.07
298.164	89.6
298.378	1.54
298.593	13.82
298.807	89.6
299.022	52.74
299.236	-6.66
299.451	58.88
299.665	108.03
299.88	17.92
300.094	62.98
300.309	24.06
300.523	48.64
300.737	44.54
300.952	38.4
301.166	3.58
301.381	24.06
301.595	5.63
301.809	-16.9
302.024	26.11
302.238	58.88
302.452	1.54
302.667	24.06
302.881	122.37
303.095	87.55
303.309	73.21
303.524	42.5
303.738	1.54
303.952	99.84
304.166	-14.85
304.381	77.31
304.595	105.98
304.809	69.12
305.023	97.79
305.237	87.55
305.452	30.21
305.666	22.02
305.88	81.41
306.094	73.21
306.308	97.79
306.522	38.4
306.736	97.79
306.95	114.17
307.164	50.69
307.379	71.17
307.593	114.17
307.807	15.87
308.021	89.6
308.235	46.59
308.449	24.06
308.663	46.59
308.877	62.98
309.091	1.54
309.305	56.83
309.519	-43.52
309.733	99.84
309.947	44.54
310.161	71.17
310.374	42.5
310.588	77.31
310.802	56.83
311.016	38.4
311.23	65.02
311.444	124.41
311.658	40.45
311.872	56.83
312.085	60.93
312.299	79.36
312.513	101.89
312.727	30.21
312.941	15.87
313.154	87.55
313.368	32.26
313.582	48.64
313.796	93.69
314.009	46.59
314.223	54.78
314.437	24.06
314.651	28.16
314.864	40.45
315.078	50.69
315.292	87.55
315.505	28.16
315.719	22.02
315.933	-8.7
316.146	-25.09
316.36	-6.66
316.573	44.54
316.787	44.54
317.001	1.54
317.214	-4.61
317.428	9.73
317.641	110.08
317.855	42.5
318.068	56.83
318.282	52.74
318.495	71.17
318.709	56.83
318.922	9.73
319.136	83.45
319.349	124.41
319.563	26.11
319.776	-6.66
319.99	42.5
320.203	50.69
320.417	50.69
320.63	40.45
320.843	36.35
321.057	83.45
321.27	38.4
321.483	11.78
321.697	30.21
321.91	15.87
322.124	46.59
322.337	22.02
322.55	46.59
322.763	83.45
322.977	56.83
323.19	-4.61
323.403	93.69
323.617	24.06
323.83	22.02
324.043	67.07
324.256	56.83
324.469	71.17
324.683	75.26
324.896	79.36
325.109	58.88
325.322	-29.18
325.535	40.45
325.748	-6.66
325.962	91.65
326.175	85.5
326.388	-8.7
326.601	28.16
326.814	26.11
327.027	77.31
327.24	60.93
327.453	32.26
327.666	97.79
327.879	60.93
328.092	126.46
328.305	54.78
328.518	44.54
328.731	103.93
328.944	34.3
329.157	40.45
329.37	36.35
329.583	69.12
329.796	9.73
330.009	40.45
330.222	-20.99
330.435	58.88
330.648	42.5
330.861	40.45
331.073	42.5
331.286	62.98
331.499	83.45
331.712	60.93
331.925	30.21
332.138	58.88
332.35	62.98
332.563	83.45
332.776	32.26
332.989	77.31
333.202	52.74
333.414	26.11
333.627	15.87
333.84	32.26
334.053	1.54
334.265	24.06
334.478	75.26
334.691	69.12
334.903	34.3
335.116	-47.62
335.329	48.64
335.541	85.5
335.754	105.98
335.966	42.5
336.179	54.78
336.392	34.3
336.604	87.55
336.817	7.68
337.029	60.93
337.242	-49.66
337.454	81.41
337.667	71.17
337.88	77.31
338.092	52.74
338.305	48.64
338.517	11.78
338.729	11.78
338.942	58.88
339.154	24.06
339.367	56.83
339.579	34.3
339.792	58.88
340.004	24.06
340.217	56.83
340.429	50.69
340.641	48.64
340.854	93.69
341.066	-2.56
341.278	87.55
341.491	83.45
341.703	73.21
341.915	30.21
342.128	77.31
342.34	71.17
342.552	73.21
342.764	24.06
342.977	81.41
343.189	83.45
343.401	56.83
343.613	77.31
343.826	5.63
344.038	34.3
344.25	1.54
344.462	-2.56
344.674	67.07
344.886	91.65
345.099	108.03
345.311	44.54
345.523	75.26
345.735	-6.66
345.947	56.83
346.159	3.58
346.371	-2.56
346.583	-8.7
346.795	85.5
347.007	38.4
347.219	17.92
347.431	-25.09
347.643	62.98
347.855	24.06
348.067	56.83
348.279	105.98
348.491	93.69
348.703	91.65
348.915	67.07
349.127	50.69
349.339	130.56
349.551	71.17
349.763	97.79
349.975	15.87
350.187	-4.61
350.399	83.45
350.61	97.79
350.822	-18.94
351.034	-6.66
351.246	99.84
351.458	-0.51
351.669	44.54
351.881	140.8
352.093	32.26
352.305	62.98
352.517	1.54
352.728	134.65
352.94	58.88
353.152	26.11
353.363	9.73
353.575	85.5
353.787	58.88
353.999	108.03
354.21	65.02
354.422	60.93
354.633	26.11
354.845	36.35
355.057	91.65
355.268	42.5
355.48	48.64
355.692	17.92
355.903	116.22
356.115	65.02
356.326	-0.51
356.538	-0.51
356.749	62.98
356.961	87.55
357.172	56.83
357.384	32.26
357.595	122.37
357.807	50.69
358.018	58.88
358.23	91.65
358.441	3.58
358.653	19.97
358.864	7.68
359.075	-25.09
359.287	17.92
359.498	62.98
359.709	13.82
359.921	77.31
360.132	34.3
360.344	17.92
360.555	30.21
360.766	32.26
360.977	22.02
361.189	22.02
361.4	79.36
361.611	89.6
361.823	22.02
362.034	34.3
362.245	46.59
362.456	40.45
362.667	62.98
362.879	116.22
363.09	7.68
363.301	-23.04
363.512	24.06
363.723	56.83
363.935	30.21
364.146	124.41
364.357	-12.8
364.568	120.32
364.779	5.63
364.99	140.8
365.201	54.78
365.412	99.84
365.623	26.11
365.834	118.27
366.045	56.83
366.256	26.11
366.467	34.3
366.678	32.26
366.889	56.83
367.1	3.58
367.311	1.54
367.522	91.65
367.733	40.45
367.944	108.03
368.155	32.26
368.366	112.13
368.577	97.79
368.788	50.69
368.999	36.35
369.209	52.74
369.42	36.35
369.631	101.89
369.842	79.36
370.053	-47.62
370.264	-10.75
370.474	22.02
370.685	79.36
370.896	62.98
371.107	69.12
371.317	24.06
371.528	7.68
371.739	89.6
371.95	67.07
372.16	-4.61
372.371	24.06
372.582	44.54
372.792	67.07
373.003	58.88
373.214	89.6
373.424	34.3
373.635	56.83
373.846	93.69
374.056	85.5
374.267	15.87
374.477	56.83
374.688	81.41
374.898	9.73
375.109	65.02
375.319	79.36
375.53	65.02
375.74	110.08
375.951	24.06
376.161	73.21
376.372	34.3
376.582	24.06
376.793	40.45
377.003	58.88
377.214	65.02
377.424	15.87
377.635	36.35
377.845	130.56
378.055	7.68
378.266	-12.8
378.476	75.26
378.686	7.68
378.897	99.84
379.107	-8.7
379.317	42.5
379.528	108.03
379.738	122.37
379.948	77.31
380.158	-4.61
380.369	103.93
380.579	-2.56
380.789	85.5
380.999	114.17
381.21	28.16
381.42	58.88
381.63	56.83
381.84	67.07
382.05	114.17
382.261	40.45
382.471	159.23
382.681	-33.28
382.891	50.69
383.101	32.26
383.311	77.31
383.521	48.64
383.731	126.46
383.941	67.07
384.151	28.16
384.361	75.26
384.571	50.69
384.781	28.16
384.991	75.26
385.201	161.28
385.411	118.27
385.621	110.08
385.831	46.59
386.041	103.93
386.251	52.74
386.461	15.87
386.671	67.07
386.881	65.02
387.091	71.17
387.301	-8.7
387.511	42.5
387.72	91.65
387.93	28.16
388.14	62.98
388.35	99.84
388.56	3.58
388.769	136.7
388.979	11.78
389.189	101.89
389.399	83.45
389.609	62.98
389.818	56.83
390.028	48.64
390.238	126.46
390.447	65.02
390.657	58.88
390.867	60.93
391.076	28.16
391.286	46.59
391.496	91.65
391.705	89.6
391.915	67.07
392.125	19.97
392.334	116.22
392.544	67.07
392.753	40.45
392.963	28.16
393.172	28.16
393.382	101.89
393.591	40.45
393.801	62.98
394.01	122.37
394.22	42.5
394.429	93.69
394.639	81.41
394.848	46.59
395.058	91.65
395.267	73.21
395.477	65.02
395.686	54.78
395.895	19.97
396.105	71.17
396.314	24.06
396.524	42.5
396.733	36.35
396.942	89.6
397.152	91.65
397.361	81.41
397.57	103.93
397.78	73.21
397.989	85.5
398.198	130.56
398.407	93.69
398.617	83.45
398.826	28.16
399.035	-14.85
399.244	48.64
399.453	48.64
399.663	52.74
399.872	146.94
400.081	77.31
400.29	105.98
400.499	103.93
400.708	15.87
400.917	73.21
401.127	124.41
401.336	11.78
401.545	79.36
401.754	122.37
401.963	126.46
402.172	105.98
402.381	132.61
402.59	77.31
402.799	161.28
403.008	83.45
403.217	151.04
403.426	132.61
403.635	50.69
403.844	132.61
404.053	146.94
404.262	146.94
404.471	138.75
404.68	161.28
404.888	99.84
405.097	122.37
405.306	99.84
405.515	110.08
405.724	105.98
405.933	146.94
406.142	177.66
406.35	118.27
406.559	153.09
406.768	128.51
406.977	101.89
407.185	218.62
407.394	79.36
407.603	105.98
407.812	228.86
408.02	157.18
408.229	85.5
408.438	239.1
408.646	175.61
408.855	148.99
409.064	173.57
409.272	210.43
409.481	239.1
409.69	130.56
409.898	235
410.107	153.09
410.315	181.76
410.524	239.1
410.733	321.02
410.941	208.38
411.15	200.19
411.358	220.67
411.567	220.67
411.775	278.01
411.984	327.16
412.192	271.87
412.401	302.59
412.609	316.92
412.818	292.35
413.026	376.31
413.234	323.07
413.443	331.26
413.651	368.12
413.86	351.74
414.068	404.99
414.276	361.98
414.485	390.65
414.693	431.61
414.901	452.09
415.11	493.05
415.318	372.22
415.526	507.38
415.734	534.01
415.943	493.05
416.151	511.48
416.359	564.73
416.567	531.96
416.776	538.1
416.984	574.97
417.192	585.21
417.4	648.69
417.608	634.36
417.817	730.61
418.025	650.74
418.233	765.43
418.441	654.84
418.649	732.66
418.857	689.65
419.065	802.29
419.273	869.87
419.481	814.58
419.689	892.4
419.897	867.83
420.105	886.26
420.313	943.6
420.521	1000.94
420.729	953.84
420.937	1066.48
421.145	1142.25
421.353	1172.97
421.561	1197.55
421.769	1203.69
421.977	1250.8
422.185	1279.47
422.393	1263.08
422.601	1414.63
422.809	1453.55
423.017	1353.2
423.224	1517.03
423.432	1539.56
423.64	1574.38
423.848	1648.1
424.056	1617.38
424.263	1697.25
424.471	1730.02
424.679	1803.75
424.887	1848.8
425.094	1900
425.302	1875.43
425.51	1891.81
425.718	2078.18
425.925	2002.4
426.133	2209.25
426.341	2276.83
426.548	2444.76
426.756	2444.76
426.964	2446.81
427.171	2590.17
427.379	2446.81
427.586	2731.48
427.794	2725.33
428.001	2913.75
428.209	3057.11
428.417	2874.84
428.624	3153.36
428.832	3116.5
429.039	3005.91
429.247	3114.45
429.454	3376.59
429.662	3616.2
429.869	3362.25
430.076	3610.06
430.284	3565
430.491	3667.4
430.699	3831.24
430.906	4058.56
431.114	4015.55
431.321	4076.99
431.528	4246.98
431.736	4421.05
431.943	4677.05
432.15	4650.43
432.358	4582.84
432.565	4971.96
432.772	4806.07
432.979	5025.2
433.187	5119.41
433.394	5205.42
433.601	5440.94
433.808	5533.1
434.016	5518.76
434.223	5885.35
434.43	6047.14
434.637	5873.06
434.844	6462.88
435.052	6462.88
435.259	6417.82
435.466	6569.37
435.673	6323.62
435.88	6829.46
436.087	7150.99
436.294	7232.91
436.501	7032.21
436.708	7181.71
436.915	7370.13
437.122	7622.03
437.329	7671.18
437.537	8011.14
437.743	8142.21
437.95	8168.84
438.157	8603
438.364	8742.27
438.571	8789.37
438.778	8859
438.985	9674.09
439.192	9303.41
439.399	9395.57
439.606	9317.75
439.813	9987.43
440.02	10446.18
440.227	10265.96
440.433	10073.45
440.64	10546.53
440.847	10437.98
441.054	10632.54
441.261	11371.86
441.467	11294.04
441.674	11380.05
441.881	11996.49
442.088	11887.95
442.294	11656.53
442.501	12041.54
442.708	12619.07
442.914	12877.12
443.121	13479.22
443.328	12844.35
443.534	14087.47
443.741	13573.42
443.948	13454.64
444.154	14300.45
444.361	14255.4
444.568	14347.56
444.774	14511.39
444.981	14556.45
445.187	15056.15
445.394	15713.55
445.6	15383.83
445.807	16932.09
446.013	16260.36
446.22	16559.36
446.426	17290.49
446.633	17091.84
446.839	18050.28
447.046	16997.63
447.252	18199.79
447.459	18330.86
447.665	18265.32
447.871	19076.32
448.078	19971.28
448.284	18765.03
448.491	19375.32
448.697	20319.43
448.903	20628.68
449.11	20593.86
449.316	20503.75
449.522	20999.36
449.728	21386.43
449.935	21599.41
450.141	21456.06
450.347	21910.71
450.553	21140.67
450.76	21376.19
450.966	22709.41
451.172	22176.94
451.378	22631.59
451.584	22336.68
451.791	22774.95
451.997	22873.25
452.203	23004.32
452.409	23264.41
452.615	23096.48
452.821	22011.06
453.027	21978.29
453.233	23051.42
453.44	22269.1
453.646	22443.18
453.852	22584.49
454.058	22848.68
454.264	22371.5
454.47	22983.84
454.676	22310.06
454.882	22942.88
455.088	20978.88
455.294	21564.6
455.5	21546.17
455.705	21710
455.911	21103.81
456.117	20407.5
456.323	20096.21
456.529	19350.74
456.735	19995.85
456.941	19703
457.147	19348.7
457.352	18773.22
457.558	18654.44
457.764	18560.23
457.97	18306.28
458.176	17919.21
458.381	17833.2
458.587	16641.28
458.793	17110.27
458.999	15809.81
459.204	17136.89
459.41	16555.27
459.616	15877.39
459.821	15555.86
460.027	15533.33
460.233	15142.17
460.438	14529.83
460.644	14613.79
460.85	14044.46
461.055	13686.06
461.261	13737.26
461.466	12780.86
461.672	12232.01
461.878	13208.89
462.083	12477.76
462.289	12137.8
462.494	12059.98
462.7	11439.44
462.905	11173.21
463.111	11720.01
463.316	11656.53
463.522	11365.71
463.727	11392.34
463.932	11347.28
464.138	11277.65
464.343	11257.17
464.549	10798.43
464.754	11390.29
464.959	11232.6
465.165	10886.49
465.37	10780
465.575	10511.71
465.781	10837.34
465.986	10902.87
466.191	10403.17
466.397	10206.56
466.602	9796.97
466.807	10202.47
467.012	10204.52
467.218	10104.17
467.423	9964.9
467.628	10220.9
467.833	10349.92
468.038	10079.59
468.244	9811.31
468.449	10198.37
468.654	9676.14
468.859	9731.44
469.064	9682.28
469.269	9174.39
469.474	9479.54
469.679	9555.31
469.885	9377.14
470.09	9493.87
470.295	9280.88
470.5	9104.76
470.705	9100.66
470.91	9080.18
471.115	9094.52
471.32	9098.61
471.525	9024.89
471.73	8766.84
471.935	8830.33
472.139	8500.61
472.344	8459.65
472.549	8461.69
472.754	8365.44
472.959	8127.88
473.164	7947.65
473.369	8054.15
473.574	8226.18
473.778	8363.39
473.983	8009.09
474.188	8197.51
474.393	7728.52
474.598	7835.02
474.802	7728.52
475.007	7675.27
475.212	7617.93
475.417	7443.85
475.621	7396.75
475.826	7323.02
476.031	7226.77
476.235	7191.95
476.44	7316.88
476.645	7093.65
476.849	7062.93
477.054	7196.05
477.259	6974.87
477.463	6802.84
477.668	6847.9
477.872	6704.54
478.077	6624.67
478.282	6419.87
478.486	6577.56
478.691	6391.2
478.895	6405.53
479.1	6426.01
479.304	6278.56
479.509	6235.55
479.713	6266.27
479.918	6235.55
480.122	6143.39
480.326	6333.86
480.531	6155.68
480.735	6110.63
480.94	6079.91
481.144	6200.74
481.348	5856.68
481.553	5920.17
481.757	5782.95
481.961	5873.06
482.166	6004.13
482.37	5967.27
482.574	5823.91
482.778	6022.56
482.983	6102.43
483.187	5901.73
483.391	6002.08
483.595	5813.67
483.8	5819.82
484.004	6102.43
484.208	5899.69
484.412	5932.45
484.616	5940.65
484.821	6069.67
485.025	5977.51
485.229	5971.36
485.433	5891.49
485.637	5883.3
485.841	5938.6
486.045	5815.72
486.249	5879.21
486.453	5916.07
486.657	5862.82
486.861	5891.49
487.065	5940.65
487.269	5772.71
487.473	5774.76
487.677	5897.64
487.881	6118.82
488.085	5846.44
488.289	5926.31
488.493	5930.41
488.697	5944.74
488.901	5916.07
489.105	6012.32
489.309	5928.36
489.512	6024.61
489.716	6098.34
489.92	5946.79
490.124	5825.96
490.328	6069.67
490.531	5977.51
490.735	6063.52
490.939	6143.39
491.143	6233.5
491.346	5922.21
491.55	6122.91
491.754	6131.11
491.958	6274.46
492.161	6213.03
492.365	6208.93
492.569	6190.5
492.772	6190.5
492.976	6288.8
493.18	6380.96
493.383	6651.29
493.587	6284.7
493.79	6473.12
493.994	6434.21
494.197	6639
494.401	6585.76
494.605	6548.89
494.808	6784.41
495.012	6890.9
495.215	6770.07
495.419	6874.52
495.622	6616.48
495.825	6909.33
496.029	7040.4
496.232	7134.61
496.436	7058.84
496.639	7306.64
496.843	7263.63
497.046	7617.93
497.249	7363.98
497.453	7654.8
497.656	7619.98
497.859	7630.22
498.063	7777.67
498.266	7693.71
498.469	7769.48
498.673	7783.82
498.876	8119.68
499.079	8285.57
499.282	8121.73
499.485	8236.42
499.689	8273.28
499.892	8414.59
500.095	8461.69
500.298	8789.37
500.501	8598.91
500.705	8916.34
500.908	9045.37
501.111	9059.7
501.314	9119.09
501.517	9260.4
501.72	9477.49
501.923	9377.14
502.126	9493.87
502.329	9639.28
502.532	9858.41
502.735	9776.49
502.938	10034.53
503.141	10114.41
503.344	10220.9
503.547	10198.37
503.75	10495.33
503.953	10532.19
504.156	10730.84
504.359	10872.15
504.562	10833.24
504.765	11124.05
504.968	11216.21
505.17	11468.11
505.373	11267.41
505.576	11629.9
505.779	11744.59
505.982	11904.33
506.185	12133.7
506.387	12152.13
506.59	12158.28
506.793	12475.71
506.996	12399.94
507.198	12733.76
507.401	12754.24
507.604	12815.68
507.807	13155.64
508.009	13311.28
508.212	13284.66
508.415	13514.03
508.617	13745.45
508.82	13696.3
509.022	13942.06
509.225	14193.96
509.428	14398.76
509.63	14550.31
509.833	14454.05
510.035	14914.84
510.238	14746.91
510.44	15324.44
510.643	15533.33
510.845	15484.18
511.048	15455.51
511.25	15754.51
511.453	15502.61
511.655	16454.92
511.858	16012.56
512.06	16442.63
512.262	16569.6
512.465	16540.93
512.667	16856.32
512.87	16977.15
513.072	16942.33
513.274	17405.17
513.477	17657.07
513.679	17466.61
513.881	18038
514.084	18207.98
514.286	18162.92
514.488	18437.35
514.69	18799.84
514.893	18707.68
515.095	18758.88
515.297	19440.86
515.499	19172.57
515.701	19457.24
515.904	20036.81
516.106	19872.98
516.308	20153.55
516.51	20307.15
516.712	20421.83
516.914	20720.84
517.116	21081.28
517.318	21050.56
517.52	21210.3
517.722	21361.85
517.925	21472.44
518.127	21759.16
518.329	21669.05
518.531	21976.24
518.733	22518.95
518.935	22584.49
519.136	22756.52
519.338	23067.81
519.54	23176.35
519.742	23313.56
519.944	23477.4
520.146	23905.43
520.348	24099.98
520.55	24089.74
520.752	24126.61
520.954	24710.28
521.155	24495.24
521.357	24786.05
521.559	25164.93
521.761	25164.93
521.963	25433.21
522.164	25500.79
522.366	25515.13
522.568	25996.4
522.77	25767.03
522.971	26596.46
523.173	26340.46
523.375	26788.97
523.576	26602.6
523.778	26653.8
523.98	27208.8
524.181	27085.92
524.383	27106.4
524.584	27585.63
524.786	27630.68
524.988	27409.5
525.189	28144.72
525.391	28165.2
525.592	28226.64
525.794	28638.28
525.995	28365.9
526.197	28466.25
526.398	28447.82
526.6	29031.49
526.801	28814.41
527.003	29273.15
527.204	28781.64
527.406	29516.86
527.607	29342.78
527.808	29578.3
528.01	28949.57
528.211	29318.21
528.412	30022.71
528.614	30063.67
528.815	29355.07
529.016	30237.75
529.218	29770.81
529.419	30090.29
529.62	30190.64
529.822	30135.35
530.023	29901.88
530.224	30194.74
530.425	30309.43
530.626	30020.66
530.828	29920.31
531.029	30782.51
531.23	30438.45
531.431	30041.14
531.632	30594.09
531.833	30536.75
532.035	30514.22
532.236	30637.1
532.437	30923.82
532.638	30694.44
532.839	30854.19
533.04	30768.17
533.241	30362.67
533.442	30987.3
533.643	31081.51
533.844	30678.06
534.045	31181.86
534.246	30518.32
534.447	30815.27
534.648	30792.75
534.849	30784.55
535.05	30643.24
535.251	31081.51
535.451	30968.87
535.652	31073.32
535.853	31079.46
536.054	30721.07
536.255	31038.5
536.456	30563.37
536.657	31089.7
536.857	31073.32
537.058	30932.01
537.259	31388.71
537.46	31136.8
537.66	30721.07
537.861	31208.48
538.062	30852.14
538.263	31247.4
538.463	31114.28
538.664	31208.48
538.865	30876.71
539.065	31423.52
539.266	30575.66
539.466	31034.41
539.667	30600.24
539.868	31300.64
540.068	30972.97
540.269	30743.59
540.469	31153.19
540.67	30917.67
540.87	30944.3
541.071	31030.31
541.271	30794.79
541.472	30989.35
541.672	30913.58
541.873	30473.26
542.073	30465.07
542.274	30989.35
542.474	30893.1
542.675	30921.77
542.875	31194.15
543.075	30868.52
543.276	30606.38
543.476	31101.99
543.676	30925.86
543.877	31011.88
544.077	30694.44
544.277	31013.93
544.478	30751.79
544.678	31087.65
544.878	30944.3
545.078	30948.39
545.279	30577.71
545.479	30741.55
545.679	30753.83
545.879	30626.86
546.079	30643.24
546.28	30905.38
546.48	30434.35
546.68	30983.21
546.88	30854.19
547.08	30633
547.28	30467.12
547.48	30567.47
547.68	30635.05
547.88	30493.74
548.081	30753.83
548.281	30704.68
548.481	30821.42
548.681	30862.38
548.881	30747.69
549.081	30168.12
549.28	30372.91
549.48	31228.96
549.68	31030.31
549.88	30911.53
550.08	30321.71
550.28	30393.39
550.48	30755.88
550.68	30479.41
550.88	30374.96
551.08	30551.09
551.279	30555.18
551.479	30358.58
551.679	30503.98
551.879	30385.2
552.079	30653.48
552.278	30438.45
552.478	30190.64
552.678	30325.81
552.878	30381.1
553.077	30331.95
553.277	30370.86
553.477	30516.27
553.676	30477.36
553.876	30397.49
554.076	30135.35
554.275	30276.66
554.475	29959.22
554.674	30200.88
554.874	30334
555.074	29785.15
555.273	30471.22
555.473	30069.81
555.672	29807.67
555.872	30190.64
556.071	30327.86
556.271	30166.07
556.47	29979.7
556.67	29760.57
556.869	30086.2
557.068	30145.59
557.268	29443.13
557.467	30145.59
557.667	29647.93
557.866	29938.74
558.065	29817.91
558.265	29514.81
558.464	29451.33
558.663	29961.27
558.863	29121.6
559.062	30067.77
559.261	29443.13
559.461	29725.75
559.66	29080.64
559.859	29705.27
560.058	29146.18
560.258	29316.16
560.457	28959.81
560.656	29418.56
560.855	29434.94
561.054	29537.34
561.253	29080.64
561.453	29094.98
561.652	29121.6
561.851	29320.26
562.05	29064.26
562.249	28853.32
562.448	28927.05
562.647	28910.66
562.846	28802.12
563.045	28777.54
563.244	28937.29
563.443	28847.18
563.642	28345.42
563.841	28626
564.04	28714.06
564.239	28886.09
564.438	28431.44
564.637	28568.65
564.836	28769.35
565.035	28275.79
565.234	28154.96
565.432	28218.45
565.631	28142.67
565.83	28496.97
566.029	28181.59
566.228	27937.88
566.427	27978.84
566.625	27882.58
566.824	27526.24
567.023	28128.34
567.222	27243.62
567.42	27794.52
567.619	27544.67
567.818	27509.85
568.016	27313.25
568.215	27835.48
568.414	27472.99
568.612	27585.63
568.811	27266.14
569.01	27260
569.208	26723.43
569.407	27149.41
569.605	26946.66
569.804	27096.16
570.002	27073.63
570.201	26956.9
570.4	26799.21
570.598	26791.02
570.797	26811.49
570.995	26911.85
571.193	26530.92
571.392	26827.88
571.59	26365.04
571.789	26551.4
571.987	26109.04
572.186	26455.15
572.384	26109.04
572.582	26276.98
572.781	26360.94
572.979	25703.54
573.177	26135.67
573.376	25990.26
573.574	25523.32
573.772	25881.72
573.971	25863.29
574.169	25711.74
574.367	25711.74
574.565	26090.61
574.763	25582.71
574.962	25570.43
575.16	25296
575.358	25310.33
575.556	24863.88
575.754	25232.51
575.952	24923.27
576.151	25035.91
576.349	24810.63
576.547	24749.19
576.745	24859.78
576.943	24818.82
577.141	24540.3
577.339	24769.67
577.537	24495.24
577.735	24439.95
577.933	24302.73
578.131	24491.15
578.329	24267.92
578.527	24392.84
578.725	24450.19
578.923	24183.95
579.121	23792.79
579.319	24200.33
579.516	24007.83
579.714	23659.67
579.912	23798.93
580.11	23731.35
580.308	23952.53
580.506	23487.64
580.704	23475.35
580.901	23843.99
581.099	23925.91
581.297	23217.31
581.495	23219.36
581.692	23479.45
581.89	23119.01
582.088	23628.95
582.285	22928.55
582.483	23131.3
582.681	23166.11
582.878	22967.46
583.076	22559.91
583.274	23121.06
583.471	22674.6
583.669	22654.12
583.866	22625.45
584.064	22543.53
584.262	22619.3
584.459	22416.55
584.657	22482.09
584.854	22647.97
585.052	21966
585.249	22465.71
585.447	22303.92
585.644	22013.1
585.841	22043.82
586.039	22269.1
586.236	21896.37
586.434	21740.72
586.631	21664.95
586.828	21701.81
587.026	21804.21
587.223	21726.39
587.42	21775.54
587.618	21572.79
587.815	21163.2
588.012	21288.12
588.21	21200.06
588.407	21454.01
588.604	21247.16
588.801	21015.74
588.999	20907.2
589.196	20962.5
589.393	21191.87
589.59	20735.17
589.787	20563.14
589.984	20696.26
590.182	20600.01
590.379	20647.11
590.576	20538.57
590.773	20569.29
590.97	20120.78
591.167	20659.4
591.364	20106.45
591.561	20612.29
591.758	20059.34
591.955	20436.17
592.152	20303.05
592.349	20200.65
592.546	20184.27
592.743	20143.31
592.94	19674.32
593.137	19719.38
593.334	20239.56
593.531	19573.97
593.727	19619.03
593.924	19739.86
594.121	19270.87
594.318	19764.43
594.515	19297.5
594.712	19780.82
594.908	19557.59
595.105	19473.62
595.302	19041.5
595.499	19279.07
595.696	19307.74
595.892	18889.95
596.089	19100.89
596.286	18992.35
596.482	19201.24
596.679	19002.59
596.876	18918.62
597.072	18818.27
597.269	18846.94
597.466	18519.27
597.662	18400.49
597.859	18621.67
598.055	18881.76
598.252	18472.17
598.448	18390.25
598.645	18459.88
598.841	18308.33
599.038	18218.22
599.234	18173.16
599.431	17980.65
599.627	17859.82
599.824	18222.31
600.02	17767.66
600.217	18054.38
600.413	17759.47
600.609	17581.3
600.806	17630.45
601.002	17585.4
601.198	17626.36
601.395	17566.96
601.591	17693.94
601.787	17472.76
601.984	17317.11
602.18	17562.87
602.376	17493.24
602.572	17343.74
602.769	17198.33
602.965	17007.87
603.161	17128.7
603.357	16971.01
603.553	16948.48
603.75	16950.53
603.946	16850.17
604.142	17014.01
604.338	16567.56
604.534	16672
604.73	16741.63
604.926	16467.2
605.122	16508.16
605.318	16315.66
605.514	16293.13
605.71	16620.8
605.906	16248.07
606.102	16366.85
606.298	16368.9
606.494	16309.51
606.69	16368.9
606.886	16309.51
607.082	16010.51
607.278	16248.07
607.474	15734.03
607.67	16108.81
607.866	15717.65
608.062	15871.25
608.257	15848.72
608.453	15846.67
608.649	16063.75
608.845	15803.66
609.041	15705.36
609.236	15813.9
609.432	15598.87
609.628	15605.01
609.824	15789.33
610.019	15394.07
610.215	15678.74
610.411	15600.91
610.606	15432.98
610.802	15301.91
610.998	15242.52
611.193	15443.22
611.389	15058.2
611.584	15183.13
611.78	15076.63
611.976	14970.14
612.171	15101.21
612.367	15283.48
612.562	14884.12
612.758	15109.4
612.953	14984.48
613.149	15326.49
613.344	14843.17
613.539	15074.59
613.735	14941.47
613.93	14806.3
614.126	14839.07
614.321	14929.18
614.517	14761.25
614.712	14771.49
614.907	14794.01
615.103	14933.28
615.298	14591.27
615.493	14746.91
615.688	14396.71
615.884	14886.17
616.079	14454.05
616.274	14462.24
616.47	14550.31
616.665	14591.27
616.86	14312.74
617.055	14218.54
617.25	14261.54
617.445	14458.15
617.641	14079.27
617.836	14286.12
618.031	14226.73
618.226	14236.97
618.421	13911.34
618.616	14286.12
618.811	13954.35
619.006	14163.24
619.201	14009.64
619.396	13919.53
619.591	13573.42
619.786	13591.86
619.981	13489.46
620.176	13763.89
620.371	13636.91
620.566	13550.9
620.761	13559.09
620.956	13600.05
621.151	13065.53
621.346	13495.6
621.541	13108.54
621.735	13335.86
621.93	13253.94
622.125	13135.16
622.32	12999.99
622.515	12936.51
622.709	12606.78
622.904	12686.65
623.099	12565.82
623.294	12631.36
623.488	12537.15
623.683	12569.92
623.878	12217.67
624.072	12424.51
624.267	12451.14
624.462	12426.56
624.656	12299.59
624.851	12119.37
625.046	11771.21
625.24	11943.24
625.435	11808.08
625.629	11982.15
625.824	11990.35
626.018	11894.09
626.213	11394.39
626.407	11500.88
626.602	11568.46
626.796	11627.85
626.991	11418.96
627.185	11335
627.38	11181.4
627.574	11226.45
627.768	11220.31
627.963	11060.57
628.157	11132.25
628.352	11070.81
628.546	10911.07
628.74	10810.72
628.935	10849.63
629.129	10667.36
629.323	10859.87
629.517	10849.63
629.712	10657.12
629.906	10624.35
630.1	10601.82
630.294	10591.58
630.489	10325.35
630.683	10415.46
630.877	10394.98
631.071	10194.28
631.265	10079.59
631.459	10298.72
631.653	10079.59
631.848	10093.93
632.042	9956.71
632.236	10085.73
632.43	9674.09
632.624	9844.07
632.818	9690.48
633.012	9758.06
633.206	9592.17
633.4	9702.76
633.594	9563.5
633.788	9641.32
633.982	9495.92
634.176	9514.35
634.369	9323.89
634.563	9317.75
634.757	9141.62
634.951	9172.34
635.145	9330.03
635.339	9217.4
635.533	8897.91
635.726	9254.26
635.92	8815.99
636.114	9147.76
636.308	8945.02
636.501	8998.26
636.695	8830.33
636.889	8756.6
637.083	8758.65
637.276	8674.68
637.47	8441.22
637.664	8502.65
637.857	8631.68
638.051	8557.95
638.244	8463.74
638.438	8326.53
638.632	8383.87
638.825	8191.36
639.019	8260.99
639.212	8142.21
639.406	7980.42
639.599	8306.05
639.793	7964.04
639.986	7996.81
640.18	7859.59
640.373	7867.78
640.567	7923.08
640.76	7796.11
640.954	7751.05
641.147	7824.78
641.34	7652.75
641.534	7595.4
641.727	7495.05
641.92	7626.12
642.114	7685.51
642.307	7513.49
642.5	7261.59
642.694	7253.39
642.887	7296.4
643.08	7333.26
643.273	7140.76
643.467	7210.39
643.66	7150.99
643.853	7208.34
644.046	7146.9
644.239	7044.5
644.432	7054.74
644.626	7083.41
644.819	6899.09
645.012	6858.14
645.205	6835.61
645.398	6925.72
645.591	6759.83
645.784	6790.55
645.977	6520.22
646.17	6602.14
646.363	6811.03
646.556	6639
646.749	6602.14
646.942	6507.93
647.135	6464.93
647.328	6337.95
647.521	6417.82
647.714	6364.57
647.907	6325.66
648.099	6352.29
648.292	6186.4
648.485	6239.65
648.678	6303.14
648.871	6317.47
649.064	6184.35
649.256	6075.81
649.449	6200.74
649.642	6055.33
649.835	5965.22
650.027	6002.08
650.22	5971.36
650.413	5938.6
650.605	5897.64
650.798	5871.01
650.991	5823.91
651.183	5766.57
651.376	5844.39
651.568	5660.07
651.761	5647.79
651.954	5635.5
652.146	5678.51
652.339	5645.74
652.531	5592.49
652.724	5510.57
652.916	5432.75
653.109	5412.27
653.301	5275.06
653.494	5512.62
653.686	5365.17
653.879	5346.73
654.071	5252.53
654.263	5242.29
654.456	5281.2
654.648	5301.68
654.84	5266.86
655.033	5170.61
655.225	5205.42
655.417	5070.26
655.61	5174.71
655.802	5320.11
655.994	5049.78
656.186	4971.96
656.379	4990.39
656.571	4894.13
656.763	4844.98
656.955	4738.49
657.148	4947.38
657.34	4867.51
657.532	4750.78
657.724	4793.78
657.916	4765.11
658.108	4683.19
658.3	4785.59
658.492	4830.65
658.684	4638.14
658.876	4611.51
659.068	4662.71
659.26	4681.14
659.452	4523.45
659.644	4496.83
659.836	4359.61
660.028	4656.57
660.22	4341.18
660.412	4445.63
660.604	4298.17
660.796	4332.99
660.988	4388.29
661.18	4451.77
661.372	4263.36
661.563	4429.24
661.755	4140.48
661.947	4183.49
662.139	4173.25
662.331	4140.48
662.522	4154.82
662.714	4156.86
662.906	4074.95
663.097	4189.63
663.289	4031.94
663.481	4066.75
663.673	4097.47
663.864	3972.55
664.056	3925.44
664.247	3978.69
664.439	3980.74
664.631	3997.12
664.822	3814.85
665.014	3925.44
665.205	3849.67
665.397	3782.09
665.588	3859.91
665.78	3734.98
665.971	3833.29
666.163	3818.95
666.354	3734.98
666.546	3681.74
666.737	3653.06
666.929	3673.54
667.12	3689.93
667.311	3667.4
667.503	3489.23
667.694	3620.3
667.885	3634.63
668.077	3472.84
668.268	3513.8
668.459	3536.33
668.651	3630.54
668.842	3536.33
669.033	3483.08
669.224	3542.47
669.416	3517.9
669.607	3460.56
669.798	3388.88
669.989	3380.68
670.18	3376.59
670.371	3345.87
670.563	3327.44
670.754	3325.39
670.945	3333.58
671.136	3388.88
671.327	3268.05
671.518	3349.96
671.709	3427.79
671.9	3415.5
672.091	3139.02
672.282	3272.14
672.473	3190.22
672.664	3278.29
672.855	3085.78
673.046	3057.11
673.237	3034.58
673.428	3188.18
673.619	3163.6
673.809	3007.95
674	3157.46
674.191	3001.81
674.382	3153.36
674.573	3030.48
674.764	3020.24
674.954	2973.14
675.145	2962.9
675.336	3030.48
675.527	2964.95
675.717	2946.52
675.908	3030.48
676.099	3042.77
676.289	2966.99
676.48	3024.34
676.671	2899.41
676.861	2960.85
677.052	2899.41
677.243	2807.25
677.433	2940.37
677.624	2860.5
677.814	2936.28
678.005	2854.36
678.195	2792.92
678.386	2811.35
678.576	2821.59
678.767	2817.49
678.957	2829.78
679.148	2876.88
679.338	2817.49
679.529	2780.63
679.719	2678.23
679.909	2864.6
680.1	2731.48
680.29	2911.7
680.481	2878.93
680.671	2829.78
680.861	2743.77
681.052	2745.81
681.242	2659.8
681.432	2919.89
681.622	2770.39
681.813	2772.44
682.003	2680.28
682.193	2645.46
682.383	2770.39
682.573	2737.62
682.764	2645.46
682.954	2663.9
683.144	2616.79
683.334	2727.38
683.524	2715.09
683.714	2684.38
683.904	2678.23
684.094	2536.92
684.284	2588.12
684.474	2604.5
684.664	2555.35
684.854	2702.81
685.044	2651.61
685.234	2557.4
685.424	2704.85
685.614	2688.47
685.804	2553.31
685.994	2553.31
686.184	2643.42
686.374	2686.42
686.564	2575.83
686.753	2510.3
686.943	2586.07
687.133	2565.59
687.323	2571.74
687.513	2549.21
687.702	2594.26
687.892	2469.34
688.082	2442.71
688.272	2645.46
688.461	2547.16
688.651	2520.54
688.841	2412
689.03	2485.72
689.22	2510.3
689.41	2483.67
689.599	2457.05
689.789	2401.76
689.979	2528.73
690.168	2530.78
690.358	2309.6
690.547	2418.14
690.737	2446.81
690.926	2500.06
691.116	2375.13
691.305	2448.86
691.495	2344.41
691.684	2377.18
691.874	2442.71
692.063	2467.29
692.252	2502.11
692.442	2338.27
692.631	2373.08
692.82	2428.38
693.01	2420.19
693.199	2442.71
693.388	2373.08
693.578	2418.14
693.767	2346.46
693.956	2254.3
694.146	2358.75
694.335	2311.64
694.524	2379.23
694.713	2399.71
694.902	2432.47
695.092	2254.3
695.281	2237.92
695.47	2305.5
695.659	2258.4
695.848	2223.58
696.037	2244.06
696.226	2285.02
696.415	2231.77
696.604	2211.29
696.793	2303.45
696.982	2254.3
697.171	2221.53
697.36	2274.78
697.549	2174.43
697.738	2207.2
697.927	2201.05
698.116	2162.14
698.305	2164.19
698.494	2344.41
698.683	2145.76
698.872	2246.11
699.061	2180.57
699.25	2170.33
699.438	2223.58
699.627	2096.61
699.816	2280.93
700.005	2127.33
700.193	2213.34
700.382	2244.06
700.571	2194.91
700.76	2330.08
700.948	2313.69
701.137	2076.13
701.326	2137.57
701.514	2063.84
701.703	2213.34
701.892	2235.87
702.08	2121.18
702.269	2108.9
702.457	2096.61
702.646	2049.5
702.834	2115.04
703.023	2149.86
703.212	2010.59
703.4	2141.66
703.589	2104.8
703.777	2145.76
703.965	2112.99
704.154	2153.95
704.342	2186.72
704.531	2100.7
704.719	2143.71
704.907	2055.65
705.096	1990.11
705.284	2162.14
705.472	2006.5
705.661	1940.96
705.849	1977.83
706.037	2096.61
706.226	2102.75
706.414	2047.46
706.602	2024.93
706.79	2029.03
706.979	2180.57
707.167	1949.15
707.355	2112.99
707.543	2006.5
707.731	2026.98
707.919	1910.24
708.107	1949.15
708.296	1959.39
708.484	1965.54
708.672	1940.96
708.86	2012.64
709.048	1916.39
709.236	1975.78
709.424	1869.28
709.612	2033.12
709.8	1983.97
709.988	1832.42
710.176	2024.93
710.364	2026.98
710.551	1943.01
710.739	1918.43
710.927	1988.07
711.115	1965.54
711.303	1949.15
711.491	1760.74
711.679	1809.89
711.866	1826.28
712.054	2049.5
712.242	1789.41
712.43	1932.77
712.617	1818.08
712.805	1977.83
712.993	1897.96
713.181	1852.9
713.368	1854.95
713.556	1865.19
713.744	1834.47
713.931	1918.43
714.119	1811.94
714.306	1805.8
714.494	1840.61
714.682	1826.28
714.869	1801.7
715.057	1813.99
715.244	1705.45
715.432	1830.37
715.619	1787.36
715.807	1863.14
715.994	1709.54
716.182	1834.47
716.369	1754.6
716.556	1734.12
716.744	1719.78
716.931	1838.56
717.119	1764.84
717.306	1783.27
717.493	1668.58
717.681	1695.21
717.868	1811.94
718.055	1787.36
718.242	1687.01
718.43	1740.26
718.617	1719.78
718.804	1680.87
718.991	1793.51
719.179	1693.16
719.366	1844.71
719.553	1738.21
719.74	1592.81
719.927	1676.77
720.114	1703.4
720.301	1631.72
720.488	1654.25
720.676	1703.4
720.863	1582.57
721.05	1623.53
721.237	1744.36
721.424	1641.96
721.611	1629.67
721.798	1701.35
721.985	1678.82
722.172	1639.91
722.358	1711.59
722.545	1662.44
722.732	1668.58
722.919	1691.11
723.106	1578.47
723.293	1621.48
723.48	1633.77
723.667	1648.1
723.853	1611.24
724.04	1631.72
724.227	1598.95
724.414	1629.67
724.6	1605.1
724.787	1627.62
724.974	1588.71
725.161	1648.1
725.347	1455.59
725.534	1639.91
725.72	1576.42
725.907	1525.22
726.094	1603.05
726.28	1721.83
726.467	1641.96
726.653	1644.01
726.84	1539.56
727.027	1670.63
727.213	1590.76
727.4	1433.07
727.586	1637.86
727.773	1514.98
727.959	1627.62
728.145	1457.64
728.332	1611.24
728.518	1609.19
728.705	1664.49
728.891	1494.51
729.077	1512.94
729.264	1553.9
729.45	1568.23
729.636	1486.31
729.823	1523.18
730.009	1537.51
730.195	1498.6
730.382	1521.13
730.568	1490.41
730.754	1609.19
730.94	1410.54
731.126	1514.98
731.313	1404.39
731.499	1504.75
731.685	1453.55
731.871	1492.46
732.057	1451.5
732.243	1588.71
732.429	1543.66
732.615	1523.18
732.801	1557.99
732.987	1514.98
733.173	1574.38
733.359	1566.18
733.545	1500.65
733.731	1506.79
733.917	1557.99
734.103	1553.9
734.289	1506.79
734.475	1482.22
734.661	1453.55
734.847	1494.51
735.033	1566.18
735.219	1482.22
735.404	1469.93
735.59	1455.59
735.776	1514.98
735.962	1533.42
736.148	1465.83
736.333	1465.83
736.519	1375.72
736.705	1390.06
736.89	1435.11
737.076	1467.88
737.262	1437.16
737.447	1431.02
737.633	1441.26
737.819	1428.97
738.004	1478.12
738.19	1504.75
738.375	1424.87
738.561	1508.84
738.747	1398.25
738.932	1420.78
739.118	1428.97
739.303	1463.79
739.489	1437.16
739.674	1449.45
739.859	1445.35
740.045	1357.29
740.23	1355.24
740.416	1293.8
740.601	1381.87
740.786	1367.53
740.972	1377.77
741.157	1396.2
741.342	1302
741.528	1373.68
741.713	1279.47
741.898	1457.64
742.084	1408.49
742.269	1383.91
742.454	1347.05
742.639	1320.43
742.824	1428.97
743.01	1390.06
743.195	1398.25
743.38	1308.14
743.565	1293.8
743.75	1345
743.935	1377.77
744.12	1345
744.305	1252.84
744.49	1220.08
744.675	1299.95
744.86	1324.52
745.045	1279.47
745.23	1324.52
745.415	1349.1
745.6	1261.04
745.785	1295.85
745.97	1261.04
746.155	1238.51
746.34	1271.28
746.525	1295.85
746.71	1181.17
746.895	1263.08
747.079	1168.88
747.264	1187.31
747.449	1123.82
747.634	1275.37
747.819	1150.45
748.003	1220.08
748.188	1191.41
748.373	1181.17
748.557	1170.93
748.742	1195.5
748.927	1172.97
749.111	1123.82
749.296	1183.21
749.481	1056.24
749.665	1123.82
749.85	1064.43
750.034	1140.21
750.219	1101.3
750.404	1041.9
750.588	1074.67
750.773	1058.29
750.957	1119.73
751.141	1013.23
751.326	1095.15
751.51	1093.1
751.695	1025.52
751.879	1039.86
752.064	1111.54
752.248	1056.24
752.432	1015.28
752.617	966.13
752.801	1005.04
752.985	992.75
753.17	1000.94
753.354	962.03
753.538	1000.94
753.722	1031.66
753.907	951.79
754.091	955.89
754.275	941.55
754.459	951.79
754.643	943.6
754.828	959.99
755.012	914.93
755.196	890.35
755.38	951.79
755.564	896.5
755.748	947.7
755.932	908.79
756.116	949.75
756.3	937.46
756.484	900.59
756.668	826.87
756.852	943.6
757.036	855.54
757.22	816.63
757.404	833.01
757.588	873.97
757.772	880.11
757.956	761.33
758.14	890.35
758.323	851.44
758.507	814.58
758.691	751.09
758.875	900.59
759.059	794.1
759.242	800.24
759.426	849.4
759.61	767.48
759.794	781.81
759.977	816.63
760.161	880.11
760.345	804.34
760.528	787.96
760.712	693.75
760.895	830.96
761.079	775.67
761.263	798.2
761.446	687.61
761.63	826.87
761.813	747
761.997	724.47
762.18	765.43
762.364	720.37
762.547	759.28
762.731	787.96
762.914	726.52
763.098	687.61
763.281	701.94
763.464	720.37
763.648	699.89
763.831	695.8
764.015	730.61
764.198	734.71
764.381	732.66
764.564	697.85
764.748	790
764.931	681.46
765.114	667.13
765.297	765.43
765.481	675.32
765.664	617.97
765.847	751.09
766.03	636.41
766.213	603.64
766.397	658.93
766.58	687.61
766.763	716.28
766.946	771.57
767.129	630.26
767.312	706.04
767.495	648.69
767.678	630.26
767.861	593.4
768.044	605.69
768.227	636.41
768.41	695.8
768.593	646.65
768.776	617.97
768.959	587.26
769.142	601.59
769.324	663.03
769.507	517.62
769.69	663.03
769.873	669.17
770.056	663.03
770.239	648.69
770.421	632.31
770.604	540.15
770.787	603.64
770.97	570.87
771.152	628.21
771.335	589.3
771.518	570.87
771.7	579.06
771.883	640.5
772.066	626.17
772.248	560.63
772.431	601.59
772.613	613.88
772.796	464.38
772.978	620.02
773.161	577.02
773.343	581.11
773.526	554.49
773.708	599.54
773.891	564.73
774.073	564.73
774.256	517.62
774.438	531.96
774.621	499.19
774.803	437.75
774.985	499.19
775.168	507.38
775.35	540.15
775.532	511.48
775.715	503.29
775.897	456.19
776.079	407.03
776.261	570.87
776.444	519.67
776.626	486.9
776.808	531.96
776.99	425.47
777.173	511.48
777.355	441.85
777.537	484.86
777.719	445.95
777.901	421.37
778.083	435.71
778.265	437.75
778.447	445.95
778.629	456.19
778.811	427.51
778.993	501.24
779.175	402.94
779.357	409.08
779.539	417.27
779.721	445.95
779.903	443.9
780.085	431.61
780.267	441.85
780.449	458.23
780.631	411.13
780.812	388.6
780.994	400.89
781.176	361.98
781.358	425.47
781.54	407.03
781.721	372.22
781.903	386.55
782.085	433.66
782.267	384.51
782.448	286.2
782.63	400.89
782.812	429.56
782.993	447.99
783.175	394.75
783.357	349.69
783.538	325.12
783.72	398.84
783.901	376.31
784.083	290.3
784.264	409.08
784.446	300.54
784.627	251.39
784.809	331.26
784.99	378.36
785.172	331.26
785.353	265.72
785.535	394.75
785.716	357.88
785.897	355.83
786.079	280.06
786.26	325.12
786.441	323.07
786.623	241.15
786.804	361.98
786.985	323.07
787.167	335.35
787.348	298.49
787.529	327.16
787.71	329.21
787.891	329.21
788.073	306.68
788.254	300.54
788.435	359.93
788.616	296.44
788.797	255.48
788.978	302.59
789.159	265.72
789.34	304.64
789.522	280.06
789.703	239.1
789.884	296.44
790.065	235
790.246	280.06
790.427	298.49
790.607	204.28
790.788	187.9
790.969	275.96
791.15	288.25
791.331	175.61
791.512	253.44
791.693	243.2
791.874	249.34
792.054	251.39
792.235	312.83
792.416	278.01
792.597	261.63
792.778	269.82
792.958	251.39
793.139	271.87
793.32	247.29
793.5	263.68
793.681	251.39
793.862	255.48
794.042	259.58
794.223	241.15
794.404	251.39
794.584	247.29
794.765	273.92
794.945	239.1
795.126	261.63
795.306	220.67
795.487	278.01
795.667	214.52
795.848	220.67
796.028	232.96
796.209	325.12
796.389	167.42
796.57	151.04
796.75	245.24
796.93	216.57
797.111	171.52
797.291	212.48
797.471	278.01
797.652	202.24
797.832	179.71
798.012	241.15
798.192	210.43
798.373	224.76
798.553	159.23
798.733	198.14
798.913	200.19
799.093	151.04
799.274	183.81
799.454	200.19
799.634	179.71
799.814	220.67
799.994	177.66
800.174	257.53
800.354	247.29
800.534	196.09
800.714	208.38
800.894	208.38
801.074	247.29
801.254	196.09
801.434	142.85
801.614	138.75
801.794	179.71
801.974	450.04
802.154	183.81
802.334	165.37
802.514	196.09
802.693	169.47
802.873	138.75
803.053	148.99
803.233	153.09
803.413	157.18
803.592	220.67
803.772	200.19
803.952	124.41
804.131	173.57
804.311	175.61
804.491	161.28
804.67	138.75
804.85	198.14
805.03	157.18
805.209	130.56
805.389	157.18
805.568	173.57
805.748	114.17
805.928	148.99
806.107	146.94
806.287	153.09
806.466	148.99
806.646	118.27
806.825	128.51
807.004	146.94
807.184	132.61
807.363	198.14
807.543	183.81
807.722	181.76
807.901	134.65
808.081	196.09
808.26	108.03
808.439	148.99
808.619	132.61
808.798	175.61
808.977	241.15
809.156	159.23
809.336	108.03
809.515	171.52
809.694	112.13
809.873	105.98
810.052	155.13
810.231	136.7
810.411	200.19
810.59	189.95
810.769	122.37
810.948	103.93
811.127	192
811.306	214.52
811.485	120.32
811.664	85.5
811.843	103.93
812.022	181.76
812.201	171.52
812.38	108.03
812.559	153.09
812.737	138.75
812.916	32.26
813.095	105.98
813.274	148.99
813.453	81.41
813.632	108.03
813.811	155.13
813.989	99.84
814.168	97.79
814.347	118.27
814.526	122.37
814.704	91.65
814.883	120.32
815.062	85.5
815.24	175.61
815.419	83.45
815.598	165.37
815.776	65.02
815.955	165.37
816.133	67.07
816.312	165.37
816.49	85.5
816.669	50.69
816.847	157.18
817.026	146.94
817.204	103.93
817.383	122.37
817.561	99.84
817.74	128.51
817.918	7.68
818.097	97.79
818.275	30.21
818.453	46.59
818.632	101.89
818.81	124.41
818.988	124.41
819.167	99.84
819.345	60.93
819.523	75.26
819.701	97.79
819.879	65.02
820.058	83.45
820.236	105.98
820.414	34.3
820.592	58.88
820.77	118.27
820.948	138.75
821.127	173.57
821.305	71.17
821.483	73.21
821.661	155.13
821.839	157.18
822.017	67.07
822.195	175.61
822.373	97.79
822.551	91.65
822.729	171.52
822.907	110.08
823.085	122.37
823.262	140.8
823.44	67.07
823.618	77.31
823.796	116.22
823.974	44.54
824.152	130.56
824.329	173.57
824.507	79.36
824.685	108.03
824.863	62.98
825.04	95.74
825.218	75.26
825.396	58.88
825.574	155.13
825.751	144.89
825.929	114.17
826.107	91.65
826.284	75.26
826.462	142.85
826.639	32.26
826.817	83.45
826.994	171.52
827.172	46.59
827.349	60.93
827.527	112.13
827.704	155.13
827.882	148.99
828.059	85.5
828.237	97.79
828.414	67.07
828.591	118.27
828.769	89.6
828.946	103.93
829.124	69.12
829.301	62.98
829.478	101.89
829.655	122.37
829.833	42.5
830.01	73.21
830.187	126.46
830.364	89.6
830.542	83.45
830.719	194.05
830.896	110.08
831.073	110.08
831.25	161.28
831.427	44.54
831.604	58.88
831.782	110.08
831.959	105.98
832.136	91.65
832.313	67.07
832.49	89.6
832.667	60.93
832.844	114.17
833.021	116.22
833.198	89.6
833.374	75.26
833.551	105.98
833.728	15.87
833.905	93.69
834.082	28.16
834.259	32.26
834.436	105.98
834.612	42.5
834.789	177.66
834.966	44.54
835.143	81.41
835.319	110.08
835.496	56.83
835.673	67.07
835.85	103.93
836.026	56.83
836.203	153.09
836.38	34.3
836.556	77.31
836.733	44.54
836.909	85.5
837.086	108.03
837.262	17.92
837.439	3.58
837.616	48.64
837.792	54.78
837.968	108.03
838.145	71.17
838.321	108.03
838.498	28.16
838.674	60.93
838.851	85.5
839.027	97.79
839.203	110.08
839.38	89.6
839.556	91.65
839.732	83.45
839.909	19.97
840.085	40.45
840.261	81.41
840.437	155.13
840.614	108.03
840.79	99.84
840.966	79.36
841.142	7.68
841.318	34.3
841.494	60.93
841.671	112.13
841.847	89.6
842.023	5.63
842.199	52.74
842.375	56.83
842.551	-16.9
842.727	46.59
842.903	108.03
843.079	3.58
843.255	50.69
843.431	60.93
843.607	52.74
843.783	-18.94
843.959	54.78
844.134	56.83
844.31	110.08
844.486	71.17
844.662	136.7
844.838	77.31
845.013	-31.23
845.189	24.06
845.365	50.69
845.541	-0.51
845.716	69.12
845.892	15.87
846.068	46.59
846.244	60.93
846.419	60.93
846.595	67.07
846.77	89.6
846.946	-31.23
847.122	44.54
847.297	69.12
847.473	32.26
847.648	83.45
847.824	-66.05
847.999	60.93
848.175	62.98
848.35	19.97
848.526	99.84
848.701	22.02
848.876	77.31
849.052	-4.61
849.227	58.88
849.403	-6.66
849.578	56.83
849.753	56.83
849.929	7.68
850.104	108.03
850.279	62.98
850.454	-0.51
850.63	110.08
850.805	122.37
850.98	36.35
851.155	34.3
851.33	48.64
851.505	99.84
851.681	91.65
851.856	69.12
852.031	91.65
852.206	42.5
852.381	-2.56
852.556	50.69
852.731	50.69
852.906	87.55
853.081	120.32
853.256	46.59
853.431	40.45
853.606	58.88
853.781	52.74
853.956	79.36
854.131	26.11
854.305	24.06
854.48	-10.75
854.655	30.21
854.83	44.54
855.005	28.16
855.18	48.64
855.354	97.79
855.529	24.06
855.704	30.21
855.879	15.87
856.053	58.88
856.228	118.27
856.403	24.06
856.577	52.74
856.752	13.82
856.926	71.17
857.101	-4.61
857.276	36.35
857.45	116.22
857.625	36.35
857.799	48.64
857.974	71.17
858.148	28.16
858.323	60.93
858.497	-4.61
858.672	-29.18
858.846	42.5
859.02	93.69
859.195	48.64
859.369	75.26
859.543	3.58
859.718	116.22
859.892	62.98
860.066	81.41
860.241	65.02
860.415	-41.47
860.589	7.68
860.763	73.21
860.938	91.65
861.112	50.69
861.286	-12.8
861.46	28.16
861.634	62.98
861.808	-12.8
861.982	40.45
862.157	79.36
862.331	71.17
862.505	73.21
862.679	50.69
862.853	93.69
863.027	36.35
863.201	15.87
863.375	71.17
863.549	3.58
863.722	89.6
863.896	83.45
864.07	11.78
864.244	-4.61
864.418	-18.94
864.592	13.82
864.766	-14.85
864.939	34.3
865.113	-45.57
865.287	1.54
865.461	87.55
865.634	5.63
865.808	-55.81
865.982	-18.94
866.156	71.17
866.329	-8.7
866.503	46.59
866.676	97.79
866.85	19.97
867.024	32.26
867.197	15.87
867.371	36.35
867.544	-10.75
867.718	7.68
867.891	69.12
868.065	28.16
868.238	73.21
868.412	130.56
868.585	28.16
868.759	17.92
868.932	36.35
869.105	36.35
869.279	32.26
869.452	103.93
869.625	-25.09
869.799	50.69
869.972	58.88
870.145	30.21
870.319	62.98
870.492	-45.57
870.665	116.22
870.838	9.73
871.011	-8.7
871.185	56.83
871.358	62.98
871.531	48.64
871.704	32.26
871.877	22.02
872.05	15.87
872.223	32.26
872.396	79.36
872.569	34.3
872.742	-8.7
872.915	19.97
873.088	42.5
873.261	19.97
873.434	-2.56
873.607	85.5
873.78	62.98
873.953	-12.8
874.126	32.26
874.299	11.78
874.471	24.06
874.644	99.84
874.817	77.31
874.99	71.17
875.163	15.87
875.335	1.54
875.508	3.58
875.681	71.17
875.853	40.45
876.026	-23.04
876.199	5.63
876.371	44.54
876.544	99.84
876.717	105.98
876.889	50.69
877.062	-27.14
877.234	56.83
877.407	26.11
877.579	-8.7
877.752	40.45
877.924	19.97
878.097	38.4
878.269	-6.66
878.442	69.12
878.614	65.02
878.786	56.83
878.959	-0.51
879.131	56.83
879.303	-43.52
879.476	48.64
879.648	81.41
879.82	11.78
879.993	-8.7
880.165	-0.51
880.337	32.26
880.509	67.07
880.681	38.4
880.854	48.64
881.026	91.65
881.198	79.36
881.37	28.16
881.542	46.59
881.714	19.97
881.886	103.93
882.058	13.82
882.23	19.97
882.402	60.93
882.574	75.26
882.746	3.58
882.918	24.06
883.09	77.31
883.262	56.83
883.434	3.58
883.606	11.78
883.778	44.54
883.95	130.56
884.122	13.82
884.293	15.87
884.465	42.5
884.637	54.78
884.809	-18.94
884.98	-8.7
885.152	50.69
885.324	32.26
885.496	3.58
885.667	30.21
885.839	-8.7
886.011	101.89
886.182	69.12
886.354	73.21
886.525	13.82
886.697	48.64
886.869	13.82
887.04	38.4
887.212	128.51
887.383	83.45
887.555	-25.09
887.726	-6.66
887.897	11.78
888.069	40.45
888.24	13.82
888.412	-31.23
888.583	-0.51
888.754	-12.8
888.926	36.35
889.097	17.92
889.268	34.3
889.44	3.58
889.611	-4.61
889.782	-39.42
889.953	122.37
890.125	3.58
890.296	34.3
890.467	46.59
890.638	54.78
890.809	65.02
890.98	26.11
891.151	-2.56
891.323	-2.56
891.494	101.89
891.665	38.4
891.836	60.93
892.007	105.98
892.178	62.98
892.349	9.73
892.52	1.54
892.691	17.92
892.862	50.69
893.032	7.68
893.203	81.41
893.374	3.58
893.545	112.13
893.716	-20.99
893.887	1.54
894.057	5.63
894.228	24.06
894.399	3.58
894.57	87.55
894.74	9.73
894.911	48.64
895.082	17.92
895.253	65.02
895.423	91.65
895.594	97.79
895.764	62.98
895.935	13.82
896.106	42.5
896.276	30.21
896.447	46.59
896.617	58.88
896.788	-20.99
896.958	77.31
897.129	11.78
897.299	87.55
897.47	15.87
897.64	-16.9
897.81	-6.66
897.981	19.97
898.151	93.69
898.322	75.26
898.492	11.78
898.662	-8.7
898.832	1.54
899.003	-4.61
899.173	13.82
899.343	65.02
899.513	-29.18
