Data from USB4F104151__12__12-58-29-580.txt Node

Date: Fri Mar 14 12:58:29 EDT 2025
User: louis
Spectrometer: USB4F10415
Trigger mode: 4
Integration Time (sec): 1.000000E-2
Scans to average: 1
Electric dark correction enabled: true
Nonlinearity correction enabled: false
Boxcar width: 0
XAxis mode: Wavelengths
Number of Pixels in Spectrum: 3648
>>>>>Begin Spectral Data<<<<<
178.204	-25.43
178.424	-25.43
178.644	-25.43
178.864	-21.33
179.084	-27.48
179.304	-131.92
179.524	-23.38
179.744	50.35
179.964	19.63
180.184	-9.05
180.404	19.63
180.624	-21.33
180.844	33.96
181.064	-29.52
181.283	11.43
181.503	54.44
181.723	25.77
181.943	-33.62
182.163	15.53
182.383	-41.81
182.602	52.39
182.822	3.24
183.042	-58.2
183.262	-15.19
183.482	-13.14
183.701	-78.68
183.921	19.63
184.141	25.77
184.361	23.72
184.58	-33.62
184.8	-13.14
185.02	15.53
185.239	-17.24
185.459	9.39
185.679	-0.85
185.898	-62.29
186.118	31.91
186.338	38.06
186.557	-23.38
186.777	-4.95
186.997	42.15
187.216	13.48
187.436	54.44
187.655	19.63
187.875	54.44
188.095	-25.43
188.314	31.91
188.534	42.15
188.753	27.82
188.973	62.63
189.192	48.3
189.412	54.44
189.631	21.67
189.851	25.77
190.07	-11.09
190.29	-47.96
190.509	23.72
190.729	-2.9
190.948	48.3
191.168	42.15
191.387	62.63
191.607	-21.33
191.826	93.35
192.045	-27.48
192.265	46.25
192.484	21.67
192.704	21.67
192.923	-50
193.142	27.82
193.362	-25.43
193.581	70.83
193.8	-17.24
194.02	-4.95
194.239	-43.86
194.458	93.35
194.678	60.59
194.897	31.91
195.116	-31.57
195.335	-4.95
195.555	29.87
195.774	-11.09
195.993	-15.19
196.212	38.06
196.432	-11.09
196.651	-27.48
196.87	-9.05
197.089	-13.14
197.308	-2.9
197.528	38.06
197.747	-41.81
197.966	36.01
198.185	-45.91
198.404	-0.85
198.623	-29.52
198.842	7.34
199.062	17.58
199.281	-35.67
199.5	89.26
199.719	56.49
199.938	40.11
200.157	13.48
200.376	-66.39
200.595	-7
200.814	-4.95
201.033	-9.05
201.252	64.68
201.471	-11.09
201.69	-9.05
201.909	5.29
202.128	-27.48
202.347	54.44
202.566	7.34
202.785	-9.05
203.004	9.39
203.223	56.49
203.442	13.48
203.661	5.29
203.879	42.15
204.098	-33.62
204.317	25.77
204.536	36.01
204.755	-35.67
204.974	-72.53
205.193	-72.53
205.411	38.06
205.63	42.15
205.849	50.35
206.068	36.01
206.287	13.48
206.505	3.24
206.724	-37.72
206.943	5.29
207.162	-25.43
207.381	17.58
207.599	68.78
207.818	46.25
208.037	36.01
208.255	-0.85
208.474	70.83
208.693	29.87
208.911	-33.62
209.13	38.06
209.349	-2.9
209.567	-58.2
209.786	13.48
210.005	23.72
210.223	13.48
210.442	-66.39
210.661	66.73
210.879	3.24
211.098	-35.67
211.316	9.39
211.535	46.25
211.753	13.48
211.972	9.39
212.191	31.91
212.409	7.34
212.628	1.19
212.846	23.72
213.065	31.91
213.283	74.92
213.502	46.25
213.72	27.82
213.938	23.72
214.157	44.2
214.375	48.3
214.594	15.53
214.812	56.49
215.031	19.63
215.249	-7
215.467	31.91
215.686	27.82
215.904	27.82
216.122	-0.85
216.341	52.39
216.559	3.24
216.778	31.91
216.996	38.06
217.214	36.01
217.432	-27.48
217.651	1.19
217.869	-35.67
218.087	19.63
218.306	-9.05
218.524	-4.95
218.742	-21.33
218.96	27.82
219.179	74.92
219.397	-19.29
219.615	25.77
219.833	89.26
220.051	-7
220.27	33.96
220.488	17.58
220.706	7.34
220.924	-35.67
221.142	-13.14
221.36	-25.43
221.578	40.11
221.796	13.48
222.015	17.58
222.233	21.67
222.451	29.87
222.669	31.91
222.887	46.25
223.105	-45.91
223.323	93.35
223.541	-35.67
223.759	-37.72
223.977	1.19
224.195	-11.09
224.413	33.96
224.631	-27.48
224.849	52.39
225.067	76.97
225.285	-27.48
225.503	85.16
225.721	-7
225.939	-4.95
226.157	83.11
226.375	3.24
226.592	58.54
226.81	109.74
227.028	-37.72
227.246	54.44
227.464	1.19
227.682	60.59
227.9	27.82
228.117	-11.09
228.335	44.2
228.553	15.53
228.771	23.72
228.989	48.3
229.206	-7
229.424	-27.48
229.642	5.29
229.86	54.44
230.077	5.29
230.295	52.39
230.513	-19.29
230.731	-9.05
230.948	50.35
231.166	38.06
231.384	-13.14
231.601	-21.33
231.819	42.15
232.037	5.29
232.254	-11.09
232.472	60.59
232.689	-76.63
232.907	48.3
233.125	3.24
233.342	42.15
233.56	46.25
233.777	36.01
233.995	7.34
234.213	68.78
234.43	60.59
234.648	-0.85
234.865	33.96
235.083	87.21
235.3	17.58
235.518	29.87
235.735	50.35
235.953	-13.14
236.17	-60.24
236.388	13.48
236.605	-19.29
236.822	25.77
237.04	74.92
237.257	-9.05
237.475	-35.67
237.692	-9.05
237.909	21.67
238.127	13.48
238.344	-29.52
238.562	60.59
238.779	29.87
238.996	17.58
239.214	23.72
239.431	54.44
239.648	-21.33
239.865	-21.33
240.083	9.39
240.3	5.29
240.517	46.25
240.735	-0.85
240.952	21.67
241.169	-35.67
241.386	60.59
241.603	1.19
241.821	-47.96
242.038	60.59
242.255	7.34
242.472	-21.33
242.689	-11.09
242.907	42.15
243.124	-39.76
243.341	-29.52
243.558	-60.24
243.775	31.91
243.992	38.06
244.209	42.15
244.426	40.11
244.643	-80.72
244.86	-27.48
245.078	-11.09
245.295	-41.81
245.512	-2.9
245.729	-25.43
245.946	7.34
246.163	-66.39
246.38	-2.9
246.597	52.39
246.814	33.96
247.031	36.01
247.248	46.25
247.464	25.77
247.681	21.67
247.898	-0.85
248.115	95.4
248.332	27.82
248.549	81.07
248.766	62.63
248.983	113.83
249.2	46.25
249.417	46.25
249.633	38.06
249.85	-13.14
250.067	-13.14
250.284	-9.05
250.501	9.39
250.717	-0.85
250.934	-41.81
251.151	40.11
251.368	-13.14
251.585	7.34
251.801	-27.48
252.018	81.07
252.235	-41.81
252.451	-4.95
252.668	3.24
252.885	15.53
253.102	31.91
253.318	1.19
253.535	-25.43
253.752	-29.52
253.968	-0.85
254.185	-66.39
254.401	23.72
254.618	48.3
254.835	-70.48
255.051	36.01
255.268	31.91
255.484	44.2
255.701	7.34
255.917	-68.44
256.134	-2.9
256.351	-17.24
256.567	25.77
256.784	-41.81
257	-45.91
257.217	31.91
257.433	-19.29
257.65	52.39
257.866	-11.09
258.082	5.29
258.299	-0.85
258.515	68.78
258.732	-13.14
258.948	-13.14
259.165	31.91
259.381	-7
259.597	-62.29
259.814	36.01
260.03	40.11
260.246	44.2
260.463	-27.48
260.679	38.06
260.895	23.72
261.112	-33.62
261.328	44.2
261.544	23.72
261.761	72.87
261.977	29.87
262.193	-9.05
262.409	-2.9
262.626	-52.05
262.842	-52.05
263.058	91.31
263.274	29.87
263.49	7.34
263.707	62.63
263.923	25.77
264.139	23.72
264.355	42.15
264.571	50.35
264.787	1.19
265.004	17.58
265.22	-9.05
265.436	72.87
265.652	7.34
265.868	-76.63
266.084	54.44
266.3	62.63
266.516	19.63
266.732	36.01
266.948	19.63
267.164	31.91
267.38	11.43
267.596	27.82
267.812	81.07
268.028	52.39
268.244	58.54
268.46	3.24
268.676	-19.29
268.892	81.07
269.108	23.72
269.324	-19.29
269.54	31.91
269.756	-4.95
269.972	-11.09
270.188	54.44
270.403	3.24
270.619	23.72
270.835	-13.14
271.051	-47.96
271.267	-19.29
271.483	27.82
271.698	3.24
271.914	60.59
272.13	-50
272.346	36.01
272.562	21.67
272.777	-21.33
272.993	36.01
273.209	21.67
273.425	19.63
273.64	-9.05
273.856	42.15
274.072	-13.14
274.287	-2.9
274.503	-47.96
274.719	-43.86
274.934	21.67
275.15	-13.14
275.366	48.3
275.581	-11.09
275.797	56.49
276.012	-17.24
276.228	-11.09
276.444	38.06
276.659	-41.81
276.875	-9.05
277.09	36.01
277.306	9.39
277.521	-7
277.737	-9.05
277.952	46.25
278.168	56.49
278.383	21.67
278.599	11.43
278.814	21.67
279.03	19.63
279.245	42.15
279.461	-31.57
279.676	27.82
279.892	-41.81
280.107	36.01
280.322	-39.76
280.538	5.29
280.753	19.63
280.969	48.3
281.184	95.4
281.399	83.11
281.615	23.72
281.83	-31.57
282.045	-66.39
282.26	21.67
282.476	50.35
282.691	66.73
282.906	29.87
283.122	36.01
283.337	11.43
283.552	-0.85
283.767	-0.85
283.983	13.48
284.198	62.63
284.413	89.26
284.628	-58.2
284.843	15.53
285.058	19.63
285.274	27.82
285.489	23.72
285.704	60.59
285.919	-13.14
286.134	60.59
286.349	-19.29
286.564	29.87
286.779	142.5
286.995	23.72
287.21	31.91
287.425	15.53
287.64	27.82
287.855	21.67
288.07	13.48
288.285	29.87
288.5	-19.29
288.715	-4.95
288.93	-19.29
289.145	62.63
289.36	56.49
289.575	9.39
289.79	54.44
290.004	-74.58
290.219	42.15
290.434	-4.95
290.649	-35.67
290.864	-19.29
291.079	-29.52
291.294	11.43
291.509	13.48
291.724	11.43
291.938	21.67
292.153	-15.19
292.368	1.19
292.583	74.92
292.798	81.07
293.012	-25.43
293.227	62.63
293.442	-27.48
293.657	-13.14
293.871	33.96
294.086	3.24
294.301	128.17
294.516	-56.15
294.73	-56.15
294.945	1.19
295.16	1.19
295.374	54.44
295.589	-58.2
295.804	-54.1
296.018	-11.09
296.233	117.93
296.447	52.39
296.662	36.01
296.877	-13.14
297.091	29.87
297.306	44.2
297.52	3.24
297.735	7.34
297.949	25.77
298.164	7.34
298.378	79.02
298.593	7.34
298.807	-31.57
299.022	79.02
299.236	60.59
299.451	19.63
299.665	-4.95
299.88	-45.91
300.094	-4.95
300.309	23.72
300.523	23.72
300.737	15.53
300.952	13.48
301.166	23.72
301.381	3.24
301.595	9.39
301.809	-68.44
302.024	68.78
302.238	-7
302.452	5.29
302.667	52.39
302.881	21.67
303.095	19.63
303.309	91.31
303.524	13.48
303.738	44.2
303.952	-45.91
304.166	44.2
304.381	25.77
304.595	44.2
304.809	38.06
305.023	15.53
305.237	-13.14
305.452	111.78
305.666	74.92
305.88	46.25
306.094	-4.95
306.308	9.39
306.522	-9.05
306.736	70.83
306.95	-39.76
307.164	85.16
307.379	-2.9
307.593	-23.38
307.807	-4.95
308.021	-11.09
308.235	68.78
308.449	-17.24
308.663	13.48
308.877	50.35
309.091	-17.24
309.305	31.91
309.519	40.11
309.733	42.15
309.947	23.72
310.161	-13.14
310.374	60.59
310.588	95.4
310.802	46.25
311.016	15.53
311.23	-4.95
311.444	66.73
311.658	15.53
311.872	29.87
312.085	66.73
312.299	13.48
312.513	1.19
312.727	5.29
312.941	-45.91
313.154	70.83
313.368	17.58
313.582	-50
313.796	23.72
314.009	44.2
314.223	-70.48
314.437	11.43
314.651	19.63
314.864	36.01
315.078	-11.09
315.292	46.25
315.505	-2.9
315.719	-4.95
315.933	-2.9
316.146	23.72
316.36	-2.9
316.573	21.67
316.787	31.91
317.001	54.44
317.214	-37.72
317.428	15.53
317.641	-125.78
317.855	1.19
318.068	23.72
318.282	101.55
318.495	7.34
318.709	7.34
318.922	-43.86
319.136	29.87
319.349	17.58
319.563	40.11
319.776	-56.15
319.99	38.06
320.203	50.35
320.417	29.87
320.63	11.43
320.843	60.59
321.057	72.87
321.27	-21.33
321.483	36.01
321.697	-7
321.91	-11.09
322.124	3.24
322.337	-23.38
322.55	21.67
322.763	-52.05
322.977	-9.05
323.19	56.49
323.403	46.25
323.617	-25.43
323.83	42.15
324.043	19.63
324.256	46.25
324.469	29.87
324.683	1.19
324.896	7.34
325.109	7.34
325.322	5.29
325.535	60.59
325.748	3.24
325.962	29.87
326.175	9.39
326.388	25.77
326.601	50.35
326.814	85.16
327.027	62.63
327.24	83.11
327.453	38.06
327.666	17.58
327.879	-9.05
328.092	66.73
328.305	7.34
328.518	-9.05
328.731	-60.24
328.944	15.53
329.157	17.58
329.37	3.24
329.583	79.02
329.796	46.25
330.009	46.25
330.222	-68.44
330.435	-13.14
330.648	68.78
330.861	-11.09
331.073	36.01
331.286	7.34
331.499	19.63
331.712	5.29
331.925	54.44
332.138	-13.14
332.35	17.58
332.563	33.96
332.776	29.87
332.989	-29.52
333.202	62.63
333.414	1.19
333.627	-15.19
333.84	101.55
334.053	-0.85
334.265	-2.9
334.478	56.49
334.691	40.11
334.903	99.5
335.116	-66.39
335.329	5.29
335.541	31.91
335.754	27.82
335.966	27.82
336.179	31.91
336.392	-23.38
336.604	1.19
336.817	-19.29
337.029	-19.29
337.242	-23.38
337.454	7.34
337.667	-41.81
337.88	52.39
338.092	70.83
338.305	42.15
338.517	15.53
338.729	15.53
338.942	48.3
339.154	42.15
339.367	-15.19
339.579	79.02
339.792	-29.52
340.004	85.16
340.217	-62.29
340.429	76.97
340.641	93.35
340.854	5.29
341.066	3.24
341.278	-9.05
341.491	-15.19
341.703	13.48
341.915	-11.09
342.128	21.67
342.34	33.96
342.552	40.11
342.764	-37.72
342.977	66.73
343.189	76.97
343.401	42.15
343.613	-27.48
343.826	-19.29
344.038	-0.85
344.25	70.83
344.462	-11.09
344.674	-4.95
344.886	42.15
345.099	36.01
345.311	-15.19
345.523	7.34
345.735	66.73
345.947	62.63
346.159	7.34
346.371	23.72
346.583	23.72
346.795	74.92
347.007	23.72
347.219	60.59
347.431	46.25
347.643	21.67
347.855	81.07
348.067	50.35
348.279	15.53
348.491	54.44
348.703	-9.05
348.915	3.24
349.127	50.35
349.339	76.97
349.551	66.73
349.763	27.82
349.975	19.63
350.187	70.83
350.399	-9.05
350.61	60.59
350.822	19.63
351.034	38.06
351.246	31.91
351.458	-2.9
351.669	-0.85
351.881	-15.19
352.093	5.29
352.305	40.11
352.517	54.44
352.728	76.97
352.94	46.25
353.152	33.96
353.363	-35.67
353.575	38.06
353.787	52.39
353.999	-15.19
354.21	56.49
354.422	52.39
354.633	11.43
354.845	21.67
355.057	60.59
355.268	68.78
355.48	54.44
355.692	-11.09
355.903	-76.63
356.115	-35.67
356.326	-2.9
356.538	68.78
356.749	25.77
356.961	105.64
357.172	13.48
357.384	81.07
357.595	68.78
357.807	29.87
358.018	17.58
358.23	-35.67
358.441	19.63
358.653	-19.29
358.864	95.4
359.075	21.67
359.287	-19.29
359.498	21.67
359.709	-68.44
359.921	23.72
360.132	15.53
360.344	46.25
360.555	-0.85
360.766	33.96
360.977	25.77
361.189	42.15
361.4	36.01
361.611	76.97
361.823	50.35
362.034	99.5
362.245	-64.34
362.456	42.15
362.667	-37.72
362.879	40.11
363.09	-60.24
363.301	87.21
363.512	-43.86
363.723	85.16
363.935	-45.91
364.146	70.83
364.357	-7
364.568	-4.95
364.779	-13.14
364.99	126.12
365.201	19.63
365.412	44.2
365.623	-13.14
365.834	72.87
366.045	54.44
366.256	31.91
366.467	9.39
366.678	52.39
366.889	66.73
367.1	-31.57
367.311	11.43
367.522	70.83
367.733	52.39
367.944	50.35
368.155	23.72
368.366	-4.95
368.577	-23.38
368.788	113.83
368.999	25.77
369.209	-33.62
369.42	91.31
369.631	42.15
369.842	50.35
370.053	-2.9
370.264	66.73
370.474	3.24
370.685	89.26
370.896	70.83
371.107	-9.05
371.317	95.4
371.528	-47.96
371.739	-2.9
371.95	17.58
372.16	109.74
372.371	36.01
372.582	107.69
372.792	124.07
373.003	-21.33
373.214	-17.24
373.424	-27.48
373.635	15.53
373.846	52.39
374.056	15.53
374.267	21.67
374.477	105.64
374.688	3.24
374.898	91.31
375.109	-4.95
375.319	44.2
375.53	62.63
375.74	85.16
375.951	52.39
376.161	-25.43
376.372	31.91
376.582	-41.81
376.793	7.34
377.003	-11.09
377.214	36.01
377.424	17.58
377.635	15.53
377.845	17.58
378.055	44.2
378.266	-2.9
378.476	74.92
378.686	79.02
378.897	21.67
379.107	5.29
379.317	-11.09
379.528	-15.19
379.738	-0.85
379.948	36.01
380.158	-0.85
380.369	50.35
380.579	36.01
380.789	-19.29
380.999	23.72
381.21	-13.14
381.42	17.58
381.63	76.97
381.84	21.67
382.05	-39.76
382.261	101.55
382.471	3.24
382.681	17.58
382.891	38.06
383.101	27.82
383.311	-33.62
383.521	38.06
383.731	72.87
383.941	42.15
384.151	-19.29
384.361	27.82
384.571	-62.29
384.781	29.87
384.991	40.11
385.201	17.58
385.411	54.44
385.621	-23.38
385.831	-21.33
386.041	7.34
386.251	-9.05
386.461	95.4
386.671	-9.05
386.881	23.72
387.091	46.25
387.301	68.78
387.511	1.19
387.72	46.25
387.93	50.35
388.14	9.39
388.35	85.16
388.56	62.63
388.769	105.64
388.979	25.77
389.189	-80.72
389.399	36.01
389.609	23.72
389.818	70.83
390.028	44.2
390.238	29.87
390.447	83.11
390.657	83.11
390.867	-33.62
391.076	21.67
391.286	19.63
391.496	-21.33
391.705	40.11
391.915	68.78
392.125	76.97
392.334	109.74
392.544	38.06
392.753	13.48
392.963	7.34
393.172	13.48
393.382	3.24
393.591	54.44
393.801	46.25
394.01	60.59
394.22	11.43
394.429	44.2
394.639	-17.24
394.848	33.96
395.058	38.06
395.267	19.63
395.477	38.06
395.686	60.59
395.895	91.31
396.105	130.22
396.314	58.54
396.524	64.68
396.733	29.87
396.942	48.3
397.152	56.49
397.361	42.15
397.57	52.39
397.78	19.63
397.989	13.48
398.198	62.63
398.407	48.3
398.617	36.01
398.826	27.82
399.035	-23.38
399.244	60.59
399.453	7.34
399.663	7.34
399.872	42.15
400.081	48.3
400.29	62.63
400.499	81.07
400.708	105.64
400.917	62.63
401.127	23.72
401.336	81.07
401.545	105.64
401.754	36.01
401.963	128.17
402.172	15.53
402.381	1.19
402.59	85.16
402.799	111.78
403.008	13.48
403.217	62.63
403.426	79.02
403.635	119.98
403.844	11.43
404.053	-7
404.262	50.35
404.471	40.11
404.68	103.59
404.888	85.16
405.097	76.97
405.306	48.3
405.515	64.68
405.724	99.5
405.933	167.08
406.142	130.22
406.35	81.07
406.559	138.41
406.768	85.16
406.977	140.46
407.185	56.49
407.394	171.18
407.603	56.49
407.812	177.32
408.02	85.16
408.229	189.61
408.438	136.36
408.646	103.59
408.855	66.73
409.064	197.8
409.272	56.49
409.481	175.27
409.69	203.94
409.898	171.18
410.107	111.78
410.315	193.7
410.524	263.33
410.733	224.42
410.941	224.42
411.15	240.81
411.358	187.56
411.567	216.23
411.775	199.85
411.984	302.25
412.192	242.85
412.401	242.85
412.609	220.33
412.818	261.29
413.026	281.77
413.234	271.53
413.443	265.38
413.651	287.91
413.86	304.29
414.068	326.82
414.276	273.57
414.485	330.92
414.693	355.49
414.901	382.12
415.11	443.56
415.318	300.2
415.526	375.97
415.734	421.03
415.943	496.8
416.151	486.56
416.359	412.84
416.567	414.88
416.776	447.65
416.984	490.66
417.192	523.43
417.4	472.23
417.608	507.04
417.817	613.54
418.025	486.56
418.233	627.87
418.441	617.63
418.649	654.5
418.857	646.3
419.065	791.71
419.273	713.89
419.481	707.74
419.689	713.89
419.897	879.77
420.105	795.81
420.313	832.67
420.521	832.67
420.729	810.14
420.937	873.63
421.145	908.44
421.353	992.41
421.561	1035.42
421.769	1041.56
421.977	1180.82
422.185	1033.37
422.393	1174.68
422.601	1127.58
422.809	1299.61
423.017	1186.97
423.224	1205.4
423.432	1334.42
423.64	1313.94
423.848	1451.16
424.056	1461.4
424.263	1410.2
424.471	1471.64
424.679	1543.32
424.887	1576.08
425.094	1744.02
425.302	1655.95
425.51	1807.5
425.718	1862.8
425.925	1838.22
426.133	1914
426.341	2006.16
426.548	2018.44
426.756	2135.18
426.964	2153.61
427.171	2362.5
427.379	2245.77
427.586	2358.41
427.794	2364.55
428.001	2518.15
428.209	2483.33
428.417	2555.01
428.624	2811.01
428.832	2761.86
429.039	2808.96
429.247	2872.45
429.454	3009.66
429.662	3130.49
429.869	3028.09
430.076	3177.59
430.284	3198.07
430.491	3253.37
430.699	3478.65
430.906	3460.21
431.114	3296.38
431.321	3667.06
431.528	3728.5
431.736	3796.08
431.943	4066.41
432.15	3968.11
432.358	4191.34
432.565	4289.64
432.772	4238.44
432.979	4578.4
433.187	4625.51
433.394	4584.55
433.601	4861.02
433.808	4852.83
434.016	4834.4
434.223	5121.12
434.43	5385.3
434.637	5139.55
434.844	5620.82
435.052	5700.69
435.259	5696.6
435.466	5684.31
435.673	5710.93
435.88	6108.24
436.087	6343.75
436.294	6364.23
436.501	6190.16
436.708	6333.51
436.915	6663.24
437.122	6839.36
437.329	6843.46
437.537	7119.93
437.743	7146.56
437.95	7064.64
438.157	7595.06
438.364	7621.69
438.571	7734.32
438.778	7640.12
438.985	8477.74
439.192	8270.89
439.399	8471.59
439.606	8154.16
439.813	8586.28
440.02	9219.1
440.227	9012.26
440.433	9258.01
440.64	9360.41
440.847	9204.77
441.054	9325.6
441.261	10028.05
441.467	10019.86
441.674	10036.24
441.881	10374.16
442.088	10441.74
442.294	10398.73
442.501	10699.78
442.708	10869.76
442.914	11277.31
443.121	11809.78
443.328	11488.25
443.534	12424.17
443.741	11934.71
443.948	11840.5
444.154	12608.49
444.361	12651.5
444.568	12700.65
444.774	12659.69
444.981	13034.47
445.187	13257.7
445.394	13620.19
445.6	13790.17
445.807	14828.49
446.013	14379.98
446.22	14552.01
446.426	15242.18
446.633	15322.05
446.839	15905.72
447.046	15092.68
447.252	16278.45
447.459	16241.59
447.665	15836.09
447.871	16851.88
448.078	17578.91
448.284	16696.24
448.491	17140.65
448.697	17834.91
448.903	18174.87
449.11	18328.47
449.316	18060.18
449.522	18279.32
449.728	18922.38
449.935	18809.74
450.141	19084.17
450.347	19399.55
450.553	18826.12
450.76	19182.47
450.966	19829.63
451.172	19655.55
451.378	20073.34
451.584	19608.45
451.791	20056.95
451.997	19950.46
452.203	20235.13
452.409	20073.34
452.615	20294.52
452.821	19526.53
453.027	19239.81
453.233	20368.24
453.44	19760
453.646	19864.44
453.852	20261.75
454.058	20491.12
454.264	19583.87
454.47	20183.93
454.676	19708.8
454.882	20192.12
455.088	18494.35
455.294	19032.97
455.5	19192.71
455.705	19295.11
455.911	18606.99
456.117	17859.48
456.323	17775.52
456.529	16960.42
456.735	17871.77
456.941	17284
457.147	17173.41
457.352	16444.34
457.558	16325.55
457.764	16300.98
457.97	16122.8
458.176	15780.79
458.381	15834.04
458.587	15184.83
458.793	15117.25
458.999	14052.31
459.204	15215.55
459.41	14945.22
459.616	13855.7
459.821	13902.81
460.027	13726.68
460.233	13546.46
460.438	12604.39
460.644	12805.1
460.85	12114.93
461.055	12110.83
461.261	11926.52
461.466	11088.9
461.672	10929.16
461.878	11803.64
462.083	10902.53
462.289	10673.16
462.494	10652.68
462.7	10040.34
462.905	9919.51
463.111	10101.78
463.316	10284.05
463.522	9868.31
463.727	10060.82
463.932	9888.79
464.138	9905.17
464.343	10054.67
464.549	9706.52
464.754	10013.71
464.959	9731.09
465.165	9778.2
465.37	9446.43
465.575	9124.9
465.781	9483.29
465.986	9471
466.191	9120.8
466.397	9051.17
466.602	8551.46
466.807	9065.5
467.012	9200.67
467.218	8942.63
467.423	8756.26
467.628	8774.69
467.833	9221.15
468.038	9008.16
468.244	8686.63
468.449	8850.47
468.654	8815.65
468.859	8694.82
469.064	8459.31
469.269	8305.71
469.474	8463.4
469.679	8328.24
469.885	8164.4
470.09	8334.38
470.295	8244.27
470.5	8014.9
470.705	8125.49
470.91	7982.13
471.115	7744.56
471.32	7918.64
471.525	7820.34
471.73	7797.81
471.935	7822.39
472.139	7502.9
472.344	7578.68
472.549	7486.52
472.754	7361.59
472.959	7164.99
473.164	7228.48
473.369	7054.4
473.574	7158.85
473.778	7064.64
473.983	7130.17
474.188	7054.4
474.393	6839.36
474.598	6915.14
474.802	6665.28
475.007	6700.1
475.212	6564.93
475.417	6458.44
475.621	6454.34
475.826	6655.05
476.031	6394.95
476.235	6210.64
476.44	6278.22
476.645	6085.71
476.849	6349.9
477.054	6179.92
477.259	6059.09
477.463	6032.46
477.668	6102.09
477.872	6095.95
478.077	5790.8
478.282	5626.96
478.486	5680.21
478.691	5555.29
478.895	5612.63
479.1	5712.98
479.304	5610.58
479.509	5405.78
479.713	5491.8
479.918	5524.57
480.122	5362.78
480.326	5465.18
480.531	5362.78
480.735	5368.92
480.94	5370.97
481.144	5436.5
481.348	5200.99
481.553	5207.13
481.757	5231.71
481.961	5223.51
482.166	5313.63
482.37	5250.14
482.574	5178.46
482.778	5168.22
482.983	5319.77
483.187	5129.31
483.391	5198.94
483.595	5170.27
483.8	5135.45
484.004	5377.11
484.208	5059.68
484.412	5252.19
484.616	5284.95
484.821	5209.18
485.025	5119.07
485.229	5180.51
485.433	5133.4
485.637	5243.99
485.841	5000.29
486.045	5133.4
486.249	5139.55
486.453	5151.84
486.657	5297.24
486.861	5241.95
487.065	5180.51
487.269	5119.07
487.473	5280.86
487.677	5368.92
487.881	5340.25
488.085	5086.3
488.289	5237.85
488.493	5227.61
488.697	5119.07
488.901	5317.72
489.105	5215.32
489.309	5287
489.512	5084.25
489.716	5200.99
489.92	5368.92
490.124	5332.06
490.328	5282.91
490.531	5164.12
490.735	5356.63
490.939	5352.54
491.143	5364.82
491.346	5407.83
491.55	5360.73
491.754	5604.44
491.958	5377.11
492.161	5330.01
492.365	5491.8
492.569	5516.37
492.772	5614.68
492.976	5442.65
493.18	5696.6
493.383	5586.01
493.587	5850.19
493.79	5672.02
493.994	5596.25
494.197	5608.53
494.401	5739.6
494.605	5719.12
494.808	5966.93
495.012	5999.7
495.215	6073.42
495.419	5874.77
495.622	6071.37
495.825	6216.78
496.029	6155.34
496.232	6249.55
496.436	6206.54
496.639	6302.79
496.843	6200.4
497.046	6425.67
497.249	6661.19
497.453	6487.11
497.656	6560.84
497.859	6626.37
498.063	6812.74
498.266	6808.64
498.469	6724.68
498.673	6763.59
498.876	6952
499.079	7187.52
499.282	7105.6
499.485	6992.96
499.689	7433.27
499.892	7273.53
500.095	7615.54
500.298	7627.83
500.501	7511.1
500.705	7687.22
500.908	7736.37
501.111	7818.29
501.314	7980.08
501.517	8184.88
501.72	8166.45
501.923	8309.8
502.126	8266.8
502.329	8557.61
502.532	8578.09
502.735	8596.52
502.938	8551.46
503.141	8856.61
503.344	8989.73
503.547	9042.98
503.75	9120.8
503.953	9264.16
504.156	9387.04
504.359	9585.69
504.562	9559.06
504.765	9638.94
504.968	9866.26
505.17	9894.93
505.373	9923.6
505.576	10296.33
505.779	10325.01
505.982	10214.41
506.185	10521.61
506.387	10513.42
506.59	10722.31
506.793	10640.39
506.996	10712.07
507.198	11172.86
507.401	10996.74
507.604	11209.73
507.807	11400.19
508.009	11492.35
508.212	11502.59
508.415	11830.26
508.617	11799.54
508.82	12147.7
509.022	11887.61
509.225	12487.66
509.428	12723.18
509.63	12368.88
509.833	12563.43
510.035	13093.86
510.238	12893.16
510.44	13110.24
510.643	13265.89
510.845	13364.19
511.048	13302.75
511.25	13890.52
511.453	13812.7
511.655	14273.49
511.858	13917.14
512.06	14257.11
512.262	14267.34
512.465	14394.32
512.667	14824.39
512.87	14760.91
513.072	14838.73
513.274	15127.49
513.477	15281.09
513.679	15725.5
513.881	15391.68
514.084	15858.62
514.286	15776.7
514.488	15946.68
514.69	16135.09
514.893	16513.97
515.095	16694.19
515.297	16864.17
515.499	16837.55
515.701	16882.6
515.904	17290.15
516.106	17249.19
516.308	17513.38
516.51	17781.66
516.712	17755.04
516.914	17765.28
517.116	18172.82
517.318	18221.97
517.52	18293.65
517.722	18553.74
517.925	18715.53
518.127	18860.94
518.329	19221.38
518.531	19016.58
518.733	19428.23
518.935	19628.93
519.136	19800.96
519.338	19901.31
519.54	20001.66
519.742	20247.41
519.944	20208.5
520.146	20622.19
520.348	20646.77
520.55	20755.31
520.752	20970.35
520.954	21263.21
521.155	21214.05
521.357	21408.61
521.559	21783.39
521.761	22162.26
521.963	22188.89
522.164	22104.92
522.366	22207.32
522.568	22416.21
522.77	22614.87
522.971	22934.35
523.173	22629.2
523.375	23190.34
523.576	23075.66
523.778	23356.23
523.98	23544.64
524.181	23739.2
524.383	23651.14
524.584	23688
524.786	24154.94
524.988	23896.89
525.189	24361.78
525.391	24064.83
525.592	24668.98
525.794	24666.93
525.995	24333.11
526.197	24597.3
526.398	24992.56
526.6	25101.1
526.801	24990.51
527.003	25418.53
527.204	25107.24
527.406	25494.31
527.607	25445.16
527.808	25623.33
528.01	25428.77
528.211	25525.03
528.412	26034.97
528.614	25662.24
528.815	25879.33
529.016	26426.14
529.218	26225.43
529.419	26051.36
529.62	26190.62
529.822	26047.26
530.023	26141.47
530.224	26610.45
530.425	26262.3
530.626	25864.99
530.828	26266.39
531.029	26706.71
531.23	26651.41
531.431	26321.69
531.632	26802.96
531.833	26891.02
532.035	26632.98
532.236	26579.73
532.437	26661.65
532.638	26417.94
532.839	26671.89
533.04	27091.73
533.241	26620.69
533.442	27400.97
533.643	26970.9
533.844	27003.66
534.045	26868.5
534.246	26968.85
534.447	26960.66
534.648	27089.68
534.849	26897.17
535.05	26952.46
535.251	26866.45
535.451	26989.33
535.652	27040.53
535.853	26921.74
536.054	27069.2
536.255	27292.43
536.456	26817.3
536.657	27200.27
536.857	27187.98
537.058	26772.24
537.259	27058.96
537.46	27331.34
537.66	27147.02
537.861	27261.71
538.062	26845.97
538.263	27161.36
538.463	26960.66
538.664	27230.99
538.865	27394.82
539.065	27142.92
539.266	27069.2
539.466	27126.54
539.667	26641.17
539.868	27032.33
540.068	27099.92
540.269	26909.46
540.469	27159.31
540.67	26907.41
540.87	26952.46
541.071	26665.75
541.271	27001.61
541.472	26954.51
541.672	27091.73
541.873	27032.33
542.073	26680.08
542.274	27130.64
542.474	26954.51
542.675	26624.79
542.875	26944.27
543.075	26868.5
543.276	26632.98
543.476	27187.98
543.676	26895.12
543.877	26784.53
544.077	27136.78
544.277	26954.51
544.478	26798.87
544.678	27175.69
544.878	27085.58
545.078	26866.45
545.279	26755.86
545.479	26960.66
545.679	27077.39
545.879	27009.81
546.079	26993.42
546.28	26725.14
546.48	26551.06
546.68	26589.97
546.88	26862.35
547.08	26915.6
547.28	26561.3
547.48	26344.22
547.68	26878.74
547.88	26444.57
548.081	26735.38
548.281	26741.52
548.481	26663.7
548.681	26942.22
548.881	26422.04
549.081	26782.48
549.28	26596.12
549.48	26389.27
549.68	26632.98
549.88	26995.47
550.08	26411.8
550.28	26454.81
550.48	26493.72
550.68	26626.84
550.88	26503.96
551.08	26518.29
551.279	26503.96
551.479	26452.76
551.679	26391.32
551.879	26155.8
552.079	26743.57
552.278	26340.12
552.478	26575.64
552.678	26784.53
552.878	26344.22
553.077	26612.5
553.277	26309.4
553.477	26833.68
553.676	26460.95
553.876	26438.42
554.076	26336.02
554.275	26471.19
554.475	26077.98
554.674	26471.19
554.874	26395.42
555.074	26479.38
555.273	26440.47
555.473	26553.11
555.672	26217.24
555.872	26118.94
556.071	26034.97
556.271	26366.74
556.47	26180.38
556.67	25862.94
556.869	26002.21
557.068	26264.35
557.268	25985.82
557.467	26104.6
557.667	25770.79
557.866	25842.46
558.065	25713.44
558.265	25772.83
558.464	25684.77
558.663	26186.52
558.863	25844.51
559.062	25875.23
559.261	25676.58
559.461	26039.07
559.66	25512.74
559.859	25797.41
560.058	25639.72
560.258	25858.85
560.457	25652
560.656	25455.4
560.855	25232.17
561.054	25473.83
561.253	25588.52
561.453	25557.8
561.652	25160.49
561.851	25097
562.05	25228.07
562.249	25092.91
562.448	25402.15
562.647	25205.55
562.846	25017.13
563.045	25531.17
563.244	24970.03
563.443	25217.83
563.642	24810.29
563.841	24937.26
564.04	24705.84
564.239	25074.48
564.438	24458.04
564.637	24615.73
564.836	24605.49
565.035	24464.18
565.234	24765.23
565.432	24394.55
565.631	24308.54
565.83	24916.78
566.029	24527.67
566.228	24257.34
566.427	24707.89
566.625	24062.78
566.824	23698.24
567.023	24154.94
567.222	23880.51
567.42	24163.13
567.619	24013.63
567.818	23857.98
568.016	23722.82
568.215	23976.76
568.414	23741.25
568.612	24064.83
568.811	23587.65
569.01	23698.24
569.208	23206.73
569.407	23532.36
569.605	23442.24
569.804	23169.87
570.002	23096.14
570.201	23550.79
570.4	23253.83
570.598	23069.51
570.797	22989.64
570.995	22952.78
571.193	22860.62
571.392	22899.53
571.59	23053.13
571.789	22778.7
571.987	22453.08
572.186	22688.59
572.384	22612.82
572.582	22635.35
572.781	22633.3
572.979	22506.32
573.177	22252.38
573.376	22201.18
573.574	22072.15
573.772	22643.54
573.971	22164.31
574.169	22340.44
574.367	22020.95
574.565	22272.85
574.763	21953.37
574.962	22033.24
575.16	21758.81
575.358	21773.15
575.556	21803.87
575.754	21652.32
575.952	21443.43
576.151	21709.66
576.349	21384.04
576.547	21482.34
576.745	21316.45
576.943	21332.84
577.141	21171.05
577.339	21257.06
577.537	21203.82
577.735	21384.04
577.933	21234.53
578.131	21128.04
578.329	20513.65
578.527	20587.38
578.725	20849.52
578.923	20988.78
579.121	20616.05
579.319	20534.13
579.516	20843.37
579.714	20829.04
579.912	20677.49
580.11	20523.89
580.308	20646.77
580.506	20321.14
580.704	19954.55
580.901	20396.92
581.099	20325.24
581.297	20212.6
581.495	20386.68
581.692	20489.07
581.89	19897.21
582.088	20233.08
582.285	19749.76
582.483	20001.66
582.681	19528.58
582.878	19702.65
583.076	19782.52
583.274	19864.44
583.471	19356.55
583.669	19524.48
583.866	19512.19
584.064	19628.93
584.262	19049.35
584.459	19477.38
584.657	19207.05
584.854	19504
585.052	18731.92
585.249	19213.19
585.447	19198.85
585.644	18824.08
585.841	19090.31
586.039	19035.02
586.236	18795.4
586.434	18723.72
586.631	18959.24
586.828	18770.83
587.026	18809.74
587.223	18477.97
587.42	18455.44
587.618	18475.92
587.815	18367.38
588.012	18484.11
588.21	18285.46
588.407	18197.4
588.604	18209.68
588.801	18062.23
588.999	18252.69
589.196	17900.44
589.393	18025.37
589.59	17701.79
589.787	17951.64
589.984	17701.79
590.182	17681.31
590.379	17896.35
590.576	17585.05
590.773	17722.27
590.97	17367.97
591.167	17593.25
591.364	17335.2
591.561	17585.05
591.758	17187.75
591.955	17152.93
592.152	17214.37
592.349	17118.12
592.546	17378.21
592.743	17167.27
592.94	16665.52
593.137	17079.21
593.334	16944.04
593.531	16925.61
593.727	17236.9
593.924	16704.43
594.121	16716.72
594.318	17122.21
594.515	16509.87
594.712	16581.55
594.908	16528.3
595.105	16647.08
595.302	16372.66
595.499	16667.56
595.696	16300.98
595.892	16200.63
596.089	16360.37
596.286	16409.52
596.482	16311.22
596.679	16581.55
596.876	16204.72
597.072	16067.51
597.269	16104.37
597.466	15971.25
597.662	15774.65
597.859	15733.69
598.055	15815.61
598.252	15846.33
598.448	15756.22
598.645	15625.15
598.841	15522.75
599.038	15664.06
599.234	15264.71
599.431	15320
599.627	15451.07
599.824	15436.74
600.02	15334.34
600.217	15242.18
600.413	15324.1
600.609	15227.84
600.806	14980.04
601.002	15205.31
601.198	15061.96
601.395	14926.79
601.591	14830.54
601.787	14904.26
601.984	14824.39
602.18	14986.18
602.376	14908.36
602.572	14857.16
602.769	14840.78
602.965	14248.91
603.161	14701.51
603.357	14541.77
603.553	14633.93
603.75	14496.72
603.946	14466
604.142	14347.22
604.338	14205.91
604.534	14390.22
604.73	14386.13
604.926	14191.57
605.122	14367.7
605.318	14011.35
605.514	14210
605.71	13894.61
605.906	13947.86
606.102	13798.36
606.298	13982.68
606.494	13741.02
606.69	13790.17
606.886	14031.83
607.082	13585.37
607.278	13949.91
607.474	13650.91
607.67	13671.39
607.866	13521.88
608.062	13675.48
608.257	13706.2
608.453	13517.79
608.649	13358.05
608.845	13394.91
609.041	13423.58
609.236	13382.62
609.432	13429.73
609.628	13450.21
609.824	13085.67
610.019	13073.38
610.215	13108.19
610.411	13368.29
610.606	12831.72
610.802	13239.26
610.998	13118.43
611.193	13054.95
611.389	13030.37
611.584	13044.71
611.78	13028.32
611.976	12950.5
612.171	12856.29
612.367	12889.06
612.562	12782.57
612.758	12729.32
612.953	12848.1
613.149	12946.41
613.344	12647.4
613.539	12684.27
613.735	12674.03
613.93	12831.72
614.126	12559.34
614.321	12827.62
614.517	12696.55
614.712	12499.95
614.907	12420.08
615.103	12487.66
615.298	12483.56
615.493	12643.31
615.688	12372.97
615.884	12502
616.079	12289.01
616.274	12454.89
616.47	12143.6
616.665	12567.53
616.86	12037.11
617.055	12422.13
617.25	12172.27
617.445	12278.77
617.641	11992.05
617.836	12190.7
618.031	11910.13
618.226	12084.21
618.421	11977.72
618.616	12153.84
618.811	11647.99
619.006	11959.28
619.201	11623.42
619.396	12086.26
619.591	11615.23
619.786	11789.3
619.981	11389.95
620.176	11848.69
620.371	11701.24
620.566	11678.71
620.761	11437.05
620.956	11852.79
621.151	11201.54
621.346	11365.37
621.541	11398.14
621.735	11254.78
621.93	10978.31
622.125	11119.62
622.32	11193.34
622.515	10957.83
622.709	10935.3
622.904	10865.67
623.099	10855.43
623.294	10857.48
623.488	10755.08
623.683	10740.74
623.878	10282
624.072	10468.36
624.267	10449.93
624.462	10365.96
624.656	10259.47
624.851	10296.33
625.046	10206.22
625.24	10222.61
625.435	10284.05
625.629	10042.39
625.824	9976.85
626.018	10232.85
626.213	9915.41
626.407	9907.22
626.602	9702.42
626.796	9745.43
626.991	9810.96
627.185	9600.02
627.38	9677.85
627.574	9518.11
627.768	9626.65
627.963	9284.64
628.157	9327.64
628.352	9407.52
628.546	9292.83
628.74	9389.08
628.935	9098.27
629.129	9290.78
629.323	9022.5
629.517	9196.57
629.712	8954.91
629.906	9034.78
630.1	8868.9
630.294	8858.66
630.489	8817.7
630.683	8895.52
630.877	8602.66
631.071	8416.3
631.265	8799.27
631.459	8537.13
631.653	8432.68
631.848	8584.23
632.042	8498.22
632.236	8436.78
632.43	8164.4
632.624	8311.85
632.818	8244.27
633.012	8107.05
633.206	8213.55
633.4	8315.95
633.594	8174.64
633.788	8195.12
633.982	8182.83
634.176	7935.03
634.369	7869.49
634.563	7861.3
634.757	7898.16
634.951	7808.05
635.145	7695.41
635.339	7769.14
635.533	7666.74
635.726	7703.61
635.92	7584.82
636.114	7617.59
636.308	7519.29
636.501	7529.53
636.695	7451.7
636.889	7418.94
637.083	7349.31
637.276	7220.28
637.47	7328.83
637.664	7152.7
637.857	7191.61
638.051	7337.02
638.244	7083.07
638.438	7167.04
638.632	7105.6
638.825	6999.1
639.019	6929.47
639.212	6722.63
639.406	6921.28
639.599	7085.12
639.793	6902.85
639.986	6698.05
640.18	6622.28
640.373	6722.63
640.567	6804.55
640.76	6663.24
640.954	6679.62
641.147	6667.33
641.34	6476.87
641.534	6593.61
641.727	6429.77
641.92	6462.54
642.114	6278.22
642.307	6388.81
642.5	6358.09
642.694	6181.96
642.887	6165.58
643.08	6351.95
643.273	6069.33
643.467	6169.68
643.66	6003.79
643.853	6308.94
644.046	6159.44
644.239	6022.22
644.432	5973.07
644.626	5979.22
644.819	5893.2
645.012	5858.39
645.205	5866.58
645.398	5856.34
645.591	5844.05
645.784	5842
645.977	5696.6
646.17	5762.13
646.363	5602.39
646.556	5543
646.749	5495.89
646.942	5655.64
647.135	5430.36
647.328	5379.16
647.521	5295.19
647.714	5340.25
647.907	5315.67
648.099	5391.45
648.292	5368.92
648.485	5254.23
648.678	5184.6
648.871	5106.78
649.064	5053.53
649.256	5137.5
649.449	5176.41
649.642	5137.5
649.835	5117.02
650.027	4998.24
650.22	4994.14
650.413	5100.64
650.605	5114.97
650.798	5041.25
650.991	5016.67
651.183	4977.76
651.376	4752.48
651.568	4938.85
651.761	4764.77
651.954	4760.67
652.146	4879.46
652.339	4701.28
652.531	4609.12
652.724	4600.93
652.916	4535.4
653.109	4633.7
653.301	4562.02
653.494	4562.02
653.686	4459.62
653.879	4566.12
654.071	4486.25
654.263	4496.49
654.456	4402.28
654.648	4506.73
654.84	4351.08
655.033	4406.38
655.225	4392.04
655.417	4265.07
655.61	4211.82
655.802	4285.55
655.994	4195.43
656.186	4303.98
656.379	4150.38
656.571	4152.43
656.763	4195.43
656.955	4070.51
657.148	4107.37
657.34	4047.98
657.532	3941.49
657.724	4084.84
657.916	4158.57
658.108	3884.14
658.3	4009.07
658.492	3861.62
658.684	3867.76
658.876	3951.73
659.068	4039.79
659.26	3716.21
659.452	3955.82
659.644	3822.7
659.836	3660.91
660.028	3849.33
660.22	3644.53
660.412	3777.65
660.604	3855.47
660.796	3730.55
660.988	3751.03
661.18	3560.56
661.372	3624.05
661.563	3628.15
661.755	3564.66
661.947	3579
662.139	3511.41
662.331	3511.41
662.522	3449.97
662.714	3484.79
662.906	3488.89
663.097	3474.55
663.289	3468.41
663.481	3323
663.673	3347.58
663.864	3435.64
664.056	3368.06
664.247	3398.77
664.439	3284.09
664.631	3304.57
664.822	3206.27
665.014	3302.52
665.205	3226.75
665.397	3220.6
665.588	3175.55
665.78	3173.5
665.971	3234.94
666.163	3089.53
666.354	3255.42
666.546	3163.26
666.737	3054.72
666.929	3112.06
667.12	2962.56
667.311	3079.29
667.503	3007.61
667.694	3153.02
667.885	3009.66
668.077	3040.38
668.268	2940.03
668.459	2894.97
668.651	2964.61
668.842	2903.17
669.033	2911.36
669.224	2946.17
669.416	2862.21
669.607	2870.4
669.798	2782.34
669.989	2970.75
670.18	2884.73
670.371	2808.96
670.563	2854.02
670.754	2794.62
670.945	2692.23
671.136	2739.33
671.327	2655.36
671.518	2821.25
671.709	2841.73
671.9	2774.14
672.091	2733.18
672.282	2661.51
672.473	2684.03
672.664	2614.4
672.855	2587.78
673.046	2602.11
673.237	2692.23
673.428	2696.32
673.619	2751.62
673.809	2651.27
674	2495.62
674.191	2520.2
674.382	2471.04
674.573	2614.4
674.764	2608.26
674.954	2571.4
675.145	2622.59
675.336	2405.51
675.527	2512
675.717	2557.06
675.908	2567.3
676.099	2575.49
676.289	2440.33
676.48	2428.04
676.671	2581.64
676.861	2503.81
677.052	2423.94
677.243	2436.23
677.433	2473.09
677.624	2583.68
677.814	2512
678.005	2524.29
678.195	2401.41
678.386	2473.09
678.576	2409.61
678.767	2432.13
678.957	2346.12
679.148	2387.08
679.338	2401.41
679.529	2219.14
679.719	2421.89
679.909	2385.03
680.1	2374.79
680.29	2385.03
680.481	2327.69
680.671	2325.64
680.861	2247.82
681.052	2432.13
681.242	2204.81
681.432	2264.2
681.622	2362.5
681.813	2372.74
682.003	2333.83
682.193	2260.1
682.383	2368.65
682.573	2362.5
682.764	2266.25
682.954	2251.91
683.144	2268.3
683.334	2274.44
683.524	2348.17
683.714	2329.74
683.904	2229.38
684.094	2241.67
684.284	2321.54
684.474	2313.35
684.664	2219.14
684.854	2256.01
685.044	2272.39
685.234	2217.1
685.424	2178.19
685.614	2331.78
685.804	2202.76
685.994	2126.99
686.184	2190.47
686.374	2225.29
686.564	2186.38
686.753	2169.99
686.943	2256.01
687.133	2079.88
687.323	2161.8
687.513	2159.75
687.702	2245.77
687.892	2083.98
688.082	2155.66
688.272	2143.37
688.461	2153.61
688.651	2159.75
688.841	2061.45
689.03	2190.47
689.22	2071.69
689.41	2028.68
689.599	2157.71
689.789	2079.88
689.979	2180.23
690.168	2129.03
690.358	2245.77
690.547	2147.47
690.737	2075.79
690.926	2145.42
691.116	2133.13
691.305	2067.6
691.495	2135.18
691.684	2016.4
691.874	2110.6
692.063	1997.96
692.252	2258.06
692.442	1969.29
692.631	2063.5
692.82	1944.72
693.01	1993.87
693.199	1989.77
693.388	1897.61
693.578	2016.4
693.767	1883.28
693.956	1940.62
694.146	1965.2
694.335	1967.24
694.524	1948.81
694.713	2061.45
694.902	1948.81
695.092	2018.44
695.281	1870.99
695.47	2034.83
695.659	1907.85
695.848	1969.29
696.037	1981.58
696.226	1957
696.415	1840.27
696.604	1985.68
696.793	1989.77
696.982	1911.95
697.171	1879.18
697.36	1889.42
697.549	1854.61
697.738	1946.76
697.927	1954.96
698.116	1932.43
698.305	1842.32
698.494	1948.81
698.683	1877.13
698.872	1934.48
699.061	1957
699.25	1782.93
699.438	1858.7
699.627	1914
699.816	1944.72
700.005	1799.31
700.193	1840.27
700.382	1967.24
700.571	1864.85
700.76	1914
700.948	1823.89
701.137	1932.43
701.326	1903.76
701.514	1856.65
701.703	1887.37
701.892	1838.22
702.08	1881.23
702.269	1860.75
702.457	1891.47
702.646	1772.69
702.834	1774.74
703.023	1850.51
703.212	1772.69
703.4	1830.03
703.589	1643.67
703.777	1758.35
703.965	1748.11
704.154	1741.97
704.342	1756.3
704.531	1778.83
704.719	1803.41
704.907	1750.16
705.096	1739.92
705.284	1758.35
705.472	1787.02
705.661	1647.76
705.849	1744.02
706.037	1805.46
706.226	1832.08
706.414	1787.02
706.602	1809.55
706.79	1832.08
706.979	1780.88
707.167	1727.63
707.355	1717.39
707.543	1698.96
707.731	1731.73
707.919	1631.38
708.107	1633.43
708.296	1725.58
708.484	1750.16
708.672	1799.31
708.86	1739.92
709.048	1619.09
709.236	1686.67
709.424	1733.78
709.612	1719.44
709.8	1752.21
709.988	1686.67
710.176	1701.01
710.364	1705.1
710.551	1735.82
710.739	1729.68
710.927	1600.66
711.115	1651.86
711.303	1627.28
711.491	1653.91
711.679	1682.58
711.866	1721.49
712.054	1684.62
712.242	1694.86
712.43	1635.47
712.617	1727.63
712.805	1582.23
712.993	1619.09
713.181	1600.66
713.368	1670.29
713.556	1631.38
713.744	1518.74
713.931	1619.09
714.119	1563.79
714.306	1535.12
714.494	1637.52
714.682	1645.71
714.869	1526.93
715.057	1672.34
715.244	1592.47
715.432	1571.99
715.619	1651.86
715.807	1602.71
715.994	1584.27
716.182	1590.42
716.369	1604.75
716.556	1578.13
716.744	1578.13
716.931	1514.64
717.119	1602.71
717.306	1608.85
717.493	1531.03
717.681	1608.85
717.868	1485.97
718.055	1594.51
718.242	1514.64
718.43	1649.81
718.617	1555.6
718.804	1576.08
718.991	1545.36
719.179	1545.36
719.366	1459.35
719.553	1510.55
719.74	1492.12
719.927	1563.79
720.114	1606.8
720.301	1531.03
720.488	1522.84
720.676	1449.11
720.863	1504.4
721.05	1547.41
721.237	1510.55
721.424	1516.69
721.611	1461.4
721.798	1463.44
721.985	1502.36
722.172	1440.92
722.358	1473.68
722.545	1475.73
722.732	1469.59
722.919	1418.39
723.106	1485.97
723.293	1428.63
723.48	1483.92
723.667	1449.11
723.853	1455.25
724.04	1502.36
724.227	1520.79
724.414	1471.64
724.6	1410.2
724.787	1461.4
724.974	1490.07
725.161	1432.72
725.347	1395.86
725.534	1488.02
725.72	1488.02
725.907	1457.3
726.094	1385.62
726.28	1428.63
726.467	1428.63
726.653	1492.12
726.84	1387.67
727.027	1479.83
727.213	1455.25
727.4	1383.57
727.586	1369.24
727.773	1424.53
727.959	1375.38
728.145	1459.35
728.332	1318.04
728.518	1406.1
728.705	1449.11
728.891	1334.42
729.077	1363.09
729.264	1473.68
729.45	1391.77
729.636	1438.87
729.823	1428.63
730.009	1551.51
730.195	1303.7
730.382	1397.91
730.568	1547.41
730.754	1389.72
730.94	1426.58
731.126	1445.01
731.313	1442.96
731.499	1420.44
731.685	1369.24
731.871	1324.18
732.057	1330.33
732.243	1332.37
732.429	1324.18
732.615	1389.72
732.801	1279.13
732.987	1307.8
733.173	1307.8
733.359	1322.13
733.545	1363.09
733.731	1430.68
733.917	1428.63
734.103	1367.19
734.289	1402.01
734.475	1416.34
734.661	1387.67
734.847	1383.57
735.033	1340.57
735.219	1359
735.404	1395.86
735.59	1389.72
735.776	1270.94
735.962	1371.29
736.148	1318.04
736.333	1205.4
736.519	1393.81
736.705	1377.43
736.89	1397.91
737.076	1340.57
737.262	1283.22
737.447	1318.04
737.633	1328.28
737.819	1289.37
738.004	1404.05
738.19	1309.85
738.375	1313.94
738.561	1324.18
738.747	1381.53
738.932	1293.46
739.118	1371.29
739.303	1330.33
739.489	1240.22
739.674	1209.5
739.859	1238.17
740.045	1287.32
740.23	1264.79
740.416	1199.26
740.601	1217.69
740.786	1334.42
740.972	1371.29
741.157	1248.41
741.342	1221.78
741.528	1285.27
741.713	1309.85
741.898	1211.54
742.084	1189.02
742.269	1234.07
742.454	1313.94
742.639	1225.88
742.824	1139.87
743.01	1260.7
743.195	1227.93
743.38	1172.63
743.565	1139.87
743.75	1170.58
743.935	1238.17
744.12	1242.26
744.305	1217.69
744.49	1213.59
744.675	1207.45
744.86	1180.82
745.045	1176.73
745.23	1182.87
745.415	1160.34
745.6	1158.3
745.785	1117.34
745.97	1172.63
746.155	1098.91
746.34	1203.35
746.525	1240.22
746.71	1137.82
746.895	1115.29
747.079	1248.41
747.264	1076.38
747.449	1082.52
747.634	1117.34
747.819	1129.63
748.003	1043.61
748.188	1033.37
748.373	1119.39
748.557	1158.3
748.742	1070.23
748.927	1002.65
749.111	943.26
749.296	1027.23
749.481	1094.81
749.665	1019.04
749.85	986.27
750.034	1010.84
750.219	1004.7
750.404	1014.94
750.588	963.74
750.773	976.03
750.957	1016.99
751.141	984.22
751.326	924.83
751.51	1078.43
751.695	994.46
751.879	949.4
752.064	922.78
752.248	1014.94
752.432	1014.94
752.617	978.08
752.801	933.02
752.985	910.49
753.17	926.88
753.354	922.78
753.538	924.83
753.722	914.59
753.907	898.2
754.091	906.4
754.275	885.92
754.459	867.49
754.643	883.87
754.828	830.62
755.012	824.48
755.196	849.05
755.38	832.67
755.564	814.24
755.748	812.19
755.932	777.37
756.116	750.75
756.3	832.67
756.484	838.81
756.668	740.51
756.852	826.53
757.036	752.8
757.22	810.14
757.404	830.62
757.588	720.03
757.772	793.76
757.956	767.13
758.14	844.96
758.323	808.09
758.507	701.6
758.691	804
758.875	732.32
759.059	793.76
759.242	732.32
759.426	713.89
759.61	742.56
759.794	775.33
759.977	623.78
760.161	724.13
760.345	812.19
760.528	662.69
760.712	740.51
760.895	732.32
761.079	627.87
761.263	699.55
761.446	715.94
761.63	703.65
761.813	738.46
761.997	685.22
762.18	605.35
762.364	701.6
762.547	642.21
762.731	670.88
762.914	683.17
763.098	695.46
763.281	621.73
763.464	631.97
763.648	683.17
763.831	683.17
764.015	646.3
764.198	668.83
764.381	658.59
764.564	677.02
764.748	662.69
764.931	717.98
765.114	578.72
765.297	603.3
765.481	601.25
765.664	576.67
765.847	593.06
766.03	644.26
766.213	601.25
766.397	681.12
766.58	617.63
766.763	634.02
766.946	603.3
767.129	627.87
767.312	658.59
767.495	658.59
767.678	591.01
767.861	644.26
768.044	593.06
768.227	584.87
768.41	533.67
768.593	543.91
768.776	629.92
768.959	539.81
769.142	521.38
769.324	543.91
769.507	556.19
769.69	457.89
769.873	562.34
770.056	543.91
770.239	580.77
770.421	457.89
770.604	496.8
770.787	529.57
770.97	572.58
771.152	519.33
771.335	525.47
771.518	564.39
771.7	588.96
771.883	496.8
772.066	578.72
772.248	543.91
772.431	611.49
772.613	480.42
772.796	521.38
772.978	482.47
773.161	541.86
773.343	527.52
773.526	523.43
773.708	445.6
773.891	423.08
774.073	359.59
774.256	443.56
774.438	449.7
774.621	513.19
774.803	492.71
774.985	480.42
775.168	570.53
775.35	502.95
775.532	437.41
775.715	441.51
775.897	437.41
776.079	466.08
776.261	455.84
776.444	425.12
776.626	373.92
776.808	388.26
776.99	476.32
777.173	404.64
777.355	443.56
777.537	375.97
777.719	431.27
777.901	474.28
778.083	400.55
778.265	375.97
778.447	380.07
778.629	429.22
778.811	347.3
778.993	412.84
779.175	388.26
779.357	375.97
779.539	431.27
779.721	361.64
779.903	355.49
780.085	341.16
780.267	371.88
780.449	292.01
780.631	408.74
780.812	330.92
780.994	353.45
781.176	406.69
781.358	337.06
781.54	388.26
781.721	359.59
781.903	320.68
782.085	308.39
782.267	351.4
782.448	398.5
782.63	373.92
782.812	308.39
782.993	339.11
783.175	287.91
783.357	304.29
783.538	306.34
783.72	314.53
783.901	375.97
784.083	249
784.264	339.11
784.446	314.53
784.627	423.08
784.809	279.72
784.99	259.24
785.172	263.33
785.353	316.58
785.535	253.09
785.716	298.15
785.897	298.15
786.079	249
786.26	369.83
786.441	308.39
786.623	294.05
786.804	312.49
786.985	220.33
787.167	316.58
787.348	251.05
787.529	271.53
787.71	261.29
787.891	220.33
788.073	263.33
788.254	292.01
788.435	257.19
788.616	281.77
788.797	208.04
788.978	169.13
789.159	199.85
789.34	273.57
789.522	195.75
789.703	242.85
789.884	232.62
790.065	177.32
790.246	292.01
790.427	191.66
790.607	238.76
790.788	263.33
790.969	265.38
791.15	236.71
791.331	169.13
791.512	210.09
791.693	238.76
791.874	238.76
792.054	265.38
792.235	249
792.416	195.75
792.597	216.23
792.778	134.31
792.958	242.85
793.139	154.79
793.32	255.14
793.5	146.6
793.681	195.75
793.862	265.38
794.042	208.04
794.223	167.08
794.404	181.42
794.584	134.31
794.765	191.66
794.945	187.56
795.126	158.89
795.306	179.37
795.487	144.55
795.667	152.74
795.848	218.28
796.028	238.76
796.209	181.42
796.389	230.57
796.57	175.27
796.75	195.75
796.93	134.31
797.111	152.74
797.291	181.42
797.471	197.8
797.652	146.6
797.832	183.46
798.012	183.46
798.192	126.12
798.373	183.46
798.553	138.41
798.733	212.14
798.913	101.55
799.093	210.09
799.274	126.12
799.454	203.94
799.634	292.01
799.814	232.62
799.994	171.18
800.174	165.03
800.354	140.46
800.534	142.5
800.714	117.93
800.894	197.8
801.074	154.79
801.254	115.88
801.434	128.17
801.614	158.89
801.794	56.49
801.974	324.77
802.154	150.7
802.334	154.79
802.514	128.17
802.693	191.66
802.873	103.59
803.053	185.51
803.233	132.26
803.413	173.22
803.592	177.32
803.772	191.66
803.952	122.02
804.131	142.5
804.311	165.03
804.491	70.83
804.67	181.42
804.85	179.37
805.03	74.92
805.209	189.61
805.389	81.07
805.568	173.22
805.748	89.26
805.928	169.13
806.107	62.63
806.287	144.55
806.466	138.41
806.646	144.55
806.825	136.36
807.004	193.7
807.184	167.08
807.363	109.74
807.543	103.59
807.722	70.83
807.901	165.03
808.081	152.74
808.26	72.87
808.439	169.13
808.619	60.59
808.798	66.73
808.977	169.13
809.156	130.22
809.336	126.12
809.515	249
809.694	85.16
809.873	76.97
810.052	13.48
810.231	132.26
810.411	101.55
810.59	79.02
810.769	115.88
810.948	91.31
811.127	79.02
811.306	150.7
811.485	13.48
811.664	142.5
811.843	156.84
812.022	158.89
812.201	17.58
812.38	103.59
812.559	109.74
812.737	105.64
812.916	54.44
813.095	76.97
813.274	124.07
813.453	23.72
813.632	142.5
813.811	87.21
813.989	48.3
814.168	66.73
814.347	171.18
814.526	29.87
814.704	113.83
814.883	44.2
815.062	79.02
815.24	183.46
815.419	66.73
815.598	79.02
815.776	56.49
815.955	60.59
816.133	36.01
816.312	126.12
816.49	91.31
816.669	87.21
816.847	54.44
817.026	89.26
817.204	103.59
817.383	103.59
817.561	89.26
817.74	76.97
817.918	81.07
818.097	70.83
818.275	89.26
818.453	23.72
818.632	101.55
818.81	74.92
818.988	93.35
819.167	64.68
819.345	70.83
819.523	91.31
819.701	91.31
819.879	17.58
820.058	54.44
820.236	60.59
820.414	11.43
820.592	29.87
820.77	27.82
820.948	132.26
821.127	66.73
821.305	79.02
821.483	5.29
821.661	79.02
821.839	38.06
822.017	85.16
822.195	36.01
822.373	140.46
822.551	54.44
822.729	122.02
822.907	89.26
823.085	113.83
823.262	76.97
823.44	91.31
823.618	68.78
823.796	56.49
823.974	91.31
824.152	40.11
824.329	64.68
824.507	66.73
824.685	124.07
824.863	56.49
825.04	64.68
825.218	126.12
825.396	-2.9
825.574	89.26
825.751	62.63
825.929	38.06
826.107	74.92
826.284	23.72
826.462	115.88
826.639	5.29
826.817	89.26
826.994	79.02
827.172	62.63
827.349	64.68
827.527	11.43
827.704	89.26
827.882	38.06
828.059	91.31
828.237	38.06
828.414	-13.14
828.591	-66.39
828.769	58.54
828.946	113.83
829.124	85.16
829.301	52.39
829.478	68.78
829.655	-35.67
829.833	50.35
830.01	70.83
830.187	15.53
830.364	-15.19
830.542	158.89
830.719	132.26
830.896	101.55
831.073	21.67
831.25	62.63
831.427	29.87
831.604	40.11
831.782	13.48
831.959	44.2
832.136	99.5
832.313	38.06
832.49	33.96
832.667	3.24
832.844	9.39
833.021	66.73
833.198	9.39
833.374	54.44
833.551	1.19
833.728	42.15
833.905	87.21
834.082	52.39
834.259	44.2
834.436	87.21
834.612	91.31
834.789	60.59
834.966	60.59
835.143	42.15
835.319	11.43
835.496	128.17
835.673	-4.95
835.85	7.34
836.026	23.72
836.203	50.35
836.38	64.68
836.556	44.2
836.733	19.63
836.909	64.68
837.086	27.82
837.262	60.59
837.439	50.35
837.616	62.63
837.792	7.34
837.968	87.21
838.145	-2.9
838.321	3.24
838.498	9.39
838.674	52.39
838.851	-4.95
839.027	66.73
839.203	62.63
839.38	19.63
839.556	54.44
839.732	5.29
839.909	54.44
840.085	62.63
840.261	76.97
840.437	-25.43
840.614	95.4
840.79	44.2
840.966	-15.19
841.142	11.43
841.318	40.11
841.494	11.43
841.671	7.34
841.847	52.39
842.023	15.53
842.199	87.21
842.375	19.63
842.551	64.68
842.727	-29.52
842.903	50.35
843.079	27.82
843.255	42.15
843.431	-2.9
843.607	13.48
843.783	44.2
843.959	52.39
844.134	60.59
844.31	-15.19
844.486	-23.38
844.662	52.39
844.838	27.82
845.013	117.93
845.189	99.5
845.365	13.48
845.541	1.19
845.716	38.06
845.892	44.2
846.068	54.44
846.244	-21.33
846.419	52.39
846.595	52.39
846.77	5.29
846.946	3.24
847.122	33.96
847.297	-0.85
847.473	11.43
847.648	-37.72
847.824	25.77
847.999	31.91
848.175	11.43
848.35	3.24
848.526	85.16
848.701	11.43
848.876	19.63
849.052	76.97
849.227	5.29
849.403	38.06
849.578	93.35
849.753	-0.85
849.929	-4.95
850.104	79.02
850.279	64.68
850.454	19.63
850.63	-13.14
850.805	21.67
850.98	81.07
851.155	13.48
851.33	23.72
851.505	15.53
851.681	-4.95
851.856	-23.38
852.031	-0.85
852.206	58.54
852.381	19.63
852.556	15.53
852.731	-15.19
852.906	83.11
853.081	48.3
853.256	38.06
853.431	-45.91
853.606	29.87
853.781	64.68
853.956	25.77
854.131	64.68
854.305	-27.48
854.48	95.4
854.655	9.39
854.83	46.25
855.005	5.29
855.18	17.58
855.354	17.58
855.529	27.82
855.704	-13.14
855.879	-33.62
856.053	66.73
856.228	15.53
856.403	-11.09
856.577	23.72
856.752	-41.81
856.926	-25.43
857.101	-45.91
857.276	115.88
857.45	3.24
857.625	5.29
857.799	13.48
857.974	89.26
858.148	38.06
858.323	60.59
858.497	44.2
858.672	36.01
858.846	-27.48
859.02	31.91
859.195	7.34
859.369	21.67
859.543	25.77
859.718	29.87
859.892	48.3
860.066	27.82
860.241	-23.38
860.415	11.43
860.589	-13.14
860.763	15.53
860.938	-31.57
861.112	42.15
861.286	23.72
861.46	21.67
861.634	-27.48
861.808	-13.14
861.982	21.67
862.157	64.68
862.331	44.2
862.505	-9.05
862.679	38.06
862.853	38.06
863.027	54.44
863.201	58.54
863.375	7.34
863.549	44.2
863.722	-88.92
863.896	76.97
864.07	1.19
864.244	25.77
864.418	85.16
864.592	48.3
864.766	-7
864.939	44.2
865.113	23.72
865.287	-13.14
865.461	36.01
865.634	-11.09
865.808	-2.9
865.982	-9.05
866.156	-23.38
866.329	11.43
866.503	-54.1
866.676	-58.2
866.85	23.72
867.024	38.06
867.197	-41.81
867.371	-45.91
867.544	31.91
867.718	21.67
867.891	-2.9
868.065	-13.14
868.238	25.77
868.412	-0.85
868.585	38.06
868.759	11.43
868.932	-27.48
869.105	-23.38
869.279	29.87
869.452	-62.29
869.625	-11.09
869.799	29.87
869.972	5.29
870.145	95.4
870.319	44.2
870.492	11.43
870.665	-15.19
870.838	5.29
871.011	50.35
871.185	15.53
871.358	27.82
871.531	-37.72
871.704	-54.1
871.877	-19.29
872.05	-23.38
872.223	-11.09
872.396	23.72
872.569	1.19
872.742	21.67
872.915	-23.38
873.088	-45.91
873.261	-7
873.434	27.82
873.607	17.58
873.78	29.87
873.953	38.06
874.126	25.77
874.299	33.96
874.471	38.06
874.644	3.24
874.817	9.39
874.99	56.49
875.163	1.19
875.335	23.72
875.508	-31.57
875.681	36.01
875.853	66.73
876.026	-43.86
876.199	-2.9
876.371	-4.95
876.544	1.19
876.717	11.43
876.889	-50
877.062	-2.9
877.234	-25.43
877.407	40.11
877.579	50.35
877.752	36.01
877.924	46.25
878.097	-56.15
878.269	5.29
878.442	-35.67
878.614	40.11
878.786	-21.33
878.959	9.39
879.131	-11.09
879.303	17.58
879.476	-7
879.648	29.87
879.82	52.39
879.993	-105.3
880.165	11.43
880.337	-101.2
880.509	-2.9
880.681	64.68
880.854	-13.14
881.026	48.3
881.198	58.54
881.37	-52.05
881.542	-52.05
881.714	-41.81
881.886	-58.2
882.058	-9.05
882.23	11.43
882.402	3.24
882.574	19.63
882.746	76.97
882.918	113.83
883.09	64.68
883.262	-21.33
883.434	-35.67
883.606	-37.72
883.778	1.19
883.95	40.11
884.122	105.64
884.293	60.59
884.465	56.49
884.637	44.2
884.809	15.53
884.98	7.34
885.152	9.39
885.324	64.68
885.496	19.63
885.667	-29.52
885.839	52.39
886.011	38.06
886.182	-56.15
886.354	19.63
886.525	-72.53
886.697	27.82
886.869	19.63
887.04	40.11
887.212	-0.85
887.383	36.01
887.555	23.72
887.726	27.82
887.897	25.77
888.069	21.67
888.24	-21.33
888.412	58.54
888.583	1.19
888.754	27.82
888.926	-19.29
889.097	-9.05
889.268	-9.05
889.44	-37.72
889.611	-7
889.782	-43.86
889.953	-68.44
890.125	7.34
890.296	13.48
890.467	31.91
890.638	-80.72
890.809	5.29
890.98	5.29
891.151	11.43
891.323	70.83
891.494	-13.14
891.665	-29.52
891.836	-31.57
892.007	9.39
892.178	36.01
892.349	31.91
892.52	9.39
892.691	9.39
892.862	38.06
893.032	-0.85
893.203	-13.14
893.374	11.43
893.545	-52.05
893.716	-0.85
893.887	54.44
894.057	15.53
894.228	13.48
894.399	-19.29
894.57	38.06
894.74	-4.95
894.911	-0.85
895.082	3.24
895.253	5.29
895.423	60.59
895.594	-9.05
895.764	27.82
895.935	27.82
896.106	56.49
896.276	-33.62
896.447	-31.57
896.617	-60.24
896.788	-47.96
896.958	-21.33
897.129	38.06
897.299	-13.14
897.47	-50
897.64	15.53
897.81	-27.48
897.981	13.48
898.151	-43.86
898.322	-15.19
898.492	-21.33
898.662	3.24
898.832	11.43
899.003	-2.9
899.173	-15.19
899.343	-0.85
899.513	19.63
