Data from USB4F104151__95__13-00-11-998.txt Node

Date: Fri Mar 14 13:00:11 EDT 2025
User: louis
Spectrometer: USB4F10415
Trigger mode: 4
Integration Time (sec): 1.000000E-2
Scans to average: 1
Electric dark correction enabled: true
Nonlinearity correction enabled: false
Boxcar width: 0
XAxis mode: Wavelengths
Number of Pixels in Spectrum: 3648
>>>>>Begin Spectral Data<<<<<
178.204	-10.41
178.424	-10.41
178.644	-10.41
178.864	24.4
179.084	-28.84
179.304	-51.37
179.524	-22.7
179.744	87.89
179.964	-28.84
180.184	-80.04
180.404	61.27
180.624	12.12
180.844	26.45
181.064	-20.65
181.283	-2.22
181.503	10.07
181.723	8.02
181.943	8.02
182.163	73.56
182.383	-37.03
182.602	22.36
182.822	67.41
183.042	-8.36
183.262	1.88
183.482	36.69
183.701	-12.46
183.921	16.21
184.141	16.21
184.361	108.37
184.58	-6.31
184.8	-14.51
185.02	-16.55
185.239	96.08
185.459	-16.55
185.679	28.5
185.898	24.4
186.118	46.93
186.338	77.65
186.557	104.28
186.777	75.6
186.997	44.88
187.216	-20.65
187.436	75.6
187.655	63.32
187.875	20.31
188.095	5.97
188.314	53.08
188.534	59.22
188.753	67.41
188.973	14.17
189.192	67.41
189.412	12.12
189.631	20.31
189.851	120.66
190.07	87.89
190.29	44.88
190.509	16.21
190.729	-12.46
190.948	73.56
191.168	83.8
191.387	32.6
191.607	69.46
191.826	89.94
192.045	3.93
192.265	8.02
192.484	40.79
192.704	51.03
192.923	-41.13
193.142	53.08
193.362	-10.41
193.581	8.02
193.8	8.02
194.02	61.27
194.239	32.6
194.458	5.97
194.678	1.88
194.897	40.79
195.116	16.21
195.335	65.36
195.555	8.02
195.774	96.08
195.993	30.55
196.212	36.69
196.432	-2.22
196.651	-28.84
196.87	53.08
197.089	65.36
197.308	30.55
197.528	102.23
197.747	28.5
197.966	71.51
198.185	-8.36
198.404	71.51
198.623	100.18
198.842	-51.37
199.062	26.45
199.281	42.84
199.5	14.17
199.719	71.51
199.938	38.74
200.157	96.08
200.376	3.93
200.595	57.17
200.814	-18.6
201.033	16.21
201.252	69.46
201.471	42.84
201.69	36.69
201.909	75.6
202.128	-2.22
202.347	61.27
202.566	48.98
202.785	38.74
203.004	-4.27
203.223	46.93
203.442	91.99
203.661	91.99
203.879	24.4
204.098	59.22
204.317	-10.41
204.536	55.12
204.755	20.31
204.974	53.08
205.193	14.17
205.411	69.46
205.63	32.6
205.849	20.31
206.068	8.02
206.287	28.5
206.505	-22.7
206.724	79.7
206.943	8.02
207.162	8.02
207.381	100.18
207.599	-71.85
207.818	1.88
208.037	79.7
208.255	30.55
208.474	89.94
208.693	77.65
208.911	108.37
209.13	-26.79
209.349	28.5
209.567	75.6
209.786	61.27
210.005	12.12
210.223	85.84
210.442	-28.84
210.661	75.6
210.879	-20.65
211.098	83.8
211.316	-10.41
211.535	3.93
211.753	91.99
211.972	-53.42
212.191	28.5
212.409	91.99
212.628	63.32
212.846	20.31
213.065	51.03
213.283	61.27
213.502	-28.84
213.72	26.45
213.938	100.18
214.157	85.84
214.375	53.08
214.594	94.04
214.812	36.69
215.031	30.55
215.249	-18.6
215.467	85.84
215.686	75.6
215.904	-0.17
216.122	65.36
216.341	14.17
216.559	12.12
216.778	38.74
216.996	51.03
217.214	61.27
217.432	-4.27
217.651	71.51
217.869	30.55
218.087	32.6
218.306	-57.51
218.524	48.98
218.742	77.65
218.96	100.18
219.179	-20.65
219.397	30.55
219.615	63.32
219.833	77.65
220.051	28.5
220.27	94.04
220.488	77.65
220.706	-6.31
220.924	36.69
221.142	53.08
221.36	57.17
221.578	36.69
221.796	61.27
222.015	-8.36
222.233	26.45
222.451	51.03
222.669	114.52
222.887	32.6
223.105	38.74
223.323	73.56
223.541	12.12
223.759	14.17
223.977	110.42
224.195	24.4
224.413	-24.75
224.631	79.7
224.849	36.69
225.067	94.04
225.285	46.93
225.503	-39.08
225.721	-12.46
225.939	-6.31
226.157	59.22
226.375	120.66
226.592	-6.31
226.81	-6.31
227.028	87.89
227.246	57.17
227.464	12.12
227.682	46.93
227.9	46.93
228.117	3.93
228.335	16.21
228.553	32.6
228.771	10.07
228.989	100.18
229.206	-16.55
229.424	-0.17
229.642	-18.6
229.86	-24.75
230.077	-2.22
230.295	22.36
230.513	16.21
230.731	3.93
230.948	8.02
231.166	73.56
231.384	10.07
231.601	-4.27
231.819	53.08
232.037	-2.22
232.254	24.4
232.472	81.75
232.689	10.07
232.907	20.31
233.125	65.36
233.342	-24.75
233.56	38.74
233.777	59.22
233.995	18.26
234.213	5.97
234.43	-6.31
234.648	-4.27
234.865	102.23
235.083	14.17
235.3	100.18
235.518	48.98
235.735	38.74
235.953	141.14
236.17	32.6
236.388	-67.75
236.605	69.46
236.822	132.95
237.04	61.27
237.257	-10.41
237.475	22.36
237.692	30.55
237.909	5.97
238.127	53.08
238.344	48.98
238.562	-8.36
238.779	-2.22
238.996	-2.22
239.214	79.7
239.431	-30.89
239.648	81.75
239.865	30.55
240.083	71.51
240.3	-39.08
240.517	38.74
240.735	75.6
240.952	122.71
241.169	3.93
241.386	67.41
241.603	30.55
241.821	38.74
242.038	30.55
242.255	40.79
242.472	77.65
242.689	112.47
242.907	122.71
243.124	20.31
243.341	67.41
243.558	14.17
243.775	20.31
243.992	18.26
244.209	77.65
244.426	-4.27
244.643	77.65
244.86	61.27
245.078	65.36
245.295	26.45
245.512	30.55
245.729	14.17
245.946	30.55
246.163	14.17
246.38	20.31
246.597	-16.55
246.814	26.45
247.031	46.93
247.248	44.88
247.464	-73.9
247.681	8.02
247.898	57.17
248.115	71.51
248.332	67.41
248.549	28.5
248.766	96.08
248.983	16.21
249.2	-41.13
249.417	71.51
249.633	8.02
249.85	53.08
250.067	48.98
250.284	100.18
250.501	102.23
250.717	44.88
250.934	-8.36
251.151	16.21
251.368	30.55
251.585	40.79
251.801	20.31
252.018	63.32
252.235	30.55
252.451	87.89
252.668	1.88
252.885	-10.41
253.102	18.26
253.318	40.79
253.535	32.6
253.752	55.12
253.968	-12.46
254.185	-61.61
254.401	77.65
254.618	53.08
254.835	59.22
255.051	85.84
255.268	44.88
255.484	63.32
255.701	53.08
255.917	-0.17
256.134	-2.22
256.351	-12.46
256.567	57.17
256.784	79.7
257	38.74
257.217	42.84
257.433	51.03
257.65	94.04
257.866	59.22
258.082	59.22
258.299	83.8
258.515	75.6
258.732	77.65
258.948	10.07
259.165	22.36
259.381	69.46
259.597	28.5
259.814	22.36
260.03	55.12
260.246	79.7
260.463	42.84
260.679	85.84
260.895	44.88
261.112	46.93
261.328	-18.6
261.544	44.88
261.761	34.64
261.977	5.97
262.193	73.56
262.409	42.84
262.626	106.32
262.842	42.84
263.058	94.04
263.274	53.08
263.49	59.22
263.707	118.61
263.923	53.08
264.139	-22.7
264.355	108.37
264.571	85.84
264.787	-10.41
265.004	75.6
265.22	8.02
265.436	112.47
265.652	91.99
265.868	5.97
266.084	-34.99
266.3	55.12
266.516	-24.75
266.732	102.23
266.948	20.31
267.164	79.7
267.38	38.74
267.596	8.02
267.812	77.65
268.028	63.32
268.244	30.55
268.46	51.03
268.676	46.93
268.892	-6.31
269.108	16.21
269.324	-8.36
269.54	55.12
269.756	79.7
269.972	81.75
270.188	3.93
270.403	65.36
270.619	-4.27
270.835	48.98
271.051	-4.27
271.267	61.27
271.483	42.84
271.698	75.6
271.914	67.41
272.13	28.5
272.346	63.32
272.562	38.74
272.777	46.93
272.993	28.5
273.209	59.22
273.425	67.41
273.64	32.6
273.856	-12.46
274.072	26.45
274.287	40.79
274.503	83.8
274.719	114.52
274.934	36.69
275.15	10.07
275.366	14.17
275.581	24.4
275.797	-2.22
276.012	1.88
276.228	108.37
276.444	32.6
276.659	40.79
276.875	69.46
277.09	12.12
277.306	38.74
277.521	118.61
277.737	44.88
277.952	28.5
278.168	30.55
278.383	32.6
278.599	20.31
278.814	75.6
279.03	5.97
279.245	53.08
279.461	57.17
279.676	57.17
279.892	51.03
280.107	-49.32
280.322	-43.18
280.538	34.64
280.753	38.74
280.969	-2.22
281.184	-10.41
281.399	61.27
281.615	-0.17
281.83	-4.27
282.045	79.7
282.26	8.02
282.476	110.42
282.691	3.93
282.906	102.23
283.122	-18.6
283.337	-18.6
283.552	98.13
283.767	22.36
283.983	65.36
284.198	18.26
284.413	57.17
284.628	32.6
284.843	73.56
285.058	5.97
285.274	102.23
285.489	32.6
285.704	106.32
285.919	53.08
286.134	53.08
286.349	46.93
286.564	-45.23
286.779	77.65
286.995	55.12
287.21	-18.6
287.425	61.27
287.64	48.98
287.855	61.27
288.07	18.26
288.285	116.56
288.5	77.65
288.715	87.89
288.93	-102.57
289.145	69.46
289.36	26.45
289.575	16.21
289.79	63.32
290.004	-10.41
290.219	20.31
290.434	67.41
290.649	5.97
290.864	-37.03
291.079	3.93
291.294	46.93
291.509	53.08
291.724	57.17
291.938	20.31
292.153	151.38
292.368	79.7
292.583	91.99
292.798	48.98
293.012	26.45
293.227	42.84
293.442	-0.17
293.657	38.74
293.871	46.93
294.086	57.17
294.301	-26.79
294.516	94.04
294.73	79.7
294.945	38.74
295.16	-28.84
295.374	20.31
295.589	38.74
295.804	-8.36
296.018	28.5
296.233	48.98
296.447	48.98
296.662	42.84
296.877	100.18
297.091	48.98
297.306	55.12
297.52	-16.55
297.735	44.88
297.949	36.69
298.164	53.08
298.378	44.88
298.593	94.04
298.807	-22.7
299.022	-26.79
299.236	83.8
299.451	48.98
299.665	44.88
299.88	65.36
300.094	75.6
300.309	61.27
300.523	3.93
300.737	71.51
300.952	22.36
301.166	28.5
301.381	34.64
301.595	57.17
301.809	46.93
302.024	30.55
302.238	18.26
302.452	63.32
302.667	24.4
302.881	16.21
303.095	38.74
303.309	20.31
303.524	44.88
303.738	3.93
303.952	-24.75
304.166	77.65
304.381	126.8
304.595	55.12
304.809	36.69
305.023	20.31
305.237	48.98
305.452	104.28
305.666	18.26
305.88	87.89
306.094	3.93
306.308	63.32
306.522	14.17
306.736	32.6
306.95	40.79
307.164	61.27
307.379	53.08
307.593	18.26
307.807	108.37
308.021	83.8
308.235	24.4
308.449	34.64
308.663	83.8
308.877	85.84
309.091	34.64
309.305	118.61
309.519	-77.99
309.733	77.65
309.947	-0.17
310.161	36.69
310.374	124.76
310.588	79.7
310.802	38.74
311.016	10.07
311.23	-16.55
311.444	36.69
311.658	1.88
311.872	28.5
312.085	18.26
312.299	-57.51
312.513	75.6
312.727	32.6
312.941	59.22
313.154	24.4
313.368	98.13
313.582	44.88
313.796	34.64
314.009	3.93
314.223	51.03
314.437	34.64
314.651	75.6
314.864	36.69
315.078	38.74
315.292	36.69
315.505	16.21
315.719	81.75
315.933	42.84
316.146	89.94
316.36	48.98
316.573	71.51
316.787	44.88
317.001	22.36
317.214	69.46
317.428	42.84
317.641	12.12
317.855	30.55
318.068	14.17
318.282	53.08
318.495	102.23
318.709	106.32
318.922	98.13
319.136	44.88
319.349	8.02
319.563	10.07
319.776	-4.27
319.99	12.12
320.203	94.04
320.417	55.12
320.63	44.88
320.843	57.17
321.057	71.51
321.27	22.36
321.483	-0.17
321.697	32.6
321.91	59.22
322.124	46.93
322.337	14.17
322.55	20.31
322.763	46.93
322.977	71.51
323.19	77.65
323.403	34.64
323.617	18.26
323.83	42.84
324.043	42.84
324.256	53.08
324.469	32.6
324.683	96.08
324.896	-16.55
325.109	28.5
325.322	34.64
325.535	24.4
325.748	51.03
325.962	-10.41
326.175	32.6
326.388	24.4
326.601	81.75
326.814	32.6
327.027	85.84
327.24	34.64
327.453	12.12
327.666	71.51
327.879	34.64
328.092	81.75
328.305	-26.79
328.518	22.36
328.731	46.93
328.944	44.88
329.157	36.69
329.37	85.84
329.583	18.26
329.796	30.55
330.009	40.79
330.222	104.28
330.435	139.09
330.648	51.03
330.861	-4.27
331.073	118.61
331.286	-20.65
331.499	55.12
331.712	5.97
331.925	-8.36
332.138	24.4
332.35	34.64
332.563	79.7
332.776	79.7
332.989	-57.51
333.202	42.84
333.414	65.36
333.627	48.98
333.84	40.79
334.053	69.46
334.265	46.93
334.478	40.79
334.691	8.02
334.903	36.69
335.116	36.69
335.329	89.94
335.541	91.99
335.754	38.74
335.966	-51.37
336.179	14.17
336.392	34.64
336.604	73.56
336.817	73.56
337.029	59.22
337.242	53.08
337.454	3.93
337.667	5.97
337.88	85.84
338.092	75.6
338.305	44.88
338.517	89.94
338.729	59.22
338.942	32.6
339.154	32.6
339.367	-16.55
339.579	28.5
339.792	40.79
340.004	135
340.217	57.17
340.429	85.84
340.641	-41.13
340.854	63.32
341.066	-10.41
341.278	3.93
341.491	57.17
341.703	77.65
341.915	98.13
342.128	65.36
342.34	102.23
342.552	38.74
342.764	61.27
342.977	69.46
343.189	48.98
343.401	18.26
343.613	89.94
343.826	102.23
344.038	-6.31
344.25	59.22
344.462	36.69
344.674	28.5
344.886	26.45
345.099	55.12
345.311	-12.46
345.523	38.74
345.735	-57.51
345.947	1.88
346.159	3.93
346.371	30.55
346.583	65.36
346.795	106.32
347.007	-51.37
347.219	87.89
347.431	20.31
347.643	147.28
347.855	94.04
348.067	110.42
348.279	10.07
348.491	75.6
348.703	57.17
348.915	32.6
349.127	1.88
349.339	102.23
349.551	48.98
349.763	26.45
349.975	14.17
350.187	20.31
350.399	3.93
350.61	53.08
350.822	30.55
351.034	30.55
351.246	-10.41
351.458	108.37
351.669	63.32
351.881	38.74
352.093	130.9
352.305	40.79
352.517	79.7
352.728	42.84
352.94	32.6
353.152	94.04
353.363	53.08
353.575	26.45
353.787	65.36
353.999	34.64
354.21	40.79
354.422	22.36
354.633	22.36
354.845	44.88
355.057	89.94
355.268	-0.17
355.48	26.45
355.692	69.46
355.903	22.36
356.115	77.65
356.326	48.98
356.538	-37.03
356.749	79.7
356.961	159.57
357.172	30.55
357.384	73.56
357.595	38.74
357.807	81.75
358.018	-34.99
358.23	16.21
358.441	8.02
358.653	48.98
358.864	-2.22
359.075	46.93
359.287	-61.61
359.498	89.94
359.709	22.36
359.921	53.08
360.132	-26.79
360.344	34.64
360.555	44.88
360.766	57.17
360.977	36.69
361.189	61.27
361.4	-41.13
361.611	30.55
361.823	65.36
362.034	118.61
362.245	20.31
362.456	55.12
362.667	94.04
362.879	46.93
363.09	28.5
363.301	48.98
363.512	65.36
363.723	28.5
363.935	-49.32
364.146	48.98
364.357	18.26
364.568	44.88
364.779	-20.65
364.99	-2.22
365.201	16.21
365.412	32.6
365.623	36.69
365.834	57.17
366.045	36.69
366.256	71.51
366.467	14.17
366.678	14.17
366.889	-16.55
367.1	36.69
367.311	14.17
367.522	75.6
367.733	57.17
367.944	14.17
368.155	122.71
368.366	59.22
368.577	67.41
368.788	83.8
368.999	71.51
369.209	85.84
369.42	38.74
369.631	3.93
369.842	18.26
370.053	135
370.264	10.07
370.474	36.69
370.685	46.93
370.896	112.47
371.107	59.22
371.317	20.31
371.528	51.03
371.739	69.46
371.95	46.93
372.16	67.41
372.371	24.4
372.582	14.17
372.792	14.17
373.003	22.36
373.214	71.51
373.424	44.88
373.635	28.5
373.846	91.99
374.056	83.8
374.267	73.56
374.477	40.79
374.688	98.13
374.898	61.27
375.109	5.97
375.319	83.8
375.53	5.97
375.74	73.56
375.951	102.23
376.161	28.5
376.372	87.89
376.582	89.94
376.793	42.84
377.003	8.02
377.214	59.22
377.424	24.4
377.635	44.88
377.845	14.17
378.055	102.23
378.266	75.6
378.476	98.13
378.686	112.47
378.897	40.79
379.107	96.08
379.317	65.36
379.528	55.12
379.738	87.89
379.948	-6.31
380.158	53.08
380.369	26.45
380.579	32.6
380.789	42.84
380.999	61.27
381.21	34.64
381.42	114.52
381.63	63.32
381.84	34.64
382.05	-0.17
382.261	73.56
382.471	36.69
382.681	55.12
382.891	114.52
383.101	-37.03
383.311	1.88
383.521	12.12
383.731	51.03
383.941	69.46
384.151	51.03
384.361	14.17
384.571	71.51
384.781	-51.37
384.991	61.27
385.201	91.99
385.411	81.75
385.621	137.04
385.831	40.79
386.041	28.5
386.251	59.22
386.461	51.03
386.671	51.03
386.881	94.04
387.091	36.69
387.301	-12.46
387.511	48.98
387.72	69.46
387.93	3.93
388.14	42.84
388.35	36.69
388.56	61.27
388.769	102.23
388.979	46.93
389.189	24.4
389.399	24.4
389.609	51.03
389.818	44.88
390.028	69.46
390.238	8.02
390.447	48.98
390.657	73.56
390.867	30.55
391.076	12.12
391.286	75.6
391.496	65.36
391.705	32.6
391.915	143.19
392.125	73.56
392.334	96.08
392.544	73.56
392.753	26.45
392.963	91.99
393.172	85.84
393.382	77.65
393.591	30.55
393.801	83.8
394.01	34.64
394.22	102.23
394.429	48.98
394.639	59.22
394.848	-12.46
395.058	116.56
395.267	67.41
395.477	1.88
395.686	77.65
395.895	34.64
396.105	32.6
396.314	102.23
396.524	10.07
396.733	28.5
396.942	79.7
397.152	59.22
397.361	126.8
397.57	120.66
397.78	98.13
397.989	190.29
398.198	32.6
398.407	63.32
398.617	85.84
398.826	18.26
399.035	132.95
399.244	63.32
399.453	44.88
399.663	57.17
399.872	81.75
400.081	65.36
400.29	112.47
400.499	104.28
400.708	100.18
400.917	-4.27
401.127	135
401.336	102.23
401.545	81.75
401.754	85.84
401.963	120.66
402.172	83.8
402.381	124.76
402.59	16.21
402.799	135
403.008	85.84
403.217	100.18
403.426	135
403.635	132.95
403.844	114.52
404.053	87.89
404.262	32.6
404.471	110.42
404.68	73.56
404.888	141.14
405.097	42.84
405.306	85.84
405.515	69.46
405.724	71.51
405.933	94.04
406.142	126.8
406.35	77.65
406.559	20.31
406.768	116.56
406.977	120.66
407.185	102.23
407.394	108.37
407.603	122.71
407.812	184.15
408.02	100.18
408.229	167.76
408.438	178
408.646	130.9
408.855	212.82
409.064	110.42
409.272	208.72
409.481	194.39
409.69	151.38
409.898	241.49
410.107	200.53
410.315	130.9
410.524	151.38
410.733	198.48
410.941	171.86
411.15	194.39
411.358	223.06
411.567	161.62
411.775	212.82
411.984	214.87
412.192	286.54
412.401	239.44
412.609	274.26
412.818	298.83
413.026	249.68
413.234	307.02
413.443	233.3
413.651	347.98
413.86	243.54
414.068	356.18
414.276	339.79
414.485	335.7
414.693	319.31
414.901	376.66
415.11	321.36
415.318	356.18
415.526	374.61
415.734	427.85
415.943	446.29
416.151	419.66
416.359	429.9
416.567	431.95
416.776	421.71
416.984	567.12
417.192	493.39
417.4	479.05
417.608	511.82
417.817	565.07
418.025	548.68
418.233	614.22
418.441	546.64
418.649	563.02
418.857	638.8
419.065	673.61
419.273	722.76
419.481	769.87
419.689	741.19
419.897	784.2
420.105	790.35
420.313	798.54
420.521	878.41
420.729	911.18
420.937	866.12
421.145	929.61
421.353	864.07
421.561	945.99
421.769	1091.4
421.977	1079.11
422.185	972.61
422.393	1087.3
422.601	1181.51
422.809	1240.9
423.017	1185.6
423.224	1312.58
423.432	1136.45
423.64	1244.99
423.848	1388.35
424.056	1335.1
424.263	1460.03
424.471	1400.64
424.679	1525.57
424.887	1644.35
425.094	1576.77
425.302	1609.53
425.51	1636.16
425.718	1738.55
425.925	1742.65
426.133	1851.19
426.341	1855.29
426.548	2000.69
426.756	1926.97
426.964	1994.55
427.171	2051.89
427.379	2160.44
427.586	2258.74
427.794	2320.18
428.001	2459.44
428.209	2533.17
428.417	2422.58
428.624	2701.1
428.832	2592.56
429.039	2580.27
429.247	2576.17
429.454	2920.23
429.662	3071.78
429.869	2854.7
430.076	3100.45
430.284	2940.71
430.491	3141.41
430.699	3200.8
430.906	3272.48
431.114	3245.86
431.321	3491.62
431.528	3575.58
431.736	3743.52
431.943	4017.94
432.15	3833.63
432.358	3749.66
432.565	3944.22
432.772	4028.18
432.979	4478.74
433.187	4249.36
433.394	4319
433.601	4605.71
433.808	4636.43
434.016	4554.51
434.223	4820.75
434.43	5205.77
434.637	4974.35
434.844	5426.95
435.052	5383.94
435.259	5406.47
435.466	5506.82
435.673	5408.51
435.88	5771.01
436.087	5895.93
436.294	6059.77
436.501	5998.33
436.708	5963.51
436.915	6235.89
437.122	6524.66
437.329	6375.16
437.537	6727.41
437.743	6741.74
437.95	6874.86
438.157	7180.01
438.364	7349.99
438.571	7261.93
438.778	7470.82
438.985	8150.74
439.192	7558.88
439.399	8017.63
439.606	7710.43
439.813	8273.62
440.02	8709.84
440.227	8527.57
440.433	8441.56
440.64	8713.94
440.847	8894.16
441.054	8982.22
441.261	9473.73
441.467	9522.88
441.674	9615.04
441.881	10133.18
442.088	9977.53
442.294	9840.32
442.501	10141.37
442.708	10264.25
442.914	10761.91
443.121	11374.25
443.328	10933.93
443.534	11818.66
443.741	11527.85
443.948	11325.1
444.154	12267.16
444.361	12021.41
444.568	12072.61
444.774	12027.55
444.981	12291.74
445.187	12693.14
445.394	13268.62
445.6	13137.55
445.807	14085.76
446.013	13796.99
446.22	13807.23
446.426	14724.72
446.633	14704.24
446.839	15132.27
447.046	14478.97
447.252	15521.38
447.459	15351.4
447.665	15455.85
447.871	16072.29
448.078	16850.52
448.284	16080.48
448.491	16293.47
448.697	17245.77
448.903	17393.23
449.11	17561.16
449.316	16901.72
449.522	17645.13
449.728	18167.36
449.935	18230.85
450.141	18478.65
450.347	18740.79
450.553	18157.12
450.76	18337.34
450.966	18916.92
451.172	18619.96
451.378	19351.09
451.584	19019.32
451.791	19361.33
451.997	19179.06
452.203	19895.85
452.409	19377.71
452.615	19164.72
452.821	18912.82
453.027	18568.76
453.233	19719.72
453.44	18763.32
453.646	19291.69
453.852	19326.51
454.058	19652.14
454.264	18910.77
454.47	19281.46
454.676	19021.36
454.882	19613.23
455.088	17993.28
455.294	17997.38
455.5	18773.56
455.705	18724.41
455.911	17804.87
456.117	17704.52
456.323	17225.29
456.529	16567.9
456.735	16944.72
456.941	16825.94
457.147	16332.38
457.352	16248.41
457.558	15826.53
457.764	15734.37
457.97	15355.5
458.176	15122.03
458.381	15128.17
458.587	14368.38
458.793	14474.87
458.999	13788.8
459.204	14646.9
459.41	14052.99
459.616	13446.79
459.821	13416.07
460.027	13330.06
460.233	13065.87
460.438	12406.42
460.644	12668.56
460.85	12109.47
461.055	11574.95
461.261	11685.54
461.466	10837.68
461.672	10604.21
461.878	11388.58
462.083	10532.53
462.289	10378.93
462.494	10385.08
462.7	9856.7
462.905	9481.92
463.111	9807.55
463.316	9813.7
463.522	9805.5
463.727	9758.4
463.932	9658.05
464.138	9809.6
464.343	9871.04
464.549	9377.48
464.754	9625.28
464.959	9670.34
465.165	9637.57
465.37	9127.63
465.575	8797.9
465.781	9434.82
465.986	9367.24
466.191	8916.69
466.397	8945.36
466.602	8466.13
466.807	8582.87
467.012	8656.59
467.218	8589.01
467.423	8492.76
467.628	8660.69
467.833	9076.43
468.038	8675.02
468.244	8408.79
468.449	8836.81
468.654	8507.09
468.859	8308.44
469.064	8675.02
469.269	8115.93
469.474	7997.15
469.679	8394.45
469.885	8146.65
470.09	8222.42
470.295	8091.35
470.5	7925.47
470.705	7937.76
470.91	7999.2
471.115	7692
471.32	7859.93
471.525	7904.99
471.73	7507.68
471.935	7509.73
472.139	7411.43
472.344	7395.04
472.549	7261.93
472.754	7388.9
472.959	7137
473.164	6924.01
473.369	6860.52
473.574	7216.87
473.778	7112.42
473.983	7214.82
474.188	6809.33
474.393	6803.18
474.598	6678.26
474.802	6571.76
475.007	6555.38
475.212	6725.36
475.417	6307.57
475.621	6371.06
475.826	6436.6
476.031	6153.98
476.235	6215.41
476.44	6467.31
476.645	6108.92
476.849	6209.27
477.054	6031.1
477.259	6127.35
477.463	6053.62
477.668	6020.86
477.872	5934.84
478.077	5818.11
478.282	5611.26
478.486	5734.14
478.691	5666.56
478.895	5564.16
479.1	5508.87
479.304	5555.97
479.509	5467.91
479.713	5492.48
479.918	5426.95
480.122	5400.32
480.326	5361.41
480.531	5441.28
480.735	5361.41
480.94	5238.53
481.144	5424.9
481.348	5246.73
481.553	5312.26
481.757	5046.02
481.961	5287.68
482.166	5465.86
482.37	5164.81
482.574	5193.48
482.778	5082.89
482.983	5211.91
483.187	5295.88
483.391	5275.4
483.595	5181.19
483.8	5222.15
484.004	5113.61
484.208	5308.16
484.412	5228.29
484.616	5193.48
484.821	5385.99
485.025	5103.37
485.229	5271.3
485.433	5117.7
485.637	5326.6
485.841	5144.33
486.045	5168.9
486.249	5177.09
486.453	5099.27
486.657	5244.68
486.861	5353.22
487.065	5328.64
487.269	5052.17
487.473	5025.54
487.677	5312.26
487.881	5345.03
488.085	5314.31
488.289	5414.66
488.493	5156.61
488.697	5398.27
488.901	5291.78
489.105	5263.11
489.309	5304.07
489.512	5265.16
489.716	5168.9
489.92	5373.7
490.124	5431.04
490.328	5398.27
490.531	5314.31
490.735	5443.33
490.939	5406.47
491.143	5342.98
491.346	5533.44
491.55	5590.78
491.754	5498.63
491.958	5611.26
492.161	5555.97
492.365	5500.67
492.569	5388.04
492.772	5562.11
492.976	5711.61
493.18	5689.09
493.383	5793.53
493.587	5885.69
493.79	5850.88
493.994	5820.16
494.197	5857.02
494.401	6010.62
494.605	5840.64
494.808	6070.01
495.012	6129.4
495.215	6006.52
495.419	6180.6
495.622	6088.44
495.825	6168.31
496.029	6248.18
496.232	6254.33
496.436	6524.66
496.639	6467.31
496.843	6444.79
497.046	6534.9
497.249	6711.02
497.453	6567.67
497.656	6878.96
497.859	6782.7
498.063	6821.61
498.266	7198.44
498.469	7149.29
498.673	7216.87
498.876	7079.66
499.079	7337.7
499.282	7462.63
499.485	7677.66
499.689	7519.97
499.892	7616.23
500.095	7683.81
500.298	7952.09
500.501	7735.01
500.705	7902.94
500.908	8079.07
501.111	8265.43
501.314	8328.92
501.517	8533.72
501.72	8580.82
501.923	8517.33
502.126	8888.01
502.329	8705.74
502.532	9086.67
502.735	8877.77
502.938	8883.92
503.141	9101
503.344	9240.26
503.547	9461.44
503.75	9473.73
503.953	9617.09
504.156	9567.94
504.359	9873.09
504.562	10014.4
504.765	10065.6
504.968	10299.06
505.17	10319.54
505.373	10403.51
505.576	10712.75
505.779	10481.33
505.982	10780.34
506.185	11079.34
506.387	10978.99
506.59	10958.51
506.793	11349.67
506.996	11290.28
507.198	11785.89
507.401	11658.92
507.604	11951.77
507.807	12269.21
508.009	12265.11
508.212	12181.15
508.415	12324.51
508.617	12592.79
508.82	12668.56
509.022	12627.6
509.225	13090.45
509.428	13135.5
509.63	13221.52
509.833	13059.73
510.035	13723.27
510.238	13659.78
510.44	13645.45
510.643	14102.14
510.845	14169.73
511.048	14106.24
511.25	14225.02
511.453	14487.16
511.655	14841.46
511.858	14966.38
512.06	14941.81
512.262	15173.23
512.465	15173.23
512.667	15361.64
512.87	15660.65
513.072	15761
513.274	15849.06
513.477	16076.38
513.679	16367.2
513.881	16494.17
514.084	16479.83
514.286	16688.73
514.488	16811.6
514.69	17303.12
514.893	17483.34
515.095	17530.44
515.297	17620.55
515.499	17864.26
515.701	18116.16
515.904	18011.71
516.106	18701.88
516.308	18351.68
516.51	18705.98
516.712	18951.73
516.914	18898.48
517.116	19418.67
517.318	19627.56
517.52	19584.55
517.722	19861.03
517.925	20086.31
518.127	20553.24
518.329	20485.66
518.531	20327.97
518.733	20874.77
518.935	20762.14
519.136	21245.46
519.338	21483.02
519.54	21435.92
519.742	21616.14
519.944	21857.8
520.146	22124.04
520.348	22214.15
520.55	22420.99
520.752	22554.11
520.954	22902.26
521.155	22425.09
521.357	22973.94
521.559	23072.25
521.761	23336.43
521.963	23813.61
522.164	23635.44
522.366	24067.56
522.568	23961.06
522.77	24190.44
522.971	24610.27
523.173	24341.99
523.375	24534.49
523.576	25023.96
523.778	25095.64
523.98	25431.51
524.181	25273.81
524.383	25497.04
524.584	25497.04
524.786	25796.04
524.988	25570.77
525.189	25746.89
525.391	26181.06
525.592	26023.37
525.794	26537.41
525.995	26457.54
526.197	26453.44
526.398	26621.38
526.6	27049.4
526.801	26838.46
527.003	27174.33
527.204	26860.99
527.406	27526.58
527.607	27221.43
527.808	27860.4
528.01	27415.99
528.211	27461.04
528.412	28036.52
528.614	28001.71
528.815	28057
529.016	28153.26
529.218	27915.69
529.419	27985.32
529.62	28212.65
529.822	28269.99
530.023	28224.93
530.224	28544.42
530.425	28472.74
530.626	27921.84
530.828	28216.74
531.029	29025.69
531.23	28476.83
531.431	28771.74
531.632	28439.97
531.833	28849.57
532.035	28622.24
532.236	28497.31
532.437	28587.43
532.638	28765.6
532.839	29027.74
533.04	29261.21
533.241	28743.07
533.442	28988.83
533.643	28974.49
533.844	28872.09
534.045	29314.45
534.246	28466.59
534.447	29232.54
534.648	28798.37
534.849	29169.05
535.05	28843.42
535.251	29064.6
535.451	29232.54
535.652	29726.1
535.853	28999.07
536.054	29017.5
536.255	29259.16
536.456	28751.26
536.657	29674.9
536.857	29273.49
537.058	29132.18
537.259	29457.81
537.46	29187.48
537.66	28925.34
537.861	28921.24
538.062	29101.47
538.263	29521.3
538.463	29386.13
538.664	29218.2
538.865	29459.86
539.065	29590.93
539.266	28886.43
539.466	29189.53
539.667	28951.96
539.868	29486.48
540.068	29197.72
540.269	29013.4
540.469	29257.11
540.67	29066.65
540.87	28804.51
541.071	29123.99
541.271	29390.23
541.472	29142.42
541.672	29050.27
541.873	29080.99
542.073	28747.17
542.274	29277.59
542.474	29216.15
542.675	29158.81
542.875	29363.61
543.075	29179.29
543.276	28827.04
543.476	29562.26
543.676	29191.58
543.877	29375.89
544.077	29121.94
544.277	29115.8
544.478	29023.64
544.678	29183.38
544.878	29054.36
545.078	29074.84
545.279	28837.28
545.479	28921.24
545.679	28784.03
545.879	29095.32
546.079	29164.95
546.28	28958.11
546.48	28667.3
546.68	28868
546.88	29339.03
547.08	29148.57
547.28	29072.79
547.48	28804.51
547.68	29158.81
547.88	28626.34
548.081	28982.68
548.281	28851.61
548.481	28872.09
548.681	29046.17
548.881	29070.75
549.081	28720.54
549.28	28882.33
549.48	29140.38
549.68	29023.64
549.88	29271.45
550.08	29058.46
550.28	28865.95
550.48	28800.41
550.68	29080.99
550.88	28691.87
551.08	29001.11
551.279	28929.44
551.479	28911
551.679	29160.86
551.879	28923.29
552.079	28947.87
552.278	28618.14
552.478	28921.24
552.678	29035.93
552.878	29150.62
553.077	29046.17
553.277	28550.56
553.477	28890.52
553.676	28917.15
553.876	28685.73
554.076	28579.23
554.275	28468.64
554.475	28489.12
554.674	28872.09
554.874	28634.53
555.074	28706.21
555.273	28558.75
555.473	28939.68
555.672	28472.74
555.872	28577.19
556.071	28626.34
556.271	28661.15
556.47	28452.26
556.67	28384.68
556.869	28233.13
557.068	28706.21
557.268	28421.54
557.467	28599.71
557.667	28261.8
557.866	28204.45
558.065	28417.44
558.265	28200.36
558.464	28157.35
558.663	28612
558.863	27792.81
559.062	28519.84
559.261	28036.52
559.461	28304.81
559.66	27700.65
559.859	28052.91
560.058	27753.9
560.258	28280.23
560.457	27919.79
560.656	27876.78
560.855	27631.02
561.054	28202.41
561.253	27426.23
561.453	27960.75
561.652	27985.32
561.851	27801.01
562.05	27749.81
562.249	27547.06
562.448	27606.45
562.647	27598.26
562.846	27516.34
563.045	27717.04
563.244	27440.56
563.443	27682.22
563.642	26965.43
563.841	27225.53
564.04	26969.53
564.239	27784.62
564.438	27127.22
564.637	27258.29
564.836	27178.42
565.035	27071.93
565.234	26949.05
565.432	27035.06
565.631	27020.73
565.83	26758.59
566.029	26680.77
566.228	26607.04
566.427	26748.35
566.625	26594.75
566.824	26267.08
567.023	26498.5
567.222	26494.4
567.42	26621.38
567.619	26406.34
567.818	26275.27
568.016	26478.02
568.215	26815.93
568.414	26494.4
568.612	26551.74
568.811	26248.64
569.01	26246.6
569.208	26107.33
569.407	26230.21
569.605	25648.59
569.804	26011.08
570.002	25783.76
570.201	25816.52
570.4	25648.59
570.598	25540.05
570.797	25587.15
570.995	25497.04
571.193	25159.13
571.392	25593.29
571.59	25206.23
571.789	25538
571.987	24874.46
572.186	25189.84
572.384	25073.11
572.582	25066.97
572.781	25083.35
572.979	24684
573.177	25183.7
573.376	25241.04
573.574	24653.28
573.772	24688.09
573.971	24628.7
574.169	24309.22
574.367	24329.7
574.565	24712.67
574.763	24411.62
574.962	24313.31
575.16	24071.65
575.358	24268.26
575.556	23956.97
575.754	24341.99
575.952	23907.82
576.151	24210.92
576.349	23959.02
576.547	23948.78
576.745	23903.72
576.943	23967.21
577.141	24020.45
577.339	23727.6
577.537	23322.1
577.735	23416.3
577.933	23422.45
578.131	23559.66
578.329	23543.28
578.527	23105.01
578.725	23424.5
578.923	23129.59
579.121	23068.15
579.319	22945.27
579.516	23197.17
579.714	23045.62
579.912	22924.79
580.11	23160.31
580.308	23274.99
580.506	22824.44
580.704	22470.14
580.901	22865.4
581.099	22840.82
581.297	22603.26
581.495	22523.39
581.692	22642.17
581.89	22310.4
582.088	22644.22
582.285	22494.72
582.483	22394.37
582.681	22482.43
582.878	22271.49
583.076	22121.99
583.274	22117.89
583.471	21786.12
583.669	21843.46
583.866	21640.72
584.064	21931.53
584.262	21745.16
584.459	21794.31
584.657	21765.64
584.854	21700.11
585.052	21306.9
585.249	21446.16
585.447	21310.99
585.644	21091.86
585.841	21270.03
586.039	21583.37
586.236	21057.04
586.434	21337.62
586.631	21409.29
586.828	20844.06
587.026	20721.18
587.223	20932.12
587.42	20811.29
587.618	21034.52
587.815	20592.16
588.012	20493.85
588.21	20594.2
588.407	20770.33
588.604	20385.31
588.801	20149.79
588.999	20346.4
589.196	20440.61
589.393	20178.47
589.59	20084.26
589.787	20018.72
589.984	19797.54
590.182	19693.1
590.379	20196.9
590.576	19871.27
590.773	19848.74
590.97	19643.95
591.167	20051.49
591.364	19555.88
591.561	19920.42
591.758	19324.46
591.955	19418.67
592.152	19627.56
592.349	19482.16
592.546	19781.16
592.743	19457.58
592.94	19064.37
593.137	19078.71
593.334	19570.22
593.531	18998.84
593.727	19340.85
593.924	19134
594.121	18644.54
594.318	19199.54
594.515	18740.79
594.712	19084.85
594.908	18609.72
595.105	18880.05
595.302	18697.78
595.499	18677.3
595.696	18640.44
595.892	18449.98
596.089	18544.19
596.286	18245.18
596.482	18370.11
596.679	18564.67
596.876	18282.05
597.072	18290.24
597.269	18202.18
597.466	17780.29
597.662	17870.4
597.859	17964.61
598.055	17843.78
598.252	17815.11
598.448	17868.36
598.645	17587.78
598.841	17544.78
599.038	17700.42
599.234	17600.07
599.431	17749.57
599.627	17602.12
599.824	17522.25
600.02	17118.8
600.217	17370.7
600.413	17280.59
600.609	17178.19
600.806	16969.3
601.002	17405.52
601.198	17061.46
601.395	17100.37
601.591	16827.99
601.787	17186.38
601.984	16942.67
602.18	17049.17
602.376	16901.72
602.572	16678.49
602.769	16926.29
602.965	16590.42
603.161	16713.3
603.357	16537.18
603.553	16481.88
603.75	16621.14
603.946	16432.73
604.142	16469.59
604.338	16160.35
604.534	16526.94
604.73	16107.1
604.926	16262.75
605.122	16293.47
605.318	16150.11
605.514	16043.62
605.71	16043.62
605.906	15988.32
606.102	15867.49
606.298	16000.61
606.494	15744.61
606.69	15963.75
606.886	15636.07
607.082	15838.82
607.278	15857.25
607.474	15502.95
607.67	15681.13
607.866	15437.42
608.062	15621.73
608.257	15357.55
608.453	15431.27
608.649	15629.93
608.845	15404.65
609.041	15298.16
609.236	15464.04
609.432	15345.26
609.628	15218.29
609.824	15482.47
610.019	15294.06
610.215	15046.26
610.411	15142.51
610.606	15193.71
610.802	15228.52
610.998	15019.63
611.193	15046.26
611.389	14849.65
611.584	14966.38
611.78	14626.42
611.976	14829.17
612.171	15013.49
612.367	14849.65
612.562	14806.64
612.758	14440.06
612.953	14505.59
613.149	14798.45
613.344	14790.26
613.539	15009.39
613.735	14661.24
613.93	14663.29
614.126	14296.7
614.321	14634.61
614.517	14505.59
614.712	14653.05
614.907	14454.39
615.103	14421.63
615.298	14311.03
615.493	14663.29
615.688	14374.52
615.884	14173.82
616.079	14147.2
616.274	14034.56
616.47	14358.14
616.665	14003.84
616.86	14222.97
617.055	14265.98
617.25	13891.2
617.445	14145.15
617.641	13831.81
617.836	14161.53
618.031	13477.51
618.226	13772.42
618.421	13803.14
618.616	13907.59
618.811	13600.39
619.006	13809.28
619.201	13522.57
619.396	13700.74
619.591	13530.76
619.786	13512.33
619.981	13432.46
620.176	13360.78
620.371	13182.6
620.566	13242
620.761	13135.5
620.956	13305.48
621.151	13035.15
621.346	13020.81
621.541	12770.96
621.735	12879.5
621.93	12897.94
622.125	12791.44
622.32	12555.93
622.515	12652.18
622.709	12594.84
622.904	12398.23
623.099	12361.37
623.294	12545.69
623.488	12086.94
623.683	12461.72
623.878	12013.21
624.072	12252.83
624.267	12308.12
624.462	11914.91
624.656	12418.71
624.851	11886.24
625.046	11929.25
625.24	11706.02
625.435	11484.84
625.629	11677.35
625.824	11693.73
626.018	11570.85
626.213	11097.77
626.407	11519.65
626.602	11249.32
626.796	11361.96
626.991	11237.03
627.185	11112.11
627.38	11124.4
627.574	11007.66
627.768	10907.31
627.963	10966.7
628.157	10837.68
628.352	10766
628.546	10718.9
628.74	10790.58
628.935	10757.81
629.129	10616.5
629.323	10415.8
629.517	10473.14
629.712	10352.31
629.906	10270.39
630.1	10245.82
630.294	10356.41
630.489	10251.96
630.683	10196.67
630.877	10184.38
631.071	9973.44
631.265	10006.2
631.459	9838.27
631.653	9985.72
631.848	9897.66
632.042	9729.73
632.236	9903.81
632.43	9664.19
632.624	9680.58
632.818	9649.86
633.012	9516.74
633.206	9629.38
633.4	9735.87
633.594	9385.67
633.788	9316.04
633.982	9203.4
634.176	9381.57
634.369	9223.88
634.563	9182.92
634.757	9060.04
634.951	8949.45
635.145	9029.32
635.339	9156.3
635.533	8851.15
635.726	8920.78
635.92	8949.45
636.114	8822.48
636.308	8826.57
636.501	8726.22
636.695	8867.53
636.889	8603.35
637.083	8603.35
637.276	8578.77
637.47	8441.56
637.664	8611.54
637.857	8548.05
638.051	8335.06
638.244	8347.35
638.438	8203.99
638.632	8165.08
638.825	8255.19
639.019	8187.61
639.212	8124.12
639.406	8103.64
639.599	8117.98
639.793	7911.13
639.986	7784.16
640.18	7966.43
640.373	7890.65
640.567	7712.48
640.76	7925.47
640.954	7585.51
641.147	7481.06
641.34	7534.31
641.534	7599.84
641.727	7585.51
641.92	7388.9
642.114	7436
642.307	7474.92
642.5	7323.37
642.694	7065.32
642.887	7331.56
643.08	7292.65
643.273	7110.38
643.467	7130.86
643.66	6958.83
643.853	7177.96
644.046	6852.33
644.239	6903.53
644.432	6852.33
644.626	6917.87
644.819	6926.06
645.012	6784.75
645.205	6809.33
645.398	6860.52
645.591	6704.88
645.784	6844.14
645.977	6674.16
646.17	6567.67
646.363	6606.58
646.556	6428.4
646.749	6524.66
646.942	6414.07
647.135	6418.16
647.328	6305.53
647.521	6287.09
647.714	6326
647.907	6127.35
648.099	6266.61
648.292	6248.18
648.485	6201.08
648.678	6002.43
648.871	6137.59
649.064	5957.37
649.256	6151.93
649.449	6020.86
649.642	5983.99
649.835	5877.5
650.027	5859.07
650.22	5594.88
650.413	5717.76
650.605	5938.94
650.798	5916.41
650.991	5824.25
651.183	5805.82
651.376	5707.52
651.568	5631.74
651.761	5676.8
651.954	5500.67
652.146	5580.54
652.339	5414.66
652.531	5592.83
652.724	5365.51
652.916	5486.34
653.109	5377.8
653.301	5312.26
653.494	5447.43
653.686	5271.3
653.879	5377.8
654.071	5312.26
654.263	5209.86
654.456	5256.97
654.648	5127.94
654.84	5068.55
655.033	5185.29
655.225	5029.64
655.417	5101.32
655.61	5068.55
655.802	5072.65
655.994	4896.52
656.186	5013.26
656.379	4810.51
656.571	4955.91
656.763	4890.38
656.955	4898.57
657.148	4751.12
657.34	4845.32
657.532	4708.11
657.724	4726.54
657.916	4751.12
658.108	4851.47
658.3	4724.49
658.492	4656.91
658.684	4618
658.876	4624.14
659.068	4603.66
659.26	4507.41
659.452	4550.42
659.644	4554.51
659.836	4345.62
660.028	4429.59
660.22	4380.43
660.412	4327.19
660.604	4271.89
660.796	4194.07
660.988	4304.66
661.18	4157.21
661.372	4093.72
661.563	4327.19
661.755	4183.83
661.947	4165.4
662.139	4232.98
662.331	4112.15
662.522	4108.05
662.714	4181.78
662.906	4079.38
663.097	4083.48
663.289	4026.14
663.481	4019.99
663.673	3921.69
663.864	4056.86
664.056	3993.37
664.247	3829.53
664.439	3809.05
664.631	4001.56
664.822	3858.2
665.014	3800.86
665.205	3755.8
665.397	3817.24
665.588	3845.91
665.78	3731.23
665.971	3614.49
666.163	3655.45
666.354	3698.46
666.546	3764
666.737	3477.28
666.929	3718.94
667.12	3602.21
667.311	3544.86
667.503	3481.38
667.694	3446.56
667.885	3583.77
668.077	3618.59
668.268	3579.68
668.459	3583.77
668.651	3393.31
668.842	3522.34
669.033	3432.22
669.224	3583.77
669.416	3413.79
669.607	3487.52
669.798	3348.26
669.989	3288.87
670.18	3338.02
670.371	3295.01
670.563	3256.1
670.754	3245.86
670.945	3206.95
671.136	3100.45
671.327	3233.57
671.518	3274.53
671.709	3178.28
671.9	3301.15
672.091	3258.15
672.282	3090.21
672.473	3133.22
672.664	3194.66
672.855	3145.51
673.046	3104.55
673.237	3196.71
673.428	3084.07
673.619	3133.22
673.809	3163.94
674	3043.11
674.191	3116.84
674.382	2985.77
674.573	3006.25
674.764	3006.25
674.954	3026.73
675.145	2914.09
675.336	2907.94
675.527	2961.19
675.717	3028.78
675.908	3006.25
676.099	2914.09
676.289	3002.15
676.48	2881.32
676.671	2905.9
676.861	2909.99
677.052	2889.51
677.243	2799.4
677.433	2903.85
677.624	2856.75
677.814	2772.78
678.005	2785.07
678.195	2858.79
678.386	2830.12
678.576	2737.96
678.767	2852.65
678.957	2854.7
679.148	2803.5
679.338	2764.59
679.529	2756.4
679.719	2830.12
679.909	2797.35
680.1	2658.09
680.29	2752.3
680.481	2817.83
680.671	2676.52
680.861	2791.21
681.052	2699.05
681.242	2703.15
681.432	2613.04
681.622	2694.96
681.813	2631.47
682.003	2707.24
682.193	2627.37
682.383	2699.05
682.573	2735.92
682.764	2676.52
682.954	2797.35
683.144	2582.32
683.334	2666.28
683.524	2670.38
683.714	2750.25
683.904	2549.55
684.094	2633.52
684.284	2584.37
684.474	2608.94
684.664	2645.8
684.854	2682.67
685.044	2610.99
685.234	2617.13
685.424	2563.89
685.614	2586.41
685.804	2510.64
685.994	2672.43
686.184	2527.02
686.374	2563.89
686.564	2531.12
686.753	2625.33
686.943	2578.22
687.133	2574.13
687.323	2545.45
687.513	2531.12
687.702	2496.3
687.892	2471.73
688.082	2549.55
688.272	2426.67
688.461	2551.6
688.651	2539.31
688.841	2481.97
689.03	2477.87
689.22	2412.34
689.41	2518.83
689.599	2395.95
689.789	2467.63
689.979	2449.2
690.168	2502.45
690.358	2414.38
690.547	2430.77
690.737	2467.63
690.926	2412.34
691.116	2365.23
691.305	2430.77
691.495	2289.46
691.684	2385.71
691.874	2375.47
692.063	2297.65
692.252	2410.29
692.442	2441.01
692.631	2322.23
692.82	2381.62
693.01	2461.49
693.199	2221.88
693.388	2273.07
693.578	2307.89
693.767	2404.14
693.956	2201.4
694.146	2318.13
694.335	2217.78
694.524	2297.65
694.713	2293.55
694.902	2250.55
695.092	2398
695.281	2305.84
695.47	2395.95
695.659	2330.42
695.848	2125.62
696.037	2268.98
696.226	2385.71
696.415	2230.07
696.604	2264.88
696.793	2203.44
696.982	2289.46
697.171	2273.07
697.36	2387.76
697.549	2207.54
697.738	2223.92
697.927	2215.73
698.116	2191.16
698.305	2266.93
698.494	2219.83
698.683	2275.12
698.872	2170.68
699.061	2154.29
699.25	2182.96
699.438	2160.44
699.627	2201.4
699.816	2156.34
700.005	2191.16
700.193	2129.72
700.382	2142
700.571	2133.81
700.76	2168.63
700.948	2072.37
701.137	2152.24
701.326	2172.72
701.514	2107.19
701.703	2051.89
701.892	2068.28
702.08	2185.01
702.269	2080.57
702.457	2070.33
702.646	2127.67
702.834	2000.69
703.023	2127.67
703.212	2096.95
703.4	2117.43
703.589	2090.81
703.777	2055.99
703.965	2043.7
704.154	2076.47
704.342	2070.33
704.531	2025.27
704.719	2006.84
704.907	1986.36
705.096	1965.88
705.284	2035.51
705.472	2025.27
705.661	2070.33
705.849	2082.61
706.037	2021.17
706.226	1976.12
706.414	1898.3
706.602	2002.74
706.79	1969.98
706.979	1851.19
707.167	1984.31
707.355	1959.74
707.543	1998.65
707.731	1951.54
707.919	1904.44
708.107	1863.48
708.296	1947.45
708.484	1910.58
708.672	1935.16
708.86	1998.65
709.048	1926.97
709.236	1931.06
709.424	1945.4
709.612	1847.1
709.8	1826.62
709.988	1865.53
710.176	1697.6
710.364	2015.03
710.551	1888.06
710.739	1791.8
710.927	1875.77
711.115	1865.53
711.303	1765.18
711.491	1802.04
711.679	1779.51
711.866	1812.28
712.054	1840.95
712.242	1787.71
712.43	1797.95
712.617	1838.91
712.805	1675.07
712.993	1775.42
713.181	1752.89
713.368	1816.38
713.556	1769.27
713.744	1691.45
713.931	1752.89
714.119	1728.31
714.306	1746.75
714.494	1685.31
714.682	1759.03
714.869	1687.36
715.057	1820.47
715.244	1707.84
715.432	1724.22
715.619	1732.41
715.807	1716.03
715.994	1754.94
716.182	1695.55
716.369	1744.7
716.556	1681.21
716.744	1722.17
716.931	1675.07
717.119	1752.89
717.306	1759.03
717.493	1652.54
717.681	1619.77
717.868	1593.15
718.055	1687.36
718.242	1687.36
718.43	1599.29
718.617	1699.64
718.804	1627.96
718.991	1670.97
719.179	1546.05
719.366	1599.29
719.553	1556.29
719.74	1640.25
719.927	1679.16
720.114	1535.81
720.301	1595.2
720.488	1562.43
720.676	1599.29
720.863	1660.73
721.05	1521.47
721.237	1630.01
721.424	1675.07
721.611	1527.61
721.798	1560.38
721.985	1529.66
722.172	1519.42
722.358	1521.47
722.545	1634.11
722.732	1480.51
722.919	1431.36
723.106	1535.81
723.293	1527.61
723.48	1503.04
723.667	1470.27
723.853	1466.17
724.04	1687.36
724.227	1470.27
724.414	1541.95
724.6	1482.56
724.787	1500.99
724.974	1474.37
725.161	1494.85
725.347	1437.5
725.534	1535.81
725.72	1570.62
725.907	1568.57
726.094	1535.81
726.28	1455.94
726.467	1449.79
726.653	1511.23
726.84	1564.48
727.027	1388.35
727.213	1457.98
727.4	1466.17
727.586	1429.31
727.773	1376.06
727.959	1500.99
728.145	1513.28
728.332	1478.46
728.518	1408.83
728.705	1449.79
728.891	1380.16
729.077	1425.22
729.264	1464.13
729.45	1390.4
729.636	1398.59
729.823	1445.7
730.009	1480.51
730.195	1412.93
730.382	1457.98
730.568	1304.39
730.754	1359.68
730.94	1494.85
731.126	1457.98
731.313	1386.3
731.499	1314.63
731.685	1320.77
731.871	1400.64
732.057	1316.67
732.243	1406.78
732.429	1314.63
732.615	1365.82
732.801	1367.87
732.987	1281.86
733.173	1406.78
733.359	1318.72
733.545	1324.87
733.731	1306.43
733.917	1345.34
734.103	1384.26
734.289	1339.2
734.475	1333.06
734.661	1398.59
734.847	1464.13
735.033	1355.58
735.219	1357.63
735.404	1394.5
735.59	1363.78
735.776	1265.47
735.962	1308.48
736.148	1357.63
736.333	1345.34
736.519	1249.09
736.705	1269.57
736.89	1390.4
737.076	1318.72
737.262	1228.61
737.447	1318.72
737.633	1238.85
737.819	1263.43
738.004	1306.43
738.19	1263.43
738.375	1226.56
738.561	1298.24
738.747	1363.78
738.932	1240.9
739.118	1306.43
739.303	1193.8
739.489	1312.58
739.674	1257.28
739.859	1288
740.045	1271.62
740.23	1228.61
740.416	1185.6
740.601	1279.81
740.786	1154.88
740.972	1232.71
741.157	1234.75
741.342	1161.03
741.528	1242.95
741.713	1306.43
741.898	1224.51
742.084	1144.64
742.269	1099.59
742.454	1201.99
742.639	1218.37
742.824	1118.02
743.01	1255.23
743.195	1183.56
743.38	1158.98
743.565	1199.94
743.75	1210.18
743.935	1208.13
744.12	1107.78
744.305	1185.6
744.49	1115.97
744.675	1224.51
744.86	1122.12
745.045	1136.45
745.23	1079.11
745.415	1068.87
745.6	1103.68
745.785	1036.1
745.97	1054.53
746.155	1070.92
746.34	1152.84
746.525	1148.74
746.71	1068.87
746.895	1079.11
747.079	1089.35
747.264	1046.34
747.449	1050.44
747.634	1130.31
747.819	1087.3
748.003	1027.91
748.188	1038.15
748.373	1097.54
748.557	999.24
748.742	999.24
748.927	1036.1
749.111	1013.57
749.296	1019.72
749.481	1046.34
749.665	1011.53
749.85	1001.29
750.034	927.56
750.219	1038.15
750.404	966.47
750.588	1023.81
750.773	921.42
750.957	1003.33
751.141	960.33
751.326	915.27
751.51	974.66
751.695	917.32
751.879	907.08
752.064	1003.33
752.248	884.55
752.432	945.99
752.617	905.03
752.801	851.78
752.985	890.7
753.17	855.88
753.354	843.59
753.538	943.94
753.722	827.21
753.907	905.03
754.091	823.11
754.275	872.26
754.459	806.73
754.643	878.41
754.828	900.94
755.012	835.4
755.196	921.42
755.38	782.15
755.564	819.02
755.748	839.5
755.932	870.22
756.116	792.39
756.3	800.59
756.484	724.81
756.668	745.29
756.852	792.39
757.036	757.58
757.22	823.11
757.404	698.19
757.588	696.14
757.772	757.58
757.956	720.71
758.14	776.01
758.323	794.44
758.507	735.05
758.691	669.52
758.875	696.14
759.059	741.19
759.242	712.52
759.426	714.57
759.61	663.37
759.794	735.05
759.977	634.7
760.161	673.61
760.345	708.43
760.528	765.77
760.712	679.75
760.895	722.76
761.079	632.65
761.263	708.43
761.446	712.52
761.63	667.47
761.813	677.71
761.997	646.99
762.18	655.18
762.364	677.71
762.547	612.17
762.731	741.19
762.914	636.75
763.098	675.66
763.281	614.22
763.464	614.22
763.648	636.75
763.831	610.12
764.015	606.03
764.198	677.71
764.381	651.08
764.564	616.27
764.748	583.5
764.931	628.56
765.114	565.07
765.297	673.61
765.481	573.26
765.664	679.75
765.847	618.32
766.03	499.53
766.213	548.68
766.397	632.65
766.58	601.93
766.763	626.51
766.946	616.27
767.129	554.83
767.312	567.12
767.495	536.4
767.678	552.78
767.861	624.46
768.044	603.98
768.227	581.45
768.41	509.77
768.593	565.07
768.776	565.07
768.959	642.89
769.142	591.69
769.324	546.64
769.507	515.92
769.69	517.97
769.873	542.54
770.056	610.12
770.239	610.12
770.421	550.73
770.604	520.01
770.787	546.64
770.97	532.3
771.152	503.63
771.335	577.36
771.518	554.83
771.7	552.78
771.883	515.92
772.066	505.68
772.248	534.35
772.431	491.34
772.613	505.68
772.796	517.97
772.978	515.92
773.161	542.54
773.343	429.9
773.526	479.05
773.708	532.3
773.891	513.87
774.073	470.86
774.256	517.97
774.438	489.29
774.621	503.63
774.803	538.45
774.985	479.05
775.168	489.29
775.35	434
775.532	542.54
775.715	440.14
775.897	530.25
776.079	479.05
776.261	397.14
776.444	450.38
776.626	442.19
776.808	483.15
776.99	495.44
777.173	378.7
777.355	511.82
777.537	372.56
777.719	446.29
777.901	376.66
778.083	397.14
778.265	413.52
778.447	450.38
778.629	411.47
778.811	390.99
778.993	331.6
779.175	386.9
779.357	429.9
779.539	442.19
779.721	333.65
779.903	454.48
780.085	356.18
780.267	427.85
780.449	372.56
780.631	395.09
780.812	364.37
780.994	354.13
781.176	280.4
781.358	397.14
781.54	356.18
781.721	397.14
781.903	290.64
782.085	372.56
782.267	405.33
782.448	315.22
782.63	335.7
782.812	397.14
782.993	292.69
783.175	347.98
783.357	341.84
783.538	364.37
783.72	345.94
783.901	331.6
784.083	300.88
784.264	356.18
784.446	319.31
784.627	339.79
784.809	288.59
784.99	317.26
785.172	327.5
785.353	274.26
785.535	272.21
785.716	423.76
785.897	329.55
786.079	311.12
786.26	268.11
786.441	282.45
786.623	251.73
786.804	266.07
786.985	323.41
787.167	298.83
787.348	270.16
787.529	268.11
787.71	245.59
787.891	286.54
788.073	309.07
788.254	300.88
788.435	284.5
788.616	341.84
788.797	225.11
788.978	243.54
789.159	229.2
789.34	350.03
789.522	327.5
789.703	276.31
789.884	264.02
790.065	266.07
790.246	272.21
790.427	272.21
790.607	341.84
790.788	210.77
790.969	268.11
791.15	311.12
791.331	294.74
791.512	257.87
791.693	204.63
791.874	255.83
792.054	245.59
792.235	210.77
792.416	161.62
792.597	202.58
792.778	212.82
792.958	276.31
793.139	194.39
793.32	290.64
793.5	188.24
793.681	212.82
793.862	227.15
794.042	161.62
794.223	243.54
794.404	239.44
794.584	210.77
794.765	159.57
794.945	210.77
795.126	135
795.306	225.11
795.487	149.33
795.667	169.81
795.848	247.63
796.028	180.05
796.209	204.63
796.389	257.87
796.57	229.2
796.75	128.85
796.93	247.63
797.111	204.63
797.291	137.04
797.471	241.49
797.652	182.1
797.832	192.34
798.012	178
798.192	114.52
798.373	139.09
798.553	212.82
798.733	118.61
798.913	141.14
799.093	200.53
799.274	145.24
799.454	184.15
799.634	214.87
799.814	171.86
799.994	229.2
800.174	182.1
800.354	157.52
800.534	137.04
800.714	126.8
800.894	128.85
801.074	153.43
801.254	98.13
801.434	186.19
801.614	116.56
801.794	188.24
801.974	397.14
802.154	231.25
802.334	108.37
802.514	132.95
802.693	124.76
802.873	77.65
803.053	200.53
803.233	155.47
803.413	141.14
803.592	206.67
803.772	96.08
803.952	98.13
804.131	200.53
804.311	188.24
804.491	118.61
804.67	137.04
804.85	210.77
805.03	155.47
805.209	167.76
805.389	173.91
805.568	163.67
805.748	57.17
805.928	151.38
806.107	89.94
806.287	182.1
806.466	126.8
806.646	175.95
806.825	153.43
807.004	216.91
807.184	155.47
807.363	128.85
807.543	91.99
807.722	108.37
807.901	175.95
808.081	122.71
808.26	122.71
808.439	106.32
808.619	102.23
808.798	94.04
808.977	175.95
809.156	112.47
809.336	141.14
809.515	126.8
809.694	194.39
809.873	202.58
810.052	114.52
810.231	145.24
810.411	167.76
810.59	147.28
810.769	116.56
810.948	171.86
811.127	104.28
811.306	106.32
811.485	143.19
811.664	110.42
811.843	161.62
812.022	161.62
812.201	110.42
812.38	143.19
812.559	98.13
812.737	44.88
812.916	83.8
813.095	149.33
813.274	71.51
813.453	61.27
813.632	151.38
813.811	114.52
813.989	132.95
814.168	163.67
814.347	96.08
814.526	147.28
814.704	102.23
814.883	40.79
815.062	87.89
815.24	104.28
815.419	42.84
815.598	135
815.776	32.6
815.955	71.51
816.133	155.47
816.312	153.43
816.49	87.89
816.669	145.24
816.847	132.95
817.026	110.42
817.204	10.07
817.383	79.7
817.561	71.51
817.74	145.24
817.918	61.27
818.097	108.37
818.275	118.61
818.453	135
818.632	63.32
818.81	55.12
818.988	36.69
819.167	178
819.345	63.32
819.523	89.94
819.701	128.85
819.879	61.27
820.058	48.98
820.236	44.88
820.414	46.93
820.592	94.04
820.77	114.52
820.948	5.97
821.127	61.27
821.305	91.99
821.483	108.37
821.661	75.6
821.839	79.7
822.017	36.69
822.195	96.08
822.373	79.7
822.551	151.38
822.729	122.71
822.907	108.37
823.085	85.84
823.262	65.36
823.44	44.88
823.618	145.24
823.796	91.99
823.974	48.98
824.152	171.86
824.329	102.23
824.507	96.08
824.685	51.03
824.863	87.89
825.04	89.94
825.218	34.64
825.396	32.6
825.574	139.09
825.751	77.65
825.929	118.61
826.107	96.08
826.284	77.65
826.462	85.84
826.639	40.79
826.817	81.75
826.994	114.52
827.172	20.31
827.349	96.08
827.527	36.69
827.704	155.47
827.882	116.56
828.059	137.04
828.237	98.13
828.414	130.9
828.591	132.95
828.769	110.42
828.946	71.51
829.124	-8.36
829.301	139.09
829.478	130.9
829.655	36.69
829.833	143.19
830.01	-18.6
830.187	79.7
830.364	69.46
830.542	98.13
830.719	151.38
830.896	130.9
831.073	51.03
831.25	44.88
831.427	112.47
831.604	77.65
831.782	12.12
831.959	85.84
832.136	61.27
832.313	20.31
832.49	79.7
832.667	75.6
832.844	42.84
833.021	130.9
833.198	100.18
833.374	30.55
833.551	89.94
833.728	20.31
833.905	89.94
834.082	73.56
834.259	83.8
834.436	122.71
834.612	104.28
834.789	42.84
834.966	22.36
835.143	20.31
835.319	14.17
835.496	65.36
835.673	100.18
835.85	38.74
836.026	53.08
836.203	112.47
836.38	40.79
836.556	1.88
836.733	28.5
836.909	143.19
837.086	51.03
837.262	-18.6
837.439	61.27
837.616	-4.27
837.792	102.23
837.968	69.46
838.145	44.88
838.321	28.5
838.498	42.84
838.674	44.88
838.851	81.75
839.027	12.12
839.203	14.17
839.38	30.55
839.556	53.08
839.732	46.93
839.909	44.88
840.085	53.08
840.261	67.41
840.437	91.99
840.614	28.5
840.79	65.36
840.966	102.23
841.142	40.79
841.318	-73.9
841.494	28.5
841.671	-2.22
841.847	77.65
842.023	143.19
842.199	51.03
842.375	26.45
842.551	48.98
842.727	24.4
842.903	87.89
843.079	-22.7
843.255	44.88
843.431	77.65
843.607	91.99
843.783	30.55
843.959	42.84
844.134	5.97
844.31	48.98
844.486	24.4
844.662	-4.27
844.838	73.56
845.013	94.04
845.189	22.36
845.365	36.69
845.541	120.66
845.716	51.03
845.892	61.27
846.068	-28.84
846.244	59.22
846.419	57.17
846.595	16.21
846.77	-18.6
846.946	42.84
847.122	110.42
847.297	38.74
847.473	12.12
847.648	24.4
847.824	48.98
847.999	30.55
848.175	28.5
848.35	94.04
848.526	61.27
848.701	73.56
848.876	30.55
849.052	12.12
849.227	61.27
849.403	69.46
849.578	59.22
849.753	-14.51
849.929	40.79
850.104	18.26
850.279	53.08
850.454	-30.89
850.63	28.5
850.805	-30.89
850.98	30.55
851.155	10.07
851.33	36.69
851.505	63.32
851.681	89.94
851.856	-24.75
852.031	3.93
852.206	42.84
852.381	28.5
852.556	69.46
852.731	71.51
852.906	75.6
853.081	12.12
853.256	51.03
853.431	48.98
853.606	57.17
853.781	94.04
853.956	-39.08
854.131	20.31
854.305	-4.27
854.48	75.6
854.655	-6.31
854.83	34.64
855.005	8.02
855.18	-69.8
855.354	18.26
855.529	55.12
855.704	55.12
855.879	3.93
856.053	-4.27
856.228	69.46
856.403	61.27
856.577	-10.41
856.752	10.07
856.926	44.88
857.101	40.79
857.276	22.36
857.45	30.55
857.625	42.84
857.799	83.8
857.974	36.69
858.148	61.27
858.323	24.4
858.497	57.17
858.672	77.65
858.846	-10.41
859.02	79.7
859.195	14.17
859.369	24.4
859.543	36.69
859.718	30.55
859.892	8.02
860.066	85.84
860.241	1.88
860.415	81.75
860.589	69.46
860.763	8.02
860.938	20.31
861.112	63.32
861.286	5.97
861.46	42.84
861.634	-24.75
861.808	69.46
861.982	3.93
862.157	-0.17
862.331	12.12
862.505	42.84
862.679	-0.17
862.853	-67.75
863.027	18.26
863.201	28.5
863.375	44.88
863.549	55.12
863.722	65.36
863.896	-12.46
864.07	42.84
864.244	-26.79
864.418	102.23
864.592	44.88
864.766	-2.22
864.939	75.6
865.113	-26.79
865.287	57.17
865.461	48.98
865.634	-2.22
865.808	79.7
865.982	38.74
866.156	-20.65
866.329	57.17
866.503	-20.65
866.676	38.74
866.85	87.89
867.024	28.5
867.197	69.46
867.371	26.45
867.544	87.89
867.718	48.98
867.891	28.5
868.065	40.79
868.238	-0.17
868.412	44.88
868.585	5.97
868.759	83.8
868.932	53.08
869.105	22.36
869.279	24.4
869.452	26.45
869.625	20.31
869.799	20.31
869.972	22.36
870.145	57.17
870.319	48.98
870.492	40.79
870.665	48.98
870.838	73.56
871.011	63.32
871.185	94.04
871.358	75.6
871.531	12.12
871.704	-4.27
871.877	30.55
872.05	34.64
872.223	53.08
872.396	-0.17
872.569	71.51
872.742	16.21
872.915	67.41
873.088	53.08
873.261	28.5
873.434	32.6
873.607	-22.7
873.78	30.55
873.953	28.5
874.126	-14.51
874.299	-18.6
874.471	-8.36
874.644	-0.17
874.817	-6.31
874.99	51.03
875.163	114.52
875.335	3.93
875.508	-71.85
875.681	69.46
875.853	48.98
876.026	1.88
876.199	65.36
876.371	3.93
876.544	12.12
876.717	26.45
876.889	8.02
877.062	14.17
877.234	-26.79
877.407	46.93
877.579	32.6
877.752	8.02
877.924	73.56
878.097	77.65
878.269	-6.31
878.442	44.88
878.614	81.75
878.786	77.65
878.959	36.69
879.131	-0.17
879.303	16.21
879.476	75.6
879.648	69.46
879.82	40.79
879.993	28.5
880.165	42.84
880.337	46.93
880.509	55.12
880.681	-16.55
880.854	-0.17
881.026	16.21
881.198	32.6
881.37	69.46
881.542	-4.27
881.714	-28.84
881.886	14.17
882.058	-2.22
882.23	-6.31
882.402	85.84
882.574	28.5
882.746	-41.13
882.918	16.21
883.09	5.97
883.262	77.65
883.434	32.6
883.606	69.46
883.778	-18.6
883.95	69.46
884.122	34.64
884.293	36.69
884.465	30.55
884.637	26.45
884.809	20.31
884.98	40.79
885.152	44.88
885.324	-26.79
885.496	36.69
885.667	40.79
885.839	3.93
886.011	22.36
886.182	75.6
886.354	108.37
886.525	-6.31
886.697	24.4
886.869	40.79
887.04	87.89
887.212	20.31
887.383	44.88
887.555	91.99
887.726	46.93
887.897	71.51
888.069	-0.17
888.24	-12.46
888.412	1.88
888.583	-18.6
888.754	57.17
888.926	22.36
889.097	-12.46
889.268	8.02
889.44	65.36
889.611	59.22
889.782	36.69
889.953	30.55
890.125	102.23
890.296	-2.22
890.467	40.79
890.638	94.04
890.809	38.74
890.98	-16.55
891.151	28.5
891.323	135
891.494	44.88
891.665	36.69
891.836	34.64
892.007	85.84
892.178	57.17
892.349	-30.89
892.52	-28.84
892.691	65.36
892.862	26.45
893.032	-24.75
893.203	26.45
893.374	10.07
893.545	46.93
893.716	30.55
893.887	8.02
894.057	-16.55
894.228	-6.31
894.399	-8.36
894.57	-18.6
894.74	22.36
894.911	118.61
895.082	-12.46
895.253	67.41
895.423	-43.18
895.594	30.55
895.764	24.4
895.935	20.31
896.106	42.84
896.276	10.07
896.447	3.93
896.617	53.08
896.788	75.6
896.958	20.31
897.129	-0.17
897.299	69.46
897.47	5.97
897.64	100.18
897.81	-77.99
897.981	42.84
898.151	30.55
898.322	79.7
898.492	26.45
898.662	46.93
898.832	-0.17
899.003	-2.22
899.173	28.5
899.343	36.69
899.513	-26.79
