Data from USB4F104151__76__12-59-41-681.txt Node

Date: Fri Mar 14 12:59:41 EDT 2025
User: louis
Spectrometer: USB4F10415
Trigger mode: 4
Integration Time (sec): 1.000000E-2
Scans to average: 1
Electric dark correction enabled: true
Nonlinearity correction enabled: false
Boxcar width: 0
XAxis mode: Wavelengths
Number of Pixels in Spectrum: 3648
>>>>>Begin Spectral Data<<<<<
178.204	-17.75
178.424	-17.75
178.644	-17.75
178.864	-77.14
179.084	-15.7
179.304	19.11
179.524	-46.42
179.744	-13.65
179.964	105.13
180.184	12.97
180.404	-9.56
180.624	-7.51
180.844	-89.43
181.064	8.87
181.283	49.83
181.503	-19.8
181.723	-9.56
181.943	62.12
182.163	0.68
182.383	-7.51
182.602	53.93
182.822	84.65
183.042	37.55
183.262	49.83
183.482	12.97
183.701	39.59
183.921	78.51
184.141	55.98
184.361	119.46
184.58	-48.47
184.8	-1.37
185.02	-15.7
185.239	70.31
185.459	19.11
185.679	53.93
185.898	25.26
186.118	39.59
186.338	90.79
186.557	94.89
186.777	49.83
186.997	55.98
187.216	-32.08
187.436	88.75
187.655	31.4
187.875	90.79
188.095	58.03
188.314	80.55
188.534	25.26
188.753	-50.52
188.973	76.46
189.192	86.7
189.412	45.74
189.631	33.45
189.851	76.46
190.07	80.55
190.29	17.07
190.509	47.79
190.729	15.02
190.948	90.79
191.168	162.47
191.387	86.7
191.607	35.5
191.826	15.02
192.045	-7.51
192.265	39.59
192.484	80.55
192.704	60.07
192.923	58.03
193.142	58.03
193.362	0.68
193.581	25.26
193.8	37.55
194.02	62.12
194.239	15.02
194.458	113.32
194.678	0.68
194.897	-30.04
195.116	62.12
195.335	0.68
195.555	123.56
195.774	43.69
195.993	70.31
196.212	35.5
196.432	-30.04
196.651	31.4
196.87	43.69
197.089	27.31
197.308	55.98
197.528	84.65
197.747	-21.85
197.966	15.02
198.185	-11.61
198.404	29.35
198.623	-13.65
198.842	23.21
199.062	6.83
199.281	58.03
199.5	-1.37
199.719	41.64
199.938	-19.8
200.157	39.59
200.376	39.59
200.595	-5.46
200.814	51.88
201.033	-15.7
201.252	43.69
201.471	72.36
201.69	119.46
201.909	37.55
202.128	31.4
202.347	53.93
202.566	-3.41
202.785	19.11
203.004	66.22
203.223	96.94
203.442	35.5
203.661	17.07
203.879	62.12
204.098	39.59
204.317	82.6
204.536	15.02
204.755	15.02
204.974	21.16
205.193	84.65
205.411	78.51
205.63	15.02
205.849	53.93
206.068	29.35
206.287	72.36
206.505	-34.13
206.724	60.07
206.943	82.6
207.162	58.03
207.381	94.89
207.599	64.17
207.818	103.08
208.037	35.5
208.255	60.07
208.474	49.83
208.693	62.12
208.911	12.97
209.13	47.79
209.349	49.83
209.567	101.03
209.786	66.22
210.005	25.26
210.223	86.7
210.442	80.55
210.661	-5.46
210.879	-34.13
211.098	76.46
211.316	12.97
211.535	21.16
211.753	35.5
211.972	23.21
212.191	139.94
212.409	33.45
212.628	-9.56
212.846	45.74
213.065	8.87
213.283	35.5
213.502	21.16
213.72	82.6
213.938	-17.75
214.157	74.41
214.375	2.73
214.594	12.97
214.812	-17.75
215.031	76.46
215.249	39.59
215.467	78.51
215.686	29.35
215.904	84.65
216.122	4.78
216.341	6.83
216.559	86.7
216.778	80.55
216.996	47.79
217.214	49.83
217.432	-23.89
217.651	23.21
217.869	66.22
218.087	88.75
218.306	51.88
218.524	66.22
218.742	49.83
218.96	12.97
219.179	8.87
219.397	90.79
219.615	47.79
219.833	49.83
220.051	19.11
220.27	86.7
220.488	25.26
220.706	43.69
220.924	25.26
221.142	123.56
221.36	49.83
221.578	70.31
221.796	37.55
222.015	-13.65
222.233	37.55
222.451	146.09
222.669	70.31
222.887	19.11
223.105	103.08
223.323	15.02
223.541	4.78
223.759	-5.46
223.977	47.79
224.195	76.46
224.413	80.55
224.631	101.03
224.849	-46.42
225.067	111.27
225.285	21.16
225.503	72.36
225.721	-52.56
225.939	27.31
226.157	37.55
226.375	74.41
226.592	4.78
226.81	-54.61
227.028	64.17
227.246	111.27
227.464	80.55
227.682	64.17
227.9	62.12
228.117	107.18
228.335	33.45
228.553	23.21
228.771	88.75
228.989	72.36
229.206	17.07
229.424	90.79
229.642	78.51
229.86	39.59
230.077	27.31
230.295	-71
230.513	29.35
230.731	53.93
230.948	8.87
231.166	25.26
231.384	23.21
231.601	103.08
231.819	92.84
232.037	74.41
232.254	-1.37
232.472	17.07
232.689	70.31
232.907	62.12
233.125	51.88
233.342	-1.37
233.56	21.16
233.777	19.11
233.995	31.4
234.213	-66.9
234.43	4.78
234.648	88.75
234.865	62.12
235.083	148.14
235.3	2.73
235.518	19.11
235.735	-7.51
235.953	62.12
236.17	51.88
236.388	41.64
236.605	19.11
236.822	62.12
237.04	111.27
237.257	60.07
237.475	62.12
237.692	31.4
237.909	39.59
238.127	82.6
238.344	51.88
238.562	78.51
238.779	53.93
238.996	49.83
239.214	82.6
239.431	23.21
239.648	27.31
239.865	107.18
240.083	70.31
240.3	137.9
240.517	17.07
240.735	94.89
240.952	35.5
241.169	127.66
241.386	31.4
241.603	109.22
241.821	27.31
242.038	92.84
242.255	107.18
242.472	4.78
242.689	119.46
242.907	78.51
243.124	53.93
243.341	47.79
243.558	45.74
243.775	37.55
243.992	-34.13
244.209	156.33
244.426	72.36
244.643	115.37
244.86	58.03
245.078	70.31
245.295	45.74
245.512	101.03
245.729	53.93
245.946	41.64
246.163	78.51
246.38	41.64
246.597	-48.47
246.814	25.26
247.031	39.59
247.248	41.64
247.464	41.64
247.681	33.45
247.898	74.41
248.115	76.46
248.332	15.02
248.549	27.31
248.766	49.83
248.983	80.55
249.2	49.83
249.417	-7.51
249.633	-27.99
249.85	51.88
250.067	51.88
250.284	-11.61
250.501	60.07
250.717	76.46
250.934	-7.51
251.151	29.35
251.368	25.26
251.585	72.36
251.801	6.83
252.018	72.36
252.235	70.31
252.451	31.4
252.668	15.02
252.885	62.12
253.102	19.11
253.318	86.7
253.535	58.03
253.752	45.74
253.968	62.12
254.185	64.17
254.401	10.92
254.618	55.98
254.835	43.69
255.051	37.55
255.268	33.45
255.484	80.55
255.701	86.7
255.917	96.94
256.134	2.73
256.351	53.93
256.567	68.27
256.784	62.12
257	58.03
257.217	10.92
257.433	70.31
257.65	6.83
257.866	64.17
258.082	78.51
258.299	19.11
258.515	8.87
258.732	-1.37
258.948	45.74
259.165	-5.46
259.381	31.4
259.597	-25.94
259.814	88.75
260.03	96.94
260.246	84.65
260.463	125.61
260.679	92.84
260.895	-7.51
261.112	80.55
261.328	74.41
261.544	88.75
261.761	90.79
261.977	2.73
262.193	19.11
262.409	70.31
262.626	64.17
262.842	129.7
263.058	60.07
263.274	62.12
263.49	33.45
263.707	25.26
263.923	-11.61
264.139	76.46
264.355	55.98
264.571	33.45
264.787	29.35
265.004	94.89
265.22	33.45
265.436	98.99
265.652	84.65
265.868	80.55
266.084	-7.51
266.3	2.73
266.516	15.02
266.732	107.18
266.948	82.6
267.164	64.17
267.38	31.4
267.596	33.45
267.812	19.11
268.028	-5.46
268.244	74.41
268.46	-27.99
268.676	-7.51
268.892	135.85
269.108	35.5
269.324	66.22
269.54	58.03
269.756	45.74
269.972	0.68
270.188	82.6
270.403	39.59
270.619	94.89
270.835	-3.41
271.051	-5.46
271.267	2.73
271.483	19.11
271.698	6.83
271.914	60.07
272.13	23.21
272.346	19.11
272.562	74.41
272.777	47.79
272.993	86.7
273.209	-17.75
273.425	-15.7
273.64	-1.37
273.856	31.4
274.072	35.5
274.287	55.98
274.503	8.87
274.719	86.7
274.934	45.74
275.15	27.31
275.366	15.02
275.581	41.64
275.797	60.07
276.012	21.16
276.228	25.26
276.444	86.7
276.659	96.94
276.875	68.27
277.09	53.93
277.306	21.16
277.521	53.93
277.737	72.36
277.952	-13.65
278.168	-30.04
278.383	78.51
278.599	29.35
278.814	49.83
279.03	23.21
279.245	70.31
279.461	96.94
279.676	98.99
279.892	12.97
280.107	72.36
280.322	-11.61
280.538	66.22
280.753	37.55
280.969	31.4
281.184	82.6
281.399	-11.61
281.615	8.87
281.83	27.31
282.045	78.51
282.26	-23.89
282.476	-15.7
282.691	115.37
282.906	47.79
283.122	74.41
283.337	2.73
283.552	21.16
283.767	-11.61
283.983	98.99
284.198	37.55
284.413	70.31
284.628	-7.51
284.843	70.31
285.058	64.17
285.274	51.88
285.489	-44.37
285.704	92.84
285.919	-23.89
286.134	23.21
286.349	29.35
286.564	80.55
286.779	51.88
286.995	70.31
287.21	39.59
287.425	17.07
287.64	72.36
287.855	70.31
288.07	12.97
288.285	94.89
288.5	72.36
288.715	27.31
288.93	31.4
289.145	70.31
289.36	119.46
289.575	-50.52
289.79	0.68
290.004	-9.56
290.219	68.27
290.434	64.17
290.649	29.35
290.864	86.7
291.079	12.97
291.294	37.55
291.509	62.12
291.724	41.64
291.938	33.45
292.153	58.03
292.368	21.16
292.583	12.97
292.798	88.75
293.012	10.92
293.227	90.79
293.442	70.31
293.657	-40.28
293.871	101.03
294.086	45.74
294.301	29.35
294.516	66.22
294.73	33.45
294.945	37.55
295.16	0.68
295.374	35.5
295.589	64.17
295.804	31.4
296.018	-30.04
296.233	4.78
296.447	2.73
296.662	37.55
296.877	58.03
297.091	39.59
297.306	74.41
297.52	-40.28
297.735	66.22
297.949	33.45
298.164	23.21
298.378	-17.75
298.593	25.26
298.807	37.55
299.022	17.07
299.236	15.02
299.451	101.03
299.665	-62.8
299.88	72.36
300.094	80.55
300.309	4.78
300.523	-21.85
300.737	43.69
300.952	94.89
301.166	-5.46
301.381	27.31
301.595	88.75
301.809	53.93
302.024	47.79
302.238	82.6
302.452	64.17
302.667	49.83
302.881	103.08
303.095	51.88
303.309	39.59
303.524	80.55
303.738	115.37
303.952	15.02
304.166	53.93
304.381	41.64
304.595	74.41
304.809	31.4
305.023	21.16
305.237	17.07
305.452	25.26
305.666	-5.46
305.88	152.23
306.094	35.5
306.308	105.13
306.522	17.07
306.736	15.02
306.95	74.41
307.164	-40.28
307.379	60.07
307.593	47.79
307.807	29.35
308.021	-5.46
308.235	6.83
308.449	8.87
308.663	17.07
308.877	88.75
309.091	92.84
309.305	47.79
309.519	27.31
309.733	12.97
309.947	21.16
310.161	94.89
310.374	27.31
310.588	29.35
310.802	45.74
311.016	-1.37
311.23	-7.51
311.444	37.55
311.658	127.66
311.872	62.12
312.085	53.93
312.299	29.35
312.513	70.31
312.727	-27.99
312.941	62.12
313.154	68.27
313.368	45.74
313.582	62.12
313.796	53.93
314.009	78.51
314.223	72.36
314.437	58.03
314.651	31.4
314.864	76.46
315.078	119.46
315.292	27.31
315.505	53.93
315.719	98.99
315.933	12.97
316.146	51.88
316.36	72.36
316.573	66.22
316.787	64.17
317.001	66.22
317.214	6.83
317.428	80.55
317.641	105.13
317.855	160.42
318.068	68.27
318.282	19.11
318.495	105.13
318.709	-9.56
318.922	86.7
319.136	49.83
319.349	41.64
319.563	70.31
319.776	66.22
319.99	55.98
320.203	-21.85
320.417	41.64
320.63	19.11
320.843	70.31
321.057	94.89
321.27	129.7
321.483	62.12
321.697	88.75
321.91	37.55
322.124	-36.18
322.337	62.12
322.55	68.27
322.763	88.75
322.977	19.11
323.19	35.5
323.403	90.79
323.617	29.35
323.83	66.22
324.043	31.4
324.256	12.97
324.469	12.97
324.683	12.97
324.896	45.74
325.109	78.51
325.322	35.5
325.535	43.69
325.748	15.02
325.962	84.65
326.175	66.22
326.388	111.27
326.601	82.6
326.814	58.03
327.027	29.35
327.24	72.36
327.453	25.26
327.666	72.36
327.879	70.31
328.092	64.17
328.305	15.02
328.518	27.31
328.731	88.75
328.944	31.4
329.157	-17.75
329.37	98.99
329.583	51.88
329.796	21.16
330.009	-13.65
330.222	84.65
330.435	113.32
330.648	25.26
330.861	80.55
331.073	43.69
331.286	45.74
331.499	31.4
331.712	127.66
331.925	27.31
332.138	45.74
332.35	80.55
332.563	45.74
332.776	41.64
332.989	35.5
333.202	27.31
333.414	80.55
333.627	8.87
333.84	-13.65
334.053	43.69
334.265	94.89
334.478	111.27
334.691	-15.7
334.903	19.11
335.116	0.68
335.329	98.99
335.541	64.17
335.754	27.31
335.966	49.83
336.179	15.02
336.392	94.89
336.604	15.02
336.817	23.21
337.029	141.99
337.242	43.69
337.454	88.75
337.667	58.03
337.88	51.88
338.092	70.31
338.305	41.64
338.517	55.98
338.729	119.46
338.942	107.18
339.154	43.69
339.367	39.59
339.579	84.65
339.792	94.89
340.004	103.08
340.217	94.89
340.429	8.87
340.641	-1.37
340.854	53.93
341.066	90.79
341.278	103.08
341.491	58.03
341.703	94.89
341.915	8.87
342.128	55.98
342.34	41.64
342.552	105.13
342.764	62.12
342.977	82.6
343.189	4.78
343.401	6.83
343.613	-11.61
343.826	74.41
344.038	19.11
344.25	6.83
344.462	31.4
344.674	94.89
344.886	27.31
345.099	25.26
345.311	68.27
345.523	-1.37
345.735	-34.13
345.947	84.65
346.159	-11.61
346.371	19.11
346.583	47.79
346.795	78.51
347.007	72.36
347.219	-3.41
347.431	146.09
347.643	45.74
347.855	6.83
348.067	33.45
348.279	21.16
348.491	66.22
348.703	6.83
348.915	41.64
349.127	-3.41
349.339	31.4
349.551	19.11
349.763	66.22
349.975	51.88
350.187	103.08
350.399	41.64
350.61	103.08
350.822	58.03
351.034	37.55
351.246	53.93
351.458	31.4
351.669	58.03
351.881	-1.37
352.093	31.4
352.305	88.75
352.517	94.89
352.728	17.07
352.94	51.88
353.152	146.09
353.363	33.45
353.575	72.36
353.787	31.4
353.999	-3.41
354.21	60.07
354.422	47.79
354.633	62.12
354.845	76.46
355.057	105.13
355.268	60.07
355.48	49.83
355.692	37.55
355.903	-23.89
356.115	-27.99
356.326	21.16
356.538	-15.7
356.749	6.83
356.961	80.55
357.172	37.55
357.384	62.12
357.595	111.27
357.807	29.35
358.018	23.21
358.23	70.31
358.441	64.17
358.653	103.08
358.864	82.6
359.075	17.07
359.287	23.21
359.498	15.02
359.709	72.36
359.921	31.4
360.132	17.07
360.344	80.55
360.555	58.03
360.766	70.31
360.977	70.31
361.189	39.59
361.4	86.7
361.611	27.31
361.823	58.03
362.034	82.6
362.245	55.98
362.456	88.75
362.667	96.94
362.879	15.02
363.09	74.41
363.301	133.8
363.512	41.64
363.723	6.83
363.935	23.21
364.146	115.37
364.357	101.03
364.568	90.79
364.779	103.08
364.99	64.17
365.201	-19.8
365.412	41.64
365.623	88.75
365.834	66.22
366.045	64.17
366.256	6.83
366.467	53.93
366.678	76.46
366.889	12.97
367.1	17.07
367.311	19.11
367.522	70.31
367.733	43.69
367.944	88.75
368.155	41.64
368.366	64.17
368.577	62.12
368.788	84.65
368.999	70.31
369.209	25.26
369.42	53.93
369.631	131.75
369.842	58.03
370.053	47.79
370.264	70.31
370.474	39.59
370.685	39.59
370.896	70.31
371.107	-23.89
371.317	41.64
371.528	58.03
371.739	45.74
371.95	37.55
372.16	119.46
372.371	35.5
372.582	115.37
372.792	4.78
373.003	103.08
373.214	-9.56
373.424	133.8
373.635	12.97
373.846	23.21
374.056	2.73
374.267	39.59
374.477	45.74
374.688	58.03
374.898	49.83
375.109	70.31
375.319	45.74
375.53	6.83
375.74	21.16
375.951	-30.04
376.161	51.88
376.372	101.03
376.582	47.79
376.793	41.64
377.003	-27.99
377.214	68.27
377.424	131.75
377.635	88.75
377.845	37.55
378.055	49.83
378.266	76.46
378.476	15.02
378.686	-15.7
378.897	4.78
379.107	51.88
379.317	62.12
379.528	49.83
379.738	58.03
379.948	-3.41
380.158	-36.18
380.369	45.74
380.579	82.6
380.789	39.59
380.999	21.16
381.21	8.87
381.42	82.6
381.63	90.79
381.84	117.42
382.05	39.59
382.261	88.75
382.471	21.16
382.681	111.27
382.891	82.6
383.101	86.7
383.311	47.79
383.521	31.4
383.731	86.7
383.941	58.03
384.151	4.78
384.361	-40.28
384.571	62.12
384.781	121.51
384.991	60.07
385.201	98.99
385.411	49.83
385.621	47.79
385.831	-7.51
386.041	74.41
386.251	33.45
386.461	84.65
386.671	35.5
386.881	62.12
387.091	27.31
387.301	70.31
387.511	53.93
387.72	94.89
387.93	-11.61
388.14	58.03
388.35	90.79
388.56	2.73
388.769	19.11
388.979	98.99
389.189	-34.13
389.399	74.41
389.609	25.26
389.818	101.03
390.028	113.32
390.238	96.94
390.447	17.07
390.657	47.79
390.867	33.45
391.076	51.88
391.286	17.07
391.496	86.7
391.705	47.79
391.915	103.08
392.125	137.9
392.334	98.99
392.544	101.03
392.753	66.22
392.963	49.83
393.172	90.79
393.382	19.11
393.591	72.36
393.801	27.31
394.01	62.12
394.22	127.66
394.429	55.98
394.639	64.17
394.848	47.79
395.058	80.55
395.267	127.66
395.477	125.61
395.686	51.88
395.895	49.83
396.105	72.36
396.314	-13.65
396.524	107.18
396.733	76.46
396.942	68.27
397.152	8.87
397.361	84.65
397.57	29.35
397.78	62.12
397.989	72.36
398.198	62.12
398.407	45.74
398.617	101.03
398.826	12.97
399.035	19.11
399.244	66.22
399.453	47.79
399.663	23.21
399.872	133.8
400.081	-3.41
400.29	10.92
400.499	10.92
400.708	72.36
400.917	90.79
401.127	74.41
401.336	53.93
401.545	41.64
401.754	76.46
401.963	70.31
402.172	58.03
402.381	64.17
402.59	76.46
402.799	76.46
403.008	64.17
403.217	123.56
403.426	33.45
403.635	15.02
403.844	66.22
404.053	43.69
404.262	43.69
404.471	160.42
404.68	66.22
404.888	29.35
405.097	31.4
405.306	88.75
405.515	45.74
405.724	64.17
405.933	107.18
406.142	80.55
406.35	133.8
406.559	101.03
406.768	86.7
406.977	127.66
407.185	154.28
407.394	156.33
407.603	121.51
407.812	129.7
408.02	170.66
408.229	86.7
408.438	150.18
408.646	78.51
408.855	76.46
409.064	78.51
409.272	121.51
409.481	72.36
409.69	115.37
409.898	113.32
410.107	103.08
410.315	121.51
410.524	158.38
410.733	176.81
410.941	146.09
411.15	148.14
411.358	84.65
411.567	144.04
411.775	139.94
411.984	174.76
412.192	162.47
412.401	189.1
412.609	164.52
412.818	217.77
413.026	219.82
413.234	234.15
413.443	205.48
413.651	193.19
413.86	252.58
414.068	213.67
414.276	236.2
414.485	250.53
414.693	252.58
414.901	258.73
415.11	197.29
415.318	283.3
415.526	244.39
415.734	221.86
415.943	309.93
416.151	326.31
416.359	260.77
416.567	244.39
416.776	289.45
416.984	371.36
417.192	309.93
417.4	369.32
417.608	322.21
417.817	373.41
418.025	410.28
418.233	326.31
418.441	383.65
418.649	332.45
418.857	484
419.065	400.04
419.273	410.28
419.481	463.52
419.689	410.28
419.897	498.34
420.105	541.35
420.313	469.67
420.521	459.43
420.729	504.48
420.937	529.06
421.145	649.89
421.353	610.98
421.561	567.97
421.769	662.18
421.977	653.98
422.185	643.74
422.393	621.22
422.601	762.53
422.809	717.47
423.017	594.59
423.224	752.29
423.432	768.67
423.64	711.33
423.848	787.1
424.056	821.92
424.263	815.77
424.471	811.68
424.679	942.75
424.887	866.97
425.094	1047.19
425.302	948.89
425.51	1045.15
425.718	1008.28
425.925	1006.24
426.133	1106.59
426.341	1110.68
426.548	1133.21
426.756	1110.68
426.964	1270.42
427.171	1266.33
427.379	1282.71
427.586	1329.81
427.794	1292.95
428.001	1454.74
428.209	1391.25
428.417	1471.12
428.624	1602.19
428.832	1555.09
429.039	1526.42
429.247	1559.19
429.454	1653.39
429.662	1772.18
429.869	1739.41
430.076	1856.14
430.284	1784.46
430.491	1792.66
430.699	1899.15
430.906	1938.06
431.114	1964.68
431.321	1970.83
431.528	2093.71
431.736	2136.71
431.943	2290.31
432.15	2208.39
432.358	2232.97
432.565	2370.18
432.772	2405
432.979	2335.37
433.187	2544.26
433.394	2474.63
433.601	2675.33
433.808	2667.14
434.016	2665.09
434.223	2779.78
434.43	3011.2
434.637	2734.72
434.844	3158.65
435.052	2937.47
435.259	3060.35
435.466	3185.27
435.673	3111.55
435.88	3156.6
436.087	3521.14
436.294	3510.9
436.501	3367.54
436.708	3316.34
436.915	3377.78
437.122	3621.49
437.329	3672.69
437.537	3871.34
437.743	3900.02
437.95	3824.24
438.157	4149.87
438.364	4129.39
438.571	4260.46
438.778	4250.22
438.985	4629.09
439.192	4436.58
439.399	4569.7
439.606	4508.26
439.813	4760.16
440.02	5110.36
440.227	4952.67
440.433	4854.37
440.64	5225.05
440.847	4885.09
441.054	5120.6
441.261	5378.65
441.467	5380.7
441.674	5474.9
441.881	5610.07
442.088	5603.93
442.294	5642.84
442.501	5780.05
442.708	5921.36
442.914	5935.7
443.121	6367.82
443.328	6117.97
443.534	6660.68
443.741	6494.79
443.948	6472.26
444.154	6783.56
444.361	6814.27
444.568	6853.19
444.774	6924.86
444.981	6990.4
445.187	7354.94
445.394	7475.77
445.6	7365.18
445.807	7889.46
446.013	7901.75
446.22	8049.2
446.426	8270.38
446.633	8333.87
446.839	8636.97
447.046	8223.28
447.252	8716.84
447.459	8800.8
447.665	8698.41
447.871	9108
448.078	9513.5
448.284	9194.01
448.491	9255.45
448.697	9845.27
448.903	9775.64
449.11	9869.84
449.316	9855.51
449.522	9863.7
449.728	10211.85
449.935	10344.97
450.141	10387.98
450.347	10484.23
450.553	10240.53
450.76	10156.56
450.966	10562.06
451.172	10525.19
451.378	10764.81
451.584	10654.22
451.791	10924.55
451.997	10883.59
452.203	11239.94
452.409	11045.38
452.615	11137.54
452.821	10580.49
453.027	10555.91
453.233	10895.88
453.44	10719.75
453.646	10940.93
453.852	10852.87
454.058	11153.92
454.264	10621.45
454.47	10897.92
454.676	10498.57
454.882	11121.15
455.088	10009.11
455.294	10111.5
455.5	10519.05
455.705	10527.24
455.911	10045.97
456.117	10023.44
456.323	9689.62
456.529	9136.67
456.735	9824.79
456.941	9574.94
457.147	9382.43
457.352	9021.98
457.558	9116.19
457.764	8704.55
457.97	8811.04
458.176	8516.14
458.381	8690.21
458.587	8000.05
458.793	8131.12
458.999	7854.64
459.204	8376.87
459.41	8161.84
459.616	7565.88
459.821	7572.02
460.027	7629.37
460.233	7514.68
460.438	7094.85
460.644	7248.44
460.85	7062.08
461.055	6746.69
461.261	6705.73
461.466	6234.7
461.672	5861.97
461.878	6369.87
462.083	6064.72
462.289	5857.87
462.494	6029.9
462.7	5429.85
462.905	5479
463.111	5591.64
463.316	5784.15
463.522	5565.01
463.727	5560.92
463.932	5651.03
464.138	5591.64
464.343	5532.25
464.549	5370.46
464.754	5540.44
464.959	5468.76
465.165	5413.46
465.37	5259.87
465.575	5042.78
465.781	5464.66
465.986	5163.61
466.191	5157.47
466.397	5108.32
466.602	4661.86
466.807	5067.36
467.012	4913.76
467.218	4962.91
467.423	4891.23
467.628	4831.84
467.833	5216.86
468.038	5206.62
468.244	4731.49
468.449	5022.3
468.654	4944.48
468.859	4852.32
469.064	4758.11
469.269	4538.98
469.474	4602.47
469.679	4608.61
469.885	4586.08
470.09	4604.52
470.295	4571.75
470.5	4448.87
470.705	4651.62
470.91	4483.69
471.115	4305.51
471.32	4518.5
471.525	4438.63
471.73	4444.77
471.935	4448.87
472.139	4186.73
472.344	4276.84
472.549	4291.18
472.754	4139.63
472.959	4043.37
473.164	3793.52
473.369	3955.31
473.574	4172.39
473.778	4072.04
473.983	4004.46
474.188	4000.37
474.393	3738.23
474.598	3785.33
474.802	3840.62
475.007	3705.46
475.212	3826.29
475.417	3674.74
475.621	3644.02
475.826	3621.49
476.031	3619.44
476.235	3510.9
476.44	3517.04
476.645	3519.09
476.849	3598.96
477.054	3457.65
477.259	3471.99
477.463	3375.74
477.668	3330.68
477.872	3369.59
478.077	3201.66
478.282	3308.15
478.486	3328.63
478.691	3183.23
478.895	3181.18
479.1	3246.71
479.304	3207.8
479.509	3011.2
479.713	3181.18
479.918	3056.25
480.122	3084.92
480.326	3007.1
480.531	3043.96
480.735	3105.4
480.94	2988.67
481.144	3150.46
481.348	3019.39
481.553	2986.62
481.757	3076.73
481.961	3037.82
482.166	2949.76
482.37	2982.53
482.574	2941.57
482.778	3027.58
482.983	3015.29
483.187	3039.87
483.391	3005.05
483.595	2951.81
483.8	2976.38
484.004	2996.86
484.208	2863.74
484.412	2935.42
484.616	3027.58
484.821	2980.48
485.025	3072.64
485.229	2908.8
485.433	3043.96
485.637	3019.39
485.841	3121.79
486.045	3052.16
486.249	3039.87
486.453	2984.57
486.657	3037.82
486.861	3111.55
487.065	3013.24
487.269	3013.24
487.473	2925.18
487.677	3058.3
487.881	3060.35
488.085	2996.86
488.289	3175.03
488.493	3050.11
488.697	3168.89
488.901	3168.89
489.105	3107.45
489.309	3050.11
489.512	3142.27
489.716	3043.96
489.92	3261.05
490.124	2947.71
490.328	3062.4
490.531	2986.62
490.735	3154.55
490.939	3084.92
491.143	2986.62
491.346	3158.65
491.55	3193.47
491.754	3236.47
491.958	3132.03
492.161	3222.14
492.365	3277.43
492.569	3232.38
492.772	3205.75
492.976	3199.61
493.18	3248.76
493.383	3445.37
493.587	3330.68
493.79	3422.84
493.994	3451.51
494.197	3377.78
494.401	3541.62
494.605	3388.02
494.808	3641.97
495.012	3500.66
495.215	3525.24
495.419	3474.04
495.622	3609.2
495.825	3553.91
496.029	3668.59
496.232	3766.9
496.436	3672.69
496.639	3781.23
496.843	3635.83
497.046	3906.16
497.249	3875.44
497.453	3902.06
497.656	3873.39
497.859	3832.43
498.063	3981.93
498.266	3998.32
498.469	4076.14
498.673	4098.67
498.876	4264.55
499.079	4272.75
499.282	4035.18
499.485	4313.7
499.689	4313.7
499.892	4518.5
500.095	4395.62
500.298	4610.66
500.501	4622.95
500.705	4625
500.908	4747.87
501.111	4760.16
501.314	4899.42
501.517	4780.64
501.72	5083.74
501.923	4768.35
502.126	5055.07
502.329	5251.67
502.532	5106.27
502.735	5278.3
502.938	5364.31
503.141	5362.26
503.344	5448.28
503.547	5476.95
503.75	5386.84
503.953	5747.28
504.156	5722.71
504.359	5821.01
504.562	5716.56
504.765	6070.86
504.968	6103.63
505.17	6126.16
505.373	6191.69
505.576	6181.45
505.779	6373.96
505.982	6365.77
506.185	6447.69
506.387	6550.09
506.59	6584.9
506.793	6791.75
506.996	6672.96
507.198	6963.78
507.401	7064.13
507.604	7092.8
507.807	7109.18
508.009	7242.3
508.212	7275.07
508.415	7406.14
508.617	7428.67
508.82	7447.1
509.022	7543.35
509.225	7752.24
509.428	7717.43
509.63	7752.24
509.833	7744.05
510.035	8192.56
510.238	8118.83
510.44	8356.4
510.643	8133.17
510.845	8454.7
511.048	8466.99
511.25	8473.13
511.453	8710.69
511.655	8903.2
511.858	9064.99
512.06	8958.5
512.262	9083.42
512.465	9103.9
512.667	9312.8
512.87	9607.7
513.072	9372.19
513.274	9474.59
513.477	9837.08
513.679	9779.73
513.881	9900.56
514.084	10072.59
514.286	10134.03
514.488	10009.11
514.69	10349.07
514.893	10326.54
515.095	10480.14
515.297	10580.49
515.499	10531.34
515.701	10660.36
515.904	11004.42
516.106	11008.51
516.308	10932.74
516.51	11153.92
516.712	11299.33
516.914	11368.96
517.116	11663.86
517.318	11948.53
517.52	11928.05
517.722	11966.96
517.925	11950.58
518.127	12282.35
518.329	12128.75
518.531	12231.15
518.733	12317.17
518.935	12601.83
519.136	12573.16
519.338	12782.06
519.54	12949.99
519.742	13144.55
519.944	13292
520.146	13289.95
520.348	13320.67
520.55	13625.82
520.752	13570.52
520.954	13681.11
521.155	13658.59
521.357	14033.36
521.559	14031.32
521.761	14512.59
521.963	14506.45
522.164	14358.99
522.366	14508.49
522.568	14563.79
522.77	14461.39
522.971	14856.65
523.173	14883.27
523.375	14946.76
523.576	15098.31
523.778	15139.27
523.98	15335.87
524.181	15284.67
524.383	15608.25
524.584	15679.93
524.786	15710.65
524.988	15647.16
525.189	15753.66
525.391	16044.47
525.592	16023.99
525.794	16081.33
525.995	16300.47
526.197	16126.39
526.398	16198.07
526.6	16325.04
526.801	16583.09
527.003	16652.72
527.204	16757.16
527.406	16566.7
527.607	16556.46
527.808	16925.1
528.01	16693.68
528.211	16982.44
528.412	17113.51
528.614	16824.75
528.815	17115.56
529.016	17111.46
529.218	16830.89
529.419	17156.52
529.62	17400.23
529.822	17088.93
530.023	17226.15
530.224	17322.4
530.425	17353.12
530.626	17293.73
530.828	17310.11
531.029	17645.98
531.23	17297.83
531.431	17441.18
531.632	17422.75
531.833	17582.49
532.035	17688.99
532.236	17609.12
532.437	17570.21
532.638	17389.99
532.839	17621.41
533.04	17777.05
533.241	17627.55
533.442	17836.44
533.643	17629.6
533.844	17854.87
534.045	17791.39
534.246	17643.93
534.447	17738.14
534.648	17858.97
534.849	18006.42
535.05	17705.37
535.251	17940.89
535.451	17629.6
535.652	17813.91
535.853	17992.09
536.054	17787.29
536.255	18020.76
536.456	17885.59
536.657	18436.5
536.857	17815.96
537.058	17899.93
537.259	18203.03
537.46	18102.68
537.66	17975.7
537.861	18071.96
538.062	17869.21
538.263	17854.87
538.463	17781.15
538.664	17770.91
538.865	17998.23
539.065	18258.32
539.266	17699.23
539.466	18080.15
539.667	17742.24
539.868	18012.57
540.068	17844.63
540.269	17836.44
540.469	17838.49
540.67	18119.06
540.87	17746.33
541.071	17746.33
541.271	18057.62
541.472	17897.88
541.672	17699.23
541.873	17709.47
542.073	17691.04
542.274	17889.69
542.474	18131.35
542.675	17555.87
542.875	18133.4
543.075	17801.63
543.276	17815.96
543.476	17973.66
543.676	17918.36
543.877	17881.5
544.077	17818.01
544.277	17760.67
544.478	17865.11
544.678	17744.28
544.878	18057.62
545.078	17736.09
545.279	17713.56
545.479	17904.03
545.679	18010.52
545.879	17645.98
546.079	17861.02
546.28	17791.39
546.48	17549.73
546.68	17910.17
546.88	17693.08
547.08	17838.49
547.28	17754.52
547.48	17539.49
547.68	18086.29
547.88	17691.04
548.081	18174.36
548.281	17719.71
548.481	17834.39
548.681	18088.34
548.881	17664.41
549.081	17955.22
549.28	17846.68
549.48	17699.23
549.68	17699.23
549.88	17977.75
550.08	17633.69
550.28	17809.82
550.48	17717.66
550.68	17990.04
550.88	17854.87
551.08	17697.18
551.279	17756.57
551.479	17598.88
551.679	17912.22
551.879	17494.43
552.079	17813.91
552.278	17826.2
552.478	17678.75
552.678	17744.28
552.878	17824.15
553.077	17801.63
553.277	17547.68
553.477	17707.42
553.676	17490.34
553.876	17707.42
554.076	17648.03
554.275	17322.4
554.475	17406.37
554.674	17619.36
554.874	17727.9
555.074	17387.94
555.273	17740.19
555.473	17543.58
555.672	17414.56
555.872	17260.96
556.071	17650.08
556.271	17564.06
556.47	17445.28
556.67	17277.35
556.869	17510.82
557.068	17478.05
557.268	17467.81
557.467	17490.34
557.667	17326.5
557.866	17373.6
558.065	17246.63
558.265	17232.29
558.464	17281.44
558.663	17099.17
558.863	17068.45
559.062	17224.1
559.261	17093.03
559.461	17277.35
559.66	17041.83
559.859	17056.17
560.058	16945.58
560.258	17060.26
560.457	16935.34
560.656	17312.16
560.855	17017.26
561.054	17029.54
561.253	16902.57
561.453	17017.26
561.652	17177
561.851	17158.56
562.05	16976.3
562.249	16712.11
562.448	16951.72
562.647	16992.68
562.846	16691.63
563.045	16818.6
563.244	16560.56
563.443	16961.96
563.642	16613.81
563.841	16495.02
564.04	16605.61
564.239	16726.44
564.438	16683.44
564.637	16458.16
564.836	16427.44
565.035	16243.12
565.234	16533.93
565.432	16456.11
565.631	16351.67
565.83	16308.66
566.029	16390.58
566.228	16347.57
566.427	16232.88
566.625	16363.95
566.824	16075.19
567.023	16415.15
567.222	15866.3
567.42	16366
567.619	16232.88
567.818	16042.42
568.016	16038.33
568.215	16040.37
568.414	15952.31
568.612	15798.71
568.811	15767.99
569.01	16142.77
569.208	15518.14
569.407	15966.65
569.605	15710.65
569.804	15935.93
570.002	15659.45
570.201	15561.15
570.4	15858.1
570.598	15530.43
570.797	15387.07
570.995	15593.92
571.193	15372.74
571.392	15413.7
571.59	15139.27
571.789	15358.4
571.987	15477.18
572.186	15382.98
572.384	15169.99
572.582	15251.91
572.781	15309.25
572.979	14789.06
573.177	15112.64
573.376	15143.36
573.574	15153.6
573.772	15081.92
573.971	14846.41
574.169	14959.05
574.367	14569.93
574.565	14922.18
574.763	14840.26
574.962	14442.96
575.16	14410.19
575.358	14854.6
575.556	14422.48
575.754	14746.06
575.952	14627.28
576.151	14537.16
576.349	14422.48
576.547	14479.82
576.745	14381.52
576.943	14342.61
577.141	14279.12
577.339	14463.44
577.537	14217.68
577.735	14217.68
577.933	14234.07
578.131	14203.35
578.329	14055.89
578.527	13986.26
578.725	14021.08
578.923	14150.1
579.121	13824.47
579.319	14039.51
579.516	14016.98
579.714	13992.41
579.912	13525.47
580.11	13634.01
580.308	13697.5
580.506	13689.31
580.704	13650.39
580.901	13801.94
581.099	13599.2
581.297	13210.08
581.495	13433.31
581.692	13541.85
581.89	13214.18
582.088	13445.6
582.285	13269.47
582.483	13402.59
582.681	13318.62
582.878	13367.77
583.076	13365.73
583.274	13072.87
583.471	13171.17
583.669	13185.51
583.866	12999.14
584.064	13320.67
584.262	12882.41
584.459	13124.07
584.657	12804.58
584.854	13076.96
585.052	12743.14
585.249	12859.88
585.447	13040.1
585.644	12620.27
585.841	12730.86
586.039	12911.08
586.236	12456.43
586.434	12548.59
586.631	12603.88
586.828	12501.48
587.026	12487.15
587.223	12562.92
587.42	12640.75
587.618	12419.57
587.815	12272.11
588.012	12405.23
588.21	12370.41
588.407	12112.37
588.604	12276.21
588.801	12046.83
588.999	12218.86
589.196	12005.88
589.393	12263.92
589.59	12227.06
589.787	11827.7
589.984	11844.09
590.182	11737.59
590.379	12020.21
590.576	11971.06
590.773	11786.74
590.97	11702.78
591.167	11776.5
591.364	11645.43
591.561	11870.71
591.758	11680.25
591.955	11751.93
592.152	11829.75
592.349	11567.61
592.546	11473.4
592.743	11729.4
592.94	11350.53
593.137	11401.72
593.334	11461.12
593.531	11366.91
593.727	11416.06
593.924	11416.06
594.121	11323.9
594.318	11457.02
594.515	11252.22
594.712	11117.06
594.908	11072
595.105	11026.95
595.302	11184.64
595.499	11053.57
595.696	10914.31
595.892	10889.73
596.089	11072
596.286	10992.13
596.482	10916.36
596.679	10873.35
596.876	10951.17
597.072	10869.25
597.269	10709.51
597.466	10875.4
597.662	10768.9
597.859	10668.55
598.055	10633.74
598.252	10492.43
598.448	10463.75
598.645	10447.37
598.841	10402.32
599.038	10457.61
599.234	10658.31
599.431	10627.59
599.627	10424.84
599.824	10594.82
600.02	10258.96
600.217	10318.35
600.413	10361.36
600.609	10328.59
600.806	10316.3
601.002	10244.62
601.198	10191.38
601.395	10080.78
601.591	10246.67
601.787	9988.63
601.984	9847.32
602.18	9994.77
602.376	10037.78
602.572	9605.66
602.769	9878.04
602.965	9712.15
603.161	9830.93
603.357	9798.17
603.553	9802.26
603.75	9734.68
603.946	9564.7
604.142	9820.69
604.338	9525.79
604.534	9812.5
604.73	9558.55
604.926	9667.1
605.122	9689.62
605.318	9337.37
605.514	9288.22
605.71	9382.43
605.906	9435.67
606.102	9429.53
606.298	9460.25
606.494	9447.96
606.69	9380.38
606.886	9366.04
607.082	9409.05
607.278	9323.04
607.474	9310.75
607.67	9349.66
607.866	9222.69
608.062	9255.45
608.257	9339.42
608.453	8899.11
608.649	9140.77
608.845	9167.39
609.041	8958.5
609.236	9101.86
609.432	9005.6
609.628	9234.97
609.824	9009.7
610.019	8948.26
610.215	8878.63
610.411	8862.24
610.606	8841.76
610.802	8901.15
610.998	8768.04
611.193	8788.52
611.389	8641.06
611.584	8800.8
611.78	8714.79
611.976	8884.77
612.171	8827.43
612.367	8843.81
612.562	8628.77
612.758	8647.21
612.953	8553
613.149	8829.48
613.344	8460.84
613.539	8573.48
613.735	8704.55
613.93	8516.14
614.126	8499.75
614.321	8596.01
614.517	8495.66
614.712	8438.31
614.907	8518.18
615.103	8553
615.298	8378.92
615.493	8407.59
615.688	8278.57
615.884	8409.64
616.079	8196.65
616.274	8208.94
616.47	8131.12
616.665	8391.21
616.86	8387.11
617.055	8278.57
617.25	8243.76
617.445	8233.52
617.641	8167.98
617.836	8182.32
618.031	8051.25
618.226	8096.3
618.421	8059.44
618.616	8122.93
618.811	8030.77
619.006	8028.72
619.201	7889.46
619.396	8022.58
619.591	7801.4
619.786	7942.71
619.981	7639.61
620.176	7893.55
620.371	7785.01
620.566	7750.2
620.761	7651.89
620.956	7758.39
621.151	7524.92
621.346	7549.5
621.541	7447.1
621.735	7701.05
621.93	7420.47
622.125	7445.05
622.32	7184.96
622.515	7391.8
622.709	7146.05
622.904	7195.2
623.099	7383.61
623.294	7287.36
623.488	7254.59
623.683	7164.48
623.878	7084.61
624.072	7125.57
624.267	7207.48
624.462	7057.98
624.656	7105.09
624.851	6885.95
625.046	6750.79
625.24	6863.43
625.435	6740.55
625.629	6877.76
625.824	6851.14
626.018	6748.74
626.213	6611.53
626.407	6804.03
626.602	6527.56
626.796	6711.88
626.991	6591.05
627.185	6453.83
627.38	6470.22
627.574	6556.23
627.768	6378.06
627.963	6357.58
628.157	6314.57
628.352	6453.83
628.546	6158.92
628.74	6287.95
628.935	6222.41
629.129	6236.75
629.323	6023.76
629.517	6265.42
629.712	6148.68
629.906	6066.77
630.1	5974.61
630.294	6154.83
630.489	5995.09
630.683	5974.61
630.877	5982.8
631.071	5927.5
631.265	5958.22
631.459	5771.86
631.653	5790.29
631.848	5749.33
632.042	5804.63
632.236	5554.77
632.43	5648.98
632.624	5575.25
632.818	5708.37
633.012	5550.68
633.206	5702.23
633.4	5657.17
633.594	5522.01
633.788	5442.14
633.982	5476.95
634.176	5591.64
634.369	5382.74
634.563	5491.29
634.757	5282.39
634.951	5474.9
635.145	5411.42
635.339	5227.1
635.533	5263.96
635.726	5182.04
635.92	5151.32
636.114	5317.21
636.308	5210.72
636.501	5044.83
636.695	5030.49
636.889	4934.24
637.083	5231.19
637.276	4926.05
637.47	4999.77
637.664	5007.97
637.857	5020.25
638.051	4868.7
638.244	4788.83
638.438	4901.47
638.632	4760.16
638.825	4790.88
639.019	4627.04
639.212	4686.44
639.406	4692.58
639.599	4690.53
639.793	4584.04
639.986	4686.44
640.18	4620.9
640.373	4526.69
640.567	4506.21
640.76	4403.82
640.954	4498.02
641.147	4307.56
641.34	4424.3
641.534	4465.25
641.727	4342.38
641.92	4414.06
642.114	4381.29
642.307	4285.03
642.5	4274.79
642.694	4256.36
642.887	4369
643.08	4373.1
643.273	4201.07
643.467	4051.56
643.66	4106.86
643.853	4149.87
644.046	3920.49
644.239	4096.62
644.432	4022.89
644.626	4121.2
644.819	3986.03
645.012	3983.98
645.205	3959.41
645.398	3983.98
645.591	3897.97
645.784	3877.49
645.977	3879.54
646.17	3740.27
646.363	3734.13
646.556	3744.37
646.749	3750.51
646.942	3668.59
647.135	3830.38
647.328	3676.79
647.521	3709.55
647.714	3678.83
647.907	3629.68
648.099	3551.86
648.292	3611.25
648.485	3564.15
648.678	3437.17
648.871	3476.09
649.064	3515
649.256	3398.26
649.449	3322.49
649.642	3302.01
649.835	3371.64
650.027	3361.4
650.22	3510.9
650.413	3197.56
650.605	3431.03
650.798	3310.2
650.991	3142.27
651.183	3322.49
651.376	3232.38
651.568	3271.29
651.761	3355.26
651.954	3199.61
652.146	3134.07
652.339	3195.51
652.531	3086.97
652.724	3195.51
652.916	3113.6
653.109	3172.99
653.301	3076.73
653.494	3136.12
653.686	2960
653.879	3111.55
654.071	3033.72
654.263	2947.71
654.456	2964.09
654.648	3037.82
654.84	2878.08
655.033	2845.31
655.225	2896.51
655.417	2804.35
655.61	2929.28
655.802	2906.75
655.994	2929.28
656.186	2919.04
656.379	2865.79
656.571	2839.17
656.763	2763.39
656.955	2761.34
657.148	2734.72
657.34	2790.02
657.532	2693.76
657.724	2650.75
657.916	2663.04
658.108	2704
658.3	2632.32
658.492	2646.66
658.684	2654.85
658.876	2650.75
659.068	2642.56
659.26	2644.61
659.452	2585.22
659.644	2681.47
659.836	2572.93
660.028	2593.41
660.22	2456.2
660.412	2513.54
660.604	2515.59
660.796	2445.96
660.988	2570.88
661.18	2517.64
661.372	2472.58
661.563	2544.26
661.755	2386.57
661.947	2415.24
662.139	2419.33
662.331	2323.08
662.522	2247.3
662.714	2415.24
662.906	2331.27
663.097	2316.94
663.289	2241.16
663.481	2257.54
663.673	2288.26
663.864	2222.73
664.056	2302.6
664.247	2116.23
664.439	2146.95
664.631	2265.74
664.822	2194.06
665.014	2151.05
665.205	2085.51
665.397	2157.19
665.588	2253.45
665.78	2204.3
665.971	2294.41
666.163	2181.77
666.354	2175.63
666.546	2077.32
666.737	2087.56
666.929	2028.17
667.12	2079.37
667.311	2050.7
667.503	2124.43
667.694	2060.94
667.885	1983.12
668.077	2013.84
668.268	2146.95
668.459	2013.84
668.651	2062.99
668.842	1909.39
669.033	1956.49
669.224	1970.83
669.416	1923.73
669.607	1966.73
669.798	1948.3
669.989	1872.53
670.18	1864.33
670.371	1868.43
670.563	1915.53
670.754	1860.24
670.945	1890.96
671.136	1864.33
671.327	1757.84
671.518	1886.86
671.709	1915.53
671.9	1817.23
672.091	1800.85
672.282	1899.15
672.473	1786.51
672.664	1858.19
672.855	1794.7
673.046	1757.84
673.237	1786.51
673.428	1716.88
673.619	1790.61
673.809	1665.68
674	1751.7
674.191	1761.94
674.382	1727.12
674.573	1639.06
674.764	1796.75
674.954	1813.13
675.145	1716.88
675.336	1714.83
675.527	1694.35
675.717	1655.44
675.908	1677.97
676.099	1686.16
676.289	1784.46
676.48	1649.3
676.671	1659.54
676.861	1776.27
677.052	1700.5
677.243	1684.11
677.433	1628.82
677.624	1739.41
677.814	1639.06
678.005	1677.97
678.195	1571.47
678.386	1561.23
678.576	1630.87
678.767	1655.44
678.957	1534.61
679.148	1702.54
679.338	1530.52
679.529	1692.3
679.719	1581.71
679.909	1667.73
680.1	1737.36
680.29	1587.86
680.481	1632.91
680.671	1553.04
680.861	1581.71
681.052	1659.54
681.242	1669.78
681.432	1624.72
681.622	1610.39
681.813	1675.92
682.003	1643.15
682.193	1510.04
682.383	1579.67
682.573	1653.39
682.764	1663.63
682.954	1528.47
683.144	1602.19
683.334	1581.71
683.524	1598.1
683.714	1594
683.904	1561.23
684.094	1610.39
684.284	1643.15
684.474	1542.8
684.664	1559.19
684.854	1610.39
685.044	1616.53
685.234	1518.23
685.424	1524.37
685.614	1538.71
685.804	1579.67
685.994	1581.71
686.184	1620.63
686.374	1481.36
686.564	1548.95
686.753	1610.39
686.943	1499.8
687.133	1512.08
687.323	1575.57
687.513	1550.99
687.702	1481.36
687.892	1524.37
688.082	1673.87
688.272	1591.95
688.461	1493.65
688.651	1585.81
688.841	1501.84
689.03	1579.67
689.22	1489.56
689.41	1544.85
689.599	1493.65
689.789	1391.25
689.979	1553.04
690.168	1557.14
690.358	1540.76
690.547	1473.17
690.737	1411.73
690.926	1473.17
691.116	1393.3
691.305	1579.67
691.495	1557.14
691.684	1491.6
691.874	1583.76
692.063	1489.56
692.252	1489.56
692.442	1460.88
692.631	1440.4
692.82	1358.49
693.01	1469.08
693.199	1352.34
693.388	1536.66
693.578	1407.64
693.767	1518.23
693.956	1401.49
694.146	1405.59
694.335	1391.25
694.524	1436.31
694.713	1442.45
694.902	1378.97
695.092	1403.54
695.281	1438.36
695.47	1428.12
695.659	1372.82
695.848	1381.01
696.037	1467.03
696.226	1411.73
696.415	1462.93
696.604	1481.36
696.793	1430.16
696.982	1481.36
697.171	1462.93
697.36	1381.01
697.549	1391.25
697.738	1372.82
697.927	1407.64
698.116	1411.73
698.305	1372.82
698.494	1370.77
698.683	1327.77
698.872	1520.28
699.061	1391.25
699.25	1340.05
699.438	1407.64
699.627	1364.63
699.816	1372.82
700.005	1284.76
700.193	1262.23
700.382	1243.8
700.571	1389.21
700.76	1376.92
700.948	1378.97
701.137	1342.1
701.326	1342.1
701.514	1211.03
701.703	1356.44
701.892	1356.44
702.08	1405.59
702.269	1315.48
702.457	1311.38
702.646	1305.24
702.834	1395.35
703.023	1282.71
703.212	1325.72
703.4	1235.61
703.589	1385.11
703.777	1405.59
703.965	1254.04
704.154	1366.68
704.342	1331.86
704.531	1364.63
704.719	1295
704.907	1297.05
705.096	1208.98
705.284	1309.33
705.472	1358.49
705.661	1315.48
705.849	1276.57
706.037	1315.48
706.226	1274.52
706.414	1278.62
706.602	1258.14
706.79	1239.7
706.979	1303.19
707.167	1276.57
707.355	1254.04
707.543	1270.42
707.731	1301.14
707.919	1198.74
708.107	1260.18
708.296	1217.18
708.484	1237.66
708.672	1186.46
708.86	1325.72
709.048	1231.51
709.236	1157.78
709.424	1247.9
709.612	1135.26
709.8	1147.55
709.988	1278.62
710.176	1135.26
710.364	1208.98
710.551	1288.85
710.739	1258.14
710.927	1178.26
711.115	1219.22
711.303	1161.88
711.491	1180.31
711.679	1131.16
711.866	1200.79
712.054	1208.98
712.242	1178.26
712.43	1217.18
712.617	1161.88
712.805	1112.73
712.993	1202.84
713.181	1172.12
713.368	1151.64
713.556	1145.5
713.744	1198.74
713.931	1241.75
714.119	1190.55
714.306	1075.87
714.494	1088.15
714.682	1141.4
714.869	1186.46
715.057	1133.21
715.244	1100.44
715.432	1110.68
715.619	1161.88
715.807	1110.68
715.994	1112.73
716.182	1217.18
716.369	1094.3
716.556	1161.88
716.744	969.37
716.931	1098.39
717.119	1290.9
717.306	1215.13
717.493	1012.38
717.681	1049.24
717.868	1090.2
718.055	1000.09
718.242	1084.06
718.43	1137.31
718.617	1047.19
718.804	1096.35
718.991	1034.91
719.179	1125.02
719.366	1084.06
719.553	1020.57
719.74	1079.96
719.927	998.04
720.114	1030.81
720.301	1071.77
720.488	1014.43
720.676	991.9
720.863	1116.83
721.05	1073.82
721.237	1145.5
721.424	907.93
721.611	1047.19
721.798	987.8
721.985	1030.81
722.172	1020.57
722.358	1002.14
722.545	1012.38
722.732	1075.87
722.919	1041.05
723.106	977.56
723.293	1036.95
723.48	991.9
723.667	985.76
723.853	1006.24
724.04	965.28
724.227	1102.49
724.414	1016.48
724.6	973.47
724.787	1018.52
724.974	1006.24
725.161	1030.81
725.347	998.04
725.534	998.04
725.72	979.61
725.907	948.89
726.094	930.46
726.28	998.04
726.467	823.97
726.653	914.08
726.84	967.32
727.027	1002.14
727.213	893.6
727.4	930.46
727.586	973.47
727.773	1049.24
727.959	889.5
728.145	903.84
728.332	957.08
728.518	979.61
728.705	1071.77
728.891	981.66
729.077	948.89
729.264	928.41
729.45	963.23
729.636	895.64
729.823	862.88
730.009	981.66
730.195	909.98
730.382	856.73
730.568	922.27
730.754	916.12
730.94	864.93
731.126	950.94
731.313	897.69
731.499	905.88
731.685	963.23
731.871	930.46
732.057	832.16
732.243	893.6
732.429	965.28
732.615	979.61
732.801	866.97
732.987	897.69
733.173	952.99
733.359	883.36
733.545	811.68
733.731	891.55
733.917	899.74
734.103	899.74
734.289	912.03
734.475	866.97
734.661	895.64
734.847	811.68
735.033	963.23
735.219	907.93
735.404	875.17
735.59	938.65
735.776	928.41
735.962	901.79
736.148	889.5
736.333	924.32
736.519	848.54
736.705	821.92
736.89	899.74
737.076	891.55
737.262	856.73
737.447	877.21
737.633	807.58
737.819	907.93
738.004	844.45
738.19	858.78
738.375	817.82
738.561	912.03
738.747	866.97
738.932	830.11
739.118	979.61
739.303	799.39
739.489	793.25
739.674	877.21
739.859	803.49
740.045	815.77
740.23	826.01
740.416	850.59
740.601	815.77
740.786	768.67
740.972	838.3
741.157	916.12
741.342	746.14
741.528	850.59
741.713	877.21
741.898	783.01
742.084	850.59
742.269	793.25
742.454	766.62
742.639	834.21
742.824	795.29
743.01	866.97
743.195	766.62
743.38	774.81
743.565	752.29
743.75	748.19
743.935	778.91
744.12	744.1
744.305	793.25
744.49	725.66
744.675	780.96
744.86	676.51
745.045	778.91
745.23	758.43
745.415	692.9
745.6	742.05
745.785	885.41
745.97	815.77
746.155	723.62
746.34	823.97
746.525	780.96
746.71	715.42
746.895	762.53
747.079	682.66
747.264	733.86
747.449	752.29
747.634	692.9
747.819	748.19
748.003	750.24
748.188	604.83
748.373	651.94
748.557	682.66
748.742	715.42
748.927	692.9
749.111	717.47
749.296	684.7
749.481	656.03
749.665	662.18
749.85	631.46
750.034	592.55
750.219	594.59
750.404	680.61
750.588	580.26
750.773	670.37
750.957	639.65
751.141	672.42
751.326	598.69
751.51	623.27
751.695	686.75
751.879	574.11
752.064	617.12
752.248	676.51
752.432	670.37
752.617	647.84
752.801	617.12
752.985	500.39
753.17	627.36
753.354	639.65
753.538	619.17
753.722	555.68
753.907	590.5
754.091	561.83
754.275	590.5
754.459	592.55
754.643	545.44
754.828	563.87
755.012	610.98
755.196	500.39
755.38	570.02
755.564	565.92
755.748	531.11
755.932	586.4
756.116	551.59
756.3	551.59
756.484	643.74
756.668	545.44
756.852	500.39
757.036	512.67
757.22	459.43
757.404	531.11
757.588	518.82
757.772	461.48
757.956	541.35
758.14	527.01
758.323	533.15
758.507	457.38
758.691	533.15
758.875	500.39
759.059	520.87
759.242	453.28
759.426	488.1
759.61	471.72
759.794	465.57
759.977	492.2
760.161	549.54
760.345	498.34
760.528	451.24
760.712	443.04
760.895	502.43
761.079	375.46
761.263	496.29
761.446	430.76
761.63	484
761.813	529.06
761.997	410.28
762.18	340.65
762.364	426.66
762.547	443.04
762.731	420.52
762.914	445.09
763.098	344.74
763.281	453.28
763.464	451.24
763.648	459.43
763.831	432.8
764.015	430.76
764.198	430.76
764.381	359.08
764.564	350.89
764.748	451.24
764.931	379.56
765.114	410.28
765.297	410.28
765.481	412.32
765.664	385.7
765.847	406.18
766.03	463.52
766.213	432.8
766.397	385.7
766.58	363.17
766.763	428.71
766.946	424.61
767.129	377.51
767.312	391.84
767.495	379.56
767.678	432.8
767.861	334.5
768.044	332.45
768.227	420.52
768.41	406.18
768.593	393.89
768.776	438.95
768.959	410.28
769.142	383.65
769.324	420.52
769.507	443.04
769.69	371.36
769.873	363.17
770.056	441
770.239	332.45
770.421	430.76
770.604	385.7
770.787	324.26
770.97	348.84
771.152	383.65
771.335	357.03
771.518	295.59
771.7	334.5
771.883	406.18
772.066	299.69
772.248	375.46
772.431	387.75
772.613	328.36
772.796	309.93
772.978	271.01
773.161	359.08
773.343	316.07
773.526	334.5
773.708	336.55
773.891	367.27
774.073	418.47
774.256	303.78
774.438	381.6
774.621	303.78
774.803	311.97
774.985	320.17
775.168	369.32
775.35	385.7
775.532	258.73
775.715	346.79
775.897	357.03
776.079	316.07
776.261	426.66
776.444	283.3
776.626	246.44
776.808	309.93
776.99	307.88
777.173	393.89
777.355	271.01
777.537	336.55
777.719	340.65
777.901	289.45
778.083	232.1
778.265	297.64
778.447	299.69
778.629	285.35
778.811	277.16
778.993	297.64
779.175	260.77
779.357	266.92
779.539	309.93
779.721	293.54
779.903	228.01
780.085	295.59
780.267	217.77
780.449	232.1
780.631	271.01
780.812	211.62
780.994	254.63
781.176	236.2
781.358	211.62
781.54	234.15
781.721	217.77
781.903	187.05
782.085	295.59
782.267	252.58
782.448	219.82
782.63	275.11
782.812	244.39
782.993	258.73
783.175	223.91
783.357	223.91
783.538	221.86
783.72	195.24
783.901	283.3
784.083	234.15
784.264	205.48
784.446	266.92
784.627	232.1
784.809	279.21
784.99	219.82
785.172	236.2
785.353	203.43
785.535	215.72
785.716	228.01
785.897	232.1
786.079	209.58
786.26	250.53
786.441	185
786.623	182.95
786.804	215.72
786.985	178.86
787.167	195.24
787.348	215.72
787.529	215.72
787.71	238.25
787.891	271.01
788.073	193.19
788.254	139.94
788.435	168.62
788.616	154.28
788.797	137.9
788.978	168.62
789.159	168.62
789.34	166.57
789.522	187.05
789.703	187.05
789.884	141.99
790.065	170.66
790.246	158.38
790.427	182.95
790.607	189.1
790.788	203.43
790.969	176.81
791.15	158.38
791.331	137.9
791.512	160.42
791.693	64.17
791.874	215.72
792.054	248.49
792.235	133.8
792.416	135.85
792.597	119.46
792.778	158.38
792.958	107.18
793.139	170.66
793.32	152.23
793.5	195.24
793.681	156.33
793.862	176.81
794.042	164.52
794.223	148.14
794.404	152.23
794.584	55.98
794.765	172.71
794.945	117.42
795.126	193.19
795.306	125.61
795.487	115.37
795.667	178.86
795.848	154.28
796.028	43.69
796.209	170.66
796.389	127.66
796.57	158.38
796.75	135.85
796.93	168.62
797.111	225.96
797.291	209.58
797.471	166.57
797.652	166.57
797.832	170.66
798.012	195.24
798.192	160.42
798.373	125.61
798.553	139.94
798.733	129.7
798.913	168.62
799.093	139.94
799.274	158.38
799.454	201.38
799.634	125.61
799.814	111.27
799.994	121.51
800.174	78.51
800.354	78.51
800.534	70.31
800.714	176.81
800.894	107.18
801.074	105.13
801.254	131.75
801.434	174.76
801.614	160.42
801.794	96.94
801.974	432.8
802.154	129.7
802.334	160.42
802.514	137.9
802.693	123.56
802.873	45.74
803.053	158.38
803.233	139.94
803.413	133.8
803.592	121.51
803.772	74.41
803.952	84.65
804.131	84.65
804.311	101.03
804.491	119.46
804.67	111.27
804.85	135.85
805.03	152.23
805.209	137.9
805.389	178.86
805.568	105.13
805.748	144.04
805.928	119.46
806.107	119.46
806.287	129.7
806.466	111.27
806.646	84.65
806.825	135.85
807.004	144.04
807.184	90.79
807.363	119.46
807.543	193.19
807.722	33.45
807.901	113.32
808.081	123.56
808.26	88.75
808.439	94.89
808.619	33.45
808.798	105.13
808.977	90.79
809.156	58.03
809.336	127.66
809.515	49.83
809.694	174.76
809.873	111.27
810.052	129.7
810.231	131.75
810.411	191.14
810.59	90.79
810.769	96.94
810.948	25.26
811.127	39.59
811.306	111.27
811.485	90.79
811.664	66.22
811.843	80.55
812.022	29.35
812.201	113.32
812.38	86.7
812.559	78.51
812.737	160.42
812.916	137.9
813.095	2.73
813.274	55.98
813.453	146.09
813.632	119.46
813.811	191.14
813.989	25.26
814.168	94.89
814.347	113.32
814.526	113.32
814.704	141.99
814.883	80.55
815.062	62.12
815.24	55.98
815.419	68.27
815.598	55.98
815.776	127.66
815.955	107.18
816.133	70.31
816.312	74.41
816.49	21.16
816.669	98.99
816.847	113.32
817.026	125.61
817.204	47.79
817.383	33.45
817.561	92.84
817.74	45.74
817.918	86.7
818.097	-15.7
818.275	66.22
818.453	86.7
818.632	58.03
818.81	82.6
818.988	27.31
819.167	88.75
819.345	66.22
819.523	121.51
819.701	15.02
819.879	80.55
820.058	64.17
820.236	129.7
820.414	70.31
820.592	21.16
820.77	72.36
820.948	92.84
821.127	66.22
821.305	82.6
821.483	86.7
821.661	111.27
821.839	88.75
822.017	41.64
822.195	84.65
822.373	103.08
822.551	21.16
822.729	160.42
822.907	43.69
823.085	12.97
823.262	31.4
823.44	64.17
823.618	23.21
823.796	76.46
823.974	58.03
824.152	-1.37
824.329	8.87
824.507	62.12
824.685	103.08
824.863	41.64
825.04	109.22
825.218	154.28
825.396	12.97
825.574	15.02
825.751	103.08
825.929	78.51
826.107	15.02
826.284	39.59
826.462	17.07
826.639	31.4
826.817	94.89
826.994	12.97
827.172	72.36
827.349	88.75
827.527	76.46
827.704	66.22
827.882	12.97
828.059	78.51
828.237	29.35
828.414	98.99
828.591	127.66
828.769	78.51
828.946	115.37
829.124	45.74
829.301	39.59
829.478	101.03
829.655	29.35
829.833	94.89
830.01	49.83
830.187	121.51
830.364	55.98
830.542	49.83
830.719	84.65
830.896	98.99
831.073	72.36
831.25	150.18
831.427	80.55
831.604	72.36
831.782	45.74
831.959	115.37
832.136	111.27
832.313	27.31
832.49	94.89
832.667	86.7
832.844	-54.61
833.021	80.55
833.198	133.8
833.374	111.27
833.551	23.21
833.728	-3.41
833.905	41.64
834.082	70.31
834.259	-3.41
834.436	4.78
834.612	25.26
834.789	80.55
834.966	156.33
835.143	84.65
835.319	47.79
835.496	103.08
835.673	111.27
835.85	94.89
836.026	29.35
836.203	23.21
836.38	51.88
836.556	160.42
836.733	12.97
836.909	101.03
837.086	-3.41
837.262	94.89
837.439	88.75
837.616	27.31
837.792	72.36
837.968	39.59
838.145	139.94
838.321	72.36
838.498	33.45
838.674	80.55
838.851	72.36
839.027	125.61
839.203	82.6
839.38	74.41
839.556	39.59
839.732	70.31
839.909	23.21
840.085	27.31
840.261	76.46
840.437	12.97
840.614	39.59
840.79	96.94
840.966	109.22
841.142	55.98
841.318	55.98
841.494	-7.51
841.671	64.17
841.847	74.41
842.023	101.03
842.199	72.36
842.375	21.16
842.551	35.5
842.727	31.4
842.903	58.03
843.079	94.89
843.255	49.83
843.431	41.64
843.607	94.89
843.783	23.21
843.959	101.03
844.134	72.36
844.31	139.94
844.486	8.87
844.662	43.69
844.838	60.07
845.013	123.56
845.189	70.31
845.365	90.79
845.541	35.5
845.716	62.12
845.892	105.13
846.068	96.94
846.244	53.93
846.419	4.78
846.595	47.79
846.77	60.07
846.946	66.22
847.122	111.27
847.297	47.79
847.473	119.46
847.648	68.27
847.824	29.35
847.999	76.46
848.175	58.03
848.35	25.26
848.526	78.51
848.701	70.31
848.876	-48.47
849.052	86.7
849.227	64.17
849.403	12.97
849.578	49.83
849.753	17.07
849.929	101.03
850.104	144.04
850.279	78.51
850.454	64.17
850.63	117.42
850.805	31.4
850.98	80.55
851.155	31.4
851.33	88.75
851.505	62.12
851.681	86.7
851.856	94.89
852.031	66.22
852.206	12.97
852.381	37.55
852.556	41.64
852.731	17.07
852.906	25.26
853.081	86.7
853.256	37.55
853.431	53.93
853.606	-36.18
853.781	64.17
853.956	55.98
854.131	43.69
854.305	-3.41
854.48	-1.37
854.655	80.55
854.83	82.6
855.005	4.78
855.18	15.02
855.354	-11.61
855.529	35.5
855.704	4.78
855.879	119.46
856.053	113.32
856.228	31.4
856.403	-44.37
856.577	12.97
856.752	115.37
856.926	15.02
857.101	-58.71
857.276	31.4
857.45	45.74
857.625	70.31
857.799	94.89
857.974	47.79
858.148	29.35
858.323	-3.41
858.497	96.94
858.672	68.27
858.846	-11.61
859.02	88.75
859.195	84.65
859.369	47.79
859.543	-32.08
859.718	23.21
859.892	21.16
860.066	-1.37
860.241	12.97
860.415	23.21
860.589	45.74
860.763	-50.52
860.938	-23.89
861.112	41.64
861.286	6.83
861.46	53.93
861.634	47.79
861.808	129.7
861.982	31.4
862.157	107.18
862.331	72.36
862.505	45.74
862.679	8.87
862.853	29.35
863.027	-34.13
863.201	98.99
863.375	-75.09
863.549	96.94
863.722	70.31
863.896	23.21
864.07	33.45
864.244	53.93
864.418	35.5
864.592	141.99
864.766	-11.61
864.939	66.22
865.113	92.84
865.287	49.83
865.461	-32.08
865.634	64.17
865.808	45.74
865.982	53.93
866.156	-21.85
866.329	74.41
866.503	21.16
866.676	58.03
866.85	47.79
867.024	109.22
867.197	76.46
867.371	55.98
867.544	70.31
867.718	15.02
867.891	121.51
868.065	-32.08
868.238	33.45
868.412	29.35
868.585	10.92
868.759	-27.99
868.932	47.79
869.105	90.79
869.279	82.6
869.452	39.59
869.625	27.31
869.799	78.51
869.972	25.26
870.145	17.07
870.319	23.21
870.492	25.26
870.665	8.87
870.838	29.35
871.011	-52.56
871.185	64.17
871.358	47.79
871.531	19.11
871.704	15.02
871.877	53.93
872.05	6.83
872.223	-77.14
872.396	68.27
872.569	-27.99
872.742	41.64
872.915	39.59
873.088	70.31
873.261	119.46
873.434	-75.09
873.607	53.93
873.78	37.55
873.953	29.35
874.126	103.08
874.299	29.35
874.471	41.64
874.644	80.55
874.817	-3.41
874.99	74.41
875.163	15.02
875.335	-1.37
875.508	0.68
875.681	4.78
875.853	-7.51
876.026	33.45
876.199	82.6
876.371	74.41
876.544	115.37
876.717	84.65
876.889	39.59
877.062	154.28
877.234	4.78
877.407	-9.56
877.579	-7.51
877.752	103.08
877.924	45.74
878.097	94.89
878.269	6.83
878.442	86.7
878.614	43.69
878.786	72.36
878.959	125.61
879.131	25.26
879.303	23.21
879.476	72.36
879.648	10.92
879.82	37.55
879.993	27.31
880.165	6.83
880.337	68.27
880.509	37.55
880.681	25.26
880.854	49.83
881.026	60.07
881.198	90.79
881.37	49.83
881.542	109.22
881.714	23.21
881.886	45.74
882.058	33.45
882.23	4.78
882.402	47.79
882.574	-40.28
882.746	29.35
882.918	29.35
883.09	43.69
883.262	21.16
883.434	62.12
883.606	-25.94
883.778	31.4
883.95	98.99
884.122	-52.56
884.293	62.12
884.465	25.26
884.637	8.87
884.809	-23.89
884.98	60.07
885.152	88.75
885.324	33.45
885.496	37.55
885.667	21.16
885.839	-7.51
886.011	21.16
886.182	33.45
886.354	21.16
886.525	37.55
886.697	70.31
886.869	12.97
887.04	86.7
887.212	15.02
887.383	92.84
887.555	27.31
887.726	49.83
887.897	27.31
888.069	141.99
888.24	80.55
888.412	17.07
888.583	60.07
888.754	86.7
888.926	66.22
889.097	96.94
889.268	70.31
889.44	8.87
889.611	35.5
889.782	0.68
889.953	0.68
890.125	35.5
890.296	41.64
890.467	29.35
890.638	27.31
890.809	47.79
890.98	51.88
891.151	-9.56
891.323	-38.23
891.494	25.26
891.665	15.02
891.836	6.83
892.007	-19.8
892.178	31.4
892.349	21.16
892.52	17.07
892.691	23.21
892.862	58.03
893.032	47.79
893.203	62.12
893.374	25.26
893.545	96.94
893.716	80.55
893.887	90.79
894.057	-27.99
894.228	0.68
894.399	62.12
894.57	47.79
894.74	31.4
894.911	37.55
895.082	17.07
895.253	58.03
895.423	39.59
895.594	55.98
895.764	-36.18
895.935	41.64
896.106	21.16
896.276	107.18
896.447	2.73
896.617	45.74
896.788	29.35
896.958	39.59
897.129	58.03
897.299	98.99
897.47	37.55
897.64	64.17
897.81	72.36
897.981	47.79
898.151	29.35
898.322	72.36
898.492	15.02
898.662	105.13
898.832	29.35
899.003	27.31
899.173	88.75
899.343	35.5
899.513	2.73
