Data from USB4F104151__32__12-58-53-067.txt Node

Date: Fri Mar 14 12:58:53 EDT 2025
User: louis
Spectrometer: USB4F10415
Trigger mode: 4
Integration Time (sec): 1.000000E-2
Scans to average: 1
Electric dark correction enabled: true
Nonlinearity correction enabled: false
Boxcar width: 0
XAxis mode: Wavelengths
Number of Pixels in Spectrum: 3648
>>>>>Begin Spectral Data<<<<<
178.204	-55.81
178.424	-55.81
178.644	-55.81
178.864	-57.86
179.084	24.06
179.304	-74.24
179.524	7.68
179.744	5.63
179.964	28.16
180.184	-92.67
180.404	-12.8
180.624	3.58
180.844	34.3
181.064	-4.61
181.283	65.02
181.503	34.3
181.723	5.63
181.943	-8.7
182.163	46.59
182.383	-23.04
182.602	17.92
182.822	1.54
183.042	30.21
183.262	-10.75
183.482	-23.04
183.701	-8.7
183.921	-0.51
184.141	15.87
184.361	81.41
184.58	-61.95
184.8	-16.9
185.02	-2.56
185.239	11.78
185.459	-64
185.679	-16.9
185.898	-10.75
186.118	-49.66
186.338	32.26
186.557	3.58
186.777	5.63
186.997	48.64
187.216	-8.7
187.436	30.21
187.655	-12.8
187.875	30.21
188.095	5.63
188.314	85.5
188.534	-37.38
188.753	9.73
188.973	-49.66
189.192	-6.66
189.412	-2.56
189.631	32.26
189.851	-18.94
190.07	-25.09
190.29	-70.14
190.509	11.78
190.729	-35.33
190.948	24.06
191.168	48.64
191.387	24.06
191.607	13.82
191.826	69.12
192.045	58.88
192.265	50.69
192.484	40.45
192.704	32.26
192.923	-41.47
193.142	1.54
193.362	32.26
193.581	22.02
193.8	-4.61
194.02	-47.62
194.239	-23.04
194.458	22.02
194.678	-31.23
194.897	19.97
195.116	7.68
195.335	-14.85
195.555	-94.72
195.774	-12.8
195.993	-25.09
196.212	30.21
196.432	40.45
196.651	-25.09
196.87	93.69
197.089	1.54
197.308	7.68
197.528	-25.09
197.747	-61.95
197.966	-57.86
198.185	69.12
198.404	9.73
198.623	-29.18
198.842	-59.9
199.062	5.63
199.281	-49.66
199.5	17.92
199.719	-23.04
199.938	48.64
200.157	-14.85
200.376	36.35
200.595	-72.19
200.814	34.3
201.033	48.64
201.252	-16.9
201.471	-12.8
201.69	77.31
201.909	34.3
202.128	9.73
202.347	-0.51
202.566	24.06
202.785	17.92
203.004	13.82
203.223	34.3
203.442	19.97
203.661	-33.28
203.879	52.74
204.098	30.21
204.317	22.02
204.536	42.5
204.755	-43.52
204.974	13.82
205.193	28.16
205.411	3.58
205.63	89.6
205.849	-72.19
206.068	-29.18
206.287	19.97
206.505	7.68
206.724	1.54
206.943	19.97
207.162	5.63
207.381	-23.04
207.599	-0.51
207.818	19.97
208.037	-43.52
208.255	-55.81
208.474	42.5
208.693	11.78
208.911	24.06
209.13	83.45
209.349	32.26
209.567	15.87
209.786	60.93
210.005	-76.29
210.223	-59.9
210.442	-35.33
210.661	22.02
210.879	9.73
211.098	15.87
211.316	-55.81
211.535	52.74
211.753	-29.18
211.972	-4.61
212.191	-16.9
212.409	-16.9
212.628	-6.66
212.846	13.82
213.065	-4.61
213.283	17.92
213.502	40.45
213.72	22.02
213.938	32.26
214.157	44.54
214.375	-29.18
214.594	-10.75
214.812	-6.66
215.031	3.58
215.249	-4.61
215.467	89.6
215.686	-27.14
215.904	3.58
216.122	7.68
216.341	22.02
216.559	-29.18
216.778	7.68
216.996	-25.09
217.214	-6.66
217.432	-20.99
217.651	38.4
217.869	-16.9
218.087	32.26
218.306	-14.85
218.524	13.82
218.742	-41.47
218.96	-6.66
219.179	-43.52
219.397	-4.61
219.615	-31.23
219.833	-6.66
220.051	-53.76
220.27	19.97
220.488	89.6
220.706	9.73
220.924	-33.28
221.142	-6.66
221.36	24.06
221.578	-16.9
221.796	42.5
222.015	-14.85
222.233	9.73
222.451	-12.8
222.669	-0.51
222.887	15.87
223.105	-8.7
223.323	26.11
223.541	-64
223.759	9.73
223.977	-14.85
224.195	60.93
224.413	3.58
224.631	5.63
224.849	93.69
225.067	7.68
225.285	24.06
225.503	-12.8
225.721	22.02
225.939	7.68
226.157	9.73
226.375	17.92
226.592	-39.42
226.81	-23.04
227.028	-16.9
227.246	17.92
227.464	40.45
227.682	50.69
227.9	-23.04
228.117	32.26
228.335	3.58
228.553	52.74
228.771	5.63
228.989	46.59
229.206	56.83
229.424	-6.66
229.642	-0.51
229.86	-23.04
230.077	-16.9
230.295	7.68
230.513	67.07
230.731	-61.95
230.948	38.4
231.166	71.17
231.384	9.73
231.601	30.21
231.819	34.3
232.037	19.97
232.254	32.26
232.472	-29.18
232.689	1.54
232.907	28.16
233.125	-55.81
233.342	-20.99
233.56	50.69
233.777	36.35
233.995	-41.47
234.213	60.93
234.43	1.54
234.648	44.54
234.865	-2.56
235.083	-68.09
235.3	52.74
235.518	19.97
235.735	34.3
235.953	7.68
236.17	36.35
236.388	50.69
236.605	36.35
236.822	-20.99
237.04	56.83
237.257	34.3
237.475	-47.62
237.692	-2.56
237.909	34.3
238.127	-18.94
238.344	-35.33
238.562	22.02
238.779	83.45
238.996	-14.85
239.214	-27.14
239.431	13.82
239.648	3.58
239.865	11.78
240.083	54.78
240.3	-0.51
240.517	-64
240.735	-39.42
240.952	24.06
241.169	-47.62
241.386	9.73
241.603	52.74
241.821	71.17
242.038	-14.85
242.255	-29.18
242.472	24.06
242.689	58.88
242.907	73.21
243.124	-10.75
243.341	-55.81
243.558	5.63
243.775	62.98
243.992	36.35
244.209	17.92
244.426	73.21
244.643	9.73
244.86	-45.57
245.078	81.41
245.295	71.17
245.512	56.83
245.729	-25.09
245.946	-12.8
246.163	30.21
246.38	11.78
246.597	67.07
246.814	30.21
247.031	-27.14
247.248	19.97
247.464	1.54
247.681	32.26
247.898	-39.42
248.115	-31.23
248.332	-25.09
248.549	44.54
248.766	38.4
248.983	-0.51
249.2	7.68
249.417	9.73
249.633	32.26
249.85	-0.51
250.067	-33.28
250.284	26.11
250.501	67.07
250.717	42.5
250.934	-61.95
251.151	-29.18
251.368	28.16
251.585	-39.42
251.801	-6.66
252.018	-4.61
252.235	3.58
252.451	3.58
252.668	-23.04
252.885	13.82
253.102	-6.66
253.318	36.35
253.535	-29.18
253.752	19.97
253.968	-20.99
254.185	-6.66
254.401	-43.52
254.618	-55.81
254.835	30.21
255.051	32.26
255.268	11.78
255.484	17.92
255.701	26.11
255.917	26.11
256.134	-16.9
256.351	24.06
256.567	-4.61
256.784	-0.51
257	-16.9
257.217	95.74
257.433	1.54
257.65	17.92
257.866	-78.33
258.082	-16.9
258.299	-68.09
258.515	69.12
258.732	-29.18
258.948	-37.38
259.165	40.45
259.381	24.06
259.597	17.92
259.814	-31.23
260.03	-66.05
260.246	-2.56
260.463	-0.51
260.679	7.68
260.895	89.6
261.112	26.11
261.328	38.4
261.544	5.63
261.761	-0.51
261.977	50.69
262.193	-96.77
262.409	34.3
262.626	56.83
262.842	-20.99
263.058	-59.9
263.274	28.16
263.49	52.74
263.707	-27.14
263.923	-6.66
264.139	71.17
264.355	24.06
264.571	15.87
264.787	-18.94
265.004	62.98
265.22	5.63
265.436	32.26
265.652	26.11
265.868	26.11
266.084	-27.14
266.3	22.02
266.516	-39.42
266.732	-14.85
266.948	50.69
267.164	40.45
267.38	17.92
267.596	46.59
267.812	-27.14
268.028	-37.38
268.244	15.87
268.46	9.73
268.676	32.26
268.892	40.45
269.108	44.54
269.324	-14.85
269.54	3.58
269.756	26.11
269.972	36.35
270.188	50.69
270.403	15.87
270.619	-0.51
270.835	-12.8
271.051	40.45
271.267	38.4
271.483	15.87
271.698	-20.99
271.914	-37.38
272.13	-53.76
272.346	-33.28
272.562	-4.61
272.777	-0.51
272.993	54.78
273.209	24.06
273.425	52.74
273.64	-0.51
273.856	-70.14
274.072	-74.24
274.287	1.54
274.503	44.54
274.719	-4.61
274.934	17.92
275.15	-47.62
275.366	-61.95
275.581	-10.75
275.797	77.31
276.012	42.5
276.228	44.54
276.444	-37.38
276.659	67.07
276.875	1.54
277.09	-12.8
277.306	19.97
277.521	65.02
277.737	-6.66
277.952	-8.7
278.168	-0.51
278.383	-16.9
278.599	32.26
278.814	73.21
279.03	77.31
279.245	-2.56
279.461	3.58
279.676	-31.23
279.892	-4.61
280.107	32.26
280.322	71.17
280.538	7.68
280.753	17.92
280.969	60.93
281.184	42.5
281.399	58.88
281.615	46.59
281.83	36.35
282.045	30.21
282.26	9.73
282.476	3.58
282.691	-14.85
282.906	1.54
283.122	71.17
283.337	-8.7
283.552	28.16
283.767	26.11
283.983	17.92
284.198	3.58
284.413	-18.94
284.628	15.87
284.843	71.17
285.058	42.5
285.274	-33.28
285.489	65.02
285.704	28.16
285.919	13.82
286.134	22.02
286.349	46.59
286.564	19.97
286.779	15.87
286.995	-47.62
287.21	7.68
287.425	-39.42
287.64	22.02
287.855	24.06
288.07	-4.61
288.285	54.78
288.5	-57.86
288.715	56.83
288.93	48.64
289.145	-39.42
289.36	50.69
289.575	52.74
289.79	40.45
290.004	-61.95
290.219	-31.23
290.434	-4.61
290.649	22.02
290.864	40.45
291.079	7.68
291.294	36.35
291.509	15.87
291.724	-33.28
291.938	32.26
292.153	34.3
292.368	11.78
292.583	-64
292.798	9.73
293.012	-10.75
293.227	7.68
293.442	56.83
293.657	3.58
293.871	3.58
294.086	11.78
294.301	38.4
294.516	-33.28
294.73	-6.66
294.945	3.58
295.16	24.06
295.374	81.41
295.589	-33.28
295.804	24.06
296.018	-10.75
296.233	87.55
296.447	13.82
296.662	-29.18
296.877	85.5
297.091	22.02
297.306	30.21
297.52	5.63
297.735	62.98
297.949	48.64
298.164	-51.71
298.378	15.87
298.593	52.74
298.807	7.68
299.022	48.64
299.236	30.21
299.451	42.5
299.665	26.11
299.88	-31.23
300.094	60.93
300.309	24.06
300.523	-33.28
300.737	-16.9
300.952	-20.99
301.166	-6.66
301.381	-10.75
301.595	-25.09
301.809	7.68
302.024	-16.9
302.238	34.3
302.452	-12.8
302.667	-29.18
302.881	32.26
303.095	9.73
303.309	7.68
303.524	40.45
303.738	3.58
303.952	-25.09
304.166	42.5
304.381	-2.56
304.595	28.16
304.809	-55.81
305.023	50.69
305.237	5.63
305.452	-0.51
305.666	46.59
305.88	46.59
306.094	15.87
306.308	67.07
306.522	-0.51
306.736	9.73
306.95	40.45
307.164	-55.81
307.379	50.69
307.593	56.83
307.807	48.64
308.021	67.07
308.235	-6.66
308.449	-78.33
308.663	15.87
308.877	46.59
309.091	52.74
309.305	-0.51
309.519	-59.9
309.733	44.54
309.947	22.02
310.161	-18.94
310.374	7.68
310.588	11.78
310.802	-96.77
311.016	50.69
311.23	-6.66
311.444	-0.51
311.658	-100.86
311.872	112.13
312.085	34.3
312.299	83.45
312.513	22.02
312.727	62.98
312.941	83.45
313.154	-8.7
313.368	9.73
313.582	11.78
313.796	-25.09
314.009	17.92
314.223	77.31
314.437	24.06
314.651	3.58
314.864	54.78
315.078	-0.51
315.292	38.4
315.505	81.41
315.719	-55.81
315.933	60.93
316.146	71.17
316.36	32.26
316.573	-23.04
316.787	97.79
317.001	58.88
317.214	-14.85
317.428	-29.18
317.641	9.73
317.855	24.06
318.068	-8.7
318.282	22.02
318.495	-8.7
318.709	15.87
318.922	19.97
319.136	17.92
319.349	85.5
319.563	-29.18
319.776	24.06
319.99	-0.51
320.203	3.58
320.417	42.5
320.63	9.73
320.843	24.06
321.057	-55.81
321.27	75.26
321.483	-25.09
321.697	26.11
321.91	7.68
322.124	97.79
322.337	28.16
322.55	-33.28
322.763	-33.28
322.977	26.11
323.19	-8.7
323.403	-6.66
323.617	28.16
323.83	-16.9
324.043	-18.94
324.256	19.97
324.469	-8.7
324.683	-8.7
324.896	11.78
325.109	7.68
325.322	28.16
325.535	44.54
325.748	-33.28
325.962	19.97
326.175	-33.28
326.388	7.68
326.601	11.78
326.814	5.63
327.027	-16.9
327.24	-8.7
327.453	81.41
327.666	75.26
327.879	42.5
328.092	32.26
328.305	-2.56
328.518	24.06
328.731	15.87
328.944	89.6
329.157	52.74
329.37	79.36
329.583	60.93
329.796	91.65
330.009	-68.09
330.222	-25.09
330.435	22.02
330.648	44.54
330.861	-27.14
331.073	91.65
331.286	40.45
331.499	42.5
331.712	-61.95
331.925	67.07
332.138	15.87
332.35	-27.14
332.563	-23.04
332.776	19.97
332.989	3.58
333.202	1.54
333.414	15.87
333.627	44.54
333.84	-51.71
334.053	46.59
334.265	-23.04
334.478	17.92
334.691	-16.9
334.903	-25.09
335.116	5.63
335.329	54.78
335.541	56.83
335.754	7.68
335.966	11.78
336.179	58.88
336.392	-8.7
336.604	11.78
336.817	15.87
337.029	24.06
337.242	36.35
337.454	28.16
337.667	17.92
337.88	79.36
338.092	71.17
338.305	26.11
338.517	-10.75
338.729	85.5
338.942	9.73
339.154	-2.56
339.367	58.88
339.579	15.87
339.792	22.02
340.004	15.87
340.217	11.78
340.429	5.63
340.641	22.02
340.854	15.87
341.066	38.4
341.278	3.58
341.491	26.11
341.703	9.73
341.915	-53.76
342.128	-27.14
342.34	42.5
342.552	15.87
342.764	54.78
342.977	-16.9
343.189	-25.09
343.401	32.26
343.613	108.03
343.826	36.35
344.038	32.26
344.25	24.06
344.462	40.45
344.674	46.59
344.886	-0.51
345.099	52.74
345.311	60.93
345.523	42.5
345.735	-4.61
345.947	26.11
346.159	13.82
346.371	19.97
346.583	7.68
346.795	-10.75
347.007	-25.09
347.219	83.45
347.431	-20.99
347.643	75.26
347.855	-47.62
348.067	-33.28
348.279	24.06
348.491	-55.81
348.703	67.07
348.915	28.16
349.127	-23.04
349.339	19.97
349.551	7.68
349.763	19.97
349.975	19.97
350.187	112.13
350.399	28.16
350.61	48.64
350.822	77.31
351.034	65.02
351.246	36.35
351.458	101.89
351.669	26.11
351.881	42.5
352.093	48.64
352.305	-4.61
352.517	-23.04
352.728	85.5
352.94	-0.51
353.152	5.63
353.363	28.16
353.575	17.92
353.787	-10.75
353.999	1.54
354.21	-2.56
354.422	67.07
354.633	30.21
354.845	-74.24
355.057	-35.33
355.268	108.03
355.48	24.06
355.692	-20.99
355.903	-8.7
356.115	22.02
356.326	-16.9
356.538	11.78
356.749	13.82
356.961	58.88
357.172	11.78
357.384	-6.66
357.595	-45.57
357.807	36.35
358.018	44.54
358.23	26.11
358.441	65.02
358.653	19.97
358.864	-37.38
359.075	-33.28
359.287	44.54
359.498	1.54
359.709	32.26
359.921	-20.99
360.132	60.93
360.344	24.06
360.555	-29.18
360.766	-39.42
360.977	5.63
361.189	75.26
361.4	22.02
361.611	-4.61
361.823	-23.04
362.034	40.45
362.245	-49.66
362.456	81.41
362.667	17.92
362.879	17.92
363.09	24.06
363.301	24.06
363.512	52.74
363.723	40.45
363.935	-14.85
364.146	110.08
364.357	-31.23
364.568	17.92
364.779	81.41
364.99	9.73
365.201	-37.38
365.412	65.02
365.623	-47.62
365.834	28.16
366.045	-10.75
366.256	5.63
366.467	114.17
366.678	34.3
366.889	42.5
367.1	9.73
367.311	50.69
367.522	-8.7
367.733	-41.47
367.944	26.11
368.155	54.78
368.366	-43.52
368.577	58.88
368.788	1.54
368.999	15.87
369.209	11.78
369.42	9.73
369.631	19.97
369.842	-0.51
370.053	48.64
370.264	46.59
370.474	-10.75
370.685	-68.09
370.896	40.45
371.107	7.68
371.317	28.16
371.528	40.45
371.739	44.54
371.95	34.3
372.16	50.69
372.371	50.69
372.582	79.36
372.792	58.88
373.003	17.92
373.214	34.3
373.424	34.3
373.635	-41.47
373.846	24.06
374.056	40.45
374.267	-12.8
374.477	34.3
374.688	32.26
374.898	7.68
375.109	-23.04
375.319	-6.66
375.53	17.92
375.74	46.59
375.951	-10.75
376.161	11.78
376.372	65.02
376.582	-25.09
376.793	38.4
377.003	15.87
377.214	-29.18
377.424	-43.52
377.635	46.59
377.845	15.87
378.055	22.02
378.266	3.58
378.476	22.02
378.686	46.59
378.897	7.68
379.107	42.5
379.317	83.45
379.528	24.06
379.738	32.26
379.948	28.16
380.158	15.87
380.369	38.4
380.579	22.02
380.789	-10.75
380.999	50.69
381.21	-33.28
381.42	81.41
381.63	118.27
381.84	46.59
382.05	-23.04
382.261	75.26
382.471	15.87
382.681	60.93
382.891	13.82
383.101	87.55
383.311	-37.38
383.521	62.98
383.731	7.68
383.941	36.35
384.151	3.58
384.361	3.58
384.571	-43.52
384.781	151.04
384.991	11.78
385.201	58.88
385.411	38.4
385.621	56.83
385.831	22.02
386.041	-8.7
386.251	54.78
386.461	17.92
386.671	38.4
386.881	60.93
387.091	28.16
387.301	46.59
387.511	19.97
387.72	1.54
387.93	-4.61
388.14	9.73
388.35	34.3
388.56	32.26
388.769	81.41
388.979	22.02
389.189	15.87
389.399	32.26
389.609	-2.56
389.818	1.54
390.028	-33.28
390.238	7.68
390.447	81.41
390.657	36.35
390.867	-14.85
391.076	60.93
391.286	40.45
391.496	69.12
391.705	-2.56
391.915	-0.51
392.125	-35.33
392.334	65.02
392.544	24.06
392.753	32.26
392.963	15.87
393.172	50.69
393.382	30.21
393.591	108.03
393.801	32.26
394.01	58.88
394.22	-27.14
394.429	56.83
394.639	75.26
394.848	28.16
395.058	15.87
395.267	-6.66
395.477	-14.85
395.686	32.26
395.895	105.98
396.105	36.35
396.314	71.17
396.524	71.17
396.733	24.06
396.942	34.3
397.152	44.54
397.361	48.64
397.57	48.64
397.78	89.6
397.989	-12.8
398.198	1.54
398.407	28.16
398.617	99.84
398.826	73.21
399.035	65.02
399.244	32.26
399.453	65.02
399.663	91.65
399.872	83.45
400.081	44.54
400.29	83.45
400.499	42.5
400.708	30.21
400.917	69.12
401.127	124.41
401.336	62.98
401.545	46.59
401.754	26.11
401.963	28.16
402.172	65.02
402.381	67.07
402.59	65.02
402.799	28.16
403.008	71.17
403.217	42.5
403.426	44.54
403.635	81.41
403.844	60.93
404.053	67.07
404.262	67.07
404.471	60.93
404.68	89.6
404.888	58.88
405.097	52.74
405.306	32.26
405.515	105.98
405.724	75.26
405.933	110.08
406.142	93.69
406.35	85.5
406.559	60.93
406.768	124.41
406.977	108.03
407.185	65.02
407.394	97.79
407.603	146.94
407.812	83.45
408.02	97.79
408.229	185.85
408.438	140.8
408.646	155.13
408.855	44.54
409.064	161.28
409.272	85.5
409.481	173.57
409.69	52.74
409.898	169.47
410.107	155.13
410.315	177.66
410.524	167.42
410.733	138.75
410.941	134.65
411.15	275.96
411.358	103.93
411.567	161.28
411.775	218.62
411.984	321.02
412.192	177.66
412.401	212.48
412.609	253.44
412.818	235
413.026	245.24
413.234	226.81
413.443	224.76
413.651	153.09
413.86	325.12
414.068	261.63
414.276	302.59
414.485	296.44
414.693	370.17
414.901	429.56
415.11	341.5
415.318	433.66
415.526	388.6
415.734	267.77
415.943	392.7
416.151	343.55
416.359	427.51
416.567	460.28
416.776	433.66
416.984	509.43
417.192	513.53
417.4	534.01
417.608	513.53
417.817	501.24
418.025	456.19
418.233	546.3
418.441	515.58
418.649	544.25
418.857	691.7
419.065	613.88
419.273	656.89
419.481	679.41
419.689	740.85
419.897	783.86
420.105	773.62
420.313	853.49
420.521	779.76
420.729	888.31
420.937	927.22
421.145	964.08
421.353	902.64
421.561	966.13
421.769	937.46
421.977	1050.1
422.185	994.8
422.393	1078.77
422.601	1142.25
422.809	1220.08
423.017	1224.17
423.224	1244.65
423.432	1277.42
423.64	1293.8
423.848	1390.06
424.056	1437.16
424.263	1525.22
424.471	1394.15
424.679	1484.27
424.887	1648.1
425.094	1758.69
425.302	1592.81
425.51	1560.04
425.718	1719.78
425.925	1699.3
426.133	1752.55
426.341	1891.81
426.548	2016.74
426.756	1922.53
426.964	1969.63
427.171	2067.94
427.379	2158.05
427.586	2196.96
427.794	2260.45
428.001	2338.27
428.209	2549.21
428.417	2442.71
428.624	2598.36
428.832	2616.79
429.039	2622.94
429.247	2600.41
429.454	3010
429.662	3038.67
429.869	2776.53
430.076	3032.53
430.284	2897.36
430.491	3124.69
430.699	3329.49
430.906	3231.18
431.114	3315.15
431.321	3458.51
431.528	3540.43
431.736	3696.07
431.943	3976.64
432.15	3732.94
432.358	3814.85
432.565	3945.92
432.772	3947.97
432.979	4214.21
433.187	4345.28
433.394	4167.1
433.601	4660.66
433.808	4683.19
434.016	4586.94
434.223	4859.32
434.43	5115.31
434.637	4976.05
434.844	5299.63
435.052	5334.45
435.259	5287.34
435.466	5395.89
435.673	5393.84
435.88	5785
436.087	6116.77
436.294	6020.52
436.501	5983.65
436.708	5875.11
436.915	6149.54
437.122	6518.17
437.329	6585.76
437.537	6606.24
437.743	6811.03
437.95	6782.36
438.157	7110.04
438.364	7374.22
438.571	7234.96
438.778	7447.95
438.985	8056.2
439.192	7775.63
439.399	7916.94
439.606	7972.23
439.813	8162.69
440.02	8707.45
440.227	8639.87
440.433	8547.71
440.64	8803.71
440.847	8590.72
441.054	9059.7
441.261	9422.19
441.467	9364.85
441.674	9764.2
441.881	9977.19
442.088	9846.12
442.294	10052.97
442.501	10050.92
442.708	10519.9
442.914	10839.39
443.121	11300.18
443.328	10952.02
443.534	11808.08
443.741	11507.02
443.948	11537.74
444.154	11961.67
444.361	12121.42
444.568	12125.51
444.774	12141.89
444.981	12227.91
445.187	12582.21
445.394	13278.52
445.6	12981.56
445.807	13989.16
446.013	13950.25
446.22	13909.29
446.426	14384.42
446.633	14839.07
446.839	15111.45
447.046	14462.24
447.252	15322.39
447.459	15379.73
447.665	15056.15
447.871	16082.19
448.078	16903.42
448.284	15850.77
448.491	16676.1
448.697	16805.12
448.903	17456.37
449.11	17399.03
449.316	17161.47
449.522	17517.81
449.728	18107.63
449.935	17960.17
450.141	18128.11
450.347	18662.63
450.553	17966.32
450.76	17943.79
450.966	18767.07
451.172	18531.56
451.378	19152.09
451.584	18590.95
451.791	19256.54
451.997	19213.53
452.203	19539.16
452.409	19621.08
452.615	19184.86
452.821	18562.28
453.027	18326.76
453.233	19719.38
453.44	18855.14
453.646	19125.47
453.852	19139.8
454.058	19393.75
454.264	18801.89
454.47	19229.91
454.676	18781.41
454.882	19678.42
455.088	17931.5
455.294	18320.62
455.5	18158.83
455.705	18431.21
455.911	17792.24
456.117	17474.81
456.323	17026.3
456.529	16354.57
456.735	16950.53
456.941	16622.85
457.147	16432.39
457.352	15725.84
457.558	15672.59
457.764	15719.7
457.97	15392.02
458.176	15267.1
458.381	14988.57
458.587	14146.86
458.793	14288.17
458.999	13503.79
459.204	14644.51
459.41	13968.68
459.616	13124.92
459.821	13401.4
460.027	13149.5
460.233	12571.97
460.438	12264.77
460.644	12447.04
460.85	11713.87
461.055	11846.99
461.261	11738.44
461.466	10874.2
461.672	10487.14
461.878	11269.46
462.083	10605.92
462.289	10296.67
462.494	10167.65
462.7	9581.93
462.905	9518.45
463.111	9889.13
463.316	9872.75
463.522	9678.19
463.727	9581.93
463.932	9553.26
464.138	9512.3
464.343	9565.55
464.549	9309.55
464.754	9772.39
464.959	9377.14
465.165	9444.72
465.37	9074.04
465.575	8660.35
465.781	9246.07
465.986	9295.22
466.191	8824.19
466.397	8824.19
466.602	8347.01
466.807	8621.44
467.012	8596.86
467.218	8494.46
467.423	8566.14
467.628	8461.69
467.833	8820.09
468.038	8539.52
468.244	8433.02
468.449	8615.29
468.654	8412.54
468.859	8410.5
469.064	8263.04
469.269	7994.76
469.474	8070.53
469.679	8408.45
469.885	8056.2
470.09	8091.01
470.295	7912.84
470.5	7943.56
470.705	7947.65
470.91	7837.06
471.115	7484.81
471.32	7482.77
471.525	7667.08
471.73	7595.4
471.935	7450
472.139	7232.91
472.344	7435.66
472.549	7171.47
472.754	7153.04
472.959	6917.53
473.164	6839.7
473.369	6700.44
473.574	6968.73
473.778	6954.39
473.983	6925.72
474.188	6907.29
474.393	6626.71
474.598	6645.15
474.802	6514.08
475.007	6520.22
475.212	6440.35
475.417	6086.05
475.621	6389.15
475.826	6241.7
476.031	6366.62
476.235	6036.9
476.44	6088.1
476.645	6043.04
476.849	6096.29
477.054	6038.95
477.259	5979.56
477.463	6008.23
477.668	5703.08
477.872	5752.23
478.077	5711.27
478.282	5531.05
478.486	5574.06
478.691	5522.86
478.895	5586.35
479.1	5373.36
479.304	5496.24
479.509	5408.17
479.713	5373.36
479.918	5293.49
480.122	5127.6
480.326	5232.05
480.531	5371.31
480.735	5186.99
480.94	5139.89
481.144	5479.85
481.348	5246.38
481.553	5111.22
481.757	5254.58
481.961	5182.9
482.166	5168.56
482.37	5242.29
482.574	5109.17
482.778	5215.66
482.983	5217.71
483.187	5055.92
483.391	5002.68
483.595	5148.08
483.8	5141.94
484.004	5053.87
484.208	5117.36
484.412	5068.21
484.616	5086.64
484.821	5107.12
485.025	5139.89
485.229	5209.52
485.433	5057.97
485.637	5246.38
485.841	5014.96
486.045	5129.65
486.249	5301.68
486.453	5033.4
486.657	5100.98
486.861	5158.32
487.065	5035.44
487.269	5041.59
487.473	5193.14
487.677	5162.42
487.881	5297.58
488.085	5092.79
488.289	5111.22
488.493	5008.82
488.697	5103.03
488.901	5060.02
489.105	5084.59
489.309	5340.59
489.512	5160.37
489.716	5326.25
489.92	5213.62
490.124	5135.79
490.328	5475.76
490.531	5127.6
490.735	5223.86
490.939	5404.08
491.143	5268.91
491.346	5244.34
491.55	5301.68
491.754	5375.41
491.958	5275.06
492.161	5373.36
492.365	5508.52
492.569	5311.92
492.772	5406.13
492.976	5514.67
493.18	5602.73
493.383	5729.7
493.587	5494.19
493.79	5701.03
493.994	5676.46
494.197	5627.31
494.401	5615.02
494.605	5537.2
494.808	5948.84
495.012	5715.37
495.215	5971.36
495.419	6077.86
495.622	5864.87
495.825	6163.87
496.029	6223.27
496.232	6178.21
496.436	6094.24
496.639	6403.49
496.843	6430.11
497.046	6335.9
497.249	6544.8
497.453	6559.13
497.656	6653.34
497.859	6585.76
498.063	6796.7
498.266	6737.31
498.469	6833.56
498.673	7069.08
498.876	6970.77
499.079	7028.12
499.282	7001.49
499.485	7298.45
499.689	7333.26
499.892	7394.7
500.095	7529.87
500.298	7667.08
500.501	7531.92
500.705	7681.42
500.908	7689.61
501.111	7900.55
501.314	8041.86
501.517	8187.27
501.72	8271.23
501.923	8183.17
502.126	8437.12
502.329	8523.13
502.532	8633.72
502.735	8689.02
502.938	8928.63
503.141	8854.9
503.344	9264.5
503.547	8959.35
503.75	9100.66
503.953	9330.03
504.156	9414
504.359	9592.17
504.562	9575.79
504.765	9721.2
504.968	9907.56
505.17	10034.53
505.373	9909.61
505.576	10124.65
505.779	10331.49
505.982	10612.06
506.185	10708.32
506.387	10714.46
506.59	10681.69
506.793	11066.71
506.996	10816.86
507.198	11361.62
507.401	11287.89
507.604	11486.54
507.807	11691.34
508.009	11742.54
508.212	11832.65
508.415	11918.67
508.617	12305.73
508.82	12019.02
509.022	12127.56
509.225	12465.47
509.428	12531.01
509.63	12873.02
509.833	12969.27
510.035	13292.85
510.238	13045.05
510.44	13270.33
510.643	13378.87
510.845	13735.21
511.048	13823.28
511.25	13878.57
511.453	14054.7
511.655	14550.31
511.858	14351.65
512.06	14361.89
512.262	14556.45
512.465	14572.83
512.667	14896.41
512.87	15101.21
513.072	15226.14
513.274	15523.09
513.477	15815.95
513.679	15990.03
513.881	16039.18
514.084	16217.35
514.286	16155.91
514.488	16125.19
514.69	16882.94
514.893	16669.95
515.095	16858.37
515.297	17306.87
515.499	17202.43
515.701	17390.84
515.904	17984.75
516.106	17702.13
516.308	17986.8
516.51	18089.2
516.712	18095.34
516.914	18259.18
517.116	18836.7
517.318	18683.11
517.52	18988.25
517.722	19297.5
517.925	19805.39
518.127	20010.19
518.329	19946.7
518.531	19836.11
518.733	20208.84
518.935	20325.58
519.136	20061.39
519.338	20600.01
519.54	20690.12
519.742	21003.46
519.944	20907.2
520.146	21449.91
520.348	21783.73
520.55	21675.19
520.752	21687.48
520.954	22156.46
521.155	21892.27
521.357	22314.16
521.559	22512.81
521.761	23114.91
521.963	22873.25
522.164	22852.77
522.366	22979.75
522.568	23516.31
522.77	23399.58
522.971	23786.65
523.173	23731.35
523.375	23751.83
523.576	24116.37
523.778	24126.61
523.98	24571.02
524.181	24407.18
524.383	24474.76
524.584	24683.66
524.786	25050.24
524.988	25013.38
525.189	25160.83
525.391	25332.86
525.592	25418.88
525.794	25488.51
525.995	25386.11
526.197	25382.01
526.398	25756.79
526.6	25842.81
526.801	25920.63
527.003	26307.69
527.204	26127.47
527.406	26643.56
527.607	26584.17
527.808	26887.27
528.01	26539.12
528.211	26674.28
528.412	27198.56
528.614	26901.61
528.815	26823.78
529.016	27153.51
529.218	26864.74
529.419	26979.43
529.62	27530.33
529.822	27298.91
530.023	27282.53
530.224	27538.52
530.425	27278.43
530.626	27085.92
530.828	27509.85
531.029	27819.1
531.23	27860.05
531.431	27520.09
531.632	27749.46
531.833	27708.51
532.035	27612.25
532.236	28079.19
532.437	28185.68
532.638	27761.75
532.839	27960.41
533.04	28077.14
533.241	27909.21
533.442	28568.65
533.643	28249.17
533.844	28050.52
534.045	28062.8
534.246	27866.2
534.447	27937.88
534.648	27941.97
534.849	28157.01
535.05	27774.04
535.251	28308.56
535.451	28269.65
535.652	28345.42
535.853	28197.97
536.054	28515.4
536.255	28265.55
536.456	28132.43
536.657	28591.18
536.857	28245.07
537.058	28005.46
537.259	28103.76
537.46	28265.55
537.66	27948.12
537.861	28402.77
538.062	28138.58
538.263	28384.33
538.463	28177.49
538.664	28542.03
538.865	28474.45
539.065	28326.99
539.266	28085.33
539.466	28439.63
539.667	27833.43
539.868	28654.67
540.068	28587.08
540.269	28361.81
540.469	28554.32
540.67	28587.08
540.87	28200.02
541.071	28232.79
541.271	28279.89
541.472	28331.09
541.672	28240.98
541.873	28294.22
542.073	27866.2
542.274	28326.99
542.474	28521.55
542.675	27903.06
542.875	28566.6
543.075	28068.95
543.276	27941.97
543.476	28568.65
543.676	28236.88
543.877	28492.88
544.077	28218.45
544.277	27999.32
544.478	28200.02
544.678	28363.86
544.878	28142.67
545.078	28071
545.279	28079.19
545.479	28040.28
545.679	28462.16
545.879	28234.83
546.079	28245.07
546.28	27948.12
546.48	27794.52
546.68	28435.53
546.88	27935.83
547.08	28114
547.28	28048.47
547.48	27911.25
547.68	28261.46
547.88	27964.5
548.081	27950.17
548.281	28034.13
548.481	28116.05
548.681	28099.67
548.881	28193.87
549.081	28171.35
549.28	27890.77
549.48	27667.55
549.68	28036.18
549.88	28734.54
550.08	27921.49
550.28	28320.85
550.48	28179.54
550.68	27810.9
550.88	28007.51
551.08	28068.95
551.279	28079.19
551.479	27497.56
551.679	27964.5
551.879	28093.52
552.079	27808.86
552.278	27671.64
552.478	28103.76
552.678	27839.58
552.878	28128.34
553.077	27712.6
553.277	27339.87
553.477	27718.75
553.676	27739.22
553.876	27618.39
554.076	28054.61
554.275	27722.84
554.475	27427.93
554.674	27667.55
554.874	27970.65
555.074	27982.93
555.273	27851.86
555.473	27647.07
555.672	27509.85
555.872	27812.95
556.071	27565.15
556.271	27683.93
556.47	27679.83
556.67	27456.61
556.869	27665.5
557.068	27765.85
557.268	27319.39
557.467	27618.39
557.667	27481.18
557.866	27257.95
558.065	27434.08
558.265	27237.47
558.464	26915.94
558.663	27391.07
558.863	26942.56
559.062	27561.05
559.261	26831.97
559.461	27235.42
559.66	26934.37
559.859	27292.77
560.058	26934.37
560.258	27067.49
560.457	26905.7
560.656	27036.77
560.855	26920.04
561.054	26840.17
561.253	27071.59
561.453	26920.04
561.652	26897.51
561.851	26602.6
562.05	26682.47
562.249	26758.25
562.448	26627.18
562.647	26555.5
562.846	26655.85
563.045	26518.64
563.244	26303.6
563.443	26666.09
563.642	26115.19
563.841	26426.48
564.04	26162.29
564.239	26539.12
564.438	26195.06
564.637	26434.67
564.836	26285.17
565.035	26000.5
565.234	25851
565.432	26068.08
565.631	25920.63
565.83	26104.95
566.029	25738.36
566.228	25595
566.427	25855.09
566.625	25492.6
566.824	25279.61
567.023	25756.79
567.222	24951.94
567.42	25783.41
567.619	25705.59
567.818	25316.48
568.016	25236.61
568.215	25326.72
568.414	25314.43
568.612	25500.79
568.811	25179.26
569.01	25062.53
569.208	25150.59
569.407	24929.41
569.605	25205.89
569.804	25341.05
570.002	24534.15
570.201	24890.5
570.4	24476.81
570.598	24521.87
570.797	24534.15
570.995	24417.42
571.193	24097.94
571.392	24487.05
571.59	24173.71
571.789	24587.4
571.987	24315.02
572.186	24009.87
572.384	23981.2
572.582	23942.29
572.781	24024.21
572.979	23973.01
573.177	23948.43
573.376	24022.16
573.574	23938.19
573.772	23938.19
573.971	23563.42
574.169	23680.15
574.367	23534.74
574.565	23596.18
574.763	23413.91
574.962	23426.2
575.16	23121.06
575.358	23309.47
575.556	23076
575.754	23180.45
575.952	22848.68
576.151	23354.52
576.349	22705.32
576.547	22842.53
576.745	22977.7
576.943	22887.59
577.141	22738.09
577.339	22750.37
577.537	22547.62
577.735	22709.41
577.933	22686.89
578.131	22449.32
578.329	22305.96
578.527	22109.36
578.725	22449.32
578.923	22596.78
579.121	22570.15
579.319	22111.41
579.516	22078.64
579.714	21963.95
579.912	22004.91
580.11	21855.41
580.308	21845.17
580.506	21812.4
580.704	21480.63
580.901	21458.1
581.099	21593.27
581.297	21329.08
581.495	21646.52
581.692	21398.71
581.89	21077.18
582.088	21146.81
582.285	21331.13
582.483	21423.29
582.681	21120.19
582.878	20909.25
583.076	21005.5
583.274	21345.47
583.471	20810.95
583.669	20991.17
583.866	20718.79
584.064	20899.01
584.262	20446.41
584.459	20681.92
584.657	20913.34
584.854	20958.4
585.052	20268.23
585.249	20616.39
585.447	20399.3
585.644	20325.58
585.841	20190.41
586.039	20364.49
586.236	20012.24
586.434	19971.28
586.631	19946.7
586.828	19899.6
587.026	19985.62
587.223	19926.22
587.42	19799.25
587.618	19838.16
587.815	19848.4
588.012	19709.14
588.21	19594.45
588.407	19913.94
588.604	19645.65
588.801	19479.77
588.999	19465.43
589.196	19377.37
589.393	19238.11
589.59	19113.18
589.787	19086.56
589.984	19086.56
590.182	18988.25
590.379	19037.41
590.576	18767.07
590.773	19031.26
590.97	18877.66
591.167	19094.75
591.364	18734.31
591.561	18824.42
591.758	18726.11
591.955	18607.33
592.152	18930.91
592.349	18449.64
592.546	18466.02
592.743	18476.26
592.94	18136.3
593.137	18679.01
593.334	18552.04
593.531	18148.59
593.727	18095.34
593.924	18185.45
594.121	18134.25
594.318	18124.01
594.515	17738.99
594.712	17908.97
594.908	17972.46
595.105	18013.42
595.302	17710.32
595.499	17818.86
595.696	17429.75
595.892	17612.02
596.089	17728.75
596.286	17609.97
596.482	17593.59
596.679	17562.87
596.876	17470.71
597.072	17304.82
597.269	17356.02
597.466	17071.36
597.662	17040.64
597.859	17075.45
598.055	16971.01
598.252	16827.65
598.448	17218.81
598.645	16938.24
598.841	16839.94
599.038	16837.89
599.234	16735.49
599.431	16739.58
599.627	16944.38
599.824	16715.01
600.02	16366.85
600.217	16710.91
600.413	16299.27
600.609	16456.96
600.806	16440.58
601.002	16504.07
601.198	16321.8
601.395	15992.08
601.591	15996.17
601.787	16135.43
601.984	16121.1
602.18	16438.53
602.376	15957.26
602.572	16006.41
602.769	15871.25
602.965	15795.47
603.161	15826.19
603.357	15623.44
603.553	15613.2
603.75	15652.11
603.946	15586.58
604.142	15650.07
604.338	15404.31
604.534	15392.02
604.73	15500.56
604.926	15113.5
605.122	15609.11
605.318	15275.29
605.514	15074.59
605.71	14953.76
605.906	14986.52
606.102	15140.12
606.298	14957.85
606.494	15113.5
606.69	14851.36
606.886	14947.61
607.082	14753.05
607.278	14920.99
607.474	14943.52
607.67	14630.18
607.866	14794.01
608.062	14802.21
608.257	14556.45
608.453	14771.49
608.649	14597.41
608.845	14505.25
609.041	14759.2
609.236	14664.99
609.432	14439.72
609.628	14566.69
609.824	14312.74
610.019	14581.03
610.215	14318.89
610.411	14341.41
610.606	14306.6
610.802	14441.76
610.998	14200.1
611.193	14091.56
611.389	13968.68
611.584	14021.93
611.78	13833.52
611.976	13745.45
612.171	14032.17
612.367	13952.3
612.562	13870.38
612.758	13968.68
612.953	13817.13
613.149	13712.69
613.344	13598
613.539	13919.53
613.735	13837.61
613.93	13602.1
614.126	13643.06
614.321	13845.8
614.517	13802.8
614.712	13735.21
614.907	13722.93
615.103	13739.31
615.298	13452.59
615.493	13677.87
615.688	13497.65
615.884	13532.47
616.079	13323.57
616.274	13450.55
616.47	13440.31
616.665	13518.13
616.86	13370.68
617.055	13172.02
617.25	13346.1
617.445	12940.6
617.641	12956.99
617.836	13151.54
618.031	13075.77
618.226	13139.26
618.421	13018.43
618.616	13073.72
618.811	12735.81
619.006	12948.79
619.201	12733.76
619.396	12770.62
619.591	12711.23
619.786	12668.22
619.981	12543.3
620.176	12764.48
620.371	12645.7
620.566	12444.99
620.761	12606.78
620.956	12696.89
621.151	12148.04
621.346	12361.03
621.541	12180.81
621.735	12172.61
621.93	11943.24
622.125	12340.55
622.32	11945.29
622.515	11787.6
622.709	11781.45
622.904	11836.75
623.099	11795.79
623.294	11722.06
623.488	11511.12
623.683	11824.46
623.878	11300.18
624.072	11601.23
624.267	11515.22
624.462	11306.32
624.656	11160.92
624.851	11347.28
625.046	10995.03
625.24	11056.47
625.435	10982.74
625.629	11117.91
625.824	10868.06
626.018	10841.43
626.213	10788.19
626.407	10757.47
626.602	10538.34
626.796	10495.33
626.991	10900.83
627.185	10659.17
627.38	10413.41
627.574	10319.2
627.768	10345.83
627.963	10288.48
628.157	10167.65
628.352	10175.84
628.546	10177.89
628.74	10026.34
628.935	10079.59
629.129	10042.73
629.323	9756.01
629.517	9813.35
629.712	9919.85
629.906	9817.45
630.1	9780.59
630.294	9817.45
630.489	9604.46
630.683	9575.79
630.877	9508.21
631.071	9301.36
631.265	9407.86
631.459	9332.08
631.653	9254.26
631.848	9418.1
632.042	9086.33
632.236	9278.83
632.43	8957.3
632.624	9000.31
632.818	8965.5
633.012	9018.74
633.206	8914.3
633.4	9035.13
633.594	8988.02
633.788	9074.04
633.982	8779.13
634.176	8844.67
634.369	8752.51
634.563	8633.72
634.757	8549.76
634.951	8838.52
635.145	8603
635.339	8347.01
635.533	8222.08
635.726	8326.53
635.92	8414.59
636.114	8283.52
636.308	8170.88
636.501	8357.25
636.695	8035.72
636.889	8111.49
637.083	8201.6
637.276	8045.96
637.47	7937.41
637.664	8066.44
637.857	7955.85
638.051	7933.32
638.244	7939.46
638.438	7851.4
638.632	7740.81
638.825	7718.28
639.019	7595.4
639.212	7638.41
639.406	7740.81
639.599	7478.67
639.793	7517.58
639.986	7355.79
640.18	7335.31
640.373	7490.96
640.567	7339.41
640.76	7433.61
640.954	7187.86
641.147	7208.34
641.34	7028.12
641.534	7169.43
641.727	7091.6
641.92	7003.54
642.114	6954.39
642.307	6806.94
642.5	6931.86
642.694	6755.74
642.887	6784.41
643.08	6935.96
643.273	6849.94
643.467	6587.8
643.66	6747.55
643.853	6755.74
644.046	6600.09
644.239	6579.61
644.432	6522.27
644.626	6555.04
644.819	6432.16
645.012	6340
645.205	6356.38
645.398	6366.62
645.591	6247.84
645.784	6249.89
645.977	6163.87
646.17	6153.63
646.363	6110.63
646.556	6047.14
646.749	6028.71
646.942	5979.56
647.135	5924.26
647.328	6018.47
647.521	6026.66
647.714	5922.21
647.907	5981.6
648.099	5866.92
648.292	5658.03
648.485	5711.27
648.678	5660.07
648.871	5866.92
649.064	5727.66
649.256	5741.99
649.449	5684.65
649.642	5490.09
649.835	5518.76
650.027	5606.83
650.22	5416.37
650.413	5387.69
650.605	5557.68
650.798	5395.89
650.991	5322.16
651.183	5393.84
651.376	5404.08
651.568	5299.63
651.761	5178.8
651.954	5162.42
652.146	5096.88
652.339	5176.75
652.531	5064.11
652.724	5031.35
652.916	5029.3
653.109	5010.87
653.301	4906.42
653.494	5049.78
653.686	5176.75
653.879	5008.82
654.071	4951.48
654.263	4736.44
654.456	4900.28
654.648	4933.04
654.84	4703.67
655.033	4652.47
655.225	4789.69
655.417	4695.48
655.61	4787.64
655.802	4761.02
655.994	4787.64
656.186	4615.61
656.379	4648.38
656.571	4541.88
656.763	4519.36
656.955	4468.16
657.148	4523.45
657.34	4398.52
657.532	4410.81
657.724	4466.11
657.916	4611.51
658.108	4341.18
658.3	4316.61
658.492	4244.93
658.684	4191.68
658.876	4373.95
659.068	4232.64
659.26	4167.1
659.452	4199.87
659.644	4154.82
659.836	4177.34
660.028	4136.38
660.22	4122.05
660.412	4050.37
660.604	4023.75
660.796	4181.44
660.988	3941.83
661.18	4023.75
661.372	3943.88
661.563	3976.64
661.755	3974.6
661.947	4013.51
662.139	3970.5
662.331	3831.24
662.522	3798.47
662.714	3857.86
662.906	3798.47
663.097	3792.33
663.289	3841.48
663.481	3749.32
663.673	3659.21
663.864	3624.39
664.056	3694.02
664.247	3730.89
664.439	3622.34
664.631	3616.2
664.822	3646.92
665.014	3675.59
665.205	3634.63
665.397	3655.11
665.588	3462.6
665.78	3556.81
665.971	3493.32
666.163	3517.9
666.354	3565
666.546	3562.95
666.737	3413.45
666.929	3423.69
667.12	3384.78
667.311	3276.24
667.503	3306.96
667.694	3329.49
667.885	3311.05
668.077	3259.85
668.268	3188.18
668.459	3304.91
668.651	3298.77
668.842	3268.05
669.033	3261.9
669.224	3266
669.416	3126.74
669.607	3173.84
669.798	3188.18
669.989	3169.74
670.18	3212.75
670.371	3268.05
670.563	3177.94
670.754	3036.63
670.945	3026.39
671.136	2985.43
671.327	3116.5
671.518	3026.39
671.709	3038.67
671.9	2983.38
672.091	2909.65
672.282	3059.15
672.473	2921.94
672.664	3022.29
672.855	2926.04
673.046	3050.96
673.237	2954.71
673.428	2954.71
673.619	2977.23
673.809	2897.36
674	2897.36
674.191	2868.69
674.382	2891.22
674.573	2934.23
674.764	2940.37
674.954	2942.42
675.145	2870.74
675.336	2999.76
675.527	2829.78
675.717	2741.72
675.908	2776.53
676.099	2723.29
676.289	2837.97
676.48	2690.52
676.671	2670.04
676.861	2672.09
677.052	2672.09
677.243	2819.54
677.433	2817.49
677.624	2696.66
677.814	2698.71
678.005	2706.9
678.195	2624.98
678.386	2647.51
678.576	2637.27
678.767	2715.09
678.957	2678.23
679.148	2629.08
679.338	2696.66
679.529	2645.46
679.719	2680.28
679.909	2622.94
680.1	2661.85
680.29	2731.48
680.481	2719.19
680.671	2661.85
680.861	2514.39
681.052	2581.98
681.242	2543.07
681.432	2498.01
681.622	2559.45
681.813	2543.07
682.003	2614.74
682.193	2438.62
682.383	2667.99
682.573	2530.78
682.764	2608.6
682.954	2604.5
683.144	2610.65
683.334	2561.5
683.524	2571.74
683.714	2518.49
683.904	2530.78
684.094	2450.91
684.284	2547.16
684.474	2475.48
684.664	2571.74
684.854	2481.63
685.044	2487.77
685.234	2541.02
685.424	2498.01
685.614	2424.28
685.804	2465.24
685.994	2358.75
686.184	2479.58
686.374	2328.03
686.564	2457.05
686.753	2504.15
686.943	2364.89
687.133	2336.22
687.323	2424.28
687.513	2463.19
687.702	2375.13
687.892	2424.28
688.082	2440.67
688.272	2414.04
688.461	2371.04
688.651	2373.08
688.841	2332.12
689.03	2262.49
689.22	2293.21
689.41	2305.5
689.599	2420.19
689.789	2180.57
689.979	2385.37
690.168	2373.08
690.358	2344.41
690.547	2309.6
690.737	2340.32
690.926	2260.45
691.116	2266.59
691.305	2278.88
691.495	2293.21
691.684	2278.88
691.874	2219.49
692.063	2184.67
692.252	2317.79
692.442	2221.53
692.631	2190.81
692.82	2264.54
693.01	2160.1
693.199	2307.55
693.388	2213.34
693.578	2213.34
693.767	2117.09
693.956	2219.49
694.146	2237.92
694.335	2137.57
694.524	2137.57
694.713	2242.01
694.902	2129.38
695.092	2186.72
695.281	2182.62
695.47	2029.03
695.659	2112.99
695.848	2125.28
696.037	2158.05
696.226	2139.62
696.415	2180.57
696.604	2096.61
696.793	2129.38
696.982	2104.8
697.171	2072.03
697.36	2121.18
697.549	2049.5
697.738	2178.53
697.927	1949.15
698.116	2182.62
698.305	2143.71
698.494	2067.94
698.683	2086.37
698.872	2133.47
699.061	2016.74
699.25	1994.21
699.438	2049.5
699.627	2088.42
699.816	2125.28
700.005	2065.89
700.193	2094.56
700.382	2018.79
700.571	2018.79
700.76	1918.43
700.948	2137.57
701.137	1990.11
701.326	2069.98
701.514	1983.97
701.703	2047.46
701.892	2029.03
702.08	2069.98
702.269	2055.65
702.457	1988.07
702.646	2033.12
702.834	2088.42
703.023	1971.68
703.212	1918.43
703.4	1877.48
703.589	2020.83
703.777	1897.96
703.965	1965.54
704.154	2076.13
704.342	1977.83
704.531	1992.16
704.719	1967.59
704.907	1979.87
705.096	1859.04
705.284	1934.82
705.472	1850.85
705.661	1906.15
705.849	1850.85
706.037	1754.6
706.226	1918.43
706.414	1938.91
706.602	1912.29
706.79	1983.97
706.979	1936.87
707.167	1918.43
707.355	1809.89
707.543	1908.19
707.731	1900
707.919	1998.31
708.107	1861.09
708.296	1824.23
708.484	1781.22
708.672	1873.38
708.86	1807.84
709.048	1871.33
709.236	1850.85
709.424	1875.43
709.612	1803.75
709.8	1811.94
709.988	1773.03
710.176	1848.8
710.364	1854.95
710.551	1709.54
710.739	1717.73
710.927	1820.13
711.115	1730.02
711.303	1838.56
711.491	1813.99
711.679	1711.59
711.866	1836.52
712.054	1783.27
712.242	1707.49
712.43	1748.45
712.617	1754.6
712.805	1795.56
712.993	1695.21
713.181	1603.05
713.368	1768.93
713.556	1811.94
713.744	1646.05
713.931	1777.12
714.119	1703.4
714.306	1727.97
714.494	1582.57
714.682	1736.17
714.869	1644.01
715.057	1613.29
715.244	1693.16
715.432	1748.45
715.619	1664.49
715.807	1652.2
715.994	1730.02
716.182	1641.96
716.369	1588.71
716.556	1596.9
716.744	1641.96
716.931	1562.09
717.119	1670.63
717.306	1603.05
717.493	1623.53
717.681	1619.43
717.868	1742.31
718.055	1596.9
718.242	1646.05
718.43	1510.89
718.617	1471.98
718.804	1592.81
718.991	1510.89
719.179	1633.77
719.366	1592.81
719.553	1560.04
719.74	1652.2
719.927	1584.62
720.114	1549.8
720.301	1521.13
720.488	1564.14
720.676	1566.18
720.863	1582.57
721.05	1578.47
721.237	1484.27
721.424	1623.53
721.611	1590.76
721.798	1494.51
721.985	1486.31
722.172	1650.15
722.358	1433.07
722.545	1533.42
722.732	1486.31
722.919	1521.13
723.106	1451.5
723.293	1488.36
723.48	1527.27
723.667	1428.97
723.853	1508.84
724.04	1504.75
724.227	1465.83
724.414	1519.08
724.6	1482.22
724.787	1471.98
724.974	1541.61
725.161	1535.46
725.347	1476.07
725.534	1457.64
725.72	1488.36
725.907	1406.44
726.094	1527.27
726.28	1506.79
726.467	1441.26
726.653	1437.16
726.84	1439.21
727.027	1533.42
727.213	1447.4
727.4	1283.56
727.586	1457.64
727.773	1363.44
727.959	1478.12
728.145	1431.02
728.332	1379.82
728.518	1381.87
728.705	1551.85
728.891	1400.3
729.077	1416.68
729.264	1351.15
729.45	1383.91
729.636	1371.63
729.823	1326.57
730.009	1402.35
730.195	1363.44
730.382	1289.71
730.568	1357.29
730.754	1342.96
730.94	1273.32
731.126	1381.87
731.313	1355.24
731.499	1447.4
731.685	1441.26
731.871	1334.76
732.057	1400.3
732.243	1338.86
732.429	1398.25
732.615	1408.49
732.801	1349.1
732.987	1385.96
733.173	1381.87
733.359	1355.24
733.545	1271.28
733.731	1340.91
733.917	1414.63
734.103	1385.96
734.289	1330.67
734.475	1320.43
734.661	1404.39
734.847	1381.87
735.033	1408.49
735.219	1357.29
735.404	1297.9
735.59	1234.41
735.776	1338.86
735.962	1338.86
736.148	1254.89
736.333	1342.96
736.519	1312.24
736.705	1347.05
736.89	1246.7
737.076	1371.63
737.262	1326.57
737.447	1244.65
737.633	1238.51
737.819	1320.43
738.004	1236.46
738.19	1275.37
738.375	1304.04
738.561	1248.75
738.747	1267.18
738.932	1271.28
739.118	1302
739.303	1218.03
739.489	1408.49
739.674	1271.28
739.859	1265.13
740.045	1336.81
740.23	1248.75
740.416	1168.88
740.601	1304.04
740.786	1304.04
740.972	1295.85
741.157	1074.67
741.342	1201.65
741.528	1230.32
741.713	1238.51
741.898	1220.08
742.084	1209.84
742.269	1222.13
742.454	1175.02
742.639	1234.41
742.824	1080.82
743.01	1238.51
743.195	1107.44
743.38	1172.97
743.565	1185.26
743.75	1129.97
743.935	1146.35
744.12	1129.97
744.305	1109.49
744.49	1166.83
744.675	1140.21
744.86	1148.4
745.045	1146.35
745.23	1162.73
745.415	1185.26
745.6	1136.11
745.785	1134.06
745.97	1152.49
746.155	1144.3
746.34	1078.77
746.525	1113.58
746.71	1072.62
746.895	1078.77
747.079	1007.09
747.264	1060.34
747.449	1019.38
747.634	1017.33
747.819	1072.62
748.003	1099.25
748.188	1031.66
748.373	1000.94
748.557	1007.09
748.742	1056.24
748.927	980.47
749.111	974.32
749.296	1021.42
749.481	1058.29
749.665	1037.81
749.85	1023.47
750.034	984.56
750.219	927.22
750.404	964.08
750.588	951.79
750.773	947.7
750.957	998.9
751.141	949.75
751.326	976.37
751.51	927.22
751.695	861.68
751.879	931.31
752.064	900.59
752.248	957.94
752.432	921.07
752.617	966.13
752.801	888.31
752.985	886.26
753.17	871.92
753.354	853.49
753.538	943.6
753.722	804.34
753.907	882.16
754.091	869.87
754.275	783.86
754.459	798.2
754.643	880.11
754.828	730.61
755.012	828.92
755.196	853.49
755.38	828.92
755.564	871.92
755.748	822.77
755.932	830.96
756.116	749.04
756.3	783.86
756.484	810.48
756.668	755.19
756.852	720.37
757.036	771.57
757.22	771.57
757.404	787.96
757.588	769.52
757.772	714.23
757.956	615.93
758.14	728.56
758.323	689.65
758.507	736.76
758.691	675.32
758.875	720.37
759.059	679.41
759.242	632.31
759.426	687.61
759.61	654.84
759.794	613.88
759.977	759.28
760.161	708.09
760.345	638.45
760.528	728.56
760.712	706.04
760.895	703.99
761.079	617.97
761.263	660.98
761.446	560.63
761.63	564.73
761.813	685.56
761.997	654.84
762.18	613.88
762.364	673.27
762.547	607.73
762.731	636.41
762.914	544.25
763.098	615.93
763.281	540.15
763.464	615.93
763.648	558.58
763.831	630.26
764.015	517.62
764.198	673.27
764.381	605.69
764.564	632.31
764.748	609.78
764.931	579.06
765.114	605.69
765.297	671.22
765.481	593.4
765.664	622.07
765.847	605.69
766.03	585.21
766.213	511.48
766.397	640.5
766.58	595.45
766.763	488.95
766.946	603.64
767.129	540.15
767.312	564.73
767.495	499.19
767.678	536.06
767.861	558.58
768.044	613.88
768.227	523.77
768.41	550.39
768.593	593.4
768.776	527.86
768.959	568.82
769.142	531.96
769.324	538.1
769.507	607.73
769.69	546.3
769.873	548.34
770.056	546.3
770.239	550.39
770.421	607.73
770.604	470.52
770.787	523.77
770.97	593.4
771.152	470.52
771.335	499.19
771.518	523.77
771.7	519.67
771.883	443.9
772.066	515.58
772.248	519.67
772.431	525.82
772.613	478.71
772.796	476.66
772.978	531.96
773.161	558.58
773.343	493.05
773.526	398.84
773.708	480.76
773.891	507.38
774.073	515.58
774.256	503.29
774.438	476.66
774.621	531.96
774.803	443.9
774.985	447.99
775.168	413.18
775.35	419.32
775.532	470.52
775.715	407.03
775.897	454.14
776.079	433.66
776.261	376.31
776.444	484.86
776.626	382.46
776.808	499.19
776.99	417.27
777.173	450.04
777.355	394.75
777.537	437.75
777.719	380.41
777.901	390.65
778.083	454.14
778.265	400.89
778.447	361.98
778.629	452.09
778.811	411.13
778.993	427.51
779.175	335.35
779.357	452.09
779.539	347.64
779.721	349.69
779.903	343.55
780.085	392.7
780.267	300.54
780.449	417.27
780.631	339.45
780.812	331.26
780.994	312.83
781.176	337.4
781.358	398.84
781.54	314.88
781.721	286.2
781.903	310.78
782.085	314.88
782.267	343.55
782.448	361.98
782.63	357.88
782.812	310.78
782.993	355.83
783.175	368.12
783.357	351.74
783.538	361.98
783.72	304.64
783.901	257.53
784.083	386.55
784.264	335.35
784.446	376.31
784.627	333.31
784.809	288.25
784.99	314.88
785.172	296.44
785.353	198.14
785.535	275.96
785.716	263.68
785.897	148.99
786.079	278.01
786.26	159.23
786.441	312.83
786.623	232.96
786.804	220.67
786.985	261.63
787.167	286.2
787.348	222.72
787.529	228.86
787.71	302.59
787.891	206.33
788.073	189.95
788.254	257.53
788.435	261.63
788.616	232.96
788.797	249.34
788.978	253.44
789.159	226.81
789.34	267.77
789.522	275.96
789.703	261.63
789.884	206.33
790.065	185.85
790.246	185.85
790.427	239.1
790.607	148.99
790.788	200.19
790.969	165.37
791.15	194.05
791.331	220.67
791.512	224.76
791.693	134.65
791.874	196.09
792.054	310.78
792.235	224.76
792.416	187.9
792.597	167.42
792.778	224.76
792.958	142.85
793.139	187.9
793.32	310.78
793.5	249.34
793.681	253.44
793.862	198.14
794.042	126.46
794.223	167.42
794.404	235
794.584	142.85
794.765	185.85
794.945	181.76
795.126	198.14
795.306	216.57
795.487	189.95
795.667	200.19
795.848	120.32
796.028	202.24
796.209	173.57
796.389	259.58
796.57	126.46
796.75	144.89
796.93	116.22
797.111	189.95
797.291	130.56
797.471	138.75
797.652	116.22
797.832	148.99
798.012	146.94
798.192	214.52
798.373	153.09
798.553	163.33
798.733	151.04
798.913	91.65
799.093	136.7
799.274	132.61
799.454	153.09
799.634	140.8
799.814	241.15
799.994	151.04
800.174	140.8
800.354	130.56
800.534	97.79
800.714	210.43
800.894	124.41
801.074	157.18
801.254	124.41
801.434	118.27
801.614	44.54
801.794	171.52
801.974	294.4
802.154	138.75
802.334	163.33
802.514	130.56
802.693	155.13
802.873	163.33
803.053	132.61
803.233	132.61
803.413	163.33
803.592	116.22
803.772	71.17
803.952	159.23
804.131	122.37
804.311	118.27
804.491	142.85
804.67	7.68
804.85	196.09
805.03	26.11
805.209	208.38
805.389	173.57
805.568	130.56
805.748	114.17
805.928	171.52
806.107	126.46
806.287	105.98
806.466	91.65
806.646	124.41
806.825	73.21
807.004	108.03
807.184	44.54
807.363	159.23
807.543	177.66
807.722	144.89
807.901	136.7
808.081	120.32
808.26	60.93
808.439	179.71
808.619	134.65
808.798	101.89
808.977	146.94
809.156	151.04
809.336	126.46
809.515	87.55
809.694	32.26
809.873	181.76
810.052	116.22
810.231	163.33
810.411	138.75
810.59	132.61
810.769	85.5
810.948	101.89
811.127	75.26
811.306	128.51
811.485	175.61
811.664	87.55
811.843	73.21
812.022	77.31
812.201	120.32
812.38	114.17
812.559	52.74
812.737	75.26
812.916	52.74
813.095	79.36
813.274	93.69
813.453	97.79
813.632	65.02
813.811	112.13
813.989	93.69
814.168	108.03
814.347	108.03
814.526	81.41
814.704	108.03
814.883	69.12
815.062	110.08
815.24	91.65
815.419	-10.75
815.598	105.98
815.776	40.45
815.955	54.78
816.133	-2.56
816.312	118.27
816.49	1.54
816.669	85.5
816.847	36.35
817.026	89.6
817.204	87.55
817.383	124.41
817.561	91.65
817.74	132.61
817.918	-14.85
818.097	83.45
818.275	-2.56
818.453	26.11
818.632	46.59
818.81	73.21
818.988	7.68
819.167	36.35
819.345	122.37
819.523	32.26
819.701	71.17
819.879	26.11
820.058	87.55
820.236	85.5
820.414	62.98
820.592	58.88
820.77	48.64
820.948	101.89
821.127	114.17
821.305	42.5
821.483	22.02
821.661	91.65
821.839	52.74
822.017	101.89
822.195	58.88
822.373	69.12
822.551	40.45
822.729	32.26
822.907	48.64
823.085	34.3
823.262	40.45
823.44	75.26
823.618	34.3
823.796	62.98
823.974	67.07
824.152	30.21
824.329	58.88
824.507	40.45
824.685	54.78
824.863	60.93
825.04	67.07
825.218	7.68
825.396	58.88
825.574	116.22
825.751	-8.7
825.929	50.69
826.107	42.5
826.284	65.02
826.462	71.17
826.639	42.5
826.817	-8.7
826.994	44.54
827.172	42.5
827.349	46.59
827.527	81.41
827.704	69.12
827.882	58.88
828.059	52.74
828.237	32.26
828.414	44.54
828.591	42.5
828.769	-0.51
828.946	24.06
829.124	46.59
829.301	44.54
829.478	24.06
829.655	-8.7
829.833	30.21
830.01	38.4
830.187	85.5
830.364	58.88
830.542	36.35
830.719	26.11
830.896	58.88
831.073	19.97
831.25	105.98
831.427	60.93
831.604	32.26
831.782	42.5
831.959	13.82
832.136	-12.8
832.313	126.46
832.49	15.87
832.667	114.17
832.844	24.06
833.021	124.41
833.198	50.69
833.374	69.12
833.551	17.92
833.728	48.64
833.905	85.5
834.082	50.69
834.259	19.97
834.436	58.88
834.612	52.74
834.789	97.79
834.966	73.21
835.143	60.93
835.319	83.45
835.496	11.78
835.673	67.07
835.85	62.98
836.026	46.59
836.203	50.69
836.38	-4.61
836.556	30.21
836.733	7.68
836.909	40.45
837.086	11.78
837.262	-16.9
837.439	17.92
837.616	32.26
837.792	-57.86
837.968	77.31
838.145	-47.62
838.321	48.64
838.498	75.26
838.674	56.83
838.851	30.21
839.027	48.64
839.203	34.3
839.38	11.78
839.556	-23.04
839.732	52.74
839.909	-47.62
840.085	46.59
840.261	9.73
840.437	56.83
840.614	24.06
840.79	-12.8
840.966	26.11
841.142	65.02
841.318	46.59
841.494	69.12
841.671	-29.18
841.847	9.73
842.023	105.98
842.199	73.21
842.375	32.26
842.551	-12.8
842.727	26.11
842.903	65.02
843.079	65.02
843.255	40.45
843.431	17.92
843.607	42.5
843.783	71.17
843.959	81.41
844.134	71.17
844.31	19.97
844.486	36.35
844.662	-16.9
844.838	32.26
845.013	-6.66
845.189	13.82
845.365	32.26
845.541	36.35
845.716	30.21
845.892	1.54
846.068	28.16
846.244	15.87
846.419	44.54
846.595	75.26
846.77	65.02
846.946	67.07
847.122	17.92
847.297	17.92
847.473	-59.9
847.648	-16.9
847.824	28.16
847.999	38.4
848.175	-6.66
848.35	-10.75
848.526	-6.66
848.701	42.5
848.876	56.83
849.052	-14.85
849.227	5.63
849.403	-2.56
849.578	56.83
849.753	42.5
849.929	9.73
850.104	13.82
850.279	34.3
850.454	-16.9
850.63	-39.42
850.805	-2.56
850.98	54.78
851.155	17.92
851.33	-4.61
851.505	26.11
851.681	26.11
851.856	34.3
852.031	48.64
852.206	9.73
852.381	32.26
852.556	19.97
852.731	32.26
852.906	15.87
853.081	62.98
853.256	30.21
853.431	3.58
853.606	-12.8
853.781	13.82
853.956	26.11
854.131	30.21
854.305	7.68
854.48	15.87
854.655	17.92
854.83	26.11
855.005	36.35
855.18	36.35
855.354	9.73
855.529	13.82
855.704	-20.99
855.879	36.35
856.053	9.73
856.228	36.35
856.403	19.97
856.577	24.06
856.752	17.92
856.926	17.92
857.101	58.88
857.276	62.98
857.45	-6.66
857.625	38.4
857.799	15.87
857.974	36.35
858.148	19.97
858.323	-6.66
858.497	-23.04
858.672	32.26
858.846	-20.99
859.02	-0.51
859.195	81.41
859.369	-31.23
859.543	48.64
859.718	-59.9
859.892	-0.51
860.066	-31.23
860.241	-31.23
860.415	7.68
860.589	-70.14
860.763	13.82
860.938	7.68
861.112	65.02
861.286	36.35
861.46	42.5
861.634	40.45
861.808	-27.14
861.982	110.08
862.157	50.69
862.331	-31.23
862.505	34.3
862.679	-10.75
862.853	-16.9
863.027	5.63
863.201	-43.52
863.375	-8.7
863.549	52.74
863.722	60.93
863.896	24.06
864.07	-27.14
864.244	26.11
864.418	62.98
864.592	-61.95
864.766	32.26
864.939	26.11
865.113	52.74
865.287	-53.76
865.461	83.45
865.634	-0.51
865.808	7.68
865.982	42.5
866.156	-16.9
866.329	1.54
866.503	-12.8
866.676	48.64
866.85	-64
867.024	-39.42
867.197	32.26
867.371	9.73
867.544	-4.61
867.718	-2.56
867.891	58.88
868.065	24.06
868.238	38.4
868.412	9.73
868.585	-16.9
868.759	-55.81
868.932	42.5
869.105	26.11
869.279	-49.66
869.452	-18.94
869.625	22.02
869.799	26.11
869.972	1.54
870.145	-23.04
870.319	-16.9
870.492	32.26
870.665	24.06
870.838	-16.9
871.011	-25.09
871.185	-8.7
871.358	-41.47
871.531	26.11
871.704	-33.28
871.877	62.98
872.05	-0.51
872.223	58.88
872.396	-20.99
872.569	99.84
872.742	36.35
872.915	-16.9
873.088	-49.66
873.261	17.92
873.434	9.73
873.607	36.35
873.78	-33.28
873.953	36.35
874.126	-27.14
874.299	-10.75
874.471	105.98
874.644	19.97
874.817	42.5
874.99	50.69
875.163	-37.38
875.335	22.02
875.508	-88.57
875.681	9.73
875.853	-27.14
876.026	-16.9
876.199	-57.86
876.371	-53.76
876.544	24.06
876.717	-4.61
876.889	-8.7
877.062	15.87
877.234	-25.09
877.407	-0.51
877.579	15.87
877.752	17.92
877.924	9.73
878.097	28.16
878.269	77.31
878.442	-57.86
878.614	-4.61
878.786	50.69
878.959	-20.99
879.131	-4.61
879.303	9.73
879.476	-64
879.648	13.82
879.82	65.02
879.993	40.45
880.165	87.55
880.337	40.45
880.509	42.5
880.681	42.5
880.854	-2.56
881.026	-23.04
881.198	44.54
881.37	-16.9
881.542	-8.7
881.714	1.54
881.886	17.92
882.058	24.06
882.23	-4.61
882.402	69.12
882.574	-57.86
882.746	30.21
882.918	-29.18
883.09	5.63
883.262	-14.85
883.434	-6.66
883.606	-35.33
883.778	36.35
883.95	-16.9
884.122	42.5
884.293	-16.9
884.465	-72.19
884.637	67.07
884.809	-43.52
884.98	17.92
885.152	3.58
885.324	30.21
885.496	19.97
885.667	-2.56
885.839	-16.9
886.011	-29.18
886.182	5.63
886.354	62.98
886.525	-64
886.697	44.54
886.869	7.68
887.04	5.63
887.212	-20.99
887.383	9.73
887.555	1.54
887.726	5.63
887.897	-2.56
888.069	13.82
888.24	-64
888.412	-6.66
888.583	-14.85
888.754	44.54
888.926	52.74
889.097	-14.85
889.268	-23.04
889.44	26.11
889.611	-31.23
889.782	-31.23
889.953	-16.9
890.125	-14.85
890.296	22.02
890.467	24.06
890.638	-45.57
890.809	48.64
890.98	36.35
891.151	-18.94
891.323	-33.28
891.494	40.45
891.665	-35.33
891.836	19.97
892.007	19.97
892.178	-64
892.349	38.4
892.52	-4.61
892.691	-8.7
892.862	9.73
893.032	-55.81
893.203	9.73
893.374	-31.23
893.545	93.69
893.716	24.06
893.887	-12.8
894.057	11.78
894.228	-14.85
894.399	-23.04
894.57	48.64
894.74	9.73
894.911	17.92
895.082	50.69
895.253	-4.61
895.423	-49.66
895.594	36.35
895.764	5.63
895.935	-55.81
896.106	3.58
896.276	1.54
896.447	15.87
896.617	-49.66
896.788	-8.7
896.958	-55.81
897.129	24.06
897.299	-6.66
897.47	38.4
897.64	-14.85
897.81	-25.09
897.981	28.16
898.151	15.87
898.322	36.35
898.492	-8.7
898.662	42.5
898.832	-41.47
899.003	24.06
899.173	-39.42
899.343	11.78
899.513	-29.18
