Data from USB4F104151__28__12-58-45-988.txt Node

Date: Fri Mar 14 12:58:45 EDT 2025
User: louis
Spectrometer: USB4F10415
Trigger mode: 4
Integration Time (sec): 1.000000E-2
Scans to average: 1
Electric dark correction enabled: true
Nonlinearity correction enabled: false
Boxcar width: 0
XAxis mode: Wavelengths
Number of Pixels in Spectrum: 3648
>>>>>Begin Spectral Data<<<<<
178.204	-10.41
178.424	-10.41
178.644	-10.41
178.864	-63.66
179.084	-2.22
179.304	38.74
179.524	-26.79
179.744	-20.65
179.964	-45.23
180.184	-75.95
180.404	-0.17
180.624	1.88
180.844	-34.99
181.064	14.17
181.283	48.98
181.503	30.55
181.723	69.46
181.943	-12.46
182.163	18.26
182.383	20.31
182.602	-41.13
182.822	-8.36
183.042	44.88
183.262	-71.85
183.482	-26.79
183.701	-26.79
183.921	18.26
184.141	-39.08
184.361	34.64
184.58	-20.65
184.8	-39.08
185.02	28.5
185.239	-39.08
185.459	44.88
185.679	34.64
185.898	-20.65
186.118	42.84
186.338	30.55
186.557	59.22
186.777	-69.8
186.997	5.97
187.216	-14.51
187.436	94.04
187.655	5.97
187.875	40.79
188.095	-53.42
188.314	100.18
188.534	-67.75
188.753	-26.79
188.973	-4.27
189.192	53.08
189.412	5.97
189.631	-10.41
189.851	-65.71
190.07	-22.7
190.29	-8.36
190.509	-20.65
190.729	61.27
190.948	22.36
191.168	61.27
191.387	42.84
191.607	-10.41
191.826	63.32
192.045	-39.08
192.265	14.17
192.484	36.69
192.704	-18.6
192.923	-63.66
193.142	36.69
193.362	79.7
193.581	14.17
193.8	1.88
194.02	8.02
194.239	-2.22
194.458	28.5
194.678	55.12
194.897	-0.17
195.116	18.26
195.335	-61.61
195.555	14.17
195.774	-22.7
195.993	22.36
196.212	-34.99
196.432	3.93
196.651	53.08
196.87	-37.03
197.089	73.56
197.308	-59.56
197.528	-53.42
197.747	-39.08
197.966	38.74
198.185	48.98
198.404	-12.46
198.623	-51.37
198.842	-2.22
199.062	-37.03
199.281	18.26
199.5	48.98
199.719	-30.89
199.938	-71.85
200.157	20.31
200.376	38.74
200.595	40.79
200.814	8.02
201.033	53.08
201.252	5.97
201.471	-22.7
201.69	53.08
201.909	-37.03
202.128	-4.27
202.347	24.4
202.566	-16.55
202.785	-51.37
203.004	8.02
203.223	-22.7
203.442	-18.6
203.661	-30.89
203.879	-6.31
204.098	10.07
204.317	-6.31
204.536	-41.13
204.755	3.93
204.974	26.45
205.193	-20.65
205.411	53.08
205.63	-4.27
205.849	-14.51
206.068	-20.65
206.287	-73.9
206.505	30.55
206.724	59.22
206.943	34.64
207.162	-53.42
207.381	-37.03
207.599	3.93
207.818	55.12
208.037	-39.08
208.255	-30.89
208.474	55.12
208.693	3.93
208.911	-2.22
209.13	12.12
209.349	-26.79
209.567	24.4
209.786	-39.08
210.005	-18.6
210.223	59.22
210.442	-34.99
210.661	-4.27
210.879	-26.79
211.098	-51.37
211.316	28.5
211.535	-32.94
211.753	3.93
211.972	-12.46
212.191	-2.22
212.409	-0.17
212.628	3.93
212.846	20.31
213.065	30.55
213.283	40.79
213.502	44.88
213.72	18.26
213.938	5.97
214.157	81.75
214.375	12.12
214.594	22.36
214.812	-8.36
215.031	-75.95
215.249	-26.79
215.467	16.21
215.686	1.88
215.904	-24.75
216.122	42.84
216.341	73.56
216.559	-14.51
216.778	48.98
216.996	20.31
217.214	12.12
217.432	20.31
217.651	3.93
217.869	36.69
218.087	65.36
218.306	3.93
218.524	1.88
218.742	46.93
218.96	3.93
219.179	-20.65
219.397	-65.71
219.615	40.79
219.833	46.93
220.051	42.84
220.27	-34.99
220.488	16.21
220.706	18.26
220.924	-20.65
221.142	-80.04
221.36	-90.28
221.578	-20.65
221.796	24.4
222.015	71.51
222.233	53.08
222.451	57.17
222.669	-28.84
222.887	-34.99
223.105	16.21
223.323	12.12
223.541	-45.23
223.759	10.07
223.977	-4.27
224.195	8.02
224.413	26.45
224.631	8.02
224.849	18.26
225.067	-4.27
225.285	30.55
225.503	-32.94
225.721	-49.32
225.939	89.94
226.157	-47.27
226.375	-20.65
226.592	-0.17
226.81	40.79
227.028	26.45
227.246	-22.7
227.464	71.51
227.682	-37.03
227.9	-14.51
228.117	28.5
228.335	-20.65
228.553	-6.31
228.771	16.21
228.989	46.93
229.206	61.27
229.424	-39.08
229.642	-53.42
229.86	32.6
230.077	-34.99
230.295	18.26
230.513	53.08
230.731	44.88
230.948	3.93
231.166	26.45
231.384	-18.6
231.601	20.31
231.819	8.02
232.037	12.12
232.254	73.56
232.472	-34.99
232.689	-20.65
232.907	81.75
233.125	-28.84
233.342	40.79
233.56	-16.55
233.777	-77.99
233.995	61.27
234.213	3.93
234.43	-43.18
234.648	81.75
234.865	-39.08
235.083	71.51
235.3	-37.03
235.518	51.03
235.735	77.65
235.953	16.21
236.17	-96.43
236.388	32.6
236.605	12.12
236.822	14.17
237.04	67.41
237.257	24.4
237.475	40.79
237.692	-20.65
237.909	110.42
238.127	18.26
238.344	8.02
238.562	-14.51
238.779	-18.6
238.996	26.45
239.214	-12.46
239.431	104.28
239.648	-26.79
239.865	53.08
240.083	14.17
240.3	-6.31
240.517	-51.37
240.735	8.02
240.952	-2.22
241.169	-6.31
241.386	-26.79
241.603	-18.6
241.821	-6.31
242.038	-32.94
242.255	5.97
242.472	-43.18
242.689	38.74
242.907	18.26
243.124	14.17
243.341	8.02
243.558	1.88
243.775	-114.86
243.992	46.93
244.209	-41.13
244.426	-2.22
244.643	-8.36
244.86	40.79
245.078	20.31
245.295	12.12
245.512	65.36
245.729	-4.27
245.946	-18.6
246.163	-34.99
246.38	-59.56
246.597	8.02
246.814	38.74
247.031	5.97
247.248	3.93
247.464	24.4
247.681	61.27
247.898	1.88
248.115	26.45
248.332	8.02
248.549	14.17
248.766	28.5
248.983	30.55
249.2	-32.94
249.417	53.08
249.633	28.5
249.85	-0.17
250.067	-0.17
250.284	5.97
250.501	81.75
250.717	-6.31
250.934	-47.27
251.151	-28.84
251.368	-59.56
251.585	12.12
251.801	42.84
252.018	-16.55
252.235	12.12
252.451	-0.17
252.668	57.17
252.885	-18.6
253.102	12.12
253.318	10.07
253.535	-28.84
253.752	-55.47
253.968	24.4
254.185	-4.27
254.401	20.31
254.618	1.88
254.835	-65.71
255.051	94.04
255.268	8.02
255.484	53.08
255.701	91.99
255.917	10.07
256.134	44.88
256.351	-26.79
256.567	28.5
256.784	30.55
257	3.93
257.217	5.97
257.433	44.88
257.65	63.32
257.866	61.27
258.082	61.27
258.299	-22.7
258.515	30.55
258.732	20.31
258.948	36.69
259.165	63.32
259.381	36.69
259.597	77.65
259.814	44.88
260.03	-4.27
260.246	3.93
260.463	-37.03
260.679	32.6
260.895	24.4
261.112	-10.41
261.328	-20.65
261.544	-2.22
261.761	8.02
261.977	-75.95
262.193	28.5
262.409	3.93
262.626	20.31
262.842	-41.13
263.058	-37.03
263.274	40.79
263.49	-18.6
263.707	-10.41
263.923	-10.41
264.139	18.26
264.355	-14.51
264.571	53.08
264.787	61.27
265.004	40.79
265.22	-2.22
265.436	5.97
265.652	14.17
265.868	-4.27
266.084	40.79
266.3	-18.6
266.516	-20.65
266.732	22.36
266.948	-12.46
267.164	-2.22
267.38	-57.51
267.596	32.6
267.812	24.4
268.028	3.93
268.244	12.12
268.46	-22.7
268.676	59.22
268.892	55.12
269.108	-63.66
269.324	-10.41
269.54	14.17
269.756	14.17
269.972	-49.32
270.188	-20.65
270.403	12.12
270.619	20.31
270.835	63.32
271.051	36.69
271.267	14.17
271.483	-0.17
271.698	18.26
271.914	38.74
272.13	1.88
272.346	-59.56
272.562	-10.41
272.777	61.27
272.993	12.12
273.209	-34.99
273.425	-4.27
273.64	14.17
273.856	40.79
274.072	26.45
274.287	5.97
274.503	14.17
274.719	-10.41
274.934	32.6
275.15	3.93
275.366	-39.08
275.581	-2.22
275.797	5.97
276.012	24.4
276.228	26.45
276.444	26.45
276.659	53.08
276.875	-37.03
277.09	-47.27
277.306	-41.13
277.521	57.17
277.737	46.93
277.952	-55.47
278.168	-67.75
278.383	10.07
278.599	34.64
278.814	38.74
279.03	18.26
279.245	-6.31
279.461	5.97
279.676	-24.75
279.892	-41.13
280.107	55.12
280.322	14.17
280.538	24.4
280.753	1.88
280.969	-14.51
281.184	-63.66
281.399	-4.27
281.615	-18.6
281.83	16.21
282.045	28.5
282.26	1.88
282.476	-26.79
282.691	42.84
282.906	26.45
283.122	34.64
283.337	67.41
283.552	10.07
283.767	18.26
283.983	42.84
284.198	-14.51
284.413	32.6
284.628	1.88
284.843	8.02
285.058	34.64
285.274	51.03
285.489	28.5
285.704	-28.84
285.919	-90.28
286.134	38.74
286.349	53.08
286.564	32.6
286.779	26.45
286.995	-26.79
287.21	-41.13
287.425	-43.18
287.64	32.6
287.855	42.84
288.07	-71.85
288.285	57.17
288.5	38.74
288.715	61.27
288.93	67.41
289.145	-6.31
289.36	32.6
289.575	44.88
289.79	44.88
290.004	-12.46
290.219	-20.65
290.434	16.21
290.649	-14.51
290.864	10.07
291.079	-24.75
291.294	-34.99
291.509	-45.23
291.724	18.26
291.938	48.98
292.153	20.31
292.368	53.08
292.583	36.69
292.798	-24.75
293.012	-32.94
293.227	5.97
293.442	-18.6
293.657	-45.23
293.871	3.93
294.086	14.17
294.301	-24.75
294.516	-10.41
294.73	75.6
294.945	22.36
295.16	-6.31
295.374	59.22
295.589	10.07
295.804	-59.56
296.018	-26.79
296.233	20.31
296.447	75.6
296.662	-69.8
296.877	55.12
297.091	44.88
297.306	22.36
297.52	-55.47
297.735	51.03
297.949	-14.51
298.164	16.21
298.378	-63.66
298.593	-24.75
298.807	-69.8
299.022	28.5
299.236	-26.79
299.451	-28.84
299.665	12.12
299.88	20.31
300.094	5.97
300.309	30.55
300.523	55.12
300.737	5.97
300.952	16.21
301.166	-37.03
301.381	-34.99
301.595	3.93
301.809	46.93
302.024	-20.65
302.238	-53.42
302.452	-20.65
302.667	-53.42
302.881	-41.13
303.095	14.17
303.309	63.32
303.524	-41.13
303.738	73.56
303.952	24.4
304.166	3.93
304.381	67.41
304.595	77.65
304.809	-4.27
305.023	18.26
305.237	12.12
305.452	46.93
305.666	5.97
305.88	14.17
306.094	38.74
306.308	34.64
306.522	-28.84
306.736	-4.27
306.95	-24.75
307.164	53.08
307.379	-16.55
307.593	-51.37
307.807	75.6
308.021	-8.36
308.235	-24.75
308.449	18.26
308.663	-4.27
308.877	53.08
309.091	30.55
309.305	38.74
309.519	-16.55
309.733	42.84
309.947	-82.09
310.161	16.21
310.374	-8.36
310.588	5.97
310.802	5.97
311.016	-20.65
311.23	-28.84
311.444	55.12
311.658	-67.75
311.872	38.74
312.085	-16.55
312.299	20.31
312.513	-4.27
312.727	-14.51
312.941	40.79
313.154	44.88
313.368	3.93
313.582	-37.03
313.796	67.41
314.009	-39.08
314.223	69.46
314.437	71.51
314.651	-20.65
314.864	12.12
315.078	-8.36
315.292	28.5
315.505	-0.17
315.719	-32.94
315.933	36.69
316.146	-12.46
316.36	10.07
316.573	18.26
316.787	20.31
317.001	-10.41
317.214	-41.13
317.428	65.36
317.641	77.65
317.855	-65.71
318.068	-20.65
318.282	42.84
318.495	55.12
318.709	36.69
318.922	-55.47
319.136	44.88
319.349	-12.46
319.563	-2.22
319.776	46.93
319.99	-8.36
320.203	14.17
320.417	-32.94
320.63	-0.17
320.843	-0.17
321.057	-2.22
321.27	30.55
321.483	28.5
321.697	10.07
321.91	-18.6
322.124	-28.84
322.337	26.45
322.55	-59.56
322.763	24.4
322.977	-24.75
323.19	12.12
323.403	57.17
323.617	-0.17
323.83	-28.84
324.043	32.6
324.256	-20.65
324.469	-24.75
324.683	26.45
324.896	16.21
325.109	-30.89
325.322	12.12
325.535	14.17
325.748	53.08
325.962	-30.89
326.175	34.64
326.388	69.46
326.601	-28.84
326.814	40.79
327.027	40.79
327.24	46.93
327.453	-61.61
327.666	44.88
327.879	-10.41
328.092	22.36
328.305	-2.22
328.518	18.26
328.731	-43.18
328.944	38.74
329.157	40.79
329.37	-24.75
329.583	-4.27
329.796	38.74
330.009	22.36
330.222	55.12
330.435	-12.46
330.648	5.97
330.861	-8.36
331.073	20.31
331.286	46.93
331.499	61.27
331.712	-45.23
331.925	-12.46
332.138	-47.27
332.35	36.69
332.563	20.31
332.776	-61.61
332.989	36.69
333.202	71.51
333.414	10.07
333.627	46.93
333.84	-47.27
334.053	96.08
334.265	-30.89
334.478	26.45
334.691	-8.36
334.903	-45.23
335.116	30.55
335.329	-30.89
335.541	77.65
335.754	-34.99
335.966	-30.89
336.179	51.03
336.392	-26.79
336.604	16.21
336.817	-20.65
337.029	22.36
337.242	34.64
337.454	3.93
337.667	3.93
337.88	8.02
338.092	71.51
338.305	71.51
338.517	51.03
338.729	34.64
338.942	-41.13
339.154	-30.89
339.367	24.4
339.579	46.93
339.792	96.08
340.004	3.93
340.217	-24.75
340.429	5.97
340.641	30.55
340.854	63.32
341.066	-80.04
341.278	24.4
341.491	-6.31
341.703	-20.65
341.915	12.12
342.128	-6.31
342.34	-18.6
342.552	8.02
342.764	16.21
342.977	89.94
343.189	28.5
343.401	-10.41
343.613	-65.71
343.826	55.12
344.038	26.45
344.25	18.26
344.462	30.55
344.674	34.64
344.886	22.36
345.099	14.17
345.311	53.08
345.523	20.31
345.735	-34.99
345.947	69.46
346.159	-75.95
346.371	1.88
346.583	-12.46
346.795	-37.03
347.007	-0.17
347.219	-2.22
347.431	12.12
347.643	44.88
347.855	44.88
348.067	-18.6
348.279	-34.99
348.491	-20.65
348.703	16.21
348.915	20.31
349.127	44.88
349.339	20.31
349.551	-0.17
349.763	12.12
349.975	-43.18
350.187	-8.36
350.399	12.12
350.61	3.93
350.822	3.93
351.034	-14.51
351.246	-59.56
351.458	22.36
351.669	-2.22
351.881	28.5
352.093	16.21
352.305	-2.22
352.517	48.98
352.728	20.31
352.94	-24.75
353.152	10.07
353.363	-55.47
353.575	36.69
353.787	63.32
353.999	61.27
354.21	1.88
354.422	8.02
354.633	-2.22
354.845	-0.17
355.057	-75.95
355.268	48.98
355.48	-12.46
355.692	34.64
355.903	5.97
356.115	-10.41
356.326	24.4
356.538	89.94
356.749	28.5
356.961	38.74
357.172	-6.31
357.384	-61.61
357.595	75.6
357.807	10.07
358.018	24.4
358.23	24.4
358.441	-20.65
358.653	-22.7
358.864	-10.41
359.075	65.36
359.287	16.21
359.498	36.69
359.709	-4.27
359.921	57.17
360.132	48.98
360.344	48.98
360.555	-71.85
360.766	28.5
360.977	20.31
361.189	3.93
361.4	-45.23
361.611	77.65
361.823	10.07
362.034	-94.38
362.245	20.31
362.456	61.27
362.667	59.22
362.879	30.55
363.09	14.17
363.301	57.17
363.512	36.69
363.723	-55.47
363.935	57.17
364.146	42.84
364.357	-24.75
364.568	65.36
364.779	-53.42
364.99	3.93
365.201	18.26
365.412	-12.46
365.623	20.31
365.834	53.08
366.045	5.97
366.256	26.45
366.467	-53.42
366.678	71.51
366.889	34.64
367.1	26.45
367.311	85.84
367.522	-12.46
367.733	-30.89
367.944	-116.9
368.155	-45.23
368.366	10.07
368.577	16.21
368.788	12.12
368.999	14.17
369.209	30.55
369.42	5.97
369.631	65.36
369.842	12.12
370.053	3.93
370.264	-61.61
370.474	-0.17
370.685	61.27
370.896	-0.17
371.107	75.6
371.317	34.64
371.528	-49.32
371.739	61.27
371.95	38.74
372.16	28.5
372.371	-90.28
372.582	59.22
372.792	-20.65
373.003	34.64
373.214	-30.89
373.424	-22.7
373.635	30.55
373.846	20.31
374.056	5.97
374.267	-73.9
374.477	85.84
374.688	-0.17
374.898	32.6
375.109	-67.75
375.319	75.6
375.53	20.31
375.74	36.69
375.951	-0.17
376.161	16.21
376.372	44.88
376.582	10.07
376.793	-2.22
377.003	1.88
377.214	12.12
377.424	30.55
377.635	59.22
377.845	-55.47
378.055	16.21
378.266	28.5
378.476	42.84
378.686	-4.27
378.897	69.46
379.107	67.41
379.317	-10.41
379.528	-6.31
379.738	26.45
379.948	-8.36
380.158	5.97
380.369	12.12
380.579	12.12
380.789	-10.41
380.999	32.6
381.21	-10.41
381.42	59.22
381.63	57.17
381.84	44.88
382.05	-34.99
382.261	63.32
382.471	30.55
382.681	69.46
382.891	-0.17
383.101	24.4
383.311	-6.31
383.521	-28.84
383.731	5.97
383.941	71.51
384.151	22.36
384.361	3.93
384.571	63.32
384.781	-30.89
384.991	61.27
385.201	40.79
385.411	59.22
385.621	87.89
385.831	18.26
386.041	42.84
386.251	53.08
386.461	-26.79
386.671	67.41
386.881	-26.79
387.091	-6.31
387.301	-6.31
387.511	18.26
387.72	-47.27
387.93	53.08
388.14	-0.17
388.35	16.21
388.56	20.31
388.769	28.5
388.979	16.21
389.189	46.93
389.399	-2.22
389.609	18.26
389.818	81.75
390.028	48.98
390.238	12.12
390.447	26.45
390.657	26.45
390.867	-4.27
391.076	-28.84
391.286	-4.27
391.496	36.69
391.705	-0.17
391.915	-32.94
392.125	124.76
392.334	3.93
392.544	8.02
392.753	46.93
392.963	26.45
393.172	-8.36
393.382	44.88
393.591	-2.22
393.801	53.08
394.01	57.17
394.22	16.21
394.429	40.79
394.639	57.17
394.848	32.6
395.058	59.22
395.267	32.6
395.477	36.69
395.686	59.22
395.895	79.7
396.105	-41.13
396.314	46.93
396.524	-49.32
396.733	-28.84
396.942	26.45
397.152	77.65
397.361	38.74
397.57	67.41
397.78	75.6
397.989	48.98
398.198	10.07
398.407	100.18
398.617	57.17
398.826	28.5
399.035	-20.65
399.244	71.51
399.453	36.69
399.663	-26.79
399.872	106.32
400.081	-16.55
400.29	153.43
400.499	-34.99
400.708	36.69
400.917	-10.41
401.127	-14.51
401.336	57.17
401.545	63.32
401.754	98.13
401.963	20.31
402.172	98.13
402.381	110.42
402.59	87.89
402.799	14.17
403.008	67.41
403.217	57.17
403.426	96.08
403.635	34.64
403.844	77.65
404.053	102.23
404.262	-47.27
404.471	61.27
404.68	44.88
404.888	87.89
405.097	106.32
405.306	-24.75
405.515	57.17
405.724	8.02
405.933	59.22
406.142	87.89
406.35	128.85
406.559	104.28
406.768	83.8
406.977	83.8
407.185	100.18
407.394	132.95
407.603	44.88
407.812	69.46
408.02	94.04
408.229	46.93
408.438	106.32
408.646	77.65
408.855	87.89
409.064	149.33
409.272	118.61
409.481	48.98
409.69	126.8
409.898	96.08
410.107	106.32
410.315	159.57
410.524	104.28
410.733	85.84
410.941	151.38
411.15	208.72
411.358	182.1
411.567	175.95
411.775	151.38
411.984	218.96
412.192	204.63
412.401	206.67
412.609	153.43
412.818	235.35
413.026	202.58
413.234	311.12
413.443	245.59
413.651	227.15
413.86	235.35
414.068	304.98
414.276	255.83
414.485	294.74
414.693	288.59
414.901	216.91
415.11	294.74
415.318	374.61
415.526	343.89
415.734	405.33
415.943	421.71
416.151	421.71
416.359	339.79
416.567	350.03
416.776	350.03
416.984	452.43
417.192	440.14
417.4	466.77
417.608	448.33
417.817	511.82
418.025	571.21
418.233	493.39
418.441	534.35
418.649	630.6
418.857	575.31
419.065	610.12
419.273	522.06
419.481	628.56
419.689	657.23
419.897	646.99
420.105	671.56
420.313	677.71
420.521	790.35
420.729	737.1
420.937	720.71
421.145	823.11
421.353	839.5
421.561	796.49
421.769	802.63
421.977	1011.53
422.185	886.6
422.393	978.76
422.601	999.24
422.809	1019.72
423.017	999.24
423.224	1130.31
423.432	1208.13
423.64	1191.75
423.848	1236.8
424.056	1142.6
424.263	1337.15
424.471	1292.1
424.679	1314.63
424.887	1417.02
425.094	1474.37
425.302	1374.02
425.51	1486.65
425.718	1500.99
425.925	1560.38
426.133	1574.72
426.341	1623.87
426.548	1759.03
426.756	1820.47
426.964	1769.27
427.171	1855.29
427.379	2000.69
427.586	1939.26
427.794	2004.79
428.001	2019.13
428.209	2236.21
428.417	2254.64
428.624	2305.84
428.832	2332.47
429.039	2371.38
429.247	2336.56
429.454	2565.93
429.662	2555.69
429.869	2490.16
430.076	2735.92
430.284	2662.19
430.491	2758.44
430.699	2950.95
430.906	2895.66
431.114	3071.78
431.321	3094.31
431.528	3026.73
431.736	3426.08
431.943	3454.75
432.15	3456.8
432.358	3321.63
432.565	3561.25
432.772	3528.48
432.979	3858.2
433.187	3931.93
433.394	3882.78
433.601	4163.35
433.808	4132.63
434.016	4095.77
434.223	4323.09
434.43	4542.22
434.637	4435.73
434.844	4699.92
435.052	4847.37
435.259	4804.36
435.466	4878.09
435.673	4783.88
435.88	5119.75
436.087	5267.2
436.294	5472
436.501	5293.83
436.708	5228.29
436.915	5500.67
437.122	5828.35
437.329	5822.2
437.537	6078.2
437.743	6080.25
437.95	6110.97
438.157	6268.66
438.364	6579.95
438.571	6541.04
438.778	6498.03
438.985	7251.69
439.192	6817.52
439.399	7227.11
439.606	6913.77
439.813	7333.61
440.02	7806.69
440.227	7841.5
440.433	7585.51
440.64	7853.79
440.847	7902.94
441.054	8060.63
441.261	8611.54
441.467	8537.81
441.674	8687.31
441.881	9215.69
442.088	9082.57
442.294	8738.51
442.501	9047.76
442.708	9328.33
442.914	9449.16
443.121	9948.86
443.328	9746.11
443.534	10555.06
443.741	10225.34
443.948	9998.01
444.154	10989.23
444.361	10811.06
444.568	10733.23
444.774	11015.85
444.981	10864.3
445.187	11392.68
445.394	11630.24
445.6	11615.91
445.807	12658.32
446.013	12127.9
446.22	12441.24
446.426	12818.07
446.633	13321.87
446.839	13514.38
447.046	13192.84
447.252	13680.26
447.459	13651.59
447.665	14052.99
447.871	14343.8
448.078	15251.05
448.284	14274.17
448.491	14831.22
448.697	15441.51
448.903	15507.05
449.11	15335.02
449.316	15296.11
449.522	15539.82
449.728	16105.06
449.935	16387.68
450.141	16199.26
450.347	16729.69
450.553	16160.35
450.76	16449.11
450.966	16952.91
451.172	16705.11
451.378	17112.66
451.584	16764.5
451.791	17225.29
451.997	17090.13
452.203	17628.74
452.409	17585.74
452.615	17294.93
452.821	16701.01
453.027	16449.11
453.233	17573.45
453.44	16825.94
453.646	17083.98
453.852	17270.35
454.058	17632.84
454.264	16782.93
454.47	17411.66
454.676	16963.15
454.882	17684.04
455.088	15898.21
455.294	16250.46
455.5	16442.97
455.705	16502.36
455.911	16051.81
456.117	15685.22
456.323	15425.13
456.529	14655.09
456.735	15158.89
456.941	14943.86
457.147	14685.81
457.352	14102.14
457.558	13805.19
457.764	14167.68
457.97	13831.81
458.176	13522.57
458.381	13551.24
458.587	12848.79
458.793	12981.9
458.999	12054.17
459.204	13080.21
459.41	12500.63
459.616	11783.84
459.821	12025.5
460.027	11794.08
460.233	11521.7
460.438	10849.97
460.644	11210.41
460.85	10497.72
461.055	10514.1
461.261	10454.71
461.466	9744.06
461.672	9424.58
461.878	10208.95
462.083	9344.71
462.289	9213.64
462.494	8994.51
462.7	8838.86
462.905	8306.39
463.111	8763.09
463.316	8916.69
463.522	8623.83
463.727	8810.19
463.932	8634.07
464.138	8566.48
464.343	8603.35
464.549	8300.25
464.754	8490.71
464.959	8572.63
465.165	8271.58
465.37	8070.87
465.575	7841.5
465.781	8103.64
465.986	8195.8
466.191	7784.16
466.397	7929.56
466.602	7417.57
466.807	7773.92
467.012	7958.24
467.218	7593.7
467.423	7679.71
467.628	7591.65
467.833	7898.84
468.038	7542.5
468.244	7401.19
468.449	7716.58
468.654	7405.28
468.859	7425.76
469.064	7337.7
469.269	7163.62
469.474	7106.28
469.679	7407.33
469.885	7007.98
470.09	7239.4
470.295	7206.63
470.5	7081.71
470.705	6911.72
470.91	6772.46
471.115	6876.91
471.32	7014.12
471.525	6932.2
471.73	6723.31
471.935	6713.07
472.139	6579.95
472.344	6555.38
472.549	6526.71
472.754	6287.09
472.959	6295.29
473.164	5955.32
473.369	6131.45
473.574	6201.08
473.778	6272.76
473.983	6174.46
474.188	6020.86
474.393	5705.47
474.598	5943.03
474.802	5789.44
475.007	5836.54
475.212	5783.29
475.417	5476.1
475.621	5701.37
475.826	5625.6
476.031	5357.32
476.235	5449.47
476.44	5551.87
476.645	5463.81
476.849	5463.81
477.054	5367.56
477.259	5197.57
477.463	5328.64
477.668	5050.12
477.872	5115.66
478.077	5031.69
478.282	5039.88
478.486	4980.49
478.691	4925.19
478.895	4853.52
479.1	4966.15
479.304	4802.32
479.509	4681.49
479.713	4841.23
479.918	4765.45
480.122	4562.7
480.326	4837.13
480.531	4742.92
480.735	4706.06
480.94	4597.52
481.144	4667.15
481.348	4486.93
481.553	4525.84
481.757	4648.72
481.961	4671.25
482.166	4585.23
482.37	4630.29
482.574	4456.21
482.778	4441.87
482.983	4464.4
483.187	4554.51
483.391	4574.99
483.595	4527.89
483.8	4529.94
484.004	4572.94
484.208	4640.53
484.412	4601.62
484.616	4585.23
484.821	4493.07
485.025	4515.6
485.229	4452.11
485.433	4564.75
485.637	4513.55
485.841	4574.99
486.045	4519.7
486.249	4574.99
486.453	4435.73
486.657	4493.07
486.861	4689.68
487.065	4452.11
487.269	4452.11
487.473	4407.06
487.677	4472.59
487.881	4554.51
488.085	4468.5
488.289	4587.28
488.493	4497.17
488.697	4648.72
488.901	4529.94
489.105	4570.9
489.309	4732.69
489.512	4521.74
489.716	4634.38
489.92	4525.84
490.124	4558.61
490.328	4751.12
490.531	4607.76
490.735	4548.37
490.939	4620.05
491.143	4663.05
491.346	4773.64
491.55	4728.59
491.754	4812.56
491.958	4937.48
492.161	4757.26
492.365	4937.48
492.569	4695.82
492.772	4771.6
492.976	4785.93
493.18	5007.11
493.383	5005.06
493.587	4951.82
493.79	5017.35
493.994	5035.78
494.197	5146.37
494.401	5111.56
494.605	5136.13
494.808	5281.54
495.012	5183.24
495.215	5144.33
495.419	5222.15
495.622	5175.05
495.825	5467.91
496.029	5279.49
496.232	5371.65
496.436	5469.95
496.639	5551.87
496.843	5545.73
497.046	5670.65
497.249	5558.02
497.453	5730.05
497.656	5869.31
497.859	5762.81
498.063	5863.16
498.266	6115.06
498.469	5928.7
498.673	5963.51
498.876	6309.62
499.079	6194.93
499.282	6278.9
499.485	6393.59
499.689	6237.94
499.892	6616.82
500.095	6422.26
500.298	6618.86
500.501	6547.19
500.705	6903.53
500.908	6618.86
501.111	7073.51
501.314	7085.8
501.517	7253.73
501.72	7347.94
501.923	7218.92
502.126	7405.28
502.329	7710.43
502.532	7665.38
502.735	7532.26
502.938	7767.77
503.141	7966.43
503.344	7917.28
503.547	8066.78
503.75	8212.18
503.953	8263.38
504.156	8361.69
504.359	8523.48
504.562	8449.75
504.765	8720.08
504.968	8804.05
505.17	9000.65
505.373	8941.26
505.576	9123.53
505.779	9174.73
505.982	9318.09
506.185	9563.84
506.387	9354.95
506.59	9516.74
506.793	9684.67
506.996	9653.95
507.198	9940.67
507.401	10051.26
507.604	10116.79
507.807	10278.58
508.009	10303.16
508.212	10399.41
508.415	10553.01
508.617	10415.8
508.82	10858.16
509.022	10829.49
509.225	10847.92
509.428	11265.71
509.63	11288.23
509.833	11341.48
510.035	11466.41
510.238	11624.1
510.44	11914.91
510.643	11996.83
510.845	11972.25
511.048	12058.27
511.25	12168.86
511.453	12426.9
511.655	12730
511.858	12723.86
512.06	12631.7
512.262	12981.9
512.465	12983.95
512.667	13401.74
512.87	13336.2
513.072	13633.16
513.274	13678.21
513.477	13805.19
513.679	13883.01
513.881	14112.38
514.084	14253.69
514.286	14364.28
514.488	14347.9
514.69	14882.42
514.893	14874.23
515.095	15023.73
515.297	14952.05
515.499	15175.28
515.701	15545.96
515.904	15631.97
516.106	15593.06
516.308	16012.9
516.51	16287.32
516.712	16166.49
516.914	16369.24
517.116	16617.05
517.318	16750.17
517.52	16580.18
517.722	16918.1
517.925	17065.55
518.127	17397.32
518.329	17509.96
518.531	17428.04
518.733	17804.87
518.935	17976.9
519.136	18050.63
519.338	18132.54
519.54	17980.99
519.742	18701.88
519.944	18374.2
520.146	19058.23
520.348	19179.06
520.55	19086.9
520.752	19336.75
520.954	19629.61
521.155	19449.39
521.357	19742.25
521.559	20385.31
521.761	20264.48
521.963	20141.6
522.164	20645.4
522.366	20592.16
522.568	20907.54
522.77	20815.38
522.971	20839.96
523.173	21296.66
523.375	21302.8
523.576	21024.28
523.778	21272.08
523.98	21409.29
524.181	21691.91
524.383	21673.48
524.584	22197.76
524.786	22101.51
524.988	22193.67
525.189	22474.24
525.391	22396.42
525.592	22568.44
525.794	22965.75
525.995	22892.02
526.197	22982.13
526.398	22930.94
526.6	23047.67
526.801	23246.32
527.003	23369.2
527.204	22996.47
527.406	23510.51
527.607	23543.28
527.808	23780.84
528.01	23127.54
528.211	23690.73
528.412	24296.93
528.614	23936.49
528.815	23776.75
529.016	24129
529.218	24137.19
529.419	24178.15
529.62	24186.34
529.822	24057.32
530.023	24329.7
530.224	24026.6
530.425	24286.69
530.626	24348.13
530.828	24417.76
531.029	24563.17
531.23	24387.04
531.431	24669.66
531.632	24804.83
531.833	24972.76
532.035	24628.7
532.236	24577.5
532.437	25333.2
532.638	24643.04
532.839	25118.17
533.04	25171.41
533.241	24624.61
533.442	25316.82
533.643	24450.53
533.844	24847.83
534.045	24860.12
534.246	24583.65
534.447	25021.91
534.648	24767.96
534.849	25038.3
535.05	24841.69
535.251	25077.21
535.451	24800.73
535.652	25363.92
535.853	24972.76
536.054	25335.25
536.255	25148.89
536.456	24770.01
536.657	25445.84
536.857	25226.71
537.058	24921.56
537.259	25232.85
537.46	25195.99
537.66	25169.37
537.861	25202.13
538.062	24997.34
538.263	25089.49
538.463	25277.91
538.664	25077.21
538.865	25398.74
539.065	25451.98
539.266	24888.79
539.466	25329.11
539.667	24952.28
539.868	25621.97
540.068	25054.68
540.269	24899.03
540.469	25183.7
540.67	24847.83
540.87	24958.42
541.071	24983
541.271	24835.55
541.472	25122.26
541.672	24901.08
541.873	24882.65
542.073	24765.92
542.274	25255.38
542.474	24868.31
542.675	24919.51
542.875	25468.37
543.075	25150.93
543.276	24702.43
543.476	25243.09
543.676	24931.8
543.877	25187.8
544.077	25282
544.277	24901.08
544.478	24901.08
544.678	25124.31
544.878	24978.9
545.078	24890.84
545.279	24747.48
545.479	25103.83
545.679	24911.32
545.879	25107.93
546.079	24786.4
546.28	24997.34
546.48	24544.73
546.68	24939.99
546.88	24993.24
547.08	24794.59
547.28	24686.04
547.48	24792.54
547.68	24872.41
547.88	24792.54
548.081	24831.45
548.281	25118.17
548.481	25101.78
548.681	24987.1
548.881	24798.68
549.081	24931.8
549.28	24669.66
549.48	24778.2
549.68	24997.34
549.88	25277.91
550.08	24851.93
550.28	24952.28
550.48	24939.99
550.68	24948.18
550.88	24894.94
551.08	24894.94
551.279	24944.09
551.479	24739.29
551.679	24853.98
551.879	24837.59
552.079	24856.03
552.278	24546.78
552.478	24872.41
552.678	24411.62
552.878	24483.3
553.077	24815.07
553.277	24659.42
553.477	24960.47
553.676	24489.44
553.876	24829.4
554.076	24708.57
554.275	24325.6
554.475	24245.73
554.674	24464.86
554.874	24370.66
555.074	24727
555.273	24561.12
555.473	24544.73
555.672	24532.45
555.872	24442.34
556.071	24450.53
556.271	24573.41
556.47	24278.5
556.67	24364.51
556.869	24428
557.068	24219.11
557.268	24206.82
557.467	24341.99
557.667	24417.76
557.866	24448.48
558.065	23975.4
558.265	24145.38
558.464	24051.17
558.663	24237.54
558.863	23934.44
559.062	24245.73
559.261	23793.13
559.461	24307.17
559.66	23711.21
559.859	24045.03
560.058	23635.44
560.258	23690.73
560.457	23567.85
560.656	23950.82
560.855	23748.07
561.054	23762.41
561.253	23651.82
561.453	23856.62
561.652	23705.07
561.851	23682.54
562.05	23506.41
562.249	23524.85
562.448	23567.85
562.647	23518.7
562.846	23459.31
563.045	23184.88
563.244	23301.62
563.443	23539.18
563.642	23160.31
563.841	23131.64
564.04	22930.94
564.239	23148.02
564.438	23008.76
564.637	23332.34
564.836	23131.64
565.035	22935.03
565.234	23045.62
565.432	23057.91
565.631	22883.83
565.83	23217.65
566.029	22900.22
566.228	22840.82
566.427	22883.83
566.625	22552.06
566.824	22396.42
567.023	23055.86
567.222	22132.23
567.42	22621.69
567.619	22126.08
567.818	22619.64
568.016	22363.65
568.215	22550.01
568.414	22416.9
568.612	22849.02
568.811	21984.77
569.01	21962.25
569.208	21642.76
569.407	22257.15
569.605	21755.4
569.804	21796.36
570.002	22111.75
570.201	21687.82
570.4	21562.89
570.598	21612.04
570.797	21648.91
570.995	21472.78
571.193	21280.27
571.392	21589.52
571.59	21489.17
571.789	21198.35
571.987	21450.25
572.186	21345.81
572.384	21009.94
572.582	21196.31
572.781	21210.64
572.979	20682.27
573.177	20901.4
573.376	20751.9
573.574	20751.9
573.772	20821.53
573.971	20530.72
574.169	20819.48
574.367	20364.83
574.565	20604.44
574.763	20393.5
574.962	20475.42
575.16	20459.04
575.358	20665.88
575.556	20104.74
575.754	20643.35
575.952	20287.01
576.151	20180.51
576.349	20178.47
576.547	19922.47
576.745	19963.43
576.943	20268.58
577.141	19830.31
577.339	19928.61
577.537	19641.9
577.735	19766.82
577.933	19689
578.131	19658.28
578.329	19506.73
578.527	19387.95
578.725	19602.99
578.923	19494.44
579.121	19242.54
579.319	19367.47
579.516	19346.99
579.714	19451.44
579.912	19097.14
580.11	19103.28
580.308	19185.2
580.506	19170.86
580.704	18845.24
580.901	18959.92
581.099	19224.11
581.297	18824.76
581.495	18955.83
581.692	18861.62
581.89	18535.99
582.088	18605.63
582.285	18597.43
582.483	18447.93
582.681	18427.45
582.878	18318.91
583.076	18030.15
583.274	18497.08
583.471	18107.97
583.669	18218.56
583.866	18351.68
584.064	18247.23
584.262	17921.6
584.459	18300.48
584.657	17882.69
584.854	17905.22
585.052	17749.57
585.249	17956.42
585.447	17962.56
585.644	17499.72
585.841	17907.27
586.039	17772.1
586.236	17509.96
586.434	17630.79
586.631	17661.51
586.828	17413.71
587.026	17346.12
587.223	17391.18
587.42	17251.92
587.618	17348.17
587.815	17071.7
588.012	17057.36
588.21	17321.55
588.407	17133.14
588.604	16995.92
588.801	16969.3
588.999	17012.31
589.196	16885.33
589.393	16856.66
589.59	16760.41
589.787	16578.14
589.984	16772.69
590.182	16547.42
590.379	16492.12
590.576	16414.3
590.773	16332.38
590.97	16129.63
591.167	16107.1
591.364	16186.97
591.561	16266.85
591.758	15879.78
591.955	16252.51
592.152	16160.35
592.349	16289.37
592.546	16141.92
592.743	16205.41
592.94	15806.05
593.137	16156.25
593.334	15984.23
593.531	15588.97
593.727	15761
593.924	15844.96
594.121	15738.47
594.318	15849.06
594.515	15517.29
594.712	15672.93
594.908	15709.8
595.105	15324.78
595.302	15511.14
595.499	15621.73
595.696	15494.76
595.892	15423.08
596.089	15466.09
596.286	15171.18
596.482	15242.86
596.679	15115.89
596.876	15265.39
597.072	15119.98
597.269	15105.65
597.466	14640.76
597.662	14952.05
597.859	15036.02
598.055	14978.67
598.252	14896.75
598.448	14884.47
598.645	14638.71
598.841	14421.63
599.038	14593.65
599.234	14734.96
599.431	14247.55
599.627	14554.74
599.824	14630.52
600.02	14372.47
600.217	14513.78
600.413	14614.13
600.609	14225.02
600.806	14298.75
601.002	14040.7
601.198	14030.46
601.395	14222.97
601.591	14036.61
601.787	13878.91
601.984	13811.33
602.18	13938.3
602.376	13782.66
602.572	13833.86
602.769	13889.15
602.965	13506.18
603.161	13577.86
603.357	13733.51
603.553	13565.57
603.75	13633.16
603.946	13512.33
604.142	13508.23
604.338	13235.85
604.534	13545.09
604.73	13350.54
604.926	13235.85
605.122	13336.2
605.318	13248.14
605.514	13184.65
605.71	12979.86
605.906	13086.35
606.102	13158.03
606.298	13233.8
606.494	12983.95
606.69	13110.93
606.886	13016.72
607.082	12811.92
607.278	12912.27
607.474	12912.27
607.67	13065.87
607.866	12756.63
608.062	12617.36
608.257	12570.26
608.453	12738.19
608.649	12641.94
608.845	12478.1
609.041	12725.91
609.236	12619.41
609.432	12471.96
609.628	12609.17
609.824	12344.98
610.019	12431
610.215	12308.12
610.411	12721.81
610.606	12277.4
610.802	12111.52
610.998	12236.44
611.193	12398.23
611.389	12152.48
611.584	12265.11
611.78	11884.19
611.976	12148.38
612.171	12097.18
612.367	12129.95
612.562	11986.59
612.758	11955.87
612.953	11812.51
613.149	12103.32
613.344	11941.54
613.539	12103.32
613.735	11898.53
613.93	11884.19
614.126	11736.74
614.321	11904.67
614.517	12091.04
614.712	11816.61
614.907	11617.96
615.103	11841.18
615.298	11736.74
615.493	11718.31
615.688	11622.05
615.884	11796.13
616.079	11347.62
616.274	11443.88
616.47	11464.36
616.665	11660.96
616.86	11538.09
617.055	11507.37
617.25	11208.36
617.445	11427.49
617.641	11191.98
617.836	11314.86
618.031	11277.99
618.226	11298.47
618.421	11316.9
618.616	11271.85
618.811	11085.48
619.006	11148.97
619.201	11048.62
619.396	11130.54
619.591	10796.72
619.786	11062.96
619.981	10813.1
620.176	10831.54
620.371	10852.02
620.566	10786.48
620.761	10942.13
620.956	10698.42
621.151	10712.75
621.346	10565.3
621.541	10407.61
621.735	10532.53
621.93	10292.92
622.125	10444.47
622.32	10274.49
622.515	10493.62
622.709	10129.08
622.904	10219.19
623.099	10172.09
623.294	10110.65
623.488	9928.38
623.683	9965.25
623.878	9817.79
624.072	9832.13
624.267	9881.28
624.462	9897.66
624.656	9641.67
624.851	9590.47
625.046	9674.43
625.24	9522.88
625.435	9514.69
625.629	9510.6
625.824	9502.4
626.018	9483.97
626.213	9207.5
626.407	9256.65
626.602	8924.88
626.796	9203.4
626.991	9094.86
627.185	9066.19
627.38	9008.84
627.574	8994.51
627.768	8709.84
627.963	8963.79
628.157	8703.7
628.352	8758.99
628.546	8832.72
628.74	8677.07
628.935	8378.07
629.129	8623.83
629.323	8333.01
629.517	8574.67
629.712	8373.97
629.906	8287.96
630.1	8257.24
630.294	8261.34
630.489	8308.44
630.683	8244.95
630.877	8160.98
631.071	8103.64
631.265	7927.52
631.459	8203.99
631.653	7827.17
631.848	7923.42
632.042	7939.8
632.236	8003.29
632.43	7702.24
632.624	7933.66
632.818	7798.49
633.012	7614.18
633.206	7806.69
633.4	7730.91
633.594	7567.07
633.788	7554.79
633.982	7657.18
634.176	7530.21
634.369	7573.22
634.563	7464.68
634.757	7452.39
634.951	7331.56
635.145	7354.09
635.339	7413.48
635.533	7319.27
635.726	7204.58
635.92	7206.63
636.114	7044.84
636.308	7106.28
636.501	7048.94
636.695	6940.4
636.889	6838
637.083	6866.67
637.276	6975.21
637.47	6754.03
637.664	6792.94
637.857	6749.93
638.051	6610.67
638.244	6598.38
638.438	6772.46
638.632	6598.38
638.825	6471.41
639.019	6536.95
639.212	6321.91
639.406	6506.23
639.599	6516.47
639.793	6418.16
639.986	6205.17
640.18	6250.23
640.373	6342.39
640.567	6160.12
640.76	6319.86
640.954	6280.95
641.147	6035.19
641.34	6078.2
641.534	6125.3
641.727	5979.9
641.92	6012.67
642.114	5902.08
642.307	6096.63
642.5	5871.36
642.694	5916.41
642.887	5691.13
643.08	5934.84
643.273	5773.05
643.467	5713.66
643.66	5648.13
643.853	5699.33
644.046	5623.55
644.239	5578.5
644.432	5515.01
644.626	5494.53
644.819	5682.94
645.012	5402.37
645.205	5560.06
645.398	5455.62
645.591	5234.44
645.784	5345.03
645.977	5318.4
646.17	5418.75
646.363	5201.67
646.556	5132.04
646.749	5084.94
646.942	5205.77
647.135	5195.53
647.328	5101.32
647.521	5048.07
647.714	5072.65
647.907	4982.54
648.099	4878.09
648.292	5011.21
648.485	4914.95
648.678	4964.11
648.871	4900.62
649.064	4720.4
649.256	4806.41
649.449	4792.08
649.642	4665.1
649.835	4685.58
650.027	4847.37
650.22	4673.29
650.413	4673.29
650.605	4521.74
650.798	4597.52
650.991	4413.2
651.183	4579.09
651.376	4521.74
651.568	4405.01
651.761	4480.78
651.954	4423.44
652.146	4491.02
652.339	4448.02
652.531	4335.38
652.724	4259.6
652.916	4278.04
653.109	4392.72
653.301	4386.58
653.494	4261.65
653.686	4140.82
653.879	4296.47
654.071	4138.77
654.263	4179.73
654.456	4194.07
654.648	4050.71
654.84	4063
655.033	4108.05
655.225	4011.8
655.417	3985.18
655.61	4015.9
655.802	3923.74
655.994	3970.84
656.186	3997.46
656.379	3872.54
656.571	3933.98
656.763	3796.76
656.955	4019.99
657.148	3743.52
657.34	3825.43
657.532	3780.38
657.724	3729.18
657.916	3860.25
658.108	3704.6
658.3	3804.96
658.492	3673.89
658.684	3493.66
658.876	3575.58
659.068	3725.08
659.26	3512.1
659.452	3655.45
659.644	3675.93
659.836	3458.85
660.028	3538.72
660.22	3546.91
660.412	3485.47
660.604	3356.45
660.796	3387.17
660.988	3440.42
661.18	3372.83
661.372	3432.22
661.563	3446.56
661.755	3223.33
661.947	3288.87
662.139	3262.24
662.331	3335.97
662.522	3247.91
662.714	3221.28
662.906	3352.35
663.097	3204.9
663.289	3211.04
663.481	3178.28
663.673	3174.18
663.864	3145.51
664.056	3141.41
664.247	3088.17
664.439	2955.05
664.631	3034.92
664.822	2965.29
665.014	3114.79
665.205	3145.51
665.397	3049.25
665.588	3004.2
665.78	3041.06
665.971	2946.86
666.163	2944.81
666.354	2932.52
666.546	2881.32
666.737	2877.23
666.929	2852.65
667.12	2924.33
667.311	2807.59
667.503	2914.09
667.694	2733.87
667.885	2813.74
668.077	2899.75
668.268	2705.2
668.459	2735.92
668.651	2649.9
668.842	2856.75
669.033	2637.61
669.224	2567.98
669.416	2766.64
669.607	2737.96
669.798	2699.05
669.989	2674.48
670.18	2635.57
670.371	2563.89
670.563	2625.33
670.754	2594.61
670.945	2608.94
671.136	2654
671.327	2613.04
671.518	2547.5
671.709	2631.47
671.9	2574.13
672.091	2508.59
672.282	2496.3
672.473	2422.58
672.664	2494.26
672.855	2527.02
673.046	2559.79
673.237	2541.36
673.428	2404.14
673.619	2496.3
673.809	2424.62
674	2494.26
674.191	2494.26
674.382	2406.19
674.573	2383.66
674.764	2371.38
674.954	2488.11
675.145	2361.14
675.336	2381.62
675.527	2404.14
675.717	2324.27
675.908	2373.43
676.099	2398
676.289	2363.19
676.48	2336.56
676.671	2354.99
676.861	2365.23
677.052	2332.47
677.243	2271.03
677.433	2275.12
677.624	2379.57
677.814	2137.91
678.005	2314.03
678.195	2203.44
678.386	2314.03
678.576	2170.68
678.767	2279.22
678.957	2236.21
679.148	2322.23
679.338	2279.22
679.529	2144.05
679.719	2225.97
679.909	2230.07
680.1	2197.3
680.29	2156.34
680.481	2287.41
680.671	2191.16
680.861	2094.9
681.052	2262.83
681.242	2146.1
681.432	2281.27
681.622	2254.64
681.813	2242.36
682.003	2268.98
682.193	2139.96
682.383	2264.88
682.573	2180.92
682.764	2178.87
682.954	2228.02
683.144	2103.09
683.334	2101.05
683.524	2209.59
683.714	2244.4
683.904	2156.34
684.094	2158.39
684.284	2055.99
684.474	2027.32
684.664	2219.83
684.854	2146.1
685.044	2205.49
685.234	2101.05
685.424	2111.29
685.614	2082.61
685.804	2162.48
685.994	2090.81
686.184	2121.52
686.374	2070.33
686.564	2094.9
686.753	2139.96
686.943	2244.4
687.133	2160.44
687.323	2135.86
687.513	2043.7
687.702	2053.94
687.892	2189.11
688.082	2045.75
688.272	2273.07
688.461	2125.62
688.651	1980.22
688.841	1929.02
689.03	2096.95
689.22	2166.58
689.41	2017.08
689.599	2084.66
689.789	2021.17
689.979	2010.93
690.168	1947.45
690.358	1963.83
690.547	2064.18
690.737	1982.26
690.926	1947.45
691.116	2023.22
691.305	2051.89
691.495	1873.72
691.684	1972.02
691.874	2006.84
692.063	1902.39
692.252	1937.21
692.442	2033.46
692.631	1969.98
692.82	1961.78
693.01	1904.44
693.199	1779.51
693.388	1922.87
693.578	1910.58
693.767	1988.41
693.956	1972.02
694.146	1933.11
694.335	1908.54
694.524	1949.5
694.713	1912.63
694.902	1931.06
695.092	1826.62
695.281	1953.59
695.47	1939.26
695.659	1894.2
695.848	1785.66
696.037	1863.48
696.226	1861.43
696.415	1908.54
696.604	1902.39
696.793	1826.62
696.982	1787.71
697.171	1867.58
697.36	1857.34
697.549	1931.06
697.738	1849.15
697.927	1939.26
698.116	1881.91
698.305	1875.77
698.494	1773.37
698.683	1767.23
698.872	1779.51
699.061	1799.99
699.25	1818.43
699.438	1879.86
699.627	1765.18
699.816	1763.13
700.005	1789.75
700.193	1816.38
700.382	1816.38
700.571	1705.79
700.76	1765.18
700.948	1734.46
701.137	1754.94
701.326	1763.13
701.514	1746.75
701.703	1718.08
701.892	1752.89
702.08	1845.05
702.269	1752.89
702.457	1765.18
702.646	1763.13
702.834	1779.51
703.023	1824.57
703.212	1666.88
703.4	1771.32
703.589	1707.84
703.777	1691.45
703.965	1693.5
704.154	1722.17
704.342	1650.49
704.531	1675.07
704.719	1644.35
704.907	1687.36
705.096	1668.92
705.284	1691.45
705.472	1746.75
705.661	1546.05
705.849	1703.74
706.037	1818.43
706.226	1564.48
706.414	1658.68
706.602	1670.97
706.79	1740.6
706.979	1576.77
707.167	1730.36
707.355	1630.01
707.543	1617.72
707.731	1703.74
707.919	1673.02
708.107	1527.61
708.296	1564.48
708.484	1566.53
708.672	1509.18
708.86	1597.24
709.048	1584.96
709.236	1609.53
709.424	1646.4
709.612	1646.4
709.8	1691.45
709.988	1642.3
710.176	1681.21
710.364	1576.77
710.551	1584.96
710.739	1627.96
710.927	1582.91
711.115	1562.43
711.303	1601.34
711.491	1503.04
711.679	1521.47
711.866	1568.57
712.054	1650.49
712.242	1484.61
712.43	1550.14
712.617	1576.77
712.805	1548.09
712.993	1453.89
713.181	1490.75
713.368	1576.77
713.556	1584.96
713.744	1470.27
713.931	1587.01
714.119	1546.05
714.306	1470.27
714.494	1589.05
714.682	1480.51
714.869	1484.61
715.057	1529.66
715.244	1488.7
715.432	1507.13
715.619	1498.94
715.807	1496.89
715.994	1564.48
716.182	1572.67
716.369	1513.28
716.556	1584.96
716.744	1437.5
716.931	1453.89
717.119	1412.93
717.306	1529.66
717.493	1464.13
717.681	1527.61
717.868	1474.37
718.055	1466.17
718.242	1476.41
718.43	1466.17
718.617	1513.28
718.804	1474.37
718.991	1455.94
719.179	1343.3
719.366	1347.39
719.553	1466.17
719.74	1439.55
719.927	1482.56
720.114	1451.84
720.301	1359.68
720.488	1468.22
720.676	1414.98
720.863	1369.92
721.05	1462.08
721.237	1308.48
721.424	1316.67
721.611	1349.44
721.798	1367.87
721.985	1363.78
722.172	1470.27
722.358	1435.46
722.545	1365.82
722.732	1392.45
722.919	1326.91
723.106	1298.24
723.293	1298.24
723.48	1335.1
723.667	1314.63
723.853	1357.63
724.04	1324.87
724.227	1322.82
724.414	1244.99
724.6	1314.63
724.787	1312.58
724.974	1363.78
725.161	1331.01
725.347	1371.97
725.534	1349.44
725.72	1355.58
725.907	1294.15
726.094	1333.06
726.28	1304.39
726.467	1392.45
726.653	1228.61
726.84	1367.87
727.027	1361.73
727.213	1333.06
727.4	1331.01
727.586	1341.25
727.773	1361.73
727.959	1285.95
728.145	1195.84
728.332	1367.87
728.518	1333.06
728.705	1318.72
728.891	1341.25
729.077	1255.23
729.264	1218.37
729.45	1247.04
729.636	1259.33
729.823	1390.4
730.009	1290.05
730.195	1337.15
730.382	1367.87
730.568	1302.34
730.754	1404.74
730.94	1341.25
731.126	1275.71
731.313	1255.23
731.499	1257.28
731.685	1310.53
731.871	1257.28
732.057	1296.19
732.243	1251.14
732.429	1251.14
732.615	1247.04
732.801	1275.71
732.987	1281.86
733.173	1265.47
733.359	1306.43
733.545	1224.51
733.731	1224.51
733.917	1322.82
734.103	1298.24
734.289	1257.28
734.475	1158.98
734.661	1331.01
734.847	1257.28
735.033	1292.1
735.219	1285.95
735.404	1281.86
735.59	1201.99
735.776	1208.13
735.962	1228.61
736.148	1265.47
736.333	1283.91
736.519	1335.1
736.705	1228.61
736.89	1199.94
737.076	1220.42
737.262	1232.71
737.447	1226.56
737.633	1138.5
737.819	1285.95
738.004	1183.56
738.19	1187.65
738.375	1224.51
738.561	1236.8
738.747	1197.89
738.932	1158.98
739.118	1232.71
739.303	1204.03
739.489	1204.03
739.674	1216.32
739.859	1163.08
740.045	1261.38
740.23	1173.32
740.416	1201.99
740.601	1107.78
740.786	1034.05
740.972	1132.36
741.157	1128.26
741.342	1052.49
741.528	1204.03
741.713	1208.13
741.898	1113.92
742.084	1126.21
742.269	1068.87
742.454	1066.82
742.639	1226.56
742.824	1175.36
743.01	1191.75
743.195	1115.97
743.38	1107.78
743.565	1097.54
743.75	1140.55
743.935	1126.21
744.12	1179.46
744.305	1072.96
744.49	1072.96
744.675	1101.64
744.86	1015.62
745.045	1103.68
745.23	1095.49
745.415	1058.63
745.6	1060.68
745.785	1046.34
745.97	1011.53
746.155	1013.57
746.34	1029.96
746.525	1036.1
746.71	991.05
746.895	1048.39
747.079	1032.01
747.264	1052.49
747.449	1036.1
747.634	993.09
747.819	952.13
748.003	931.66
748.188	972.61
748.373	868.17
748.557	978.76
748.742	952.13
748.927	1001.29
749.111	939.85
749.296	941.89
749.481	1005.38
749.665	960.33
749.85	884.55
750.034	997.19
750.219	917.32
750.404	921.42
750.588	925.51
750.773	933.7
750.957	929.61
751.141	880.46
751.326	880.46
751.51	870.22
751.695	882.5
751.879	857.93
752.064	933.7
752.248	804.68
752.432	882.5
752.617	847.69
752.801	843.59
752.985	823.11
753.17	931.66
753.354	759.63
753.538	794.44
753.722	808.78
753.907	782.15
754.091	689.99
754.275	839.5
754.459	735.05
754.643	819.02
754.828	737.1
755.012	769.87
755.196	718.67
755.38	720.71
755.564	745.29
755.748	767.82
755.932	761.67
756.116	730.95
756.3	802.63
756.484	667.47
756.668	667.47
756.852	706.38
757.036	702.28
757.22	710.47
757.404	749.39
757.588	700.23
757.772	714.57
757.956	728.91
758.14	741.19
758.323	692.04
758.507	704.33
758.691	743.24
758.875	698.19
759.059	675.66
759.242	700.23
759.426	694.09
759.61	657.23
759.794	542.54
759.977	653.13
760.161	644.94
760.345	591.69
760.528	657.23
760.712	628.56
760.895	612.17
761.079	683.85
761.263	636.75
761.446	636.75
761.63	560.97
761.813	669.52
761.997	554.83
762.18	622.41
762.364	616.27
762.547	585.55
762.731	601.93
762.914	597.84
763.098	532.3
763.281	587.6
763.464	595.79
763.648	581.45
763.831	677.71
764.015	550.73
764.198	599.88
764.381	599.88
764.564	606.03
764.748	589.64
764.931	644.94
765.114	589.64
765.297	675.66
765.481	560.97
765.664	581.45
765.847	610.12
766.03	603.98
766.213	589.64
766.397	550.73
766.58	468.81
766.763	567.12
766.946	583.5
767.129	569.16
767.312	415.57
767.495	487.25
767.678	544.59
767.861	544.59
768.044	505.68
768.227	477.01
768.41	456.53
768.593	503.63
768.776	511.82
768.959	509.77
769.142	575.31
769.324	579.4
769.507	530.25
769.69	485.2
769.873	440.14
770.056	546.64
770.239	427.85
770.421	487.25
770.604	540.49
770.787	487.25
770.97	540.49
771.152	366.42
771.335	530.25
771.518	499.53
771.7	479.05
771.883	444.24
772.066	497.49
772.248	450.38
772.431	458.57
772.613	462.67
772.796	509.77
772.978	405.33
773.161	438.09
773.343	390.99
773.526	454.48
773.708	446.29
773.891	415.57
774.073	440.14
774.256	360.27
774.438	511.82
774.621	462.67
774.803	413.52
774.985	319.31
775.168	427.85
775.35	370.51
775.532	382.8
775.715	411.47
775.897	372.56
776.079	393.04
776.261	382.8
776.444	362.32
776.626	429.9
776.808	395.09
776.99	405.33
777.173	411.47
777.355	325.46
777.537	382.8
777.719	448.33
777.901	347.98
778.083	343.89
778.265	366.42
778.447	397.14
778.629	384.85
778.811	319.31
778.993	333.65
779.175	397.14
779.357	335.7
779.539	302.93
779.721	282.45
779.903	352.08
780.085	350.03
780.267	448.33
780.449	347.98
780.631	300.88
780.812	259.92
780.994	313.17
781.176	280.4
781.358	341.84
781.54	317.26
781.721	274.26
781.903	243.54
782.085	313.17
782.267	247.63
782.448	274.26
782.63	307.02
782.812	368.46
782.993	294.74
783.175	298.83
783.357	257.87
783.538	370.51
783.72	188.24
783.901	309.07
784.083	327.5
784.264	337.74
784.446	233.3
784.627	284.5
784.809	221.01
784.99	212.82
785.172	245.59
785.353	321.36
785.535	280.4
785.716	229.2
785.897	233.3
786.079	315.22
786.26	282.45
786.441	184.15
786.623	157.52
786.804	243.54
786.985	229.2
787.167	304.98
787.348	259.92
787.529	247.63
787.71	241.49
787.891	206.67
788.073	231.25
788.254	184.15
788.435	227.15
788.616	188.24
788.797	251.73
788.978	208.72
789.159	218.96
789.34	135
789.522	163.67
789.703	253.78
789.884	186.19
790.065	210.77
790.246	270.16
790.427	261.97
790.607	159.57
790.788	264.02
790.969	194.39
791.15	118.61
791.331	192.34
791.512	153.43
791.693	169.81
791.874	173.91
792.054	225.11
792.235	188.24
792.416	227.15
792.597	202.58
792.778	210.77
792.958	151.38
793.139	167.76
793.32	235.35
793.5	65.36
793.681	198.48
793.862	147.28
794.042	204.63
794.223	190.29
794.404	124.76
794.584	208.72
794.765	243.54
794.945	149.33
795.126	132.95
795.306	208.72
795.487	167.76
795.667	110.42
795.848	225.11
796.028	137.04
796.209	102.23
796.389	194.39
796.57	126.8
796.75	167.76
796.93	112.47
797.111	128.85
797.291	167.76
797.471	155.47
797.652	163.67
797.832	71.51
798.012	153.43
798.192	196.43
798.373	180.05
798.553	198.48
798.733	94.04
798.913	173.91
799.093	59.22
799.274	159.57
799.454	112.47
799.634	161.62
799.814	208.72
799.994	85.84
800.174	81.75
800.354	157.52
800.534	110.42
800.714	137.04
800.894	114.52
801.074	104.28
801.254	128.85
801.434	165.71
801.614	112.47
801.794	118.61
801.974	358.22
802.154	77.65
802.334	137.04
802.514	118.61
802.693	159.57
802.873	120.66
803.053	141.14
803.233	200.53
803.413	137.04
803.592	126.8
803.772	120.66
803.952	141.14
804.131	83.8
804.311	100.18
804.491	124.76
804.67	24.4
804.85	126.8
805.03	98.13
805.209	173.91
805.389	83.8
805.568	89.94
805.748	94.04
805.928	110.42
806.107	77.65
806.287	141.14
806.466	118.61
806.646	87.89
806.825	32.6
807.004	79.7
807.184	98.13
807.363	120.66
807.543	153.43
807.722	143.19
807.901	149.33
808.081	91.99
808.26	53.08
808.439	71.51
808.619	67.41
808.798	79.7
808.977	59.22
809.156	126.8
809.336	98.13
809.515	104.28
809.694	57.17
809.873	108.37
810.052	118.61
810.231	85.84
810.411	114.52
810.59	89.94
810.769	53.08
810.948	89.94
811.127	30.55
811.306	124.76
811.485	38.74
811.664	124.76
811.843	89.94
812.022	96.08
812.201	67.41
812.38	79.7
812.559	65.36
812.737	81.75
812.916	87.89
813.095	44.88
813.274	137.04
813.453	46.93
813.632	126.8
813.811	132.95
813.989	30.55
814.168	96.08
814.347	38.74
814.526	77.65
814.704	26.45
814.883	14.17
815.062	3.93
815.24	59.22
815.419	71.51
815.598	100.18
815.776	110.42
815.955	102.23
816.133	44.88
816.312	65.36
816.49	112.47
816.669	59.22
816.847	48.98
817.026	120.66
817.204	-45.23
817.383	110.42
817.561	130.9
817.74	22.36
817.918	38.74
818.097	71.51
818.275	-2.22
818.453	42.84
818.632	98.13
818.81	46.93
818.988	61.27
819.167	53.08
819.345	85.84
819.523	14.17
819.701	130.9
819.879	51.03
820.058	38.74
820.236	71.51
820.414	53.08
820.592	89.94
820.77	73.56
820.948	126.8
821.127	34.64
821.305	73.56
821.483	53.08
821.661	120.66
821.839	44.88
822.017	28.5
822.195	89.94
822.373	132.95
822.551	79.7
822.729	81.75
822.907	3.93
823.085	28.5
823.262	77.65
823.44	18.26
823.618	42.84
823.796	55.12
823.974	124.76
824.152	69.46
824.329	18.26
824.507	32.6
824.685	59.22
824.863	67.41
825.04	73.56
825.218	108.37
825.396	91.99
825.574	44.88
825.751	57.17
825.929	67.41
826.107	61.27
826.284	46.93
826.462	85.84
826.639	51.03
826.817	63.32
826.994	77.65
827.172	53.08
827.349	112.47
827.527	40.79
827.704	77.65
827.882	3.93
828.059	55.12
828.237	38.74
828.414	34.64
828.591	10.07
828.769	12.12
828.946	16.21
829.124	110.42
829.301	87.89
829.478	77.65
829.655	96.08
829.833	46.93
830.01	18.26
830.187	83.8
830.364	55.12
830.542	-14.51
830.719	24.4
830.896	14.17
831.073	48.98
831.25	-12.46
831.427	14.17
831.604	3.93
831.782	61.27
831.959	71.51
832.136	-20.65
832.313	63.32
832.49	-4.27
832.667	53.08
832.844	-0.17
833.021	57.17
833.198	3.93
833.374	26.45
833.551	18.26
833.728	67.41
833.905	85.84
834.082	67.41
834.259	5.97
834.436	91.99
834.612	53.08
834.789	75.6
834.966	38.74
835.143	46.93
835.319	57.17
835.496	1.88
835.673	10.07
835.85	106.32
836.026	1.88
836.203	34.64
836.38	75.6
836.556	67.41
836.733	-2.22
836.909	12.12
837.086	-49.32
837.262	-28.84
837.439	57.17
837.616	-22.7
837.792	-30.89
837.968	28.5
838.145	20.31
838.321	38.74
838.498	-30.89
838.674	-34.99
838.851	5.97
839.027	94.04
839.203	1.88
839.38	-4.27
839.556	48.98
839.732	44.88
839.909	3.93
840.085	14.17
840.261	65.36
840.437	44.88
840.614	30.55
840.79	128.85
840.966	-67.75
841.142	-20.65
841.318	22.36
841.494	94.04
841.671	67.41
841.847	38.74
842.023	55.12
842.199	34.64
842.375	-22.7
842.551	-30.89
842.727	-6.31
842.903	28.5
843.079	22.36
843.255	18.26
843.431	28.5
843.607	44.88
843.783	12.12
843.959	81.75
844.134	24.4
844.31	-32.94
844.486	59.22
844.662	96.08
844.838	8.02
845.013	38.74
845.189	57.17
845.365	22.36
845.541	12.12
845.716	75.6
845.892	14.17
846.068	-34.99
846.244	46.93
846.419	48.98
846.595	98.13
846.77	16.21
846.946	-4.27
847.122	-10.41
847.297	3.93
847.473	-2.22
847.648	-73.9
847.824	38.74
847.999	116.56
848.175	-10.41
848.35	12.12
848.526	12.12
848.701	71.51
848.876	-51.37
849.052	5.97
849.227	98.13
849.403	16.21
849.578	5.97
849.753	3.93
849.929	91.99
850.104	-82.09
850.279	53.08
850.454	-8.36
850.63	-22.7
850.805	40.79
850.98	-34.99
851.155	-8.36
851.33	-28.84
851.505	-41.13
851.681	16.21
851.856	55.12
852.031	57.17
852.206	20.31
852.381	22.36
852.556	61.27
852.731	-22.7
852.906	40.79
853.081	-37.03
853.256	40.79
853.431	71.51
853.606	-22.7
853.781	-6.31
853.956	-34.99
854.131	1.88
854.305	-32.94
854.48	-26.79
854.655	-30.89
854.83	8.02
855.005	3.93
855.18	69.46
855.354	12.12
855.529	16.21
855.704	20.31
855.879	14.17
856.053	30.55
856.228	65.36
856.403	-10.41
856.577	3.93
856.752	3.93
856.926	28.5
857.101	71.51
857.276	46.93
857.45	-49.32
857.625	120.66
857.799	34.64
857.974	61.27
858.148	34.64
858.323	-4.27
858.497	-73.9
858.672	3.93
858.846	30.55
859.02	38.74
859.195	-32.94
859.369	-8.36
859.543	-16.55
859.718	36.69
859.892	28.5
860.066	46.93
860.241	-12.46
860.415	-28.84
860.589	44.88
860.763	55.12
860.938	-59.56
861.112	16.21
861.286	30.55
861.46	26.45
861.634	-14.51
861.808	71.51
861.982	20.31
862.157	-57.51
862.331	-43.18
862.505	-45.23
862.679	1.88
862.853	12.12
863.027	-39.08
863.201	44.88
863.375	69.46
863.549	26.45
863.722	-28.84
863.896	59.22
864.07	-10.41
864.244	-8.36
864.418	10.07
864.592	-18.6
864.766	-32.94
864.939	-53.42
865.113	-10.41
865.287	44.88
865.461	22.36
865.634	18.26
865.808	-16.55
865.982	-14.51
866.156	18.26
866.329	-28.84
866.503	-4.27
866.676	100.18
866.85	16.21
867.024	-80.04
867.197	69.46
867.371	-4.27
867.544	10.07
867.718	38.74
867.891	-24.75
868.065	-10.41
868.238	28.5
868.412	116.56
868.585	1.88
868.759	-4.27
868.932	-77.99
869.105	42.84
869.279	-43.18
869.452	-16.55
869.625	55.12
869.799	-37.03
869.972	32.6
870.145	-24.75
870.319	34.64
870.492	57.17
870.665	-67.75
870.838	-2.22
871.011	16.21
871.185	-4.27
871.358	24.4
871.531	-20.65
871.704	73.56
871.877	20.31
872.05	10.07
872.223	5.97
872.396	-65.71
872.569	1.88
872.742	-47.27
872.915	-24.75
873.088	-6.31
873.261	20.31
873.434	-47.27
873.607	-108.71
873.78	-16.55
873.953	-12.46
874.126	-14.51
874.299	59.22
874.471	55.12
874.644	55.12
874.817	10.07
874.99	-82.09
875.163	38.74
875.335	-32.94
875.508	-24.75
875.681	10.07
875.853	-12.46
876.026	77.65
876.199	12.12
876.371	-34.99
876.544	-102.57
876.717	36.69
876.889	-2.22
877.062	-8.36
877.234	-49.32
877.407	44.88
877.579	-12.46
877.752	-75.95
877.924	40.79
878.097	5.97
878.269	10.07
878.442	38.74
878.614	57.17
878.786	-26.79
878.959	-37.03
879.131	-82.09
879.303	-0.17
879.476	34.64
879.648	42.84
879.82	-24.75
879.993	-10.41
880.165	-45.23
880.337	-28.84
880.509	-65.71
880.681	-86.19
880.854	-12.46
881.026	-12.46
881.198	-34.99
881.37	-26.79
881.542	40.79
881.714	-16.55
881.886	-61.61
882.058	20.31
882.23	-14.51
882.402	-28.84
882.574	-61.61
882.746	5.97
882.918	34.64
883.09	-8.36
883.262	16.21
883.434	40.79
883.606	-16.55
883.778	20.31
883.95	22.36
884.122	18.26
884.293	16.21
884.465	-12.46
884.637	-16.55
884.809	53.08
884.98	20.31
885.152	-39.08
885.324	-8.36
885.496	12.12
885.667	-0.17
885.839	20.31
886.011	46.93
886.182	22.36
886.354	-49.32
886.525	22.36
886.697	-8.36
886.869	12.12
887.04	-65.71
887.212	8.02
887.383	3.93
887.555	-6.31
887.726	22.36
887.897	-26.79
888.069	-69.8
888.24	-2.22
888.412	-30.89
888.583	-45.23
888.754	36.69
888.926	-55.47
889.097	-43.18
889.268	1.88
889.44	-32.94
889.611	-37.03
889.782	-4.27
889.953	38.74
890.125	-20.65
890.296	-0.17
890.467	-6.31
890.638	-18.6
890.809	-41.13
890.98	-41.13
891.151	-47.27
891.323	-77.99
891.494	22.36
891.665	-10.41
891.836	32.6
892.007	3.93
892.178	-12.46
892.349	-41.13
892.52	-22.7
892.691	77.65
892.862	30.55
893.032	12.12
893.203	-37.03
893.374	-4.27
893.545	108.37
893.716	-28.84
893.887	-10.41
894.057	1.88
894.228	30.55
894.399	-59.56
894.57	-0.17
894.74	24.4
894.911	-57.51
895.082	-22.7
895.253	30.55
895.423	-26.79
895.594	-4.27
895.764	20.31
895.935	-10.41
896.106	8.02
896.276	-4.27
896.447	75.6
896.617	36.69
896.788	-92.33
896.958	-28.84
897.129	-51.37
897.299	-12.46
897.47	-8.36
897.64	51.03
897.81	-37.03
897.981	16.21
898.151	-34.99
898.322	28.5
898.492	8.02
898.662	44.88
898.832	3.93
899.003	-43.18
899.173	22.36
899.343	30.55
899.513	-10.41
