Data from USB4F104151__1__12-58-20-914.txt Node

Date: Fri Mar 14 12:58:20 EDT 2025
User: louis
Spectrometer: USB4F10415
Trigger mode: 4
Integration Time (sec): 1.000000E-2
Scans to average: 1
Electric dark correction enabled: true
Nonlinearity correction enabled: false
Boxcar width: 0
XAxis mode: Wavelengths
Number of Pixels in Spectrum: 3648
>>>>>Begin Spectral Data<<<<<
178.204	-60.24
178.424	-60.24
178.644	-60.24
178.864	-74.58
179.084	23.72
179.304	-21.33
179.524	-9.05
179.744	-33.62
179.964	1.19
180.184	-15.19
180.404	13.48
180.624	-17.24
180.844	48.3
181.064	23.72
181.283	42.15
181.503	-23.38
181.723	-9.05
181.943	-56.15
182.163	25.77
182.383	19.63
182.602	-7
182.822	3.24
183.042	-7
183.262	-4.95
183.482	60.59
183.701	15.53
183.921	50.35
184.141	-11.09
184.361	29.87
184.58	38.06
184.8	42.15
185.02	3.24
185.239	21.67
185.459	27.82
185.679	27.82
185.898	-2.9
186.118	9.39
186.338	-7
186.557	-13.14
186.777	17.58
186.997	-27.48
187.216	-37.72
187.436	44.2
187.655	-11.09
187.875	9.39
188.095	89.26
188.314	-58.2
188.534	3.24
188.753	72.87
188.973	50.35
189.192	64.68
189.412	-7
189.631	33.96
189.851	-9.05
190.07	91.31
190.29	11.43
190.509	-7
190.729	40.11
190.948	-9.05
191.168	29.87
191.387	72.87
191.607	-66.39
191.826	7.34
192.045	27.82
192.265	40.11
192.484	56.49
192.704	11.43
192.923	-41.81
193.142	-41.81
193.362	-29.52
193.581	27.82
193.8	-39.76
194.02	36.01
194.239	46.25
194.458	31.91
194.678	52.39
194.897	-15.19
195.116	-45.91
195.335	83.11
195.555	7.34
195.774	3.24
195.993	17.58
196.212	-13.14
196.432	-31.57
196.651	-43.86
196.87	56.49
197.089	36.01
197.308	17.58
197.528	17.58
197.747	-19.29
197.966	-66.39
198.185	68.78
198.404	42.15
198.623	40.11
198.842	58.54
199.062	50.35
199.281	40.11
199.5	42.15
199.719	44.2
199.938	58.54
200.157	48.3
200.376	33.96
200.595	62.63
200.814	15.53
201.033	11.43
201.252	-15.19
201.471	79.02
201.69	-19.29
201.909	48.3
202.128	-33.62
202.347	46.25
202.566	93.35
202.785	81.07
203.004	-41.81
203.223	44.2
203.442	5.29
203.661	40.11
203.879	21.67
204.098	122.02
204.317	44.2
204.536	-15.19
204.755	15.53
204.974	13.48
205.193	-13.14
205.411	-21.33
205.63	-13.14
205.849	33.96
206.068	89.26
206.287	-17.24
206.505	-31.57
206.724	-2.9
206.943	-17.24
207.162	-23.38
207.381	-13.14
207.599	44.2
207.818	27.82
208.037	74.92
208.255	-76.63
208.474	42.15
208.693	-39.76
208.911	-47.96
209.13	48.3
209.349	56.49
209.567	74.92
209.786	1.19
210.005	-23.38
210.223	7.34
210.442	113.83
210.661	-13.14
210.879	3.24
211.098	-7
211.316	27.82
211.535	60.59
211.753	72.87
211.972	-31.57
212.191	87.21
212.409	7.34
212.628	48.3
212.846	-7
213.065	-0.85
213.283	25.77
213.502	36.01
213.72	48.3
213.938	-31.57
214.157	27.82
214.375	-7
214.594	107.69
214.812	-13.14
215.031	40.11
215.249	36.01
215.467	27.82
215.686	-0.85
215.904	-29.52
216.122	44.2
216.341	50.35
216.559	25.77
216.778	58.54
216.996	64.68
217.214	13.48
217.432	11.43
217.651	128.17
217.869	9.39
218.087	17.58
218.306	-9.05
218.524	-0.85
218.742	-21.33
218.96	7.34
219.179	-33.62
219.397	9.39
219.615	31.91
219.833	19.63
220.051	46.25
220.27	50.35
220.488	36.01
220.706	-2.9
220.924	-56.15
221.142	-29.52
221.36	-50
221.578	-7
221.796	-4.95
222.015	91.31
222.233	33.96
222.451	36.01
222.669	-21.33
222.887	46.25
223.105	7.34
223.323	33.96
223.541	-17.24
223.759	15.53
223.977	48.3
224.195	27.82
224.413	-43.86
224.631	68.78
224.849	1.19
225.067	-15.19
225.285	15.53
225.503	21.67
225.721	15.53
225.939	44.2
226.157	50.35
226.375	87.21
226.592	15.53
226.81	-29.52
227.028	113.83
227.246	83.11
227.464	5.29
227.682	40.11
227.9	1.19
228.117	23.72
228.335	70.83
228.553	-2.9
228.771	-9.05
228.989	56.49
229.206	9.39
229.424	25.77
229.642	38.06
229.86	64.68
230.077	42.15
230.295	44.2
230.513	-39.76
230.731	3.24
230.948	54.44
231.166	-11.09
231.384	29.87
231.601	40.11
231.819	44.2
232.037	-41.81
232.254	-29.52
232.472	1.19
232.689	48.3
232.907	89.26
233.125	-50
233.342	9.39
233.56	95.4
233.777	60.59
233.995	5.29
234.213	3.24
234.43	52.39
234.648	93.35
234.865	19.63
235.083	23.72
235.3	15.53
235.518	-0.85
235.735	76.97
235.953	33.96
236.17	54.44
236.388	79.02
236.605	31.91
236.822	23.72
237.04	-74.58
237.257	-35.67
237.475	25.77
237.692	68.78
237.909	-17.24
238.127	74.92
238.344	-62.29
238.562	-2.9
238.779	-2.9
238.996	-58.2
239.214	27.82
239.431	38.06
239.648	11.43
239.865	40.11
240.083	68.78
240.3	97.45
240.517	54.44
240.735	46.25
240.952	68.78
241.169	21.67
241.386	81.07
241.603	-23.38
241.821	27.82
242.038	23.72
242.255	38.06
242.472	68.78
242.689	36.01
242.907	31.91
243.124	17.58
243.341	31.91
243.558	-4.95
243.775	38.06
243.992	33.96
244.209	23.72
244.426	50.35
244.643	3.24
244.86	99.5
245.078	19.63
245.295	46.25
245.512	42.15
245.729	25.77
245.946	-17.24
246.163	-9.05
246.38	38.06
246.597	9.39
246.814	-23.38
247.031	19.63
247.248	68.78
247.464	76.97
247.681	27.82
247.898	31.91
248.115	124.07
248.332	-15.19
248.549	113.83
248.766	54.44
248.983	-29.52
249.2	-0.85
249.417	97.45
249.633	50.35
249.85	54.44
250.067	-25.43
250.284	15.53
250.501	-7
250.717	-0.85
250.934	11.43
251.151	-9.05
251.368	17.58
251.585	109.74
251.801	3.24
252.018	52.39
252.235	83.11
252.451	3.24
252.668	97.45
252.885	50.35
253.102	38.06
253.318	72.87
253.535	42.15
253.752	89.26
253.968	42.15
254.185	93.35
254.401	-2.9
254.618	56.49
254.835	58.54
255.051	44.2
255.268	15.53
255.484	36.01
255.701	42.15
255.917	113.83
256.134	-23.38
256.351	64.68
256.567	64.68
256.784	148.65
257	-41.81
257.217	-15.19
257.433	36.01
257.65	54.44
257.866	5.29
258.082	9.39
258.299	-15.19
258.515	7.34
258.732	-13.14
258.948	62.63
259.165	76.97
259.381	31.91
259.597	54.44
259.814	-4.95
260.03	11.43
260.246	31.91
260.463	-39.76
260.679	9.39
260.895	-19.29
261.112	38.06
261.328	25.77
261.544	58.54
261.761	-11.09
261.977	76.97
262.193	-17.24
262.409	72.87
262.626	54.44
262.842	50.35
263.058	19.63
263.274	95.4
263.49	-27.48
263.707	27.82
263.923	9.39
264.139	15.53
264.355	-31.57
264.571	99.5
264.787	-0.85
265.004	31.91
265.22	1.19
265.436	-7
265.652	23.72
265.868	7.34
266.084	36.01
266.3	40.11
266.516	3.24
266.732	42.15
266.948	19.63
267.164	-2.9
267.38	76.97
267.596	9.39
267.812	-4.95
268.028	23.72
268.244	33.96
268.46	70.83
268.676	-23.38
268.892	-0.85
269.108	42.15
269.324	50.35
269.54	-41.81
269.756	79.02
269.972	15.53
270.188	50.35
270.403	27.82
270.619	29.87
270.835	54.44
271.051	9.39
271.267	31.91
271.483	3.24
271.698	7.34
271.914	25.77
272.13	40.11
272.346	76.97
272.562	50.35
272.777	138.41
272.993	111.78
273.209	66.73
273.425	27.82
273.64	23.72
273.856	44.2
274.072	74.92
274.287	23.72
274.503	29.87
274.719	76.97
274.934	54.44
275.15	31.91
275.366	-7
275.581	-13.14
275.797	-9.05
276.012	11.43
276.228	68.78
276.444	15.53
276.659	68.78
276.875	19.63
277.09	11.43
277.306	5.29
277.521	-2.9
277.737	9.39
277.952	66.73
278.168	33.96
278.383	38.06
278.599	27.82
278.814	-17.24
279.03	44.2
279.245	70.83
279.461	105.64
279.676	68.78
279.892	50.35
280.107	40.11
280.322	9.39
280.538	5.29
280.753	15.53
280.969	3.24
281.184	23.72
281.399	19.63
281.615	9.39
281.83	72.87
282.045	44.2
282.26	83.11
282.476	-31.57
282.691	128.17
282.906	3.24
283.122	85.16
283.337	42.15
283.552	25.77
283.767	29.87
283.983	36.01
284.198	23.72
284.413	74.92
284.628	25.77
284.843	3.24
285.058	60.59
285.274	33.96
285.489	62.63
285.704	89.26
285.919	-4.95
286.134	-64.34
286.349	36.01
286.564	89.26
286.779	83.11
286.995	3.24
287.21	7.34
287.425	72.87
287.64	5.29
287.855	64.68
288.07	36.01
288.285	89.26
288.5	-0.85
288.715	64.68
288.93	38.06
289.145	7.34
289.36	40.11
289.575	23.72
289.79	89.26
290.004	89.26
290.219	52.39
290.434	111.78
290.649	23.72
290.864	-7
291.079	-25.43
291.294	54.44
291.509	68.78
291.724	27.82
291.938	3.24
292.153	40.11
292.368	-19.29
292.583	87.21
292.798	23.72
293.012	76.97
293.227	38.06
293.442	105.64
293.657	-27.48
293.871	1.19
294.086	40.11
294.301	62.63
294.516	29.87
294.73	31.91
294.945	70.83
295.16	33.96
295.374	44.2
295.589	83.11
295.804	-41.81
296.018	31.91
296.233	87.21
296.447	-43.86
296.662	-21.33
296.877	-9.05
297.091	62.63
297.306	81.07
297.52	23.72
297.735	64.68
297.949	-15.19
298.164	40.11
298.378	52.39
298.593	95.4
298.807	36.01
299.022	72.87
299.236	54.44
299.451	19.63
299.665	27.82
299.88	87.21
300.094	-4.95
300.309	-29.52
300.523	15.53
300.737	7.34
300.952	103.59
301.166	74.92
301.381	79.02
301.595	-25.43
301.809	-15.19
302.024	44.2
302.238	46.25
302.452	56.49
302.667	-19.29
302.881	-29.52
303.095	-35.67
303.309	33.96
303.524	44.2
303.738	19.63
303.952	1.19
304.166	15.53
304.381	60.59
304.595	56.49
304.809	74.92
305.023	74.92
305.237	79.02
305.452	64.68
305.666	60.59
305.88	48.3
306.094	56.49
306.308	52.39
306.522	9.39
306.736	72.87
306.95	62.63
307.164	1.19
307.379	58.54
307.593	38.06
307.807	50.35
308.021	36.01
308.235	58.54
308.449	42.15
308.663	79.02
308.877	70.83
309.091	103.59
309.305	50.35
309.519	27.82
309.733	42.15
309.947	7.34
310.161	31.91
310.374	33.96
310.588	-4.95
310.802	17.58
311.016	72.87
311.23	40.11
311.444	91.31
311.658	-45.91
311.872	7.34
312.085	40.11
312.299	42.15
312.513	13.48
312.727	56.49
312.941	15.53
313.154	33.96
313.368	-15.19
313.582	44.2
313.796	42.15
314.009	-43.86
314.223	54.44
314.437	54.44
314.651	-29.52
314.864	-27.48
315.078	50.35
315.292	19.63
315.505	13.48
315.719	15.53
315.933	44.2
316.146	40.11
316.36	21.67
316.573	72.87
316.787	50.35
317.001	7.34
317.214	7.34
317.428	17.58
317.641	-4.95
317.855	64.68
318.068	97.45
318.282	11.43
318.495	-2.9
318.709	42.15
318.922	3.24
319.136	44.2
319.349	42.15
319.563	48.3
319.776	19.63
319.99	25.77
320.203	13.48
320.417	27.82
320.63	9.39
320.843	46.25
321.057	27.82
321.27	31.91
321.483	74.92
321.697	97.45
321.91	9.39
322.124	56.49
322.337	58.54
322.55	31.91
322.763	83.11
322.977	64.68
323.19	-17.24
323.403	29.87
323.617	64.68
323.83	50.35
324.043	56.49
324.256	23.72
324.469	3.24
324.683	58.54
324.896	25.77
325.109	60.59
325.322	-41.81
325.535	23.72
325.748	142.5
325.962	81.07
326.175	17.58
326.388	5.29
326.601	25.77
326.814	19.63
327.027	-21.33
327.24	36.01
327.453	56.49
327.666	95.4
327.879	36.01
328.092	50.35
328.305	46.25
328.518	93.35
328.731	40.11
328.944	36.01
329.157	81.07
329.37	7.34
329.583	68.78
329.796	-0.85
330.009	40.11
330.222	52.39
330.435	7.34
330.648	44.2
330.861	40.11
331.073	111.78
331.286	97.45
331.499	27.82
331.712	21.67
331.925	72.87
332.138	52.39
332.35	74.92
332.563	48.3
332.776	72.87
332.989	64.68
333.202	42.15
333.414	3.24
333.627	21.67
333.84	3.24
334.053	33.96
334.265	19.63
334.478	74.92
334.691	81.07
334.903	-7
335.116	23.72
335.329	66.73
335.541	-47.96
335.754	76.97
335.966	52.39
336.179	48.3
336.392	44.2
336.604	27.82
336.817	15.53
337.029	122.02
337.242	97.45
337.454	93.35
337.667	58.54
337.88	119.98
338.092	40.11
338.305	124.07
338.517	-2.9
338.729	-7
338.942	1.19
339.154	42.15
339.367	9.39
339.579	-7
339.792	19.63
340.004	107.69
340.217	40.11
340.429	38.06
340.641	40.11
340.854	36.01
341.066	48.3
341.278	33.96
341.491	117.93
341.703	11.43
341.915	19.63
342.128	66.73
342.34	-15.19
342.552	5.29
342.764	29.87
342.977	31.91
343.189	5.29
343.401	40.11
343.613	5.29
343.826	50.35
344.038	36.01
344.25	33.96
344.462	-27.48
344.674	33.96
344.886	54.44
345.099	-37.72
345.311	-35.67
345.523	56.49
345.735	-9.05
345.947	15.53
346.159	33.96
346.371	70.83
346.583	70.83
346.795	42.15
347.007	-25.43
347.219	25.77
347.431	103.59
347.643	42.15
347.855	-19.29
348.067	50.35
348.279	-23.38
348.491	66.73
348.703	7.34
348.915	31.91
349.127	23.72
349.339	9.39
349.551	29.87
349.763	40.11
349.975	58.54
350.187	11.43
350.399	-4.95
350.61	1.19
350.822	15.53
351.034	-2.9
351.246	-0.85
351.458	101.55
351.669	50.35
351.881	33.96
352.093	40.11
352.305	81.07
352.517	62.63
352.728	48.3
352.94	40.11
353.152	58.54
353.363	56.49
353.575	85.16
353.787	31.91
353.999	66.73
354.21	62.63
354.422	64.68
354.633	60.59
354.845	97.45
355.057	68.78
355.268	-19.29
355.48	50.35
355.692	21.67
355.903	7.34
356.115	68.78
356.326	40.11
356.538	109.74
356.749	9.39
356.961	72.87
357.172	-11.09
357.384	81.07
357.595	48.3
357.807	105.64
358.018	17.58
358.23	3.24
358.441	31.91
358.653	64.68
358.864	54.44
359.075	1.19
359.287	58.54
359.498	134.31
359.709	40.11
359.921	79.02
360.132	70.83
360.344	62.63
360.555	48.3
360.766	66.73
360.977	38.06
361.189	68.78
361.4	13.48
361.611	25.77
361.823	40.11
362.034	42.15
362.245	117.93
362.456	52.39
362.667	111.78
362.879	50.35
363.09	-17.24
363.301	64.68
363.512	62.63
363.723	-9.05
363.935	17.58
364.146	25.77
364.357	83.11
364.568	93.35
364.779	76.97
364.99	72.87
365.201	66.73
365.412	15.53
365.623	17.58
365.834	38.06
366.045	109.74
366.256	23.72
366.467	1.19
366.678	40.11
366.889	62.63
367.1	-23.38
367.311	25.77
367.522	54.44
367.733	5.29
367.944	-23.38
368.155	99.5
368.366	54.44
368.577	-15.19
368.788	140.46
368.999	36.01
369.209	76.97
369.42	93.35
369.631	64.68
369.842	62.63
370.053	19.63
370.264	15.53
370.474	56.49
370.685	-11.09
370.896	-43.86
371.107	9.39
371.317	64.68
371.528	72.87
371.739	9.39
371.95	62.63
372.16	36.01
372.371	13.48
372.582	13.48
372.792	42.15
373.003	25.77
373.214	23.72
373.424	-7
373.635	3.24
373.846	122.02
374.056	81.07
374.267	60.59
374.477	15.53
374.688	15.53
374.898	52.39
375.109	21.67
375.319	103.59
375.53	15.53
375.74	33.96
375.951	21.67
376.161	70.83
376.372	23.72
376.582	15.53
376.793	15.53
377.003	33.96
377.214	-50
377.424	-7
377.635	29.87
377.845	70.83
378.055	31.91
378.266	-47.96
378.476	111.78
378.686	50.35
378.897	79.02
379.107	48.3
379.317	91.31
379.528	27.82
379.738	-0.85
379.948	11.43
380.158	58.54
380.369	58.54
380.579	111.78
380.789	44.2
380.999	38.06
381.21	56.49
381.42	68.78
381.63	48.3
381.84	81.07
382.05	81.07
382.261	58.54
382.471	-17.24
382.681	46.25
382.891	54.44
383.101	3.24
383.311	-2.9
383.521	40.11
383.731	31.91
383.941	119.98
384.151	17.58
384.361	-4.95
384.571	66.73
384.781	85.16
384.991	126.12
385.201	117.93
385.411	58.54
385.621	56.49
385.831	-0.85
386.041	-11.09
386.251	1.19
386.461	-56.15
386.671	56.49
386.881	11.43
387.091	52.39
387.301	48.3
387.511	81.07
387.72	117.93
387.93	31.91
388.14	-31.57
388.35	19.63
388.56	70.83
388.769	56.49
388.979	134.31
389.189	128.17
389.399	48.3
389.609	72.87
389.818	38.06
390.028	31.91
390.238	33.96
390.447	19.63
390.657	74.92
390.867	48.3
391.076	40.11
391.286	29.87
391.496	17.58
391.705	89.26
391.915	132.26
392.125	54.44
392.334	-15.19
392.544	101.55
392.753	136.36
392.963	17.58
393.172	66.73
393.382	7.34
393.591	70.83
393.801	50.35
394.01	74.92
394.22	48.3
394.429	62.63
394.639	25.77
394.848	54.44
395.058	19.63
395.267	83.11
395.477	17.58
395.686	107.69
395.895	91.31
396.105	103.59
396.314	113.83
396.524	50.35
396.733	19.63
396.942	31.91
397.152	21.67
397.361	95.4
397.57	89.26
397.78	42.15
397.989	89.26
398.198	70.83
398.407	-7
398.617	89.26
398.826	64.68
399.035	105.64
399.244	87.21
399.453	99.5
399.663	3.24
399.872	111.78
400.081	54.44
400.29	29.87
400.499	40.11
400.708	81.07
400.917	76.97
401.127	72.87
401.336	38.06
401.545	31.91
401.754	56.49
401.963	122.02
402.172	81.07
402.381	142.5
402.59	138.41
402.799	122.02
403.008	136.36
403.217	158.89
403.426	101.55
403.635	50.35
403.844	101.55
404.053	113.83
404.262	52.39
404.471	122.02
404.68	107.69
404.888	126.12
405.097	148.65
405.306	107.69
405.515	62.63
405.724	66.73
405.933	150.7
406.142	138.41
406.35	132.26
406.559	179.37
406.768	122.02
406.977	122.02
407.185	212.14
407.394	97.45
407.603	132.26
407.812	203.94
408.02	179.37
408.229	158.89
408.438	160.94
408.646	197.8
408.855	173.22
409.064	181.42
409.272	240.81
409.481	230.57
409.69	255.14
409.898	304.29
410.107	232.62
410.315	257.19
410.524	187.56
410.733	271.53
410.941	234.66
411.15	263.33
411.358	339.11
411.567	224.42
411.775	335.01
411.984	304.29
412.192	382.12
412.401	343.21
412.609	427.17
412.818	429.22
413.026	320.68
413.234	375.97
413.443	410.79
413.651	429.22
413.86	418.98
414.068	504.99
414.276	461.99
414.485	490.66
414.693	480.42
414.901	517.28
415.11	560.29
415.318	470.18
415.526	568.48
415.734	623.78
415.943	617.63
416.151	586.91
416.359	568.48
416.567	644.26
416.776	597.15
416.984	722.08
417.192	742.56
417.4	756.9
417.608	754.85
417.817	801.95
418.025	810.14
418.233	869.53
418.441	832.67
418.649	986.27
418.857	883.87
419.065	1045.66
419.273	973.98
419.481	980.12
419.689	1037.47
419.897	1158.3
420.105	1174.68
420.313	1156.25
420.521	1254.55
420.729	1277.08
420.937	1322.13
421.145	1352.85
421.353	1424.53
421.561	1395.86
421.769	1463.44
421.977	1526.93
422.185	1524.88
422.393	1543.32
422.601	1784.98
422.809	1819.79
423.017	1748.11
423.224	1793.17
423.432	1914
423.64	1883.28
423.848	2065.55
424.056	2053.26
424.263	2163.85
424.471	2194.57
424.679	2245.77
424.887	2309.26
425.094	2419.85
425.302	2399.37
425.51	2425.99
425.718	2567.3
425.925	2702.47
426.133	2659.46
426.341	2811.01
426.548	2970.75
426.756	2919.55
426.964	3099.77
427.171	3165.31
427.379	3345.53
427.586	3343.48
427.794	3384.44
428.001	3622
428.209	3734.64
428.417	3646.58
428.624	3849.33
428.832	3972.21
429.039	3875.95
429.247	3996.78
429.454	4342.89
429.662	4490.34
429.869	4260.97
430.076	4578.4
430.284	4404.33
430.491	4729.95
430.699	4920.42
430.906	4875.36
431.114	5123.16
431.321	5127.26
431.528	5317.72
431.736	5684.31
431.943	5604.44
432.15	5575.77
432.358	5899.34
432.565	6095.95
432.772	6050.89
432.979	6341.71
433.187	6292.55
433.394	6462.54
433.601	6954.05
433.808	6956.1
434.016	6837.31
434.223	7175.23
434.43	7484.47
434.637	7498.81
434.844	7998.51
435.052	8090.67
435.259	8225.84
435.466	8250.41
435.673	8086.58
435.88	8463.4
436.087	9217.05
436.294	8907.81
436.501	8805.41
436.708	9149.47
436.915	9268.25
437.122	9806.87
437.329	9622.55
437.537	9952.27
437.743	10198.03
437.95	10097.68
438.157	10677.26
438.364	10980.36
438.571	11031.55
438.778	11133.95
438.985	12172.27
439.192	11535.35
439.399	12002.29
439.606	12008.44
439.813	12409.84
440.02	13235.17
440.227	12942.31
440.433	12680.17
440.64	13235.17
440.847	12977.12
441.054	13245.41
441.261	14427.09
441.467	14048.21
441.674	14724.04
441.881	14844.87
442.088	15064
442.294	14742.47
442.501	15076.29
442.708	15537.09
442.914	16268.21
443.121	16823.21
443.328	16260.02
443.534	17460.13
443.741	17064.87
443.948	16890.79
444.154	18193.3
444.361	17763.23
444.568	18236.31
444.774	17998.74
444.981	18596.75
445.187	19053.45
445.394	19893.12
445.6	19510.14
445.807	21459.81
446.013	20622.19
446.22	21025.64
446.426	21637.98
446.633	21707.62
446.839	22698.83
447.046	21642.08
447.252	23024.46
447.459	22899.53
447.665	22739.79
447.871	23989.05
448.078	24951.6
448.284	23436.1
448.491	24249.14
448.697	25576.23
448.903	25838.37
449.11	26174.24
449.316	25373.48
449.522	26053.41
449.728	26766.1
449.935	27009.81
450.141	26948.37
450.347	27794.18
450.553	26454.81
450.76	27067.15
450.966	27937.54
451.172	27687.68
451.378	28338.94
451.584	27665.16
451.791	28494.58
451.997	28488.44
452.203	29111.02
452.409	29035.25
452.615	28957.42
452.821	27499.27
453.027	27579.14
453.233	29205.23
453.44	27888.39
453.646	28254.97
453.852	28279.55
454.058	28961.52
454.264	27648.77
454.47	28654.33
454.676	27749.12
454.882	28680.95
455.088	26237.72
455.294	26557.21
455.5	27032.33
455.705	27300.62
455.911	26245.91
456.117	25735.97
456.323	25262.89
456.529	24126.27
456.735	25058.09
456.941	24437.56
457.147	24015.68
457.352	23300.94
457.558	23012.17
457.764	23100.23
457.97	22903.63
458.176	22117.21
458.381	21984.09
458.587	21009.26
458.793	21427.04
458.999	19788.67
459.204	21502.82
459.41	20835.18
459.616	19602.3
459.821	19438.47
460.027	19262.34
460.233	18830.22
460.438	18183.06
460.644	18316.18
460.85	17347.49
461.055	17103.78
461.261	17111.97
461.466	15856.57
461.672	15375.3
461.878	16561.07
462.083	15264.71
462.289	15334.34
462.494	15055.81
462.7	14173.14
462.905	14001.11
463.111	14500.81
463.316	14269.39
463.522	13935.57
463.727	14162.9
463.932	14074.84
464.138	13972.44
464.343	13994.97
464.549	13933.53
464.754	14109.65
464.959	13904.85
465.165	14132.18
465.37	13351.9
465.575	13024.23
465.781	13540.32
465.986	13452.25
466.191	13235.17
466.397	12688.36
466.602	12168.18
466.807	12645.35
467.012	12858.34
467.218	12467.18
467.423	12422.13
467.628	12588.01
467.833	13245.41
468.038	12549.1
468.244	12205.04
468.449	12731.37
468.654	12375.02
468.859	12182.51
469.064	12188.66
469.269	11557.88
469.474	11774.97
469.679	12102.64
469.885	11510.78
470.09	11721.72
470.295	11772.92
470.5	11133.95
470.705	11422.72
470.91	11179.01
471.115	11031.55
471.32	11068.42
471.525	11312.13
471.73	10994.69
471.935	11002.88
472.139	10726.41
472.344	10638.34
472.549	10531.85
472.754	10306.57
472.959	10308.62
473.164	9987.09
473.369	9923.6
473.574	10353.68
473.778	10126.35
473.983	9982.99
474.188	9843.73
474.393	9501.72
474.598	9421.85
474.802	9446.43
475.007	9495.58
475.212	9487.39
475.417	9022.5
475.621	9102.37
475.826	9155.61
476.031	8940.58
476.235	8883.24
476.44	8920.1
476.645	9018.4
476.849	8778.79
477.054	8682.53
477.259	8393.77
477.463	8490.03
477.668	8225.84
477.872	8520.74
478.077	8088.62
478.282	8094.77
478.486	7978.03
478.691	8248.36
478.895	8059.95
479.1	7797.81
479.304	8047.66
479.509	7668.79
479.713	7928.88
479.918	7724.08
480.122	7681.08
480.326	7658.55
480.531	7578.68
480.735	7367.74
480.94	7451.7
481.144	7758.9
481.348	7441.47
481.553	7320.63
481.757	7130.17
481.961	7361.59
482.166	7427.13
482.37	7490.62
482.574	7285.82
482.778	7226.43
482.983	7494.71
483.187	7201.85
483.391	7408.7
483.595	7175.23
483.8	7240.76
484.004	7439.42
484.208	7257.15
484.412	7281.72
484.616	7240.76
484.821	7308.35
485.025	7337.02
485.229	7230.52
485.433	7343.16
485.637	7322.68
485.841	7265.34
486.045	7459.9
486.249	7283.77
486.453	7222.33
486.657	7341.11
486.861	7504.95
487.065	7081.02
487.269	7459.9
487.473	7109.69
487.677	7265.34
487.881	7425.08
488.085	7101.5
488.289	7439.42
488.493	7298.11
488.697	7316.54
488.901	7330.87
489.105	7373.88
489.309	7359.55
489.512	7365.69
489.716	7394.36
489.92	7402.55
490.124	7248.96
490.328	7324.73
490.531	7439.42
490.735	7523.38
490.939	7717.94
491.143	7369.79
491.346	7558.2
491.55	7738.42
491.754	7461.94
491.958	7699.51
492.161	7644.21
492.365	7771.19
492.569	7664.69
492.772	7650.36
492.976	7783.48
493.18	7818.29
493.383	8016.94
493.587	7859.25
493.79	7902.26
493.994	7930.93
494.197	8221.74
494.401	8121.39
494.605	8170.54
494.808	8197.17
495.012	8293.42
495.215	8430.63
495.419	8344.62
495.622	8399.91
495.825	8543.27
496.029	8322.09
496.232	8881.19
496.436	8551.46
496.639	8889.38
496.843	8825.89
497.046	8952.87
497.249	9221.15
497.453	9026.59
497.656	9313.31
497.859	9192.48
498.063	9473.05
498.266	9651.22
498.469	9552.92
498.673	9477.15
498.876	9878.55
499.079	10062.87
499.282	9884.69
499.485	10304.53
499.689	10300.43
499.892	10380.3
500.095	10486.79
500.298	10511.37
500.501	10546.19
500.705	10896.39
500.908	10972.16
501.111	10998.79
501.314	11197.44
501.517	11375.61
501.72	11318.27
501.923	11396.09
502.126	11725.82
502.329	12002.29
502.532	11938.8
502.735	11668.47
502.938	12125.17
503.141	12182.51
503.344	12651.5
503.547	12563.43
503.75	12596.2
503.953	13067.24
504.156	12893.16
504.359	13106.15
504.562	13411.29
504.765	13495.26
504.968	13548.51
505.17	13980.63
505.373	13792.22
505.576	13929.43
505.779	14351.31
505.982	14281.68
506.185	14597.07
506.387	14607.31
506.59	14867.4
506.793	15291.33
506.996	15193.03
507.198	15713.21
507.401	15356.86
507.604	15797.18
507.807	16229.3
508.009	16305.07
508.212	16225.2
508.415	16442.29
508.617	16767.91
508.82	16630.7
509.022	16765.87
509.225	17386.4
509.428	17410.98
509.63	17433.5
509.833	17814.43
510.035	17943.45
510.238	18156.44
510.44	18377.62
510.643	18291.6
510.845	18830.22
511.048	18774.92
511.25	19004.3
511.453	19012.49
511.655	19594.11
511.858	19567.49
512.06	19639.17
512.262	20030.33
512.465	19673.98
512.667	20317.04
512.87	20587.38
513.072	20562.8
513.274	20814.7
513.477	21197.67
513.679	21255.01
513.881	21576.55
514.084	22010.71
514.286	21904.22
514.488	22025.05
514.69	22717.26
514.893	22727.5
515.095	22655.82
515.297	23012.17
515.499	23169.87
515.701	23259.98
515.904	23636.8
516.106	23692.1
516.308	24150.84
516.51	24132.41
516.712	24165.18
516.914	24748.85
517.116	25285.42
517.318	25293.61
517.52	25223.98
517.722	25682.72
517.925	25940.77
518.127	26241.82
518.329	26491.67
518.531	26340.12
518.733	26897.17
518.935	27024.14
519.136	26899.22
519.338	27403.02
519.54	27712.26
519.742	27542.28
519.944	27802.37
520.146	28070.65
520.348	28250.88
520.55	28654.33
520.752	28857.07
520.954	29051.63
521.155	28910.32
521.357	29573.86
521.559	29833.96
521.761	30448.35
521.963	30163.68
522.164	30614.23
522.366	30538.46
522.568	30759.64
522.77	31240.91
522.971	31158.99
523.173	31273.68
523.375	31206.09
523.576	31632.07
523.778	31599.3
523.98	31988.42
524.181	32338.62
524.383	32393.92
524.584	32701.11
524.786	32721.59
524.988	32848.57
525.189	32899.76
525.391	33319.6
525.592	33434.28
525.794	33204.91
525.995	33718.95
526.197	33675.94
526.398	33831.59
526.6	34149.03
526.801	34196.13
527.003	34560.67
527.204	34306.72
527.406	34546.33
527.607	34484.89
527.808	34718.36
528.01	34122.4
528.211	34708.12
528.412	35334.8
528.614	35299.98
528.815	35082.9
529.016	35295.89
529.218	35308.18
529.419	35111.57
529.62	35308.18
529.822	35084.95
530.023	35539.6
530.224	35535.5
530.425	35521.16
530.626	35601.04
530.828	35498.64
531.029	36088.45
531.23	35605.13
531.431	35527.31
531.632	36061.83
531.833	36080.26
532.035	35949.19
532.236	35973.77
532.437	36194.95
532.638	36156.03
532.839	36172.42
533.04	36254.34
533.241	35832.46
533.442	36606.59
533.643	36360.83
533.844	36199.04
534.045	36305.54
534.246	35953.29
534.447	36305.54
534.648	36182.66
534.849	36332.16
535.05	36207.23
535.251	36317.82
535.451	36199.04
535.652	36369.02
535.853	36182.66
536.054	36262.53
536.255	36323.97
536.456	35715.72
536.657	36278.91
536.857	36338.3
537.058	36366.98
537.259	36633.21
537.46	36358.78
537.66	36432.51
537.861	36371.07
538.062	36022.92
538.263	36205.19
538.463	36313.73
538.664	36121.22
538.865	36190.85
539.065	36196.99
539.266	36059.78
539.466	36418.17
539.667	35664.52
539.868	36432.51
540.068	36082.31
540.269	35928.71
540.469	36377.22
540.67	36102.79
540.87	36092.55
541.071	36145.8
541.271	36129.41
541.472	36254.34
541.672	35895.94
541.873	36070.02
542.073	35805.83
542.274	36489.85
542.474	35781.26
542.675	35539.6
542.875	36213.38
543.075	35889.8
543.276	35797.64
543.476	36070.02
543.676	36213.38
543.877	36352.64
544.077	36143.75
544.277	36006.53
544.478	35799.69
544.678	36297.34
544.878	36102.79
545.078	36270.72
545.279	35777.16
545.479	36033.16
545.679	35732.11
545.879	36043.4
546.079	36192.9
546.28	35834.5
546.48	35879.56
546.68	36283.01
546.88	36016.77
547.08	35920.52
547.28	35883.66
547.48	35555.98
547.68	35900.04
547.88	35703.43
548.081	36274.82
548.281	35902.09
548.481	35533.45
548.681	35959.43
548.881	35816.07
549.081	35805.83
549.28	35631.75
549.48	35740.3
549.68	35472.01
549.88	35791.5
550.08	35328.66
550.28	35725.96
550.48	35857.03
550.68	35943.05
550.88	35457.68
551.08	35648.14
551.279	35846.79
551.479	35342.99
551.679	35627.66
551.879	35363.47
552.079	35633.8
552.278	35383.95
552.478	35850.89
552.678	35510.92
552.878	35359.38
553.077	35551.88
553.277	35224.21
553.477	35969.67
553.676	35410.57
553.876	35338.9
554.076	35299.98
554.275	35289.74
554.475	34738.84
554.674	34927.25
554.874	35261.07
555.074	35404.43
555.273	35277.46
555.473	35625.61
555.672	34929.3
555.872	35173.01
556.071	34964.12
556.271	35259.02
556.47	34980.5
556.67	34800.28
556.869	34755.22
557.068	34970.26
557.268	35025.56
557.467	34675.35
557.667	34396.83
557.866	35218.07
558.065	34998.93
558.265	34542.24
558.464	34525.85
558.663	34890.39
558.863	33974.95
559.062	35134.1
559.261	34024.1
559.461	34957.97
559.66	34402.97
559.859	34450.08
560.058	34220.7
560.258	34374.3
560.457	33841.83
560.656	34155.17
560.855	33860.26
561.054	33798.82
561.253	33694.38
561.453	33843.88
561.652	34063.01
561.851	33866.41
562.05	33972.9
562.249	33174.19
562.448	34204.32
562.647	33723.05
562.846	33745.58
563.045	33647.27
563.244	33700.52
563.443	33739.43
563.642	32965.3
563.841	33422
564.04	33403.56
564.239	33643.18
564.438	33186.48
564.637	33440.43
564.836	33403.56
565.035	32977.59
565.234	33055.41
565.432	33069.75
565.631	32844.47
565.83	32993.97
566.029	32699.06
566.228	32627.38
566.427	32547.51
566.625	32219.84
566.824	32494.27
567.023	32578.23
567.222	31947.46
567.42	32479.93
567.619	32359.1
567.818	32449.21
568.016	32084.67
568.215	32285.37
568.414	31957.7
568.612	31873.73
568.811	31664.84
569.01	31902.4
569.208	31666.89
569.407	31843.01
569.605	31331.02
569.804	31662.79
570.002	31513.29
570.201	31607.5
570.4	31333.07
570.598	31314.64
570.797	31199.95
570.995	31353.55
571.193	30847.7
571.392	31443.66
571.59	30804.69
571.789	30751.45
571.987	30905.04
572.186	30673.62
572.384	30593.75
572.582	30550.74
572.781	30632.66
572.979	30204.64
573.177	30382.81
573.376	30595.8
573.574	29922.02
573.772	30327.52
573.971	30309.08
574.169	29651.69
574.367	29676.26
574.565	29940.45
574.763	29813.48
574.962	29786.85
575.16	29156.08
575.358	29520.62
575.556	29620.97
575.754	29432.55
575.952	29168.37
576.151	29555.43
576.349	28824.31
576.547	28953.33
576.745	29238
576.943	28984.05
577.141	29029.1
577.339	29008.62
577.537	29018.86
577.735	29006.58
577.933	28650.23
578.131	28687.09
578.329	28443.38
578.527	28302.07
578.725	28437.24
578.923	28355.32
579.121	28177.15
579.319	28066.56
579.516	28222.2
579.714	28060.41
579.912	27730.69
580.11	28048.13
580.308	27851.52
580.506	27724.55
580.704	27331.34
580.901	27497.22
581.099	27702.02
581.297	27278.09
581.495	27095.82
581.692	27654.92
581.89	27372.3
582.088	26923.79
582.285	26823.44
582.483	27276.04
582.681	26860.3
582.878	26960.66
583.076	26542.87
583.274	27247.37
583.471	26657.56
583.669	26819.35
583.866	26393.37
584.064	26802.96
584.262	26104.6
584.459	26864.4
584.657	25987.87
584.854	26403.61
585.052	25830.18
585.249	26604.31
585.447	26213.15
585.644	25854.75
585.841	25844.51
586.039	26100.51
586.236	25764.64
586.434	25639.72
586.631	25711.39
586.828	25733.92
587.026	25400.1
587.223	25092.91
587.42	25150.25
587.618	24898.35
587.815	24996.65
588.012	24992.56
588.21	25017.13
588.407	25359.14
588.604	24967.98
588.801	24539.96
588.999	24636.21
589.196	24496.95
589.393	24689.46
589.59	24576.82
589.787	24564.53
589.984	24116.03
590.182	24277.82
590.379	24318.78
590.576	24339.26
590.773	23923.52
590.97	23896.89
591.167	24232.76
591.364	23829.31
591.561	23853.89
591.758	23819.07
591.955	23653.19
592.152	23876.41
592.349	23198.54
592.546	23558.98
592.743	23501.64
592.94	23307.08
593.137	23395.14
593.334	23139.15
593.531	23176.01
593.727	22948.68
593.924	23219.02
594.121	23145.29
594.318	23108.43
594.515	22698.83
594.712	22803.28
594.908	22743.89
595.105	22635.35
595.302	22739.79
595.499	22453.08
595.696	22760.27
595.892	22260.57
596.089	22143.83
596.286	22094.68
596.482	21820.25
596.679	22172.5
596.876	22233.94
597.072	22266.71
597.269	22117.21
597.466	21713.76
597.662	21566.31
597.859	21844.83
598.055	21871.45
598.252	21394.28
598.448	21330.79
598.645	21678.94
598.841	21293.93
599.038	21207.91
599.234	21361.51
599.431	20919.15
599.627	20851.56
599.824	21365.6
600.02	20890.48
600.217	20962.15
600.413	20872.04
600.609	20642.67
600.806	20562.8
601.002	20908.91
601.198	20478.83
601.395	20525.94
601.591	20525.94
601.787	20663.15
601.984	20331.38
602.18	20296.56
602.376	20216.69
602.572	20372.34
602.769	20183.93
602.965	20128.63
603.161	20018.04
603.357	20071.29
603.553	19757.95
603.75	19983.23
603.946	19913.59
604.142	19673.98
604.338	19491.71
604.534	19907.45
604.73	19258.24
604.926	19475.33
605.122	19508.1
605.318	19317.64
605.514	19094.41
605.71	19250.05
605.906	19004.3
606.102	19221.38
606.298	18877.32
606.494	19106.7
606.69	19102.6
606.886	19096.46
607.082	18729.87
607.278	19092.36
607.474	18723.72
607.67	18842.51
607.866	18488.21
608.062	18635.66
608.257	18394
608.453	18623.37
608.649	18834.32
608.845	18285.46
609.041	18353.04
609.236	18465.68
609.432	18289.56
609.628	18279.32
609.824	18154.39
610.019	18320.28
610.215	17945.5
610.411	18158.49
610.606	17884.06
610.802	18183.06
610.998	18054.04
611.193	17822.62
611.389	17814.43
611.584	17802.14
611.78	17865.63
611.976	17783.71
612.171	17695.64
612.367	17886.11
612.562	17963.93
612.758	17511.33
612.953	17611.68
613.149	17888.15
613.344	17634.21
613.539	17896.35
613.735	17410.98
613.93	17456.03
614.126	17408.93
614.321	17669.02
614.517	17415.07
614.712	17132.45
614.907	17267.62
615.103	17400.74
615.298	16960.42
615.493	17376.16
615.688	16776.11
615.884	17265.57
616.079	17114.02
616.274	16716.72
616.47	17032.1
616.665	16866.22
616.86	16886.7
617.055	16747.44
617.25	16849.83
617.445	16825.26
617.641	16391.09
617.836	16819.11
618.031	16675.76
618.226	16593.84
618.421	16280.5
618.616	16663.47
618.811	16237.49
619.006	16565.17
619.201	16128.95
619.396	16190.39
619.591	16108.47
619.786	16174
619.981	15920.06
620.176	16135.09
620.371	15772.6
620.566	15829.95
620.761	15870.9
620.956	15774.65
621.151	15608.76
621.346	15586.24
621.541	15469.5
621.735	15522.75
621.93	14943.17
622.125	15244.23
622.32	15033.29
622.515	14994.37
622.709	15049.67
622.904	14728.14
623.099	14969.8
623.294	14945.22
623.488	14787.53
623.683	14863.3
623.878	14492.62
624.072	14572.49
624.267	14332.88
624.462	14498.77
624.656	14156.75
624.851	14418.89
625.046	13925.33
625.24	14005.2
625.435	13796.31
625.629	13847.51
625.824	13788.12
626.018	13779.93
626.213	13442.01
626.407	13548.51
626.602	13288.42
626.796	13640.67
626.991	13392.86
627.185	13399.01
627.38	13104.1
627.574	13347.81
627.768	13231.07
627.963	13083.62
628.157	12927.97
628.352	12792.81
628.546	12876.77
628.74	12796.9
628.935	12551.15
629.129	12686.31
629.323	12555.24
629.517	12530.67
629.712	12585.96
629.906	12270.58
630.1	12123.12
630.294	12139.51
630.489	12153.84
630.683	12243.95
630.877	11863.03
631.071	11772.92
631.265	12278.77
631.459	11858.93
631.653	11779.06
631.848	11795.45
632.042	11658.23
632.236	11699.19
632.43	11408.38
632.624	11500.54
632.818	11330.56
633.012	11226.11
633.206	11097.09
633.4	11437.05
633.594	11148.29
633.788	11107.33
633.982	10845.19
634.176	11000.83
634.369	11082.75
634.563	10939.4
634.757	10767.37
634.951	10855.43
635.145	10677.26
635.339	10736.65
635.533	10585.1
635.726	10687.5
635.92	10304.53
636.114	10525.71
636.308	10429.45
636.501	10370.06
636.695	10185.74
636.889	10146.83
637.083	10267.66
637.276	10140.69
637.47	10034.19
637.664	10054.67
637.857	10040.34
638.051	9933.84
638.244	9833.49
638.438	9819.16
638.632	9610.26
638.825	9659.42
639.019	9661.46
639.212	9573.4
639.406	9489.43
639.599	9559.06
639.793	9319.45
639.986	9303.07
640.18	9180.19
640.373	9083.94
640.567	9149.47
640.76	9098.27
640.954	9106.46
641.147	9137.18
641.34	8993.83
641.534	8887.33
641.727	8944.67
641.92	8973.35
642.114	8756.26
642.307	8858.66
642.5	8860.71
642.694	8569.9
642.887	8485.93
643.08	8563.75
643.273	8473.64
643.467	8412.2
643.66	8561.7
643.853	8350.76
644.046	8100.91
644.239	8260.65
644.432	8334.38
644.626	8199.21
644.819	8018.99
645.012	8059.95
645.205	8043.57
645.398	7926.83
645.591	7859.25
645.784	7844.91
645.977	7810.1
646.17	7783.48
646.363	7699.51
646.556	7519.29
646.749	7597.11
646.942	7912.5
647.135	7488.57
647.328	7646.26
647.521	7353.4
647.714	7279.68
647.907	7351.35
648.099	7373.88
648.292	7312.44
648.485	7339.07
648.678	7175.23
648.871	7279.68
649.064	7052.35
649.256	7203.9
649.449	7052.35
649.642	6913.09
649.835	6941.76
650.027	6943.81
650.22	6841.41
650.413	6898.75
650.605	6847.55
650.798	6810.69
650.991	6661.19
651.183	6888.51
651.376	6587.46
651.568	6712.39
651.761	6448.2
651.954	6626.37
652.146	6554.69
652.339	6462.54
652.531	6616.13
652.724	6429.77
652.916	6014.03
653.109	6329.42
653.301	6126.67
653.494	6300.75
653.686	6218.83
653.879	6331.47
654.071	6138.96
654.263	6181.96
654.456	6093.9
654.648	5973.07
654.84	6048.85
655.033	5962.83
655.225	5938.26
655.417	5940.3
655.61	5899.34
655.802	5864.53
655.994	5829.71
656.186	5878.86
656.379	5833.81
656.571	5801.04
656.763	5676.12
656.955	5663.83
657.148	5723.22
657.34	5682.26
657.532	5741.65
657.724	5708.88
657.916	5733.46
658.108	5381.21
658.3	5473.37
658.492	5465.18
658.684	5330.01
658.876	5489.75
659.068	5475.42
659.26	5350.49
659.452	5209.18
659.644	5223.51
659.836	5233.75
660.028	5192.8
660.22	5112.92
660.412	5227.61
660.604	5166.17
660.796	5192.8
660.988	5086.3
661.18	5155.93
661.372	4951.14
661.563	5092.44
661.755	4871.26
661.947	4910.18
662.139	4787.3
662.331	4787.3
662.522	4664.42
662.714	4852.83
662.906	4699.23
663.097	4652.13
663.289	4732
663.481	4693.09
663.673	4570.21
663.864	4627.56
664.056	4615.27
664.247	4447.33
664.439	4500.58
664.631	4615.27
664.822	4537.45
665.014	4490.34
665.205	4484.2
665.397	4441.19
665.588	4408.42
665.78	4373.61
665.971	4342.89
666.163	4277.35
666.354	4232.3
666.546	4189.29
666.737	4226.15
666.929	4244.59
667.12	4252.78
667.311	4078.7
667.503	4115.56
667.694	4203.63
667.885	3941.49
668.077	3980.4
668.268	3880.05
668.459	3939.44
668.651	3865.71
668.842	3916.91
669.033	3847.28
669.224	3843.18
669.416	3970.16
669.607	3892.34
669.798	3886.19
669.989	3875.95
670.18	3710.07
670.371	3726.45
670.563	3701.87
670.754	3738.74
670.945	3755.12
671.136	3785.84
671.327	3644.53
671.518	3626.1
671.709	3642.48
671.9	3728.5
672.091	3642.48
672.282	3630.2
672.473	3554.42
672.664	3585.14
672.855	3581.04
673.046	3583.09
673.237	3595.38
673.428	3415.16
673.619	3540.08
673.809	3511.41
674	3437.69
674.191	3443.83
674.382	3488.89
674.573	3376.25
674.764	3349.62
674.954	3400.82
675.145	3431.54
675.336	3411.06
675.527	3341.43
675.717	3316.86
675.908	3359.86
676.099	3335.29
676.289	3216.51
676.48	3390.58
676.671	3292.28
676.861	3187.83
677.052	3206.27
677.243	3222.65
677.433	3026.04
677.624	3112.06
677.814	3165.31
678.005	3144.83
678.195	3202.17
678.386	3144.83
678.576	3021.95
678.767	2993.28
678.957	3060.86
679.148	2970.75
679.338	3021.95
679.529	2931.84
679.719	2956.41
679.909	3038.33
680.1	3032.19
680.29	2937.98
680.481	2989.18
680.671	3075.2
680.861	2808.96
681.052	2960.51
681.242	2796.67
681.432	2913.41
681.622	2925.69
681.813	2876.54
682.003	2741.38
682.193	2792.58
682.383	2800.77
682.573	2755.71
682.764	2784.38
682.954	2929.79
683.144	2813.06
683.334	2749.57
683.524	2786.43
683.714	2847.87
683.904	2653.31
684.094	2796.67
684.284	2770.05
684.474	2813.06
684.664	2864.25
684.854	2714.75
685.044	2718.85
685.234	2792.58
685.424	2641.03
685.614	2673.79
685.804	2751.62
685.994	2706.56
686.184	2704.51
686.374	2727.04
686.564	2718.85
686.753	2634.88
686.943	2620.55
687.133	2579.59
687.323	2579.59
687.513	2475.14
687.702	2620.55
687.892	2579.59
688.082	2641.03
688.272	2643.07
688.461	2507.91
688.651	2649.22
688.841	2593.92
689.03	2587.78
689.22	2491.52
689.41	2604.16
689.599	2540.68
689.789	2667.65
689.979	2493.57
690.168	2419.85
690.358	2595.97
690.547	2516.1
690.737	2464.9
690.926	2425.99
691.116	2436.23
691.305	2415.75
691.495	2528.39
691.684	2425.99
691.874	2401.41
692.063	2581.64
692.252	2466.95
692.442	2544.77
692.631	2323.59
692.82	2438.28
693.01	2358.41
693.199	2337.93
693.388	2305.16
693.578	2421.89
693.767	2456.71
693.956	2438.28
694.146	2382.98
694.335	2415.75
694.524	2395.27
694.713	2294.92
694.902	2329.74
695.092	2301.06
695.281	2440.33
695.47	2423.94
695.659	2235.53
695.848	2342.02
696.037	2251.91
696.226	2311.3
696.415	2299.02
696.604	2374.79
696.793	2317.45
696.982	2243.72
697.171	2346.12
697.36	2301.06
697.549	2319.5
697.738	2270.34
697.927	2409.61
698.116	2184.33
698.305	2180.23
698.494	2335.88
698.683	2169.99
698.872	2120.84
699.061	2210.95
699.25	2223.24
699.438	2272.39
699.627	2219.14
699.816	2227.34
700.005	2260.1
700.193	2227.34
700.382	2356.36
700.571	2186.38
700.76	2188.43
700.948	2243.72
701.137	2161.8
701.326	2215.05
701.514	2174.09
701.703	2081.93
701.892	2129.03
702.08	2249.86
702.269	2088.07
702.457	2145.42
702.646	2157.71
702.834	2139.27
703.023	2165.9
703.212	2049.16
703.4	2067.6
703.589	2092.17
703.777	2077.83
703.965	2149.51
704.154	2126.99
704.342	2053.26
704.531	2120.84
704.719	2024.59
704.907	2120.84
705.096	2028.68
705.284	2065.55
705.472	2061.45
705.661	2049.16
705.849	2143.37
706.037	2079.88
706.226	2153.61
706.414	2114.7
706.602	2045.07
706.79	2059.4
706.979	2006.16
707.167	1930.38
707.355	2053.26
707.543	2047.12
707.731	1973.39
707.919	1961.1
708.107	2034.83
708.296	2034.83
708.484	2000.01
708.672	2061.45
708.86	1916.05
709.048	1901.71
709.236	1959.05
709.424	1930.38
709.612	1965.2
709.8	1957
709.988	1950.86
710.176	1967.24
710.364	1920.14
710.551	1887.37
710.739	1883.28
710.927	1920.14
711.115	1936.53
711.303	1924.24
711.491	1893.52
711.679	1879.18
711.866	1893.52
712.054	1889.42
712.242	1952.91
712.43	1883.28
712.617	1918.09
712.805	1911.95
712.993	1907.85
713.181	1860.75
713.368	1873.04
713.556	1887.37
713.744	1752.21
713.931	1846.41
714.119	1729.68
714.306	1823.89
714.494	1698.96
714.682	1836.17
714.869	1801.36
715.057	1883.28
715.244	1813.65
715.432	1746.06
715.619	1862.8
715.807	1694.86
715.994	1848.46
716.182	1744.02
716.369	1776.78
716.556	1698.96
716.744	1774.74
716.931	1748.11
717.119	1774.74
717.306	1780.88
717.493	1752.21
717.681	1686.67
717.868	1760.4
718.055	1711.25
718.242	1776.78
718.43	1664.15
718.617	1686.67
718.804	1541.27
718.991	1756.3
719.179	1688.72
719.366	1696.91
719.553	1598.61
719.74	1719.44
719.927	1666.19
720.114	1590.42
720.301	1612.95
720.488	1580.18
720.676	1483.92
720.863	1627.28
721.05	1574.03
721.237	1621.14
721.424	1649.81
721.611	1571.99
721.798	1488.02
721.985	1574.03
722.172	1686.67
722.358	1610.9
722.545	1469.59
722.732	1547.41
722.919	1502.36
723.106	1600.66
723.293	1623.19
723.48	1533.08
723.667	1498.26
723.853	1625.23
724.04	1565.84
724.227	1457.3
724.414	1535.12
724.6	1363.09
724.787	1475.73
724.974	1440.92
725.161	1387.67
725.347	1516.69
725.534	1467.54
725.72	1449.11
725.907	1412.25
726.094	1510.55
726.28	1477.78
726.467	1457.3
726.653	1500.31
726.84	1461.4
727.027	1516.69
727.213	1420.44
727.4	1535.12
727.586	1402.01
727.773	1520.79
727.959	1389.72
728.145	1420.44
728.332	1584.27
728.518	1395.86
728.705	1430.68
728.891	1428.63
729.077	1420.44
729.264	1451.16
729.45	1416.34
729.636	1367.19
729.823	1418.39
730.009	1383.57
730.195	1412.25
730.382	1363.09
730.568	1295.51
730.754	1410.2
730.94	1373.33
731.126	1490.07
731.313	1412.25
731.499	1334.42
731.685	1322.13
731.871	1332.37
732.057	1430.68
732.243	1442.96
732.429	1326.23
732.615	1354.9
732.801	1363.09
732.987	1367.19
733.173	1195.16
733.359	1322.13
733.545	1340.57
733.731	1311.89
733.917	1252.5
734.103	1326.23
734.289	1313.94
734.475	1289.37
734.661	1336.47
734.847	1225.88
735.033	1336.47
735.219	1240.22
735.404	1242.26
735.59	1303.7
735.776	1242.26
735.962	1399.96
736.148	1356.95
736.333	1176.73
736.519	1229.98
736.705	1275.03
736.89	1205.4
737.076	1170.58
737.262	1178.78
737.447	1254.55
737.633	1238.17
737.819	1143.96
738.004	1205.4
738.19	1258.65
738.375	1254.55
738.561	1186.97
738.747	1201.3
738.932	1254.55
739.118	1254.55
739.303	1254.55
739.489	1277.08
739.674	1180.82
739.859	1201.3
740.045	1154.2
740.23	1168.54
740.416	1162.39
740.601	1193.11
740.786	1240.22
740.972	1227.93
741.157	1195.16
741.342	1121.43
741.528	1141.91
741.713	1219.74
741.898	1242.26
742.084	1135.77
742.269	1105.05
742.454	1121.43
742.639	1195.16
742.824	1166.49
743.01	1125.53
743.195	1148.06
743.38	1137.82
743.565	1094.81
743.75	1103
743.935	1092.76
744.12	1105.05
744.305	1047.71
744.49	1088.67
744.675	998.56
744.86	949.4
745.045	1094.81
745.23	1084.57
745.415	1010.84
745.6	1107.1
745.785	994.46
745.97	1055.9
746.155	1072.28
746.34	1080.47
746.525	1027.23
746.71	1096.86
746.895	1021.08
747.079	1053.85
747.264	973.98
747.449	1096.86
747.634	990.36
747.819	1006.75
748.003	928.92
748.188	953.5
748.373	1002.65
748.557	1002.65
748.742	933.02
748.927	885.92
749.111	937.12
749.296	943.26
749.481	971.93
749.665	906.4
749.85	965.79
750.034	935.07
750.219	937.12
750.404	892.06
750.588	840.86
750.773	890.01
750.957	834.72
751.141	957.6
751.326	838.81
751.51	871.58
751.695	814.24
751.879	844.96
752.064	863.39
752.248	896.16
752.432	959.64
752.617	795.81
752.801	853.15
752.985	742.56
753.17	883.87
753.354	781.47
753.538	849.05
753.722	808.09
753.907	814.24
754.091	836.77
754.275	781.47
754.459	744.61
754.643	785.57
754.828	824.48
755.012	763.04
755.196	824.48
755.38	750.75
755.564	713.89
755.748	765.09
755.932	769.18
756.116	730.27
756.3	818.33
756.484	664.74
756.668	760.99
756.852	681.12
757.036	687.26
757.22	697.5
757.404	695.46
757.588	709.79
757.772	687.26
757.956	799.9
758.14	644.26
758.323	656.54
758.507	738.46
758.691	634.02
758.875	668.83
759.059	713.89
759.242	677.02
759.426	679.07
759.61	648.35
759.794	601.25
759.977	629.92
760.161	658.59
760.345	605.35
760.528	646.3
760.712	674.98
760.895	631.97
761.079	670.88
761.263	646.3
761.446	568.48
761.63	617.63
761.813	601.25
761.997	648.35
762.18	625.83
762.364	697.5
762.547	517.28
762.731	605.35
762.914	697.5
763.098	650.4
763.281	588.96
763.464	578.72
763.648	672.93
763.831	570.53
764.015	617.63
764.198	611.49
764.381	570.53
764.564	552.1
764.748	554.15
764.931	607.39
765.114	548
765.297	597.15
765.481	582.82
765.664	634.02
765.847	525.47
766.03	570.53
766.213	525.47
766.397	640.16
766.58	574.63
766.763	607.39
766.946	480.42
767.129	515.23
767.312	552.1
767.495	515.23
767.678	588.96
767.861	595.11
768.044	597.15
768.227	566.43
768.41	535.71
768.593	476.32
768.776	605.35
768.959	504.99
769.142	529.57
769.324	513.19
769.507	498.85
769.69	564.39
769.873	570.53
770.056	623.78
770.239	478.37
770.421	531.62
770.604	588.96
770.787	480.42
770.97	580.77
771.152	515.23
771.335	504.99
771.518	468.13
771.7	439.46
771.883	545.95
772.066	498.85
772.248	517.28
772.431	515.23
772.613	511.14
772.796	433.32
772.978	423.08
773.161	490.66
773.343	504.99
773.526	490.66
773.708	507.04
773.891	425.12
774.073	513.19
774.256	402.6
774.438	550.05
774.621	490.66
774.803	500.9
774.985	429.22
775.168	427.17
775.35	410.79
775.532	478.37
775.715	480.42
775.897	455.84
776.079	461.99
776.261	500.9
776.444	439.46
776.626	418.98
776.808	375.97
776.99	427.17
777.173	459.94
777.355	418.98
777.537	388.26
777.719	416.93
777.901	353.45
778.083	388.26
778.265	373.92
778.447	423.08
778.629	453.8
778.811	449.7
778.993	361.64
779.175	400.55
779.357	431.27
779.539	425.12
779.721	439.46
779.903	357.54
780.085	347.3
780.267	384.16
780.449	449.7
780.631	375.97
780.812	351.4
780.994	349.35
781.176	361.64
781.358	349.35
781.54	353.45
781.721	384.16
781.903	378.02
782.085	359.59
782.267	425.12
782.448	332.97
782.63	287.91
782.812	353.45
782.993	347.3
783.175	369.83
783.357	361.64
783.538	367.78
783.72	275.62
783.901	367.78
784.083	332.97
784.264	339.11
784.446	263.33
784.627	351.4
784.809	304.29
784.99	283.81
785.172	287.91
785.353	310.44
785.535	298.15
785.716	271.53
785.897	330.92
786.079	330.92
786.26	255.14
786.441	308.39
786.623	238.76
786.804	326.82
786.985	357.54
787.167	337.06
787.348	267.43
787.529	337.06
787.71	382.12
787.891	269.48
788.073	195.75
788.254	244.9
788.435	228.52
788.616	263.33
788.797	238.76
788.978	285.86
789.159	298.15
789.34	269.48
789.522	179.37
789.703	228.52
789.884	230.57
790.065	246.95
790.246	238.76
790.427	212.14
790.607	249
790.788	269.48
790.969	236.71
791.15	240.81
791.331	158.89
791.512	205.99
791.693	210.09
791.874	183.46
792.054	122.02
792.235	205.99
792.416	234.66
792.597	212.14
792.778	212.14
792.958	222.38
793.139	175.27
793.32	220.33
793.5	160.94
793.681	214.18
793.862	144.55
794.042	189.61
794.223	175.27
794.404	261.29
794.584	165.03
794.765	165.03
794.945	201.9
795.126	162.98
795.306	171.18
795.487	126.12
795.667	226.47
795.848	171.18
796.028	173.22
796.209	162.98
796.389	216.23
796.57	187.56
796.75	212.14
796.93	185.51
797.111	162.98
797.291	230.57
797.471	136.36
797.652	203.94
797.832	187.56
798.012	222.38
798.192	152.74
798.373	179.37
798.553	130.22
798.733	224.42
798.913	189.61
799.093	203.94
799.274	167.08
799.454	173.22
799.634	167.08
799.814	187.56
799.994	156.84
800.174	187.56
800.354	105.64
800.534	144.55
800.714	126.12
800.894	220.33
801.074	171.18
801.254	140.46
801.434	140.46
801.614	97.45
801.794	156.84
801.974	363.69
802.154	87.21
802.334	142.5
802.514	103.59
802.693	109.74
802.873	138.41
803.053	109.74
803.233	105.64
803.413	236.71
803.592	175.27
803.772	130.22
803.952	177.32
804.131	179.37
804.311	105.64
804.491	167.08
804.67	173.22
804.85	103.59
805.03	189.61
805.209	148.65
805.389	79.02
805.568	107.69
805.748	132.26
805.928	210.09
806.107	46.25
806.287	173.22
806.466	154.79
806.646	142.5
806.825	97.45
807.004	87.21
807.184	113.83
807.363	136.36
807.543	165.03
807.722	72.87
807.901	132.26
808.081	154.79
808.26	183.46
808.439	154.79
808.619	134.31
808.798	148.65
808.977	76.97
809.156	85.16
809.336	115.88
809.515	160.94
809.694	79.02
809.873	162.98
810.052	150.7
810.231	240.81
810.411	76.97
810.59	48.3
810.769	99.5
810.948	99.5
811.127	97.45
811.306	83.11
811.485	79.02
811.664	152.74
811.843	56.49
812.022	205.99
812.201	93.35
812.38	113.83
812.559	99.5
812.737	107.69
812.916	115.88
813.095	42.15
813.274	119.98
813.453	138.41
813.632	56.49
813.811	126.12
813.989	119.98
814.168	111.78
814.347	25.77
814.526	81.07
814.704	58.54
814.883	154.79
815.062	58.54
815.24	130.22
815.419	33.96
815.598	138.41
815.776	52.39
815.955	105.64
816.133	3.24
816.312	40.11
816.49	56.49
816.669	138.41
816.847	97.45
817.026	115.88
817.204	91.31
817.383	115.88
817.561	56.49
817.74	119.98
817.918	74.92
818.097	101.55
818.275	-37.72
818.453	97.45
818.632	76.97
818.81	132.26
818.988	74.92
819.167	109.74
819.345	105.64
819.523	89.26
819.701	136.36
819.879	105.64
820.058	97.45
820.236	76.97
820.414	97.45
820.592	93.35
820.77	87.21
820.948	134.31
821.127	132.26
821.305	113.83
821.483	44.2
821.661	72.87
821.839	99.5
822.017	17.58
822.195	62.63
822.373	95.4
822.551	33.96
822.729	134.31
822.907	132.26
823.085	122.02
823.262	72.87
823.44	56.49
823.618	74.92
823.796	81.07
823.974	29.87
824.152	64.68
824.329	162.98
824.507	79.02
824.685	56.49
824.863	56.49
825.04	60.59
825.218	36.01
825.396	81.07
825.574	113.83
825.751	46.25
825.929	132.26
826.107	103.59
826.284	52.39
826.462	7.34
826.639	11.43
826.817	113.83
826.994	33.96
827.172	5.29
827.349	95.4
827.527	60.59
827.704	50.35
827.882	48.3
828.059	148.65
828.237	48.3
828.414	64.68
828.591	62.63
828.769	193.7
828.946	11.43
829.124	38.06
829.301	91.31
829.478	62.63
829.655	52.39
829.833	19.63
830.01	42.15
830.187	87.21
830.364	-11.09
830.542	83.11
830.719	50.35
830.896	36.01
831.073	95.4
831.25	42.15
831.427	52.39
831.604	40.11
831.782	46.25
831.959	62.63
832.136	87.21
832.313	44.2
832.49	81.07
832.667	93.35
832.844	-9.05
833.021	105.64
833.198	81.07
833.374	56.49
833.551	48.3
833.728	25.77
833.905	72.87
834.082	15.53
834.259	122.02
834.436	66.73
834.612	-11.09
834.789	107.69
834.966	76.97
835.143	58.54
835.319	64.68
835.496	72.87
835.673	146.6
835.85	60.59
836.026	83.11
836.203	23.72
836.38	52.39
836.556	48.3
836.733	7.34
836.909	81.07
837.086	-15.19
837.262	74.92
837.439	60.59
837.616	68.78
837.792	54.44
837.968	5.29
838.145	3.24
838.321	40.11
838.498	46.25
838.674	19.63
838.851	36.01
839.027	128.17
839.203	42.15
839.38	103.59
839.556	56.49
839.732	-17.24
839.909	-9.05
840.085	40.11
840.261	27.82
840.437	58.54
840.614	31.91
840.79	-2.9
840.966	109.74
841.142	27.82
841.318	33.96
841.494	89.26
841.671	56.49
841.847	76.97
842.023	-19.29
842.199	79.02
842.375	11.43
842.551	-90.96
842.727	7.34
842.903	50.35
843.079	56.49
843.255	27.82
843.431	-31.57
843.607	54.44
843.783	-29.52
843.959	-15.19
844.134	5.29
844.31	44.2
844.486	-17.24
844.662	87.21
844.838	-17.24
845.013	134.31
845.189	5.29
845.365	25.77
845.541	1.19
845.716	11.43
845.892	64.68
846.068	66.73
846.244	124.07
846.419	97.45
846.595	130.22
846.77	87.21
846.946	58.54
847.122	17.58
847.297	70.83
847.473	74.92
847.648	40.11
847.824	79.02
847.999	76.97
848.175	52.39
848.35	62.63
848.526	132.26
848.701	60.59
848.876	70.83
849.052	42.15
849.227	95.4
849.403	54.44
849.578	138.41
849.753	83.11
849.929	56.49
850.104	15.53
850.279	-2.9
850.454	40.11
850.63	42.15
850.805	50.35
850.98	36.01
851.155	11.43
851.33	42.15
851.505	17.58
851.681	91.31
851.856	17.58
852.031	46.25
852.206	72.87
852.381	-7
852.556	5.29
852.731	3.24
852.906	17.58
853.081	25.77
853.256	113.83
853.431	3.24
853.606	7.34
853.781	3.24
853.956	-11.09
854.131	38.06
854.305	19.63
854.48	54.44
854.655	56.49
854.83	31.91
855.005	40.11
855.18	31.91
855.354	50.35
855.529	76.97
855.704	17.58
855.879	79.02
856.053	56.49
856.228	105.64
856.403	54.44
856.577	68.78
856.752	-7
856.926	54.44
857.101	54.44
857.276	38.06
857.45	-9.05
857.625	7.34
857.799	64.68
857.974	72.87
858.148	33.96
858.323	-13.14
858.497	-21.33
858.672	27.82
858.846	-9.05
859.02	89.26
859.195	64.68
859.369	19.63
859.543	17.58
859.718	74.92
859.892	9.39
860.066	83.11
860.241	21.67
860.415	-39.76
860.589	60.59
860.763	52.39
860.938	-2.9
861.112	52.39
861.286	-23.38
861.46	-21.33
861.634	36.01
861.808	29.87
861.982	40.11
862.157	36.01
862.331	60.59
862.505	31.91
862.679	-2.9
862.853	25.77
863.027	83.11
863.201	15.53
863.375	-19.29
863.549	36.01
863.722	62.63
863.896	48.3
864.07	-54.1
864.244	-17.24
864.418	9.39
864.592	68.78
864.766	-47.96
864.939	36.01
865.113	-23.38
865.287	81.07
865.461	-45.91
865.634	40.11
865.808	-13.14
865.982	23.72
866.156	68.78
866.329	3.24
866.503	-0.85
866.676	76.97
866.85	-7
867.024	42.15
867.197	-21.33
867.371	-2.9
867.544	9.39
867.718	40.11
867.891	83.11
868.065	-33.62
868.238	25.77
868.412	56.49
868.585	29.87
868.759	-4.95
868.932	44.2
869.105	29.87
869.279	36.01
869.452	-7
869.625	31.91
869.799	72.87
869.972	-17.24
870.145	81.07
870.319	11.43
870.492	-43.86
870.665	21.67
870.838	40.11
871.011	17.58
871.185	3.24
871.358	-17.24
871.531	23.72
871.704	-9.05
871.877	5.29
872.05	1.19
872.223	-0.85
872.396	42.15
872.569	3.24
872.742	46.25
872.915	70.83
873.088	89.26
873.261	33.96
873.434	-58.2
873.607	-7
873.78	19.63
873.953	33.96
874.126	-35.67
874.299	44.2
874.471	-90.96
874.644	-23.38
874.817	13.48
874.99	-7
875.163	83.11
875.335	27.82
875.508	-58.2
875.681	-9.05
875.853	25.77
876.026	56.49
876.199	44.2
876.371	9.39
876.544	66.73
876.717	31.91
876.889	23.72
877.062	5.29
877.234	-31.57
877.407	42.15
877.579	-0.85
877.752	48.3
877.924	36.01
878.097	42.15
878.269	-70.48
878.442	-33.62
878.614	56.49
878.786	7.34
878.959	-9.05
879.131	85.16
879.303	-29.52
879.476	19.63
879.648	33.96
879.82	58.54
879.993	38.06
880.165	-31.57
880.337	-15.19
880.509	23.72
880.681	-27.48
880.854	5.29
881.026	119.98
881.198	54.44
881.37	-35.67
881.542	19.63
881.714	15.53
881.886	17.58
882.058	33.96
882.23	21.67
882.402	83.11
882.574	-21.33
882.746	50.35
882.918	27.82
883.09	68.78
883.262	54.44
883.434	-60.24
883.606	-29.52
883.778	17.58
883.95	13.48
884.122	99.5
884.293	-17.24
884.465	31.91
884.637	-43.86
884.809	-70.48
884.98	50.35
885.152	1.19
885.324	9.39
885.496	38.06
885.667	66.73
885.839	5.29
886.011	-50
886.182	48.3
886.354	40.11
886.525	42.15
886.697	21.67
886.869	-82.77
887.04	-11.09
887.212	11.43
887.383	-17.24
887.555	-4.95
887.726	-31.57
887.897	1.19
888.069	19.63
888.24	13.48
888.412	40.11
888.583	23.72
888.754	68.78
888.926	-37.72
889.097	-47.96
889.268	-37.72
889.44	23.72
889.611	-0.85
889.782	50.35
889.953	-47.96
890.125	5.29
890.296	15.53
890.467	-35.67
890.638	-93.01
890.809	38.06
890.98	15.53
891.151	64.68
891.323	-33.62
891.494	19.63
891.665	42.15
891.836	31.91
892.007	58.54
892.178	56.49
892.349	-7
892.52	-7
892.691	-0.85
892.862	-39.76
893.032	68.78
893.203	-7
893.374	-15.19
893.545	31.91
893.716	17.58
893.887	58.54
894.057	-31.57
894.228	105.64
894.399	42.15
894.57	33.96
894.74	13.48
894.911	-13.14
895.082	60.59
895.253	-50
895.423	-31.57
895.594	21.67
895.764	44.2
895.935	83.11
896.106	19.63
896.276	3.24
896.447	85.16
896.617	42.15
896.788	19.63
896.958	-15.19
897.129	7.34
897.299	56.49
897.47	-4.95
897.64	-58.2
897.81	-7
897.981	-41.81
898.151	-21.33
898.322	15.53
898.492	-15.19
898.662	54.44
898.832	19.63
899.003	25.77
899.173	25.77
899.343	-33.62
899.513	17.58
