Data from USB4F104151__80__12-59-50-560.txt Node

Date: Fri Mar 14 12:59:50 EDT 2025
User: louis
Spectrometer: USB4F10415
Trigger mode: 4
Integration Time (sec): 1.000000E-2
Scans to average: 1
Electric dark correction enabled: true
Nonlinearity correction enabled: false
Boxcar width: 0
XAxis mode: Wavelengths
Number of Pixels in Spectrum: 3648
>>>>>Begin Spectral Data<<<<<
178.204	-97.45
178.424	-97.45
178.644	-97.45
178.864	-3.24
179.084	-58.54
179.304	-1.19
179.524	43.86
179.744	54.1
179.964	29.52
180.184	-7.34
180.404	-17.58
180.624	9.05
180.844	-15.53
181.064	-23.72
181.283	-23.72
181.503	-50.35
181.723	2.9
181.943	2.9
182.163	9.05
182.383	35.67
182.602	-70.83
182.822	2.9
183.042	37.72
183.262	17.24
183.482	97.11
183.701	11.09
183.921	-5.29
184.141	50
184.361	60.24
184.58	50
184.8	54.1
185.02	25.43
185.239	50
185.459	-1.19
185.679	-7.34
185.898	-33.96
186.118	23.38
186.338	19.29
186.557	72.53
186.777	-17.58
186.997	-15.53
187.216	-1.19
187.436	43.86
187.655	11.09
187.875	-36.01
188.095	-33.96
188.314	52.05
188.534	-1.19
188.753	9.05
188.973	-33.96
189.192	2.9
189.412	-5.29
189.631	64.34
189.851	-79.02
190.07	72.53
190.29	-17.58
190.509	37.72
190.729	23.38
190.948	31.57
191.168	23.38
191.387	-15.53
191.607	4.95
191.826	-5.29
192.045	-19.63
192.265	84.82
192.484	17.24
192.704	-58.54
192.923	-1.19
193.142	13.14
193.362	4.95
193.581	50
193.8	31.57
194.02	-13.48
194.239	23.38
194.458	25.43
194.678	33.62
194.897	35.67
195.116	21.33
195.335	31.57
195.555	-42.15
195.774	35.67
195.993	0.85
196.212	-1.19
196.432	-19.63
196.651	-5.29
196.87	-50.35
197.089	66.39
197.308	-9.39
197.528	-42.15
197.747	-23.72
197.966	25.43
198.185	29.52
198.404	-19.63
198.623	11.09
198.842	29.52
199.062	47.96
199.281	37.72
199.5	15.19
199.719	62.29
199.938	-29.87
200.157	-36.01
200.376	45.91
200.595	56.15
200.814	-38.06
201.033	90.96
201.252	31.57
201.471	56.15
201.69	-7.34
201.909	-66.73
202.128	-40.11
202.347	70.48
202.566	15.19
202.785	-81.07
203.004	-17.58
203.223	35.67
203.442	-66.73
203.661	-1.19
203.879	45.91
204.098	41.81
204.317	-15.53
204.536	68.44
204.755	-48.3
204.974	-25.77
205.193	-7.34
205.411	-62.63
205.63	17.24
205.849	-5.29
206.068	-23.72
206.287	9.05
206.505	-11.43
206.724	-46.25
206.943	-31.91
207.162	-66.73
207.381	-11.43
207.599	37.72
207.818	-5.29
208.037	17.24
208.255	-48.3
208.474	54.1
208.693	-9.39
208.911	-9.39
209.13	60.24
209.349	72.53
209.567	27.48
209.786	43.86
210.005	-19.63
210.223	39.76
210.442	62.29
210.661	74.58
210.879	31.57
211.098	56.15
211.316	103.25
211.535	52.05
211.753	7
211.972	47.96
212.191	-87.21
212.409	58.2
212.628	29.52
212.846	-13.48
213.065	-21.67
213.283	2.9
213.502	27.48
213.72	-46.25
213.938	11.09
214.157	-33.96
214.375	-70.83
214.594	-42.15
214.812	19.29
215.031	-5.29
215.249	11.09
215.467	-31.91
215.686	0.85
215.904	74.58
216.122	66.39
216.341	2.9
216.559	86.87
216.778	54.1
216.996	-17.58
217.214	68.44
217.432	9.05
217.651	2.9
217.869	-13.48
218.087	-72.87
218.306	19.29
218.524	25.43
218.742	-11.43
218.96	-11.43
219.179	23.38
219.397	35.67
219.615	25.43
219.833	17.24
220.051	56.15
220.27	-7.34
220.488	-5.29
220.706	-13.48
220.924	-44.2
221.142	-17.58
221.36	23.38
221.578	50
221.796	-13.48
222.015	50
222.233	41.81
222.451	-50.35
222.669	-58.54
222.887	-64.68
223.105	7
223.323	-1.19
223.541	39.76
223.759	-76.97
223.977	-9.39
224.195	-23.72
224.413	23.38
224.631	2.9
224.849	47.96
225.067	-1.19
225.285	64.34
225.503	-62.63
225.721	33.62
225.939	-66.73
226.157	-5.29
226.375	17.24
226.592	72.53
226.81	56.15
227.028	50
227.246	82.77
227.464	-21.67
227.682	72.53
227.9	56.15
228.117	-7.34
228.335	80.72
228.553	0.85
228.771	-9.39
228.989	23.38
229.206	19.29
229.424	-7.34
229.642	41.81
229.86	-54.44
230.077	88.92
230.295	35.67
230.513	62.29
230.731	-17.58
230.948	-7.34
231.166	25.43
231.384	11.09
231.601	99.16
231.819	-38.06
232.037	39.76
232.254	47.96
232.472	-17.58
232.689	11.09
232.907	-19.63
233.125	-5.29
233.342	-29.87
233.56	-17.58
233.777	13.14
233.995	31.57
234.213	7
234.43	17.24
234.648	50
234.865	-3.24
235.083	56.15
235.3	-46.25
235.518	23.38
235.735	4.95
235.953	68.44
236.17	-48.3
236.388	-3.24
236.605	43.86
236.822	-54.44
237.04	52.05
237.257	19.29
237.475	11.09
237.692	-7.34
237.909	35.67
238.127	-7.34
238.344	52.05
238.562	23.38
238.779	15.19
238.996	-38.06
239.214	-44.2
239.431	9.05
239.648	72.53
239.865	15.19
240.083	-7.34
240.3	13.14
240.517	-66.73
240.735	60.24
240.952	23.38
241.169	43.86
241.386	7
241.603	-3.24
241.821	-64.68
242.038	72.53
242.255	23.38
242.472	-15.53
242.689	23.38
242.907	25.43
243.124	31.57
243.341	82.77
243.558	7
243.775	-7.34
243.992	-21.67
244.209	-50.35
244.426	4.95
244.643	27.48
244.86	-62.63
245.078	-13.48
245.295	11.09
245.512	23.38
245.729	29.52
245.946	19.29
246.163	4.95
246.38	15.19
246.597	41.81
246.814	39.76
247.031	23.38
247.248	41.81
247.464	41.81
247.681	-7.34
247.898	-9.39
248.115	-17.58
248.332	17.24
248.549	74.58
248.766	7
248.983	-29.87
249.2	17.24
249.417	-27.82
249.633	-11.43
249.85	11.09
250.067	-31.91
250.284	-44.2
250.501	-21.67
250.717	117.59
250.934	-15.53
251.151	-17.58
251.368	-17.58
251.585	-1.19
251.801	0.85
252.018	33.62
252.235	-25.77
252.451	-23.72
252.668	19.29
252.885	2.9
253.102	-70.83
253.318	-1.19
253.535	-33.96
253.752	-9.39
253.968	33.62
254.185	-5.29
254.401	37.72
254.618	39.76
254.835	33.62
255.051	-62.63
255.268	-42.15
255.484	-25.77
255.701	17.24
255.917	-21.67
256.134	-36.01
256.351	72.53
256.567	-13.48
256.784	41.81
257	-21.67
257.217	37.72
257.433	88.92
257.65	11.09
257.866	-46.25
258.082	78.68
258.299	-7.34
258.515	-25.77
258.732	-3.24
258.948	29.52
259.165	11.09
259.381	52.05
259.597	23.38
259.814	-29.87
260.03	13.14
260.246	39.76
260.463	56.15
260.679	15.19
260.895	-19.63
261.112	25.43
261.328	31.57
261.544	31.57
261.761	15.19
261.977	39.76
262.193	-15.53
262.409	17.24
262.626	23.38
262.842	19.29
263.058	41.81
263.274	31.57
263.49	56.15
263.707	-3.24
263.923	-42.15
264.139	29.52
264.355	-29.87
264.571	86.87
264.787	41.81
265.004	19.29
265.22	25.43
265.436	66.39
265.652	0.85
265.868	-36.01
266.084	-3.24
266.3	7
266.516	64.34
266.732	35.67
266.948	35.67
267.164	66.39
267.38	-50.35
267.596	68.44
267.812	80.72
268.028	23.38
268.244	11.09
268.46	11.09
268.676	25.43
268.892	-7.34
269.108	58.2
269.324	-9.39
269.54	29.52
269.756	7
269.972	-17.58
270.188	-1.19
270.403	-38.06
270.619	31.57
270.835	41.81
271.051	-60.59
271.267	9.05
271.483	31.57
271.698	72.53
271.914	41.81
272.13	-25.77
272.346	-17.58
272.562	-29.87
272.777	33.62
272.993	-36.01
273.209	-7.34
273.425	31.57
273.64	-19.63
273.856	-46.25
274.072	23.38
274.287	-33.96
274.503	-21.67
274.719	93.01
274.934	33.62
275.15	56.15
275.366	-23.72
275.581	35.67
275.797	39.76
276.012	-48.3
276.228	-15.53
276.444	45.91
276.659	72.53
276.875	76.63
277.09	21.33
277.306	-66.73
277.521	9.05
277.737	-9.39
277.952	-7.34
278.168	35.67
278.383	56.15
278.599	-9.39
278.814	-40.11
279.03	23.38
279.245	39.76
279.461	-25.77
279.676	80.72
279.892	17.24
280.107	25.43
280.322	25.43
280.538	31.57
280.753	50
280.969	56.15
281.184	15.19
281.399	82.77
281.615	-91.31
281.83	17.24
282.045	9.05
282.26	95.06
282.476	43.86
282.691	-40.11
282.906	7
283.122	4.95
283.337	25.43
283.552	-7.34
283.767	9.05
283.983	-74.92
284.198	-38.06
284.413	17.24
284.628	-25.77
284.843	33.62
285.058	-13.48
285.274	41.81
285.489	21.33
285.704	-62.63
285.919	64.34
286.134	19.29
286.349	21.33
286.564	41.81
286.779	31.57
286.995	21.33
287.21	33.62
287.425	-1.19
287.64	35.67
287.855	58.2
288.07	-31.91
288.285	39.76
288.5	25.43
288.715	15.19
288.93	-11.43
289.145	2.9
289.36	-21.67
289.575	-46.25
289.79	11.09
290.004	29.52
290.219	-13.48
290.434	43.86
290.649	41.81
290.864	43.86
291.079	25.43
291.294	31.57
291.509	29.52
291.724	0.85
291.938	33.62
292.153	31.57
292.368	43.86
292.583	-1.19
292.798	13.14
293.012	56.15
293.227	45.91
293.442	19.29
293.657	15.19
293.871	-9.39
294.086	43.86
294.301	15.19
294.516	21.33
294.73	7
294.945	-42.15
295.16	0.85
295.374	17.24
295.589	-9.39
295.804	47.96
296.018	29.52
296.233	-3.24
296.447	23.38
296.662	-17.58
296.877	25.43
297.091	-7.34
297.306	15.19
297.52	-3.24
297.735	-62.63
297.949	56.15
298.164	-11.43
298.378	9.05
298.593	-42.15
298.807	43.86
299.022	0.85
299.236	-42.15
299.451	19.29
299.665	15.19
299.88	-3.24
300.094	23.38
300.309	17.24
300.523	-21.67
300.737	56.15
300.952	37.72
301.166	15.19
301.381	19.29
301.595	-62.63
301.809	-58.54
302.024	39.76
302.238	-62.63
302.452	58.2
302.667	64.34
302.881	103.25
303.095	21.33
303.309	80.72
303.524	-7.34
303.738	15.19
303.952	-15.53
304.166	27.48
304.381	-13.48
304.595	25.43
304.809	13.14
305.023	41.81
305.237	25.43
305.452	17.24
305.666	25.43
305.88	37.72
306.094	68.44
306.308	9.05
306.522	-25.77
306.736	2.9
306.95	31.57
307.164	37.72
307.379	-21.67
307.593	-15.53
307.807	27.48
308.021	64.34
308.235	-7.34
308.449	50
308.663	11.09
308.877	11.09
309.091	2.9
309.305	50
309.519	-21.67
309.733	56.15
309.947	56.15
310.161	52.05
310.374	31.57
310.588	-11.43
310.802	58.2
311.016	9.05
311.23	80.72
311.444	-7.34
311.658	-23.72
311.872	29.52
312.085	23.38
312.299	56.15
312.513	-11.43
312.727	-70.83
312.941	4.95
313.154	60.24
313.368	19.29
313.582	-44.2
313.796	84.82
314.009	-40.11
314.223	-13.48
314.437	-19.63
314.651	2.9
314.864	-36.01
315.078	-40.11
315.292	9.05
315.505	19.29
315.719	17.24
315.933	-5.29
316.146	58.2
316.36	-23.72
316.573	-13.48
316.787	7
317.001	43.86
317.214	52.05
317.428	111.44
317.641	21.33
317.855	9.05
318.068	-9.39
318.282	35.67
318.495	27.48
318.709	33.62
318.922	50
319.136	21.33
319.349	-13.48
319.563	-27.82
319.776	68.44
319.99	88.92
320.203	82.77
320.417	21.33
320.63	-17.58
320.843	43.86
321.057	33.62
321.27	58.2
321.483	-7.34
321.697	25.43
321.91	11.09
322.124	21.33
322.337	-13.48
322.55	4.95
322.763	15.19
322.977	-17.58
323.19	7
323.403	68.44
323.617	25.43
323.83	52.05
324.043	-23.72
324.256	25.43
324.469	45.91
324.683	64.34
324.896	-11.43
325.109	56.15
325.322	35.67
325.535	64.34
325.748	31.57
325.962	-31.91
326.175	-13.48
326.388	-1.19
326.601	62.29
326.814	43.86
327.027	-21.67
327.24	78.68
327.453	80.72
327.666	72.53
327.879	39.76
328.092	54.1
328.305	-23.72
328.518	25.43
328.731	52.05
328.944	-27.82
329.157	25.43
329.37	72.53
329.583	25.43
329.796	45.91
330.009	37.72
330.222	25.43
330.435	50
330.648	31.57
330.861	-19.63
331.073	-23.72
331.286	7
331.499	43.86
331.712	11.09
331.925	-23.72
332.138	17.24
332.35	95.06
332.563	35.67
332.776	-33.96
332.989	62.29
333.202	-3.24
333.414	25.43
333.627	-23.72
333.84	19.29
334.053	62.29
334.265	-9.39
334.478	-17.58
334.691	-13.48
334.903	9.05
335.116	-7.34
335.329	9.05
335.541	74.58
335.754	64.34
335.966	11.09
336.179	-15.53
336.392	41.81
336.604	-5.29
336.817	21.33
337.029	13.14
337.242	136.02
337.454	39.76
337.667	52.05
337.88	74.58
338.092	15.19
338.305	-1.19
338.517	-15.53
338.729	39.76
338.942	-1.19
339.154	2.9
339.367	-9.39
339.579	-1.19
339.792	-15.53
340.004	4.95
340.217	9.05
340.429	-25.77
340.641	84.82
340.854	31.57
341.066	17.24
341.278	0.85
341.491	39.76
341.703	23.38
341.915	-1.19
342.128	62.29
342.34	25.43
342.552	43.86
342.764	29.52
342.977	9.05
343.189	-15.53
343.401	-13.48
343.613	56.15
343.826	-27.82
344.038	7
344.25	15.19
344.462	25.43
344.674	23.38
344.886	-38.06
345.099	9.05
345.311	-1.19
345.523	39.76
345.735	9.05
345.947	45.91
346.159	4.95
346.371	45.91
346.583	-17.58
346.795	7
347.007	7
347.219	31.57
347.431	-23.72
347.643	-23.72
347.855	-29.87
348.067	-7.34
348.279	9.05
348.491	-1.19
348.703	-5.29
348.915	-58.54
349.127	-13.48
349.339	-36.01
349.551	-52.39
349.763	7
349.975	56.15
350.187	58.2
350.399	-21.67
350.61	15.19
350.822	-38.06
351.034	7
351.246	37.72
351.458	15.19
351.669	37.72
351.881	64.34
352.093	23.38
352.305	47.96
352.517	15.19
352.728	-25.77
352.94	107.35
353.152	31.57
353.363	58.2
353.575	66.39
353.787	37.72
353.999	41.81
354.21	-36.01
354.422	41.81
354.633	23.38
354.845	23.38
355.057	56.15
355.268	37.72
355.48	31.57
355.692	-60.59
355.903	23.38
356.115	2.9
356.326	-11.43
356.538	9.05
356.749	-15.53
356.961	60.24
357.172	-29.87
357.384	21.33
357.595	86.87
357.807	27.48
358.018	19.29
358.23	9.05
358.441	66.39
358.653	21.33
358.864	-29.87
359.075	-21.67
359.287	19.29
359.498	35.67
359.709	35.67
359.921	78.68
360.132	-13.48
360.344	9.05
360.555	-5.29
360.766	-7.34
360.977	17.24
361.189	29.52
361.4	23.38
361.611	17.24
361.823	70.48
362.034	13.14
362.245	-1.19
362.456	11.09
362.667	-21.67
362.879	2.9
363.09	45.91
363.301	9.05
363.512	7
363.723	23.38
363.935	90.96
364.146	47.96
364.357	23.38
364.568	-9.39
364.779	72.53
364.99	4.95
365.201	0.85
365.412	4.95
365.623	-9.39
365.834	66.39
366.045	17.24
366.256	7
366.467	-85.16
366.678	29.52
366.889	-31.91
367.1	-13.48
367.311	70.48
367.522	39.76
367.733	2.9
367.944	43.86
368.155	15.19
368.366	39.76
368.577	11.09
368.788	-3.24
368.999	-62.63
369.209	9.05
369.42	66.39
369.631	-7.34
369.842	2.9
370.053	50
370.264	-15.53
370.474	4.95
370.685	27.48
370.896	-13.48
371.107	4.95
371.317	43.86
371.528	-1.19
371.739	19.29
371.95	17.24
372.16	60.24
372.371	-25.77
372.582	-17.58
372.792	-17.58
373.003	39.76
373.214	-58.54
373.424	88.92
373.635	-5.29
373.846	2.9
374.056	33.62
374.267	19.29
374.477	60.24
374.688	39.76
374.898	43.86
375.109	62.29
375.319	101.2
375.53	41.81
375.74	-15.53
375.951	43.86
376.161	43.86
376.372	41.81
376.582	64.34
376.793	7
377.003	-44.2
377.214	56.15
377.424	-7.34
377.635	35.67
377.845	76.63
378.055	17.24
378.266	15.19
378.476	-50.35
378.686	80.72
378.897	-5.29
379.107	-3.24
379.317	27.48
379.528	-1.19
379.738	125.78
379.948	-42.15
380.158	23.38
380.369	68.44
380.579	-19.63
380.789	64.34
380.999	60.24
381.21	23.38
381.42	25.43
381.63	25.43
381.84	23.38
382.05	72.53
382.261	43.86
382.471	27.48
382.681	7
382.891	27.48
383.101	54.1
383.311	56.15
383.521	68.44
383.731	-25.77
383.941	52.05
384.151	15.19
384.361	50
384.571	15.19
384.781	78.68
384.991	56.15
385.201	23.38
385.411	0.85
385.621	25.43
385.831	-25.77
386.041	54.1
386.251	-93.35
386.461	23.38
386.671	7
386.881	-21.67
387.091	56.15
387.301	88.92
387.511	-25.77
387.72	39.76
387.93	45.91
388.14	-25.77
388.35	7
388.56	27.48
388.769	9.05
388.979	2.9
389.189	39.76
389.399	9.05
389.609	23.38
389.818	39.76
390.028	35.67
390.238	29.52
390.447	52.05
390.657	41.81
390.867	-42.15
391.076	-21.67
391.286	7
391.496	-17.58
391.705	-23.72
391.915	121.68
392.125	72.53
392.334	64.34
392.544	25.43
392.753	99.16
392.963	31.57
393.172	13.14
393.382	21.33
393.591	33.62
393.801	50
394.01	39.76
394.22	54.1
394.429	15.19
394.639	60.24
394.848	70.48
395.058	50
395.267	47.96
395.477	23.38
395.686	56.15
395.895	66.39
396.105	-33.96
396.314	2.9
396.524	95.06
396.733	35.67
396.942	76.63
397.152	33.62
397.361	88.92
397.57	72.53
397.78	27.48
397.989	19.29
398.198	0.85
398.407	99.16
398.617	113.49
398.826	93.01
399.035	88.92
399.244	-3.24
399.453	90.96
399.663	-15.53
399.872	17.24
400.081	31.57
400.29	37.72
400.499	-7.34
400.708	72.53
400.917	27.48
401.127	66.39
401.336	27.48
401.545	99.16
401.754	-17.58
401.963	-13.48
402.172	56.15
402.381	62.29
402.59	29.52
402.799	33.62
403.008	2.9
403.217	68.44
403.426	35.67
403.635	93.01
403.844	27.48
404.053	23.38
404.262	78.68
404.471	43.86
404.68	39.76
404.888	60.24
405.097	50
405.306	105.3
405.515	142.16
405.724	105.3
405.933	88.92
406.142	90.96
406.35	52.05
406.559	84.82
406.768	-3.24
406.977	80.72
407.185	64.34
407.394	109.4
407.603	86.87
407.812	117.59
408.02	105.3
408.229	74.58
408.438	33.62
408.646	121.68
408.855	99.16
409.064	101.2
409.272	99.16
409.481	162.64
409.69	76.63
409.898	54.1
410.107	158.55
410.315	170.83
410.524	140.12
410.733	115.54
410.941	97.11
411.15	162.64
411.358	181.07
411.567	164.69
411.775	181.07
411.984	238.42
412.192	201.55
412.401	211.79
412.609	187.22
412.818	211.79
413.026	252.75
413.234	199.51
413.443	199.51
413.651	150.36
413.86	246.61
414.068	265.04
414.276	248.66
414.485	267.09
414.693	238.42
414.901	281.43
415.11	291.66
415.318	277.33
415.526	301.9
415.734	291.66
415.943	326.48
416.151	338.77
416.359	318.29
416.567	441.17
416.776	363.34
416.984	361.3
417.192	394.06
417.4	447.31
417.608	357.2
417.817	443.21
418.025	420.69
418.233	439.12
418.441	514.89
418.649	492.37
418.857	541.52
419.065	570.19
419.273	533.33
419.481	590.67
419.689	635.72
419.897	605
420.105	637.77
420.313	764.75
420.521	729.93
420.729	703.31
420.937	670.54
421.145	766.79
421.353	748.36
421.561	830.28
421.769	846.66
421.977	865.1
422.185	803.66
422.393	856.9
422.601	967.49
422.809	836.42
423.017	893.77
423.224	1016.65
423.432	1041.22
423.64	1131.33
423.848	1166.15
424.056	1125.19
424.263	1239.87
424.471	1219.39
424.679	1215.3
424.887	1293.12
425.094	1305.41
425.302	1428.29
425.51	1401.66
425.718	1409.86
425.925	1442.62
426.133	1538.88
426.341	1549.12
426.548	1700.67
426.756	1655.61
426.964	1727.29
427.171	1729.34
427.379	1772.35
427.586	1936.18
427.794	1952.57
428.001	1956.66
428.209	2116.41
428.417	2005.81
428.624	2140.98
428.832	2220.85
429.039	2126.64
429.247	2161.46
429.454	2454.32
429.662	2442.03
429.869	2409.26
430.076	2536.24
430.284	2564.91
430.491	2571.05
430.699	2663.21
430.906	2730.8
431.114	2808.62
431.321	2908.97
431.528	3001.13
431.736	3083.05
431.943	3279.65
432.15	2994.98
432.358	3226.4
432.565	3375.91
432.772	3324.71
432.979	3461.92
433.187	3580.7
433.394	3623.71
433.601	3801.88
433.808	3949.34
434.016	3810.08
434.223	3959.58
434.43	4393.75
434.637	4203.29
434.844	4414.23
435.052	4522.77
435.259	4422.42
435.466	4596.5
435.673	4455.19
435.88	4762.38
436.087	4963.08
436.294	5008.14
436.501	4967.18
436.708	4961.03
436.915	5257.99
437.122	5337.86
437.329	5313.28
437.537	5591.81
437.743	5704.45
437.95	5581.57
438.157	5899
438.364	6068.98
438.571	6060.79
438.778	6195.96
438.985	6693.62
439.192	6456.05
439.399	6556.4
439.606	6677.23
439.813	6888.17
440.02	7340.77
440.227	7090.92
440.433	7256.81
440.64	7221.99
440.847	7279.33
441.054	7445.22
441.261	8043.23
441.467	7838.43
441.674	7942.88
441.881	8159.96
442.088	8258.26
442.294	8231.64
442.501	8501.97
442.708	8637.14
442.914	8843.98
443.121	9403.08
443.328	9052.88
443.534	9816.77
443.741	9489.09
443.948	9464.52
444.154	10056.38
444.361	9982.65
444.568	9925.31
444.774	10095.29
444.981	10246.84
445.187	10529.46
445.394	10754.74
445.6	10855.09
445.807	11877.02
446.013	11350.7
446.22	11535.01
446.426	12141.21
446.633	12333.72
446.839	12526.23
447.046	11997.85
447.252	12765.84
447.459	12788.37
447.665	12901.01
447.871	13167.24
448.078	13824.64
448.284	13134.48
448.491	13445.77
448.697	14170.75
448.903	14570.1
449.11	14623.35
449.316	14252.67
449.522	14486.14
449.728	14965.36
449.935	15045.23
450.141	15121.01
450.347	15293.04
450.553	14934.64
450.76	15104.62
450.966	15649.38
451.172	15415.91
451.378	15911.52
451.584	15475.31
451.791	16046.69
451.997	15946.34
452.203	16380.51
452.409	16018.02
452.615	15878.76
452.821	15405.67
453.027	15303.28
453.233	16188
453.44	15342.19
453.646	15575.66
453.852	15784.55
454.058	16050.78
454.264	15510.12
454.47	15731.3
454.676	15549.03
454.882	16013.92
455.088	14813.81
455.294	15034.99
455.5	15045.23
455.705	15426.15
455.911	14502.52
456.117	14551.67
456.323	13976.19
456.529	13435.53
456.735	14056.06
456.941	13765.25
457.147	13517.45
457.352	13128.33
457.558	13120.14
457.764	12927.63
457.97	12616.34
458.176	12270.23
458.381	12501.65
458.587	12065.44
458.793	11899.55
458.999	11268.78
459.204	12165.79
459.41	11578.02
459.616	10988.21
459.821	10834.61
460.027	10883.76
460.233	10660.53
460.438	10033.85
460.644	10300.09
460.85	9802.43
461.055	9738.94
461.261	9779.9
461.466	8862.41
461.672	8641.23
461.878	9374.41
462.083	8819.41
462.289	8510.16
462.494	8303.32
462.7	8059.61
462.905	7828.19
463.111	8211.16
463.316	8030.94
463.522	8012.51
463.727	7998.17
463.932	7928.54
464.138	7856.86
464.343	8127.19
464.549	7713.5
464.754	7957.21
464.959	7848.67
465.165	7850.72
465.37	7682.78
465.575	7187.18
465.781	7627.49
465.986	7637.73
466.191	7289.57
466.397	7080.68
466.602	6890.22
466.807	7252.71
467.012	7342.82
467.218	7019.24
467.423	7121.64
467.628	7101.16
467.833	7449.32
468.038	7127.78
468.244	6746.86
468.449	7166.7
468.654	6941.42
468.859	6830.83
469.064	6966
469.269	6630.13
469.474	6920.94
469.679	6710
469.885	6537.97
470.09	6556.4
470.295	6554.35
470.5	6355.7
470.705	6507.25
470.91	6316.79
471.115	6134.52
471.32	6456.05
471.525	6269.69
471.73	6165.24
471.935	6187.77
472.139	6007.55
472.344	6152.95
472.549	6081.27
472.754	5950.2
472.959	5839.61
473.164	5628.67
473.369	5614.34
473.574	5827.32
473.778	5915.39
473.983	5856
474.188	5761.79
474.393	5511.94
474.598	5511.94
474.802	5434.11
475.007	5509.89
475.212	5401.35
475.417	5163.78
475.621	5274.37
475.826	5284.61
476.031	5161.73
476.235	5067.53
476.44	5112.58
476.645	5030.66
476.849	5040.9
477.054	5145.35
477.259	4971.27
477.463	4786.96
477.668	4764.43
477.872	4915.98
478.077	4768.52
478.282	4672.27
478.486	4709.13
478.691	4670.22
478.895	4514.58
479.1	4553.49
479.304	4653.84
479.509	4530.96
479.713	4647.69
479.918	4449.04
480.122	4373.27
480.326	4379.41
480.531	4467.47
480.735	4317.97
480.94	4434.71
481.144	4528.91
481.348	4455.19
481.553	4254.48
481.757	4285.2
481.961	4383.51
482.166	4500.24
482.37	4238.1
482.574	4350.74
482.778	4328.21
482.983	4178.71
483.187	4315.92
483.391	4289.3
483.595	4289.3
483.8	4303.64
484.004	4291.35
484.208	4348.69
484.412	4256.53
484.616	4287.25
484.821	4229.91
485.025	4166.42
485.229	4199.19
485.433	4172.57
485.637	4154.13
485.841	4248.34
486.045	4213.53
486.249	4160.28
486.453	4289.3
486.657	4248.34
486.861	4201.24
487.065	4180.76
487.269	4272.92
487.473	4137.75
487.677	4299.54
487.881	4225.81
488.085	4295.44
488.289	4219.67
488.493	4315.92
488.697	4188.95
488.901	4367.12
489.105	4234
489.309	4252.44
489.512	4377.36
489.716	4320.02
489.92	4490
490.124	4274.96
490.328	4537.1
490.531	4373.27
490.735	4590.35
490.939	4258.58
491.143	4467.47
491.346	4311.83
491.55	4430.61
491.754	4379.41
491.958	4457.23
492.161	4514.58
492.365	4668.17
492.569	4416.27
492.772	4569.87
492.976	4514.58
493.18	4686.61
493.383	4627.21
493.587	4883.21
493.79	4705.04
493.994	4692.75
494.197	4832.01
494.401	4766.48
494.605	4866.83
494.808	4848.4
495.012	4870.92
495.215	4832.01
495.419	4999.95
495.622	5067.53
495.825	5069.58
496.029	5075.72
496.232	5081.86
496.436	5227.27
496.639	5192.45
496.843	5180.17
497.046	5352.2
497.249	5532.42
497.453	5487.36
497.656	5430.02
497.859	5513.99
498.063	5577.47
498.266	5604.1
498.469	5743.36
498.673	5726.97
498.876	5933.82
499.079	5946.11
499.282	5919.48
499.485	6198.01
499.689	6017.79
499.892	6083.32
500.095	6206.2
500.298	6425.33
500.501	6327.03
500.705	6523.63
500.908	6617.84
501.111	6509.3
501.314	6781.68
501.517	6806.25
501.72	6947.56
501.923	6826.73
502.126	7019.24
502.329	7006.95
502.532	7199.46
502.735	7187.18
502.938	7363.3
503.141	7359.21
503.344	7457.51
503.547	7711.46
503.75	7592.67
503.953	7639.78
504.156	7867.1
504.359	7959.26
504.562	8032.99
504.765	8411.86
504.968	8405.72
505.17	8291.03
505.373	8401.62
505.576	8497.88
505.779	8723.15
505.982	8565.46
506.185	8905.42
506.387	8979.15
506.59	8737.49
506.793	9085.64
506.996	9071.31
507.198	9622.21
507.401	9493.19
507.604	9458.37
507.807	9824.96
508.009	9827.01
508.212	9874.11
508.415	9908.93
508.617	10197.69
508.82	10207.93
509.022	10140.35
509.225	10584.76
509.428	10511.03
509.63	10578.61
509.833	10734.26
510.035	10881.71
510.238	10842.8
510.44	10971.82
510.643	11268.78
510.845	11489.96
511.048	11371.18
511.25	11680.42
511.453	11791.01
511.655	12008.09
511.858	11920.03
512.06	12229.27
512.262	12100.25
512.465	12286.62
512.667	12575.38
512.87	12776.08
513.072	12743.31
513.274	12784.27
513.477	12696.21
513.679	13034.13
513.881	13376.14
514.084	13451.91
514.286	13490.82
514.488	13539.97
514.69	14115.45
514.893	14113.41
515.095	13935.23
515.297	14340.73
515.499	14353.02
515.701	14330.49
515.904	14621.3
516.106	14815.86
516.308	14815.86
516.51	14971.5
516.712	15235.69
516.914	15499.88
517.116	15432.3
517.318	15716.97
517.52	15678.05
517.722	15991.39
517.925	16198.24
518.127	16308.83
518.329	16286.3
518.531	16376.41
518.733	16783.96
518.935	16708.18
519.136	16851.54
519.338	17168.98
519.54	17240.65
519.742	17398.35
519.944	17441.36
520.146	17781.32
520.348	17930.82
520.55	17744.45
520.752	17998.4
520.954	18408
521.155	18354.75
521.357	18618.94
521.559	18946.61
521.761	18987.57
521.963	18682.42
522.164	19182.13
522.366	18969.14
522.568	19233.33
522.77	19425.84
522.971	19630.63
523.173	19474.99
523.375	19823.14
523.576	19935.78
523.778	20064.8
523.98	20144.67
524.181	20441.63
524.383	20326.94
524.584	20677.15
524.786	20578.84
524.988	20781.59
525.189	20832.79
525.391	20826.65
525.592	20959.77
525.794	21180.95
525.995	21105.17
526.197	21293.58
526.398	21162.51
526.6	21432.85
526.801	21836.3
527.003	21502.48
527.204	21682.7
527.406	21791.24
527.607	21912.07
527.808	22424.06
528.01	21846.54
528.211	22092.29
528.412	22614.52
528.614	22471.17
528.815	22565.37
529.016	22651.39
529.218	22401.54
529.419	22471.17
529.62	22444.54
529.822	22794.75
530.023	22624.76
530.224	22755.83
530.425	22778.36
530.626	22592
530.828	22528.51
531.029	23243.25
531.23	22718.97
531.431	22632.96
531.632	22999.54
531.833	23259.63
532.035	22813.18
532.236	22948.34
532.437	23278.07
532.638	22964.73
532.839	23116.28
533.04	23392.75
533.241	23149.04
533.442	23017.97
533.643	23357.94
533.844	23243.25
534.045	23298.55
534.246	22825.47
534.447	23484.91
534.648	23376.37
534.849	23265.78
535.05	22952.44
535.251	23339.51
535.451	23101.94
535.652	23962.09
535.853	23525.87
536.054	23163.38
536.255	23564.78
536.456	23063.03
536.657	23929.32
536.857	23185.91
537.058	23341.55
537.259	23257.59
537.46	23626.22
537.66	23466.48
537.861	23413.23
538.062	23521.77
538.263	23679.47
538.463	23788.01
538.664	23390.7
538.865	23546.35
539.065	23355.89
539.266	23177.72
539.466	23460.34
539.667	23337.46
539.868	23720.43
540.068	23280.11
540.269	23458.29
540.469	23558.64
540.67	23378.42
540.87	23591.41
541.071	23849.45
541.271	23726.57
541.472	23427.57
541.672	23380.46
541.873	23482.86
542.073	23112.18
542.274	23570.93
542.474	23343.6
542.675	23525.87
542.875	23587.31
543.075	23263.73
543.276	23345.65
543.476	23607.79
543.676	23220.72
543.877	23083.51
544.077	23048.69
544.277	23261.68
544.478	23210.48
544.678	23548.4
544.878	23478.77
545.078	23552.49
545.279	23155.19
545.479	23159.28
545.679	23126.52
545.879	23099.89
546.079	23341.55
546.28	23228.91
546.48	23044.6
546.68	23390.7
546.88	23495.15
547.08	23271.92
547.28	23302.64
547.48	22950.39
547.68	23110.13
547.88	23079.41
548.081	23159.28
548.281	23042.55
548.481	23323.12
548.681	23245.3
548.881	23173.62
549.081	23054.84
549.28	23243.25
549.48	23335.41
549.68	23235.06
549.88	23308.79
550.08	23106.04
550.28	23292.4
550.48	23095.8
550.68	23345.65
550.88	23022.07
551.08	23147
551.279	23151.09
551.479	22854.14
551.679	23134.71
551.879	23063.03
552.079	23130.61
552.278	22968.82
552.478	23069.17
552.678	23122.42
552.878	23073.27
553.077	23265.78
553.277	22981.11
553.477	23187.96
553.676	23083.51
553.876	23017.97
554.076	22997.49
554.275	22983.16
554.475	22680.06
554.674	22815.23
554.874	23007.73
555.074	22790.65
555.273	22974.97
555.473	22954.49
555.672	22727.16
555.872	23124.47
556.071	22733.31
556.271	22833.66
556.47	22602.24
556.67	22618.62
556.869	22821.37
557.068	22825.47
557.268	22641.15
557.467	22555.13
557.667	22723.07
557.866	22671.87
558.065	22905.34
558.265	22434.3
558.464	22327.81
558.663	22925.82
558.863	22501.89
559.062	22913.53
559.261	22073.86
559.461	22635
559.66	22155.78
559.859	22487.55
560.058	21897.74
560.258	22385.15
560.457	22000.13
560.656	22266.37
560.855	22200.83
561.054	22362.62
561.253	21940.74
561.453	22395.39
561.652	22256.13
561.851	22467.07
562.05	22096.39
562.249	21840.39
562.448	22252.03
562.647	22020.61
562.846	21998.09
563.045	21881.35
563.244	21899.78
563.443	22063.62
563.642	21809.67
563.841	21809.67
564.04	21864.97
564.239	21842.44
564.438	21383.7
564.637	21502.48
564.836	21617.16
565.035	21361.17
565.234	21570.06
565.432	21512.72
565.631	21385.74
565.83	21490.19
566.029	21266.96
566.228	21416.46
566.427	21217.81
566.625	21455.37
566.824	21234.19
567.023	21199.38
567.222	20728.35
567.42	21289.49
567.619	21133.84
567.818	21062.16
568.016	20896.28
568.215	21199.38
568.414	21006.87
568.612	20935.19
568.811	20759.06
569.01	20787.74
569.208	20548.12
569.407	20699.67
569.605	20599.32
569.804	21146.13
570.002	20470.3
570.201	20541.98
570.4	20335.14
570.598	20265.5
570.797	20204.07
570.995	20486.68
571.193	20199.97
571.392	20210.21
571.59	20017.7
571.789	20175.39
571.987	20001.32
572.186	20044.32
572.384	20034.08
572.582	19903.01
572.781	20060.71
572.979	19546.67
573.177	19941.93
573.376	19853.86
573.574	19577.39
573.772	19892.77
573.971	19485.23
574.169	19413.55
574.367	19511.85
574.565	19669.55
574.763	19358.25
574.962	19417.65
575.16	19049.01
575.358	19184.18
575.556	19157.55
575.754	19364.4
575.952	18958.9
576.151	19106.35
576.349	18793.01
576.547	18862.65
576.745	18975.28
576.943	19077.68
577.141	19020.34
577.339	18899.51
577.537	18883.13
577.735	18870.84
577.933	18715.19
578.131	18700.86
578.329	18508.35
578.527	18567.74
578.725	18442.81
578.923	18782.77
579.121	18440.76
579.319	18256.45
579.516	18344.51
579.714	18346.56
579.912	18254.4
580.11	18160.19
580.308	18356.8
580.506	17865.28
580.704	17947.2
580.901	18199.1
581.099	18084.42
581.297	18061.89
581.495	18152
581.692	17865.28
581.89	17853
582.088	17668.68
582.285	17640.01
582.483	18043.46
582.681	17621.58
582.878	17424.97
583.076	17453.64
583.274	17408.59
583.471	17254.99
583.669	17556.04
583.866	17324.62
584.064	17502.79
584.262	17242.7
584.459	17394.25
584.657	17254.99
584.854	17103.44
585.052	16898.64
585.249	16917.08
585.447	17052.24
585.644	16525.91
585.841	16771.67
586.039	16790.1
586.236	16546.39
586.434	16652.89
586.631	16759.38
586.828	16687.7
587.026	16622.17
587.223	16568.92
587.42	16507.48
587.618	16431.71
587.815	16466.52
588.012	16067.17
588.21	16083.55
588.407	16497.24
588.604	16284.25
588.801	16087.65
588.999	16294.49
589.196	16144.99
589.393	16097.89
589.59	16034.4
589.787	16050.78
589.984	15862.37
590.182	15786.6
590.379	15837.8
590.576	15784.55
590.773	15927.91
590.97	15649.38
591.167	15745.64
591.364	15622.76
591.561	15598.18
591.758	15549.03
591.955	15495.78
592.152	15391.34
592.349	15643.24
592.546	15325.8
592.743	15309.42
592.94	15233.64
593.137	15428.2
593.334	15247.98
593.531	15127.15
593.727	15221.36
593.924	15147.63
594.121	14858.87
594.318	15233.64
594.515	14715.51
594.712	14955.12
594.908	14998.13
595.105	15043.18
595.302	14752.37
595.499	14748.28
595.696	14576.25
595.892	14436.99
596.089	14664.31
596.286	14563.96
596.482	14609.01
596.679	14604.92
596.876	14551.67
597.072	14285.44
597.269	14586.49
597.466	14301.82
597.662	14330.49
597.859	14074.49
598.055	14137.98
598.252	13951.62
598.448	14137.98
598.645	14172.8
598.841	13920.9
599.038	13861.51
599.234	13910.66
599.431	13673.09
599.627	13718.15
599.824	13984.38
600.02	13748.87
600.217	13664.9
600.413	13654.66
600.609	13660.8
600.806	13568.65
601.002	13720.2
601.198	13582.98
601.395	13486.73
601.591	13490.82
601.787	13488.78
601.984	13382.28
602.18	13769.35
602.376	13474.44
602.572	13116.05
602.769	13275.79
602.965	13077.13
603.161	13185.68
603.357	13169.29
603.553	13218.44
603.75	13101.71
603.946	12761.75
604.142	13038.22
604.338	12794.51
604.534	12696.21
604.73	12735.12
604.926	12782.23
605.122	13060.75
605.318	12575.38
605.514	12475.03
605.71	12321.43
605.906	12618.39
606.102	12853.91
606.298	12624.53
606.494	12374.68
606.69	12477.08
606.886	12532.37
607.082	12210.84
607.278	12524.18
607.474	12257.95
607.67	12368.54
607.866	11969.18
608.062	12225.18
608.257	12403.35
608.453	12223.13
608.649	12194.46
608.845	11995.81
609.041	12339.87
609.236	12155.55
609.432	12192.41
609.628	12137.12
609.824	11954.85
610.019	11815.59
610.215	11915.94
610.411	11795.11
610.606	12165.79
610.802	12049.05
610.998	11811.49
611.193	11616.93
611.389	11836.06
611.584	12014.24
611.78	11952.8
611.976	11659.94
612.171	11666.08
612.367	11549.35
612.562	11625.12
612.758	11666.08
612.953	11385.51
613.149	11580.07
613.344	11647.65
613.539	11731.62
613.735	11561.64
613.93	11485.86
614.126	11471.53
614.321	11440.81
614.517	11346.6
614.712	11559.59
614.907	11203.24
615.103	11434.66
615.298	11389.61
615.493	11311.78
615.688	11035.31
615.884	11356.84
616.079	11156.14
616.274	11295.4
616.47	11106.99
616.665	11150
616.86	11090.6
617.055	11197.1
617.25	10994.35
617.445	11102.89
617.641	11008.69
617.836	10732.21
618.031	10937.01
618.226	11068.08
618.421	10789.55
618.616	10953.39
618.811	10797.74
619.006	10857.14
619.201	10713.78
619.396	10662.58
619.591	10627.76
619.786	10525.36
619.981	10506.93
620.176	10752.69
620.371	10431.16
620.566	10382.01
620.761	10412.73
620.956	10382.01
621.151	10244.79
621.346	10179.26
621.541	10126.01
621.735	10236.6
621.93	10142.39
622.125	10027.71
622.32	9919.17
622.515	10113.72
622.709	9970.37
622.904	10013.37
623.099	9818.82
623.294	9790.14
623.488	9706.18
623.683	9804.48
623.878	9552.58
624.072	9540.29
624.267	9616.07
624.462	9468.61
624.656	9396.93
624.851	9448.13
625.046	9325.26
625.24	9272.01
625.435	9286.34
625.629	9255.62
625.824	9214.66
626.018	9083.59
626.213	8811.21
626.407	9026.25
626.602	8846.03
626.796	9063.12
626.991	8827.6
627.185	8899.28
627.38	8753.87
627.574	8653.52
627.768	8651.47
627.963	8526.55
628.157	8522.45
628.352	8547.03
628.546	8372.95
628.74	8532.69
628.935	8471.25
629.129	8272.6
629.323	8329.94
629.517	8379.09
629.712	8119
629.906	8108.76
630.1	8162.01
630.294	8121.05
630.489	8014.56
630.683	8145.63
630.877	7750.37
631.071	7860.96
631.265	7936.73
631.459	7742.18
631.653	7881.44
631.848	7613.15
632.042	7756.51
632.236	7770.85
632.43	7654.11
632.624	7781.09
632.818	7549.67
633.012	7473.89
633.206	7326.44
633.4	7447.27
633.594	7396.07
633.788	7359.21
633.982	7373.54
634.176	7273.19
634.369	7273.19
634.563	7160.55
634.757	7004.91
634.951	7215.85
635.145	7021.29
635.339	7103.21
635.533	7092.97
635.726	6951.66
635.92	6884.08
636.114	6859.5
636.308	6812.4
636.501	6961.9
636.695	6826.73
636.889	6927.08
637.083	6757.1
637.276	6800.11
637.47	6765.29
637.664	6693.62
637.857	6710
638.051	6519.54
638.244	6595.31
638.438	6413.04
638.632	6560.5
638.825	6292.21
639.019	6292.21
639.212	6367.99
639.406	6437.62
639.599	6355.7
639.793	6238.97
639.986	6116.09
640.18	6109.94
640.373	6185.72
640.567	6163.19
640.76	6103.8
640.954	6058.74
641.147	5927.67
641.34	5913.34
641.534	5982.97
641.727	5851.9
641.92	5888.76
642.114	5872.38
642.307	5774.08
642.5	5720.83
642.694	5753.6
642.887	5618.43
643.08	5733.12
643.273	5579.52
643.467	5669.63
643.66	5577.47
643.853	5532.42
644.046	5460.74
644.239	5552.9
644.432	5421.83
644.626	5466.88
644.819	5339.91
645.012	5405.44
645.205	5368.58
645.398	5249.8
645.591	5391.11
645.784	5143.3
645.977	5116.68
646.17	5098.25
646.363	5077.77
646.556	5047.05
646.749	5073.67
646.942	4926.22
647.135	5042.95
647.328	4961.03
647.521	4946.7
647.714	4940.55
647.907	4817.68
648.099	4844.3
648.292	4950.79
648.485	4905.74
648.678	4899.59
648.871	4942.6
649.064	4875.02
649.256	4922.12
649.449	4797.2
649.642	4649.74
649.835	4698.89
650.027	4756.24
650.22	4619.02
650.413	4578.06
650.605	4541.2
650.798	4653.84
650.991	4385.55
651.183	4535.06
651.376	4528.91
651.568	4598.54
651.761	4414.23
651.954	4416.27
652.146	4465.43
652.339	4479.76
652.531	4457.23
652.724	4338.45
652.916	4145.94
653.109	4277.01
653.301	4260.63
653.494	4332.31
653.686	4225.81
653.879	4186.9
654.071	4178.71
654.263	4168.47
654.456	4191
654.648	4147.99
654.84	3935
655.033	4066.07
655.225	3994.39
655.417	3900.19
655.61	3930.91
655.802	3963.67
655.994	3912.47
656.186	3756.83
656.379	3908.38
656.571	4002.58
656.763	3754.78
656.955	3748.64
657.148	3883.8
657.34	3674.91
657.532	3816.22
657.724	3701.53
657.916	3648.29
658.108	3629.85
658.3	3617.57
658.492	3545.89
658.684	3572.51
658.876	3545.89
659.068	3615.52
659.26	3629.85
659.452	3488.54
659.644	3623.71
659.836	3564.32
660.028	3486.5
660.22	3410.72
660.412	3316.51
660.604	3394.34
660.796	3373.86
660.988	3384.1
661.18	3367.71
661.372	3336.99
661.563	3384.1
661.755	3246.88
661.947	3281.7
662.139	3267.36
662.331	3228.45
662.522	3214.12
662.714	3281.7
662.906	3279.65
663.097	3066.66
663.289	3156.77
663.481	3060.52
663.673	3128.1
663.864	2984.74
664.056	3101.48
664.247	3005.22
664.439	2964.26
664.631	3060.52
664.822	3037.99
665.014	2958.12
665.205	3078.95
665.397	3027.75
665.588	2990.89
665.78	2911.02
665.971	2994.98
666.163	2839.34
666.354	2859.82
666.546	2827.05
666.737	2755.37
666.929	2857.77
667.12	3007.27
667.311	2865.96
667.503	2720.56
667.694	2728.75
667.885	2820.91
668.077	2812.71
668.268	2786.09
668.459	2724.65
668.651	2702.12
668.842	2751.28
669.033	2648.88
669.224	2587.44
669.416	2636.59
669.607	2714.41
669.798	2679.6
669.989	2650.92
670.18	2581.29
670.371	2677.55
670.563	2646.83
670.754	2511.66
670.945	2556.72
671.136	2554.67
671.327	2636.59
671.518	2628.4
671.709	2546.48
671.9	2558.77
672.091	2607.92
672.282	2491.18
672.473	2474.8
672.664	2482.99
672.855	2523.95
673.046	2323.25
673.237	2452.27
673.428	2482.99
673.619	2378.55
673.809	2446.13
674	2505.52
674.191	2407.22
674.382	2401.07
674.573	2427.7
674.764	2243.38
674.954	2372.4
675.145	2220.85
675.336	2368.31
675.527	2382.64
675.717	2304.82
675.908	2177.84
676.099	2409.26
676.289	2390.83
676.48	2200.37
676.671	2227
676.861	2333.49
677.052	2276.15
677.243	2265.91
677.433	2249.52
677.624	2227
677.814	2241.33
678.005	2196.28
678.195	2304.82
678.386	2198.32
678.576	2192.18
678.767	2188.08
678.957	2169.65
679.148	2255.67
679.338	2071.35
679.529	2210.61
679.719	2112.31
679.909	2239.28
680.1	2186.04
680.29	2177.84
680.481	2179.89
680.671	2165.56
680.861	2104.12
681.052	2116.41
681.242	2218.8
681.432	2102.07
681.622	2161.46
681.813	2054.97
682.003	2138.93
682.193	2149.17
682.383	2143.03
682.573	2085.69
682.764	2014.01
682.954	2157.36
683.144	2097.97
683.334	2075.45
683.524	2116.41
683.714	2136.88
683.904	2173.75
684.094	2243.38
684.284	2048.82
684.474	2081.59
684.664	2018.1
684.854	2089.78
685.044	2024.25
685.234	2054.97
685.424	2003.77
685.614	1973.05
685.804	2022.2
685.994	2009.91
686.184	2007.86
686.374	1975.1
686.564	2077.49
686.753	1964.86
686.943	2042.68
687.133	1940.28
687.323	1985.34
687.513	2009.91
687.702	1868.6
687.892	2018.1
688.082	1999.67
688.272	1927.99
688.461	2097.97
688.651	2079.54
688.841	1897.27
689.03	1919.8
689.22	1981.24
689.41	1907.51
689.599	1981.24
689.789	1954.62
689.979	1862.46
690.168	1835.83
690.358	1866.55
690.547	1938.23
690.737	1899.32
690.926	1923.9
691.116	1952.57
691.305	1895.22
691.495	1846.07
691.684	1909.56
691.874	1905.46
692.063	1751.87
692.252	1944.38
692.442	1856.31
692.631	1837.88
692.82	1927.99
693.01	1850.17
693.199	1907.51
693.388	1870.65
693.578	1819.45
693.767	1780.54
693.956	1864.5
694.146	1919.8
694.335	1815.35
694.524	1794.87
694.713	1903.42
694.902	1833.79
695.092	1821.5
695.281	1837.88
695.47	1758.01
695.659	1723.2
695.848	1829.69
696.037	1733.43
696.226	1809.21
696.415	1796.92
696.604	1801.02
696.793	1788.73
696.982	1741.63
697.171	1760.06
697.36	1725.24
697.549	1778.49
697.738	1590.08
697.927	1751.87
698.116	1768.25
698.305	1731.39
698.494	1739.58
698.683	1749.82
698.872	1704.76
699.061	1706.81
699.25	1694.52
699.438	1624.89
699.627	1751.87
699.816	1672
700.005	1760.06
700.193	1688.38
700.382	1678.14
700.571	1653.56
700.76	1715
700.948	1680.19
701.137	1585.98
701.326	1649.47
701.514	1628.99
701.703	1688.38
701.892	1719.1
702.08	1731.39
702.269	1600.32
702.457	1674.04
702.646	1712.96
702.834	1581.89
703.023	1690.43
703.212	1680.19
703.4	1694.52
703.589	1655.61
703.777	1649.47
703.965	1583.93
704.154	1645.37
704.342	1555.26
704.531	1553.21
704.719	1680.19
704.907	1506.11
705.096	1635.13
705.284	1575.74
705.472	1596.22
705.661	1667.9
705.849	1676.09
706.037	1565.5
706.226	1547.07
706.414	1518.4
706.602	1563.45
706.79	1557.31
706.979	1590.08
707.167	1598.27
707.355	1590.08
707.543	1389.38
707.731	1540.93
707.919	1491.77
708.107	1518.4
708.296	1516.35
708.484	1553.21
708.672	1524.54
708.86	1651.52
709.048	1575.74
709.236	1510.21
709.424	1522.49
709.612	1534.78
709.8	1493.82
709.988	1526.59
710.176	1530.69
710.364	1405.76
710.551	1459.01
710.739	1555.26
710.927	1463.1
711.115	1436.48
711.303	1465.15
711.491	1510.21
711.679	1495.87
711.866	1477.44
712.054	1444.67
712.242	1461.06
712.43	1452.86
712.617	1532.73
712.805	1467.2
712.993	1395.52
713.181	1383.23
713.368	1430.34
713.556	1362.75
713.744	1375.04
713.931	1434.43
714.119	1346.37
714.306	1364.8
714.494	1352.51
714.682	1356.61
714.869	1387.33
715.057	1452.86
715.244	1366.85
715.432	1299.27
715.619	1356.61
715.807	1450.82
715.994	1366.85
716.182	1430.34
716.369	1401.66
716.556	1329.99
716.744	1368.9
716.931	1479.49
717.119	1385.28
717.306	1342.27
717.493	1411.9
717.681	1313.6
717.868	1362.75
718.055	1364.8
718.242	1370.94
718.43	1311.55
718.617	1297.22
718.804	1276.74
718.991	1459.01
719.179	1375.04
719.366	1350.46
719.553	1241.92
719.74	1309.51
719.927	1309.51
720.114	1268.55
720.301	1321.79
720.488	1231.68
720.676	1411.9
720.863	1311.55
721.05	1219.39
721.237	1340.22
721.424	1178.44
721.611	1293.12
721.798	1217.35
721.985	1276.74
722.172	1248.07
722.358	1211.2
722.545	1325.89
722.732	1284.93
722.919	1301.31
723.106	1227.59
723.293	1225.54
723.48	1211.2
723.667	1198.92
723.853	1192.77
724.04	1207.11
724.227	1246.02
724.414	1211.2
724.6	1196.87
724.787	1200.96
724.974	1270.59
725.161	1225.54
725.347	1131.33
725.534	1182.53
725.72	1182.53
725.907	1162.05
726.094	1203.01
726.28	1131.33
726.467	1153.86
726.653	1246.02
726.84	1147.72
727.027	1231.68
727.213	1170.24
727.4	1250.11
727.586	1160
727.773	1200.96
727.959	1098.56
728.145	1239.87
728.332	1260.35
728.518	1125.19
728.705	1162.05
728.891	1063.75
729.077	1207.11
729.264	1133.38
729.45	1160
729.636	1203.01
729.823	1119.04
730.009	1100.61
730.195	1061.7
730.382	1090.37
730.568	1186.63
730.754	1088.32
730.94	1112.9
731.126	1188.68
731.313	1155.91
731.499	1147.72
731.685	1100.61
731.871	1166.15
732.057	1127.24
732.243	1166.15
732.429	1137.48
732.615	1133.38
732.801	1170.24
732.987	1112.9
733.173	1160
733.359	1104.71
733.545	1141.57
733.731	1129.28
733.917	1211.2
734.103	1110.85
734.289	1112.9
734.475	1131.33
734.661	1123.14
734.847	1096.52
735.033	1117
735.219	1145.67
735.404	1172.29
735.59	1014.6
735.776	1123.14
735.962	1112.9
736.148	1141.57
736.333	1098.56
736.519	994.12
736.705	1026.89
736.89	1053.51
737.076	1082.18
737.262	1067.85
737.447	1137.48
737.633	1033.03
737.819	1071.94
738.004	1088.32
738.19	1084.23
738.375	1076.04
738.561	1010.5
738.747	1000.26
738.932	1035.08
739.118	1063.75
739.303	1104.71
739.489	1024.84
739.674	1037.13
739.859	1024.84
740.045	957.25
740.23	1018.69
740.416	965.45
740.601	1037.13
740.786	1016.65
740.972	1022.79
741.157	1100.61
741.342	1008.45
741.528	1082.18
741.713	891.72
741.898	998.21
742.084	920.39
742.269	936.78
742.454	912.2
742.639	985.93
742.824	895.82
743.01	934.73
743.195	922.44
743.38	957.25
743.565	942.92
743.75	928.58
743.935	973.64
744.12	906.06
744.305	906.06
744.49	901.96
744.675	957.25
744.86	951.11
745.045	936.78
745.23	1020.74
745.415	924.49
745.6	961.35
745.785	922.44
745.97	918.34
746.155	942.92
746.34	994.12
746.525	922.44
746.71	867.14
746.895	840.52
747.079	844.62
747.264	793.42
747.449	932.68
747.634	879.43
747.819	930.63
748.003	867.14
748.188	793.42
748.373	789.32
748.557	803.66
748.742	879.43
748.927	828.23
749.111	861
749.296	844.62
749.481	846.66
749.665	805.71
749.85	844.62
750.034	899.91
750.219	887.62
750.404	783.18
750.588	748.36
750.773	742.22
750.957	777.03
751.141	746.31
751.326	764.75
751.51	793.42
751.695	766.79
751.879	815.94
752.064	828.23
752.248	774.99
752.432	734.03
752.617	738.12
752.801	766.79
752.985	738.12
753.17	650.06
753.354	770.89
753.538	748.36
753.722	691.02
753.907	705.35
754.091	670.54
754.275	666.44
754.459	703.31
754.643	762.7
754.828	654.16
755.012	742.22
755.196	627.53
755.38	662.35
755.564	594.76
755.748	637.77
755.932	715.59
756.116	711.5
756.3	615.24
756.484	600.91
756.668	635.72
756.852	617.29
757.036	686.92
757.22	621.39
757.404	590.67
757.588	629.58
757.772	641.87
757.956	703.31
758.14	547.66
758.323	607.05
758.507	621.39
758.691	598.86
758.875	555.85
759.059	639.82
759.242	602.96
759.426	605
759.61	547.66
759.794	670.54
759.977	541.52
760.161	555.85
760.345	582.48
760.528	547.66
760.712	545.61
760.895	584.52
761.079	566.09
761.263	568.14
761.446	523.09
761.63	482.13
761.813	510.8
761.997	521.04
762.18	605
762.364	467.79
762.547	449.36
762.731	596.81
762.914	441.17
763.098	535.37
763.281	510.8
763.464	510.8
763.648	473.93
763.831	478.03
764.015	572.24
764.198	498.51
764.381	439.12
764.564	529.23
764.748	488.27
764.931	531.28
765.114	484.17
765.297	465.74
765.481	514.89
765.664	543.57
765.847	465.74
766.03	498.51
766.213	422.73
766.397	545.61
766.58	392.02
766.763	365.39
766.946	439.12
767.129	488.27
767.312	492.37
767.495	406.35
767.678	449.36
767.861	490.32
768.044	375.63
768.227	430.93
768.41	475.98
768.593	537.42
768.776	412.5
768.959	451.41
769.142	539.47
769.324	490.32
769.507	385.87
769.69	432.97
769.873	486.22
770.056	508.75
770.239	453.45
770.421	525.13
770.604	482.13
770.787	457.55
770.97	473.93
771.152	408.4
771.335	404.3
771.518	369.49
771.7	396.11
771.883	432.97
772.066	404.3
772.248	488.27
772.431	514.89
772.613	400.21
772.796	387.92
772.978	373.58
773.161	432.97
773.343	449.36
773.526	389.97
773.708	334.67
773.891	406.35
774.073	381.78
774.256	328.53
774.438	375.63
774.621	349.01
774.803	383.82
774.985	346.96
775.168	357.2
775.35	424.78
775.532	402.26
775.715	310.1
775.897	361.3
776.079	254.8
776.261	361.3
776.444	396.11
776.626	420.69
776.808	285.52
776.99	363.34
777.173	357.2
777.355	308.05
777.537	379.73
777.719	301.9
777.901	240.47
778.083	351.06
778.265	330.58
778.447	387.92
778.629	285.52
778.811	336.72
778.993	330.58
779.175	262.99
779.357	197.46
779.539	303.95
779.721	312.14
779.903	262.99
780.085	306
780.267	316.24
780.449	340.82
780.631	312.14
780.812	301.9
780.994	318.29
781.176	211.79
781.358	273.23
781.54	314.19
781.721	355.15
781.903	248.66
782.085	252.75
782.267	289.62
782.448	297.81
782.63	244.56
782.812	295.76
782.993	222.03
783.175	213.84
783.357	187.22
783.538	293.71
783.72	244.56
783.901	267.09
784.083	238.42
784.264	176.98
784.446	205.65
784.627	224.08
784.809	236.37
784.99	219.99
785.172	248.66
785.353	252.75
785.535	252.75
785.716	244.56
785.897	267.09
786.079	193.36
786.26	215.89
786.441	219.99
786.623	179.03
786.804	262.99
786.985	207.7
787.167	238.42
787.348	232.27
787.529	236.37
787.71	281.43
787.891	230.23
788.073	217.94
788.254	160.59
788.435	273.23
788.616	224.08
788.797	250.71
788.978	262.99
789.159	146.26
789.34	226.13
789.522	244.56
789.703	191.31
789.884	142.16
790.065	142.16
790.246	207.7
790.427	179.03
790.607	154.45
790.788	181.07
790.969	160.59
791.15	203.6
791.331	152.4
791.512	185.17
791.693	136.02
791.874	211.79
792.054	205.65
792.235	256.85
792.416	209.75
792.597	170.83
792.778	160.59
792.958	191.31
793.139	129.88
793.32	95.06
793.5	170.83
793.681	185.17
793.862	113.49
794.042	166.74
794.223	150.36
794.404	133.97
794.584	97.11
794.765	189.27
794.945	117.59
795.126	131.92
795.306	156.5
795.487	113.49
795.667	109.4
795.848	179.03
796.028	164.69
796.209	162.64
796.389	168.79
796.57	74.58
796.75	172.88
796.93	115.54
797.111	162.64
797.291	117.59
797.471	90.96
797.652	179.03
797.832	99.16
798.012	86.87
798.192	152.4
798.373	174.93
798.553	127.83
798.733	121.68
798.913	95.06
799.093	129.88
799.274	23.38
799.454	158.55
799.634	119.64
799.814	168.79
799.994	185.17
800.174	152.4
800.354	101.2
800.534	90.96
800.714	111.44
800.894	84.82
801.074	78.68
801.254	90.96
801.434	129.88
801.614	64.34
801.794	103.25
801.974	377.68
802.154	113.49
802.334	148.31
802.514	86.87
802.693	95.06
802.873	125.78
803.053	148.31
803.233	60.24
803.413	207.7
803.592	174.93
803.772	123.73
803.952	95.06
804.131	117.59
804.311	66.39
804.491	80.72
804.67	103.25
804.85	70.48
805.03	129.88
805.209	109.4
805.389	150.36
805.568	95.06
805.748	56.15
805.928	115.54
806.107	105.3
806.287	115.54
806.466	80.72
806.646	152.4
806.825	60.24
807.004	64.34
807.184	74.58
807.363	119.64
807.543	88.92
807.722	80.72
807.901	84.82
808.081	101.2
808.26	103.25
808.439	115.54
808.619	25.43
808.798	76.63
808.977	68.44
809.156	101.2
809.336	152.4
809.515	119.64
809.694	23.38
809.873	82.77
810.052	90.96
810.231	142.16
810.411	82.77
810.59	125.78
810.769	107.35
810.948	142.16
811.127	-11.43
811.306	33.62
811.485	66.39
811.664	158.55
811.843	58.2
812.022	50
812.201	97.11
812.38	84.82
812.559	70.48
812.737	68.44
812.916	54.1
813.095	9.05
813.274	131.92
813.453	13.14
813.632	109.4
813.811	58.2
813.989	23.38
814.168	95.06
814.347	15.19
814.526	88.92
814.704	64.34
814.883	158.55
815.062	168.79
815.24	33.62
815.419	117.59
815.598	66.39
815.776	78.68
815.955	7
816.133	105.3
816.312	41.81
816.49	50
816.669	90.96
816.847	68.44
817.026	52.05
817.204	23.38
817.383	52.05
817.561	60.24
817.74	113.49
817.918	33.62
818.097	47.96
818.275	39.76
818.453	74.58
818.632	80.72
818.81	101.2
818.988	-15.53
819.167	109.4
819.345	-13.48
819.523	123.73
819.701	25.43
819.879	62.29
820.058	25.43
820.236	0.85
820.414	66.39
820.592	68.44
820.77	70.48
820.948	15.19
821.127	80.72
821.305	11.09
821.483	86.87
821.661	99.16
821.839	105.3
822.017	93.01
822.195	58.2
822.373	37.72
822.551	45.91
822.729	60.24
822.907	84.82
823.085	109.4
823.262	27.48
823.44	70.48
823.618	74.58
823.796	43.86
823.974	72.53
824.152	54.1
824.329	15.19
824.507	66.39
824.685	-9.39
824.863	90.96
825.04	115.54
825.218	-27.82
825.396	43.86
825.574	35.67
825.751	84.82
825.929	31.57
826.107	29.52
826.284	62.29
826.462	111.44
826.639	50
826.817	25.43
826.994	35.67
827.172	-15.53
827.349	78.68
827.527	41.81
827.704	56.15
827.882	60.24
828.059	62.29
828.237	19.29
828.414	84.82
828.591	-15.53
828.769	35.67
828.946	31.57
829.124	76.63
829.301	-29.87
829.478	4.95
829.655	52.05
829.833	7
830.01	13.14
830.187	80.72
830.364	82.77
830.542	2.9
830.719	97.11
830.896	31.57
831.073	74.58
831.25	105.3
831.427	66.39
831.604	107.35
831.782	-7.34
831.959	0.85
832.136	107.35
832.313	78.68
832.49	0.85
832.667	7
832.844	23.38
833.021	47.96
833.198	74.58
833.374	113.49
833.551	-44.2
833.728	13.14
833.905	31.57
834.082	52.05
834.259	58.2
834.436	41.81
834.612	-17.58
834.789	72.53
834.966	88.92
835.143	7
835.319	25.43
835.496	-1.19
835.673	-62.63
835.85	80.72
836.026	41.81
836.203	64.34
836.38	9.05
836.556	33.62
836.733	29.52
836.909	41.81
837.086	7
837.262	56.15
837.439	-29.87
837.616	66.39
837.792	-58.54
837.968	35.67
838.145	-5.29
838.321	17.24
838.498	0.85
838.674	21.33
838.851	0.85
839.027	27.48
839.203	-7.34
839.38	23.38
839.556	82.77
839.732	45.91
839.909	-5.29
840.085	33.62
840.261	-33.96
840.437	-27.82
840.614	25.43
840.79	45.91
840.966	60.24
841.142	58.2
841.318	27.48
841.494	7
841.671	39.76
841.847	0.85
842.023	66.39
842.199	78.68
842.375	29.52
842.551	19.29
842.727	21.33
842.903	-62.63
843.079	-17.58
843.255	97.11
843.431	136.02
843.607	52.05
843.783	-79.02
843.959	-9.39
844.134	31.57
844.31	19.29
844.486	58.2
844.662	11.09
844.838	-42.15
845.013	11.09
845.189	-3.24
845.365	35.67
845.541	11.09
845.716	37.72
845.892	52.05
846.068	37.72
846.244	37.72
846.419	33.62
846.595	13.14
846.77	76.63
846.946	-33.96
847.122	33.62
847.297	0.85
847.473	-33.96
847.648	13.14
847.824	-21.67
847.999	-1.19
848.175	33.62
848.35	-33.96
848.526	27.48
848.701	13.14
848.876	66.39
849.052	52.05
849.227	-27.82
849.403	52.05
849.578	19.29
849.753	76.63
849.929	-7.34
850.104	39.76
850.279	-17.58
850.454	7
850.63	27.48
850.805	54.1
850.98	-15.53
851.155	-23.72
851.33	74.58
851.505	-29.87
851.681	35.67
851.856	25.43
852.031	15.19
852.206	0.85
852.381	31.57
852.556	58.2
852.731	62.29
852.906	-11.43
853.081	9.05
853.256	-9.39
853.431	-33.96
853.606	-13.48
853.781	45.91
853.956	21.33
854.131	62.29
854.305	15.19
854.48	15.19
854.655	33.62
854.83	29.52
855.005	29.52
855.18	11.09
855.354	-58.54
855.529	35.67
855.704	0.85
855.879	60.24
856.053	-25.77
856.228	33.62
856.403	17.24
856.577	15.19
856.752	41.81
856.926	-13.48
857.101	-25.77
857.276	66.39
857.45	7
857.625	39.76
857.799	-1.19
857.974	9.05
858.148	2.9
858.323	-38.06
858.497	-19.63
858.672	-38.06
858.846	7
859.02	7
859.195	37.72
859.369	15.19
859.543	-5.29
859.718	13.14
859.892	-1.19
860.066	37.72
860.241	23.38
860.415	56.15
860.589	0.85
860.763	37.72
860.938	-5.29
861.112	50
861.286	37.72
861.46	-9.39
861.634	11.09
861.808	2.9
861.982	-21.67
862.157	-17.58
862.331	-40.11
862.505	41.81
862.679	17.24
862.853	-29.87
863.027	17.24
863.201	37.72
863.375	-66.73
863.549	60.24
863.722	-13.48
863.896	-48.3
864.07	2.9
864.244	37.72
864.418	-56.49
864.592	41.81
864.766	15.19
864.939	23.38
865.113	-17.58
865.287	23.38
865.461	29.52
865.634	-29.87
865.808	-83.11
865.982	-42.15
866.156	25.43
866.329	15.19
866.503	-3.24
866.676	-9.39
866.85	23.38
867.024	-62.63
867.197	-11.43
867.371	-17.58
867.544	37.72
867.718	-23.72
867.891	37.72
868.065	27.48
868.238	11.09
868.412	29.52
868.585	-1.19
868.759	-25.77
868.932	-23.72
869.105	4.95
869.279	70.48
869.452	11.09
869.625	15.19
869.799	47.96
869.972	-25.77
870.145	76.63
870.319	56.15
870.492	23.38
870.665	-31.91
870.838	-9.39
871.011	7
871.185	-46.25
871.358	13.14
871.531	-7.34
871.704	56.15
871.877	-9.39
872.05	-7.34
872.223	-33.96
872.396	13.14
872.569	-3.24
872.742	64.34
872.915	74.58
873.088	25.43
873.261	17.24
873.434	-58.54
873.607	21.33
873.78	-15.53
873.953	-23.72
874.126	50
874.299	23.38
874.471	17.24
874.644	25.43
874.817	41.81
874.99	43.86
875.163	-56.49
875.335	-27.82
875.508	64.34
875.681	66.39
875.853	-29.87
876.026	33.62
876.199	-27.82
876.371	33.62
876.544	31.57
876.717	54.1
876.889	23.38
877.062	39.76
877.234	-3.24
877.407	-9.39
877.579	-9.39
877.752	-33.96
877.924	-21.67
878.097	-56.49
878.269	-44.2
878.442	-33.96
878.614	-29.87
878.786	64.34
878.959	45.91
879.131	11.09
879.303	-44.2
879.476	-54.44
879.648	-36.01
879.82	31.57
879.993	-13.48
880.165	-25.77
880.337	-58.54
880.509	27.48
880.681	2.9
880.854	-25.77
881.026	-50.35
881.198	-46.25
881.37	72.53
881.542	-81.07
881.714	-31.91
881.886	17.24
882.058	17.24
882.23	82.77
882.402	7
882.574	-7.34
882.746	-50.35
882.918	54.1
883.09	62.29
883.262	50
883.434	19.29
883.606	11.09
883.778	-29.87
883.95	23.38
884.122	21.33
884.293	-19.63
884.465	-7.34
884.637	47.96
884.809	-42.15
884.98	101.2
885.152	17.24
885.324	29.52
885.496	-17.58
885.667	-42.15
885.839	-23.72
886.011	80.72
886.182	29.52
886.354	-17.58
886.525	17.24
886.697	58.2
886.869	-38.06
887.04	-50.35
887.212	23.38
887.383	47.96
887.555	11.09
887.726	-11.43
887.897	41.81
888.069	80.72
888.24	-27.82
888.412	52.05
888.583	-46.25
888.754	0.85
888.926	27.48
889.097	50
889.268	2.9
889.44	2.9
889.611	19.29
889.782	2.9
889.953	52.05
890.125	37.72
890.296	-19.63
890.467	-42.15
890.638	-5.29
890.809	15.19
890.98	-31.91
891.151	-7.34
891.323	-48.3
891.494	35.67
891.665	-58.54
891.836	-9.39
892.007	-7.34
892.178	-9.39
892.349	-27.82
892.52	23.38
892.691	-3.24
892.862	-19.63
893.032	-21.67
893.203	11.09
893.374	-27.82
893.545	-7.34
893.716	-70.83
893.887	15.19
894.057	27.48
894.228	-31.91
894.399	-17.58
894.57	45.91
894.74	33.62
894.911	-21.67
895.082	-23.72
895.253	15.19
895.423	-7.34
895.594	56.15
895.764	-3.24
895.935	-23.72
896.106	50
896.276	-23.72
896.447	-62.63
896.617	-52.39
896.788	-1.19
896.958	-17.58
897.129	9.05
897.299	-56.49
897.47	7
897.64	66.39
897.81	-48.3
897.981	-1.19
898.151	-50.35
898.322	17.24
898.492	-62.63
898.662	68.44
898.832	-15.53
899.003	-13.48
899.173	37.72
899.343	-54.44
899.513	27.48
