Data from USB4F104151__51__12-59-13-805.txt Node

Date: Fri Mar 14 12:59:13 EDT 2025
User: louis
Spectrometer: USB4F10415
Trigger mode: 4
Integration Time (sec): 1.000000E-2
Scans to average: 1
Electric dark correction enabled: true
Nonlinearity correction enabled: false
Boxcar width: 0
XAxis mode: Wavelengths
Number of Pixels in Spectrum: 3648
>>>>>Begin Spectral Data<<<<<
178.204	-72.02
178.424	-72.02
178.644	-72.02
178.864	1.71
179.084	-49.49
179.304	-51.54
179.524	32.43
179.744	-16.73
179.964	-26.96
180.184	28.33
180.404	69.29
180.624	5.8
180.844	-37.2
181.064	-22.87
181.283	-2.39
181.503	-20.82
181.723	42.67
181.943	-20.82
182.163	7.85
182.383	-24.92
182.602	-0.34
182.822	-24.92
183.042	28.33
183.262	32.43
183.482	-41.3
183.701	-72.02
183.921	20.14
184.141	-2.39
184.361	20.14
184.58	26.28
184.8	9.9
185.02	69.29
185.239	-2.39
185.459	30.38
185.679	-10.58
185.898	-14.68
186.118	32.43
186.338	-12.63
186.557	42.67
186.777	40.62
186.997	-8.53
187.216	1.71
187.436	1.71
187.655	-39.25
187.875	-31.06
188.095	1.71
188.314	-4.44
188.534	87.72
188.753	-26.96
188.973	-10.58
189.192	16.04
189.412	-53.59
189.631	18.09
189.851	-16.73
190.07	16.04
190.29	9.9
190.509	-8.53
190.729	-6.49
190.948	112.3
191.168	-22.87
191.387	30.38
191.607	18.09
191.826	44.71
192.045	54.95
192.265	-0.34
192.484	46.76
192.704	36.52
192.923	-20.82
193.142	73.39
193.362	-10.58
193.581	42.67
193.8	54.95
194.02	1.71
194.239	-12.63
194.458	42.67
194.678	75.43
194.897	-2.39
195.116	24.23
195.335	1.71
195.555	24.23
195.774	38.57
195.993	-74.07
196.212	20.14
196.432	-2.39
196.651	18.09
196.87	18.09
197.089	-12.63
197.308	57
197.528	-12.63
197.747	-14.68
197.966	48.81
198.185	75.43
198.404	-14.68
198.623	13.99
198.842	-6.49
199.062	46.76
199.281	7.85
199.5	30.38
199.719	63.15
199.938	-26.96
200.157	-29.01
200.376	-37.2
200.595	54.95
200.814	-2.39
201.033	102.06
201.252	40.62
201.471	48.81
201.69	22.19
201.909	44.71
202.128	-33.11
202.347	7.85
202.566	34.47
202.785	46.76
203.004	-24.92
203.223	48.81
203.442	59.05
203.661	-10.58
203.879	65.19
204.098	-2.39
204.317	5.8
204.536	-4.44
204.755	-37.2
204.974	9.9
205.193	-2.39
205.411	54.95
205.63	38.57
205.849	1.71
206.068	-61.78
206.287	30.38
206.505	20.14
206.724	22.19
206.943	65.19
207.162	48.81
207.381	-41.3
207.599	3.75
207.818	-8.53
208.037	40.62
208.255	59.05
208.474	-0.34
208.693	-6.49
208.911	-12.63
209.13	32.43
209.349	26.28
209.567	73.39
209.786	-2.39
210.005	-10.58
210.223	36.52
210.442	-10.58
210.661	44.71
210.879	61.1
211.098	-0.34
211.316	44.71
211.535	36.52
211.753	-22.87
211.972	26.28
212.191	-12.63
212.409	69.29
212.628	-8.53
212.846	40.62
213.065	42.67
213.283	5.8
213.502	-8.53
213.72	18.09
213.938	-12.63
214.157	13.99
214.375	-2.39
214.594	50.86
214.812	24.23
215.031	42.67
215.249	46.76
215.467	-8.53
215.686	5.8
215.904	32.43
216.122	-20.82
216.341	110.25
216.559	30.38
216.778	3.75
216.996	30.38
217.214	50.86
217.432	24.23
217.651	38.57
217.869	-49.49
218.087	-16.73
218.306	-10.58
218.524	16.04
218.742	-69.97
218.96	7.85
219.179	-20.82
219.397	5.8
219.615	38.57
219.833	48.81
220.051	-6.49
220.27	114.34
220.488	93.87
220.706	-31.06
220.924	-14.68
221.142	73.39
221.36	63.15
221.578	30.38
221.796	44.71
222.015	22.19
222.233	-49.49
222.451	30.38
222.669	-16.73
222.887	1.71
223.105	7.85
223.323	46.76
223.541	-22.87
223.759	-0.34
223.977	18.09
224.195	1.71
224.413	65.19
224.631	-33.11
224.849	71.34
225.067	126.63
225.285	-0.34
225.503	50.86
225.721	-39.25
225.939	73.39
226.157	-45.4
226.375	11.95
226.592	36.52
226.81	11.95
227.028	9.9
227.246	-18.77
227.464	9.9
227.682	30.38
227.9	-16.73
228.117	97.96
228.335	22.19
228.553	7.85
228.771	9.9
228.989	89.77
229.206	9.9
229.424	1.71
229.642	48.81
229.86	-6.49
230.077	-37.2
230.295	20.14
230.513	-6.49
230.731	5.8
230.948	3.75
231.166	7.85
231.384	-6.49
231.601	22.19
231.819	3.75
232.037	-16.73
232.254	69.29
232.472	46.76
232.689	1.71
232.907	81.58
233.125	-4.44
233.342	-2.39
233.56	38.57
233.777	9.9
233.995	116.39
234.213	36.52
234.43	-0.34
234.648	48.81
234.865	-14.68
235.083	69.29
235.3	-12.63
235.518	32.43
235.735	28.33
235.953	50.86
236.17	26.28
236.388	-31.06
236.605	16.04
236.822	48.81
237.04	32.43
237.257	-37.2
237.475	-6.49
237.692	-24.92
237.909	30.38
238.127	-12.63
238.344	-22.87
238.562	1.71
238.779	63.15
238.996	48.81
239.214	22.19
239.431	16.04
239.648	20.14
239.865	5.8
240.083	18.09
240.3	81.58
240.517	24.23
240.735	22.19
240.952	44.71
241.169	-24.92
241.386	48.81
241.603	-8.53
241.821	9.9
242.038	16.04
242.255	16.04
242.472	40.62
242.689	83.63
242.907	40.62
243.124	-78.16
243.341	22.19
243.558	71.34
243.775	44.71
243.992	22.19
244.209	16.04
244.426	71.34
244.643	32.43
244.86	22.19
245.078	13.99
245.295	-20.82
245.512	-18.77
245.729	-55.64
245.946	97.96
246.163	63.15
246.38	54.95
246.597	69.29
246.814	24.23
247.031	20.14
247.248	18.09
247.464	46.76
247.681	11.95
247.898	20.14
248.115	-4.44
248.332	-31.06
248.549	32.43
248.766	112.3
248.983	69.29
249.2	-4.44
249.417	38.57
249.633	-24.92
249.85	104.11
250.067	46.76
250.284	48.81
250.501	42.67
250.717	69.29
250.934	38.57
251.151	-10.58
251.368	7.85
251.585	-2.39
251.801	5.8
252.018	36.52
252.235	26.28
252.451	50.86
252.668	63.15
252.885	11.95
253.102	24.23
253.318	24.23
253.535	30.38
253.752	-35.16
253.968	7.85
254.185	-26.96
254.401	28.33
254.618	-10.58
254.835	-0.34
255.051	-18.77
255.268	40.62
255.484	18.09
255.701	-14.68
255.917	57
256.134	-24.92
256.351	46.76
256.567	50.86
256.784	-10.58
257	32.43
257.217	95.91
257.433	50.86
257.65	-18.77
257.866	-14.68
258.082	26.28
258.299	30.38
258.515	38.57
258.732	30.38
258.948	28.33
259.165	42.67
259.381	44.71
259.597	44.71
259.814	97.96
260.03	48.81
260.246	11.95
260.463	79.53
260.679	-10.58
260.895	-20.82
261.112	-2.39
261.328	-14.68
261.544	7.85
261.761	46.76
261.977	36.52
262.193	30.38
262.409	-10.58
262.626	7.85
262.842	83.63
263.058	-8.53
263.274	1.71
263.49	-22.87
263.707	5.8
263.923	-33.11
264.139	-18.77
264.355	38.57
264.571	22.19
264.787	-0.34
265.004	-14.68
265.22	11.95
265.436	54.95
265.652	-26.96
265.868	57
266.084	50.86
266.3	-2.39
266.516	71.34
266.732	-31.06
266.948	28.33
267.164	16.04
267.38	11.95
267.596	59.05
267.812	34.47
268.028	63.15
268.244	-45.4
268.46	-0.34
268.676	-18.77
268.892	-45.4
269.108	81.58
269.324	11.95
269.54	-10.58
269.756	16.04
269.972	16.04
270.188	26.28
270.403	-41.3
270.619	9.9
270.835	20.14
271.051	5.8
271.267	32.43
271.483	-4.44
271.698	-10.58
271.914	-20.82
272.13	38.57
272.346	-2.39
272.562	73.39
272.777	42.67
272.993	13.99
273.209	18.09
273.425	-43.35
273.64	5.8
273.856	40.62
274.072	-2.39
274.287	59.05
274.503	-10.58
274.719	-22.87
274.934	1.71
275.15	3.75
275.366	-31.06
275.581	-22.87
275.797	-35.16
276.012	38.57
276.228	1.71
276.444	22.19
276.659	-0.34
276.875	13.99
277.09	24.23
277.306	22.19
277.521	-20.82
277.737	-37.2
277.952	34.47
278.168	13.99
278.383	-8.53
278.599	-35.16
278.814	16.04
279.03	22.19
279.245	34.47
279.461	-2.39
279.676	11.95
279.892	26.28
280.107	9.9
280.322	-55.64
280.538	79.53
280.753	-39.25
280.969	54.95
281.184	-14.68
281.399	67.24
281.615	13.99
281.83	44.71
282.045	-26.96
282.26	54.95
282.476	-14.68
282.691	3.75
282.906	50.86
283.122	-20.82
283.337	16.04
283.552	30.38
283.767	-20.82
283.983	20.14
284.198	9.9
284.413	65.19
284.628	-6.49
284.843	18.09
285.058	71.34
285.274	71.34
285.489	13.99
285.704	11.95
285.919	32.43
286.134	-47.44
286.349	7.85
286.564	67.24
286.779	65.19
286.995	57
287.21	11.95
287.425	63.15
287.64	-35.16
287.855	52.91
288.07	5.8
288.285	16.04
288.5	38.57
288.715	-31.06
288.93	22.19
289.145	9.9
289.36	-18.77
289.575	-8.53
289.79	-33.11
290.004	-14.68
290.219	9.9
290.434	-14.68
290.649	40.62
290.864	9.9
291.079	-26.96
291.294	-31.06
291.509	22.19
291.724	16.04
291.938	-6.49
292.153	40.62
292.368	-20.82
292.583	-0.34
292.798	18.09
293.012	102.06
293.227	13.99
293.442	50.86
293.657	-80.21
293.871	-14.68
294.086	-0.34
294.301	-24.92
294.516	7.85
294.73	20.14
294.945	22.19
295.16	-0.34
295.374	38.57
295.589	100.01
295.804	-14.68
296.018	-6.49
296.233	50.86
296.447	44.71
296.662	11.95
296.877	118.44
297.091	112.3
297.306	18.09
297.52	73.39
297.735	38.57
297.949	30.38
298.164	28.33
298.378	52.91
298.593	48.81
298.807	34.47
299.022	26.28
299.236	100.01
299.451	46.76
299.665	-39.25
299.88	11.95
300.094	-22.87
300.309	-33.11
300.523	13.99
300.737	-14.68
300.952	1.71
301.166	18.09
301.381	-20.82
301.595	16.04
301.809	-31.06
302.024	1.71
302.238	-65.88
302.452	42.67
302.667	65.19
302.881	22.19
303.095	65.19
303.309	32.43
303.524	44.71
303.738	-14.68
303.952	32.43
304.166	-2.39
304.381	13.99
304.595	50.86
304.809	46.76
305.023	81.58
305.237	22.19
305.452	7.85
305.666	32.43
305.88	57
306.094	-16.73
306.308	28.33
306.522	-18.77
306.736	-18.77
306.95	18.09
307.164	-43.35
307.379	-6.49
307.593	3.75
307.807	34.47
308.021	24.23
308.235	69.29
308.449	63.15
308.663	11.95
308.877	3.75
309.091	-24.92
309.305	22.19
309.519	36.52
309.733	79.53
309.947	97.96
310.161	30.38
310.374	-31.06
310.588	26.28
310.802	40.62
311.016	-12.63
311.23	9.9
311.444	54.95
311.658	54.95
311.872	-29.01
312.085	83.63
312.299	112.3
312.513	-33.11
312.727	87.72
312.941	48.81
313.154	-2.39
313.368	20.14
313.582	-33.11
313.796	-61.78
314.009	34.47
314.223	38.57
314.437	46.76
314.651	20.14
314.864	46.76
315.078	13.99
315.292	11.95
315.505	40.62
315.719	1.71
315.933	26.28
316.146	75.43
316.36	-22.87
316.573	46.76
316.787	69.29
317.001	-59.73
317.214	-24.92
317.428	24.23
317.641	79.53
317.855	57
318.068	52.91
318.282	52.91
318.495	34.47
318.709	42.67
318.922	42.67
319.136	54.95
319.349	-45.4
319.563	71.34
319.776	38.57
319.99	24.23
320.203	46.76
320.417	24.23
320.63	-31.06
320.843	85.67
321.057	-57.68
321.27	26.28
321.483	128.68
321.697	69.29
321.91	83.63
322.124	30.38
322.337	-20.82
322.55	32.43
322.763	16.04
322.977	30.38
323.19	-29.01
323.403	40.62
323.617	69.29
323.83	54.95
324.043	75.43
324.256	85.67
324.469	65.19
324.683	54.95
324.896	-0.34
325.109	20.14
325.322	-6.49
325.535	48.81
325.748	-108.88
325.962	5.8
326.175	5.8
326.388	24.23
326.601	71.34
326.814	3.75
327.027	46.76
327.24	-12.63
327.453	-2.39
327.666	20.14
327.879	50.86
328.092	50.86
328.305	22.19
328.518	7.85
328.731	18.09
328.944	73.39
329.157	65.19
329.37	30.38
329.583	46.76
329.796	87.72
330.009	38.57
330.222	77.48
330.435	57
330.648	71.34
330.861	-4.44
331.073	46.76
331.286	16.04
331.499	65.19
331.712	-14.68
331.925	5.8
332.138	-10.58
332.35	-45.4
332.563	67.24
332.776	114.34
332.989	11.95
333.202	32.43
333.414	-37.2
333.627	-57.68
333.84	-92.5
334.053	5.8
334.265	-22.87
334.478	73.39
334.691	-18.77
334.903	18.09
335.116	5.8
335.329	40.62
335.541	3.75
335.754	104.11
335.966	5.8
336.179	28.33
336.392	-26.96
336.604	-8.53
336.817	13.99
337.029	57
337.242	-4.44
337.454	46.76
337.667	46.76
337.88	59.05
338.092	1.71
338.305	16.04
338.517	22.19
338.729	-24.92
338.942	-35.16
339.154	-16.73
339.367	50.86
339.579	79.53
339.792	-31.06
340.004	63.15
340.217	18.09
340.429	36.52
340.641	112.3
340.854	9.9
341.066	-26.96
341.278	63.15
341.491	-0.34
341.703	-63.83
341.915	42.67
342.128	3.75
342.34	-18.77
342.552	79.53
342.764	32.43
342.977	83.63
343.189	67.24
343.401	5.8
343.613	28.33
343.826	-10.58
344.038	-2.39
344.25	75.43
344.462	-63.83
344.674	67.24
344.886	-4.44
345.099	79.53
345.311	36.52
345.523	104.11
345.735	24.23
345.947	67.24
346.159	-10.58
346.371	61.1
346.583	-35.16
346.795	102.06
347.007	73.39
347.219	9.9
347.431	26.28
347.643	65.19
347.855	-6.49
348.067	22.19
348.279	9.9
348.491	-10.58
348.703	46.76
348.915	32.43
349.127	11.95
349.339	75.43
349.551	13.99
349.763	34.47
349.975	48.81
350.187	18.09
350.399	24.23
350.61	-2.39
350.822	-61.78
351.034	5.8
351.246	32.43
351.458	69.29
351.669	61.1
351.881	-12.63
352.093	30.38
352.305	54.95
352.517	13.99
352.728	38.57
352.94	34.47
353.152	-24.92
353.363	24.23
353.575	50.86
353.787	83.63
353.999	26.28
354.21	-12.63
354.422	-67.92
354.633	-4.44
354.845	28.33
355.057	18.09
355.268	40.62
355.48	16.04
355.692	18.09
355.903	3.75
356.115	18.09
356.326	34.47
356.538	67.24
356.749	100.01
356.961	81.58
357.172	-4.44
357.384	-10.58
357.595	59.05
357.807	36.52
358.018	22.19
358.23	46.76
358.441	69.29
358.653	44.71
358.864	91.82
359.075	-18.77
359.287	28.33
359.498	-0.34
359.709	-14.68
359.921	32.43
360.132	-2.39
360.344	32.43
360.555	67.24
360.766	3.75
360.977	-51.54
361.189	67.24
361.4	34.47
361.611	44.71
361.823	-35.16
362.034	30.38
362.245	32.43
362.456	13.99
362.667	34.47
362.879	-18.77
363.09	7.85
363.301	40.62
363.512	-33.11
363.723	46.76
363.935	7.85
364.146	71.34
364.357	22.19
364.568	34.47
364.779	30.38
364.99	42.67
365.201	9.9
365.412	5.8
365.623	46.76
365.834	18.09
366.045	-18.77
366.256	34.47
366.467	54.95
366.678	85.67
366.889	38.57
367.1	13.99
367.311	16.04
367.522	38.57
367.733	54.95
367.944	9.9
368.155	63.15
368.366	114.34
368.577	-4.44
368.788	67.24
368.999	-35.16
369.209	91.82
369.42	5.8
369.631	106.15
369.842	28.33
370.053	-10.58
370.264	48.81
370.474	13.99
370.685	-14.68
370.896	81.58
371.107	50.86
371.317	108.2
371.528	48.81
371.739	108.2
371.95	48.81
372.16	11.95
372.371	26.28
372.582	-2.39
372.792	-33.11
373.003	38.57
373.214	-29.01
373.424	87.72
373.635	65.19
373.846	83.63
374.056	7.85
374.267	65.19
374.477	-0.34
374.688	30.38
374.898	5.8
375.109	13.99
375.319	65.19
375.53	26.28
375.74	-26.96
375.951	81.58
376.161	-0.34
376.372	67.24
376.582	3.75
376.793	54.95
377.003	-51.54
377.214	38.57
377.424	-16.73
377.635	59.05
377.845	13.99
378.055	91.82
378.266	73.39
378.476	46.76
378.686	36.52
378.897	-10.58
379.107	46.76
379.317	13.99
379.528	22.19
379.738	36.52
379.948	7.85
380.158	48.81
380.369	75.43
380.579	34.47
380.789	69.29
380.999	18.09
381.21	34.47
381.42	30.38
381.63	18.09
381.84	16.04
382.05	32.43
382.261	54.95
382.471	18.09
382.681	36.52
382.891	26.28
383.101	95.91
383.311	38.57
383.521	143.02
383.731	32.43
383.941	36.52
384.151	63.15
384.361	69.29
384.571	75.43
384.781	87.72
384.991	63.15
385.201	26.28
385.411	40.62
385.621	46.76
385.831	-47.44
386.041	69.29
386.251	32.43
386.461	79.53
386.671	11.95
386.881	46.76
387.091	26.28
387.301	16.04
387.511	-55.64
387.72	153.26
387.93	18.09
388.14	71.34
388.35	28.33
388.56	-26.96
388.769	77.48
388.979	71.34
389.189	3.75
389.399	81.58
389.609	50.86
389.818	38.57
390.028	-26.96
390.238	59.05
390.447	54.95
390.657	102.06
390.867	-2.39
391.076	46.76
391.286	52.91
391.496	69.29
391.705	71.34
391.915	7.85
392.125	50.86
392.334	-31.06
392.544	7.85
392.753	63.15
392.963	112.3
393.172	81.58
393.382	-18.77
393.591	73.39
393.801	57
394.01	83.63
394.22	28.33
394.429	-18.77
394.639	46.76
394.848	11.95
395.058	46.76
395.267	112.3
395.477	59.05
395.686	26.28
395.895	89.77
396.105	18.09
396.314	95.91
396.524	93.87
396.733	-41.3
396.942	48.81
397.152	108.2
397.361	57
397.57	40.62
397.78	112.3
397.989	54.95
398.198	149.16
398.407	73.39
398.617	126.63
398.826	91.82
399.035	13.99
399.244	75.43
399.453	100.01
399.663	38.57
399.872	-18.77
400.081	87.72
400.29	104.11
400.499	59.05
400.708	67.24
400.917	20.14
401.127	18.09
401.336	32.43
401.545	147.11
401.754	79.53
401.963	120.49
402.172	67.24
402.381	134.82
402.59	81.58
402.799	120.49
403.008	52.91
403.217	79.53
403.426	22.19
403.635	67.24
403.844	145.06
404.053	114.34
404.262	102.06
404.471	81.58
404.68	134.82
404.888	24.23
405.097	114.34
405.306	108.2
405.515	69.29
405.724	54.95
405.933	181.93
406.142	63.15
406.35	110.25
406.559	118.44
406.768	163.5
406.977	89.77
407.185	114.34
407.394	42.67
407.603	69.29
407.812	132.78
408.02	136.87
408.229	173.74
408.438	138.92
408.646	161.45
408.855	136.87
409.064	153.26
409.272	42.67
409.481	194.22
409.69	128.68
409.898	138.92
410.107	136.87
410.315	140.97
410.524	122.54
410.733	253.61
410.941	151.21
411.15	183.98
411.358	206.5
411.567	298.66
411.775	222.89
411.984	251.56
412.192	269.99
412.401	282.28
412.609	190.12
412.818	321.19
413.026	220.84
413.234	251.56
413.443	247.46
413.651	343.72
413.86	384.68
414.068	390.82
414.276	386.72
414.485	368.29
414.693	429.73
414.901	413.35
415.11	399.01
415.318	407.2
415.526	372.39
415.734	403.11
415.943	380.58
416.151	493.22
416.359	480.93
416.567	435.88
416.776	550.56
416.984	517.79
417.192	644.77
417.4	497.32
417.608	556.71
417.817	638.62
418.025	624.29
418.233	712.35
418.441	630.43
418.649	714.4
418.857	691.87
419.065	702.11
419.273	796.32
419.481	802.46
419.689	822.94
419.897	898.72
420.105	833.18
420.313	851.61
420.521	888.48
420.729	904.86
420.937	933.53
421.145	1013.4
421.353	1027.74
421.561	1011.36
421.769	1033.88
421.977	1193.62
422.185	1189.53
422.393	1275.54
422.601	1261.21
422.809	1283.74
423.017	1349.27
423.224	1367.7
423.432	1357.46
423.64	1394.33
423.848	1549.97
424.056	1423
424.263	1664.66
424.471	1629.84
424.679	1611.41
424.887	1750.67
425.094	1760.91
425.302	1726.1
425.51	1814.16
425.718	1928.85
425.925	1906.32
426.133	1898.13
426.341	2193.03
426.548	2160.27
426.756	2242.18
426.964	2274.95
427.171	2324.1
427.379	2391.69
427.586	2426.5
427.794	2555.52
428.001	2623.11
428.209	2659.97
428.417	2758.27
428.624	2930.3
428.832	2934.4
429.039	2975.36
429.247	2930.3
429.454	3257.98
429.662	3458.68
429.869	3255.93
430.076	3485.3
430.284	3257.98
430.491	3483.25
430.699	3604.08
430.906	3612.28
431.114	3700.34
431.321	3837.55
431.528	3853.94
431.736	4173.42
431.943	4251.24
432.15	4275.82
432.358	4243.05
432.565	4593.25
432.772	4535.91
432.979	4679.27
433.187	4767.33
433.394	4822.63
433.601	5283.42
433.808	5101.15
434.016	5232.22
434.223	5385.82
434.43	5754.45
434.637	5598.81
434.844	6024.78
435.052	6149.71
435.259	6069.84
435.466	6014.54
435.673	6037.07
435.88	6301.26
436.087	6768.2
436.294	6788.68
436.501	6618.69
436.708	6913.6
436.915	6940.22
437.122	7341.63
437.329	7247.42
437.537	7618.1
437.743	7540.28
437.95	7466.55
438.157	8054.32
438.364	8076.85
438.571	8142.38
438.778	8218.16
438.985	8881.7
439.192	8621.61
439.399	8986.15
439.606	8560.17
439.813	9301.53
440.02	9762.33
440.227	9694.74
440.433	9582.1
440.64	10090
440.847	9969.17
441.054	10038.8
441.261	10604.04
441.467	10599.94
441.674	10655.24
441.881	11228.67
442.088	11134.46
442.294	11187.71
442.501	11376.13
442.708	11701.75
442.914	12164.59
443.121	12541.42
443.328	12111.35
443.534	12926.44
443.741	12811.75
443.948	12561.9
444.154	13471.2
444.361	13424.09
444.568	13774.3
444.774	13424.09
444.981	13757.91
445.187	14151.12
445.394	14706.12
445.6	14714.31
445.807	15990.2
446.013	15619.52
446.22	15691.2
446.426	16346.55
446.633	16326.07
446.839	16934.31
447.046	16387.5
447.252	17012.14
447.459	17143.21
447.665	17055.14
447.871	17933.72
448.078	18902.41
448.284	18007.45
448.491	18431.38
448.697	19180.93
448.903	19494.27
449.11	19563.9
449.316	19107.21
449.522	19789.18
449.728	20346.23
449.935	20505.97
450.141	20495.73
450.347	20639.09
450.553	19932.54
450.76	20690.29
450.966	21347.68
451.172	20839.79
451.378	21370.21
451.584	21024.11
451.791	21575.01
451.997	21751.13
452.203	22232.41
452.409	21804.38
452.615	21722.46
452.821	21198.18
453.027	21017.96
453.233	21779.81
453.44	21130.6
453.646	21378.4
453.852	21417.32
454.058	21749.09
454.264	21251.43
454.47	21685.6
454.676	21288.29
454.882	21886.3
455.088	20020.6
455.294	20364.66
455.5	20450.67
455.705	21017.96
455.911	19740.03
456.117	19660.16
456.323	19301.76
456.529	18091.41
456.735	19195.27
456.941	18687.37
457.147	18363.79
457.352	17823.13
457.558	17479.07
457.764	17757.6
457.97	17214.88
458.176	16971.18
458.381	17001.9
458.587	16197.04
458.793	16258.48
458.999	15363.52
459.204	16467.38
459.41	15912.38
459.616	14982.6
459.821	14998.98
460.027	14884.3
460.233	14575.05
460.438	13895.13
460.644	13848.02
460.85	13346.27
461.055	13194.72
461.261	13229.54
461.466	12023.28
461.672	11886.07
461.878	12760.55
462.083	11726.33
462.289	11441.66
462.494	11546.11
462.7	10790.41
462.905	10513.93
463.111	11212.29
463.316	10960.39
463.522	10659.34
463.727	10851.85
463.932	10911.24
464.138	10853.89
464.343	10814.98
464.549	10368.52
464.754	10868.23
464.959	10755.59
465.165	10647.05
465.37	10141.2
465.575	9840.15
465.781	10376.72
465.986	10397.2
466.191	9975.31
466.397	9952.79
466.602	9192.99
466.807	9825.81
467.012	9803.29
467.218	9600.54
467.423	9405.98
467.628	9541.15
467.833	10327.57
468.038	9614.87
468.244	9342.49
468.449	9811.48
468.654	9283.1
468.859	9391.64
469.064	9303.58
469.269	8893.99
469.474	9027.1
469.679	9096.74
469.885	8734.25
470.09	8918.56
470.295	8869.41
470.5	8912.42
470.705	8859.17
470.91	8715.81
471.115	8511.02
471.32	8758.82
471.525	8746.53
471.73	8490.54
471.935	8422.95
472.139	8109.61
472.344	8279.6
472.549	8234.54
472.754	8021.55
472.959	8119.85
473.164	7833.14
473.369	7636.53
473.574	7822.9
473.778	7773.75
473.983	7837.24
474.188	7718.45
474.393	7370.3
474.598	7519.8
474.802	7386.68
475.007	7376.44
475.212	7261.76
475.417	7003.71
475.621	7022.14
475.826	7085.63
476.031	6807.11
476.235	6745.67
476.44	6815.3
476.645	6630.98
476.849	6780.48
477.054	6815.3
477.259	6585.93
477.463	6757.96
477.668	6581.83
477.872	6585.93
478.077	6440.52
478.282	6139.47
478.486	6123.09
478.691	6137.42
478.895	6428.23
479.1	6162
479.304	6221.39
479.509	5897.81
479.713	6098.51
479.918	5840.47
480.122	5877.33
480.326	6084.17
480.531	5887.57
480.735	5799.51
480.94	5908.05
481.144	6053.45
481.348	5736.02
481.553	5895.76
481.757	5641.81
481.961	5701.2
482.166	5770.83
482.37	5930.58
482.574	5944.91
482.778	5729.88
482.983	5666.39
483.187	5658.2
483.391	5707.35
483.595	5568.09
483.8	5592.66
484.004	5764.69
484.208	5740.12
484.412	5684.82
484.616	5680.72
484.821	5764.69
485.025	5680.72
485.229	5791.31
485.433	5520.98
485.637	5813.84
485.841	5875.28
486.045	5684.82
486.249	5877.33
486.453	5664.34
486.657	5846.61
486.861	5799.51
487.065	5576.28
487.269	5723.73
487.473	5551.7
487.677	5858.9
487.881	5762.64
488.085	5922.38
488.289	5856.85
488.493	5625.43
488.697	5805.65
488.901	5914.19
489.105	5727.83
489.309	5713.49
489.512	5883.47
489.716	5914.19
489.92	5768.79
490.124	5719.64
490.328	5875.28
490.531	6002.26
490.735	6041.17
490.939	6041.17
491.143	6012.49
491.346	5926.48
491.55	6047.31
491.754	6057.55
491.958	6153.8
492.161	6043.21
492.365	6172.24
492.569	6063.69
492.772	6215.24
492.976	6182.48
493.18	6209.1
493.383	6268.49
493.587	6465.1
493.79	6473.29
493.994	6256.2
494.197	6495.82
494.401	6536.77
494.605	6698.56
494.808	6417.99
495.012	6590.02
495.215	6717
495.419	6563.4
495.622	6624.84
495.825	6717
496.029	6897.22
496.232	7106.11
496.436	6917.7
496.639	7042.62
496.843	6872.64
497.046	7132.73
497.249	7396.92
497.453	7458.36
497.656	7515.7
497.859	7497.27
498.063	7540.28
498.266	7634.49
498.469	7632.44
498.673	7771.7
498.876	7992.88
499.079	7919.15
499.282	7900.72
499.485	8134.19
499.689	8152.62
499.892	8322.6
500.095	8420.91
500.298	8734.25
500.501	8502.82
500.705	8859.17
500.908	9000.48
501.111	8797.73
501.314	9000.48
501.517	9147.94
501.72	9143.84
501.923	9197.09
502.126	9410.08
502.329	9713.17
502.532	9639.45
502.735	9766.42
502.938	9975.31
503.141	10079.76
503.344	10143.25
503.547	10044.95
503.75	10395.15
503.953	10540.55
504.156	10620.42
504.359	10606.09
504.562	10726.92
504.765	11130.37
504.968	11245.06
505.17	11310.59
505.373	11236.86
505.576	11691.51
505.779	11820.53
505.982	11769.34
506.185	12019.19
506.387	12228.08
506.59	12273.14
506.793	12377.58
506.996	12391.92
507.198	12639.72
507.401	12838.37
507.604	12821.99
507.807	13118.95
508.009	13319.65
508.212	13456.86
508.415	13581.79
508.617	13622.75
508.82	13837.78
509.022	13764.06
509.225	14323.15
509.428	14548.43
509.63	14515.66
509.833	14540.24
510.035	14820.81
510.238	14882.25
510.44	15240.64
510.643	15187.39
510.845	15427.01
511.048	15332.8
511.25	15750.59
511.453	15689.15
511.655	16637.36
511.858	16332.21
512.06	16190.9
512.262	16684.46
512.465	16962.98
512.667	16965.03
512.87	17003.94
513.072	17290.66
513.274	17491.36
513.477	17931.67
513.679	17780.12
513.881	18054.55
514.084	17825.18
514.286	18171.29
514.488	18402.71
514.69	19035.53
514.893	19148.17
515.095	19027.34
515.297	19406.21
515.499	19502.47
515.701	19746.17
515.904	20059.51
516.106	20268.41
516.308	20768.11
516.51	21001.58
516.712	20888.94
516.914	21370.21
517.116	21343.59
517.318	21914.97
517.52	21566.82
517.722	21697.89
517.925	21810.53
518.127	22379.86
518.329	22685.01
518.531	22594.9
518.733	22805.84
518.935	22992.2
519.136	23192.9
519.338	23512.39
519.54	23592.26
519.742	23866.69
519.944	24057.15
520.146	24374.58
520.348	24495.41
520.55	24507.7
520.752	24933.68
520.954	25238.83
521.155	25103.66
521.357	25490.73
521.559	25773.35
521.761	26127.64
521.963	26033.44
522.164	26246.43
522.366	26215.71
522.568	26909.97
522.77	26889.49
522.971	27004.17
523.173	27122.96
523.375	27176.2
523.576	27448.58
523.778	27397.38
523.98	27872.51
524.181	27968.77
524.383	28028.16
524.584	28224.76
524.786	28486.9
524.988	28226.81
525.189	28714.23
525.391	28837.11
525.592	29050.1
525.794	29129.97
525.995	29619.43
526.197	29312.24
526.398	29426.92
526.6	29527.27
526.801	29764.84
527.003	30123.23
527.204	30252.25
527.406	30491.87
527.607	30411.99
527.808	30508.25
528.01	30000.35
528.211	30289.12
528.412	31059.15
528.614	30758.1
528.815	30731.48
529.016	31038.67
529.218	30975.19
529.419	31337.68
529.62	31098.06
529.822	31153.36
530.023	31210.7
530.224	31093.97
530.425	31468.75
530.626	31214.8
530.828	31235.28
531.029	31894.72
531.23	31765.7
531.431	31538.38
531.632	31644.87
531.833	31769.8
532.035	31483.08
532.236	32011.46
532.437	32466.11
532.638	31800.52
532.839	32001.22
533.04	32109.76
533.241	31859.91
533.442	32517.31
533.643	31745.22
533.844	32384.19
534.045	32584.89
534.246	32050.37
534.447	31995.07
534.648	32128.19
534.849	32355.52
535.05	32134.34
535.251	32441.53
535.451	32312.51
535.652	32599.23
535.853	32332.99
536.054	32292.03
536.255	32502.97
536.456	31935.68
536.657	33000.63
536.857	32607.42
537.058	31931.59
537.259	32429.24
537.46	32509.11
537.66	32265.41
537.861	32478.4
538.062	32345.28
538.263	32281.79
538.463	32365.76
538.664	32525.5
538.865	32525.5
539.065	32707.77
539.266	32031.94
539.466	32806.07
539.667	32142.53
539.868	32756.92
540.068	32558.27
540.269	32175.3
540.469	32597.18
540.67	32322.75
540.87	32570.55
541.071	32230.59
541.271	32349.37
541.472	32580.79
541.672	32449.72
541.873	32062.66
542.073	31931.59
542.274	32648.38
542.474	32169.15
542.675	32236.73
542.875	32638.14
543.075	32371.9
543.276	32058.56
543.476	32470.2
543.676	32390.33
543.877	32439.48
544.077	32351.42
544.277	32117.95
544.478	32255.17
544.678	32652.47
544.878	32218.3
545.078	32384.19
545.279	31876.29
545.479	32027.84
545.679	32048.32
545.879	32388.28
546.079	32308.41
546.28	32402.62
546.48	31691.98
546.68	32097.47
546.88	32556.22
547.08	32371.9
547.28	32433.34
547.48	31777.99
547.68	32332.99
547.88	32158.91
548.081	32357.56
548.281	31888.58
548.481	32206.02
548.681	32279.74
548.881	32265.41
549.081	32476.35
549.28	31849.67
549.48	32330.94
549.68	32187.58
549.88	32410.81
550.08	31837.38
550.28	32021.7
550.48	32265.41
550.68	32087.23
550.88	31732.93
551.08	32019.65
551.279	31814.85
551.479	31984.83
551.679	31956.16
551.879	31931.59
552.079	32416.96
552.278	31823.05
552.478	31933.64
552.678	31868.1
552.878	31921.35
553.077	31827.14
553.277	31751.37
553.477	32236.73
553.676	31864
553.876	31878.34
554.076	31612.1
554.275	31890.63
554.475	31892.68
554.674	31966.4
554.874	31945.92
555.074	31732.93
555.273	31712.45
555.473	31980.74
555.672	31765.7
555.872	31575.24
556.071	31653.06
556.271	31939.78
556.47	31802.57
556.67	31468.75
556.869	31182.03
557.068	31720.65
557.268	31376.59
557.467	31605.96
557.667	31376.59
557.866	31589.58
558.065	30975.19
558.265	31349.96
558.464	31171.79
558.663	31448.27
558.863	30958.8
559.062	31683.78
559.261	31028.43
559.461	31089.87
559.66	30768.34
559.859	31266
560.058	31018.19
560.258	30993.62
560.457	30545.11
560.656	31321.29
560.855	30586.07
561.054	30946.51
561.253	30520.54
561.453	31089.87
561.652	30549.21
561.851	31050.96
562.05	30522.58
562.249	30377.18
562.448	30698.71
562.647	30760.15
562.846	30688.47
563.045	30377.18
563.244	30258.4
563.443	30493.91
563.642	29846.76
563.841	30090.46
564.04	29887.71
564.239	29986.02
564.438	29834.47
564.637	30457.05
564.836	30074.08
565.035	29979.87
565.234	30235.87
565.432	29727.97
565.631	29709.54
565.83	29648.1
566.029	29719.78
566.228	29775.08
566.427	29486.31
566.625	29115.63
566.824	28824.82
567.023	29422.83
567.222	28880.11
567.42	29304.04
567.619	29074.67
567.818	29328.62
568.016	28929.27
568.215	29199.6
568.414	28771.57
568.612	29207.79
568.811	28652.79
569.01	28916.98
569.208	28370.17
569.407	28632.31
569.605	28601.59
569.804	28724.47
570.002	28183.8
570.201	28886.26
570.4	28404.99
570.598	28265.72
570.797	28112.13
570.995	28091.65
571.193	27630.85
571.392	28179.71
571.59	27688.2
571.789	27780.35
571.987	27823.36
572.186	27712.77
572.384	27450.63
572.582	27856.13
572.781	27401.48
572.979	27133.2
573.177	27206.92
573.376	27387.14
573.574	26995.98
573.772	27190.54
573.971	26844.43
574.169	26785.04
574.367	26952.98
574.565	27082
574.763	26715.41
574.962	26830.1
575.16	26410.26
575.358	26527
575.556	26416.41
575.754	26737.94
575.952	26094.88
576.151	26361.11
576.349	26111.26
576.547	26215.71
576.745	26371.35
576.943	26000.67
577.141	25847.07
577.339	26098.97
577.537	25910.56
577.735	25756.96
577.933	25535.78
578.131	25980.19
578.329	25789.73
578.527	25402.66
578.725	25748.77
578.923	25797.92
579.121	25322.79
579.319	25621.8
579.516	25322.79
579.714	25165.1
579.912	25132.33
580.11	24689.97
580.308	25046.32
580.506	24831.28
580.704	24362.29
580.901	24872.24
581.099	24919.34
581.297	24511.8
581.495	24773.94
581.692	24784.18
581.89	24294.71
582.088	24583.48
582.285	24241.46
582.483	24452.41
582.681	24380.73
582.878	24005.95
583.076	23899.45
583.274	24298.81
583.471	23868.73
583.669	23827.78
583.866	23807.3
584.064	24051
584.262	23479.62
584.459	24030.52
584.657	23649.6
584.854	23936.32
585.052	22994.25
585.249	23426.37
585.447	23430.47
585.644	23090.51
585.841	23377.22
586.039	23291.21
586.236	22979.92
586.434	23055.69
586.631	22748.5
586.828	23254.34
587.026	22961.48
587.223	22791.5
587.42	22830.41
587.618	22857.04
587.815	22531.41
588.012	22555.99
588.21	22185.3
588.407	22400.34
588.604	22213.98
588.801	22191.45
588.999	22222.17
589.196	22127.96
589.393	22310.23
589.59	22046.04
589.787	21984.6
589.984	21900.64
590.182	21714.27
590.379	22058.33
590.576	21955.93
590.773	21636.45
590.97	21638.5
591.167	21554.53
591.364	21515.62
591.561	21034.35
591.758	21136.74
591.955	21347.68
592.152	21464.42
592.349	20929.9
592.546	21071.21
592.743	21161.32
592.94	20819.31
593.137	21169.51
593.334	20886.89
593.531	20643.18
593.727	20821.36
593.924	20862.32
594.121	20852.08
594.318	20852.08
594.515	20489.59
594.712	20557.17
594.908	20198.77
595.105	20469.11
595.302	20372.85
595.499	20413.81
595.696	20161.91
595.892	20157.82
596.089	20045.18
596.286	20131.19
596.482	19623.3
596.679	20008.31
596.876	20061.56
597.072	19666.3
597.269	20151.67
597.466	19602.82
597.662	19756.41
597.859	19660.16
598.055	19516.8
598.252	19367.3
598.448	19389.83
598.645	19127.69
598.841	18779.53
599.038	19219.85
599.234	19197.32
599.431	18959.75
599.627	19058.06
599.824	19066.25
600.02	18929.03
600.217	18720.14
600.413	18802.06
600.609	18750.86
600.806	18572.69
601.002	18808.2
601.198	18300.31
601.395	18509.2
601.591	18716.05
601.787	18627.98
601.984	18275.73
602.18	18775.44
602.376	18578.83
602.572	18478.48
602.769	18161.05
602.965	18017.69
603.161	18079.13
603.357	17843.61
603.553	18066.84
603.75	17941.91
603.946	18034.07
604.142	17827.23
604.338	17819.03
604.534	17634.72
604.73	17579.42
604.926	17493.41
605.122	17733.02
605.318	17481.12
605.514	17266.08
605.71	17350.05
605.906	17434.02
606.102	17116.58
606.298	17335.71
606.494	17126.82
606.69	17132.97
606.886	17077.67
607.082	16864.68
607.278	17270.18
607.474	16797.1
607.67	16874.92
607.866	16616.88
608.062	16979.37
608.257	16530.86
608.453	16831.91
608.649	16711.08
608.845	16412.08
609.041	16520.62
609.236	16573.87
609.432	16397.74
609.628	16504.24
609.824	16223.67
610.019	16195
610.215	16522.67
610.411	16491.95
610.606	16272.82
610.802	16549.29
610.998	16348.59
611.193	16111.03
611.389	16436.66
611.584	16360.88
611.78	16031.16
611.976	16115.12
612.171	16238
612.367	15865.27
612.562	15816.12
612.758	15680.96
612.953	15777.21
613.149	15719.87
613.344	15644.09
613.539	16043.45
613.735	15701.44
613.93	15615.42
614.126	15547.84
614.321	15822.27
614.517	15588.8
614.712	15728.06
614.907	15435.2
615.103	15504.83
615.298	15652.28
615.493	15640
615.688	15308.23
615.884	15513.02
616.079	15138.24
616.274	15521.21
616.47	15236.55
616.665	15336.9
616.86	15418.82
617.055	15138.24
617.25	15369.66
617.445	14953.93
617.641	14773.71
617.836	15031.75
618.031	14618.06
618.226	15087.04
618.421	14912.97
618.616	15066.56
618.811	14642.64
619.006	14814.66
619.201	14474.7
619.396	14462.41
619.591	14374.35
619.786	14642.64
619.981	14349.78
620.176	14374.35
620.371	14378.45
620.566	14538.19
620.761	14052.82
620.956	14304.72
621.151	14079.44
621.346	14040.53
621.541	13837.78
621.735	13946.33
621.93	13542.88
622.125	13661.66
622.32	13555.16
622.515	13614.55
622.709	13630.94
622.904	13278.69
623.099	13350.37
623.294	13245.92
623.488	13229.54
623.683	13270.5
623.878	13002.21
624.072	13030.88
624.267	13010.4
624.462	12789.22
624.656	12858.85
624.851	12819.94
625.046	12715.5
625.24	12672.49
625.435	12592.62
625.629	12426.73
625.824	12598.76
626.018	12312.05
626.213	12072.43
626.407	12545.52
626.602	12252.66
626.796	12060.15
626.991	12023.28
627.185	12045.81
627.38	12062.19
627.574	11746.81
627.768	11746.81
627.963	11947.51
628.157	11607.55
628.352	11714.04
628.546	11535.87
628.74	11736.57
628.935	11474.43
629.129	11351.55
629.323	11218.43
629.517	11267.58
629.712	11193.86
629.906	11130.37
630.1	11032.07
630.294	10972.68
630.489	10755.59
630.683	11009.54
630.877	10745.35
631.071	10765.83
631.265	10794.5
631.459	10589.71
631.653	10589.71
631.848	10546.7
632.042	10483.21
632.236	10489.35
632.43	10489.35
632.624	10305.04
632.818	10323.47
633.012	10264.08
633.206	10065.43
633.4	10282.51
633.594	9993.75
633.788	10046.99
633.982	10073.62
634.176	9985.55
634.369	9979.41
634.563	9954.83
634.757	9899.54
634.951	9803.29
635.145	9700.89
635.339	9664.02
635.533	9453.08
635.726	9549.34
635.92	9481.75
636.114	9557.53
636.308	9395.74
636.501	9405.98
636.695	9254.43
636.889	9279.01
637.083	9215.52
637.276	9238.05
637.47	9154.08
637.664	9256.48
637.857	8996.39
638.051	8881.7
638.244	8828.45
638.438	8863.27
638.632	8869.41
638.825	8742.44
639.019	8668.71
639.212	8662.57
639.406	8818.21
639.599	8574.5
639.793	8695.33
639.986	8406.57
640.18	8218.16
640.373	8365.61
640.567	8418.86
640.76	8318.51
640.954	8060.46
641.147	8082.99
641.34	8103.47
641.534	8230.45
641.727	8140.33
641.92	8001.07
642.114	7890.48
642.307	7921.2
642.5	7956.02
642.694	7591.48
642.887	7827
643.08	7691.83
643.273	7769.65
643.467	7669.3
643.66	7495.22
643.853	7661.11
644.046	7437.88
644.239	7532.09
644.432	7405.11
644.626	7343.67
644.819	7435.83
645.012	7370.3
645.205	7290.43
645.398	7308.86
645.591	7116.35
645.784	7122.49
645.977	7128.64
646.17	7159.36
646.363	7138.88
646.556	7032.38
646.749	6786.63
646.942	6835.78
647.135	6860.35
647.328	6866.5
647.521	6755.91
647.714	6710.85
647.907	6571.59
648.099	6555.21
648.292	6620.74
648.485	6596.17
648.678	6510.15
648.871	6581.83
649.064	6334.03
649.256	6653.51
649.449	6463.05
649.642	6270.54
649.835	6368.84
650.027	6170.19
650.22	6274.63
650.413	6207.05
650.605	6157.9
650.798	6075.98
650.991	6166.09
651.183	6186.57
651.376	5928.53
651.568	5848.66
651.761	5865.04
651.954	6063.69
652.146	5899.86
652.339	5926.48
652.531	5846.61
652.724	5729.88
652.916	5844.56
653.109	5762.64
653.301	5774.93
653.494	5639.76
653.686	5690.96
653.879	5736.02
654.071	5619.28
654.263	5473.88
654.456	5559.89
654.648	5445.21
654.84	5361.24
655.033	5441.11
655.225	5451.35
655.417	5314.14
655.61	5418.58
655.802	5273.18
655.994	5338.71
656.186	5174.88
656.379	5158.49
656.571	5297.75
656.763	5078.62
656.955	5082.72
657.148	5019.23
657.34	5131.87
657.532	5066.33
657.724	5064.29
657.916	4886.11
658.108	5072.48
658.3	4947.55
658.492	4959.84
658.684	4873.82
658.876	4890.21
659.068	4873.82
659.26	4912.74
659.452	4851.3
659.644	4845.15
659.836	4642.4
660.028	4564.58
660.22	4664.93
660.412	4601.44
660.604	4595.3
660.796	4640.36
660.988	4615.78
661.18	4494.95
661.372	4548.2
661.563	4552.29
661.755	4462.18
661.947	4626.02
662.139	4408.94
662.331	4580.96
662.522	4429.42
662.714	4441.7
662.906	4249.19
663.097	4298.35
663.289	4195.95
663.481	4347.5
663.673	4216.43
663.864	4105.84
664.056	4284.01
664.247	4103.79
664.439	4212.33
664.631	4238.95
664.822	4095.6
665.014	4189.8
665.205	4066.92
665.397	4095.6
665.588	3980.91
665.78	3935.85
665.971	4013.68
666.163	4017.77
666.354	3915.37
666.546	3935.85
666.737	3858.03
666.929	3989.1
667.12	3704.43
667.311	3790.45
667.503	3751.54
667.694	3790.45
667.885	3692.15
668.077	3831.41
668.268	3712.63
668.459	3651.19
668.651	3700.34
668.842	3796.59
669.033	3597.94
669.224	3552.88
669.416	3653.23
669.607	3538.55
669.798	3634.8
669.989	3595.89
670.18	3536.5
670.371	3456.63
670.563	3430.01
670.754	3509.88
670.945	3577.46
671.136	3511.93
671.327	3423.86
671.518	3520.12
671.709	3442.29
671.9	3491.45
672.091	3364.47
672.282	3403.38
672.473	3387
672.664	3473.01
672.855	3270.26
673.046	3323.51
673.237	3290.74
673.428	3260.02
673.619	3235.45
673.809	3194.49
674	3303.03
674.191	3278.46
674.382	3313.27
674.573	3038.84
674.764	3266.17
674.954	3235.45
675.145	3233.4
675.336	3202.68
675.527	3178.11
675.717	3169.91
675.908	3176.06
676.099	3096.19
676.289	3143.29
676.48	3180.15
676.671	3219.07
676.861	3098.24
677.052	3034.75
677.243	3104.38
677.433	3024.51
677.624	3042.94
677.814	3022.46
678.005	3112.57
678.195	3069.56
678.386	3212.92
678.576	2909.82
678.767	3131
678.957	3090.04
679.148	2979.45
679.338	3034.75
679.529	2975.36
679.719	2956.93
679.909	3143.29
680.1	3014.27
680.29	2922.11
680.481	2999.93
680.671	2973.31
680.861	2885.25
681.052	2930.3
681.242	2940.54
681.432	2913.92
681.622	2791.04
681.813	2934.4
682.003	2762.37
682.193	2979.45
682.383	2911.87
682.573	2829.95
682.764	2989.69
682.954	2936.45
683.144	2866.81
683.334	2782.85
683.524	2932.35
683.714	2868.86
683.904	2875.01
684.094	2850.43
684.284	2911.87
684.474	2893.44
684.664	2803.33
684.854	2881.15
685.044	2872.96
685.234	2872.96
685.424	2856.58
685.614	2879.1
685.804	2797.18
685.994	2922.11
686.184	2866.81
686.374	2772.61
686.564	2696.83
686.753	2813.57
686.943	2819.71
687.133	2655.87
687.323	2676.35
687.513	2705.03
687.702	2776.7
687.892	2748.03
688.082	2662.02
688.272	2805.38
688.461	2717.31
688.651	2893.44
688.841	2780.8
689.03	2606.72
689.22	2655.87
689.41	2788.99
689.599	2686.59
689.789	2666.11
689.979	2643.59
690.168	2621.06
690.358	2713.22
690.547	2715.27
690.737	2602.63
690.926	2647.68
691.116	2580.1
691.305	2739.84
691.495	2705.03
691.684	2559.62
691.874	2670.21
692.063	2604.67
692.252	2555.52
692.442	2569.86
692.631	2688.64
692.82	2598.53
693.01	2610.82
693.199	2479.75
693.388	2422.41
693.578	2596.48
693.767	2557.57
693.956	2487.94
694.146	2616.96
694.335	2512.52
694.524	2487.94
694.713	2668.16
694.902	2463.37
695.092	2559.62
695.281	2516.61
695.47	2410.12
695.659	2489.99
695.848	2547.33
696.037	2451.08
696.226	2385.54
696.415	2453.13
696.604	2465.41
696.793	2418.31
696.982	2539.14
697.171	2463.37
697.36	2487.94
697.549	2360.97
697.738	2453.13
697.927	2475.65
698.116	2471.56
698.305	2504.32
698.494	2549.38
698.683	2459.27
698.872	2477.7
699.061	2449.03
699.25	2412.17
699.438	2440.84
699.627	2350.73
699.816	2473.6
700.005	2412.17
700.193	2350.73
700.382	2346.63
700.571	2360.97
700.76	2315.91
700.948	2360.97
701.137	2342.53
701.326	2307.72
701.514	2283.14
701.703	2340.49
701.892	2182.79
702.08	2289.29
702.269	2365.06
702.457	2342.53
702.646	2287.24
702.834	2219.66
703.023	2160.27
703.212	2258.57
703.4	2363.01
703.589	2283.14
703.777	2250.38
703.965	2219.66
704.154	2238.09
704.342	2268.81
704.531	2252.42
704.719	2207.37
704.907	2221.7
705.096	2172.55
705.284	2295.43
705.472	2289.29
705.661	2127.5
705.849	2221.7
706.037	2158.22
706.226	2182.79
706.414	2190.99
706.602	2227.85
706.79	2250.38
706.979	2221.7
707.167	2162.31
707.355	2141.83
707.543	2064.01
707.731	2147.98
707.919	2147.98
708.107	2002.57
708.296	2096.78
708.484	2164.36
708.672	2147.98
708.86	2074.25
709.048	2168.46
709.236	2064.01
709.424	2135.69
709.612	2072.2
709.8	1967.76
709.988	2098.83
710.176	2055.82
710.364	2287.24
710.551	2031.24
710.739	2152.07
710.927	2064.01
711.115	2041.48
711.303	2029.2
711.491	2057.87
711.679	2045.58
711.866	1969.8
712.054	2035.34
712.242	1963.66
712.43	2039.44
712.617	2025.1
712.805	2086.54
712.993	2031.24
713.181	1975.95
713.368	2010.76
713.556	2023.05
713.744	1953.42
713.931	2041.48
714.119	1965.71
714.306	1918.61
714.494	2033.29
714.682	1867.41
714.869	1834.64
715.057	1953.42
715.244	2006.67
715.432	1984.14
715.619	1910.41
715.807	1863.31
715.994	1863.31
716.182	1926.8
716.369	1994.38
716.556	1752.72
716.744	1879.69
716.931	1814.16
717.119	1924.75
717.306	1949.32
717.493	1779.34
717.681	1775.25
717.868	1793.68
718.055	1752.72
718.242	1941.13
718.43	1777.3
718.617	1939.09
718.804	1904.27
718.991	1799.82
719.179	1814.16
719.366	1838.73
719.553	1785.49
719.74	1840.78
719.927	1746.58
720.114	1762.96
720.301	1752.72
720.488	1742.48
720.676	1638.03
720.863	1803.92
721.05	1775.25
721.237	1808.02
721.424	1824.4
721.611	1793.68
721.798	1701.52
721.985	1676.95
722.172	1765.01
722.358	1687.18
722.545	1799.82
722.732	1672.85
722.919	1775.25
723.106	1789.58
723.293	1760.91
723.48	1582.74
723.667	1754.77
723.853	1681.04
724.04	1629.84
724.227	1676.95
724.414	1719.95
724.6	1652.37
724.787	1750.67
724.974	1707.66
725.161	1576.59
725.347	1621.65
725.534	1687.18
725.72	1689.23
725.907	1597.07
726.094	1668.75
726.28	1574.55
726.467	1613.46
726.653	1662.61
726.84	1595.03
727.027	1660.56
727.213	1603.22
727.4	1601.17
727.586	1629.84
727.773	1605.27
727.959	1615.51
728.145	1623.7
728.332	1613.46
728.518	1619.6
728.705	1576.59
728.891	1644.18
729.077	1535.64
729.264	1599.12
729.45	1521.3
729.636	1687.18
729.823	1576.59
730.009	1674.9
730.195	1472.15
730.382	1580.69
730.568	1547.92
730.754	1601.17
730.94	1527.44
731.126	1531.54
731.313	1535.64
731.499	1549.97
731.685	1566.35
731.871	1625.75
732.057	1547.92
732.243	1568.4
732.429	1498.77
732.615	1443.48
732.801	1531.54
732.987	1533.59
733.173	1578.64
733.359	1523.35
733.545	1609.36
733.731	1463.96
733.917	1484.44
734.103	1615.51
734.289	1492.63
734.475	1560.21
734.661	1502.87
734.847	1500.82
735.033	1410.71
735.219	1435.28
735.404	1541.78
735.59	1509.01
735.776	1488.53
735.962	1470.1
736.148	1541.78
736.333	1457.81
736.519	1408.66
736.705	1400.47
736.89	1443.48
737.076	1396.37
737.262	1439.38
737.447	1466
737.633	1398.42
737.819	1478.29
738.004	1375.89
738.19	1414.81
738.375	1406.61
738.561	1435.28
738.747	1492.63
738.932	1425.04
739.118	1441.43
739.303	1494.68
739.489	1418.9
739.674	1367.7
739.859	1408.66
740.045	1302.17
740.23	1382.04
740.416	1461.91
740.601	1418.9
740.786	1341.08
740.972	1285.78
741.157	1349.27
741.342	1349.27
741.528	1398.42
741.713	1300.12
741.898	1332.89
742.084	1273.5
742.269	1343.13
742.454	1361.56
742.639	1390.23
742.824	1336.98
743.01	1263.26
743.195	1281.69
743.38	1449.62
743.565	1394.33
743.75	1195.67
743.935	1336.98
744.12	1320.6
744.305	1285.78
744.49	1226.39
744.675	1267.35
744.86	1185.43
745.045	1300.12
745.23	1246.87
745.415	1275.54
745.6	1113.75
745.785	1210.01
745.97	1175.19
746.155	1263.26
746.34	1207.96
746.525	1275.54
746.71	1156.76
746.895	1181.34
747.079	1144.47
747.264	1169.05
747.449	1162.9
747.634	1242.78
747.819	1183.38
748.003	1060.51
748.188	1255.06
748.373	1148.57
748.557	1152.67
748.742	1136.28
748.927	1070.75
749.111	1113.75
749.296	1060.51
749.481	1078.94
749.665	1119.9
749.85	1050.27
750.034	1107.61
750.219	1074.84
750.404	1130.14
750.588	1078.94
750.773	1054.36
750.957	931.48
751.141	1013.4
751.326	1046.17
751.51	1062.55
751.695	941.72
751.879	1023.64
752.064	1099.42
752.248	994.97
752.432	1083.03
752.617	1007.26
752.801	1044.12
752.985	845.47
753.17	958.11
753.354	982.68
753.538	1040.03
753.722	906.91
753.907	1042.07
754.091	917.15
754.275	894.62
754.459	947.87
754.643	947.87
754.828	872.09
755.012	894.62
755.196	962.2
755.38	933.53
755.564	911
755.748	755.36
755.932	857.76
756.116	822.94
756.3	855.71
756.484	827.04
756.668	923.29
756.852	798.37
757.036	855.71
757.22	892.57
757.404	796.32
757.588	800.41
757.772	755.36
757.956	761.5
758.14	792.22
758.323	779.93
758.507	775.84
758.691	900.76
758.875	788.13
759.059	820.89
759.242	779.93
759.426	720.54
759.61	732.83
759.794	665.25
759.977	800.41
760.161	786.08
760.345	687.78
760.528	784.03
760.712	704.16
760.895	698.02
761.079	767.65
761.263	661.15
761.446	714.4
761.63	667.3
761.813	720.54
761.997	657.06
762.18	675.49
762.364	687.78
762.547	679.58
762.731	712.35
762.914	652.96
763.098	671.39
763.281	698.02
763.464	628.39
763.648	759.46
763.831	706.21
764.015	704.16
764.198	710.3
764.381	612
764.564	714.4
764.748	702.11
764.931	745.12
765.114	612
765.297	667.3
765.481	614.05
765.664	556.71
765.847	655.01
766.03	636.58
766.213	603.81
766.397	661.15
766.58	595.62
766.763	640.67
766.946	652.96
767.129	652.96
767.312	585.38
767.495	577.19
767.678	521.89
767.861	542.37
768.044	626.34
768.227	620.19
768.41	579.23
768.593	571.04
768.776	581.28
768.959	530.08
769.142	624.29
769.324	579.23
769.507	573.09
769.69	638.62
769.873	650.91
770.056	554.66
770.239	573.09
770.421	605.86
770.604	589.47
770.787	532.13
770.97	509.6
771.152	532.13
771.335	558.75
771.518	568.99
771.7	612
771.883	507.55
772.066	550.56
772.248	534.18
772.431	562.85
772.613	552.61
772.796	534.18
772.978	577.19
773.161	577.19
773.343	558.75
773.526	523.94
773.708	581.28
773.891	491.17
774.073	519.84
774.256	571.04
774.438	622.24
774.621	487.08
774.803	534.18
774.985	448.16
775.168	564.9
775.35	495.27
775.532	579.23
775.715	450.21
775.897	456.36
776.079	476.84
776.261	456.36
776.444	573.09
776.626	448.16
776.808	456.36
776.99	472.74
777.173	480.93
777.355	360.1
777.537	413.35
777.719	452.26
777.901	382.63
778.083	431.78
778.265	423.59
778.447	433.83
778.629	472.74
778.811	356.01
778.993	407.2
779.175	399.01
779.357	401.06
779.539	409.25
779.721	343.72
779.903	382.63
780.085	419.49
780.267	386.72
780.449	405.16
780.631	439.97
780.812	448.16
780.994	378.53
781.176	372.39
781.358	427.68
781.54	421.54
781.721	339.62
781.903	329.38
782.085	335.53
782.267	421.54
782.448	292.52
782.63	300.71
782.812	384.68
782.993	327.33
783.175	386.72
783.357	388.77
783.538	229.03
783.72	290.47
783.901	325.29
784.083	343.72
784.264	368.29
784.446	313
784.627	341.67
784.809	310.95
784.99	261.8
785.172	253.61
785.353	292.52
785.535	306.85
785.716	298.66
785.897	308.9
786.079	302.76
786.26	294.57
786.441	245.41
786.623	298.66
786.804	261.8
786.985	247.46
787.167	272.04
787.348	261.8
787.529	245.41
787.71	282.28
787.891	282.28
788.073	263.85
788.254	269.99
788.435	329.38
788.616	265.89
788.797	288.42
788.978	288.42
789.159	253.61
789.34	290.47
789.522	276.13
789.703	284.33
789.884	302.76
790.065	249.51
790.246	245.41
790.427	231.08
790.607	296.61
790.788	235.18
790.969	214.7
791.15	239.27
791.331	263.85
791.512	214.7
791.693	226.98
791.874	261.8
792.054	194.22
792.235	235.18
792.416	220.84
792.597	235.18
792.778	251.56
792.958	175.78
793.139	245.41
793.32	243.37
793.5	147.11
793.681	190.12
793.862	317.09
794.042	218.79
794.223	175.78
794.404	231.08
794.584	220.84
794.765	186.02
794.945	136.87
795.126	204.46
795.306	212.65
795.487	175.78
795.667	157.35
795.848	276.13
796.028	175.78
796.209	231.08
796.389	251.56
796.57	114.34
796.75	192.17
796.93	122.54
797.111	114.34
797.291	143.02
797.471	218.79
797.652	102.06
797.832	188.07
798.012	169.64
798.192	196.26
798.373	128.68
798.553	161.45
798.733	245.41
798.913	181.93
799.093	220.84
799.274	177.83
799.454	102.06
799.634	118.44
799.814	186.02
799.994	216.74
800.174	116.39
800.354	177.83
800.534	87.72
800.714	95.91
800.894	179.88
801.074	212.65
801.254	210.6
801.434	206.5
801.614	140.97
801.794	126.63
801.974	425.64
802.154	159.4
802.334	106.15
802.514	104.11
802.693	151.21
802.873	171.69
803.053	145.06
803.233	149.16
803.413	110.25
803.592	155.3
803.772	177.83
803.952	163.5
804.131	118.44
804.311	161.45
804.491	196.26
804.67	149.16
804.85	161.45
805.03	145.06
805.209	130.73
805.389	140.97
805.568	173.74
805.748	89.77
805.928	140.97
806.107	145.06
806.287	134.82
806.466	153.26
806.646	81.58
806.825	102.06
807.004	93.87
807.184	112.3
807.363	83.63
807.543	106.15
807.722	85.67
807.901	95.91
808.081	120.49
808.26	95.91
808.439	128.68
808.619	145.06
808.798	163.5
808.977	145.06
809.156	151.21
809.336	159.4
809.515	136.87
809.694	177.83
809.873	73.39
810.052	81.58
810.231	116.39
810.411	120.49
810.59	183.98
810.769	118.44
810.948	89.77
811.127	57
811.306	79.53
811.485	108.2
811.664	108.2
811.843	161.45
812.022	143.02
812.201	106.15
812.38	143.02
812.559	87.72
812.737	220.84
812.916	120.49
813.095	46.76
813.274	61.1
813.453	161.45
813.632	122.54
813.811	130.73
813.989	112.3
814.168	95.91
814.347	114.34
814.526	106.15
814.704	54.95
814.883	153.26
815.062	112.3
815.24	106.15
815.419	100.01
815.598	149.16
815.776	149.16
815.955	108.2
816.133	67.24
816.312	149.16
816.49	157.35
816.669	40.62
816.847	71.34
817.026	91.82
817.204	153.26
817.383	128.68
817.561	81.58
817.74	149.16
817.918	48.81
818.097	106.15
818.275	100.01
818.453	61.1
818.632	13.99
818.81	18.09
818.988	54.95
819.167	145.06
819.345	65.19
819.523	130.73
819.701	61.1
819.879	151.21
820.058	81.58
820.236	81.58
820.414	147.11
820.592	134.82
820.77	71.34
820.948	77.48
821.127	54.95
821.305	108.2
821.483	20.14
821.661	42.67
821.839	44.71
822.017	16.04
822.195	40.62
822.373	108.2
822.551	138.92
822.729	57
822.907	116.39
823.085	177.83
823.262	54.95
823.44	59.05
823.618	116.39
823.796	89.77
823.974	52.91
824.152	65.19
824.329	77.48
824.507	155.3
824.685	46.76
824.863	108.2
825.04	89.77
825.218	106.15
825.396	34.47
825.574	95.91
825.751	95.91
825.929	104.11
826.107	20.14
826.284	120.49
826.462	46.76
826.639	75.43
826.817	18.09
826.994	34.47
827.172	81.58
827.349	161.45
827.527	114.34
827.704	50.86
827.882	57
828.059	83.63
828.237	52.91
828.414	26.28
828.591	124.58
828.769	7.85
828.946	28.33
829.124	91.82
829.301	153.26
829.478	-10.58
829.655	61.1
829.833	59.05
830.01	91.82
830.187	71.34
830.364	110.25
830.542	102.06
830.719	40.62
830.896	95.91
831.073	40.62
831.25	89.77
831.427	44.71
831.604	42.67
831.782	16.04
831.959	59.05
832.136	24.23
832.313	95.91
832.49	89.77
832.667	106.15
832.844	83.63
833.021	50.86
833.198	46.76
833.374	5.8
833.551	-24.92
833.728	32.43
833.905	16.04
834.082	81.58
834.259	79.53
834.436	57
834.612	120.49
834.789	120.49
834.966	-10.58
835.143	114.34
835.319	63.15
835.496	97.96
835.673	85.67
835.85	11.95
836.026	-2.39
836.203	77.48
836.38	59.05
836.556	38.57
836.733	63.15
836.909	44.71
837.086	-14.68
837.262	46.76
837.439	26.28
837.616	28.33
837.792	7.85
837.968	-2.39
838.145	-6.49
838.321	-24.92
838.498	11.95
838.674	102.06
838.851	138.92
839.027	89.77
839.203	44.71
839.38	-37.2
839.556	26.28
839.732	71.34
839.909	44.71
840.085	9.9
840.261	50.86
840.437	46.76
840.614	3.75
840.79	138.92
840.966	46.76
841.142	5.8
841.318	-6.49
841.494	71.34
841.671	36.52
841.847	52.91
842.023	7.85
842.199	83.63
842.375	81.58
842.551	95.91
842.727	40.62
842.903	46.76
843.079	40.62
843.255	46.76
843.431	46.76
843.607	61.1
843.783	59.05
843.959	-12.63
844.134	61.1
844.31	63.15
844.486	32.43
844.662	5.8
844.838	71.34
845.013	30.38
845.189	-26.96
845.365	61.1
845.541	20.14
845.716	-6.49
845.892	-10.58
846.068	95.91
846.244	-4.44
846.419	32.43
846.595	28.33
846.77	-4.44
846.946	-12.63
847.122	-18.77
847.297	40.62
847.473	1.71
847.648	-12.63
847.824	61.1
847.999	79.53
848.175	79.53
848.35	34.47
848.526	30.38
848.701	44.71
848.876	28.33
849.052	-24.92
849.227	18.09
849.403	22.19
849.578	22.19
849.753	-16.73
849.929	61.1
850.104	63.15
850.279	11.95
850.454	73.39
850.63	28.33
850.805	3.75
850.98	5.8
851.155	13.99
851.33	22.19
851.505	38.57
851.681	46.76
851.856	24.23
852.031	34.47
852.206	16.04
852.381	34.47
852.556	-53.59
852.731	9.9
852.906	-6.49
853.081	-22.87
853.256	-43.35
853.431	28.33
853.606	59.05
853.781	-0.34
853.956	26.28
854.131	-18.77
854.305	-0.34
854.48	116.39
854.655	7.85
854.83	5.8
855.005	57
855.18	-20.82
855.354	13.99
855.529	20.14
855.704	50.86
855.879	65.19
856.053	30.38
856.228	91.82
856.403	16.04
856.577	54.95
856.752	61.1
856.926	38.57
857.101	-92.5
857.276	87.72
857.45	46.76
857.625	61.1
857.799	-12.63
857.974	32.43
858.148	57
858.323	-0.34
858.497	-31.06
858.672	59.05
858.846	22.19
859.02	-43.35
859.195	-12.63
859.369	9.9
859.543	24.23
859.718	22.19
859.892	28.33
860.066	-0.34
860.241	34.47
860.415	3.75
860.589	22.19
860.763	38.57
860.938	-4.44
861.112	-16.73
861.286	-10.58
861.46	26.28
861.634	18.09
861.808	57
861.982	-41.3
862.157	1.71
862.331	18.09
862.505	-78.16
862.679	7.85
862.853	-4.44
863.027	-8.53
863.201	65.19
863.375	13.99
863.549	48.81
863.722	22.19
863.896	-4.44
864.07	-6.49
864.244	-37.2
864.418	-69.97
864.592	-57.68
864.766	-0.34
864.939	-8.53
865.113	-53.59
865.287	-16.73
865.461	22.19
865.634	32.43
865.808	3.75
865.982	-18.77
866.156	42.67
866.329	13.99
866.503	-47.44
866.676	83.63
866.85	22.19
867.024	77.48
867.197	-33.11
867.371	18.09
867.544	-10.58
867.718	-29.01
867.891	24.23
868.065	-2.39
868.238	1.71
868.412	1.71
868.585	-43.35
868.759	54.95
868.932	-22.87
869.105	77.48
869.279	44.71
869.452	-18.77
869.625	-24.92
869.799	-2.39
869.972	24.23
870.145	-16.73
870.319	-4.44
870.492	46.76
870.665	-24.92
870.838	22.19
871.011	-6.49
871.185	42.67
871.358	-29.01
871.531	28.33
871.704	32.43
871.877	24.23
872.05	9.9
872.223	71.34
872.396	40.62
872.569	44.71
872.742	13.99
872.915	38.57
873.088	40.62
873.261	3.75
873.434	38.57
873.607	-10.58
873.78	75.43
873.953	63.15
874.126	50.86
874.299	24.23
874.471	-55.64
874.644	85.67
874.817	42.67
874.99	-24.92
875.163	-14.68
875.335	18.09
875.508	32.43
875.681	5.8
875.853	42.67
876.026	-51.54
876.199	-35.16
876.371	-16.73
876.544	16.04
876.717	-29.01
876.889	26.28
877.062	46.76
877.234	16.04
877.407	38.57
877.579	16.04
877.752	22.19
877.924	73.39
878.097	26.28
878.269	-57.68
878.442	40.62
878.614	-0.34
878.786	65.19
878.959	91.82
879.131	36.52
879.303	-0.34
879.476	16.04
879.648	59.05
879.82	7.85
879.993	-45.4
880.165	13.99
880.337	-37.2
880.509	24.23
880.681	-6.49
880.854	-26.96
881.026	28.33
881.198	11.95
881.37	-24.92
881.542	-6.49
881.714	-53.59
881.886	46.76
882.058	-22.87
882.23	79.53
882.402	18.09
882.574	42.67
882.746	22.19
882.918	-8.53
883.09	-18.77
883.262	-14.68
883.434	-14.68
883.606	-39.25
883.778	1.71
883.95	-24.92
884.122	-4.44
884.293	36.52
884.465	46.76
884.637	1.71
884.809	-0.34
884.98	13.99
885.152	-65.88
885.324	22.19
885.496	26.28
885.667	18.09
885.839	20.14
886.011	18.09
886.182	-33.11
886.354	77.48
886.525	32.43
886.697	-6.49
886.869	34.47
887.04	-49.49
887.212	20.14
887.383	46.76
887.555	-20.82
887.726	-24.92
887.897	-6.49
888.069	57
888.24	-20.82
888.412	63.15
888.583	-18.77
888.754	-31.06
888.926	11.95
889.097	-20.82
889.268	-61.78
889.44	-59.73
889.611	16.04
889.782	24.23
889.953	-86.36
890.125	22.19
890.296	-35.16
890.467	-43.35
890.638	-0.34
890.809	20.14
890.98	-26.96
891.151	-8.53
891.323	-47.44
891.494	61.1
891.665	50.86
891.836	-22.87
892.007	34.47
892.178	26.28
892.349	16.04
892.52	42.67
892.691	-2.39
892.862	28.33
893.032	5.8
893.203	-20.82
893.374	1.71
893.545	11.95
893.716	7.85
893.887	22.19
894.057	16.04
894.228	24.23
894.399	-16.73
894.57	5.8
894.74	-41.3
894.911	-29.01
895.082	-18.77
895.253	34.47
895.423	-8.53
895.594	79.53
895.764	28.33
895.935	71.34
896.106	-8.53
896.276	-24.92
896.447	-10.58
896.617	7.85
896.788	3.75
896.958	-57.68
897.129	-41.3
897.299	30.38
897.47	28.33
897.64	24.23
897.81	-20.82
897.981	16.04
898.151	9.9
898.322	-6.49
898.492	75.43
898.662	-69.97
898.832	42.67
899.003	-10.58
899.173	-49.49
899.343	22.19
899.513	59.05
