Data from USB4F104151__81__12-59-50-881.txt Node

Date: Fri Mar 14 12:59:50 EDT 2025
User: louis
Spectrometer: USB4F10415
Trigger mode: 4
Integration Time (sec): 1.000000E-2
Scans to average: 1
Electric dark correction enabled: true
Nonlinearity correction enabled: false
Boxcar width: 0
XAxis mode: Wavelengths
Number of Pixels in Spectrum: 3648
>>>>>Begin Spectral Data<<<<<
178.204	-41.3
178.424	-41.3
178.644	-41.3
178.864	-80.21
179.084	-47.44
179.304	-67.92
179.524	-18.77
179.744	-0.34
179.964	-20.82
180.184	-6.49
180.404	13.99
180.624	52.91
180.844	-10.58
181.064	3.75
181.283	67.24
181.503	7.85
181.723	-20.82
181.943	16.04
182.163	-6.49
182.383	32.43
182.602	7.85
182.822	50.86
183.042	34.47
183.262	89.77
183.482	11.95
183.701	83.63
183.921	48.81
184.141	20.14
184.361	-8.53
184.58	81.58
184.8	-4.44
185.02	-31.06
185.239	26.28
185.459	106.15
185.679	28.33
185.898	-12.63
186.118	9.9
186.338	9.9
186.557	13.99
186.777	16.04
186.997	40.62
187.216	-8.53
187.436	97.96
187.655	67.24
187.875	16.04
188.095	-20.82
188.314	89.77
188.534	24.23
188.753	-26.96
188.973	-4.44
189.192	61.1
189.412	26.28
189.631	16.04
189.851	-20.82
190.07	110.25
190.29	-33.11
190.509	-26.96
190.729	1.71
190.948	48.81
191.168	124.58
191.387	114.34
191.607	3.75
191.826	-4.44
192.045	-4.44
192.265	-2.39
192.484	46.76
192.704	-0.34
192.923	1.71
193.142	48.81
193.362	83.63
193.581	42.67
193.8	57
194.02	34.47
194.239	28.33
194.458	65.19
194.678	65.19
194.897	65.19
195.116	26.28
195.335	77.48
195.555	9.9
195.774	34.47
195.993	7.85
196.212	89.77
196.432	40.62
196.651	13.99
196.87	67.24
197.089	36.52
197.308	36.52
197.528	5.8
197.747	34.47
197.966	48.81
198.185	63.15
198.404	75.43
198.623	75.43
198.842	34.47
199.062	7.85
199.281	71.34
199.5	-24.92
199.719	26.28
199.938	32.43
200.157	110.25
200.376	-6.49
200.595	24.23
200.814	-2.39
201.033	118.44
201.252	44.71
201.471	97.96
201.69	93.87
201.909	67.24
202.128	26.28
202.347	-8.53
202.566	57
202.785	26.28
203.004	-39.25
203.223	81.58
203.442	-8.53
203.661	93.87
203.879	63.15
204.098	36.52
204.317	63.15
204.536	57
204.755	-16.73
204.974	95.91
205.193	20.14
205.411	24.23
205.63	65.19
205.849	38.57
206.068	83.63
206.287	48.81
206.505	28.33
206.724	59.05
206.943	44.71
207.162	7.85
207.381	46.76
207.599	18.09
207.818	-10.58
208.037	22.19
208.255	52.91
208.474	-2.39
208.693	-6.49
208.911	11.95
209.13	40.62
209.349	108.2
209.567	13.99
209.786	30.38
210.005	3.75
210.223	100.01
210.442	-0.34
210.661	38.57
210.879	77.48
211.098	18.09
211.316	24.23
211.535	-33.11
211.753	-24.92
211.972	7.85
212.191	-41.3
212.409	-24.92
212.628	57
212.846	28.33
213.065	9.9
213.283	69.29
213.502	100.01
213.72	-39.25
213.938	18.09
214.157	24.23
214.375	3.75
214.594	118.44
214.812	20.14
215.031	91.82
215.249	-22.87
215.467	69.29
215.686	-26.96
215.904	71.34
216.122	-18.77
216.341	73.39
216.559	-6.49
216.778	30.38
216.996	40.62
217.214	-0.34
217.432	18.09
217.651	65.19
217.869	63.15
218.087	-33.11
218.306	16.04
218.524	18.09
218.742	34.47
218.96	-33.11
219.179	-4.44
219.397	5.8
219.615	32.43
219.833	38.57
220.051	-2.39
220.27	95.91
220.488	18.09
220.706	57
220.924	46.76
221.142	38.57
221.36	40.62
221.578	-31.06
221.796	-51.54
222.015	38.57
222.233	20.14
222.451	-4.44
222.669	91.82
222.887	30.38
223.105	-0.34
223.323	81.58
223.541	48.81
223.759	93.87
223.977	34.47
224.195	22.19
224.413	54.95
224.631	7.85
224.849	-39.25
225.067	42.67
225.285	87.72
225.503	42.67
225.721	30.38
225.939	26.28
226.157	-20.82
226.375	61.1
226.592	30.38
226.81	32.43
227.028	44.71
227.246	54.95
227.464	83.63
227.682	-12.63
227.9	44.71
228.117	30.38
228.335	93.87
228.553	57
228.771	81.58
228.989	44.71
229.206	-2.39
229.424	46.76
229.642	-12.63
229.86	-0.34
230.077	81.58
230.295	38.57
230.513	7.85
230.731	-20.82
230.948	65.19
231.166	57
231.384	7.85
231.601	30.38
231.819	22.19
232.037	40.62
232.254	1.71
232.472	48.81
232.689	102.06
232.907	120.49
233.125	-14.68
233.342	18.09
233.56	-39.25
233.777	97.96
233.995	1.71
234.213	38.57
234.43	-12.63
234.648	145.06
234.865	40.62
235.083	-16.73
235.3	46.76
235.518	-29.01
235.735	44.71
235.953	48.81
236.17	20.14
236.388	100.01
236.605	34.47
236.822	40.62
237.04	59.05
237.257	32.43
237.475	-14.68
237.692	42.67
237.909	18.09
238.127	83.63
238.344	138.92
238.562	77.48
238.779	-57.68
238.996	83.63
239.214	44.71
239.431	57
239.648	81.58
239.865	-43.35
240.083	-12.63
240.3	57
240.517	71.34
240.735	65.19
240.952	-37.2
241.169	50.86
241.386	69.29
241.603	32.43
241.821	132.78
242.038	112.3
242.255	44.71
242.472	57
242.689	30.38
242.907	32.43
243.124	-39.25
243.341	-18.77
243.558	18.09
243.775	85.67
243.992	65.19
244.209	69.29
244.426	91.82
244.643	-2.39
244.86	44.71
245.078	79.53
245.295	22.19
245.512	7.85
245.729	13.99
245.946	34.47
246.163	-6.49
246.38	28.33
246.597	13.99
246.814	50.86
247.031	18.09
247.248	108.2
247.464	44.71
247.681	52.91
247.898	83.63
248.115	7.85
248.332	-26.96
248.549	73.39
248.766	-14.68
248.983	-22.87
249.2	3.75
249.417	18.09
249.633	-8.53
249.85	124.58
250.067	-12.63
250.284	75.43
250.501	77.48
250.717	59.05
250.934	-20.82
251.151	57
251.368	32.43
251.585	20.14
251.801	61.1
252.018	50.86
252.235	75.43
252.451	46.76
252.668	46.76
252.885	32.43
253.102	81.58
253.318	-29.01
253.535	52.91
253.752	83.63
253.968	38.57
254.185	83.63
254.401	44.71
254.618	44.71
254.835	42.67
255.051	44.71
255.268	42.67
255.484	93.87
255.701	44.71
255.917	32.43
256.134	26.28
256.351	75.43
256.567	-16.73
256.784	67.24
257	-31.06
257.217	30.38
257.433	46.76
257.65	87.72
257.866	63.15
258.082	-26.96
258.299	32.43
258.515	1.71
258.732	34.47
258.948	7.85
259.165	65.19
259.381	26.28
259.597	7.85
259.814	120.49
260.03	63.15
260.246	22.19
260.463	36.52
260.679	46.76
260.895	38.57
261.112	73.39
261.328	-29.01
261.544	30.38
261.761	77.48
261.977	46.76
262.193	54.95
262.409	-16.73
262.626	73.39
262.842	106.15
263.058	40.62
263.274	3.75
263.49	85.67
263.707	65.19
263.923	61.1
264.139	42.67
264.355	52.91
264.571	114.34
264.787	67.24
265.004	67.24
265.22	40.62
265.436	-22.87
265.652	-4.44
265.868	40.62
266.084	50.86
266.3	91.82
266.516	26.28
266.732	67.24
266.948	85.67
267.164	-69.97
267.38	52.91
267.596	102.06
267.812	-4.44
268.028	32.43
268.244	16.04
268.46	97.96
268.676	-26.96
268.892	42.67
269.108	42.67
269.324	44.71
269.54	48.81
269.756	118.44
269.972	16.04
270.188	93.87
270.403	112.3
270.619	77.48
270.835	40.62
271.051	61.1
271.267	77.48
271.483	73.39
271.698	-12.63
271.914	-22.87
272.13	59.05
272.346	81.58
272.562	-37.2
272.777	83.63
272.993	11.95
273.209	-12.63
273.425	-8.53
273.64	83.63
273.856	11.95
274.072	52.91
274.287	77.48
274.503	85.67
274.719	18.09
274.934	-37.2
275.15	16.04
275.366	44.71
275.581	48.81
275.797	67.24
276.012	11.95
276.228	-12.63
276.444	3.75
276.659	91.82
276.875	24.23
277.09	42.67
277.306	48.81
277.521	102.06
277.737	57
277.952	59.05
278.168	18.09
278.383	40.62
278.599	-0.34
278.814	36.52
279.03	11.95
279.245	48.81
279.461	-29.01
279.676	67.24
279.892	59.05
280.107	44.71
280.322	32.43
280.538	149.16
280.753	-16.73
280.969	89.77
281.184	20.14
281.399	30.38
281.615	20.14
281.83	40.62
282.045	-4.44
282.26	9.9
282.476	61.1
282.691	75.43
282.906	5.8
283.122	18.09
283.337	26.28
283.552	34.47
283.767	52.91
283.983	54.95
284.198	5.8
284.413	67.24
284.628	24.23
284.843	67.24
285.058	34.47
285.274	46.76
285.489	46.76
285.704	3.75
285.919	46.76
286.134	26.28
286.349	65.19
286.564	46.76
286.779	-6.49
286.995	32.43
287.21	24.23
287.425	18.09
287.64	57
287.855	57
288.07	-2.39
288.285	97.96
288.5	63.15
288.715	61.1
288.93	-2.39
289.145	-10.58
289.36	73.39
289.575	9.9
289.79	16.04
290.004	52.91
290.219	59.05
290.434	1.71
290.649	7.85
290.864	73.39
291.079	112.3
291.294	83.63
291.509	34.47
291.724	-12.63
291.938	54.95
292.153	61.1
292.368	67.24
292.583	-20.82
292.798	50.86
293.012	40.62
293.227	77.48
293.442	18.09
293.657	9.9
293.871	65.19
294.086	9.9
294.301	26.28
294.516	-20.82
294.73	40.62
294.945	-24.92
295.16	50.86
295.374	71.34
295.589	73.39
295.804	67.24
296.018	38.57
296.233	50.86
296.447	44.71
296.662	57
296.877	52.91
297.091	28.33
297.306	26.28
297.52	18.09
297.735	34.47
297.949	46.76
298.164	7.85
298.378	34.47
298.593	34.47
298.807	40.62
299.022	-8.53
299.236	165.54
299.451	50.86
299.665	-18.77
299.88	36.52
300.094	-4.44
300.309	-6.49
300.523	38.57
300.737	-6.49
300.952	-2.39
301.166	54.95
301.381	147.11
301.595	32.43
301.809	93.87
302.024	89.77
302.238	50.86
302.452	-4.44
302.667	1.71
302.881	81.58
303.095	40.62
303.309	48.81
303.524	24.23
303.738	20.14
303.952	83.63
304.166	83.63
304.381	34.47
304.595	42.67
304.809	93.87
305.023	36.52
305.237	54.95
305.452	-41.3
305.666	-53.59
305.88	59.05
306.094	85.67
306.308	87.72
306.522	26.28
306.736	110.25
306.95	87.72
307.164	57
307.379	-0.34
307.593	18.09
307.807	-14.68
308.021	87.72
308.235	89.77
308.449	87.72
308.663	13.99
308.877	3.75
309.091	40.62
309.305	28.33
309.519	20.14
309.733	57
309.947	1.71
310.161	-0.34
310.374	32.43
310.588	104.11
310.802	87.72
311.016	24.23
311.23	69.29
311.444	40.62
311.658	73.39
311.872	11.95
312.085	34.47
312.299	79.53
312.513	32.43
312.727	44.71
312.941	61.1
313.154	22.19
313.368	18.09
313.582	30.38
313.796	-18.77
314.009	87.72
314.223	57
314.437	9.9
314.651	-0.34
314.864	18.09
315.078	1.71
315.292	61.1
315.505	95.91
315.719	-31.06
315.933	42.67
316.146	91.82
316.36	-16.73
316.573	-6.49
316.787	110.25
317.001	42.67
317.214	106.15
317.428	100.01
317.641	32.43
317.855	65.19
318.068	61.1
318.282	89.77
318.495	77.48
318.709	69.29
318.922	40.62
319.136	167.59
319.349	93.87
319.563	75.43
319.776	54.95
319.99	81.58
320.203	24.23
320.417	26.28
320.63	69.29
320.843	46.76
321.057	102.06
321.27	73.39
321.483	13.99
321.697	91.82
321.91	28.33
322.124	118.44
322.337	34.47
322.55	69.29
322.763	124.58
322.977	44.71
323.19	42.67
323.403	67.24
323.617	34.47
323.83	36.52
324.043	7.85
324.256	38.57
324.469	34.47
324.683	36.52
324.896	73.39
325.109	89.77
325.322	-22.87
325.535	36.52
325.748	61.1
325.962	48.81
326.175	104.11
326.388	38.57
326.601	128.68
326.814	65.19
327.027	-10.58
327.24	18.09
327.453	95.91
327.666	40.62
327.879	5.8
328.092	7.85
328.305	83.63
328.518	93.87
328.731	77.48
328.944	61.1
329.157	24.23
329.37	61.1
329.583	20.14
329.796	57
330.009	7.85
330.222	48.81
330.435	-41.3
330.648	16.04
330.861	40.62
331.073	50.86
331.286	9.9
331.499	75.43
331.712	40.62
331.925	36.52
332.138	7.85
332.35	30.38
332.563	26.28
332.776	-6.49
332.989	-20.82
333.202	32.43
333.414	-18.77
333.627	89.77
333.84	-4.44
334.053	-55.64
334.265	9.9
334.478	36.52
334.691	9.9
334.903	48.81
335.116	-37.2
335.329	100.01
335.541	48.81
335.754	69.29
335.966	-18.77
336.179	-24.92
336.392	65.19
336.604	102.06
336.817	128.68
337.029	-10.58
337.242	61.1
337.454	40.62
337.667	42.67
337.88	71.34
338.092	50.86
338.305	75.43
338.517	69.29
338.729	91.82
338.942	-18.77
339.154	36.52
339.367	18.09
339.579	34.47
339.792	52.91
340.004	83.63
340.217	63.15
340.429	102.06
340.641	28.33
340.854	36.52
341.066	89.77
341.278	28.33
341.491	97.96
341.703	69.29
341.915	5.8
342.128	95.91
342.34	44.71
342.552	26.28
342.764	11.95
342.977	69.29
343.189	-12.63
343.401	11.95
343.613	50.86
343.826	48.81
344.038	-2.39
344.25	59.05
344.462	1.71
344.674	22.19
344.886	46.76
345.099	13.99
345.311	-8.53
345.523	1.71
345.735	3.75
345.947	32.43
346.159	79.53
346.371	65.19
346.583	26.28
346.795	122.54
347.007	32.43
347.219	7.85
347.431	65.19
347.643	36.52
347.855	-14.68
348.067	122.54
348.279	16.04
348.491	85.67
348.703	-53.59
348.915	40.62
349.127	36.52
349.339	116.39
349.551	110.25
349.763	32.43
349.975	5.8
350.187	128.68
350.399	-10.58
350.61	44.71
350.822	38.57
351.034	89.77
351.246	54.95
351.458	11.95
351.669	-20.82
351.881	42.67
352.093	42.67
352.305	87.72
352.517	73.39
352.728	7.85
352.94	5.8
353.152	85.67
353.363	34.47
353.575	-6.49
353.787	77.48
353.999	11.95
354.21	44.71
354.422	32.43
354.633	-35.16
354.845	24.23
355.057	34.47
355.268	-18.77
355.48	44.71
355.692	108.2
355.903	67.24
356.115	7.85
356.326	83.63
356.538	48.81
356.749	38.57
356.961	20.14
357.172	-0.34
357.384	57
357.595	110.25
357.807	-12.63
358.018	32.43
358.23	116.39
358.441	77.48
358.653	40.62
358.864	50.86
359.075	83.63
359.287	32.43
359.498	69.29
359.709	52.91
359.921	102.06
360.132	69.29
360.344	11.95
360.555	38.57
360.766	32.43
360.977	3.75
361.189	69.29
361.4	7.85
361.611	52.91
361.823	34.47
362.034	128.68
362.245	13.99
362.456	13.99
362.667	59.05
362.879	57
363.09	-22.87
363.301	104.11
363.512	32.43
363.723	118.44
363.935	44.71
364.146	89.77
364.357	-2.39
364.568	57
364.779	65.19
364.99	124.58
365.201	61.1
365.412	75.43
365.623	18.09
365.834	104.11
366.045	-20.82
366.256	16.04
366.467	7.85
366.678	104.11
366.889	1.71
367.1	61.1
367.311	30.38
367.522	7.85
367.733	52.91
367.944	-18.77
368.155	36.52
368.366	67.24
368.577	97.96
368.788	22.19
368.999	79.53
369.209	-10.58
369.42	30.38
369.631	95.91
369.842	1.71
370.053	7.85
370.264	81.58
370.474	59.05
370.685	-26.96
370.896	91.82
371.107	67.24
371.317	71.34
371.528	-20.82
371.739	52.91
371.95	54.95
372.16	32.43
372.371	48.81
372.582	-4.44
372.792	95.91
373.003	89.77
373.214	97.96
373.424	40.62
373.635	48.81
373.846	112.3
374.056	54.95
374.267	30.38
374.477	40.62
374.688	69.29
374.898	65.19
375.109	100.01
375.319	-0.34
375.53	36.52
375.74	42.67
375.951	30.38
376.161	-35.16
376.372	38.57
376.582	-0.34
376.793	-8.53
377.003	50.86
377.214	108.2
377.424	36.52
377.635	61.1
377.845	-4.44
378.055	42.67
378.266	61.1
378.476	-0.34
378.686	65.19
378.897	89.77
379.107	-33.11
379.317	-16.73
379.528	42.67
379.738	44.71
379.948	20.14
380.158	50.86
380.369	63.15
380.579	75.43
380.789	38.57
380.999	59.05
381.21	13.99
381.42	63.15
381.63	61.1
381.84	32.43
382.05	-12.63
382.261	46.76
382.471	16.04
382.681	7.85
382.891	-20.82
383.101	40.62
383.311	79.53
383.521	67.24
383.731	-2.39
383.941	59.05
384.151	-59.73
384.361	59.05
384.571	71.34
384.781	11.95
384.991	-20.82
385.201	75.43
385.411	5.8
385.621	87.72
385.831	110.25
386.041	73.39
386.251	7.85
386.461	89.77
386.671	50.86
386.881	102.06
387.091	32.43
387.301	54.95
387.511	40.62
387.72	63.15
387.93	75.43
388.14	34.47
388.35	54.95
388.56	52.91
388.769	48.81
388.979	-16.73
389.189	34.47
389.399	65.19
389.609	59.05
389.818	-0.34
390.028	-45.4
390.238	40.62
390.447	93.87
390.657	44.71
390.867	18.09
391.076	7.85
391.286	38.57
391.496	171.69
391.705	77.48
391.915	79.53
392.125	3.75
392.334	26.28
392.544	73.39
392.753	40.62
392.963	65.19
393.172	42.67
393.382	32.43
393.591	75.43
393.801	34.47
394.01	85.67
394.22	63.15
394.429	102.06
394.639	34.47
394.848	91.82
395.058	75.43
395.267	18.09
395.477	77.48
395.686	57
395.895	116.39
396.105	116.39
396.314	120.49
396.524	177.83
396.733	79.53
396.942	44.71
397.152	48.81
397.361	77.48
397.57	77.48
397.78	59.05
397.989	87.72
398.198	59.05
398.407	26.28
398.617	91.82
398.826	52.91
399.035	110.25
399.244	42.67
399.453	24.23
399.663	42.67
399.872	126.63
400.081	22.19
400.29	100.01
400.499	65.19
400.708	100.01
400.917	59.05
401.127	79.53
401.336	110.25
401.545	79.53
401.754	95.91
401.963	100.01
402.172	95.91
402.381	67.24
402.59	97.96
402.799	85.67
403.008	65.19
403.217	114.34
403.426	-16.73
403.635	81.58
403.844	91.82
404.053	67.24
404.262	26.28
404.471	61.1
404.68	44.71
404.888	118.44
405.097	38.57
405.306	48.81
405.515	95.91
405.724	52.91
405.933	104.11
406.142	36.52
406.35	124.58
406.559	100.01
406.768	65.19
406.977	177.83
407.185	130.73
407.394	79.53
407.603	20.14
407.812	186.02
408.02	138.92
408.229	116.39
408.438	169.64
408.646	128.68
408.855	132.78
409.064	106.15
409.272	200.36
409.481	188.07
409.69	134.82
409.898	136.87
410.107	192.17
410.315	165.54
410.524	159.4
410.733	188.07
410.941	122.54
411.15	159.4
411.358	167.59
411.567	198.31
411.775	247.46
411.984	196.26
412.192	177.83
412.401	278.18
412.609	196.26
412.818	286.37
413.026	253.61
413.234	249.51
413.443	241.32
413.651	241.32
413.86	263.85
414.068	315.05
414.276	243.37
414.485	245.41
414.693	308.9
414.901	337.57
415.11	296.61
415.318	267.94
415.526	317.09
415.734	286.37
415.943	317.09
416.151	435.88
416.359	370.34
416.567	411.3
416.776	376.48
416.984	495.27
417.192	392.87
417.4	403.11
417.608	485.03
417.817	425.64
418.025	503.46
418.233	550.56
418.441	388.77
418.649	532.13
418.857	581.28
419.065	528.03
419.273	591.52
419.481	620.19
419.689	609.95
419.897	659.1
420.105	702.11
420.313	708.26
420.521	700.06
420.729	706.21
420.937	693.92
421.145	882.33
421.353	831.13
421.561	837.28
421.769	847.52
421.977	837.28
422.185	847.52
422.393	956.06
422.601	1050.27
422.809	994.97
423.017	958.11
423.224	958.11
423.432	1160.86
423.64	1113.75
423.848	1072.79
424.056	1132.19
424.263	1175.19
424.471	1332.89
424.679	1214.1
424.887	1359.51
425.094	1306.26
425.302	1474.2
425.51	1390.23
425.718	1492.63
425.925	1398.42
426.133	1552.02
426.341	1603.22
426.548	1556.11
426.756	1607.31
426.964	1674.9
427.171	1779.34
427.379	1879.69
427.586	1820.3
427.794	1787.54
428.001	2078.35
428.209	2057.87
428.417	1963.66
428.624	2201.23
428.832	2160.27
429.039	2164.36
429.247	2086.54
429.454	2371.21
429.662	2571.91
429.869	2320.01
430.076	2565.76
430.284	2383.49
430.491	2649.73
430.699	2678.4
430.906	2674.31
431.114	2801.28
431.321	2858.62
431.528	2983.55
431.736	3165.82
431.943	3233.4
432.15	3120.76
432.358	3008.12
432.565	3473.01
432.772	3276.41
432.979	3509.88
433.187	3638.9
433.394	3599.99
433.601	3880.56
433.808	3862.13
434.016	3718.77
434.223	4075.12
434.43	4374.12
434.637	4087.4
434.844	4374.12
435.052	4607.59
435.259	4458.09
435.466	4441.7
435.673	4453.99
435.88	4652.64
436.087	5004.89
436.294	5068.38
436.501	4904.54
436.708	5043.81
436.915	5078.62
437.122	5236.31
437.329	5316.19
437.537	5570.13
437.743	5643.86
437.95	5559.89
438.157	5936.72
438.364	6055.5
438.571	6061.65
438.778	6198.86
438.985	6805.06
439.192	6491.72
439.399	6557.25
439.606	6567.49
439.813	6981.18
440.02	7218.75
440.227	7327.29
440.433	7042.62
440.64	7353.91
440.847	7306.81
441.054	7466.55
441.261	7824.95
441.467	7833.14
441.674	7884.34
441.881	8232.49
442.088	8363.56
442.294	8209.97
442.501	8281.64
442.708	8635.94
442.914	9018.91
443.121	9197.09
443.328	8906.27
443.534	9727.51
443.741	9514.52
443.948	9166.37
444.154	10104.34
444.361	9758.23
444.568	10114.58
444.774	9946.64
444.981	10159.63
445.187	10415.63
445.394	10833.41
445.6	10681.86
445.807	11929.08
446.013	11154.94
446.22	11509.24
446.426	12074.48
446.633	12185.07
446.839	12496.36
447.046	12006.9
447.252	12541.42
447.459	12643.82
447.665	12727.78
447.871	12996.07
448.078	13827.54
448.284	13245.92
448.491	13434.33
448.697	14130.64
448.903	14331.34
449.11	14384.59
449.316	13929.94
449.522	14171.6
449.728	14841.29
449.935	14867.91
450.141	14812.62
450.347	15179.2
450.553	14833.1
450.76	15119.81
450.966	15418.82
451.172	15384
451.378	15508.93
451.584	15523.26
451.791	15779.26
451.997	15715.77
452.203	15984.05
452.409	15973.81
452.615	15979.96
452.821	15445.44
453.027	15224.26
453.233	16008.63
453.44	15494.59
453.646	15611.32
453.852	15662.52
454.058	15898.04
454.264	15545.79
454.47	15945.14
454.676	15285.7
454.882	16090.55
455.088	14634.44
455.294	14738.89
455.5	15107.52
455.705	15254.98
455.911	14521.81
456.117	14409.17
456.323	14208.47
456.529	13485.53
456.735	13868.5
456.941	13749.72
457.147	13469.15
457.352	12840.42
457.558	12879.33
457.764	13059.56
457.97	12623.34
458.176	12340.72
458.381	12377.58
458.587	11757.05
458.793	11877.88
458.999	11032.07
459.204	12148.21
459.41	11730.42
459.616	10941.96
459.821	10862.08
460.027	11009.54
460.233	10739.21
460.438	10190.35
460.644	10202.64
460.85	9930.26
461.055	9637.4
461.261	9627.16
461.466	8920.61
461.672	8625.7
461.878	9061.92
462.083	8599.08
462.289	8515.11
462.494	8351.28
462.7	8099.38
462.905	7870
463.111	8101.42
463.316	8042.03
463.522	7872.05
463.727	8005.17
463.932	7970.35
464.138	7755.32
464.343	7806.52
464.549	7544.38
464.754	7798.32
464.959	7765.56
465.165	7962.16
465.37	7421.5
465.575	7163.45
465.781	7599.67
465.986	7775.8
466.191	7353.91
466.397	7128.64
466.602	6903.36
466.807	7104.06
467.012	7200.32
467.218	7079.49
467.423	7040.58
467.628	7030.34
467.833	7347.77
468.038	7061.05
468.244	6815.3
468.449	7255.61
468.654	6835.78
468.859	6991.42
469.064	6948.42
469.269	6526.54
469.474	6655.56
469.679	6772.29
469.885	6450.76
470.09	6749.76
470.295	6530.63
470.5	6381.13
470.705	6518.34
470.91	6430.28
471.115	6221.39
471.32	6350.41
471.525	6471.24
471.73	6225.48
471.935	6180.43
472.139	6028.88
472.344	6061.65
472.549	5996.11
472.754	6008.4
472.959	5848.66
473.164	5744.21
473.369	5598.81
473.574	5854.8
473.778	5705.3
473.983	5766.74
474.188	5578.33
474.393	5342.81
474.598	5391.96
474.802	5484.12
475.007	5291.61
475.212	5467.74
475.417	5340.76
475.621	5226.07
475.826	5195.36
476.031	5015.13
476.235	5097.05
476.44	5203.55
476.645	4947.55
476.849	5041.76
477.054	4888.16
477.259	4865.63
477.463	4861.54
477.668	4763.23
477.872	4953.7
478.077	4605.54
478.282	4513.38
478.486	4576.87
478.691	4482.66
478.895	4554.34
479.1	4548.2
479.304	4464.23
479.509	4449.89
479.713	4562.53
479.918	4345.45
480.122	4406.89
480.326	4564.58
480.531	4488.81
480.735	4408.94
480.94	4341.35
481.144	4456.04
481.348	4210.28
481.553	4224.62
481.757	4243.05
481.961	4171.37
482.166	4419.18
482.37	4253.29
482.574	4128.36
482.778	4292.2
482.983	4304.49
483.187	4257.39
483.391	4290.15
483.595	4232.81
483.8	4300.39
484.004	4296.3
484.208	4230.76
484.412	4374.12
484.616	4200.04
484.821	4312.68
485.025	4103.79
485.229	4208.23
485.433	4087.4
485.637	4271.72
485.841	4249.19
486.045	4335.21
486.249	4140.65
486.453	4286.06
486.657	4185.71
486.861	4499.05
487.065	4157.04
487.269	4359.78
487.473	4255.34
487.677	4281.96
487.881	4284.01
488.085	4355.69
488.289	4144.75
488.493	4212.33
488.697	4193.9
488.901	4300.39
489.105	4253.29
489.309	4296.3
489.512	4329.06
489.716	4263.53
489.92	4259.43
490.124	4394.6
490.328	4439.65
490.531	4343.4
490.735	4269.67
490.939	4490.85
491.143	4341.35
491.346	4370.02
491.55	4525.67
491.754	4386.41
491.958	4517.48
492.161	4589.16
492.365	4453.99
492.569	4425.32
492.772	4453.99
492.976	4707.94
493.18	4626.02
493.383	4685.41
493.587	4607.59
493.79	4781.67
493.994	4580.96
494.197	4806.24
494.401	4791.91
494.605	4707.94
494.808	4767.33
495.012	4941.41
495.215	4857.44
495.419	4978.27
495.622	5002.85
495.825	5041.76
496.029	5037.66
496.232	5107.29
496.436	5138.01
496.639	5299.8
496.843	5146.2
497.046	5305.95
497.249	5408.34
497.453	5459.54
497.656	5580.37
497.859	5422.68
498.063	5625.43
498.266	5785.17
498.469	5758.55
498.673	5727.83
498.876	5785.17
499.079	5781.07
499.282	5824.08
499.485	6059.6
499.689	5944.91
499.892	6137.42
500.095	6209.1
500.298	6438.47
500.501	6143.56
500.705	6663.75
500.908	6483.53
501.111	6725.19
501.314	6823.49
501.517	6594.12
501.72	6856.26
501.923	6747.72
502.126	6850.11
502.329	7083.58
502.532	7280.19
502.735	7274.04
502.938	7474.74
503.141	7407.16
503.344	7577.14
503.547	7489.08
503.75	7632.44
503.953	7833.14
504.156	7839.28
504.359	7968.31
504.562	7960.11
504.765	8226.35
504.968	8386.09
505.17	8343.08
505.373	8429.1
505.576	8568.36
505.779	8795.68
505.982	8793.64
506.185	8756.77
506.387	8883.75
506.59	9045.54
506.793	9219.61
506.996	9215.52
507.198	9508.38
507.401	9260.57
507.604	9524.76
507.807	9532.95
508.009	9842.2
508.212	9922.07
508.415	9836.05
508.617	9989.65
508.82	10165.78
509.022	10061.33
509.225	10288.65
509.428	10503.69
509.63	10610.18
509.833	10544.65
510.035	10919.43
510.238	10745.35
510.44	11163.14
510.643	11023.87
510.845	11296.25
511.048	11257.34
511.25	11638.27
511.453	11482.62
511.655	12058.1
511.858	12051.95
512.06	11945.46
512.262	12027.38
512.465	12142.07
512.667	12293.62
512.87	12543.47
513.072	12537.32
513.274	12803.56
513.477	13139.43
513.679	12850.66
513.881	13276.64
514.084	13407.71
514.286	13385.18
514.488	13503.96
514.69	13891.03
514.893	13790.68
515.095	13780.44
515.297	14241.23
515.499	14015.96
515.701	14378.45
515.904	14757.32
516.106	14689.74
516.308	14738.89
516.51	14912.97
516.712	15109.57
516.914	15300.03
517.116	15502.78
517.318	15443.39
517.52	15521.21
517.722	15814.07
517.925	16047.54
518.127	16197.04
518.329	16174.52
518.531	16268.72
518.733	16518.57
518.935	16756.14
519.136	16688.56
519.338	16926.12
519.54	17221.03
519.742	17225.12
519.944	17132.97
520.146	17786.27
520.348	17722.78
520.55	17913.24
520.752	17935.77
520.954	18331.03
521.155	18126.23
521.357	18369.94
521.559	18765.2
521.761	18976.14
521.963	18693.52
522.164	18939.27
522.366	18941.32
522.568	19033.48
522.77	19338.63
522.971	19727.74
523.173	19518.85
523.375	19518.85
523.576	19621.25
523.778	20075.9
523.98	20145.53
524.181	20127.1
524.383	20096.38
524.584	20313.46
524.786	20651.38
524.988	20432.24
525.189	20739.44
525.391	21130.6
525.592	21269.86
525.794	20934
525.995	21026.15
526.197	21108.07
526.398	21001.58
526.6	21243.24
526.801	21476.71
527.003	21558.63
527.204	21607.78
527.406	21974.36
527.607	21804.38
527.808	21964.12
528.01	21691.74
528.211	22148.44
528.412	22367.57
528.614	21904.73
528.815	22283.61
529.016	22564.18
529.218	22275.41
529.419	22515.03
529.62	22181.21
529.822	22252.89
530.023	22437.2
530.224	22576.47
530.425	22158.68
530.626	22605.14
530.828	22340.95
531.029	23057.74
531.23	22555.99
531.431	22744.4
531.632	22932.81
531.833	22979.92
532.035	23043.4
532.236	22877.52
532.437	22789.45
532.638	22715.73
532.839	23014.73
533.04	23053.64
533.241	22783.31
533.442	23278.92
533.643	23065.93
533.844	23098.7
534.045	23020.88
534.246	22941
534.447	23289.16
534.648	22990.16
534.849	23080.27
535.05	23067.98
535.251	22873.42
535.451	22988.11
535.652	23086.41
535.853	23278.92
536.054	23258.44
536.255	23141.71
536.456	23070.03
536.657	23569.73
536.857	23051.59
537.058	23426.37
537.259	23143.75
537.46	22955.34
537.66	23383.37
537.861	22967.63
538.062	23067.98
538.263	23303.5
538.463	22988.11
538.664	23383.37
538.865	23309.64
539.065	23446.85
539.266	22908.24
539.466	23332.17
539.667	22984.01
539.868	23629.12
540.068	23612.74
540.269	22996.3
540.469	23362.89
540.67	22932.81
540.87	23508.29
541.071	23094.6
541.271	23604.55
541.472	23067.98
541.672	22791.5
541.873	22914.38
542.073	22973.77
542.274	23387.46
542.474	23264.58
542.675	23090.51
542.875	23321.93
543.075	23315.78
543.276	23149.9
543.476	23432.52
543.676	22932.81
543.877	23153.99
544.077	23256.39
544.277	23172.43
544.478	23172.43
544.678	23469.38
544.878	23264.58
545.078	23403.85
545.279	23129.42
545.479	23137.61
545.679	23209.29
545.879	23035.21
546.079	23280.97
546.28	22830.41
546.48	22984.01
546.68	22875.47
546.88	23334.21
547.08	22912.33
547.28	23092.55
547.48	22930.76
547.68	23008.59
547.88	23020.88
548.081	23213.38
548.281	23178.57
548.481	22953.29
548.681	23229.77
548.881	23178.57
549.081	22926.67
549.28	22990.16
549.48	22947.15
549.68	23033.16
549.88	23227.72
550.08	22754.64
550.28	23020.88
550.48	22963.53
550.68	23153.99
550.88	22672.72
551.08	22736.21
551.279	23037.26
551.479	22920.52
551.679	22963.53
551.879	22854.99
552.079	23201.1
552.278	22762.83
552.478	22926.67
552.678	23119.18
552.878	22869.33
553.077	22668.62
553.277	22828.37
553.477	22920.52
553.676	22687.06
553.876	23072.07
554.076	22744.4
554.275	23084.36
554.475	22697.3
554.674	22824.27
554.874	22922.57
555.074	22650.19
555.273	23041.36
555.473	22811.98
555.672	22488.4
555.872	22646.1
556.071	22701.39
556.271	22887.76
556.47	22664.53
556.67	22725.97
556.869	22521.17
557.068	22695.25
557.268	22637.91
557.467	22510.93
557.667	22803.79
557.866	22762.83
558.065	22515.03
558.265	22162.78
558.464	22160.73
558.663	22603.09
558.863	22336.85
559.062	22697.3
559.261	22299.99
559.461	22465.88
559.66	22011.23
559.859	22349.14
560.058	22328.66
560.258	22166.87
560.457	22095.19
560.656	22267.22
560.855	22058.33
561.054	22261.08
561.253	21978.46
561.453	22181.21
561.652	21822.81
561.851	22142.3
562.05	22056.28
562.249	21751.13
562.448	22166.87
562.647	21988.7
562.846	21835.1
563.045	21765.47
563.244	21534.05
563.443	21867.87
563.642	21476.71
563.841	21753.18
564.04	21706.08
564.239	21611.87
564.438	21587.3
564.637	21597.54
564.836	21611.87
565.035	21167.46
565.234	21405.03
565.432	21513.57
565.631	21341.54
565.83	21378.4
566.029	21347.68
566.228	21388.64
566.427	21204.33
566.625	21003.63
566.824	20972.91
567.023	21292.39
567.222	20786.54
567.42	21206.38
567.619	21112.17
567.818	20819.31
568.016	20772.21
568.215	20862.32
568.414	20909.42
568.612	20944.24
568.811	20712.81
569.01	20630.9
569.208	20598.13
569.407	20737.39
569.605	20422
569.804	20583.79
570.002	20356.47
570.201	20551.03
570.4	20399.48
570.598	20225.4
570.797	20006.27
570.995	20323.7
571.193	19756.41
571.392	20303.22
571.59	20036.98
571.789	20057.46
571.987	19963.26
572.186	20073.85
572.384	19971.45
572.582	20026.75
572.781	20049.27
572.979	19385.73
573.177	19637.63
573.376	19897.72
573.574	19623.3
573.772	19658.11
573.971	19619.2
574.169	19307.91
574.367	19273.09
574.565	19238.28
574.763	19383.68
574.962	19090.82
575.16	19008.9
575.358	19117.45
575.556	19139.97
575.754	19260.8
575.952	18910.6
576.151	19113.35
576.349	18642.32
576.547	18947.47
576.745	18716.05
576.943	18847.12
577.141	18875.79
577.339	18806.16
577.537	18607.5
577.735	18763.15
577.933	18711.95
578.131	18406.8
578.329	18210.2
578.527	18144.66
578.725	18603.41
578.923	18314.64
579.121	18042.26
579.319	18159
579.516	18267.54
579.714	18107.8
579.912	18036.12
580.11	18085.27
580.308	17966.49
580.506	17882.52
580.704	17786.27
580.901	17929.63
581.099	17915.29
581.297	17857.95
581.495	17423.78
581.692	17833.37
581.89	17495.46
582.088	17489.31
582.285	17550.75
582.483	17788.32
582.681	17524.13
582.878	17495.46
583.076	17374.63
583.274	17434.02
583.471	17188.26
583.669	17194.4
583.866	17071.53
584.064	17149.35
584.262	17063.33
584.459	17155.49
584.657	16979.37
584.854	17124.77
585.052	16909.74
585.249	17022.37
585.447	16938.41
585.644	16358.83
585.841	16766.38
586.039	16999.85
586.236	16651.69
586.434	16770.47
586.631	16440.75
586.828	16735.66
587.026	16590.25
587.223	16326.07
587.42	16244.15
587.618	16238
587.815	16082.36
588.012	16289.2
588.21	16285.11
588.407	16342.45
588.604	16244.15
588.801	16039.35
588.999	15857.08
589.196	16055.73
589.393	16010.68
589.59	15586.75
589.787	15721.91
589.984	15721.91
590.182	15936.95
590.379	16006.58
590.576	15568.32
590.773	15863.22
590.97	15529.41
591.167	15732.15
591.364	15277.51
591.561	15367.62
591.758	15371.71
591.955	15244.74
592.152	15537.6
592.349	15222.21
592.546	15275.46
592.743	15082.95
592.94	15093.19
593.137	15285.7
593.334	15160.77
593.531	14751.18
593.727	15207.87
593.924	15097.28
594.121	14824.9
594.318	14892.49
594.515	14826.95
594.712	14925.25
594.908	14642.64
595.105	14904.78
595.302	14562.76
595.499	14556.62
595.696	14661.07
595.892	14638.54
596.089	14427.6
596.286	14570.96
596.482	14458.32
596.679	14292.43
596.876	14656.97
597.072	14339.54
597.269	14169.55
597.466	14339.54
597.662	14206.42
597.859	14124.5
598.055	14106.07
598.252	14235.09
598.448	14382.54
598.645	14085.59
598.841	14028.24
599.038	13917.65
599.234	13684.19
599.431	13747.67
599.627	13858.26
599.824	13997.53
600.02	13587.93
600.217	13835.74
600.413	13561.31
600.609	13538.78
600.806	13467.1
601.002	13493.72
601.198	13467.1
601.395	13641.18
601.591	13174.24
601.787	13460.96
601.984	13147.62
602.18	13475.29
602.376	13227.49
602.572	12908.01
602.769	13362.65
602.965	13149.67
603.161	13157.86
603.357	12983.78
603.553	12961.25
603.75	13123.04
603.946	12910.05
604.142	12920.29
604.338	12764.65
604.534	12885.48
604.73	12484.08
604.926	12723.69
605.122	12615.15
605.318	12559.85
605.514	12484.08
605.71	12613.1
605.906	12533.23
606.102	12459.5
606.298	12322.29
606.494	12520.94
606.69	12410.35
606.886	12713.45
607.082	12420.59
607.278	12422.64
607.474	11929.08
607.67	12398.06
607.866	12174.83
608.062	12219.89
608.257	12123.63
608.453	11873.78
608.649	12035.57
608.845	12060.15
609.041	12119.54
609.236	11896.31
609.432	12017.14
609.628	12115.44
609.824	11974.13
610.019	12015.09
610.215	11894.26
610.411	11828.73
610.606	11771.38
610.802	11884.02
610.998	11675.13
611.193	11625.98
611.389	11488.76
611.584	11879.93
611.78	11554.3
611.976	11879.93
612.171	11599.35
612.367	11341.31
612.562	11730.42
612.758	11427.32
612.953	11623.93
613.149	11574.78
613.344	11259.39
613.539	11662.84
613.735	11331.07
613.93	11382.27
614.126	11427.32
614.321	11449.85
614.517	11292.16
614.712	11298.3
614.907	10968.58
615.103	11310.59
615.298	11296.25
615.493	11449.85
615.688	11070.98
615.884	11306.49
616.079	10915.33
616.274	11470.33
616.47	11130.37
616.665	11075.07
616.86	11109.89
617.055	11144.7
617.25	10987.01
617.445	11001.35
617.641	10776.07
617.836	11099.65
618.031	10698.25
618.226	11021.83
618.421	10645
618.616	10870.28
618.811	10632.71
619.006	10688.01
619.201	10472.97
619.396	10503.69
619.591	10739.21
619.786	10323.47
619.981	10376.72
620.176	10509.83
620.371	10348.04
620.566	10223.12
620.761	10186.26
620.956	10401.29
621.151	10141.2
621.346	10327.57
621.541	10087.95
621.735	10272.27
621.93	10100.24
622.125	10118.67
622.32	10042.9
622.515	9897.49
622.709	9981.46
622.904	9645.59
623.099	9661.98
623.294	9725.46
623.488	9541.15
623.683	9502.23
623.878	9557.53
624.072	9491.99
624.267	9440.79
624.462	9451.03
624.656	9344.54
624.851	9143.84
625.046	9446.94
625.24	9281.05
625.435	9117.22
625.629	9176.61
625.824	9082.4
626.018	9162.27
626.213	8681
626.407	9027.1
626.602	8803.88
626.796	9033.25
626.991	8846.88
627.185	8658.47
627.38	8683.05
627.574	8537.64
627.768	8609.32
627.963	8586.79
628.157	8515.11
628.352	8580.65
628.546	8402.47
628.74	8500.78
628.935	8386.09
629.129	8349.23
629.323	8166.96
629.517	8142.38
629.712	8220.21
629.906	8351.28
630.1	8144.43
630.294	7902.77
630.489	7968.31
630.683	7974.45
630.877	7732.79
631.071	7859.76
631.265	7761.46
631.459	7941.68
631.653	7700.02
631.848	7663.16
632.042	7728.69
632.236	7626.29
632.43	7527.99
632.624	7544.38
632.818	7507.51
633.012	7427.64
633.206	7462.46
633.4	7501.37
633.594	7464.5
633.788	7607.86
633.982	7255.61
634.176	7337.53
634.369	7306.81
634.563	7026.24
634.757	7065.15
634.951	7079.49
635.145	7097.92
635.339	7108.16
635.533	6827.59
635.726	6891.07
635.92	6831.68
636.114	6970.94
636.308	6940.22
636.501	6835.78
636.695	6714.95
636.889	6878.79
637.083	6729.28
637.276	6540.87
637.47	6665.8
637.664	6350.41
637.857	6442.57
638.051	6481.48
638.244	6454.86
638.438	6340.17
638.632	6479.43
638.825	6250.06
639.019	6536.77
639.212	6282.83
639.406	6352.46
639.599	6284.87
639.793	6291.02
639.986	6039.12
640.18	6000.21
640.373	6082.13
640.567	6162
640.76	6039.12
640.954	6073.93
641.147	6024.78
641.34	5940.82
641.534	5926.48
641.727	5918.29
641.92	5842.51
642.114	5770.83
642.307	5736.02
642.5	5783.12
642.694	5721.68
642.887	5717.59
643.08	5738.07
643.273	5578.33
643.467	5639.76
643.66	5459.54
643.853	5508.69
644.046	5316.19
644.239	5332.57
644.432	5381.72
644.626	5291.61
644.819	5318.23
645.012	5432.92
645.205	5353.05
645.398	5224.03
645.591	5160.54
645.784	5383.77
645.977	5201.5
646.17	5142.11
646.363	5070.43
646.556	5043.81
646.749	4992.61
646.942	5109.34
647.135	5029.47
647.328	5035.61
647.521	4886.11
647.714	4902.5
647.907	4787.81
648.099	4879.97
648.292	4818.53
648.485	4908.64
648.678	4783.71
648.871	4744.8
649.064	4677.22
649.256	4857.44
649.449	4660.84
649.642	4785.76
649.835	4709.99
650.027	4591.2
650.22	4712.03
650.413	4531.81
650.605	4585.06
650.798	4402.79
650.991	4464.23
651.183	4574.82
651.376	4359.78
651.568	4462.18
651.761	4435.56
651.954	4388.46
652.146	4236.91
652.339	4394.6
652.531	4208.23
652.724	4183.66
652.916	4081.26
653.109	4136.56
653.301	4238.95
653.494	4204.14
653.686	4144.75
653.879	4243.05
654.071	4003.44
654.263	4197.99
654.456	4040.3
654.648	4111.98
654.84	4097.64
655.033	3968.62
655.225	4089.45
655.417	3851.89
655.61	4064.88
655.802	3952.24
655.994	3833.46
656.186	3866.22
656.379	3778.16
656.571	3880.56
656.763	3862.13
656.955	3704.43
657.148	3804.78
657.34	3800.69
657.532	3702.39
657.724	3702.39
657.916	3784.3
658.108	3765.87
658.3	3653.23
658.492	3628.66
658.684	3563.12
658.876	3612.28
659.068	3505.78
659.26	3516.02
659.452	3505.78
659.644	3544.69
659.836	3391.09
660.028	3456.63
660.22	3440.25
660.412	3323.51
660.604	3454.58
660.796	3425.91
660.988	3372.66
661.18	3348.09
661.372	3423.86
661.563	3233.4
661.755	3249.79
661.947	3255.93
662.139	3325.56
662.331	3337.85
662.522	3174.01
662.714	3178.11
662.906	3083.9
663.097	3102.33
663.289	3145.34
663.481	3145.34
663.673	3004.03
663.864	3128.95
664.056	3026.56
664.247	3044.99
664.439	3092.09
664.631	3055.23
664.822	3112.57
665.014	3059.32
665.205	3010.17
665.397	2823.81
665.588	2973.31
665.78	3085.95
665.971	3026.56
666.163	2905.73
666.354	2932.35
666.546	2836.1
666.737	2891.39
666.929	3018.36
667.12	2844.29
667.311	2883.2
667.503	2672.26
667.694	2758.27
667.885	2743.94
668.077	2819.71
668.268	2621.06
668.459	2705.03
668.651	2717.31
668.842	2645.63
669.033	2733.7
669.224	2590.34
669.416	2723.46
669.607	2698.88
669.798	2672.26
669.989	2737.79
670.18	2600.58
670.371	2541.19
670.563	2596.48
670.754	2655.87
670.945	2576
671.136	2612.87
671.327	2524.8
671.518	2504.32
671.709	2580.1
671.9	2438.79
672.091	2440.84
672.282	2475.65
672.473	2459.27
672.664	2397.83
672.855	2379.4
673.046	2465.41
673.237	2518.66
673.428	2508.42
673.619	2498.18
673.809	2432.65
674	2449.03
674.191	2414.21
674.382	2403.97
674.573	2367.11
674.764	2375.3
674.954	2352.77
675.145	2336.39
675.336	2336.39
675.527	2213.51
675.717	2383.49
675.908	2344.58
676.099	2244.23
676.289	2231.94
676.48	2260.62
676.671	2236.04
676.861	2219.66
677.052	2133.64
677.243	2193.03
677.433	2287.24
677.624	2246.28
677.814	2277
678.005	2213.51
678.195	2303.62
678.386	2342.53
678.576	2211.46
678.767	2248.33
678.957	2201.23
679.148	2227.85
679.338	2233.99
679.529	2180.75
679.719	2223.75
679.909	2115.21
680.1	2064.01
680.29	2180.75
680.481	2197.13
680.671	2217.61
680.861	2162.31
681.052	2215.56
681.242	2203.27
681.432	2080.39
681.622	2143.88
681.813	2129.55
682.003	2188.94
682.193	2109.07
682.383	2147.98
682.573	2131.59
682.764	1951.37
682.954	2145.93
683.144	2100.87
683.334	2045.58
683.524	2008.72
683.714	2057.87
683.904	1990.28
684.094	2111.11
684.284	2045.58
684.474	2037.39
684.664	2133.64
684.854	2057.87
685.044	2023.05
685.234	2098.83
685.424	2117.26
685.614	2035.34
685.804	2059.92
685.994	2014.86
686.184	2010.76
686.374	2029.2
686.564	2072.2
686.753	2055.82
686.943	2100.87
687.133	2082.44
687.323	1984.14
687.513	1941.13
687.702	1951.37
687.892	2010.76
688.082	1949.32
688.272	1865.36
688.461	2066.06
688.651	2025.1
688.841	1988.24
689.03	1943.18
689.22	1932.94
689.41	1978
689.599	1932.94
689.789	1922.7
689.979	1973.9
690.168	1879.69
690.358	1934.99
690.547	1951.37
690.737	1896.08
690.926	1853.07
691.116	1879.69
691.305	1910.41
691.495	1932.94
691.684	1816.21
691.874	1891.98
692.063	1961.61
692.252	1885.84
692.442	1724.05
692.631	1744.53
692.82	1920.65
693.01	1998.48
693.199	1779.34
693.388	1803.92
693.578	1840.78
693.767	1828.49
693.956	1853.07
694.146	1851.02
694.335	1832.59
694.524	1836.69
694.713	1783.44
694.902	1965.71
695.092	1857.17
695.281	1797.78
695.47	1937.04
695.659	1771.15
695.848	1791.63
696.037	1822.35
696.226	1801.87
696.415	1785.49
696.604	1851.02
696.793	1848.97
696.982	1814.16
697.171	1869.45
697.36	1722
697.549	1842.83
697.738	1810.06
697.927	1801.87
698.116	1724.05
698.305	1728.14
698.494	1748.62
698.683	1769.1
698.872	1754.77
699.061	1785.49
699.25	1687.18
699.438	1678.99
699.627	1779.34
699.816	1666.71
700.005	1732.24
700.193	1746.58
700.382	1748.62
700.571	1808.02
700.76	1713.81
700.948	1654.42
701.137	1689.23
701.326	1740.43
701.514	1683.09
701.703	1537.68
701.892	1683.09
702.08	1713.81
702.269	1654.42
702.457	1699.47
702.646	1674.9
702.834	1621.65
703.023	1582.74
703.212	1672.85
703.4	1654.42
703.589	1595.03
703.777	1699.47
703.965	1668.75
704.154	1625.75
704.342	1560.21
704.531	1597.07
704.719	1738.38
704.907	1521.3
705.096	1533.59
705.284	1504.92
705.472	1769.1
705.661	1582.74
705.849	1681.04
706.037	1539.73
706.226	1509.01
706.414	1662.61
706.602	1566.35
706.79	1490.58
706.979	1558.16
707.167	1640.08
707.355	1523.35
707.543	1664.66
707.731	1652.37
707.919	1521.3
708.107	1517.2
708.296	1539.73
708.484	1642.13
708.672	1476.24
708.86	1629.84
709.048	1500.82
709.236	1511.06
709.424	1482.39
709.612	1646.23
709.8	1531.54
709.988	1486.48
710.176	1578.64
710.364	1517.2
710.551	1468.05
710.739	1388.18
710.927	1533.59
711.115	1480.34
711.303	1468.05
711.491	1509.01
711.679	1429.14
711.866	1549.97
712.054	1390.23
712.242	1388.18
712.43	1554.07
712.617	1459.86
712.805	1400.47
712.993	1396.37
713.181	1396.37
713.368	1345.17
713.556	1410.71
713.744	1330.84
713.931	1404.57
714.119	1382.04
714.306	1494.68
714.494	1461.91
714.682	1379.99
714.869	1367.7
715.057	1384.09
715.244	1355.41
715.432	1447.57
715.619	1375.89
715.807	1386.13
715.994	1359.51
716.182	1320.6
716.369	1357.46
716.556	1273.5
716.744	1351.32
716.931	1379.99
717.119	1400.47
717.306	1361.56
717.493	1382.04
717.681	1400.47
717.868	1351.32
718.055	1332.89
718.242	1343.13
718.43	1318.55
718.617	1257.11
718.804	1296.02
718.991	1289.88
719.179	1293.97
719.366	1367.7
719.553	1220.25
719.74	1332.89
719.927	1322.65
720.114	1326.74
720.301	1336.98
720.488	1390.23
720.676	1212.06
720.863	1398.42
721.05	1238.68
721.237	1267.35
721.424	1218.2
721.611	1271.45
721.798	1238.68
721.985	1230.49
722.172	1240.73
722.358	1236.63
722.545	1250.97
722.732	1228.44
722.919	1326.74
723.106	1220.25
723.293	1263.26
723.48	1205.91
723.667	1218.2
723.853	1324.69
724.04	1238.68
724.227	1347.22
724.414	1210.01
724.6	1310.36
724.787	1126.04
724.974	1246.87
725.161	1156.76
725.347	1263.26
725.534	1302.17
725.72	1164.95
725.907	1220.25
726.094	1244.82
726.28	1267.35
726.467	1132.19
726.653	1185.43
726.84	1246.87
727.027	1218.2
727.213	1199.77
727.4	1287.83
727.586	1097.37
727.773	1240.73
727.959	1169.05
728.145	1189.53
728.332	1144.47
728.518	1160.86
728.705	1212.06
728.891	1214.1
729.077	1169.05
729.264	1185.43
729.45	1070.75
729.636	1226.39
729.823	1175.19
730.009	1160.86
730.195	1216.15
730.382	1156.76
730.568	1185.43
730.754	1162.9
730.94	1148.57
731.126	1158.81
731.313	1136.28
731.499	1050.27
731.685	1167
731.871	1162.9
732.057	1132.19
732.243	1167
732.429	1134.23
732.615	1207.96
732.801	1140.38
732.987	1070.75
733.173	1220.25
733.359	1115.8
733.545	1115.8
733.731	1093.27
733.917	1097.37
734.103	1142.43
734.289	1111.71
734.475	1066.65
734.661	1189.53
734.847	1150.62
735.033	1138.33
735.219	1156.76
735.404	1154.71
735.59	1097.37
735.776	1109.66
735.962	1060.51
736.148	1117.85
736.333	1142.43
736.519	1162.9
736.705	1126.04
736.89	1056.41
737.076	1085.08
737.262	1064.6
737.447	1052.31
737.633	1099.42
737.819	1130.14
738.004	1080.99
738.19	1033.88
738.375	1097.37
738.561	1042.07
738.747	1037.98
738.932	1048.22
739.118	1083.03
739.303	1080.99
739.489	1064.6
739.674	958.11
739.859	1029.79
740.045	1099.42
740.23	1050.27
740.416	986.78
740.601	925.34
740.786	941.72
740.972	1003.16
741.157	1005.21
741.342	997.02
741.528	1037.98
741.713	935.58
741.898	958.11
742.084	1037.98
742.269	1005.21
742.454	1109.66
742.639	990.88
742.824	933.53
743.01	878.24
743.195	1003.16
743.38	966.3
743.565	1027.74
743.75	951.96
743.935	968.35
744.12	962.2
744.305	935.58
744.49	884.38
744.675	1017.5
744.86	962.2
745.045	976.54
745.23	966.3
745.415	988.83
745.6	935.58
745.785	990.88
745.97	913.05
746.155	929.44
746.34	929.44
746.525	919.2
746.71	904.86
746.895	868
747.079	935.58
747.264	900.76
747.449	859.81
747.634	886.43
747.819	835.23
748.003	896.67
748.188	820.89
748.373	804.51
748.557	888.48
748.742	814.75
748.927	874.14
749.111	861.85
749.296	773.79
749.481	794.27
749.665	863.9
749.85	749.22
750.034	851.61
750.219	839.33
750.404	794.27
750.588	857.76
750.773	794.27
750.957	779.93
751.141	767.65
751.326	724.64
751.51	722.59
751.695	792.22
751.879	818.85
752.064	812.7
752.248	743.07
752.432	784.03
752.617	749.22
752.801	728.74
752.985	663.2
753.17	757.41
753.354	788.13
753.538	714.4
753.722	689.82
753.907	698.02
754.091	794.27
754.275	786.08
754.459	704.16
754.643	716.45
754.828	650.91
755.012	663.2
755.196	648.86
755.38	698.02
755.564	640.67
755.748	671.39
755.932	614.05
756.116	659.1
756.3	704.16
756.484	657.06
756.668	689.82
756.852	609.95
757.036	609.95
757.22	732.83
757.404	718.5
757.588	589.47
757.772	548.51
757.956	652.96
758.14	571.04
758.323	644.77
758.507	601.76
758.691	575.14
758.875	581.28
759.059	618.15
759.242	517.79
759.426	599.71
759.61	595.62
759.794	646.82
759.977	599.71
760.161	546.47
760.345	571.04
760.528	591.52
760.712	614.05
760.895	573.09
761.079	642.72
761.263	601.76
761.446	519.84
761.63	528.03
761.813	534.18
761.997	589.47
762.18	489.12
762.364	523.94
762.547	450.21
762.731	474.79
762.914	507.55
763.098	605.86
763.281	593.57
763.464	542.37
763.648	476.84
763.831	544.42
764.015	525.99
764.198	495.27
764.381	482.98
764.564	589.47
764.748	558.75
764.931	503.46
765.114	519.84
765.297	560.8
765.481	474.79
765.664	573.09
765.847	495.27
766.03	599.71
766.213	493.22
766.397	507.55
766.58	489.12
766.763	503.46
766.946	478.88
767.129	564.9
767.312	419.49
767.495	464.55
767.678	456.36
767.861	499.36
768.044	411.3
768.227	480.93
768.41	472.74
768.593	546.47
768.776	478.88
768.959	528.03
769.142	485.03
769.324	464.55
769.507	536.23
769.69	505.51
769.873	407.2
770.056	452.26
770.239	417.44
770.421	444.07
770.604	521.89
770.787	450.21
770.97	429.73
771.152	466.6
771.335	515.75
771.518	454.31
771.7	444.07
771.883	501.41
772.066	521.89
772.248	458.4
772.431	454.31
772.613	466.6
772.796	386.72
772.978	411.3
773.161	421.54
773.343	425.64
773.526	429.73
773.708	421.54
773.891	405.16
774.073	351.91
774.256	386.72
774.438	462.5
774.621	370.34
774.803	452.26
774.985	425.64
775.168	446.12
775.35	458.4
775.532	403.11
775.715	343.72
775.897	439.97
776.079	358.05
776.261	403.11
776.444	423.59
776.626	319.14
776.808	380.58
776.99	407.2
777.173	384.68
777.355	345.77
777.537	384.68
777.719	335.53
777.901	349.86
778.083	310.95
778.265	269.99
778.447	358.05
778.629	366.25
778.811	370.34
778.993	421.54
779.175	349.86
779.357	337.57
779.539	220.84
779.721	235.18
779.903	382.63
780.085	292.52
780.267	345.77
780.449	267.94
780.631	337.57
780.812	313
780.994	368.29
781.176	257.7
781.358	315.05
781.54	345.77
781.721	335.53
781.903	313
782.085	339.62
782.267	294.57
782.448	296.61
782.63	358.05
782.812	298.66
782.993	288.42
783.175	304.81
783.357	263.85
783.538	304.81
783.72	175.78
783.901	255.65
784.083	272.04
784.264	261.8
784.446	235.18
784.627	216.74
784.809	269.99
784.99	278.18
785.172	212.65
785.353	321.19
785.535	274.09
785.716	173.74
785.897	343.72
786.079	194.22
786.26	163.5
786.441	208.55
786.623	233.13
786.804	200.36
786.985	212.65
787.167	263.85
787.348	261.8
787.529	196.26
787.71	175.78
787.891	310.95
788.073	261.8
788.254	280.23
788.435	218.79
788.616	274.09
788.797	200.36
788.978	222.89
789.159	181.93
789.34	204.46
789.522	220.84
789.703	183.98
789.884	218.79
790.065	269.99
790.246	226.98
790.427	106.15
790.607	212.65
790.788	276.13
790.969	204.46
791.15	204.46
791.331	237.22
791.512	212.65
791.693	200.36
791.874	214.7
792.054	222.89
792.235	304.81
792.416	159.4
792.597	179.88
792.778	161.45
792.958	149.16
793.139	138.92
793.32	179.88
793.5	194.22
793.681	183.98
793.862	161.45
794.042	216.74
794.223	143.02
794.404	208.55
794.584	181.93
794.765	186.02
794.945	151.21
795.126	231.08
795.306	149.16
795.487	229.03
795.667	194.22
795.848	181.93
796.028	145.06
796.209	186.02
796.389	196.26
796.57	134.82
796.75	114.34
796.93	169.64
797.111	108.2
797.291	149.16
797.471	116.39
797.652	169.64
797.832	181.93
798.012	79.53
798.192	83.63
798.373	138.92
798.553	106.15
798.733	157.35
798.913	155.3
799.093	110.25
799.274	124.58
799.454	216.74
799.634	143.02
799.814	186.02
799.994	181.93
800.174	63.15
800.354	106.15
800.534	159.4
800.714	57
800.894	122.54
801.074	106.15
801.254	106.15
801.434	132.78
801.614	153.26
801.794	124.58
801.974	358.05
802.154	165.54
802.334	149.16
802.514	192.17
802.693	173.74
802.873	112.3
803.053	118.44
803.233	138.92
803.413	145.06
803.592	110.25
803.772	128.68
803.952	36.52
804.131	149.16
804.311	85.67
804.491	157.35
804.67	175.78
804.85	192.17
805.03	134.82
805.209	138.92
805.389	145.06
805.568	100.01
805.748	89.77
805.928	69.29
806.107	65.19
806.287	79.53
806.466	87.72
806.646	108.2
806.825	173.74
807.004	52.91
807.184	120.49
807.363	100.01
807.543	132.78
807.722	134.82
807.901	151.21
808.081	124.58
808.26	69.29
808.439	77.48
808.619	138.92
808.798	138.92
808.977	114.34
809.156	100.01
809.336	89.77
809.515	108.2
809.694	91.82
809.873	143.02
810.052	95.91
810.231	110.25
810.411	122.54
810.59	159.4
810.769	153.26
810.948	114.34
811.127	61.1
811.306	67.24
811.485	73.39
811.664	147.11
811.843	128.68
812.022	1.71
812.201	71.34
812.38	97.96
812.559	147.11
812.737	100.01
812.916	22.19
813.095	124.58
813.274	85.67
813.453	95.91
813.632	110.25
813.811	93.87
813.989	112.3
814.168	73.39
814.347	61.1
814.526	163.5
814.704	30.38
814.883	38.57
815.062	87.72
815.24	165.54
815.419	83.63
815.598	161.45
815.776	89.77
815.955	165.54
816.133	26.28
816.312	110.25
816.49	132.78
816.669	106.15
816.847	132.78
817.026	89.77
817.204	100.01
817.383	85.67
817.561	50.86
817.74	83.63
817.918	65.19
818.097	106.15
818.275	114.34
818.453	52.91
818.632	40.62
818.81	108.2
818.988	108.2
819.167	42.67
819.345	48.81
819.523	44.71
819.701	89.77
819.879	126.63
820.058	77.48
820.236	91.82
820.414	81.58
820.592	44.71
820.77	122.54
820.948	81.58
821.127	114.34
821.305	112.3
821.483	89.77
821.661	89.77
821.839	67.24
822.017	171.69
822.195	188.07
822.373	169.64
822.551	104.11
822.729	132.78
822.907	91.82
823.085	89.77
823.262	46.76
823.44	-0.34
823.618	18.09
823.796	130.73
823.974	30.38
824.152	106.15
824.329	83.63
824.507	40.62
824.685	50.86
824.863	85.67
825.04	54.95
825.218	85.67
825.396	118.44
825.574	77.48
825.751	77.48
825.929	122.54
826.107	97.96
826.284	102.06
826.462	97.96
826.639	100.01
826.817	-26.96
826.994	59.05
827.172	116.39
827.349	149.16
827.527	73.39
827.704	128.68
827.882	104.11
828.059	52.91
828.237	95.91
828.414	100.01
828.591	28.33
828.769	40.62
828.946	40.62
829.124	26.28
829.301	112.3
829.478	40.62
829.655	48.81
829.833	77.48
830.01	46.76
830.187	89.77
830.364	67.24
830.542	13.99
830.719	112.3
830.896	87.72
831.073	67.24
831.25	24.23
831.427	-12.63
831.604	69.29
831.782	102.06
831.959	28.33
832.136	40.62
832.313	77.48
832.49	73.39
832.667	-16.73
832.844	85.67
833.021	48.81
833.198	91.82
833.374	93.87
833.551	44.71
833.728	7.85
833.905	59.05
834.082	91.82
834.259	57
834.436	97.96
834.612	16.04
834.789	100.01
834.966	52.91
835.143	77.48
835.319	54.95
835.496	57
835.673	50.86
835.85	50.86
836.026	38.57
836.203	59.05
836.38	-35.16
836.556	77.48
836.733	57
836.909	1.71
837.086	89.77
837.262	26.28
837.439	91.82
837.616	36.52
837.792	34.47
837.968	100.01
838.145	48.81
838.321	20.14
838.498	52.91
838.674	77.48
838.851	112.3
839.027	63.15
839.203	16.04
839.38	-24.92
839.556	108.2
839.732	36.52
839.909	46.76
840.085	69.29
840.261	-18.77
840.437	77.48
840.614	85.67
840.79	97.96
840.966	-20.82
841.142	-22.87
841.318	52.91
841.494	46.76
841.671	48.81
841.847	120.49
842.023	100.01
842.199	40.62
842.375	93.87
842.551	44.71
842.727	28.33
842.903	-24.92
843.079	-0.34
843.255	24.23
843.431	63.15
843.607	122.54
843.783	65.19
843.959	87.72
844.134	50.86
844.31	40.62
844.486	67.24
844.662	116.39
844.838	50.86
845.013	26.28
845.189	1.71
845.365	44.71
845.541	13.99
845.716	89.77
845.892	71.34
846.068	67.24
846.244	18.09
846.419	71.34
846.595	38.57
846.77	48.81
846.946	40.62
847.122	22.19
847.297	3.75
847.473	97.96
847.648	24.23
847.824	5.8
847.999	32.43
848.175	48.81
848.35	87.72
848.526	114.34
848.701	42.67
848.876	91.82
849.052	52.91
849.227	75.43
849.403	85.67
849.578	24.23
849.753	-2.39
849.929	67.24
850.104	9.9
850.279	-10.58
850.454	28.33
850.63	24.23
850.805	59.05
850.98	48.81
851.155	52.91
851.33	57
851.505	32.43
851.681	32.43
851.856	18.09
852.031	75.43
852.206	40.62
852.381	-4.44
852.556	75.43
852.731	77.48
852.906	61.1
853.081	71.34
853.256	95.91
853.431	57
853.606	106.15
853.781	-4.44
853.956	34.47
854.131	65.19
854.305	85.67
854.48	22.19
854.655	44.71
854.83	52.91
855.005	13.99
855.18	24.23
855.354	44.71
855.529	77.48
855.704	42.67
855.879	50.86
856.053	83.63
856.228	73.39
856.403	81.58
856.577	57
856.752	38.57
856.926	69.29
857.101	-0.34
857.276	36.52
857.45	1.71
857.625	71.34
857.799	-0.34
857.974	77.48
858.148	40.62
858.323	1.71
858.497	77.48
858.672	38.57
858.846	69.29
859.02	34.47
859.195	11.95
859.369	77.48
859.543	77.48
859.718	32.43
859.892	-37.2
860.066	61.1
860.241	20.14
860.415	34.47
860.589	22.19
860.763	42.67
860.938	7.85
861.112	44.71
861.286	24.23
861.46	42.67
861.634	73.39
861.808	52.91
861.982	50.86
862.157	-16.73
862.331	16.04
862.505	71.34
862.679	50.86
862.853	75.43
863.027	24.23
863.201	175.78
863.375	7.85
863.549	97.96
863.722	-29.01
863.896	50.86
864.07	26.28
864.244	24.23
864.418	106.15
864.592	22.19
864.766	67.24
864.939	16.04
865.113	-37.2
865.287	59.05
865.461	44.71
865.634	67.24
865.808	69.29
865.982	-31.06
866.156	-47.44
866.329	46.76
866.503	-22.87
866.676	28.33
866.85	-33.11
867.024	3.75
867.197	81.58
867.371	73.39
867.544	-20.82
867.718	-47.44
867.891	75.43
868.065	16.04
868.238	97.96
868.412	50.86
868.585	20.14
868.759	9.9
868.932	42.67
869.105	24.23
869.279	34.47
869.452	24.23
869.625	67.24
869.799	71.34
869.972	-29.01
870.145	75.43
870.319	24.23
870.492	-26.96
870.665	-10.58
870.838	-65.88
871.011	-24.92
871.185	95.91
871.358	28.33
871.531	-6.49
871.704	-14.68
871.877	5.8
872.05	-12.63
872.223	24.23
872.396	20.14
872.569	30.38
872.742	36.52
872.915	26.28
873.088	73.39
873.261	36.52
873.434	79.53
873.607	18.09
873.78	71.34
873.953	67.24
874.126	48.81
874.299	36.52
874.471	-4.44
874.644	5.8
874.817	71.34
874.99	69.29
875.163	24.23
875.335	116.39
875.508	-51.54
875.681	28.33
875.853	46.76
876.026	7.85
876.199	24.23
876.371	-26.96
876.544	79.53
876.717	42.67
876.889	48.81
877.062	1.71
877.234	22.19
877.407	52.91
877.579	83.63
877.752	57
877.924	3.75
878.097	40.62
878.269	-39.25
878.442	54.95
878.614	-61.78
878.786	65.19
878.959	-47.44
879.131	91.82
879.303	-26.96
879.476	26.28
879.648	11.95
879.82	-18.77
879.993	67.24
880.165	102.06
880.337	-12.63
880.509	36.52
880.681	-14.68
880.854	73.39
881.026	11.95
881.198	42.67
881.37	28.33
881.542	91.82
881.714	40.62
881.886	3.75
882.058	13.99
882.23	97.96
882.402	-39.25
882.574	147.11
882.746	30.38
882.918	-26.96
883.09	48.81
883.262	50.86
883.434	87.72
883.606	67.24
883.778	16.04
883.95	42.67
884.122	36.52
884.293	132.78
884.465	-10.58
884.637	3.75
884.809	40.62
884.98	59.05
885.152	22.19
885.324	155.3
885.496	-24.92
885.667	46.76
885.839	16.04
886.011	16.04
886.182	100.01
886.354	59.05
886.525	-10.58
886.697	18.09
886.869	20.14
887.04	-18.77
887.212	5.8
887.383	40.62
887.555	118.44
887.726	-12.63
887.897	-12.63
888.069	28.33
888.24	100.01
888.412	89.77
888.583	-6.49
888.754	28.33
888.926	-26.96
889.097	34.47
889.268	-8.53
889.44	-18.77
889.611	7.85
889.782	7.85
889.953	-47.44
890.125	59.05
890.296	-2.39
890.467	-6.49
890.638	48.81
890.809	57
890.98	-4.44
891.151	34.47
891.323	7.85
891.494	-51.54
891.665	75.43
891.836	-55.64
892.007	-18.77
892.178	106.15
892.349	3.75
892.52	73.39
892.691	77.48
892.862	42.67
893.032	24.23
893.203	50.86
893.374	97.96
893.545	32.43
893.716	-41.3
893.887	-0.34
894.057	-22.87
894.228	63.15
894.399	-39.25
894.57	69.29
894.74	5.8
894.911	28.33
895.082	16.04
895.253	93.87
895.423	-14.68
895.594	77.48
895.764	69.29
895.935	44.71
896.106	9.9
896.276	77.48
896.447	20.14
896.617	-8.53
896.788	32.43
896.958	-0.34
897.129	46.76
897.299	18.09
897.47	54.95
897.64	7.85
897.81	-55.64
897.981	-55.64
898.151	20.14
898.322	-10.58
898.492	9.9
898.662	57
898.832	18.09
899.003	-65.88
899.173	40.62
899.343	7.85
899.513	-4.44
