Data from USB4F104151__47__12-59-08-925.txt Node

Date: Fri Mar 14 12:59:08 EDT 2025
User: louis
Spectrometer: USB4F10415
Trigger mode: 4
Integration Time (sec): 1.000000E-2
Scans to average: 1
Electric dark correction enabled: true
Nonlinearity correction enabled: false
Boxcar width: 0
XAxis mode: Wavelengths
Number of Pixels in Spectrum: 3648
>>>>>Begin Spectral Data<<<<<
178.204	-42.84
178.424	-42.84
178.644	-42.84
178.864	-57.17
179.084	-22.36
179.304	-20.31
179.524	-16.21
179.744	59.56
179.964	-20.31
180.184	-20.31
180.404	2.22
180.624	18.6
180.844	4.27
181.064	-48.98
181.283	43.18
181.503	22.7
181.723	-24.4
181.943	4.27
182.163	-8.02
182.383	32.94
182.602	34.99
182.822	57.51
183.042	24.75
183.262	73.9
183.482	77.99
183.701	-32.6
183.921	86.19
184.141	8.36
184.361	65.71
184.58	-44.88
184.8	90.28
185.02	57.51
185.239	-40.79
185.459	45.23
185.679	8.36
185.898	-79.7
186.118	-26.45
186.338	102.57
186.557	90.28
186.777	98.47
186.997	53.42
187.216	26.79
187.436	84.14
187.655	8.36
187.875	-14.17
188.095	-10.07
188.314	75.95
188.534	26.79
188.753	49.32
188.973	2.22
189.192	75.95
189.412	63.66
189.631	-10.07
189.851	82.09
190.07	63.66
190.29	-12.12
190.509	28.84
190.729	41.13
190.948	28.84
191.168	75.95
191.387	61.61
191.607	16.55
191.826	100.52
192.045	57.51
192.265	2.22
192.484	104.62
192.704	65.71
192.923	-3.93
193.142	73.9
193.362	51.37
193.581	28.84
193.8	34.99
194.02	28.84
194.239	-71.51
194.458	51.37
194.678	57.51
194.897	51.37
195.116	39.08
195.335	39.08
195.555	20.65
195.774	-14.17
195.993	-20.31
196.212	47.27
196.432	18.6
196.651	96.43
196.87	-8.02
197.089	61.61
197.308	37.03
197.528	80.04
197.747	22.7
197.966	67.75
198.185	65.71
198.404	-18.26
198.623	-16.21
198.842	63.66
199.062	53.42
199.281	53.42
199.5	28.84
199.719	10.41
199.938	51.37
200.157	84.14
200.376	14.51
200.595	-44.88
200.814	96.43
201.033	30.89
201.252	-63.32
201.471	51.37
201.69	71.85
201.909	28.84
202.128	65.71
202.347	0.17
202.566	-3.93
202.785	24.75
203.004	43.18
203.223	53.42
203.442	75.95
203.661	65.71
203.879	28.84
204.098	45.23
204.317	32.94
204.536	75.95
204.755	16.55
204.974	47.27
205.193	65.71
205.411	43.18
205.63	-5.97
205.849	34.99
206.068	-10.07
206.287	26.79
206.505	-30.55
206.724	-12.12
206.943	92.33
207.162	-14.17
207.381	6.31
207.599	39.08
207.818	39.08
208.037	4.27
208.255	67.75
208.474	0.17
208.693	45.23
208.911	-5.97
209.13	45.23
209.349	77.99
209.567	59.56
209.786	67.75
210.005	28.84
210.223	61.61
210.442	0.17
210.661	20.65
210.879	32.94
211.098	30.89
211.316	20.65
211.535	26.79
211.753	80.04
211.972	86.19
212.191	75.95
212.409	75.95
212.628	-1.88
212.846	49.32
213.065	118.95
213.283	26.79
213.502	104.62
213.72	18.6
213.938	26.79
214.157	47.27
214.375	34.99
214.594	30.89
214.812	16.55
215.031	34.99
215.249	-3.93
215.467	41.13
215.686	39.08
215.904	90.28
216.122	61.61
216.341	41.13
216.559	47.27
216.778	12.46
216.996	57.51
217.214	53.42
217.432	65.71
217.651	-14.17
217.869	18.6
218.087	24.75
218.306	75.95
218.524	26.79
218.742	-12.12
218.96	106.67
219.179	39.08
219.397	41.13
219.615	47.27
219.833	-10.07
220.051	69.8
220.27	30.89
220.488	8.36
220.706	43.18
220.924	22.7
221.142	67.75
221.36	41.13
221.578	16.55
221.796	-34.64
222.015	8.36
222.233	47.27
222.451	47.27
222.669	67.75
222.887	90.28
223.105	51.37
223.323	22.7
223.541	28.84
223.759	43.18
223.977	-18.26
224.195	12.46
224.413	57.51
224.631	41.13
224.849	-16.21
225.067	37.03
225.285	14.51
225.503	80.04
225.721	96.43
225.939	-16.21
226.157	-12.12
226.375	16.55
226.592	2.22
226.81	-14.17
227.028	-14.17
227.246	67.75
227.464	34.99
227.682	16.55
227.9	65.71
228.117	28.84
228.335	61.61
228.553	47.27
228.771	18.6
228.989	-12.12
229.206	75.95
229.424	41.13
229.642	-26.45
229.86	43.18
230.077	77.99
230.295	90.28
230.513	61.61
230.731	34.99
230.948	118.95
231.166	65.71
231.384	71.85
231.601	90.28
231.819	39.08
232.037	102.57
232.254	39.08
232.472	47.27
232.689	0.17
232.907	77.99
233.125	51.37
233.342	28.84
233.56	18.6
233.777	37.03
233.995	24.75
234.213	61.61
234.43	34.99
234.648	14.51
234.865	18.6
235.083	98.47
235.3	65.71
235.518	80.04
235.735	77.99
235.953	106.67
236.17	32.94
236.388	65.71
236.605	16.55
236.822	26.79
237.04	53.42
237.257	20.65
237.475	-1.88
237.692	37.03
237.909	0.17
238.127	63.66
238.344	61.61
238.562	41.13
238.779	71.85
238.996	28.84
239.214	-22.36
239.431	65.71
239.648	16.55
239.865	65.71
240.083	131.24
240.3	45.23
240.517	41.13
240.735	75.95
240.952	75.95
241.169	57.51
241.386	47.27
241.603	51.37
241.821	18.6
242.038	14.51
242.255	32.94
242.472	71.85
242.689	-24.4
242.907	75.95
243.124	34.99
243.341	55.47
243.558	37.03
243.775	4.27
243.992	8.36
244.209	47.27
244.426	125.1
244.643	20.65
244.86	24.75
245.078	24.75
245.295	37.03
245.512	102.57
245.729	2.22
245.946	-12.12
246.163	49.32
246.38	16.55
246.597	53.42
246.814	55.47
247.031	57.51
247.248	53.42
247.464	43.18
247.681	43.18
247.898	-34.64
248.115	26.79
248.332	43.18
248.549	82.09
248.766	110.76
248.983	47.27
249.2	32.94
249.417	16.55
249.633	55.47
249.85	10.41
250.067	8.36
250.284	-5.97
250.501	34.99
250.717	84.14
250.934	-16.21
251.151	69.8
251.368	-5.97
251.585	49.32
251.801	82.09
252.018	82.09
252.235	12.46
252.451	55.47
252.668	30.89
252.885	55.47
253.102	69.8
253.318	37.03
253.535	51.37
253.752	63.66
253.968	10.41
254.185	37.03
254.401	75.95
254.618	67.75
254.835	-32.6
255.051	82.09
255.268	55.47
255.484	34.99
255.701	12.46
255.917	28.84
256.134	53.42
256.351	-1.88
256.567	32.94
256.784	73.9
257	77.99
257.217	108.71
257.433	20.65
257.65	32.94
257.866	34.99
258.082	16.55
258.299	14.51
258.515	34.99
258.732	-1.88
258.948	86.19
259.165	20.65
259.381	32.94
259.597	12.46
259.814	77.99
260.03	39.08
260.246	-3.93
260.463	10.41
260.679	4.27
260.895	22.7
261.112	22.7
261.328	73.9
261.544	57.51
261.761	65.71
261.977	73.9
262.193	102.57
262.409	73.9
262.626	30.89
262.842	37.03
263.058	-14.17
263.274	-1.88
263.49	106.67
263.707	51.37
263.923	2.22
264.139	49.32
264.355	24.75
264.571	-3.93
264.787	71.85
265.004	-28.5
265.22	51.37
265.436	6.31
265.652	30.89
265.868	98.47
266.084	8.36
266.3	-3.93
266.516	18.6
266.732	63.66
266.948	86.19
267.164	-8.02
267.38	34.99
267.596	2.22
267.812	47.27
268.028	24.75
268.244	2.22
268.46	16.55
268.676	98.47
268.892	37.03
269.108	-3.93
269.324	6.31
269.54	47.27
269.756	57.51
269.972	-51.03
270.188	26.79
270.403	-8.02
270.619	57.51
270.835	63.66
271.051	32.94
271.267	0.17
271.483	-24.4
271.698	37.03
271.914	10.41
272.13	75.95
272.346	28.84
272.562	106.67
272.777	84.14
272.993	41.13
273.209	100.52
273.425	98.47
273.64	45.23
273.856	32.94
274.072	80.04
274.287	63.66
274.503	39.08
274.719	0.17
274.934	51.37
275.15	63.66
275.366	71.85
275.581	16.55
275.797	51.37
276.012	63.66
276.228	116.9
276.444	24.75
276.659	53.42
276.875	28.84
277.09	75.95
277.306	53.42
277.521	92.33
277.737	37.03
277.952	61.61
278.168	84.14
278.383	49.32
278.599	57.51
278.814	20.65
279.03	14.51
279.245	39.08
279.461	88.23
279.676	53.42
279.892	69.8
280.107	65.71
280.322	34.99
280.538	-12.12
280.753	47.27
280.969	43.18
281.184	18.6
281.399	57.51
281.615	73.9
281.83	92.33
282.045	41.13
282.26	90.28
282.476	-10.07
282.691	34.99
282.906	-28.5
283.122	-20.31
283.337	75.95
283.552	63.66
283.767	8.36
283.983	0.17
284.198	118.95
284.413	2.22
284.628	16.55
284.843	24.75
285.058	73.9
285.274	39.08
285.489	61.61
285.704	20.65
285.919	8.36
286.134	41.13
286.349	32.94
286.564	135.34
286.779	-8.02
286.995	59.56
287.21	-8.02
287.425	28.84
287.64	6.31
287.855	90.28
288.07	10.41
288.285	67.75
288.5	20.65
288.715	106.67
288.93	49.32
289.145	10.41
289.36	57.51
289.575	63.66
289.79	-3.93
290.004	49.32
290.219	88.23
290.434	106.67
290.649	57.51
290.864	18.6
291.079	45.23
291.294	37.03
291.509	12.46
291.724	61.61
291.938	2.22
292.153	108.71
292.368	90.28
292.583	45.23
292.798	6.31
293.012	14.51
293.227	61.61
293.442	51.37
293.657	84.14
293.871	61.61
294.086	43.18
294.301	67.75
294.516	24.75
294.73	53.42
294.945	59.56
295.16	-10.07
295.374	18.6
295.589	94.38
295.804	32.94
296.018	49.32
296.233	88.23
296.447	82.09
296.662	49.32
296.877	131.24
297.091	16.55
297.306	75.95
297.52	45.23
297.735	53.42
297.949	-3.93
298.164	-63.32
298.378	53.42
298.593	51.37
298.807	10.41
299.022	57.51
299.236	55.47
299.451	-12.12
299.665	100.52
299.88	61.61
300.094	47.27
300.309	67.75
300.523	-26.45
300.737	84.14
300.952	63.66
301.166	37.03
301.381	12.46
301.595	84.14
301.809	6.31
302.024	-20.31
302.238	61.61
302.452	43.18
302.667	-40.79
302.881	90.28
303.095	22.7
303.309	32.94
303.524	94.38
303.738	12.46
303.952	2.22
304.166	34.99
304.381	6.31
304.595	37.03
304.809	63.66
305.023	-71.51
305.237	18.6
305.452	88.23
305.666	14.51
305.88	67.75
306.094	-28.5
306.308	18.6
306.522	8.36
306.736	88.23
306.95	28.84
307.164	-5.97
307.379	-46.93
307.593	65.71
307.807	73.9
308.021	41.13
308.235	43.18
308.449	92.33
308.663	30.89
308.877	100.52
309.091	32.94
309.305	73.9
309.519	57.51
309.733	37.03
309.947	-3.93
310.161	-69.46
310.374	-14.17
310.588	41.13
310.802	-28.5
311.016	22.7
311.23	24.75
311.444	37.03
311.658	55.47
311.872	71.85
312.085	-32.6
312.299	16.55
312.513	34.99
312.727	84.14
312.941	39.08
313.154	65.71
313.368	26.79
313.582	20.65
313.796	55.47
314.009	0.17
314.223	-16.21
314.437	4.27
314.651	82.09
314.864	18.6
315.078	125.1
315.292	63.66
315.505	28.84
315.719	57.51
315.933	57.51
316.146	53.42
316.36	37.03
316.573	51.37
316.787	28.84
317.001	75.95
317.214	84.14
317.428	12.46
317.641	100.52
317.855	51.37
318.068	30.89
318.282	49.32
318.495	82.09
318.709	26.79
318.922	10.41
319.136	65.71
319.349	53.42
319.563	45.23
319.776	96.43
319.99	18.6
320.203	84.14
320.417	-1.88
320.63	94.38
320.843	32.94
321.057	114.86
321.27	84.14
321.483	41.13
321.697	41.13
321.91	14.51
322.124	49.32
322.337	32.94
322.55	22.7
322.763	32.94
322.977	-1.88
323.19	-1.88
323.403	-16.21
323.617	51.37
323.83	30.89
324.043	43.18
324.256	-38.74
324.469	30.89
324.683	12.46
324.896	59.56
325.109	-12.12
325.322	-8.02
325.535	-5.97
325.748	39.08
325.962	37.03
326.175	30.89
326.388	34.99
326.601	37.03
326.814	39.08
327.027	4.27
327.24	-10.07
327.453	-20.31
327.666	82.09
327.879	77.99
328.092	147.62
328.305	147.62
328.518	34.99
328.731	-48.98
328.944	53.42
329.157	28.84
329.37	98.47
329.583	45.23
329.796	80.04
330.009	12.46
330.222	43.18
330.435	98.47
330.648	88.23
330.861	57.51
331.073	123.05
331.286	2.22
331.499	53.42
331.712	37.03
331.925	116.9
332.138	20.65
332.35	67.75
332.563	0.17
332.776	16.55
332.989	14.51
333.202	2.22
333.414	39.08
333.627	59.56
333.84	43.18
334.053	102.57
334.265	-3.93
334.478	41.13
334.691	47.27
334.903	127.14
335.116	65.71
335.329	45.23
335.541	-12.12
335.754	86.19
335.966	53.42
336.179	65.71
336.392	43.18
336.604	77.99
336.817	129.19
337.029	16.55
337.242	59.56
337.454	57.51
337.667	127.14
337.88	45.23
338.092	57.51
338.305	8.36
338.517	-1.88
338.729	12.46
338.942	49.32
339.154	-8.02
339.367	14.51
339.579	0.17
339.792	32.94
340.004	8.36
340.217	43.18
340.429	63.66
340.641	39.08
340.854	67.75
341.066	6.31
341.278	116.9
341.491	71.85
341.703	49.32
341.915	-20.31
342.128	30.89
342.34	41.13
342.552	61.61
342.764	77.99
342.977	43.18
343.189	24.75
343.401	69.8
343.613	-5.97
343.826	88.23
344.038	114.86
344.25	51.37
344.462	-16.21
344.674	73.9
344.886	125.1
345.099	71.85
345.311	37.03
345.523	75.95
345.735	24.75
345.947	45.23
346.159	59.56
346.371	69.8
346.583	34.99
346.795	84.14
347.007	-8.02
347.219	32.94
347.431	45.23
347.643	73.9
347.855	-48.98
348.067	59.56
348.279	41.13
348.491	86.19
348.703	53.42
348.915	-36.69
349.127	63.66
349.339	104.62
349.551	41.13
349.763	57.51
349.975	39.08
350.187	53.42
350.399	147.62
350.61	51.37
350.822	-28.5
351.034	75.95
351.246	67.75
351.458	34.99
351.669	90.28
351.881	28.84
352.093	30.89
352.305	57.51
352.517	39.08
352.728	94.38
352.94	10.41
353.152	12.46
353.363	-46.93
353.575	57.51
353.787	69.8
353.999	28.84
354.21	30.89
354.422	20.65
354.633	53.42
354.845	80.04
355.057	28.84
355.268	59.56
355.48	90.28
355.692	84.14
355.903	84.14
356.115	24.75
356.326	102.57
356.538	45.23
356.749	82.09
356.961	51.37
357.172	71.85
357.384	92.33
357.595	84.14
357.807	37.03
358.018	55.47
358.23	92.33
358.441	41.13
358.653	82.09
358.864	0.17
359.075	49.32
359.287	61.61
359.498	16.55
359.709	53.42
359.921	104.62
360.132	45.23
360.344	28.84
360.555	71.85
360.766	71.85
360.977	4.27
361.189	-8.02
361.4	92.33
361.611	57.51
361.823	92.33
362.034	63.66
362.245	55.47
362.456	10.41
362.667	26.79
362.879	45.23
363.09	43.18
363.301	43.18
363.512	30.89
363.723	6.31
363.935	-12.12
364.146	-8.02
364.357	61.61
364.568	53.42
364.779	41.13
364.99	22.7
365.201	59.56
365.412	88.23
365.623	84.14
365.834	100.52
366.045	-16.21
366.256	59.56
366.467	69.8
366.678	73.9
366.889	112.81
367.1	-12.12
367.311	80.04
367.522	16.55
367.733	34.99
367.944	75.95
368.155	-32.6
368.366	-8.02
368.577	-1.88
368.788	55.47
368.999	28.84
369.209	98.47
369.42	153.77
369.631	49.32
369.842	69.8
370.053	65.71
370.264	-26.45
370.474	39.08
370.685	-26.45
370.896	96.43
371.107	53.42
371.317	84.14
371.528	28.84
371.739	30.89
371.95	24.75
372.16	100.52
372.371	16.55
372.582	43.18
372.792	41.13
373.003	45.23
373.214	37.03
373.424	61.61
373.635	10.41
373.846	67.75
374.056	8.36
374.267	41.13
374.477	45.23
374.688	92.33
374.898	49.32
375.109	75.95
375.319	67.75
375.53	41.13
375.74	20.65
375.951	45.23
376.161	102.57
376.372	55.47
376.582	18.6
376.793	49.32
377.003	129.19
377.214	143.53
377.424	71.85
377.635	98.47
377.845	12.46
378.055	65.71
378.266	59.56
378.476	53.42
378.686	49.32
378.897	63.66
379.107	73.9
379.317	110.76
379.528	43.18
379.738	-12.12
379.948	-3.93
380.158	16.55
380.369	94.38
380.579	90.28
380.789	24.75
380.999	77.99
381.21	41.13
381.42	65.71
381.63	47.27
381.84	139.43
382.05	116.9
382.261	84.14
382.471	63.66
382.681	37.03
382.891	114.86
383.101	75.95
383.311	41.13
383.521	98.47
383.731	67.75
383.941	100.52
384.151	26.79
384.361	59.56
384.571	24.75
384.781	30.89
384.991	90.28
385.201	55.47
385.411	39.08
385.621	75.95
385.831	57.51
386.041	10.41
386.251	82.09
386.461	32.94
386.671	39.08
386.881	-46.93
387.091	39.08
387.301	77.99
387.511	65.71
387.72	82.09
387.93	71.85
388.14	102.57
388.35	98.47
388.56	67.75
388.769	14.51
388.979	59.56
389.189	86.19
389.399	47.27
389.609	55.47
389.818	100.52
390.028	37.03
390.238	125.1
390.447	26.79
390.657	61.61
390.867	77.99
391.076	34.99
391.286	57.51
391.496	43.18
391.705	41.13
391.915	96.43
392.125	34.99
392.334	20.65
392.544	67.75
392.753	98.47
392.963	24.75
393.172	108.71
393.382	4.27
393.591	137.38
393.801	61.61
394.01	108.71
394.22	147.62
394.429	16.55
394.639	55.47
394.848	82.09
395.058	116.9
395.267	94.38
395.477	37.03
395.686	100.52
395.895	96.43
396.105	110.76
396.314	86.19
396.524	34.99
396.733	96.43
396.942	86.19
397.152	65.71
397.361	65.71
397.57	59.56
397.78	37.03
397.989	94.38
398.198	80.04
398.407	106.67
398.617	28.84
398.826	51.37
399.035	82.09
399.244	63.66
399.453	98.47
399.663	96.43
399.872	123.05
400.081	73.9
400.29	137.38
400.499	39.08
400.708	90.28
400.917	82.09
401.127	125.1
401.336	139.43
401.545	112.81
401.754	88.23
401.963	28.84
402.172	94.38
402.381	104.62
402.59	178.34
402.799	157.86
403.008	92.33
403.217	100.52
403.426	92.33
403.635	61.61
403.844	100.52
404.053	98.47
404.262	39.08
404.471	145.58
404.68	135.34
404.888	69.8
405.097	73.9
405.306	98.47
405.515	123.05
405.724	182.44
405.933	133.29
406.142	137.38
406.35	127.14
406.559	92.33
406.768	110.76
406.977	164.01
407.185	186.54
407.394	188.58
407.603	190.63
407.812	174.25
408.02	118.95
408.229	151.72
408.438	125.1
408.646	149.67
408.855	145.58
409.064	139.43
409.272	168.1
409.481	235.69
409.69	168.1
409.898	233.64
410.107	176.3
410.315	202.92
410.524	192.68
410.733	121
410.941	245.93
411.15	225.45
411.358	303.27
411.567	266.41
411.775	264.36
411.984	274.6
412.192	284.84
412.401	286.89
412.609	319.65
412.818	266.41
413.026	174.25
413.234	395.43
413.443	280.74
413.651	381.09
413.86	383.14
414.068	362.66
414.276	409.76
414.485	372.9
414.693	417.96
414.901	469.16
415.11	460.96
415.318	512.16
415.526	401.57
415.734	518.31
415.943	465.06
416.151	503.97
416.359	532.64
416.567	542.88
416.776	508.07
416.984	630.95
417.192	542.88
417.4	680.1
417.608	626.85
417.817	676
418.025	698.53
418.233	757.92
418.441	684.19
418.649	696.48
418.857	798.88
419.065	811.17
419.273	786.59
419.481	813.21
419.689	927.9
419.897	893.09
420.105	932
420.313	966.81
420.521	1007.77
420.729	1020.06
420.937	1040.54
421.145	1058.97
421.353	1042.59
421.561	1190.04
421.769	1271.96
421.977	1290.39
422.185	1241.24
422.393	1417.37
422.601	1497.24
422.809	1441.94
423.017	1468.56
423.224	1425.56
423.432	1470.61
423.64	1540.24
423.848	1609.87
424.056	1603.73
424.263	1781.9
424.471	1589.39
424.679	1699.98
424.887	1812.62
425.094	1872.01
425.302	1992.84
425.51	2023.56
425.718	1876.11
425.925	2007.18
426.133	2148.49
426.341	2242.7
426.548	2371.72
426.756	2381.96
426.964	2328.71
427.171	2443.4
427.379	2443.4
427.586	2568.32
427.794	2680.96
428.001	2789.5
428.209	2998.4
428.417	2885.76
428.624	3002.49
428.832	3156.09
429.039	3168.38
429.247	3031.16
429.454	3371.13
429.662	3686.51
429.869	3338.36
430.076	3745.91
430.284	3491.96
430.491	3661.94
430.699	3973.23
430.906	3856.5
431.114	4032.62
431.321	4151.4
431.528	4079.72
431.736	4352.1
431.943	4612.2
432.15	4429.93
432.358	4489.32
432.565	4812.9
432.772	4626.53
432.979	5066.85
433.187	5095.52
433.394	5113.95
433.601	5582.93
433.808	5472.34
434.016	5441.62
434.223	5732.44
434.43	6064.21
434.637	5857.36
434.844	6203.47
435.052	6254.67
435.259	6322.25
435.466	6494.28
435.673	6502.47
435.88	6709.32
436.087	7014.46
436.294	7229.5
436.501	6963.26
436.708	7012.42
436.915	7465.02
437.122	7739.44
437.329	7708.73
437.537	7907.38
437.743	8048.69
437.95	8009.78
438.157	8345.64
438.364	8558.63
438.571	8589.35
438.778	8689.7
438.985	9318.43
439.192	9179.17
439.399	9414.68
439.606	9125.92
439.813	9682.97
440.02	10448.91
440.227	10125.33
440.433	10123.28
440.64	10342.41
440.847	10203.15
441.054	10754.05
441.261	11376.64
441.467	11104.26
441.674	11624.44
441.881	11683.83
442.088	11878.39
442.294	11589.63
442.501	11880.44
442.708	12326.89
442.914	12640.23
443.121	13217.76
443.328	12730.34
443.534	13766.62
443.741	13205.47
443.948	13402.08
444.154	14284.75
444.361	14004.18
444.568	14454.73
444.774	14444.49
444.981	14587.85
445.187	14723.02
445.394	15697.85
445.6	15409.09
445.807	16781.23
446.013	16084.92
446.22	16598.96
446.426	16994.22
446.633	17096.61
446.839	17827.74
447.046	17076.13
447.252	17991.58
447.459	18395.03
447.665	18001.82
447.871	18853.77
448.078	19722.11
448.284	19015.56
448.491	19251.08
448.697	20039.54
448.903	20438.9
449.11	20701.04
449.316	19949.43
449.522	20569.97
449.728	21075.82
449.935	21473.12
450.141	21268.33
450.347	21897.05
450.553	21176.17
450.76	21329.77
450.966	22087.51
451.172	21860.19
451.378	22206.3
451.584	22265.69
451.791	22654.8
451.997	22665.04
452.203	22800.21
452.409	23168.84
452.615	22855.5
452.821	21993.31
453.027	22120.28
453.233	22982.48
453.44	22079.32
453.646	22349.65
453.852	22484.82
454.058	22658.9
454.264	22196.06
454.47	22728.53
454.676	22081.37
454.882	22886.22
455.088	20793.2
455.294	21043.05
455.5	21475.17
455.705	21622.62
455.911	20907.88
456.117	20711.28
456.323	20076.41
456.529	19314.56
456.735	19949.43
456.941	19548.03
457.147	18892.68
457.352	18554.77
457.558	18573.2
457.764	18435.99
457.97	17995.67
458.176	17684.38
458.381	17715.1
458.587	16840.62
458.793	16742.32
458.999	16033.72
459.204	17008.55
459.41	16330.67
459.616	15607.74
459.821	15583.16
460.027	15374.27
460.233	15255.49
460.438	14632.91
460.644	14745.55
460.85	14053.33
461.055	13801.43
461.261	13604.83
461.466	12656.62
461.672	12382.19
461.878	13004.77
462.083	12091.38
462.289	12195.82
462.494	12132.34
462.7	11362.3
462.905	10909.7
463.111	11423.74
463.316	11608.06
463.522	11255.81
463.727	11276.29
463.932	11280.38
464.138	11323.39
464.343	11042.82
464.549	10997.76
464.754	11438.08
464.959	11317.25
465.165	10969.09
465.37	10754.05
465.575	10426.38
465.781	11001.86
465.986	10948.61
466.191	10563.59
466.397	10242.06
466.602	9701.4
466.807	10141.71
467.012	10240.01
467.218	10027.03
467.423	9910.29
467.628	10020.88
467.833	10344.46
468.038	10045.46
468.244	9721.88
468.449	10156.05
468.654	9705.49
468.859	9938.96
469.064	9519.13
469.269	9398.3
469.474	9406.49
469.679	9504.79
469.885	9367.58
470.09	9328.67
470.295	9355.29
470.5	9170.97
470.705	8982.56
470.91	8982.56
471.115	8818.72
471.32	8781.86
471.525	8904.74
471.73	8615.98
471.935	8912.93
472.139	8527.91
472.344	8538.15
472.549	8480.81
472.754	8413.23
472.959	8200.24
473.164	7979.06
473.369	8138.8
473.574	8214.57
473.778	8138.8
473.983	8030.26
474.188	8071.22
474.393	7790.64
474.598	7856.18
474.802	7757.88
475.007	7688.25
475.212	7596.09
475.417	7419.96
475.621	7436.35
475.826	7362.62
476.031	7254.08
476.235	7272.51
476.44	7393.34
476.645	7295.04
476.849	7206.97
477.054	7190.59
477.259	7092.29
477.463	6989.89
477.668	6793.28
477.872	6963.26
478.077	6768.71
478.282	6498.38
478.486	6522.95
478.691	6516.81
478.895	6424.65
479.1	6385.74
479.304	6393.93
479.509	6117.45
479.713	6152.27
479.918	6352.97
480.122	6031.44
480.326	6324.3
480.531	6334.54
480.735	6031.44
480.94	6015.05
481.144	6199.37
481.348	5972.05
481.553	5949.52
481.757	5935.18
481.961	6033.49
482.166	5965.9
482.37	5974.1
482.574	6045.77
482.778	5935.18
482.983	6023.25
483.187	5961.81
483.391	6064.21
483.595	5967.95
483.8	5840.98
484.004	6015.05
484.208	6096.97
484.412	6013.01
484.616	6008.91
484.821	5822.55
485.025	5871.7
485.229	6025.29
485.433	5994.58
485.637	5904.46
485.841	6103.12
486.045	5765.2
486.249	6076.49
486.453	5916.75
486.657	5953.62
486.861	5943.38
487.065	5970
487.269	5941.33
487.473	5849.17
487.677	5867.6
487.881	5988.43
488.085	5910.61
488.289	5978.19
488.493	5877.84
488.697	5986.38
488.901	6051.92
489.105	5984.34
489.309	5892.18
489.512	6013.01
489.716	6076.49
489.92	6203.47
490.124	5982.29
490.328	6121.55
490.531	6096.97
490.735	6160.46
490.939	6031.44
491.143	6088.78
491.346	6199.37
491.55	6185.04
491.754	6277.19
491.958	6473.8
492.161	6246.48
492.365	6414.41
492.569	6346.83
492.772	6301.77
492.976	6332.49
493.18	6654.02
493.383	6690.88
493.587	6395.98
493.79	6590.53
493.994	6473.8
494.197	6645.83
494.401	6596.68
494.605	6703.17
494.808	6766.66
495.012	6729.8
495.215	6807.62
495.419	6963.26
495.622	6922.31
495.825	7090.24
496.029	7034.94
496.232	7249.98
496.436	7315.52
496.639	7346.23
496.843	7280.7
497.046	7444.54
497.249	7512.12
497.453	7612.47
497.656	7796.79
497.859	7698.49
498.063	7794.74
498.266	8097.84
498.469	7800.88
498.673	8134.7
498.876	8249.39
499.079	8196.14
499.282	8269.87
499.485	8421.42
499.689	8464.43
499.892	8763.43
500.095	8589.35
500.298	9003.04
500.501	8671.27
500.705	9037.86
500.908	9232.41
501.111	9353.24
501.314	9465.88
501.517	9347.1
501.72	9551.9
501.923	9465.88
502.126	10002.45
502.329	9639.96
502.532	9828.37
502.735	10092.56
502.938	10194.96
503.141	10170.38
503.344	10641.42
503.547	10463.24
503.75	10584.07
503.953	10758.15
504.156	10915.84
504.359	10979.33
504.562	11253.76
504.765	11395.07
504.968	11485.18
505.17	11503.61
505.373	11614.2
505.576	12017.65
505.779	11984.88
505.982	12103.67
506.185	12378.09
506.387	12408.81
506.59	12382.19
506.793	12736.49
506.996	12679.15
507.198	13135.84
507.401	12990.44
507.604	13340.64
507.807	13486.04
508.009	13819.86
508.212	13733.85
508.415	13830.1
508.617	14129.11
508.82	14286.8
509.022	14258.13
509.225	14823.37
509.428	14665.67
509.63	14974.92
509.833	14993.35
510.035	15634.36
510.238	15423.42
510.44	15261.63
510.643	15769.53
510.845	15638.46
511.048	15712.19
511.25	16218.04
511.453	16244.66
511.655	16625.58
511.858	16615.34
512.06	16611.25
512.262	16727.98
512.465	17287.07
512.667	17225.64
512.87	17502.11
513.072	17815.45
513.274	17907.61
513.477	18071.45
513.679	18243.48
513.881	18761.61
514.084	18677.65
514.286	18782.09
514.488	19152.77
514.69	19586.94
514.893	19507.07
515.095	19623.81
515.297	19920.76
515.499	19730.3
515.701	20387.7
515.904	20610.93
516.106	20563.82
516.308	20860.78
516.51	21047.15
516.712	21067.63
516.914	21380.96
517.116	21663.58
517.318	21696.35
517.52	22056.79
517.722	21944.16
517.925	22652.75
518.127	22595.41
518.329	22873.93
518.531	22869.84
518.733	22980.43
518.935	23369.54
519.136	23437.13
519.338	23787.33
519.54	23953.21
519.742	24540.98
519.944	24545.08
520.146	24596.28
520.348	24809.26
520.55	25175.85
520.752	25149.23
520.954	25786.15
521.155	25247.53
521.357	25618.21
521.559	26038.05
521.761	26466.07
521.963	26322.71
522.164	26636.05
522.366	26537.75
522.568	26928.91
522.77	27107.09
522.971	27352.84
523.173	27248.39
523.375	27363.08
523.576	27590.41
523.778	27553.54
523.98	28411.64
524.181	28260.09
524.383	28514.04
524.584	28577.53
524.786	28532.47
524.988	28733.17
525.189	29198.06
525.391	29114.09
525.592	29236.97
525.794	29488.87
525.995	29644.52
526.197	29484.78
526.398	29476.58
526.6	30183.13
526.801	30420.7
527.003	30412.51
527.204	30156.51
527.406	30510.81
527.607	30727.89
527.808	30828.24
528.01	30586.58
528.211	30533.34
528.412	31555.27
528.614	31231.69
528.815	31217.36
529.016	31278.8
529.218	31080.14
529.419	31622.86
529.62	31262.41
529.822	31758.02
530.023	31297.23
530.224	31405.77
530.425	31481.55
530.626	31442.63
530.828	31559.37
531.029	32339.65
531.23	31579.85
531.431	31715.01
531.632	31841.99
531.833	32048.83
532.035	32175.81
532.236	32186.05
532.437	31899.33
532.638	31968.96
532.839	32423.61
533.04	32456.38
533.241	31966.91
533.442	32564.92
533.643	32476.86
533.844	32122.56
534.045	32216.77
534.246	32333.5
534.447	32495.29
534.648	32403.13
534.849	32534.2
535.05	32147.14
535.251	32763.57
535.451	32444.09
535.652	32890.55
535.853	32683.7
536.054	32544.44
536.255	32440
536.456	32370.36
536.657	32941.75
536.857	32431.8
537.058	32345.79
537.259	32685.75
537.46	32325.31
537.66	32286.4
537.861	32863.93
538.062	32298.69
538.263	32468.67
538.463	32685.75
538.664	32446.14
538.865	32898.74
539.065	32616.12
539.266	32067.27
539.466	32587.45
539.667	32237.25
539.868	33113.78
540.068	32667.32
540.269	32575.16
540.469	32765.62
540.67	32632.5
540.87	32739
541.071	32403.13
541.271	32677.56
541.472	32519.87
541.672	32263.87
541.873	32255.68
542.073	32208.58
542.274	32618.17
542.474	32507.58
542.675	32020.16
542.875	32706.23
543.075	32648.89
543.276	32032.45
543.476	32663.22
543.676	32057.03
543.877	32634.55
544.077	32440
544.277	32396.99
544.478	32184
544.678	32569.02
544.878	32485.05
545.078	32511.67
545.279	32313.02
545.479	32272.06
545.679	32278.21
545.879	32294.59
546.079	32362.17
546.28	32181.95
546.48	32464.57
546.68	32661.18
546.88	32374.46
547.08	32227.01
547.28	32364.22
547.48	32235.2
547.68	32374.46
547.88	31696.58
548.081	32521.91
548.281	32403.13
548.481	32460.48
548.681	32259.77
548.881	32462.52
549.081	32513.72
549.28	32052.93
549.48	32368.32
549.68	31878.85
549.88	33005.24
550.08	32036.55
550.28	32218.82
550.48	32216.77
550.68	32435.9
550.88	32411.32
551.08	32198.34
551.279	32050.88
551.479	31846.08
551.679	32151.23
551.879	32073.41
552.079	31944.39
552.278	31917.76
552.478	31962.82
552.678	31923.91
552.878	32196.29
553.077	31778.5
553.277	31778.5
553.477	32222.91
553.676	31825.61
553.876	32079.55
554.076	31686.34
554.275	31928
554.475	31860.42
554.674	32061.12
554.874	32075.46
555.074	31741.64
555.273	32097.98
555.473	31973.06
555.672	31481.55
555.872	31721.16
556.071	31737.54
556.271	32130.75
556.47	31960.77
556.67	31489.74
556.869	31700.68
557.068	31887.04
557.268	31518.41
557.467	31612.62
557.667	31274.7
557.866	31542.99
558.065	31393.48
558.265	31301.33
558.464	31104.72
558.663	31338.19
558.863	31008.47
559.062	31473.35
559.261	30908.12
559.461	31350.48
559.66	30977.75
559.859	31370.96
560.058	30766.81
560.258	31051.47
560.457	30883.54
560.656	31200.97
560.855	30871.25
561.054	30781.14
561.253	30697.17
561.453	30668.5
561.652	31059.66
561.851	30549.72
562.05	30545.62
562.249	30871.25
562.448	30705.37
562.647	30629.59
562.846	30719.7
563.045	30564.06
563.244	30131.93
563.443	30500.57
563.642	30058.21
563.841	30142.17
564.04	29968.1
564.239	30564.06
564.438	29933.28
564.637	29832.93
564.836	30242.53
565.035	29826.79
565.234	29679.33
565.432	29662.95
565.631	29777.64
565.83	29748.96
566.029	29470.44
566.228	29458.15
566.427	29873.89
566.625	29249.26
566.824	29062.9
567.023	29402.86
567.222	28833.52
567.42	29452.01
567.619	29042.42
567.818	29441.77
568.016	28909.3
568.215	29482.73
568.414	28716.79
568.612	28901.11
568.811	28767.99
569.01	28860.15
569.208	28503.8
569.407	28819.19
569.605	28137.21
569.804	28858.1
570.002	28446.46
570.201	28499.7
570.4	28339.96
570.598	28145.41
570.797	28067.58
570.995	28081.92
571.193	27723.52
571.392	28026.62
571.59	27887.36
571.789	27776.77
571.987	27703.04
572.186	27807.49
572.384	27455.24
572.582	27596.55
572.781	27475.72
572.979	27352.84
573.177	27856.64
573.376	27469.58
573.574	27240.2
573.772	27213.58
573.971	27125.52
574.169	27057.93
574.367	26965.78
574.565	26838.8
574.763	27139.85
574.962	26982.16
575.16	26490.65
575.358	26582.81
575.556	26347.29
575.754	26885.9
575.952	26361.62
576.151	26582.81
576.349	26220.31
576.547	26423.06
576.745	26019.61
576.943	26218.27
577.141	26138.4
577.339	25943.84
577.537	25771.81
577.735	26023.71
577.933	25493.29
578.131	25610.02
578.329	25691.94
578.527	25511.72
578.725	25659.17
578.923	25706.27
579.121	25431.85
579.319	25257.77
579.516	25564.96
579.714	24971.05
579.912	25114.41
580.11	24962.86
580.308	25014.06
580.506	24995.63
580.704	24545.08
580.901	24885.04
581.099	25423.65
581.297	24477.49
581.495	24551.22
581.692	24852.27
581.89	24401.72
582.088	24516.4
582.285	24229.69
582.483	24659.76
582.681	24143.67
582.878	24127.29
583.076	23936.83
583.274	24067.9
583.471	23807.81
583.669	23662.4
583.866	23840.57
584.064	23723.84
584.262	23519.04
584.459	23781.18
584.657	23686.98
584.854	23686.98
585.052	23152.46
585.249	23439.17
585.447	23627.59
585.644	23322.44
585.841	23392.07
586.039	23267.14
586.236	22841.17
586.434	23242.57
586.631	22939.47
586.828	22896.46
587.026	23017.29
587.223	22632.27
587.42	22591.31
587.618	22923.08
587.815	22388.57
588.012	22617.94
588.21	22310.74
588.407	22548.31
588.604	22337.37
588.801	22259.54
588.999	22282.07
589.196	21962.59
589.393	22267.73
589.59	21974.88
589.787	21954.4
589.984	21688.16
590.182	21596
590.379	22083.42
590.576	21688.16
590.773	21792.61
590.97	21342.05
591.167	21452.64
591.364	21297
591.561	21419.88
591.758	21253.99
591.955	21344.1
592.152	21423.97
592.349	20952.94
592.546	21387.11
592.743	21190.5
592.94	20801.39
593.137	20776.81
593.334	20948.84
593.531	20225.91
593.727	20971.37
593.924	20815.73
594.121	20559.73
594.318	20440.95
594.515	20242.29
594.712	20453.23
594.908	20488.05
595.105	20479.86
595.302	20066.17
595.499	20021.11
595.696	20299.64
595.892	19928.95
596.089	20129.66
596.286	20207.48
596.482	20107.13
596.679	19898.24
596.876	19947.39
597.072	19607.42
597.269	19720.06
597.466	19525.5
597.662	19636.1
597.859	19529.6
598.055	19570.56
598.252	19611.52
598.448	19310.47
598.645	19330.95
598.841	19214.21
599.038	19255.17
599.234	19382.15
599.431	18984.84
599.627	19218.31
599.824	19009.42
600.02	18968.46
600.217	18882.44
600.413	18755.47
600.609	19093.38
600.806	18724.75
601.002	18450.32
601.198	18503.57
601.395	18427.79
601.591	18233.24
601.787	18517.9
601.984	18505.62
602.18	18495.38
602.376	18370.45
602.572	17973.14
602.769	17895.32
602.965	17985.43
603.161	18055.06
603.357	18081.69
603.553	17915.8
603.75	17909.66
603.946	17829.79
604.142	17862.55
604.338	17416.1
604.534	17928.09
604.73	17336.23
604.926	17420.19
605.122	17356.71
605.318	17573.79
605.514	16975.78
605.71	17375.14
605.906	17086.37
606.102	17049.51
606.298	17106.85
606.494	17035.17
606.69	17033.13
606.886	17100.71
607.082	17090.47
607.278	16943.02
607.474	16758.7
607.67	16957.35
607.866	16596.91
608.062	16723.88
608.257	16785.32
608.453	16770.99
608.649	16631.72
608.845	16527.28
609.041	16689.07
609.236	16455.6
609.432	16467.89
609.628	16420.78
609.824	16293.81
610.019	16195.51
610.215	16240.56
610.411	16488.37
610.606	16416.69
610.802	16175.03
610.998	16127.92
611.193	16494.51
611.389	16027.57
611.584	16215.99
611.78	15906.74
611.976	16152.5
612.171	16132.02
612.367	15839.16
612.562	15900.6
612.758	15472.57
612.953	15673.28
613.149	16013.24
613.344	15820.73
613.539	16005.05
613.735	15460.29
613.93	15769.53
614.126	15728.57
614.321	15790.01
614.517	15554.49
614.712	15583.16
614.907	15466.43
615.103	15548.35
615.298	15335.36
615.493	15394.75
615.688	15118.28
615.884	15591.36
616.079	15333.31
616.274	15450.05
616.47	15232.96
616.665	15316.93
616.86	15314.88
617.055	15052.74
617.25	15241.15
617.445	15146.95
617.641	14876.62
617.836	14929.86
618.031	14657.48
618.226	14993.35
618.421	14725.07
618.616	14909.38
618.811	14784.46
619.006	14835.66
619.201	14649.29
619.396	14501.84
619.591	14288.85
619.786	14450.64
619.981	14319.57
620.176	14424.01
620.371	14286.8
620.566	14186.45
620.761	14325.71
620.956	14239.7
621.151	13918.17
621.346	13860.82
621.541	13873.11
621.735	13948.89
621.93	13649.88
622.125	13725.66
622.32	13438.94
622.515	13567.96
622.709	13289.44
622.904	13271.01
623.099	13404.13
623.294	13410.27
623.488	13279.2
623.683	13084.64
623.878	13031.4
624.072	12902.37
624.267	13148.13
624.462	12902.37
624.656	12705.77
624.851	12695.53
625.046	12816.36
625.24	12451.82
625.435	12527.6
625.629	12341.23
625.824	12505.07
626.018	12179.44
626.213	12210.16
626.407	12083.19
626.602	12177.39
626.796	12158.96
626.991	12081.14
627.185	11915.25
627.38	11757.56
627.574	11743.22
627.768	11769.85
627.963	11775.99
628.157	11476.99
628.352	11608.06
628.546	11284.48
628.74	11442.17
628.935	11372.54
629.129	11364.35
629.323	11077.63
629.517	11116.55
629.712	11223.04
629.906	11053.06
630.1	11042.82
630.294	10962.95
630.489	10842.12
630.683	10962.95
630.877	10684.42
631.071	10858.5
631.265	10653.7
631.459	10555.4
631.653	10528.78
631.848	10539.02
632.042	10536.97
632.236	10442.76
632.43	10389.52
632.624	10342.41
632.818	10235.92
633.012	10151.95
633.206	10225.68
633.4	10276.88
633.594	10061.84
633.788	9914.39
633.982	9805.85
634.176	9932.82
634.369	9809.94
634.563	9969.68
634.757	9697.3
634.951	9785.37
635.145	9652.25
635.339	9529.37
635.533	9441.31
635.726	9506.84
635.92	9445.4
636.114	9570.33
636.308	9533.47
636.501	9259.04
636.695	9388.06
636.889	9263.13
637.083	9158.69
637.276	9023.52
637.47	9056.29
637.664	9121.82
637.857	9005.09
638.051	9177.12
638.244	8970.27
638.438	8962.08
638.632	8671.27
638.825	8693.8
639.019	8607.78
639.212	8663.08
639.406	8697.89
639.599	8517.67
639.793	8562.73
639.986	8554.54
640.18	8419.37
640.373	8392.75
640.567	8476.71
640.76	8230.96
640.954	8181.81
641.147	8200.24
641.34	8106.03
641.534	8065.07
641.727	8077.36
641.92	8083.5
642.114	7999.54
642.307	7813.17
642.5	7850.03
642.694	7745.59
642.887	7817.27
643.08	7858.23
643.273	7624.76
643.467	7643.19
643.66	7540.79
643.853	7528.5
644.046	7555.13
644.239	7450.68
644.432	7381.05
644.626	7309.37
644.819	7247.93
645.012	7338.04
645.205	7221.31
645.398	7190.59
645.591	7088.19
645.784	7139.39
645.977	7045.18
646.17	7036.99
646.363	6891.59
646.556	6932.54
646.749	6875.2
646.942	6953.02
647.135	6707.27
647.328	6725.7
647.521	6737.99
647.714	6764.61
647.907	6619.21
648.099	6602.82
648.292	6563.91
648.485	6594.63
648.678	6334.54
648.871	6502.47
649.064	6438.98
649.256	6383.69
649.449	6510.66
649.642	6408.26
649.835	6260.81
650.027	6185.04
650.22	6426.7
650.413	6154.32
650.605	6221.9
650.798	6092.88
650.991	6074.45
651.183	6064.21
651.376	6109.26
651.568	5988.43
651.761	5714
651.954	5828.69
652.146	5920.85
652.339	5853.27
652.531	5836.88
652.724	5804.11
652.916	5703.76
653.109	5693.52
653.301	5533.78
653.494	5660.76
653.686	5693.52
653.879	5662.8
654.071	5415
654.263	5699.67
654.456	5562.45
654.648	5492.82
654.84	5464.15
655.033	5488.73
655.225	5371.99
655.417	5439.58
655.61	5326.94
655.802	5423.19
655.994	5150.81
656.186	5267.55
656.379	5148.76
656.571	5265.5
656.763	5091.42
656.955	5148.76
657.148	5122.14
657.34	5197.92
657.532	4972.64
657.724	5075.04
657.916	4884.58
658.108	5085.28
658.3	5005.41
658.492	4845.66
658.684	4862.05
658.876	4749.41
659.068	4907.1
659.26	4870.24
659.452	4802.66
659.644	4782.18
659.836	4644.96
660.028	4612.2
660.22	4753.51
660.412	4704.35
660.604	4489.32
660.796	4581.48
660.988	4612.2
661.18	4417.64
661.372	4577.38
661.563	4427.88
661.755	4450.41
661.947	4431.98
662.139	4632.68
662.331	4313.19
662.522	4399.21
662.714	4292.71
662.906	4403.3
663.097	4274.28
663.289	4237.42
663.481	4227.18
663.673	4132.97
663.864	4171.88
664.056	4116.59
664.247	4038.77
664.439	4100.2
664.631	4169.84
664.822	4098.16
665.014	4063.34
665.205	4051.05
665.397	3981.42
665.588	4038.77
665.78	3862.64
665.971	3973.23
666.163	3819.63
666.354	3747.95
666.546	3866.74
666.737	3735.67
666.929	3790.96
667.12	3729.52
667.311	3721.33
667.503	3801.2
667.694	3647.6
667.885	3797.1
668.077	3565.68
668.268	3590.26
668.459	3776.63
668.651	3610.74
668.842	3700.85
669.033	3645.56
669.224	3635.32
669.416	3565.68
669.607	3635.32
669.798	3502.2
669.989	3500.15
670.18	3504.25
670.371	3571.83
670.563	3448.95
670.754	3625.08
670.945	3453.05
671.136	3457.14
671.327	3414.13
671.518	3430.52
671.709	3432.57
671.9	3477.62
672.091	3420.28
672.282	3272.82
672.473	3483.77
672.664	3207.29
672.855	3209.34
673.046	3407.99
673.237	3383.42
673.428	3377.27
673.619	3342.46
673.809	3244.15
674	3219.58
674.191	3221.63
674.382	3135.61
674.573	3190.91
674.764	3252.35
674.954	3149.95
675.145	3203.19
675.336	3172.47
675.527	3166.33
675.717	3113.08
675.908	3082.36
676.099	3080.32
676.289	3143.8
676.48	3186.81
676.671	3022.97
676.861	3158.14
677.052	3053.69
677.243	3145.85
677.433	2973.82
677.624	2842.75
677.814	2979.97
678.005	3147.9
678.195	3055.74
678.386	2965.63
678.576	2949.25
678.767	2988.16
678.957	3080.32
679.148	2889.85
679.338	2990.21
679.529	2916.48
679.719	3035.26
679.909	2852.99
680.1	2945.15
680.29	2914.43
680.481	2893.95
680.671	3010.68
680.861	2934.91
681.052	2742.4
681.242	2973.82
681.432	2883.71
681.622	2898.05
681.813	2750.59
682.003	2889.85
682.193	2863.23
682.383	2828.42
682.573	2826.37
682.764	2820.22
682.954	2889.85
683.144	2797.7
683.334	2832.51
683.524	2988.16
683.714	2893.95
683.904	2816.13
684.094	2848.9
684.284	2822.27
684.474	2793.6
684.664	2828.42
684.854	2834.56
685.044	2863.23
685.234	2717.83
685.424	2764.93
685.614	2779.26
685.804	2807.94
685.994	2844.8
686.184	2764.93
686.374	2818.18
686.564	2826.37
686.753	2695.3
686.943	2785.41
687.133	2670.72
687.323	2588.8
687.513	2678.91
687.702	2689.15
687.892	2703.49
688.082	2678.91
688.272	2701.44
688.461	2715.78
688.651	2814.08
688.841	2793.6
689.03	2709.63
689.22	2650.24
689.41	2580.61
689.599	2680.96
689.789	2562.18
689.979	2719.87
690.168	2695.3
690.358	2549.89
690.547	2515.08
690.737	2740.35
690.926	2670.72
691.116	2549.89
691.305	2642.05
691.495	2674.82
691.684	2506.88
691.874	2527.36
692.063	2613.38
692.252	2506.88
692.442	2644.1
692.631	2599.04
692.82	2523.27
693.01	2482.31
693.199	2424.97
693.388	2490.5
693.578	2416.77
693.767	2515.08
693.956	2431.11
694.146	2347.14
694.335	2553.99
694.524	2490.5
694.713	2500.74
694.902	2621.57
695.092	2427.01
695.281	2410.63
695.47	2418.82
695.659	2461.83
695.848	2463.88
696.037	2467.97
696.226	2394.25
696.415	2449.54
696.604	2476.16
696.793	2472.07
696.982	2320.52
697.171	2498.69
697.36	2486.4
697.549	2410.63
697.738	2418.82
697.927	2336.9
698.116	2427.01
698.305	2439.3
698.494	2308.23
698.683	2470.02
698.872	2291.85
699.061	2369.67
699.25	2400.39
699.438	2359.43
699.627	2375.81
699.816	2408.58
700.005	2357.38
700.193	2283.66
700.382	2459.78
700.571	2433.16
700.76	2361.48
700.948	2322.57
701.137	2318.47
701.326	2199.69
701.514	2330.76
701.703	2226.31
701.892	2369.67
702.08	2244.74
702.269	2394.25
702.457	2250.89
702.646	2240.65
702.834	2285.7
703.023	2187.4
703.212	2281.61
703.4	2175.11
703.589	2224.26
703.777	2166.92
703.965	2177.16
704.154	2179.21
704.342	2265.22
704.531	2097.29
704.719	2132.11
704.907	2234.5
705.096	2214.02
705.284	2156.68
705.472	2144.39
705.661	2328.71
705.849	2195.59
706.037	2248.84
706.226	2082.95
706.414	2211.98
706.602	2037.9
706.79	2156.68
706.979	2166.92
707.167	2123.91
707.355	2091.15
707.543	2113.67
707.731	2154.63
707.919	2021.52
708.107	2076.81
708.296	2134.15
708.484	2017.42
708.672	2142.35
708.86	2060.43
709.048	2138.25
709.236	2072.72
709.424	1990.8
709.612	1984.65
709.8	1982.6
709.988	2019.47
710.176	2042
710.364	2054.28
710.551	1978.51
710.739	2076.81
710.927	2074.76
711.115	1898.64
711.303	2099.34
711.491	2009.23
711.679	1994.89
711.866	2025.61
712.054	2035.85
712.242	1925.26
712.43	1976.46
712.617	1958.03
712.805	1900.69
712.993	1939.6
713.181	1958.03
713.368	2027.66
713.556	1992.84
713.744	2009.23
713.931	1841.29
714.119	1962.12
714.306	1925.26
714.494	1960.08
714.682	1933.45
714.869	1843.34
715.057	2013.32
715.244	1896.59
715.432	1939.6
715.619	1966.22
715.807	1882.25
715.994	1915.02
716.182	1902.73
716.369	1843.34
716.556	1841.29
716.744	1929.36
716.931	1826.96
717.119	1833.1
717.306	1935.5
717.493	1925.26
717.681	1824.91
717.868	1884.3
718.055	1788.05
718.242	1831.05
718.43	1872.01
718.617	1786
718.804	1869.97
718.991	1814.67
719.179	1824.91
719.366	1693.84
719.553	1747.09
719.74	1786
719.927	1810.58
720.114	1712.27
720.301	1839.25
720.488	1802.38
720.676	1687.7
720.863	1722.51
721.05	1718.42
721.237	1683.6
721.424	1681.55
721.611	1788.05
721.798	1699.98
721.985	1769.62
722.172	1689.74
722.358	1699.98
722.545	1747.09
722.732	1589.39
722.919	1810.58
723.106	1736.85
723.293	1599.63
723.48	1837.2
723.667	1712.27
723.853	1679.51
724.04	1593.49
724.227	1652.88
724.414	1591.44
724.6	1609.87
724.787	1618.07
724.974	1726.61
725.161	1728.66
725.347	1777.81
725.534	1564.82
725.72	1648.79
725.907	1677.46
726.094	1558.67
726.28	1714.32
726.467	1630.35
726.653	1595.54
726.84	1605.78
727.027	1636.5
727.213	1536.15
727.4	1599.63
727.586	1579.15
727.773	1663.12
727.959	1609.87
728.145	1626.26
728.332	1591.44
728.518	1566.87
728.705	1595.54
728.891	1630.35
729.077	1542.29
729.264	1575.06
729.45	1523.86
729.636	1558.67
729.823	1560.72
730.009	1538.2
730.195	1593.49
730.382	1585.3
730.568	1634.45
730.754	1542.29
730.94	1478.8
731.126	1558.67
731.313	1646.74
731.499	1509.52
731.685	1525.91
731.871	1501.33
732.057	1566.87
732.243	1509.52
732.429	1456.28
732.615	1595.54
732.801	1527.96
732.987	1579.15
733.173	1482.9
733.359	1460.37
733.545	1446.04
733.731	1613.97
733.917	1556.63
734.103	1509.52
734.289	1607.83
734.475	1530
734.661	1487
734.847	1597.59
735.033	1560.72
735.219	1448.08
735.404	1370.26
735.59	1466.52
735.776	1499.28
735.962	1390.74
736.148	1468.56
736.333	1515.67
736.519	1392.79
736.705	1437.84
736.89	1452.18
737.076	1503.38
737.262	1368.21
737.447	1304.73
737.633	1413.27
737.819	1392.79
738.004	1357.97
738.19	1456.28
738.375	1405.08
738.561	1347.73
738.747	1294.49
738.932	1378.45
739.118	1452.18
739.303	1394.84
739.489	1216.66
739.674	1419.41
739.859	1478.8
740.045	1335.45
740.23	1372.31
740.416	1411.22
740.601	1304.73
740.786	1343.64
740.972	1360.02
741.157	1362.07
741.342	1310.87
741.528	1405.08
741.713	1474.71
741.898	1331.35
742.084	1282.2
742.269	1325.21
742.454	1343.64
742.639	1446.04
742.824	1306.77
743.01	1310.87
743.195	1333.4
743.38	1280.15
743.565	1390.74
743.75	1271.96
743.935	1276.06
744.12	1308.82
744.305	1274.01
744.49	1235.1
744.675	1263.77
744.86	1302.68
745.045	1212.57
745.23	1196.18
745.415	1245.34
745.6	1247.38
745.785	1196.18
745.97	1251.48
746.155	1286.3
746.34	1187.99
746.525	1261.72
746.71	1175.7
746.895	1192.09
747.079	1231
747.264	1245.34
747.449	1228.95
747.634	1124.51
747.819	1028.25
748.003	1142.94
748.188	1106.07
748.373	1196.18
748.557	1130.65
748.742	1081.5
748.927	1071.26
749.111	1159.32
749.296	1044.63
749.481	1130.65
749.665	1101.98
749.85	1140.89
750.034	1159.32
750.219	1116.31
750.404	1015.96
750.588	1149.08
750.773	1009.82
750.957	1061.02
751.141	1042.59
751.326	1034.39
751.51	1001.63
751.695	1034.39
751.879	1011.87
752.064	919.71
752.248	1042.59
752.432	962.72
752.617	1011.87
752.801	979.1
752.985	981.15
753.17	925.85
753.354	999.58
753.538	944.28
753.722	975
753.907	927.9
754.091	866.46
754.275	893.09
754.459	903.32
754.643	948.38
754.828	946.33
755.012	905.37
755.196	917.66
755.38	772.25
755.564	866.46
755.748	845.98
755.932	886.94
756.116	817.31
756.3	868.51
756.484	909.47
756.668	833.69
756.852	862.37
757.036	823.45
757.22	856.22
757.404	780.45
757.588	845.98
757.772	833.69
757.956	819.36
758.14	845.98
758.323	813.21
758.507	786.59
758.691	835.74
758.875	770.21
759.059	796.83
759.242	729.25
759.426	796.83
759.61	725.15
759.794	796.83
759.977	733.34
760.161	788.64
760.345	706.72
760.528	784.54
760.712	794.78
760.895	725.15
761.079	790.69
761.263	745.63
761.446	733.34
761.63	786.59
761.813	770.21
761.997	764.06
762.18	753.82
762.364	716.96
762.547	749.73
762.731	671.9
762.914	639.14
763.098	706.72
763.281	665.76
763.464	651.42
763.648	714.91
763.831	704.67
764.015	592.03
764.198	692.38
764.381	700.58
764.564	653.47
764.748	643.23
764.931	684.19
765.114	676
765.297	667.81
765.481	700.58
765.664	688.29
765.847	579.75
766.03	737.44
766.213	620.71
766.397	684.19
766.58	600.23
766.763	673.95
766.946	581.79
767.129	632.99
767.312	618.66
767.495	651.42
767.678	589.99
767.861	540.83
768.044	604.32
768.227	639.14
768.41	628.9
768.593	622.75
768.776	526.5
768.959	542.88
769.142	571.55
769.324	676
769.507	524.45
769.69	626.85
769.873	544.93
770.056	667.81
770.239	647.33
770.421	536.74
770.604	589.99
770.787	587.94
770.97	536.74
771.152	526.5
771.335	553.12
771.518	581.79
771.7	587.94
771.883	561.31
772.066	673.95
772.248	544.93
772.431	569.51
772.613	563.36
772.796	522.4
772.978	540.83
773.161	516.26
773.343	516.26
773.526	534.69
773.708	520.35
773.891	530.59
774.073	452.77
774.256	567.46
774.438	542.88
774.621	518.31
774.803	583.84
774.985	499.88
775.168	493.73
775.35	450.72
775.532	526.5
775.715	481.44
775.897	477.35
776.079	454.82
776.261	516.26
776.444	483.49
776.626	546.98
776.808	426.15
776.99	481.44
777.173	444.58
777.355	465.06
777.537	499.88
777.719	501.92
777.901	510.11
778.083	460.96
778.265	428.2
778.447	452.77
778.629	426.15
778.811	395.43
778.993	477.35
779.175	483.49
779.357	401.57
779.539	471.2
779.721	424.1
779.903	436.39
780.085	360.61
780.267	483.49
780.449	364.71
780.631	338.09
780.812	377
780.994	372.9
781.176	397.48
781.358	385.19
781.54	475.3
781.721	415.91
781.903	368.81
782.085	364.71
782.267	364.71
782.448	403.62
782.63	327.85
782.812	401.57
782.993	370.85
783.175	346.28
783.357	372.9
783.538	336.04
783.72	323.75
783.901	307.37
784.083	276.65
784.264	307.37
784.446	362.66
784.627	377
784.809	387.24
784.99	340.13
785.172	397.48
785.353	231.59
785.535	239.78
785.716	327.85
785.897	346.28
786.079	258.21
786.26	299.17
786.441	237.74
786.623	268.45
786.804	239.78
786.985	303.27
787.167	321.7
787.348	274.6
787.529	288.93
787.71	352.42
787.891	303.27
788.073	288.93
788.254	284.84
788.435	182.44
788.616	340.13
788.797	262.31
788.978	264.36
789.159	323.75
789.34	290.98
789.522	211.11
789.703	256.17
789.884	313.51
790.065	227.5
790.246	233.64
790.427	225.45
790.607	284.84
790.788	241.83
790.969	239.78
791.15	247.97
791.331	233.64
791.512	239.78
791.693	213.16
791.874	190.63
792.054	276.65
792.235	270.5
792.416	180.39
792.597	221.35
792.778	231.59
792.958	190.63
793.139	260.26
793.32	207.02
793.5	239.78
793.681	293.03
793.862	227.5
794.042	225.45
794.223	186.54
794.404	237.74
794.584	172.2
794.765	221.35
794.945	202.92
795.126	270.5
795.306	174.25
795.487	264.36
795.667	174.25
795.848	258.21
796.028	213.16
796.209	200.87
796.389	202.92
796.57	166.06
796.75	229.54
796.93	147.62
797.111	235.69
797.291	217.26
797.471	207.02
797.652	225.45
797.832	114.86
798.012	104.62
798.192	176.3
798.373	170.15
798.553	139.43
798.733	192.68
798.913	221.35
799.093	135.34
799.274	145.58
799.454	247.97
799.634	133.29
799.814	186.54
799.994	198.82
800.174	182.44
800.354	168.1
800.534	190.63
800.714	188.58
800.894	164.01
801.074	178.34
801.254	186.54
801.434	231.59
801.614	139.43
801.794	188.58
801.974	360.61
802.154	151.72
802.334	178.34
802.514	207.02
802.693	139.43
802.873	94.38
803.053	190.63
803.233	149.67
803.413	147.62
803.592	217.26
803.772	178.34
803.952	227.5
804.131	131.24
804.311	180.39
804.491	116.9
804.67	116.9
804.85	166.06
805.03	131.24
805.209	272.55
805.389	61.61
805.568	211.11
805.748	155.82
805.928	192.68
806.107	168.1
806.287	213.16
806.466	151.72
806.646	153.77
806.825	204.97
807.004	131.24
807.184	166.06
807.363	172.2
807.543	147.62
807.722	170.15
807.901	133.29
808.081	118.95
808.26	102.57
808.439	164.01
808.619	71.85
808.798	143.53
808.977	143.53
809.156	147.62
809.336	143.53
809.515	106.67
809.694	139.43
809.873	123.05
810.052	147.62
810.231	90.28
810.411	98.47
810.59	131.24
810.769	153.77
810.948	198.82
811.127	92.33
811.306	174.25
811.485	90.28
811.664	204.97
811.843	100.52
812.022	106.67
812.201	77.99
812.38	151.72
812.559	108.71
812.737	151.72
812.916	133.29
813.095	114.86
813.274	131.24
813.453	127.14
813.632	159.91
813.811	86.19
813.989	137.38
814.168	69.8
814.347	170.15
814.526	106.67
814.704	114.86
814.883	135.34
815.062	80.04
815.24	137.38
815.419	82.09
815.598	51.37
815.776	63.66
815.955	139.43
816.133	133.29
816.312	145.58
816.49	155.82
816.669	133.29
816.847	86.19
817.026	108.71
817.204	131.24
817.383	100.52
817.561	24.75
817.74	131.24
817.918	71.85
818.097	161.96
818.275	102.57
818.453	114.86
818.632	45.23
818.81	34.99
818.988	86.19
819.167	127.14
819.345	131.24
819.523	131.24
819.701	65.71
819.879	96.43
820.058	116.9
820.236	98.47
820.414	75.95
820.592	123.05
820.77	75.95
820.948	82.09
821.127	22.7
821.305	90.28
821.483	100.52
821.661	164.01
821.839	75.95
822.017	123.05
822.195	108.71
822.373	186.54
822.551	37.03
822.729	77.99
822.907	80.04
823.085	65.71
823.262	118.95
823.44	100.52
823.618	67.75
823.796	123.05
823.974	129.19
824.152	57.51
824.329	67.75
824.507	92.33
824.685	82.09
824.863	125.1
825.04	106.67
825.218	67.75
825.396	59.56
825.574	104.62
825.751	55.47
825.929	121
826.107	121
826.284	96.43
826.462	106.67
826.639	90.28
826.817	73.9
826.994	106.67
827.172	172.2
827.349	88.23
827.527	43.18
827.704	92.33
827.882	86.19
828.059	18.6
828.237	41.13
828.414	49.32
828.591	86.19
828.769	98.47
828.946	55.47
829.124	141.48
829.301	84.14
829.478	114.86
829.655	133.29
829.833	121
830.01	49.32
830.187	96.43
830.364	100.52
830.542	71.85
830.719	73.9
830.896	112.81
831.073	2.22
831.25	53.42
831.427	-16.21
831.604	4.27
831.782	32.94
831.959	67.75
832.136	123.05
832.313	84.14
832.49	43.18
832.667	51.37
832.844	0.17
833.021	114.86
833.198	51.37
833.374	0.17
833.551	63.66
833.728	92.33
833.905	90.28
834.082	94.38
834.259	41.13
834.436	41.13
834.612	57.51
834.789	84.14
834.966	20.65
835.143	82.09
835.319	41.13
835.496	-3.93
835.673	104.62
835.85	90.28
836.026	102.57
836.203	94.38
836.38	92.33
836.556	63.66
836.733	59.56
836.909	47.27
837.086	-3.93
837.262	59.56
837.439	90.28
837.616	82.09
837.792	67.75
837.968	100.52
838.145	75.95
838.321	41.13
838.498	121
838.674	51.37
838.851	73.9
839.027	104.62
839.203	28.84
839.38	135.34
839.556	43.18
839.732	49.32
839.909	61.61
840.085	106.67
840.261	73.9
840.437	84.14
840.614	77.99
840.79	123.05
840.966	65.71
841.142	73.9
841.318	106.67
841.494	80.04
841.671	30.89
841.847	12.46
842.023	-3.93
842.199	49.32
842.375	65.71
842.551	67.75
842.727	-20.31
842.903	-5.97
843.079	26.79
843.255	34.99
843.431	8.36
843.607	18.6
843.783	59.56
843.959	69.8
844.134	82.09
844.31	90.28
844.486	106.67
844.662	84.14
844.838	47.27
845.013	-3.93
845.189	73.9
845.365	67.75
845.541	14.51
845.716	94.38
845.892	37.03
846.068	39.08
846.244	26.79
846.419	37.03
846.595	-28.5
846.77	82.09
846.946	43.18
847.122	24.75
847.297	82.09
847.473	49.32
847.648	59.56
847.824	22.7
847.999	69.8
848.175	88.23
848.35	71.85
848.526	45.23
848.701	71.85
848.876	-1.88
849.052	-20.31
849.227	2.22
849.403	28.84
849.578	123.05
849.753	-36.69
849.929	129.19
850.104	34.99
850.279	61.61
850.454	-12.12
850.63	22.7
850.805	18.6
850.98	75.95
851.155	28.84
851.33	30.89
851.505	86.19
851.681	14.51
851.856	18.6
852.031	8.36
852.206	14.51
852.381	34.99
852.556	67.75
852.731	-1.88
852.906	53.42
853.081	26.79
853.256	80.04
853.431	28.84
853.606	88.23
853.781	-3.93
853.956	26.79
854.131	92.33
854.305	16.55
854.48	49.32
854.655	-5.97
854.83	18.6
855.005	-18.26
855.18	24.75
855.354	41.13
855.529	12.46
855.704	34.99
855.879	69.8
856.053	65.71
856.228	-1.88
856.403	61.61
856.577	16.55
856.752	82.09
856.926	37.03
857.101	41.13
857.276	-24.4
857.45	59.56
857.625	110.76
857.799	12.46
857.974	43.18
858.148	37.03
858.323	61.61
858.497	28.84
858.672	34.99
858.846	12.46
859.02	69.8
859.195	-8.02
859.369	57.51
859.543	77.99
859.718	116.9
859.892	-81.75
860.066	0.17
860.241	53.42
860.415	100.52
860.589	84.14
860.763	16.55
860.938	-22.36
861.112	108.71
861.286	49.32
861.46	41.13
861.634	37.03
861.808	86.19
861.982	-24.4
862.157	12.46
862.331	34.99
862.505	28.84
862.679	22.7
862.853	2.22
863.027	43.18
863.201	34.99
863.375	75.95
863.549	57.51
863.722	-5.97
863.896	-51.03
864.07	14.51
864.244	32.94
864.418	22.7
864.592	-8.02
864.766	18.6
864.939	-26.45
865.113	34.99
865.287	41.13
865.461	69.8
865.634	67.75
865.808	18.6
865.982	-24.4
866.156	-5.97
866.329	24.75
866.503	24.75
866.676	34.99
866.85	96.43
867.024	32.94
867.197	8.36
867.371	32.94
867.544	8.36
867.718	-5.97
867.891	-8.02
868.065	61.61
868.238	69.8
868.412	8.36
868.585	-48.98
868.759	-10.07
868.932	-1.88
869.105	-20.31
869.279	14.51
869.452	45.23
869.625	0.17
869.799	41.13
869.972	116.9
870.145	-34.64
870.319	90.28
870.492	43.18
870.665	73.9
870.838	67.75
871.011	-22.36
871.185	69.8
871.358	22.7
871.531	12.46
871.704	86.19
871.877	86.19
872.05	32.94
872.223	98.47
872.396	45.23
872.569	16.55
872.742	53.42
872.915	65.71
873.088	45.23
873.261	59.56
873.434	59.56
873.607	18.6
873.78	59.56
873.953	77.99
874.126	32.94
874.299	6.31
874.471	45.23
874.644	71.85
874.817	59.56
874.99	98.47
875.163	2.22
875.335	-26.45
875.508	-38.74
875.681	-30.55
875.853	-30.55
876.026	34.99
876.199	0.17
876.371	55.47
876.544	37.03
876.717	61.61
876.889	88.23
877.062	32.94
877.234	63.66
877.407	32.94
877.579	-1.88
877.752	98.47
877.924	82.09
878.097	73.9
878.269	65.71
878.442	39.08
878.614	-53.08
878.786	75.95
878.959	43.18
879.131	-28.5
879.303	10.41
879.476	2.22
879.648	2.22
879.82	59.56
879.993	-20.31
880.165	26.79
880.337	69.8
880.509	-32.6
880.681	-10.07
880.854	67.75
881.026	-77.65
881.198	57.51
881.37	30.89
881.542	-48.98
881.714	37.03
881.886	16.55
882.058	2.22
882.23	12.46
882.402	-8.02
882.574	22.7
882.746	65.71
882.918	10.41
883.09	104.62
883.262	53.42
883.434	57.51
883.606	39.08
883.778	94.38
883.95	129.19
884.122	8.36
884.293	39.08
884.465	8.36
884.637	131.24
884.809	98.47
884.98	-1.88
885.152	116.9
885.324	55.47
885.496	30.89
885.667	-3.93
885.839	53.42
886.011	53.42
886.182	-5.97
886.354	75.95
886.525	-51.03
886.697	49.32
886.869	-57.17
887.04	10.41
887.212	-42.84
887.383	39.08
887.555	71.85
887.726	22.7
887.897	22.7
888.069	2.22
888.24	-18.26
888.412	67.75
888.583	8.36
888.754	20.65
888.926	14.51
889.097	28.84
889.268	-24.4
889.44	-5.97
889.611	22.7
889.782	-44.88
889.953	12.46
890.125	69.8
890.296	0.17
890.467	51.37
890.638	10.41
890.809	-30.55
890.98	106.67
891.151	34.99
891.323	-24.4
891.494	20.65
891.665	39.08
891.836	45.23
892.007	-28.5
892.178	45.23
892.349	20.65
892.52	90.28
892.691	71.85
892.862	30.89
893.032	116.9
893.203	-73.56
893.374	45.23
893.545	45.23
893.716	4.27
893.887	-3.93
894.057	-51.03
894.228	43.18
894.399	16.55
894.57	82.09
894.74	65.71
894.911	37.03
895.082	45.23
895.253	-18.26
895.423	65.71
895.594	14.51
895.764	57.51
895.935	-28.5
896.106	75.95
896.276	73.9
896.447	0.17
896.617	51.37
896.788	24.75
896.958	12.46
897.129	53.42
897.299	84.14
897.47	51.37
897.64	32.94
897.81	-20.31
897.981	-30.55
898.151	2.22
898.322	6.31
898.492	41.13
898.662	41.13
898.832	-38.74
899.003	145.58
899.173	45.23
899.343	10.41
899.513	-24.4
