Data from USB4F104151__102__13-00-26-617.txt Node

Date: Fri Mar 14 13:00:26 EDT 2025
User: louis
Spectrometer: USB4F10415
Trigger mode: 4
Integration Time (sec): 1.000000E-2
Scans to average: 1
Electric dark correction enabled: true
Nonlinearity correction enabled: false
Boxcar width: 0
XAxis mode: Wavelengths
Number of Pixels in Spectrum: 3648
>>>>>Begin Spectral Data<<<<<
178.204	-68.95
178.424	-68.95
178.644	-68.95
178.864	-58.71
179.084	-93.52
179.304	-54.61
179.524	-11.61
179.744	45.74
179.964	80.55
180.184	19.11
180.404	6.83
180.624	-68.95
180.844	-40.28
181.064	41.64
181.283	-34.13
181.503	23.21
181.723	-7.51
181.943	-66.9
182.163	-42.32
182.383	-1.37
182.602	19.11
182.822	31.4
183.042	-11.61
183.262	-30.04
183.482	-1.37
183.701	-17.75
183.921	-15.7
184.141	-58.71
184.361	19.11
184.58	10.92
184.8	33.45
185.02	-42.32
185.239	70.31
185.459	-17.75
185.679	94.89
185.898	-19.8
186.118	6.83
186.338	-15.7
186.557	0.68
186.777	-46.42
186.997	-66.9
187.216	-19.8
187.436	15.02
187.655	27.31
187.875	23.21
188.095	21.16
188.314	15.02
188.534	0.68
188.753	-17.75
188.973	23.21
189.192	37.55
189.412	-56.66
189.631	-66.9
189.851	-15.7
190.07	-34.13
190.29	-42.32
190.509	29.35
190.729	6.83
190.948	15.02
191.168	-13.65
191.387	8.87
191.607	49.83
191.826	55.98
192.045	-60.76
192.265	2.73
192.484	-48.47
192.704	-30.04
192.923	2.73
193.142	-25.94
193.362	25.26
193.581	-23.89
193.8	-38.23
194.02	-1.37
194.239	-7.51
194.458	-9.56
194.678	-23.89
194.897	8.87
195.116	-7.51
195.335	31.4
195.555	-11.61
195.774	43.69
195.993	-5.46
196.212	15.02
196.432	-58.71
196.651	19.11
196.87	-7.51
197.089	33.45
197.308	25.26
197.528	-34.13
197.747	39.59
197.966	-44.37
198.185	60.07
198.404	-19.8
198.623	72.36
198.842	-52.56
199.062	107.18
199.281	47.79
199.5	-21.85
199.719	47.79
199.938	-11.61
200.157	-23.89
200.376	-17.75
200.595	-91.48
200.814	-60.76
201.033	19.11
201.252	8.87
201.471	-15.7
201.69	43.69
201.909	15.02
202.128	-42.32
202.347	15.02
202.566	-25.94
202.785	-9.56
203.004	51.88
203.223	-13.65
203.442	12.97
203.661	-48.47
203.879	-15.7
204.098	-5.46
204.317	25.26
204.536	37.55
204.755	-68.95
204.974	35.5
205.193	-7.51
205.411	-9.56
205.63	19.11
205.849	68.27
206.068	23.21
206.287	-44.37
206.505	12.97
206.724	4.78
206.943	72.36
207.162	23.21
207.381	15.02
207.599	-38.23
207.818	15.02
208.037	-23.89
208.255	74.41
208.474	15.02
208.693	-81.24
208.911	-34.13
209.13	21.16
209.349	-19.8
209.567	-25.94
209.786	39.59
210.005	72.36
210.223	2.73
210.442	0.68
210.661	35.5
210.879	41.64
211.098	33.45
211.316	2.73
211.535	6.83
211.753	2.73
211.972	84.65
212.191	-27.99
212.409	-7.51
212.628	-5.46
212.846	8.87
213.065	74.41
213.283	19.11
213.502	43.69
213.72	15.02
213.938	-27.99
214.157	6.83
214.375	-9.56
214.594	-56.66
214.812	6.83
215.031	27.31
215.249	-13.65
215.467	-11.61
215.686	-73.04
215.904	19.11
216.122	49.83
216.341	49.83
216.559	-46.42
216.778	64.17
216.996	19.11
217.214	-60.76
217.432	25.26
217.651	-42.32
217.869	0.68
218.087	51.88
218.306	-11.61
218.524	6.83
218.742	21.16
218.96	78.51
219.179	-46.42
219.397	47.79
219.615	0.68
219.833	-15.7
220.051	-58.71
220.27	66.22
220.488	55.98
220.706	33.45
220.924	-58.71
221.142	6.83
221.36	10.92
221.578	92.84
221.796	17.07
222.015	31.4
222.233	35.5
222.451	10.92
222.669	-11.61
222.887	-36.18
223.105	-19.8
223.323	-32.08
223.541	2.73
223.759	29.35
223.977	2.73
224.195	53.93
224.413	-71
224.631	-9.56
224.849	-30.04
225.067	-30.04
225.285	15.02
225.503	-1.37
225.721	25.26
225.939	41.64
226.157	-36.18
226.375	84.65
226.592	-23.89
226.81	-9.56
227.028	64.17
227.246	0.68
227.464	35.5
227.682	25.26
227.9	15.02
228.117	49.83
228.335	-21.85
228.553	47.79
228.771	19.11
228.989	8.87
229.206	47.79
229.424	51.88
229.642	29.35
229.86	25.26
230.077	-23.89
230.295	-17.75
230.513	37.55
230.731	-38.23
230.948	-85.33
231.166	15.02
231.384	27.31
231.601	70.31
231.819	-34.13
232.037	-42.32
232.254	-15.7
232.472	0.68
232.689	-56.66
232.907	-7.51
233.125	-60.76
233.342	-21.85
233.56	43.69
233.777	-11.61
233.995	15.02
234.213	49.83
234.43	-36.18
234.648	23.21
234.865	41.64
235.083	51.88
235.3	103.08
235.518	-9.56
235.735	6.83
235.953	0.68
236.17	-50.52
236.388	6.83
236.605	0.68
236.822	23.21
237.04	-7.51
237.257	23.21
237.475	-17.75
237.692	4.78
237.909	8.87
238.127	-1.37
238.344	-42.32
238.562	33.45
238.779	31.4
238.996	33.45
239.214	25.26
239.431	-1.37
239.648	-42.32
239.865	53.93
240.083	-68.95
240.3	-17.75
240.517	19.11
240.735	-50.52
240.952	31.4
241.169	62.12
241.386	29.35
241.603	-5.46
241.821	21.16
242.038	29.35
242.255	-42.32
242.472	2.73
242.689	-19.8
242.907	8.87
243.124	-25.94
243.341	-42.32
243.558	-44.37
243.775	-30.04
243.992	23.21
244.209	-15.7
244.426	80.55
244.643	8.87
244.86	-38.23
245.078	-34.13
245.295	6.83
245.512	-56.66
245.729	23.21
245.946	107.18
246.163	12.97
246.38	-25.94
246.597	-79.19
246.814	23.21
247.031	-40.28
247.248	23.21
247.464	21.16
247.681	-19.8
247.898	-15.7
248.115	55.98
248.332	-66.9
248.549	27.31
248.766	98.99
248.983	49.83
249.2	-15.7
249.417	43.69
249.633	39.59
249.85	19.11
250.067	43.69
250.284	-11.61
250.501	49.83
250.717	-48.47
250.934	-21.85
251.151	17.07
251.368	-21.85
251.585	27.31
251.801	19.11
252.018	51.88
252.235	10.92
252.451	-36.18
252.668	-1.37
252.885	27.31
253.102	-25.94
253.318	12.97
253.535	-93.52
253.752	23.21
253.968	-3.41
254.185	-3.41
254.401	29.35
254.618	-7.51
254.835	37.55
255.051	49.83
255.268	0.68
255.484	31.4
255.701	25.26
255.917	51.88
256.134	6.83
256.351	-34.13
256.567	-32.08
256.784	-13.65
257	-21.85
257.217	-54.61
257.433	-25.94
257.65	-15.7
257.866	-42.32
258.082	-99.67
258.299	-5.46
258.515	23.21
258.732	43.69
258.948	37.55
259.165	-62.8
259.381	62.12
259.597	-48.47
259.814	-23.89
260.03	12.97
260.246	15.02
260.463	37.55
260.679	19.11
260.895	-13.65
261.112	53.93
261.328	47.79
261.544	23.21
261.761	86.7
261.977	39.59
262.193	35.5
262.409	25.26
262.626	0.68
262.842	35.5
263.058	41.64
263.274	39.59
263.49	43.69
263.707	-34.13
263.923	43.69
264.139	-23.89
264.355	45.74
264.571	27.31
264.787	23.21
265.004	2.73
265.22	-21.85
265.436	60.07
265.652	-21.85
265.868	-30.04
266.084	25.26
266.3	15.02
266.516	-25.94
266.732	25.26
266.948	-34.13
267.164	12.97
267.38	-17.75
267.596	27.31
267.812	-44.37
268.028	-9.56
268.244	12.97
268.46	25.26
268.676	39.59
268.892	-1.37
269.108	25.26
269.324	15.02
269.54	53.93
269.756	51.88
269.972	15.02
270.188	15.02
270.403	-19.8
270.619	17.07
270.835	-11.61
271.051	-32.08
271.267	31.4
271.483	-30.04
271.698	19.11
271.914	25.26
272.13	76.46
272.346	6.83
272.562	33.45
272.777	-25.94
272.993	23.21
273.209	-56.66
273.425	47.79
273.64	-71
273.856	37.55
274.072	23.21
274.287	-19.8
274.503	72.36
274.719	39.59
274.934	-38.23
275.15	-83.28
275.366	64.17
275.581	-27.99
275.797	47.79
276.012	51.88
276.228	2.73
276.444	12.97
276.659	23.21
276.875	-48.47
277.09	10.92
277.306	12.97
277.521	-21.85
277.737	2.73
277.952	62.12
278.168	4.78
278.383	41.64
278.599	-1.37
278.814	15.02
279.03	-17.75
279.245	29.35
279.461	-5.46
279.676	33.45
279.892	-3.41
280.107	70.31
280.322	-11.61
280.538	31.4
280.753	-19.8
280.969	49.83
281.184	72.36
281.399	39.59
281.615	55.98
281.83	-48.47
282.045	21.16
282.26	-7.51
282.476	2.73
282.691	90.79
282.906	115.37
283.122	33.45
283.337	-44.37
283.552	45.74
283.767	6.83
283.983	-1.37
284.198	41.64
284.413	-1.37
284.628	17.07
284.843	37.55
285.058	-3.41
285.274	8.87
285.489	15.02
285.704	45.74
285.919	27.31
286.134	-13.65
286.349	2.73
286.564	27.31
286.779	55.98
286.995	47.79
287.21	-52.56
287.425	98.99
287.64	4.78
287.855	-32.08
288.07	-32.08
288.285	15.02
288.5	105.13
288.715	-30.04
288.93	47.79
289.145	-5.46
289.36	21.16
289.575	-36.18
289.79	21.16
290.004	47.79
290.219	29.35
290.434	-25.94
290.649	6.83
290.864	27.31
291.079	-46.42
291.294	31.4
291.509	-27.99
291.724	-1.37
291.938	31.4
292.153	53.93
292.368	-21.85
292.583	-17.75
292.798	19.11
293.012	86.7
293.227	-66.9
293.442	-15.7
293.657	53.93
293.871	15.02
294.086	15.02
294.301	-17.75
294.516	27.31
294.73	10.92
294.945	23.21
295.16	6.83
295.374	82.6
295.589	19.11
295.804	-7.51
296.018	-32.08
296.233	-15.7
296.447	33.45
296.662	4.78
296.877	6.83
297.091	23.21
297.306	68.27
297.52	21.16
297.735	39.59
297.949	80.55
298.164	-34.13
298.378	15.02
298.593	17.07
298.807	-40.28
299.022	-9.56
299.236	2.73
299.451	-25.94
299.665	15.02
299.88	0.68
300.094	15.02
300.309	4.78
300.523	25.26
300.737	8.87
300.952	-56.66
301.166	35.5
301.381	-54.61
301.595	58.03
301.809	-21.85
302.024	-66.9
302.238	27.31
302.452	43.69
302.667	43.69
302.881	78.51
303.095	23.21
303.309	-15.7
303.524	-7.51
303.738	-52.56
303.952	33.45
304.166	60.07
304.381	64.17
304.595	6.83
304.809	17.07
305.023	82.6
305.237	66.22
305.452	27.31
305.666	72.36
305.88	68.27
306.094	33.45
306.308	47.79
306.522	6.83
306.736	76.46
306.95	-38.23
307.164	37.55
307.379	-34.13
307.593	15.02
307.807	-34.13
308.021	55.98
308.235	-91.48
308.449	19.11
308.663	-40.28
308.877	12.97
309.091	-46.42
309.305	90.79
309.519	-101.72
309.733	-25.94
309.947	-34.13
310.161	25.26
310.374	-1.37
310.588	10.92
310.802	-17.75
311.016	29.35
311.23	-9.56
311.444	72.36
311.658	17.07
311.872	0.68
312.085	15.02
312.299	-50.52
312.513	-5.46
312.727	21.16
312.941	23.21
313.154	64.17
313.368	105.13
313.582	-42.32
313.796	39.59
314.009	43.69
314.223	15.02
314.437	-13.65
314.651	49.83
314.864	76.46
315.078	37.55
315.292	-3.41
315.505	-1.37
315.719	41.64
315.933	55.98
316.146	31.4
316.36	15.02
316.573	88.75
316.787	10.92
317.001	29.35
317.214	-19.8
317.428	-5.46
317.641	10.92
317.855	4.78
318.068	-19.8
318.282	39.59
318.495	72.36
318.709	53.93
318.922	-17.75
319.136	23.21
319.349	60.07
319.563	33.45
319.776	-79.19
319.99	-97.62
320.203	72.36
320.417	-54.61
320.63	31.4
320.843	92.84
321.057	55.98
321.27	-3.41
321.483	23.21
321.697	0.68
321.91	51.88
322.124	31.4
322.337	-17.75
322.55	-25.94
322.763	25.26
322.977	27.31
323.19	-11.61
323.403	12.97
323.617	-1.37
323.83	43.69
324.043	74.41
324.256	39.59
324.469	17.07
324.683	64.17
324.896	-1.37
325.109	41.64
325.322	47.79
325.535	66.22
325.748	-5.46
325.962	92.84
326.175	2.73
326.388	107.18
326.601	0.68
326.814	10.92
327.027	45.74
327.24	76.46
327.453	8.87
327.666	21.16
327.879	39.59
328.092	45.74
328.305	41.64
328.518	53.93
328.731	92.84
328.944	17.07
329.157	10.92
329.37	55.98
329.583	45.74
329.796	92.84
330.009	12.97
330.222	-64.85
330.435	21.16
330.648	70.31
330.861	-9.56
331.073	33.45
331.286	-32.08
331.499	-23.89
331.712	51.88
331.925	25.26
332.138	-5.46
332.35	31.4
332.563	27.31
332.776	-15.7
332.989	2.73
333.202	72.36
333.414	41.64
333.627	23.21
333.84	37.55
334.053	60.07
334.265	78.51
334.478	53.93
334.691	10.92
334.903	-5.46
335.116	19.11
335.329	-48.47
335.541	55.98
335.754	0.68
335.966	41.64
336.179	23.21
336.392	-48.47
336.604	6.83
336.817	27.31
337.029	-9.56
337.242	15.02
337.454	-32.08
337.667	17.07
337.88	105.13
338.092	45.74
338.305	31.4
338.517	-23.89
338.729	76.46
338.942	-13.65
339.154	39.59
339.367	-13.65
339.579	8.87
339.792	-9.56
340.004	98.99
340.217	-5.46
340.429	-27.99
340.641	10.92
340.854	15.02
341.066	23.21
341.278	43.69
341.491	19.11
341.703	-17.75
341.915	-5.46
342.128	-3.41
342.34	23.21
342.552	-5.46
342.764	72.36
342.977	12.97
343.189	27.31
343.401	15.02
343.613	-15.7
343.826	29.35
344.038	12.97
344.25	-5.46
344.462	23.21
344.674	0.68
344.886	-13.65
345.099	23.21
345.311	10.92
345.523	19.11
345.735	12.97
345.947	-44.37
346.159	45.74
346.371	-25.94
346.583	12.97
346.795	19.11
347.007	19.11
347.219	-17.75
347.431	64.17
347.643	8.87
347.855	17.07
348.067	19.11
348.279	19.11
348.491	35.5
348.703	27.31
348.915	-15.7
349.127	55.98
349.339	33.45
349.551	-58.71
349.763	-30.04
349.975	17.07
350.187	41.64
350.399	58.03
350.61	35.5
350.822	-34.13
351.034	-71
351.246	10.92
351.458	17.07
351.669	43.69
351.881	29.35
352.093	0.68
352.305	33.45
352.517	-17.75
352.728	-9.56
352.94	33.45
353.152	29.35
353.363	35.5
353.575	25.26
353.787	55.98
353.999	37.55
354.21	25.26
354.422	15.02
354.633	31.4
354.845	53.93
355.057	25.26
355.268	12.97
355.48	-21.85
355.692	12.97
355.903	-36.18
356.115	4.78
356.326	-1.37
356.538	8.87
356.749	62.12
356.961	80.55
357.172	82.6
357.384	8.87
357.595	8.87
357.807	-32.08
358.018	-54.61
358.23	37.55
358.441	-1.37
358.653	6.83
358.864	12.97
359.075	27.31
359.287	17.07
359.498	8.87
359.709	37.55
359.921	10.92
360.132	-9.56
360.344	2.73
360.555	25.26
360.766	62.12
360.977	35.5
361.189	12.97
361.4	-3.41
361.611	51.88
361.823	19.11
362.034	39.59
362.245	70.31
362.456	-17.75
362.667	-3.41
362.879	-19.8
363.09	45.74
363.301	-3.41
363.512	12.97
363.723	35.5
363.935	23.21
364.146	-1.37
364.357	-9.56
364.568	31.4
364.779	-81.24
364.99	27.31
365.201	-25.94
365.412	19.11
365.623	-25.94
365.834	-36.18
366.045	15.02
366.256	6.83
366.467	115.37
366.678	62.12
366.889	51.88
367.1	86.7
367.311	96.94
367.522	76.46
367.733	-40.28
367.944	10.92
368.155	2.73
368.366	51.88
368.577	35.5
368.788	39.59
368.999	-5.46
369.209	90.79
369.42	10.92
369.631	58.03
369.842	70.31
370.053	-81.24
370.264	4.78
370.474	15.02
370.685	8.87
370.896	29.35
371.107	-42.32
371.317	33.45
371.528	0.68
371.739	15.02
371.95	76.46
372.16	43.69
372.371	41.64
372.582	-17.75
372.792	6.83
373.003	66.22
373.214	-13.65
373.424	0.68
373.635	-58.71
373.846	41.64
374.056	27.31
374.267	19.11
374.477	-11.61
374.688	80.55
374.898	17.07
375.109	-30.04
375.319	39.59
375.53	-42.32
375.74	49.83
375.951	-122.2
376.161	55.98
376.372	15.02
376.582	58.03
376.793	17.07
377.003	23.21
377.214	6.83
377.424	-1.37
377.635	19.11
377.845	-1.37
378.055	80.55
378.266	-19.8
378.476	55.98
378.686	-17.75
378.897	51.88
379.107	62.12
379.317	35.5
379.528	43.69
379.738	53.93
379.948	17.07
380.158	8.87
380.369	19.11
380.579	17.07
380.789	53.93
380.999	64.17
381.21	4.78
381.42	43.69
381.63	49.83
381.84	-5.46
382.05	31.4
382.261	37.55
382.471	4.78
382.681	96.94
382.891	64.17
383.101	-3.41
383.311	33.45
383.521	-13.65
383.731	-15.7
383.941	23.21
384.151	4.78
384.361	-5.46
384.571	-9.56
384.781	-46.42
384.991	66.22
385.201	84.65
385.411	-32.08
385.621	4.78
385.831	17.07
386.041	29.35
386.251	31.4
386.461	37.55
386.671	15.02
386.881	-19.8
387.091	-56.66
387.301	47.79
387.511	2.73
387.72	0.68
387.93	-23.89
388.14	31.4
388.35	-3.41
388.56	47.79
388.769	39.59
388.979	41.64
389.189	-34.13
389.399	90.79
389.609	-52.56
389.818	84.65
390.028	37.55
390.238	-7.51
390.447	51.88
390.657	47.79
390.867	60.07
391.076	-15.7
391.286	47.79
391.496	45.74
391.705	-5.46
391.915	15.02
392.125	29.35
392.334	92.84
392.544	90.79
392.753	66.22
392.963	15.02
393.172	29.35
393.382	6.83
393.591	66.22
393.801	-5.46
394.01	105.13
394.22	31.4
394.429	31.4
394.639	-17.75
394.848	76.46
395.058	4.78
395.267	60.07
395.477	80.55
395.686	55.98
395.895	82.6
396.105	107.18
396.314	58.03
396.524	98.99
396.733	23.21
396.942	0.68
397.152	121.51
397.361	58.03
397.57	45.74
397.78	39.59
397.989	33.45
398.198	98.99
398.407	58.03
398.617	58.03
398.826	-7.51
399.035	33.45
399.244	74.41
399.453	-1.37
399.663	29.35
399.872	103.08
400.081	37.55
400.29	49.83
400.499	68.27
400.708	109.22
400.917	-15.7
401.127	-42.32
401.336	49.83
401.545	66.22
401.754	125.61
401.963	27.31
402.172	103.08
402.381	82.6
402.59	109.22
402.799	90.79
403.008	25.26
403.217	82.6
403.426	152.23
403.635	53.93
403.844	15.02
404.053	88.75
404.262	58.03
404.471	19.11
404.68	119.46
404.888	33.45
405.097	53.93
405.306	113.32
405.515	25.26
405.724	86.7
405.933	113.32
406.142	101.03
406.35	64.17
406.559	101.03
406.768	92.84
406.977	92.84
407.185	109.22
407.394	109.22
407.603	133.8
407.812	94.89
408.02	123.56
408.229	187.05
408.438	201.38
408.646	131.75
408.855	150.18
409.064	148.14
409.272	172.71
409.481	76.46
409.69	164.52
409.898	182.95
410.107	187.05
410.315	176.81
410.524	217.77
410.733	248.49
410.941	205.48
411.15	180.9
411.358	154.28
411.567	268.97
411.775	215.72
411.984	219.82
412.192	164.52
412.401	297.64
412.609	232.1
412.818	318.12
413.026	238.25
413.234	291.49
413.443	344.74
413.651	334.5
413.86	305.83
414.068	336.55
414.276	350.89
414.485	375.46
414.693	416.42
414.901	463.52
415.11	418.47
415.318	441
415.526	402.08
415.734	416.42
415.943	430.76
416.151	496.29
416.359	543.39
416.567	559.78
416.776	606.88
416.984	584.35
417.192	537.25
417.4	627.36
417.608	594.59
417.817	580.26
418.025	711.33
418.233	653.98
418.441	653.98
418.649	723.62
418.857	746.14
419.065	740
419.273	801.44
419.481	807.58
419.689	809.63
419.897	842.4
420.105	952.99
420.313	965.28
420.521	952.99
420.729	1006.24
420.937	1022.62
421.145	1055.39
421.353	1063.58
421.561	1133.21
421.769	1145.5
421.977	1180.31
422.185	1151.64
422.393	1186.46
422.601	1383.06
422.809	1397.4
423.017	1372.82
423.224	1307.29
423.432	1546.9
423.64	1518.23
423.848	1507.99
424.056	1643.15
424.263	1753.74
424.471	1735.31
424.679	1780.37
424.887	1710.74
425.094	1858.19
425.302	1940.11
425.51	1985.16
425.718	2017.93
425.925	1976.97
426.133	2083.47
426.341	2136.71
426.548	2384.52
426.756	2347.65
426.964	2398.85
427.171	2525.83
427.379	2656.9
427.586	2620.03
427.794	2693.76
428.001	2818.69
428.209	2994.81
428.417	2857.6
428.624	3064.44
428.832	3193.47
429.039	3160.7
429.247	3086.97
429.454	3363.45
429.662	3545.72
429.869	3420.79
430.076	3680.88
430.284	3461.75
430.491	3730.03
430.699	3779.18
430.906	3918.45
431.114	3869.3
431.321	3945.07
431.528	4201.07
431.736	4395.62
431.943	4680.29
432.15	4426.34
432.358	4602.47
432.565	4690.53
432.772	4584.04
432.979	4876.9
433.187	5208.67
433.394	5024.35
433.601	5513.81
433.808	5530.2
434.016	5444.18
434.223	5689.94
434.43	5986.9
434.637	5941.84
434.844	6392.39
435.052	6459.98
435.259	6402.63
435.466	6482.5
435.673	6373.96
435.88	6873.67
436.087	7047.74
436.294	7207.48
436.501	7025.22
436.708	7049.79
436.915	7332.41
437.122	7782.96
437.329	7637.56
437.537	8043.06
437.743	7983.66
437.95	8024.62
438.157	8426.03
438.364	8954.4
438.571	8614.44
438.778	8862.24
438.985	9511.45
439.192	9228.83
439.399	9630.23
439.606	9085.47
439.813	9714.2
440.02	10320.4
440.227	10226.19
440.433	10060.31
440.64	10447.37
440.847	10261.01
441.054	10732.04
441.261	11321.85
441.467	11098.63
441.674	11569.66
441.881	12005.88
442.088	11987.44
442.294	11805.17
442.501	11805.17
442.708	12354.03
442.914	12790.25
443.121	13165.03
443.328	12917.22
443.534	13898.2
443.741	13533.66
443.948	13361.63
444.154	14389.71
444.361	14172.63
444.568	14336.46
444.774	14485.97
444.981	14617.04
445.187	14877.13
445.394	15530.43
445.6	15546.81
445.807	16931.24
446.013	16177.59
446.22	16497.07
446.426	17090.98
446.633	17719.71
446.839	17856.92
447.046	17088.93
447.252	18108.82
447.459	18084.25
447.665	18080.15
447.871	19122.57
448.078	19806.59
448.284	18919.82
448.491	19399.04
448.697	20072.82
448.903	20457.84
449.11	20617.58
449.316	20371.83
449.522	20734.32
449.728	21391.72
449.935	21457.25
450.141	21604.7
450.347	21768.54
450.553	21111.14
450.76	21498.21
450.966	22456.66
451.172	22135.13
451.378	22626.64
451.584	22063.45
451.791	23079.24
451.997	22866.25
452.203	22909.26
452.409	23210.31
452.615	22632.79
452.821	22067.55
453.027	22002.01
453.233	23130.44
453.44	22182.23
453.646	22335.83
453.852	22540.63
454.058	22808.91
454.264	22241.62
454.47	22837.58
454.676	22266.2
454.882	22856.01
455.088	21182.82
455.294	21188.97
455.5	21907.8
455.705	21637.47
455.911	21053.8
456.117	20324.72
456.323	20593.01
456.529	19382.66
456.735	20453.75
456.941	19638.65
457.147	19319.17
457.352	18835.85
457.558	18452.88
457.764	18463.12
457.97	17973.66
458.176	17901.98
458.381	17637.79
458.587	16804.27
458.793	16947.62
458.999	15966.65
459.204	17254.82
459.41	16820.65
459.616	15628.73
459.821	15800.76
460.027	15462.85
460.233	15288.77
460.438	14516.69
460.644	14412.24
460.85	14062.04
461.055	13875.67
461.261	13910.49
461.466	12593.64
461.672	12630.51
461.878	13277.66
462.083	12362.22
462.289	12075.51
462.494	12016.12
462.7	11352.57
462.905	11248.13
463.111	11334.14
463.316	11371.01
463.522	11463.16
463.727	11227.65
463.932	11133.44
464.138	11256.32
464.343	11471.36
464.549	10983.94
464.754	11377.15
464.959	11211.26
465.165	11063.81
465.37	10734.09
465.575	10430.99
465.781	11010.56
465.986	10988.03
466.191	10519.05
466.397	10170.9
466.602	9642.52
466.807	10152.46
467.012	10093.07
467.218	10183.18
467.423	10000.91
467.628	9914.9
467.833	10422.8
468.038	10138.13
468.244	9650.71
468.449	10232.33
468.654	9916.95
468.859	9765.4
469.064	9677.33
469.269	9335.32
469.474	9304.6
469.679	9820.69
469.885	9374.24
470.09	9474.59
470.295	9320.99
470.5	9042.46
470.705	9124.38
470.91	9081.38
471.115	8815.14
471.32	9099.81
471.525	8909.35
471.73	9005.6
471.935	8753.7
472.139	8372.78
472.344	8710.69
472.549	8483.37
472.754	8421.93
472.959	8241.71
473.164	8024.62
473.369	8059.44
473.574	8067.63
473.778	8026.67
473.983	8161.84
474.188	8004.14
474.393	7856.69
474.598	7742
474.802	7559.74
475.007	7684.66
475.212	7670.33
475.417	7430.71
475.621	7328.31
475.826	7426.62
476.031	7156.29
476.235	7049.79
476.44	7094.85
476.645	6863.43
476.849	6933.06
477.054	6916.67
477.259	6961.73
477.463	6879.81
477.668	6867.52
477.872	6767.17
478.077	6650.44
478.282	6566.47
478.486	6447.69
478.691	6445.64
478.895	6335.05
479.1	6281.8
479.304	6208.08
479.509	6109.77
479.713	6363.72
479.918	6214.22
480.122	6079.05
480.326	6017.61
480.531	6126.16
480.735	6146.64
480.94	6038.09
481.144	6117.97
481.348	5945.94
481.553	5980.75
481.757	5954.13
481.961	5956.18
482.166	6146.64
482.37	5984.85
482.574	5800.53
482.778	5884.5
482.983	6060.62
483.187	5796.43
483.391	6011.47
483.595	5939.79
483.8	5790.29
484.004	5806.67
484.208	5935.7
484.412	5843.54
484.616	5952.08
484.821	5950.03
485.025	5786.19
485.229	5937.74
485.433	5909.07
485.637	6060.62
485.841	5872.21
486.045	5966.42
486.249	5782.1
486.453	5853.78
486.657	5923.41
486.861	5986.9
487.065	5669.46
487.269	5825.11
487.473	5765.71
487.677	6025.81
487.881	6007.37
488.085	5763.67
488.289	5986.9
488.493	5843.54
488.697	6007.37
488.901	5894.74
489.105	5800.53
489.309	5943.89
489.512	5986.9
489.716	5978.7
489.92	6048.33
490.124	6136.4
490.328	6214.22
490.531	6072.91
490.735	6228.56
490.939	6126.16
491.143	6036.05
491.346	6183.5
491.55	6281.8
491.754	6113.87
491.958	6173.26
492.161	6193.74
492.365	6175.31
492.569	6122.06
492.772	6230.6
492.976	6466.12
493.18	6580.81
493.383	6408.78
493.587	6537.8
493.79	6572.61
493.994	6382.15
494.197	6746.69
494.401	6709.83
494.605	6632.01
494.808	6773.32
495.012	6605.38
495.215	6906.43
495.419	6826.56
495.622	6595.14
495.825	6879.81
496.029	7033.41
496.232	7268.92
496.436	7199.29
496.639	7119.42
496.843	7275.07
497.046	7391.8
497.249	7305.79
497.453	7371.32
497.656	7541.3
497.859	7672.37
498.063	7545.4
498.266	7901.75
498.469	7866.93
498.673	7809.59
498.876	8026.67
499.079	8137.26
499.282	8079.92
499.485	8419.88
499.689	8407.59
499.892	8417.83
500.095	8589.86
500.298	8759.84
500.501	8491.56
500.705	8696.36
500.908	9032.22
501.111	9026.08
501.314	9058.85
501.517	9265.69
501.72	9470.49
501.923	9347.61
502.126	9493.02
502.329	9706.01
502.532	9765.4
502.735	9867.8
502.938	10174.99
503.141	9974.29
503.344	10412.56
503.547	10228.24
503.75	10435.08
503.953	10867.2
504.156	10752.52
504.359	11002.37
504.562	10877.44
504.765	11190.78
504.968	11086.34
505.17	11321.85
505.373	11434.49
505.576	11491.84
505.779	11819.51
505.982	11893.24
506.185	11999.73
506.387	12059.12
506.59	12046.83
506.793	12442.09
506.996	12302.83
507.198	12827.11
507.401	12782.06
507.604	12708.33
507.807	13148.64
508.009	13205.99
508.212	13330.91
508.415	13523.42
508.617	13642.2
508.82	13801.94
509.022	13820.38
509.225	14205.39
509.428	14252.5
509.63	14490.06
509.833	14580.17
510.035	14813.64
510.238	14832.07
510.44	15122.88
510.643	15452.61
510.845	15282.63
511.048	15417.79
511.25	15593.92
511.453	15579.58
511.655	16247.22
511.858	16200.12
512.06	16257.46
512.262	16587.18
512.465	16548.27
512.667	16832.94
512.87	16994.73
513.072	16861.61
513.274	17473.95
513.477	17619.36
513.679	17805.72
513.881	17846.68
514.084	18086.29
514.286	17942.94
514.488	18508.18
514.69	18882.95
514.893	18856.33
515.095	18917.77
515.297	19052.94
515.499	19138.95
515.701	19540.35
515.904	19652.99
516.106	19911.03
516.308	20101.5
516.51	20193.65
516.712	20492.66
516.914	20734.32
517.116	21072.23
517.318	20928.88
517.52	21066.09
517.722	21393.76
517.925	21442.92
518.127	21647.71
518.329	22184.28
518.531	21936.48
518.733	22432.08
518.935	22301.01
519.136	22686.03
519.338	23120.2
519.54	22903.12
519.742	23417.16
519.944	23427.4
520.146	23994.68
520.348	24021.31
520.55	24238.39
520.752	24326.46
520.954	24541.49
521.155	24469.81
521.357	24901.93
521.559	25196.84
521.761	25479.46
521.963	25245.99
522.164	25553.19
522.366	25454.89
522.568	26024.22
522.77	26263.83
522.971	26421.53
523.173	26020.13
523.375	26546.45
523.576	26542.36
523.778	26452.25
523.98	26986.77
524.181	27275.53
524.383	27353.35
524.584	27752.71
524.786	27527.43
524.988	27584.77
525.189	27918.59
525.391	27916.54
525.592	28242.17
525.794	28289.27
525.995	28596.47
526.197	28215.55
526.398	28788.98
526.6	28715.25
526.801	28754.16
527.003	28944.62
527.204	28940.53
527.406	29204.72
527.607	29081.84
527.808	29536.49
528.01	29098.22
528.211	29169.9
528.412	29827.3
528.614	29567.21
528.815	29995.23
529.016	30284
529.218	29915.36
529.419	29997.28
529.62	30406.87
529.822	30206.17
530.023	30288.09
530.224	30034.14
530.425	30292.19
530.626	30152.93
530.828	30060.77
531.029	30748.89
531.23	30273.76
531.431	30437.59
531.632	30384.35
531.833	30791.89
532.035	30746.84
532.236	30763.22
532.437	30742.74
532.638	30617.82
532.839	30685.4
533.04	30918.87
533.241	30673.11
533.442	31221.97
533.643	30877.91
533.844	31103.18
534.045	30781.65
534.246	30380.25
534.447	30714.07
534.648	30939.35
534.849	31215.82
535.05	30546.14
535.251	30959.83
535.451	31090.9
535.652	30984.4
535.853	30771.41
536.054	30925.01
536.255	30906.58
536.456	30535.9
536.657	31488.2
536.857	30845.14
537.058	30742.74
537.259	30953.68
537.46	31178.96
537.66	30945.49
537.861	31084.75
538.062	30812.37
538.263	31303.88
538.463	30898.39
538.664	30425.31
538.865	30826.71
539.065	31256.78
539.266	31064.27
539.466	31170.77
539.667	30560.47
539.868	31385.8
540.068	30828.76
540.269	31332.56
540.469	31068.37
540.67	30718.17
540.87	30888.15
541.071	30771.41
541.271	30896.34
541.472	30970.07
541.672	30853.33
541.873	30601.43
542.073	30558.42
542.274	30841.04
542.474	30906.58
542.675	30879.96
542.875	30947.54
543.075	30945.49
543.276	30531.8
543.476	31058.13
543.676	30802.13
543.877	31213.77
544.077	30865.62
544.277	30927.06
544.478	30484.7
544.678	30779.6
544.878	31031.51
545.078	30886.1
545.279	30957.78
545.479	30425.31
545.679	30550.23
545.879	30572.76
546.079	30535.9
546.28	30607.58
546.48	30281.95
546.68	30834.9
546.88	30738.65
547.08	30703.83
547.28	30789.84
547.48	30433.5
547.68	30736.6
547.88	30449.88
548.081	30898.39
548.281	30451.93
548.481	30507.23
548.681	30998.74
548.881	30560.47
549.081	30789.84
549.28	30568.66
549.48	30597.34
549.68	30548.18
549.88	30808.28
550.08	30533.85
550.28	30644.44
550.48	30687.45
550.68	30939.35
550.88	30525.66
551.08	30658.77
551.279	30302.43
551.479	30118.11
551.679	30609.62
551.879	30288.09
552.079	30458.07
552.278	30138.59
552.478	30437.59
552.678	30572.76
552.878	30273.76
553.077	30615.77
553.277	30009.57
553.477	30701.78
553.676	30343.39
553.876	30638.3
554.076	30210.27
554.275	30077.15
554.475	29935.84
554.674	30310.62
554.874	30320.86
555.074	30347.48
555.273	30269.66
555.473	30320.86
555.672	29907.17
555.872	29864.16
556.071	29937.89
556.271	30324.96
556.47	30089.44
556.67	29681.89
556.869	29903.07
557.068	30009.57
557.268	29739.24
557.467	29903.07
557.667	29685.99
557.866	29929.7
558.065	29688.04
558.265	29716.71
558.464	29642.98
558.663	29808.87
558.863	29348.07
559.062	29729
559.261	29247.72
559.461	29972.71
559.66	29597.93
559.859	29497.58
560.058	29180.14
560.258	29485.29
560.457	28842.23
560.656	29350.12
560.855	29262.06
561.054	29083.89
561.253	29192.43
561.453	28834.03
561.652	29030.64
561.851	29014.26
562.05	29071.6
562.249	28627.19
562.448	29032.69
562.647	28780.79
562.846	29087.98
563.045	28905.71
563.244	28596.47
563.443	28887.28
563.642	28332.28
563.841	28541.18
564.04	28565.75
564.239	28918
564.438	28121.34
564.637	28401.91
564.836	28885.23
565.035	28125.44
565.234	28608.76
565.432	28053.76
565.631	28117.25
565.83	28377.34
566.029	28037.37
566.228	28074.24
566.427	27838.72
566.625	27871.49
566.824	27756.8
567.023	27822.34
567.222	27588.87
567.42	27857.15
567.619	27625.73
567.818	27658.5
568.016	27758.85
568.215	28006.66
568.414	27588.87
568.612	27549.96
568.811	27509
569.01	27117.84
569.208	26900.75
569.407	27080.97
569.605	27019.53
569.804	27285.77
570.002	26661.14
570.201	26841.36
570.4	26614.04
570.598	26530.07
570.797	26700.05
570.995	26695.96
571.193	26376.47
571.392	26702.1
571.59	26378.52
571.789	26229.02
571.987	26312.99
572.186	26652.95
572.384	26200.35
572.582	26679.57
572.781	26212.63
572.979	26097.95
573.177	26061.08
573.376	26186.01
573.574	25549.09
573.772	25858.34
573.971	25555.24
574.169	25678.11
574.367	25131.31
574.565	25608.48
574.763	25549.09
574.962	25598.24
575.16	25235.75
575.358	25418.02
575.556	25123.12
575.754	25153.83
575.952	24908.08
576.151	25268.52
576.349	25041.2
576.547	24922.41
576.745	24629.55
576.943	24946.99
577.141	24631.6
577.339	24652.08
577.537	24291.64
577.735	24564.02
577.933	24334.65
578.131	24312.12
578.329	24287.54
578.527	24107.32
578.725	23998.78
578.923	24328.5
579.121	24363.32
579.319	24072.51
579.516	23963.97
579.714	23963.97
579.912	23667.01
580.11	23871.81
580.308	23785.79
580.506	23585.09
580.704	23165.26
580.901	23527.75
581.099	23726.4
581.297	23335.24
581.495	23300.42
581.692	23296.33
581.89	23052.62
582.088	23183.69
582.285	23015.76
582.483	22860.11
582.681	23152.97
582.878	22952.27
583.076	22481.24
583.274	22964.56
583.471	22643.03
583.669	22567.25
583.866	22493.52
584.064	22659.41
584.262	22413.65
584.459	22716.75
584.657	22649.17
584.854	22305.11
585.052	22522.19
585.249	22438.23
585.447	22419.8
585.644	21733.73
585.841	22352.21
586.039	22118.75
586.236	21498.21
586.434	21819.74
586.631	21510.5
586.828	21844.32
587.026	21477.73
587.223	21420.39
587.42	21225.83
587.618	21686.62
587.815	21090.66
588.012	21340.52
588.21	21227.88
588.407	21266.79
588.604	20863.34
588.801	20851.05
588.999	21102.95
589.196	20955.5
589.393	20937.07
589.59	21043.56
589.787	20709.74
589.984	20658.54
590.182	20644.21
590.379	21070.19
590.576	20672.88
590.773	20453.75
590.97	20334.96
591.167	20302.2
591.364	20027.77
591.561	20509.04
591.758	20328.82
591.955	19884.41
592.152	20386.16
592.349	19902.84
592.546	20173.17
592.743	20078.97
592.94	19646.85
593.137	19726.72
593.334	20103.54
593.531	19675.52
593.727	19853.69
593.924	19786.11
594.121	19624.32
594.318	19497.35
594.515	19067.27
594.712	19573.12
594.908	19466.63
595.105	19429.76
595.302	19265.92
595.499	19093.9
595.696	19331.46
595.892	19102.09
596.089	19392.9
596.286	19263.88
596.482	18854.28
596.679	18817.42
596.876	18876.81
597.072	18579.86
597.269	18678.16
597.466	18631.05
597.662	18674.06
597.859	18549.14
598.055	18692.49
598.252	18235.8
598.448	18327.95
598.645	18192.79
598.841	18151.83
599.038	18301.33
599.234	18467.22
599.431	17820.06
599.627	18221.46
599.824	18131.35
600.02	17875.35
600.217	18164.12
600.413	17916.31
600.609	17787.29
600.806	17707.42
601.002	17701.28
601.198	17365.41
601.395	17443.23
601.591	17478.05
601.787	17568.16
601.984	17457.57
602.18	17494.43
602.376	17428.9
602.572	17220
602.769	17168.8
602.965	17172.9
603.161	17050.02
603.357	16949.67
603.553	16779.69
603.75	17002.92
603.946	16759.21
604.142	16955.82
604.338	16966.06
604.534	16863.66
604.73	16394.67
604.926	16556.46
605.122	16542.13
605.318	16519.6
605.514	16394.67
605.71	16210.36
605.906	16529.84
606.102	16333.23
606.298	16298.42
606.494	16292.27
606.69	16492.97
606.886	16370.1
607.082	16075.19
607.278	15843.77
607.474	15864.25
607.67	15980.98
607.866	15868.34
608.062	15888.82
608.257	15802.81
608.453	15806.91
608.649	15931.83
608.845	15761.85
609.041	15796.67
609.236	15890.87
609.432	15630.78
609.628	15782.33
609.824	15532.48
610.019	15450.56
610.215	15559.1
610.411	15444.41
610.606	15411.65
610.802	15479.23
610.998	15483.33
611.193	15376.83
611.389	15149.51
611.584	15378.88
611.78	15210.95
611.976	15165.89
612.171	15321.54
612.367	15241.67
612.562	15157.7
612.758	14948.81
612.953	14864.84
613.149	15008.2
613.344	14928.33
613.539	14805.45
613.735	14965.19
613.93	15088.07
614.126	14985.67
614.321	14768.59
614.517	14858.7
614.712	14772.68
614.907	14762.44
615.103	14973.38
615.298	14633.42
615.493	14899.66
615.688	14582.22
615.884	14662.09
616.079	14453.2
616.274	14637.52
616.47	14629.32
616.665	14588.36
616.86	14371.28
617.055	14250.45
617.25	14082.52
617.445	14238.16
617.641	14086.61
617.836	14264.78
618.031	14055.89
618.226	14109.14
618.421	14111.19
618.616	14041.56
618.811	14035.41
619.006	14150.1
619.201	13793.75
619.396	13935.06
619.591	13738.46
619.786	13697.5
619.981	13519.32
620.176	13715.93
620.371	13484.51
620.566	13556.19
620.761	13552.09
620.956	13662.68
621.151	13218.27
621.346	13332.96
621.541	13091.3
621.735	13384.16
621.93	13062.63
622.125	12898.79
622.32	12800.49
622.515	12949.99
622.709	12591.59
622.904	12820.97
623.099	12562.92
623.294	12734.95
623.488	12446.19
623.683	12413.42
623.878	12257.78
624.072	12450.28
624.267	12249.58
624.462	12220.91
624.656	12071.41
624.851	12141.04
625.046	11915.76
625.24	11923.96
625.435	11997.68
625.629	11917.81
625.824	11940.34
626.018	11768.31
626.213	11393.53
626.407	11753.98
626.602	11409.92
626.796	11395.58
626.991	11442.68
627.185	11172.35
627.38	11442.68
627.574	11414.01
627.768	11282.94
627.963	11043.33
628.157	10990.08
628.352	11020.8
628.546	10820.1
628.74	10824.2
628.935	10799.62
629.129	10840.58
629.323	10732.04
629.517	10705.42
629.712	10580.49
629.906	10668.55
630.1	10218
630.294	10549.77
630.489	10115.6
630.683	10435.08
630.877	10220.05
631.071	10367.5
631.265	10162.7
631.459	10170.9
631.653	10080.78
631.848	9810.45
632.042	10150.42
632.236	9970.19
632.43	9693.72
632.624	9820.69
632.818	9808.4
633.012	9927.19
633.206	9460.25
633.4	9746.97
633.594	9734.68
633.788	9517.59
633.982	9525.79
634.176	9290.27
634.369	9300.51
634.563	9462.3
634.757	9177.63
634.951	9249.31
635.145	9140.77
635.339	9173.53
635.533	9099.81
635.726	9089.57
635.92	8913.44
636.114	9091.62
636.308	8915.49
636.501	8987.17
636.695	8886.82
636.889	8702.5
637.083	8505.9
637.276	8634.92
637.47	8653.35
637.664	8628.77
637.857	8487.47
638.051	8526.38
638.244	8405.55
638.438	8489.51
638.632	8323.63
638.825	8213.04
639.019	8114.73
639.212	8182.32
639.406	8241.71
639.599	8192.56
639.793	8196.65
639.986	7780.92
640.18	7961.14
640.373	7932.47
640.567	7961.14
640.76	8012.34
640.954	7821.88
641.147	7670.33
641.34	7676.47
641.534	7574.07
641.727	7727.67
641.92	7668.28
642.114	7465.53
642.307	7567.93
642.5	7496.25
642.694	7328.31
642.887	7219.77
643.08	7461.43
643.273	7301.69
643.467	7197.24
643.66	7230.01
643.853	7098.94
644.046	7041.6
644.239	6980.16
644.432	6912.58
644.626	6957.63
644.819	6998.59
645.012	6867.52
645.205	7010.88
645.398	6900.29
645.591	6789.7
645.784	6806.08
645.977	6572.61
646.17	6748.74
646.363	6715.97
646.556	6623.81
646.749	6578.76
646.942	6533.7
647.135	6660.68
647.328	6261.32
647.521	6369.87
647.714	6298.19
647.907	6412.87
648.099	6283.85
648.292	6167.12
648.485	6271.56
648.678	6068.81
648.871	6113.87
649.064	5921.36
649.256	6183.5
649.449	5931.6
649.642	6087.25
649.835	5831.25
650.027	5902.93
650.22	5872.21
650.413	5782.1
650.605	5898.83
650.798	5847.63
650.991	5702.23
651.183	5749.33
651.376	5446.23
651.568	5745.23
651.761	5683.8
651.954	5505.62
652.146	5571.16
652.339	5519.96
652.531	5489.24
652.724	5612.12
652.916	5382.74
653.109	5489.24
653.301	5386.84
653.494	5491.29
653.686	5386.84
653.879	5364.31
654.071	5374.55
654.263	5227.1
654.456	5167.71
654.648	5141.08
654.84	5266.01
655.033	5128.8
655.225	5159.52
655.417	5063.26
655.61	5118.56
655.802	5198.43
655.994	4946.53
656.186	5098.08
656.379	4981.34
656.571	5036.64
656.763	4815.46
656.955	4825.7
657.148	4872.8
657.34	4682.34
657.532	4762.21
657.724	4792.93
657.916	4715.11
658.108	4790.88
658.3	4692.58
658.492	4645.48
658.684	4678.24
658.876	4498.02
659.068	4428.39
659.26	4495.97
659.452	4512.36
659.644	4459.11
659.836	4366.95
660.028	4571.75
660.22	4416.1
660.412	4340.33
660.604	4420.2
660.796	4235.88
660.988	4295.27
661.18	4276.84
661.372	4203.11
661.563	4305.51
661.755	4168.3
661.947	4168.3
662.139	4291.18
662.331	4061.8
662.522	4088.43
662.714	4096.62
662.906	4213.35
663.097	4031.09
663.289	4129.39
663.481	4090.48
663.673	3877.49
663.864	3986.03
664.056	3973.74
664.247	3873.39
664.439	3822.19
664.631	3979.89
664.822	3873.39
665.014	3971.69
665.205	3777.14
665.397	3842.67
665.588	3766.9
665.78	3742.32
665.971	3844.72
666.163	3740.27
666.354	3738.23
666.546	3715.7
666.737	3670.64
666.929	3560.05
667.12	3619.44
667.311	3582.58
667.503	3486.33
667.694	3687.03
667.885	3621.49
668.077	3515
668.268	3439.22
668.459	3463.8
668.651	3422.84
668.842	3482.23
669.033	3490.42
669.224	3428.98
669.416	3410.55
669.607	3297.91
669.798	3394.17
669.989	3455.61
670.18	3375.74
670.371	3410.55
670.563	3250.81
670.754	3254.9
670.945	3205.75
671.136	3230.33
671.327	3302.01
671.518	3220.09
671.709	3199.61
671.9	3213.95
672.091	3172.99
672.282	3078.78
672.473	3195.51
672.664	3242.62
672.855	3201.66
673.046	3211.9
673.237	3179.13
673.428	3138.17
673.619	3070.59
673.809	3101.31
674	3043.96
674.191	3109.5
674.382	3027.58
674.573	3064.44
674.764	2933.37
674.954	3082.88
675.145	2980.48
675.336	2970.24
675.527	2849.41
675.717	2980.48
675.908	2980.48
676.099	2996.86
676.289	2970.24
676.48	2949.76
676.671	2916.99
676.861	2802.3
677.052	2869.89
677.243	2841.22
677.433	2828.93
677.624	2857.6
677.814	2972.29
678.005	2876.03
678.195	2785.92
678.386	2830.98
678.576	2869.89
678.767	2824.83
678.957	2751.1
679.148	2845.31
679.338	2681.47
679.529	2833.02
679.719	2685.57
679.909	2783.87
680.1	2706.05
680.29	2710.15
680.481	2660.99
680.671	2845.31
680.861	2704
681.052	2685.57
681.242	2794.11
681.432	2675.33
681.622	2652.8
681.813	2642.56
682.003	2724.48
682.193	2658.95
682.383	2593.41
682.573	2607.75
682.764	2747.01
682.954	2603.65
683.144	2749.06
683.334	2605.7
683.524	2708.1
683.714	2564.74
683.904	2611.84
684.094	2708.1
684.284	2693.76
684.474	2738.82
684.664	2583.17
684.854	2454.15
685.044	2665.09
685.234	2468.48
685.424	2531.97
685.614	2613.89
685.804	2599.55
685.994	2634.37
686.184	2562.69
686.374	2536.07
686.564	2474.63
686.753	2593.41
686.943	2519.68
687.133	2589.32
687.323	2448.01
687.513	2574.98
687.702	2527.88
687.892	2488.96
688.082	2482.82
688.272	2534.02
688.461	2511.49
688.651	2458.25
688.841	2513.54
689.03	2671.23
689.22	2488.96
689.41	2538.12
689.599	2468.48
689.789	2505.35
689.979	2398.85
690.168	2335.37
690.358	2437.77
690.547	2382.47
690.737	2482.82
690.926	2366.09
691.116	2464.39
691.305	2419.33
691.495	2493.06
691.684	2316.94
691.874	2288.26
692.063	2286.22
692.252	2294.41
692.442	2390.66
692.631	2198.15
692.82	2257.54
693.01	2382.47
693.199	2415.24
693.388	2224.78
693.578	2308.74
693.767	2392.71
693.956	2288.26
694.146	2343.56
694.335	2323.08
694.524	2329.22
694.713	2237.06
694.902	2265.74
695.092	2304.65
695.281	2245.26
695.47	2214.54
695.659	2261.64
695.848	2241.16
696.037	2212.49
696.226	2304.65
696.415	2214.54
696.604	2292.36
696.793	2206.35
696.982	2230.92
697.171	2316.94
697.36	2194.06
697.549	2169.48
697.738	2132.62
697.927	2153.1
698.116	2224.78
698.305	2140.81
698.494	2196.11
698.683	2112.14
698.872	2247.3
699.061	2183.82
699.25	2259.59
699.438	2134.67
699.627	2218.63
699.816	2214.54
700.005	2169.48
700.193	2208.39
700.382	2095.75
700.571	2194.06
700.76	2155.15
700.948	2204.3
701.137	2097.8
701.326	2153.1
701.514	2105.99
701.703	2089.61
701.892	2130.57
702.08	2155.15
702.269	2065.04
702.457	2101.9
702.646	2056.84
702.834	2062.99
703.023	2071.18
703.212	2120.33
703.4	2052.75
703.589	2083.47
703.777	2017.93
703.965	1968.78
704.154	2058.89
704.342	2032.27
704.531	1952.4
704.719	2019.98
704.907	2087.56
705.096	2005.64
705.284	2036.36
705.472	1997.45
705.661	1968.78
705.849	2007.69
706.037	1915.53
706.226	2026.12
706.414	2028.17
706.602	2120.33
706.79	2001.55
706.979	1952.4
707.167	2062.99
707.355	1983.12
707.543	1976.97
707.731	1888.91
707.919	2042.51
708.107	1825.42
708.296	2015.88
708.484	1903.25
708.672	1972.88
708.86	2003.6
709.048	1933.97
709.236	1882.77
709.424	1954.44
709.612	1997.45
709.8	1933.97
709.988	1878.67
710.176	1960.59
710.364	1884.81
710.551	1880.72
710.739	1796.75
710.927	1847.95
711.115	1843.85
711.303	1954.44
711.491	1976.97
711.679	1854.09
711.866	1878.67
712.054	1874.57
712.242	1804.94
712.43	1860.24
712.617	1923.73
712.805	1864.33
712.993	1831.57
713.181	1743.5
713.368	1796.75
713.556	1776.27
713.744	1770.13
713.931	1819.28
714.119	1862.29
714.306	1776.27
714.494	1784.46
714.682	1813.13
714.869	1735.31
715.057	1763.98
715.244	1706.64
715.432	1782.42
715.619	1811.09
715.807	1749.65
715.994	1733.26
716.182	1905.29
716.369	1800.85
716.556	1745.55
716.744	1823.37
716.931	1663.63
717.119	1692.3
717.306	1786.51
717.493	1653.39
717.681	1790.61
717.868	1761.94
718.055	1671.83
718.242	1718.93
718.43	1698.45
718.617	1813.13
718.804	1661.59
718.991	1680.02
719.179	1616.53
719.366	1677.97
719.553	1667.73
719.74	1669.78
719.927	1702.54
720.114	1747.6
720.301	1731.22
720.488	1665.68
720.676	1579.67
720.863	1606.29
721.05	1704.59
721.237	1677.97
721.424	1686.16
721.611	1634.96
721.798	1616.53
721.985	1684.11
722.172	1682.06
722.358	1632.91
722.545	1614.48
722.732	1610.39
722.919	1573.52
723.106	1575.57
723.293	1608.34
723.48	1614.48
723.667	1598.1
723.853	1604.24
724.04	1555.09
724.227	1610.39
724.414	1585.81
724.6	1536.66
724.787	1569.43
724.974	1579.67
725.161	1594
725.347	1569.43
725.534	1634.96
725.72	1610.39
725.907	1624.72
726.094	1553.04
726.28	1507.99
726.467	1614.48
726.653	1469.08
726.84	1524.37
727.027	1557.14
727.213	1469.08
727.4	1551
727.586	1583.76
727.773	1610.39
727.959	1481.36
728.145	1583.76
728.332	1510.04
728.518	1452.69
728.705	1553.04
728.891	1530.52
729.077	1522.32
729.264	1501.84
729.45	1497.75
729.636	1579.67
729.823	1436.31
730.009	1626.77
730.195	1563.28
730.382	1579.67
730.568	1520.28
730.754	1489.56
730.94	1479.32
731.126	1473.17
731.313	1473.17
731.499	1469.08
731.685	1479.32
731.871	1551
732.057	1514.13
732.243	1551
732.429	1491.6
732.615	1426.07
732.801	1585.81
732.987	1403.54
733.173	1540.76
733.359	1557.14
733.545	1518.23
733.731	1397.4
733.917	1503.89
734.103	1389.21
734.289	1419.92
734.475	1426.07
734.661	1579.67
734.847	1444.5
735.033	1516.18
735.219	1407.64
735.404	1507.99
735.59	1495.7
735.776	1438.36
735.962	1495.7
736.148	1399.45
736.333	1344.15
736.519	1288.85
736.705	1385.11
736.89	1317.53
737.076	1489.56
737.262	1426.07
737.447	1389.21
737.633	1555.09
737.819	1358.49
738.004	1335.96
738.19	1462.93
738.375	1405.59
738.561	1383.06
738.747	1460.88
738.932	1366.68
739.118	1381.01
739.303	1362.58
739.489	1403.54
739.674	1344.15
739.859	1399.45
740.045	1389.21
740.23	1335.96
740.416	1391.25
740.601	1366.68
740.786	1399.45
740.972	1432.21
741.157	1335.96
741.342	1338.01
741.528	1348.25
741.713	1284.76
741.898	1325.72
742.084	1303.19
742.269	1311.38
742.454	1335.96
742.639	1288.85
742.824	1266.33
743.01	1247.9
743.195	1272.47
743.38	1276.57
743.565	1319.57
743.75	1284.76
743.935	1325.72
744.12	1366.68
744.305	1215.13
744.49	1245.85
744.675	1217.18
744.86	1229.46
745.045	1262.23
745.23	1163.93
745.415	1180.31
745.6	1225.37
745.785	1219.22
745.97	1272.47
746.155	1079.96
746.34	1260.18
746.525	1129.11
746.71	1251.99
746.895	1082.01
747.079	1196.7
747.264	1237.66
747.449	1180.31
747.634	1192.6
747.819	1219.22
748.003	1174.17
748.188	1102.49
748.373	1249.94
748.557	1139.35
748.742	1096.35
748.927	1155.74
749.111	1147.55
749.296	1116.83
749.481	1036.95
749.665	1090.2
749.85	993.95
750.034	1118.87
750.219	1049.24
750.404	1030.81
750.588	1071.77
750.773	1057.43
750.957	1077.91
751.141	1069.72
751.326	979.61
751.51	1024.67
751.695	1047.19
751.879	1012.38
752.064	1112.73
752.248	987.8
752.432	934.56
752.617	916.12
752.801	991.9
752.985	1000.09
753.17	924.32
753.354	1051.29
753.538	950.94
753.722	879.26
753.907	1026.71
754.091	877.21
754.275	891.55
754.459	989.85
754.643	932.51
754.828	862.88
755.012	891.55
755.196	858.78
755.38	948.89
755.564	836.25
755.748	805.53
755.932	836.25
756.116	936.6
756.3	729.76
756.484	869.02
756.668	860.83
756.852	842.4
757.036	854.69
757.22	850.59
757.404	750.24
757.588	834.21
757.772	832.16
757.956	852.64
758.14	729.76
758.323	821.92
758.507	809.63
758.691	801.44
758.875	776.86
759.059	760.48
759.242	758.43
759.426	768.67
759.61	774.81
759.794	760.48
759.977	684.7
760.161	729.76
760.345	746.14
760.528	817.82
760.712	737.95
760.895	807.58
761.079	686.75
761.263	711.33
761.446	721.57
761.63	746.14
761.813	778.91
761.997	780.96
762.18	645.79
762.364	729.76
762.547	678.56
762.731	588.45
762.914	674.46
763.098	633.5
763.281	625.31
763.464	799.39
763.648	752.29
763.831	629.41
764.015	670.37
764.198	647.84
764.381	660.13
764.564	662.18
764.748	651.94
764.931	705.18
765.114	703.14
765.297	641.7
765.481	629.41
765.664	625.31
765.847	682.66
766.03	674.46
766.213	578.21
766.397	645.79
766.58	606.88
766.763	623.27
766.946	621.22
767.129	694.94
767.312	627.36
767.495	608.93
767.678	619.17
767.861	582.31
768.044	578.21
768.227	639.65
768.41	629.41
768.593	586.4
768.776	615.07
768.959	586.4
769.142	707.23
769.324	608.93
769.507	559.78
769.69	537.25
769.873	701.09
770.056	565.92
770.239	623.27
770.421	656.03
770.604	582.31
770.787	576.16
770.97	582.31
771.152	588.45
771.335	486.05
771.518	606.88
771.7	584.35
771.883	588.45
772.066	514.72
772.248	541.35
772.431	547.49
772.613	567.97
772.796	498.34
772.978	549.54
773.161	514.72
773.343	588.45
773.526	543.39
773.708	533.15
773.891	475.81
774.073	541.35
774.256	496.29
774.438	502.43
774.621	498.34
774.803	541.35
774.985	498.34
775.168	490.15
775.35	504.48
775.532	504.48
775.715	479.91
775.897	465.57
776.079	481.96
776.261	463.52
776.444	436.9
776.626	449.19
776.808	438.95
776.99	443.04
777.173	412.32
777.355	494.24
777.537	420.52
777.719	508.58
777.901	506.53
778.083	414.37
778.265	432.8
778.447	373.41
778.629	389.8
778.811	475.81
778.993	445.09
779.175	402.08
779.357	463.52
779.539	426.66
779.721	387.75
779.903	357.03
780.085	377.51
780.267	455.33
780.449	334.5
780.631	402.08
780.812	406.18
780.994	338.6
781.176	342.69
781.358	350.89
781.54	320.17
781.721	344.74
781.903	281.25
782.085	404.13
782.267	389.8
782.448	373.41
782.63	277.16
782.812	408.23
782.993	371.37
783.175	389.8
783.357	334.5
783.538	332.45
783.72	346.79
783.901	250.53
784.083	248.49
784.264	271.01
784.446	295.59
784.627	250.53
784.809	236.2
784.99	307.88
785.172	264.87
785.353	326.31
785.535	391.84
785.716	268.97
785.897	268.97
786.079	232.1
786.26	277.16
786.441	293.54
786.623	299.69
786.804	221.86
786.985	299.69
787.167	252.58
787.348	273.06
787.529	232.1
787.71	258.73
787.891	268.97
788.073	244.39
788.254	281.25
788.435	287.4
788.616	350.89
788.797	225.96
788.978	311.97
789.159	230.06
789.34	254.63
789.522	240.3
789.703	287.4
789.884	223.91
790.065	314.02
790.246	207.53
790.427	256.68
790.607	318.12
790.788	199.34
790.969	238.25
791.15	182.95
791.331	225.96
791.512	211.62
791.693	172.71
791.874	164.52
792.054	283.3
792.235	256.68
792.416	189.1
792.597	90.79
792.778	156.33
792.958	172.71
793.139	205.48
793.32	189.1
793.5	223.91
793.681	203.43
793.862	242.34
794.042	244.39
794.223	178.86
794.404	221.86
794.584	162.47
794.765	182.95
794.945	203.43
795.126	203.43
795.306	195.24
795.487	223.91
795.667	266.92
795.848	211.62
796.028	164.52
796.209	271.01
796.389	197.29
796.57	178.86
796.75	135.85
796.93	223.91
797.111	219.82
797.291	275.11
797.471	162.47
797.652	195.24
797.832	166.57
798.012	209.58
798.192	193.19
798.373	195.24
798.553	191.14
798.733	154.28
798.913	121.51
799.093	148.14
799.274	133.8
799.454	139.94
799.634	180.9
799.814	234.15
799.994	180.9
800.174	182.95
800.354	150.18
800.534	195.24
800.714	154.28
800.894	213.67
801.074	88.75
801.254	146.09
801.434	187.05
801.614	154.28
801.794	195.24
801.974	406.18
802.154	55.98
802.334	88.75
802.514	166.57
802.693	154.28
802.873	156.33
803.053	230.06
803.233	154.28
803.413	37.55
803.592	170.66
803.772	187.05
803.952	174.76
804.131	152.23
804.311	103.08
804.491	113.32
804.67	127.66
804.85	168.62
805.03	156.33
805.209	199.34
805.389	86.7
805.568	146.09
805.748	162.47
805.928	170.66
806.107	129.7
806.287	121.51
806.466	123.56
806.646	105.13
806.825	88.75
807.004	62.12
807.184	113.32
807.363	135.85
807.543	123.56
807.722	131.75
807.901	141.99
808.081	164.52
808.26	141.99
808.439	133.8
808.619	125.61
808.798	74.41
808.977	191.14
809.156	125.61
809.336	58.03
809.515	105.13
809.694	117.42
809.873	72.36
810.052	80.55
810.231	160.42
810.411	78.51
810.59	172.71
810.769	154.28
810.948	111.27
811.127	53.93
811.306	154.28
811.485	60.07
811.664	47.79
811.843	115.37
812.022	98.99
812.201	33.45
812.38	53.93
812.559	107.18
812.737	72.36
812.916	47.79
813.095	137.9
813.274	111.27
813.453	121.51
813.632	70.31
813.811	37.55
813.989	45.74
814.168	139.94
814.347	84.65
814.526	82.6
814.704	125.61
814.883	82.6
815.062	74.41
815.24	133.8
815.419	25.26
815.598	119.46
815.776	33.45
815.955	101.03
816.133	74.41
816.312	31.4
816.49	19.11
816.669	125.61
816.847	111.27
817.026	72.36
817.204	33.45
817.383	84.65
817.561	8.87
817.74	121.51
817.918	113.32
818.097	154.28
818.275	58.03
818.453	129.7
818.632	96.94
818.81	109.22
818.988	121.51
819.167	60.07
819.345	131.75
819.523	43.69
819.701	45.74
819.879	17.07
820.058	31.4
820.236	72.36
820.414	98.99
820.592	74.41
820.77	84.65
820.948	74.41
821.127	82.6
821.305	121.51
821.483	35.5
821.661	88.75
821.839	92.84
822.017	127.66
822.195	35.5
822.373	103.08
822.551	10.92
822.729	60.07
822.907	123.56
823.085	86.7
823.262	58.03
823.44	88.75
823.618	66.22
823.796	146.09
823.974	41.64
824.152	53.93
824.329	62.12
824.507	-30.04
824.685	35.5
824.863	98.99
825.04	58.03
825.218	115.37
825.396	58.03
825.574	90.79
825.751	-7.51
825.929	62.12
826.107	39.59
826.284	80.55
826.462	78.51
826.639	105.13
826.817	49.83
826.994	88.75
827.172	55.98
827.349	121.51
827.527	41.64
827.704	78.51
827.882	62.12
828.059	-23.89
828.237	8.87
828.414	94.89
828.591	92.84
828.769	86.7
828.946	-7.51
829.124	39.59
829.301	-21.85
829.478	6.83
829.655	88.75
829.833	17.07
830.01	29.35
830.187	51.88
830.364	43.69
830.542	113.32
830.719	6.83
830.896	41.64
831.073	76.46
831.25	21.16
831.427	23.21
831.604	-1.37
831.782	78.51
831.959	37.55
832.136	70.31
832.313	35.5
832.49	8.87
832.667	47.79
832.844	86.7
833.021	39.59
833.198	39.59
833.374	64.17
833.551	64.17
833.728	82.6
833.905	72.36
834.082	33.45
834.259	33.45
834.436	107.18
834.612	101.03
834.789	88.75
834.966	6.83
835.143	90.79
835.319	60.07
835.496	33.45
835.673	10.92
835.85	33.45
836.026	-5.46
836.203	101.03
836.38	2.73
836.556	64.17
836.733	47.79
836.909	49.83
837.086	39.59
837.262	80.55
837.439	72.36
837.616	-1.37
837.792	31.4
837.968	70.31
838.145	39.59
838.321	37.55
838.498	33.45
838.674	6.83
838.851	47.79
839.027	6.83
839.203	10.92
839.38	55.98
839.556	-44.37
839.732	31.4
839.909	41.64
840.085	68.27
840.261	0.68
840.437	45.74
840.614	37.55
840.79	101.03
840.966	88.75
841.142	66.22
841.318	72.36
841.494	47.79
841.671	17.07
841.847	37.55
842.023	84.65
842.199	31.4
842.375	53.93
842.551	39.59
842.727	21.16
842.903	137.9
843.079	0.68
843.255	47.79
843.431	25.26
843.607	-19.8
843.783	0.68
843.959	-23.89
844.134	62.12
844.31	70.31
844.486	15.02
844.662	-9.56
844.838	64.17
845.013	17.07
845.189	37.55
845.365	15.02
845.541	41.64
845.716	107.18
845.892	12.97
846.068	74.41
846.244	-46.42
846.419	17.07
846.595	31.4
846.77	43.69
846.946	10.92
847.122	-13.65
847.297	12.97
847.473	84.65
847.648	-5.46
847.824	-54.61
847.999	23.21
848.175	29.35
848.35	47.79
848.526	21.16
848.701	-40.28
848.876	-13.65
849.052	25.26
849.227	41.64
849.403	64.17
849.578	-40.28
849.753	15.02
849.929	-42.32
850.104	33.45
850.279	4.78
850.454	41.64
850.63	0.68
850.805	90.79
850.98	39.59
851.155	17.07
851.33	31.4
851.505	-66.9
851.681	64.17
851.856	31.4
852.031	-1.37
852.206	17.07
852.381	39.59
852.556	-17.75
852.731	0.68
852.906	-27.99
853.081	39.59
853.256	-58.71
853.431	-1.37
853.606	-19.8
853.781	47.79
853.956	17.07
854.131	45.74
854.305	88.75
854.48	35.5
854.655	8.87
854.83	-1.37
855.005	35.5
855.18	55.98
855.354	-34.13
855.529	8.87
855.704	29.35
855.879	17.07
856.053	-19.8
856.228	15.02
856.403	12.97
856.577	-52.56
856.752	-3.41
856.926	17.07
857.101	-30.04
857.276	15.02
857.45	17.07
857.625	60.07
857.799	-32.08
857.974	90.79
858.148	-40.28
858.323	74.41
858.497	-15.7
858.672	17.07
858.846	-13.65
859.02	2.73
859.195	-30.04
859.369	-23.89
859.543	-25.94
859.718	15.02
859.892	23.21
860.066	35.5
860.241	15.02
860.415	-25.94
860.589	-38.23
860.763	39.59
860.938	78.51
861.112	-42.32
861.286	0.68
861.46	-75.09
861.634	41.64
861.808	-3.41
861.982	-9.56
862.157	-23.89
862.331	0.68
862.505	4.78
862.679	-17.75
862.853	-19.8
863.027	-1.37
863.201	21.16
863.375	6.83
863.549	55.98
863.722	-48.47
863.896	-5.46
864.07	-27.99
864.244	-38.23
864.418	-23.89
864.592	15.02
864.766	58.03
864.939	-34.13
865.113	21.16
865.287	8.87
865.461	43.69
865.634	31.4
865.808	-38.23
865.982	60.07
866.156	58.03
866.329	25.26
866.503	6.83
866.676	39.59
866.85	-21.85
867.024	60.07
867.197	-15.7
867.371	47.79
867.544	-3.41
867.718	45.74
867.891	88.75
868.065	-36.18
868.238	27.31
868.412	-19.8
868.585	-36.18
868.759	0.68
868.932	-19.8
869.105	-46.42
869.279	39.59
869.452	33.45
869.625	29.35
869.799	17.07
869.972	43.69
870.145	-34.13
870.319	25.26
870.492	-77.14
870.665	-9.56
870.838	-77.14
871.011	-25.94
871.185	10.92
871.358	29.35
871.531	49.83
871.704	-40.28
871.877	6.83
872.05	55.98
872.223	2.73
872.396	-48.47
872.569	80.55
872.742	-46.42
872.915	29.35
873.088	35.5
873.261	-23.89
873.434	12.97
873.607	4.78
873.78	-11.61
873.953	27.31
874.126	-3.41
874.299	-17.75
874.471	-11.61
874.644	-9.56
874.817	-42.32
874.99	39.59
875.163	-23.89
875.335	0.68
875.508	31.4
875.681	72.36
875.853	-23.89
876.026	-9.56
876.199	2.73
876.371	-13.65
876.544	-58.71
876.717	29.35
876.889	35.5
877.062	31.4
877.234	29.35
877.407	29.35
877.579	17.07
877.752	21.16
877.924	17.07
878.097	-15.7
878.269	-1.37
878.442	31.4
878.614	25.26
878.786	0.68
878.959	0.68
879.131	-17.75
879.303	0.68
879.476	-15.7
879.648	-30.04
879.82	45.74
879.993	-1.37
880.165	23.21
880.337	43.69
880.509	21.16
880.681	-58.71
880.854	0.68
881.026	-19.8
881.198	74.41
881.37	6.83
881.542	-42.32
881.714	23.21
881.886	-25.94
882.058	-23.89
882.23	-5.46
882.402	109.22
882.574	-23.89
882.746	23.21
882.918	-9.56
883.09	66.22
883.262	10.92
883.434	2.73
883.606	-23.89
883.778	-46.42
883.95	55.98
884.122	-58.71
884.293	-34.13
884.465	-9.56
884.637	-9.56
884.809	12.97
884.98	-71
885.152	4.78
885.324	-91.48
885.496	-66.9
885.667	51.88
885.839	-1.37
886.011	-21.85
886.182	-38.23
886.354	-9.56
886.525	2.73
886.697	72.36
886.869	-25.94
887.04	-21.85
887.212	29.35
887.383	15.02
887.555	-5.46
887.726	-58.71
887.897	-17.75
888.069	0.68
888.24	-30.04
888.412	51.88
888.583	-75.09
888.754	-38.23
888.926	-38.23
889.097	17.07
889.268	-79.19
889.44	-3.41
889.611	-19.8
889.782	-7.51
889.953	12.97
890.125	29.35
890.296	-52.56
890.467	-19.8
890.638	-25.94
890.809	39.59
890.98	17.07
891.151	55.98
891.323	12.97
891.494	-36.18
891.665	31.4
891.836	-38.23
892.007	-15.7
892.178	21.16
892.349	-9.56
892.52	-42.32
892.691	25.26
892.862	-9.56
893.032	-15.7
893.203	-27.99
893.374	-64.85
893.545	12.97
893.716	-50.52
893.887	-48.47
894.057	-40.28
894.228	-13.65
894.399	-21.85
894.57	-17.75
894.74	-15.7
894.911	35.5
895.082	-32.08
895.253	55.98
895.423	-40.28
895.594	76.46
895.764	-3.41
895.935	29.35
896.106	-73.04
896.276	0.68
896.447	12.97
896.617	23.21
896.788	-13.65
896.958	55.98
897.129	-17.75
897.299	101.03
897.47	2.73
897.64	70.31
897.81	39.59
897.981	-44.37
898.151	-56.66
898.322	17.07
898.492	-9.56
898.662	-40.28
898.832	-40.28
899.003	-56.66
899.173	-27.99
899.343	-9.56
899.513	-23.89
