Data from USB4F104151__84__12-59-55-000.txt Node

Date: Fri Mar 14 12:59:55 EDT 2025
User: louis
Spectrometer: USB4F10415
Trigger mode: 4
Integration Time (sec): 1.000000E-2
Scans to average: 1
Electric dark correction enabled: true
Nonlinearity correction enabled: false
Boxcar width: 0
XAxis mode: Wavelengths
Number of Pixels in Spectrum: 3648
>>>>>Begin Spectral Data<<<<<
178.204	-25.09
178.424	-25.09
178.644	-25.09
178.864	-111.1
179.084	9.73
179.304	42.5
179.524	28.16
179.744	22.02
179.964	-20.99
180.184	-37.38
180.404	-76.29
180.624	-10.75
180.844	38.4
181.064	-6.66
181.283	-4.61
181.503	-43.52
181.723	69.12
181.943	-25.09
182.163	1.54
182.383	-59.9
182.602	-39.42
182.822	11.78
183.042	44.54
183.262	-51.71
183.482	-4.61
183.701	-2.56
183.921	36.35
184.141	9.73
184.361	32.26
184.58	-29.18
184.8	-4.61
185.02	-64
185.239	44.54
185.459	-4.61
185.679	15.87
185.898	17.92
186.118	120.32
186.338	48.64
186.557	-12.8
186.777	-25.09
186.997	54.78
187.216	19.97
187.436	5.63
187.655	11.78
187.875	-35.33
188.095	-8.7
188.314	-4.61
188.534	5.63
188.753	-37.38
188.973	-6.66
189.192	30.21
189.412	-57.86
189.631	87.55
189.851	15.87
190.07	-37.38
190.29	30.21
190.509	-10.75
190.729	-18.94
190.948	13.82
191.168	3.58
191.387	60.93
191.607	-10.75
191.826	-25.09
192.045	-25.09
192.265	15.87
192.484	30.21
192.704	-20.99
192.923	1.54
193.142	48.64
193.362	-4.61
193.581	-41.47
193.8	22.02
194.02	-0.51
194.239	38.4
194.458	42.5
194.678	30.21
194.897	-4.61
195.116	-76.29
195.335	17.92
195.555	-43.52
195.774	-94.72
195.993	44.54
196.212	62.98
196.432	-35.33
196.651	13.82
196.87	30.21
197.089	5.63
197.308	-0.51
197.528	-29.18
197.747	-27.14
197.966	5.63
198.185	9.73
198.404	26.11
198.623	3.58
198.842	3.58
199.062	95.74
199.281	26.11
199.5	-8.7
199.719	-68.09
199.938	-31.23
200.157	5.63
200.376	-47.62
200.595	38.4
200.814	-53.76
201.033	-33.28
201.252	-12.8
201.471	-6.66
201.69	-61.95
201.909	3.58
202.128	3.58
202.347	-31.23
202.566	-64
202.785	-25.09
203.004	-10.75
203.223	26.11
203.442	28.16
203.661	34.3
203.879	-12.8
204.098	1.54
204.317	44.54
204.536	36.35
204.755	30.21
204.974	-43.52
205.193	36.35
205.411	52.74
205.63	3.58
205.849	24.06
206.068	40.45
206.287	-25.09
206.505	-51.71
206.724	19.97
206.943	-12.8
207.162	-45.57
207.381	-27.14
207.599	-14.85
207.818	-49.66
208.037	22.02
208.255	-10.75
208.474	-16.9
208.693	-0.51
208.911	-29.18
209.13	28.16
209.349	52.74
209.567	32.26
209.786	5.63
210.005	9.73
210.223	54.78
210.442	1.54
210.661	-18.94
210.879	5.63
211.098	81.41
211.316	-2.56
211.535	48.64
211.753	5.63
211.972	38.4
212.191	24.06
212.409	-0.51
212.628	-37.38
212.846	-27.14
213.065	24.06
213.283	60.93
213.502	-0.51
213.72	103.93
213.938	-10.75
214.157	54.78
214.375	40.45
214.594	-27.14
214.812	5.63
215.031	44.54
215.249	34.3
215.467	3.58
215.686	-94.72
215.904	24.06
216.122	-14.85
216.341	11.78
216.559	30.21
216.778	-25.09
216.996	-16.9
217.214	77.31
217.432	22.02
217.651	-43.52
217.869	19.97
218.087	36.35
218.306	19.97
218.524	69.12
218.742	60.93
218.96	5.63
219.179	-0.51
219.397	-47.62
219.615	-16.9
219.833	11.78
220.051	-57.86
220.27	54.78
220.488	32.26
220.706	-43.52
220.924	-0.51
221.142	11.78
221.36	-0.51
221.578	-37.38
221.796	30.21
222.015	30.21
222.233	-27.14
222.451	28.16
222.669	44.54
222.887	19.97
223.105	-14.85
223.323	71.17
223.541	22.02
223.759	-23.04
223.977	-59.9
224.195	32.26
224.413	42.5
224.631	-2.56
224.849	48.64
225.067	65.02
225.285	40.45
225.503	-39.42
225.721	-41.47
225.939	28.16
226.157	58.88
226.375	19.97
226.592	36.35
226.81	83.45
227.028	44.54
227.246	1.54
227.464	-35.33
227.682	-16.9
227.9	116.22
228.117	44.54
228.335	22.02
228.553	-23.04
228.771	46.59
228.989	-41.47
229.206	-39.42
229.424	-61.95
229.642	42.5
229.86	-31.23
230.077	3.58
230.295	11.78
230.513	-4.61
230.731	79.36
230.948	52.74
231.166	77.31
231.384	-66.05
231.601	24.06
231.819	-27.14
232.037	-18.94
232.254	19.97
232.472	-61.95
232.689	7.68
232.907	36.35
233.125	7.68
233.342	-25.09
233.56	42.5
233.777	-55.81
233.995	-25.09
234.213	15.87
234.43	-53.76
234.648	-4.61
234.865	5.63
235.083	22.02
235.3	-18.94
235.518	-27.14
235.735	22.02
235.953	69.12
236.17	-47.62
236.388	34.3
236.605	24.06
236.822	-20.99
237.04	17.92
237.257	-27.14
237.475	9.73
237.692	-10.75
237.909	-37.38
238.127	-29.18
238.344	60.93
238.562	-61.95
238.779	34.3
238.996	-23.04
239.214	15.87
239.431	-37.38
239.648	-61.95
239.865	-12.8
240.083	-37.38
240.3	36.35
240.517	42.5
240.735	54.78
240.952	-23.04
241.169	87.55
241.386	-2.56
241.603	30.21
241.821	-4.61
242.038	-4.61
242.255	-29.18
242.472	-68.09
242.689	-20.99
242.907	60.93
243.124	-20.99
243.341	-2.56
243.558	40.45
243.775	-78.33
243.992	-0.51
244.209	24.06
244.426	62.98
244.643	-2.56
244.86	-12.8
245.078	69.12
245.295	-6.66
245.512	42.5
245.729	22.02
245.946	7.68
246.163	-12.8
246.38	-4.61
246.597	50.69
246.814	-41.47
247.031	46.59
247.248	-27.14
247.464	-4.61
247.681	-31.23
247.898	26.11
248.115	30.21
248.332	-20.99
248.549	46.59
248.766	44.54
248.983	-10.75
249.2	7.68
249.417	28.16
249.633	13.82
249.85	46.59
250.067	5.63
250.284	30.21
250.501	38.4
250.717	26.11
250.934	-53.76
251.151	50.69
251.368	-31.23
251.585	1.54
251.801	15.87
252.018	24.06
252.235	30.21
252.451	-39.42
252.668	30.21
252.885	7.68
253.102	-41.47
253.318	15.87
253.535	58.88
253.752	34.3
253.968	50.69
254.185	3.58
254.401	54.78
254.618	-10.75
254.835	-16.9
255.051	62.98
255.268	3.58
255.484	58.88
255.701	15.87
255.917	46.59
256.134	-18.94
256.351	30.21
256.567	24.06
256.784	46.59
257	-43.52
257.217	77.31
257.433	75.26
257.65	-12.8
257.866	-6.66
258.082	44.54
258.299	-43.52
258.515	34.3
258.732	-4.61
258.948	11.78
259.165	32.26
259.381	38.4
259.597	60.93
259.814	36.35
260.03	-55.81
260.246	-4.61
260.463	-29.18
260.679	-12.8
260.895	-16.9
261.112	-4.61
261.328	46.59
261.544	11.78
261.761	44.54
261.977	-20.99
262.193	91.65
262.409	42.5
262.626	-8.7
262.842	7.68
263.058	-0.51
263.274	-12.8
263.49	-10.75
263.707	-6.66
263.923	-0.51
264.139	11.78
264.355	-4.61
264.571	-16.9
264.787	34.3
265.004	17.92
265.22	22.02
265.436	52.74
265.652	5.63
265.868	-6.66
266.084	71.17
266.3	48.64
266.516	-49.66
266.732	32.26
266.948	58.88
267.164	-51.71
267.38	-14.85
267.596	19.97
267.812	-6.66
268.028	9.73
268.244	-23.04
268.46	11.78
268.676	89.6
268.892	62.98
269.108	54.78
269.324	3.58
269.54	11.78
269.756	13.82
269.972	-2.56
270.188	24.06
270.403	19.97
270.619	-29.18
270.835	3.58
271.051	60.93
271.267	24.06
271.483	50.69
271.698	24.06
271.914	-4.61
272.13	38.4
272.346	71.17
272.562	-57.86
272.777	58.88
272.993	-23.04
273.209	62.98
273.425	-10.75
273.64	-10.75
273.856	-43.52
274.072	-8.7
274.287	38.4
274.503	-25.09
274.719	-2.56
274.934	-27.14
275.15	-14.85
275.366	-25.09
275.581	-41.47
275.797	-2.56
276.012	-53.76
276.228	40.45
276.444	-45.57
276.659	87.55
276.875	46.59
277.09	-10.75
277.306	1.54
277.521	1.54
277.737	-37.38
277.952	-4.61
278.168	3.58
278.383	24.06
278.599	26.11
278.814	7.68
279.03	62.98
279.245	36.35
279.461	75.26
279.676	-10.75
279.892	-49.66
280.107	97.79
280.322	-18.94
280.538	67.07
280.753	36.35
280.969	22.02
281.184	7.68
281.399	50.69
281.615	-10.75
281.83	-4.61
282.045	-0.51
282.26	-23.04
282.476	-37.38
282.691	-10.75
282.906	77.31
283.122	79.36
283.337	-0.51
283.552	44.54
283.767	13.82
283.983	87.55
284.198	-4.61
284.413	38.4
284.628	69.12
284.843	34.3
285.058	56.83
285.274	36.35
285.489	-12.8
285.704	40.45
285.919	1.54
286.134	15.87
286.349	-31.23
286.564	5.63
286.779	79.36
286.995	17.92
287.21	52.74
287.425	13.82
287.64	-2.56
287.855	15.87
288.07	44.54
288.285	5.63
288.5	-8.7
288.715	-4.61
288.93	3.58
289.145	40.45
289.36	22.02
289.575	-16.9
289.79	48.64
290.004	36.35
290.219	65.02
290.434	-4.61
290.649	13.82
290.864	-4.61
291.079	5.63
291.294	11.78
291.509	-57.86
291.724	38.4
291.938	-4.61
292.153	19.97
292.368	-37.38
292.583	5.63
292.798	48.64
293.012	-4.61
293.227	15.87
293.442	5.63
293.657	-20.99
293.871	15.87
294.086	5.63
294.301	30.21
294.516	34.3
294.73	-12.8
294.945	26.11
295.16	22.02
295.374	3.58
295.589	-18.94
295.804	-35.33
296.018	-18.94
296.233	46.59
296.447	-10.75
296.662	-35.33
296.877	13.82
297.091	-25.09
297.306	15.87
297.52	28.16
297.735	34.3
297.949	19.97
298.164	24.06
298.378	3.58
298.593	3.58
298.807	13.82
299.022	28.16
299.236	3.58
299.451	1.54
299.665	11.78
299.88	-23.04
300.094	5.63
300.309	77.31
300.523	54.78
300.737	-10.75
300.952	15.87
301.166	-55.81
301.381	1.54
301.595	3.58
301.809	5.63
302.024	36.35
302.238	7.68
302.452	89.6
302.667	13.82
302.881	22.02
303.095	50.69
303.309	44.54
303.524	-37.38
303.738	42.5
303.952	-6.66
304.166	40.45
304.381	-35.33
304.595	36.35
304.809	24.06
305.023	-2.56
305.237	13.82
305.452	-27.14
305.666	22.02
305.88	24.06
306.094	26.11
306.308	-2.56
306.522	-61.95
306.736	-18.94
306.95	44.54
307.164	9.73
307.379	22.02
307.593	30.21
307.807	-4.61
308.021	46.59
308.235	50.69
308.449	-47.62
308.663	13.82
308.877	-10.75
309.091	118.27
309.305	-27.14
309.519	-29.18
309.733	-23.04
309.947	19.97
310.161	32.26
310.374	-55.81
310.588	7.68
310.802	-0.51
311.016	-10.75
311.23	-18.94
311.444	28.16
311.658	7.68
311.872	69.12
312.085	-53.76
312.299	62.98
312.513	62.98
312.727	5.63
312.941	11.78
313.154	50.69
313.368	75.26
313.582	-2.56
313.796	17.92
314.009	5.63
314.223	-0.51
314.437	19.97
314.651	17.92
314.864	-2.56
315.078	-10.75
315.292	-14.85
315.505	3.58
315.719	30.21
315.933	7.68
316.146	-6.66
316.36	26.11
316.573	-35.33
316.787	3.58
317.001	-16.9
317.214	-102.91
317.428	-25.09
317.641	65.02
317.855	52.74
318.068	24.06
318.282	36.35
318.495	19.97
318.709	-18.94
318.922	65.02
319.136	-10.75
319.349	-18.94
319.563	1.54
319.776	-31.23
319.99	38.4
320.203	52.74
320.417	44.54
320.63	13.82
320.843	105.98
321.057	69.12
321.27	-0.51
321.483	11.78
321.697	-33.28
321.91	30.21
322.124	-20.99
322.337	5.63
322.55	22.02
322.763	-14.85
322.977	56.83
323.19	40.45
323.403	36.35
323.617	-35.33
323.83	42.5
324.043	60.93
324.256	3.58
324.469	-4.61
324.683	15.87
324.896	15.87
325.109	58.88
325.322	-43.52
325.535	7.68
325.748	19.97
325.962	-4.61
326.175	-4.61
326.388	38.4
326.601	-20.99
326.814	28.16
327.027	-39.42
327.24	-37.38
327.453	13.82
327.666	62.98
327.879	1.54
328.092	19.97
328.305	77.31
328.518	-16.9
328.731	60.93
328.944	11.78
329.157	-53.76
329.37	26.11
329.583	5.63
329.796	22.02
330.009	-2.56
330.222	-4.61
330.435	5.63
330.648	38.4
330.861	-4.61
331.073	62.98
331.286	52.74
331.499	36.35
331.712	-27.14
331.925	-20.99
332.138	-27.14
332.35	-6.66
332.563	-16.9
332.776	-12.8
332.989	32.26
333.202	3.58
333.414	-25.09
333.627	-51.71
333.84	-31.23
334.053	34.3
334.265	17.92
334.478	-82.43
334.691	24.06
334.903	48.64
335.116	-10.75
335.329	-6.66
335.541	32.26
335.754	-16.9
335.966	-0.51
336.179	36.35
336.392	-10.75
336.604	-20.99
336.817	85.5
337.029	-18.94
337.242	-12.8
337.454	-37.38
337.667	85.5
337.88	60.93
338.092	-4.61
338.305	46.59
338.517	22.02
338.729	-18.94
338.942	-2.56
339.154	1.54
339.367	-4.61
339.579	28.16
339.792	-12.8
340.004	-10.75
340.217	15.87
340.429	38.4
340.641	24.06
340.854	22.02
341.066	-18.94
341.278	91.65
341.491	19.97
341.703	60.93
341.915	54.78
342.128	-33.28
342.34	26.11
342.552	50.69
342.764	-25.09
342.977	79.36
343.189	-51.71
343.401	34.3
343.613	-10.75
343.826	30.21
344.038	1.54
344.25	-0.51
344.462	103.93
344.674	15.87
344.886	40.45
345.099	91.65
345.311	1.54
345.523	1.54
345.735	1.54
345.947	60.93
346.159	-29.18
346.371	-31.23
346.583	83.45
346.795	15.87
347.007	-39.42
347.219	-16.9
347.431	44.54
347.643	-8.7
347.855	13.82
348.067	-10.75
348.279	-25.09
348.491	52.74
348.703	58.88
348.915	81.41
349.127	7.68
349.339	-43.52
349.551	38.4
349.763	-29.18
349.975	-43.52
350.187	-66.05
350.399	36.35
350.61	11.78
350.822	32.26
351.034	87.55
351.246	38.4
351.458	-29.18
351.669	-35.33
351.881	5.63
352.093	-29.18
352.305	48.64
352.517	50.69
352.728	77.31
352.94	48.64
353.152	5.63
353.363	-25.09
353.575	44.54
353.787	9.73
353.999	22.02
354.21	40.45
354.422	30.21
354.633	-31.23
354.845	-14.85
355.057	-27.14
355.268	54.78
355.48	11.78
355.692	-10.75
355.903	-27.14
356.115	-0.51
356.326	36.35
356.538	-6.66
356.749	40.45
356.961	9.73
357.172	5.63
357.384	15.87
357.595	40.45
357.807	32.26
358.018	-47.62
358.23	-45.57
358.441	97.79
358.653	-16.9
358.864	17.92
359.075	-35.33
359.287	-2.56
359.498	-37.38
359.709	95.74
359.921	-27.14
360.132	-35.33
360.344	36.35
360.555	15.87
360.766	19.97
360.977	-6.66
361.189	15.87
361.4	24.06
361.611	36.35
361.823	50.69
362.034	24.06
362.245	-12.8
362.456	60.93
362.667	36.35
362.879	-76.29
363.09	77.31
363.301	13.82
363.512	34.3
363.723	32.26
363.935	46.59
364.146	11.78
364.357	22.02
364.568	-29.18
364.779	3.58
364.99	15.87
365.201	-4.61
365.412	54.78
365.623	-0.51
365.834	46.59
366.045	38.4
366.256	-0.51
366.467	56.83
366.678	85.5
366.889	-2.56
367.1	-4.61
367.311	30.21
367.522	60.93
367.733	81.41
367.944	52.74
368.155	19.97
368.366	54.78
368.577	40.45
368.788	-12.8
368.999	-53.76
369.209	69.12
369.42	-43.52
369.631	9.73
369.842	42.5
370.053	54.78
370.264	19.97
370.474	46.59
370.685	28.16
370.896	-45.57
371.107	28.16
371.317	97.79
371.528	-29.18
371.739	73.21
371.95	-6.66
372.16	42.5
372.371	7.68
372.582	50.69
372.792	15.87
373.003	101.89
373.214	-37.38
373.424	60.93
373.635	58.88
373.846	28.16
374.056	26.11
374.267	77.31
374.477	-10.75
374.688	36.35
374.898	-6.66
375.109	15.87
375.319	30.21
375.53	34.3
375.74	30.21
375.951	-57.86
376.161	-8.7
376.372	22.02
376.582	-10.75
376.793	71.17
377.003	-29.18
377.214	67.07
377.424	50.69
377.635	40.45
377.845	-6.66
378.055	24.06
378.266	26.11
378.476	77.31
378.686	71.17
378.897	17.92
379.107	28.16
379.317	77.31
379.528	24.06
379.738	3.58
379.948	-6.66
380.158	24.06
380.369	87.55
380.579	-23.04
380.789	-29.18
380.999	56.83
381.21	-4.61
381.42	77.31
381.63	-4.61
381.84	1.54
382.05	-18.94
382.261	-6.66
382.471	-23.04
382.681	7.68
382.891	71.17
383.101	62.98
383.311	-2.56
383.521	3.58
383.731	40.45
383.941	110.08
384.151	-0.51
384.361	52.74
384.571	26.11
384.781	7.68
384.991	58.88
385.201	108.03
385.411	44.54
385.621	-33.28
385.831	36.35
386.041	-2.56
386.251	-29.18
386.461	42.5
386.671	-29.18
386.881	42.5
387.091	-27.14
387.301	69.12
387.511	34.3
387.72	44.54
387.93	-12.8
388.14	-16.9
388.35	-18.94
388.56	30.21
388.769	17.92
388.979	52.74
389.189	77.31
389.399	-8.7
389.609	22.02
389.818	42.5
390.028	3.58
390.238	73.21
390.447	24.06
390.657	-27.14
390.867	50.69
391.076	-12.8
391.286	65.02
391.496	9.73
391.705	54.78
391.915	17.92
392.125	120.32
392.334	15.87
392.544	1.54
392.753	-10.75
392.963	-29.18
393.172	32.26
393.382	46.59
393.591	105.98
393.801	19.97
394.01	32.26
394.22	-12.8
394.429	128.51
394.639	11.78
394.848	60.93
395.058	71.17
395.267	22.02
395.477	7.68
395.686	77.31
395.895	42.5
396.105	89.6
396.314	22.02
396.524	91.65
396.733	38.4
396.942	60.93
397.152	118.27
397.361	81.41
397.57	62.98
397.78	54.78
397.989	85.5
398.198	30.21
398.407	-18.94
398.617	44.54
398.826	48.64
399.035	50.69
399.244	60.93
399.453	77.31
399.663	56.83
399.872	15.87
400.081	-4.61
400.29	108.03
400.499	71.17
400.708	52.74
400.917	44.54
401.127	40.45
401.336	54.78
401.545	62.98
401.754	116.22
401.963	26.11
402.172	28.16
402.381	77.31
402.59	19.97
402.799	38.4
403.008	-4.61
403.217	65.02
403.426	26.11
403.635	36.35
403.844	62.98
404.053	-16.9
404.262	9.73
404.471	50.69
404.68	101.89
404.888	50.69
405.097	114.17
405.306	48.64
405.515	11.78
405.724	118.27
405.933	36.35
406.142	124.41
406.35	97.79
406.559	116.22
406.768	69.12
406.977	173.57
407.185	77.31
407.394	95.74
407.603	58.88
407.812	151.04
408.02	77.31
408.229	169.47
408.438	101.89
408.646	48.64
408.855	83.45
409.064	95.74
409.272	87.55
409.481	175.61
409.69	114.17
409.898	108.03
410.107	118.27
410.315	142.85
410.524	155.13
410.733	204.28
410.941	112.13
411.15	235
411.358	192
411.567	189.95
411.775	214.52
411.984	208.38
412.192	243.2
412.401	142.85
412.609	220.67
412.818	208.38
413.026	206.33
413.234	257.53
413.443	216.57
413.651	292.35
413.86	278.01
414.068	267.77
414.276	271.87
414.485	329.21
414.693	292.35
414.901	259.58
415.11	306.68
415.318	298.49
415.526	323.07
415.734	376.31
415.943	390.65
416.151	411.13
416.359	374.27
416.567	476.66
416.776	392.7
416.984	437.75
417.192	427.51
417.4	454.14
417.608	351.74
417.817	464.38
418.025	497.14
418.233	538.1
418.441	521.72
418.649	562.68
418.857	577.02
419.065	624.12
419.273	617.97
419.481	708.09
419.689	638.45
419.897	703.99
420.105	747
420.313	742.9
420.521	845.3
420.729	824.82
420.937	847.35
421.145	736.76
421.353	878.07
421.561	839.16
421.769	929.27
421.977	976.37
422.185	929.27
422.393	1013.23
422.601	1064.43
422.809	1037.81
423.017	1064.43
423.224	1066.48
423.432	1248.75
423.64	1125.87
423.848	1195.5
424.056	1189.36
424.263	1342.96
424.471	1285.61
424.679	1377.77
424.887	1471.98
425.094	1459.69
425.302	1451.5
425.51	1576.42
425.718	1633.77
425.925	1619.43
426.133	1684.97
426.341	1697.25
426.548	1836.52
426.756	1820.13
426.964	1885.67
427.171	1897.96
427.379	2053.6
427.586	2035.17
427.794	2145.76
428.001	2174.43
428.209	2305.5
428.417	2219.49
428.624	2418.14
428.832	2450.91
429.039	2393.56
429.247	2282.97
429.454	2518.49
429.662	2817.49
429.869	2678.23
430.076	2815.45
430.284	2731.48
430.491	2792.92
430.699	2923.99
430.906	2977.23
431.114	3036.63
431.321	3249.61
431.528	3263.95
431.736	3386.83
431.943	3556.81
432.15	3444.17
432.358	3612.1
432.565	3798.47
432.772	3790.28
432.979	4007.36
433.187	3984.84
433.394	3917.25
433.601	4230.59
433.808	4140.48
434.016	4183.49
434.223	4384.19
434.43	4672.95
434.637	4578.75
434.844	4869.56
435.052	5008.82
435.259	4875.7
435.466	4947.38
435.673	5168.56
435.88	5385.65
436.087	5506.48
436.294	5649.83
436.501	5359.02
436.708	5676.46
436.915	5823.91
437.122	5862.82
437.329	5950.89
437.537	6057.38
437.743	6401.44
437.95	6176.16
438.157	6630.81
438.364	6813.08
438.571	6778.26
438.778	6921.62
438.985	7503.25
439.192	6991.25
439.399	7388.56
439.606	7185.81
439.813	7501.2
440.02	8123.78
440.227	7892.36
440.433	7763.34
440.64	8134.02
440.847	8148.36
441.054	8392.06
441.261	8834.43
441.467	8785.27
441.674	8895.86
441.881	9135.48
442.088	9370.99
442.294	9098.61
442.501	9262.45
442.708	9655.66
442.914	10022.25
443.121	10442.08
443.328	10114.41
443.534	10784.09
443.741	10501.47
443.948	10384.74
444.154	11328.85
444.361	11079
444.568	10966.36
444.774	11404.63
444.981	11375.95
445.187	11758.92
445.394	12000.58
445.6	11949.39
445.807	13419.83
446.013	12830.01
446.22	12838.2
446.426	13438.26
446.633	13665.58
446.839	14023.98
447.046	13190.45
447.252	14286.12
447.459	14155.05
447.665	14171.43
447.871	14810.4
448.078	15648.02
448.284	14724.38
448.491	15146.26
448.697	15670.54
448.903	15877.39
449.11	16020.75
449.316	15836.43
449.522	16192.78
449.728	16823.55
449.935	16917.76
450.141	16725.25
450.347	16995.58
450.553	16542.98
450.76	16753.92
450.966	17483
451.172	17556.72
451.378	17892.59
451.584	17593.59
451.791	17790.19
451.997	17825.01
452.203	18124.01
452.409	18062.57
452.615	17960.17
452.821	17026.3
453.027	17063.16
453.233	17994.99
453.44	17466.61
453.646	17794.29
453.852	17614.07
454.058	18152.68
454.264	17423.61
454.47	17718.51
454.676	17618.16
454.882	17906.93
455.088	16465.16
455.294	16731.39
455.5	16862.46
455.705	17128.7
455.911	16504.07
456.117	16241.93
456.323	15826.19
456.529	15281.43
456.735	16131.34
456.941	15488.28
457.147	14855.45
457.352	14941.47
457.558	14470.44
457.764	14419.24
457.97	14267.69
458.176	13913.39
458.381	14130.47
458.587	13167.93
458.793	13225.27
458.999	12559.68
459.204	13655.34
459.41	13317.43
459.616	12107.08
459.821	12334.4
460.027	12143.94
460.233	12109.13
460.438	11394.39
460.644	11595.09
460.85	11035.99
461.055	10831.19
461.261	10984.79
461.466	10055.01
461.672	9889.13
461.878	10501.47
462.083	9756.01
462.289	9524.59
462.494	9596.27
462.7	8795.51
462.905	8711.55
463.111	9143.67
463.316	9168.24
463.522	9031.03
463.727	8971.64
463.932	9006.45
464.138	8863.1
464.343	8779.13
464.549	8701.31
464.754	9004.41
464.959	8916.34
465.165	8674.68
465.37	8504.7
465.575	8195.46
465.781	8533.37
465.986	8576.38
466.191	8379.78
466.397	8205.7
466.602	7796.11
466.807	7961.99
467.012	7927.18
467.218	8072.58
467.423	7869.83
467.628	7998.85
467.833	8236.42
468.038	7957.89
468.244	7830.92
468.449	7837.06
468.654	7875.98
468.859	7853.45
469.064	7781.77
469.269	7544.2
469.474	7515.53
469.679	7474.57
469.885	7273.87
470.09	7501.2
470.295	7335.31
470.5	7427.47
470.705	7411.09
470.91	7200.15
471.115	7064.98
471.32	7150.99
471.525	7175.57
471.73	6956.44
471.935	6950.29
472.139	6788.5
472.344	6919.57
472.549	6823.32
472.754	6690.2
472.959	6624.67
473.164	6387.1
473.369	6485.41
473.574	6479.26
473.778	6458.78
473.983	6399.39
474.188	6444.45
474.393	6133.15
474.598	6251.94
474.802	6296.99
475.007	6188.45
475.212	6141.35
475.417	5840.29
475.621	5854.63
475.826	5983.65
476.031	5766.57
476.235	5739.94
476.44	5735.85
476.645	5592.49
476.849	5785
477.054	5531.05
477.259	5569.96
477.463	5529
477.668	5432.75
477.872	5520.81
478.077	5393.84
478.282	5250.48
478.486	5193.14
478.691	5137.84
478.895	5160.37
479.1	5105.07
479.304	5201.33
479.509	5070.26
479.713	5023.16
479.918	4869.56
480.122	4847.03
480.326	4861.37
480.531	5103.03
480.735	4849.08
480.94	5000.63
481.144	4996.53
481.348	4787.64
481.553	4838.84
481.757	4697.53
481.961	4916.66
482.166	4937.14
482.37	4832.69
482.574	4783.54
482.778	4738.49
482.983	4912.57
483.187	4718.01
483.391	4961.72
483.595	4773.3
483.8	4744.63
484.004	4824.5
484.208	4855.22
484.412	4879.8
484.616	4822.45
484.821	4957.62
485.025	4703.67
485.229	4865.46
485.433	4769.21
485.637	4748.73
485.841	4789.69
486.045	4701.62
486.249	4709.82
486.453	4900.28
486.657	4707.77
486.861	4820.41
487.065	4642.23
487.269	4660.66
487.473	4844.98
487.677	4787.64
487.881	4840.89
488.085	4718.01
488.289	4902.33
488.493	4771.26
488.697	4926.9
488.901	4910.52
489.105	4830.65
489.309	4873.65
489.512	4887.99
489.716	4810.17
489.92	4808.12
490.124	4789.69
490.328	5000.63
490.531	4957.62
490.735	4935.09
490.939	5076.4
491.143	5076.4
491.346	5051.83
491.55	5008.82
491.754	5121.46
491.958	5156.27
492.161	5055.92
492.365	5100.98
492.569	5060.02
492.772	5141.94
492.976	5240.24
493.18	5193.14
493.383	5383.6
493.587	5385.65
493.79	5352.88
493.994	5338.54
494.197	5490.09
494.401	5297.58
494.605	5389.74
494.808	5283.25
495.012	5516.72
495.215	5631.4
495.419	5467.56
495.622	5576.11
495.825	5715.37
496.029	5705.13
496.232	5854.63
496.436	5729.7
496.639	6006.18
496.843	6041
497.046	6120.87
497.249	6301.09
497.453	6323.62
497.656	6268.32
497.859	6161.83
498.063	6495.64
498.266	6534.56
498.469	6503.84
498.673	6555.04
498.876	6651.29
499.079	6751.64
499.282	6825.37
499.485	6944.15
499.689	6860.18
499.892	7130.52
500.095	6960.53
500.298	7284.11
500.501	7318.93
500.705	7316.88
500.908	7427.47
501.111	7495.05
501.314	7693.71
501.517	7583.12
501.72	7851.4
501.923	8123.78
502.126	8056.2
502.329	8107.4
502.532	8187.27
502.735	8265.09
502.938	8392.06
503.141	8357.25
503.344	8562.05
503.547	8590.72
503.75	8668.54
503.953	9026.93
504.156	8926.58
504.359	9172.34
504.562	8998.26
504.765	9289.07
504.968	9393.52
505.17	9522.54
505.373	9698.67
505.576	9993.58
505.779	9878.89
505.982	10032.49
506.185	10188.13
506.387	10136.93
506.59	10274.15
506.793	10571.1
506.996	10394.98
507.198	10825.05
507.401	10712.41
507.604	11027.8
507.807	11048.28
508.009	11212.12
508.212	11388.24
508.415	11550.03
508.617	11576.66
508.82	11816.27
509.022	11613.52
509.225	11920.71
509.428	12340.55
509.63	12221.77
509.833	12242.25
510.035	12430.66
510.238	12447.04
510.44	12897.6
510.643	12887.36
510.845	13022.52
511.048	12936.51
511.25	13088.06
511.453	13385.01
511.655	13954.35
511.858	13813.04
512.06	13925.68
512.262	14140.71
512.465	14116.14
512.667	14308.65
512.87	14673.18
513.072	14671.14
513.274	14923.04
513.477	15140.12
513.679	14988.57
513.881	15346.97
514.084	15318.29
514.286	15709.46
514.488	15774.99
514.69	16071.95
514.893	16364.81
515.095	16270.6
515.297	16241.93
515.499	16538.88
515.701	16786.69
515.904	16917.76
516.106	17270.01
516.308	17431.8
516.51	17454.33
516.712	17546.48
516.914	17841.39
517.116	17976.56
517.318	18105.58
517.52	18164.97
517.722	18531.56
517.925	18470.12
518.127	18836.7
518.329	18765.03
518.531	19191
518.733	19100.89
518.935	19436.76
519.136	19283.16
519.338	19862.74
519.54	19727.57
519.742	20126.92
519.944	20153.55
520.146	20362.44
520.348	20444.36
520.55	21025.98
520.752	20753.6
520.954	21224.64
521.155	21200.06
521.357	21462.2
521.559	21634.23
521.761	22019.25
521.963	22015.15
522.164	21947.57
522.366	22060.21
522.568	22547.62
522.77	23012.51
522.971	23024.8
523.173	22385.83
523.375	22721.7
523.576	22977.7
523.778	23047.33
523.98	23542.94
524.181	23528.6
524.383	23612.57
524.584	23796.88
524.786	23731.35
524.988	23870.61
525.189	24167.57
525.391	24460.43
525.592	24427.66
525.794	24878.21
525.995	24636.55
526.197	25009.28
526.398	24616.07
526.6	25146.5
526.801	25144.45
527.003	25128.06
527.204	25203.84
527.406	25584.76
527.607	25074.82
527.808	25705.59
528.01	25267.33
528.211	25224.32
528.412	26233.97
528.614	26258.54
528.815	25666.68
529.016	26131.57
529.218	26139.76
529.419	26305.65
529.62	26049.65
529.822	26057.84
530.023	26072.18
530.224	26545.26
530.425	26170.48
530.626	26184.82
530.828	26102.9
531.029	26891.37
531.23	26344.56
531.431	26668.14
531.632	26817.64
531.833	26561.64
532.035	27040.87
532.236	26842.21
532.437	26971.24
532.638	26463.34
532.839	27096.16
533.04	26979.43
533.241	26633.32
533.442	27303.01
533.643	27059.3
533.844	26774.63
534.045	27044.96
534.246	26829.93
534.447	27370.59
534.648	27004
534.849	27403.36
535.05	26631.27
535.251	26811.49
535.451	26879.08
535.652	26975.33
535.853	27173.99
536.054	27286.62
536.255	27280.48
536.456	26938.47
536.657	27419.74
536.857	26911.85
537.058	26831.97
537.259	27260
537.46	27272.29
537.66	27409.5
537.861	27161.7
538.062	27200.61
538.263	27262.05
538.463	27210.85
538.664	26715.24
538.865	27233.38
539.065	27266.14
539.266	27128.93
539.466	27382.88
539.667	26973.28
539.868	27247.71
540.068	27155.55
540.269	27090.02
540.469	27446.37
540.67	27006.05
540.87	26928.23
541.071	27085.92
541.271	27276.38
541.472	27018.34
541.672	26983.52
541.873	26870.89
542.073	26727.53
542.274	27245.66
542.474	27004
542.675	26913.89
542.875	27237.47
543.075	27200.61
543.276	26870.89
543.476	27384.93
543.676	27128.93
543.877	27116.64
544.077	26940.52
544.277	27032.68
544.478	26735.72
544.678	27190.37
544.878	26877.03
545.078	27147.36
545.279	27028.58
545.479	26715.24
545.679	27028.58
545.879	26891.37
546.079	27061.35
546.28	26922.09
546.48	26979.43
546.68	26979.43
546.88	26885.22
547.08	26752.1
547.28	26930.28
547.48	26645.61
547.68	27202.66
547.88	26854.5
548.081	27067.49
548.281	26653.8
548.481	26842.21
548.681	27188.32
548.881	26893.41
549.081	26823.78
549.28	26770.54
549.48	26942.56
549.68	26653.8
549.88	27051.11
550.08	26758.25
550.28	26788.97
550.48	26782.82
550.68	26954.85
550.88	26489.96
551.08	26993.76
551.279	26940.52
551.479	26479.72
551.679	26862.69
551.879	26913.89
552.079	26995.81
552.278	26598.51
552.478	26725.48
552.678	26991.72
552.878	27100.26
553.077	26776.68
553.277	26827.88
553.477	27085.92
553.676	26954.85
553.876	26655.85
554.076	26446.96
554.275	26604.65
554.475	26184.82
554.674	26811.49
554.874	26586.22
555.074	26526.83
555.273	26569.83
555.473	26752.1
555.672	26618.99
555.872	26573.93
556.071	26641.51
556.271	26649.71
556.47	26594.41
556.67	26252.4
556.869	26434.67
557.068	26762.34
557.268	26463.34
557.467	26188.91
557.667	26350.7
557.866	26262.64
558.065	26362.99
558.265	26127.47
558.464	26082.42
558.663	26195.06
558.863	26125.43
559.062	26170.48
559.261	25980.02
559.461	26178.67
559.66	25799.8
559.859	26348.65
560.058	25939.06
560.258	26354.8
560.457	25576.57
560.656	26082.42
560.855	25486.46
561.054	25871.48
561.253	25451.64
561.453	25713.78
561.652	25773.17
561.851	25666.68
562.05	25670.78
562.249	25592.95
562.448	25904.24
562.647	25474.17
562.846	25654.39
563.045	25580.67
563.244	25371.77
563.443	25455.74
563.642	25037.95
563.841	25222.27
564.04	25101.44
564.239	25361.53
564.438	25083.01
564.637	25220.22
564.836	25334.91
565.035	25209.98
565.234	24841.35
565.432	25033.86
565.631	25117.82
565.83	25117.82
566.029	25119.87
566.228	24923.27
566.427	24953.99
566.625	25078.91
566.824	24638.6
567.023	24650.89
567.222	24183.95
567.42	24745.09
567.619	24679.56
567.818	24237.2
568.016	24423.56
568.215	24321.16
568.414	24409.23
568.612	24618.12
568.811	24439.95
569.01	24366.22
569.208	23983.25
569.407	24009.87
569.605	23780.5
569.804	24208.53
570.002	23600.28
570.201	24192.14
570.4	23633.05
570.598	23522.46
570.797	23633.05
570.995	23651.48
571.193	23243.93
571.392	23663.77
571.59	23477.4
571.789	23309.47
571.987	23610.52
572.186	23319.71
572.384	23121.06
572.582	23106.72
572.781	23467.16
572.979	22768.8
573.177	23590.04
573.376	23499.93
573.574	22893.73
573.772	22901.92
573.971	22934.69
574.169	22879.39
574.367	22668.45
574.565	22756.52
574.763	22967.46
574.962	22572.2
575.16	22334.64
575.358	22717.61
575.556	22203.57
575.754	22330.54
575.952	22060.21
576.151	22523.05
576.349	22025.39
576.547	21902.51
576.745	22234.28
576.943	21628.09
577.141	21990.58
577.339	21816.5
577.537	22086.83
577.735	22111.41
577.933	21595.32
578.131	22070.45
578.329	21462.2
578.527	21570.74
578.725	21370.04
578.923	21411
579.121	21640.37
579.319	21529.78
579.516	21347.51
579.714	21497.02
579.912	21435.58
580.11	20950.21
580.308	21116.09
580.506	20872.39
580.704	20896.96
580.901	20894.91
581.099	21146.81
581.297	20812.99
581.495	20798.66
581.692	20630.73
581.89	20776.13
582.088	20686.02
582.285	20778.18
582.483	20860.1
582.681	20540.61
582.878	20419.78
583.076	20317.39
583.274	20294.86
583.471	20088.01
583.669	20090.06
583.866	20249.8
584.064	20561.09
584.262	20055.25
584.459	20266.19
584.657	19965.14
584.854	19991.76
585.052	19838.16
585.249	19958.99
585.447	19950.8
585.644	19512.53
585.841	19664.08
586.039	19901.65
586.236	19481.81
586.434	19424.47
586.631	19320.03
586.828	19354.84
587.026	19363.03
587.223	19541.21
587.42	19379.42
587.618	19211.48
587.815	19078.36
588.012	19061.98
588.21	19086.56
588.407	18959.58
588.604	18881.76
588.801	18826.46
588.999	18746.59
589.196	18703.59
589.393	18638.05
589.59	18390.25
589.787	18431.21
589.984	18552.04
590.182	18263.27
590.379	18775.27
590.576	18316.52
590.773	18445.54
590.97	18244.84
591.167	18097.39
591.364	17994.99
591.561	18144.49
591.758	17804.53
591.955	18050.28
592.152	18038
592.349	18107.63
592.546	18109.68
592.743	18040.04
592.94	17646.83
593.137	17798.38
593.334	17771.76
593.531	17509.62
593.727	17775.86
593.924	17360.12
594.121	17362.17
594.318	17286.39
594.515	17235.19
594.712	17544.44
594.908	17284.34
595.105	17470.71
595.302	17083.64
595.499	17009.92
595.696	17331.45
595.892	17143.03
596.089	16833.79
596.286	17022.2
596.482	17024.25
596.679	17018.11
596.876	16815.36
597.072	16768.26
597.269	16854.27
597.466	16712.96
597.662	16555.27
597.859	16678.15
598.055	16911.61
598.252	16407.81
598.448	16514.31
598.645	16536.84
598.841	16090.38
599.038	16624.9
599.234	16108.81
599.431	16178.44
599.627	16045.32
599.824	16157.96
600.02	15813.9
600.217	16059.66
600.413	16043.28
600.609	15838.48
600.806	15891.73
601.002	15664.4
601.198	16010.51
601.395	15756.56
601.591	15428.88
601.787	15527.19
601.984	15729.94
602.18	15711.5
602.376	15412.5
602.572	15447.32
602.769	15260.95
602.965	15058.2
603.161	15326.49
603.357	15428.88
603.553	15379.73
603.75	15283.48
603.946	15209.75
604.142	15138.07
604.338	14982.43
604.534	15142.17
604.73	14877.98
604.926	14720.29
605.122	15062.3
605.318	14736.67
605.514	14595.36
605.71	14853.41
605.906	14748.96
606.102	14507.3
606.298	14554.4
606.494	14460.2
606.69	14525.73
606.886	14476.58
607.082	14398.76
607.278	14761.25
607.474	14107.94
607.67	14449.96
607.866	14132.52
608.062	14361.89
608.257	14265.64
608.453	14368.04
608.649	14150.95
608.845	14249.25
609.041	14243.11
609.236	14155.05
609.432	14087.47
609.628	14040.36
609.824	14073.13
610.019	14048.55
610.215	14052.65
610.411	13907.24
610.606	13835.56
610.802	13686.06
610.998	13686.06
611.193	13784.37
611.389	13622.58
611.584	13342
611.78	13565.23
611.976	13489.46
612.171	13673.78
612.367	13759.79
612.562	13395.25
612.758	13452.59
612.953	13497.65
613.149	13342
613.344	13327.67
613.539	13677.87
613.735	13532.47
613.93	13221.17
614.126	13378.87
614.321	13452.59
614.517	13288.76
614.712	13258.04
614.907	12961.08
615.103	13245.75
615.298	13145.4
615.493	13292.85
615.688	13167.93
615.884	13223.22
616.079	13086.01
616.274	13274.42
616.47	12979.51
616.665	12991.8
616.86	12907.84
617.055	12838.2
617.25	12999.99
617.445	12844.35
617.641	12764.48
617.836	12889.4
618.031	12666.17
618.226	12707.13
618.421	12463.43
618.616	12541.25
618.811	12627.26
619.006	12846.4
619.201	12391.75
619.396	12533.06
619.591	12115.27
619.786	12262.72
619.981	12424.51
620.176	12215.62
620.371	12248.39
620.566	12189
620.761	12047.69
620.956	12133.7
621.151	11926.86
621.346	11781.45
621.541	11677.01
621.735	11926.86
621.93	11785.55
622.125	11904.33
622.32	11558.22
622.515	11507.02
622.709	11562.32
622.904	11402.58
623.099	11257.17
623.294	11189.59
623.488	11253.08
623.683	11455.83
623.878	11017.56
624.072	11083.09
624.267	10978.65
624.462	10947.93
624.656	10995.03
624.851	10798.43
625.046	10859.87
625.24	10685.79
625.435	10763.61
625.629	10644.83
625.824	10560.86
626.018	10519.9
626.213	10294.63
626.407	10382.69
626.602	10380.64
626.796	10278.24
626.991	10265.96
627.185	10083.69
627.38	10306.91
627.574	9856.36
627.768	10190.18
627.963	9839.98
628.157	9817.45
628.352	9803.11
628.546	9745.77
628.74	9899.37
628.935	9817.45
629.129	9997.67
629.323	9725.29
629.517	9518.45
629.712	9563.5
629.906	9409.9
630.1	9221.49
630.294	9500.02
630.489	9493.87
630.683	9426.29
630.877	9338.23
631.071	9149.81
631.265	9205.11
631.459	9147.76
631.653	9024.89
631.848	9180.53
632.042	9033.08
632.236	8912.25
632.43	9033.08
632.624	8697.21
632.818	8826.23
633.012	8803.71
633.206	8496.51
633.4	8760.7
633.594	8551.81
633.788	8637.82
633.982	8473.98
634.176	8615.29
634.369	8416.64
634.563	8334.72
634.757	8390.02
634.951	8392.06
635.145	8187.27
635.339	8349.06
635.533	8449.41
635.726	8220.03
635.92	7949.7
636.114	8142.21
636.308	8000.9
636.501	7896.46
636.695	8009.09
636.889	7959.94
637.083	7775.63
637.276	7716.23
637.47	7744.91
637.664	7695.75
637.857	7705.99
638.051	7648.65
638.244	7441.81
638.438	7452.05
638.632	7460.24
638.825	7366.03
639.019	7357.84
639.212	7353.74
639.406	7411.09
639.599	7308.69
639.793	7312.78
639.986	7148.95
640.18	7290.26
640.373	7216.53
640.567	7255.44
640.76	7034.26
640.954	7069.08
641.147	6974.87
641.34	6993.3
641.534	7226.77
641.727	6886.81
641.92	6952.34
642.114	6886.81
642.307	6788.5
642.5	6696.35
642.694	6626.71
642.887	6675.87
643.08	6757.78
643.273	6659.48
643.467	6542.75
643.66	6481.31
643.853	6473.12
644.046	6376.86
644.239	6288.8
644.432	6288.8
644.626	6231.46
644.819	6276.51
645.012	6213.03
645.205	6221.22
645.398	6241.7
645.591	6079.91
645.784	6008.23
645.977	6022.56
646.17	6063.52
646.363	6018.47
646.556	5907.88
646.749	6034.85
646.942	5873.06
647.135	5852.58
647.328	6030.76
647.521	5741.99
647.714	5612.97
647.907	5723.56
648.099	5629.35
648.292	5754.28
648.485	5494.19
648.678	5442.99
648.871	5455.28
649.064	5426.61
649.256	5627.31
649.449	5465.52
649.642	5381.55
649.835	5336.49
650.027	5406.13
650.22	5297.58
650.413	5418.41
650.605	5223.86
650.798	5242.29
650.991	5084.59
651.183	5293.49
651.376	5199.28
651.568	5078.45
651.761	5160.37
651.954	5000.63
652.146	5002.68
652.339	5051.83
652.531	4976.05
652.724	4953.52
652.916	4902.33
653.109	4869.56
653.301	5060.02
653.494	4855.22
653.686	4812.21
653.879	4965.81
654.071	4885.94
654.263	4697.53
654.456	4758.97
654.648	4734.39
654.84	4603.32
655.033	4675
655.225	4689.34
655.417	4599.23
655.61	4572.6
655.802	4521.4
655.994	4392.38
656.186	4468.16
656.379	4470.2
656.571	4324.8
656.763	4482.49
656.955	4412.86
657.148	4269.5
657.34	4425.15
657.532	4300.22
657.724	4322.75
657.916	4304.32
658.108	4347.33
658.3	4255.17
658.492	4273.6
658.684	4103.62
658.876	4177.34
659.068	4027.84
659.26	4115.91
659.452	4064.71
659.644	4042.18
659.836	4027.84
660.028	4093.38
660.22	4013.51
660.412	4007.36
660.604	4003.27
660.796	3909.06
660.988	3962.31
661.18	3796.42
661.372	3771.85
661.563	3872.2
661.755	3734.98
661.947	3829.19
662.139	3777.99
662.331	3747.27
662.522	3677.64
662.714	3745.22
662.906	3626.44
663.097	3612.1
663.289	3651.02
663.481	3521.99
663.673	3681.74
663.864	3448.27
664.056	3478.99
664.247	3507.66
664.439	3495.37
664.631	3450.32
664.822	3567.05
665.014	3438.03
665.205	3360.2
665.397	3345.87
665.588	3372.49
665.78	3397.07
665.971	3274.19
666.163	3255.76
666.354	3345.87
666.546	3165.65
666.737	3222.99
666.929	3247.57
667.12	3339.73
667.311	3272.14
667.503	3229.13
667.694	3184.08
667.885	3182.03
668.077	3116.5
668.268	3116.5
668.459	3087.82
668.651	3175.89
668.842	2997.71
669.033	3266
669.224	2969.04
669.416	3079.63
669.607	3077.59
669.798	2987.47
669.989	2966.99
670.18	2911.7
670.371	2891.22
670.563	2989.52
670.754	2880.98
670.945	2907.6
671.136	3005.91
671.327	2907.6
671.518	2981.33
671.709	2905.56
671.9	2944.47
672.091	2909.65
672.282	2911.7
672.473	2975.19
672.664	2831.83
672.855	2917.84
673.046	2899.41
673.237	2823.64
673.428	2848.21
673.619	2686.42
673.809	2717.14
674	2893.27
674.191	2764.25
674.382	2874.84
674.573	2772.44
674.764	2688.47
674.954	2801.11
675.145	2674.14
675.336	2661.85
675.527	2807.25
675.717	2692.57
675.908	2674.14
676.099	2694.61
676.289	2729.43
676.48	2549.21
676.671	2676.18
676.861	2651.61
677.052	2610.65
677.243	2618.84
677.433	2616.79
677.624	2637.27
677.814	2538.97
678.005	2606.55
678.195	2473.43
678.386	2622.94
678.576	2477.53
678.767	2504.15
678.957	2489.82
679.148	2510.3
679.338	2510.3
679.529	2483.67
679.719	2569.69
679.909	2534.87
680.1	2606.55
680.29	2436.57
680.481	2493.91
680.671	2569.69
680.861	2448.86
681.052	2426.33
681.242	2395.61
681.432	2375.13
681.622	2432.47
681.813	2479.58
682.003	2446.81
682.193	2393.56
682.383	2495.96
682.573	2428.38
682.764	2405.85
682.954	2395.61
683.144	2420.19
683.334	2428.38
683.524	2520.54
683.714	2409.95
683.904	2340.32
684.094	2338.27
684.284	2289.12
684.474	2379.23
684.664	2371.04
684.854	2282.97
685.044	2362.84
685.234	2342.36
685.424	2375.13
685.614	2260.45
685.804	2299.36
685.994	2301.4
686.184	2403.8
686.374	2338.27
686.564	2328.03
686.753	2289.12
686.943	2293.21
687.133	2297.31
687.323	2266.59
687.513	2207.2
687.702	2203.1
687.892	2330.08
688.082	2385.37
688.272	2289.12
688.461	2250.21
688.651	2297.31
688.841	2190.81
689.03	2264.54
689.22	2266.59
689.41	2237.92
689.599	2274.78
689.789	2205.15
689.979	2209.25
690.168	2125.28
690.358	2268.64
690.547	2186.72
690.737	2192.86
690.926	2280.93
691.116	2250.21
691.305	2260.45
691.495	2166.24
691.684	2201.05
691.874	2201.05
692.063	2133.47
692.252	2285.02
692.442	2129.38
692.631	2184.67
692.82	2133.47
693.01	1990.11
693.199	2166.24
693.388	2176.48
693.578	2207.2
693.767	2186.72
693.956	2082.27
694.146	2176.48
694.335	1986.02
694.524	2123.23
694.713	2102.75
694.902	2121.18
695.092	2092.51
695.281	2100.7
695.47	2053.6
695.659	1949.15
695.848	2149.86
696.037	2008.55
696.226	2010.59
696.415	2026.98
696.604	2086.37
696.793	2147.81
696.982	2051.55
697.171	2119.14
697.36	1889.76
697.549	2035.17
697.738	2026.98
697.927	2004.45
698.116	1973.73
698.305	2031.07
698.494	1961.44
698.683	1994.21
698.872	2024.93
699.061	1926.63
699.25	2053.6
699.438	1846.76
699.627	1957.35
699.816	1965.54
700.005	1949.15
700.193	1879.52
700.382	1922.53
700.571	1990.11
700.76	1977.83
700.948	2108.9
701.137	1977.83
701.326	1928.67
701.514	1949.15
701.703	1934.82
701.892	1912.29
702.08	1893.86
702.269	1883.62
702.457	1852.9
702.646	1928.67
702.834	1857
703.023	1965.54
703.212	1904.1
703.4	1910.24
703.589	1840.61
703.777	1861.09
703.965	1811.94
704.154	1824.23
704.342	1777.12
704.531	1834.47
704.719	1871.33
704.907	1873.38
705.096	1797.6
705.284	1779.17
705.472	1762.79
705.661	1801.7
705.849	1887.72
706.037	1773.03
706.226	1789.41
706.414	1781.22
706.602	1723.88
706.79	1861.09
706.979	1865.19
707.167	1709.54
707.355	1754.6
707.543	1832.42
707.731	1717.73
707.919	1734.12
708.107	1781.22
708.296	1707.49
708.484	1664.49
708.672	1781.22
708.86	1725.93
709.048	1713.64
709.236	1738.21
709.424	1740.26
709.612	1840.61
709.8	1807.84
709.988	1695.21
710.176	1682.92
710.364	1682.92
710.551	1830.37
710.739	1611.24
710.927	1621.48
711.115	1629.67
711.303	1766.89
711.491	1603.05
711.679	1650.15
711.866	1672.68
712.054	1730.02
712.242	1621.48
712.43	1672.68
712.617	1758.69
712.805	1576.42
712.993	1668.58
713.181	1639.91
713.368	1607.14
713.556	1580.52
713.744	1695.21
713.931	1568.23
714.119	1551.85
714.306	1644.01
714.494	1424.87
714.682	1553.9
714.869	1572.33
715.057	1629.67
715.244	1611.24
715.432	1646.05
715.619	1596.9
715.807	1551.85
715.994	1510.89
716.182	1512.94
716.369	1478.12
716.556	1539.56
716.744	1523.18
716.931	1553.9
717.119	1594.86
717.306	1539.56
717.493	1512.94
717.681	1557.99
717.868	1555.94
718.055	1467.88
718.242	1463.79
718.43	1482.22
718.617	1443.31
718.804	1564.14
718.991	1474.03
719.179	1502.7
719.366	1535.46
719.553	1488.36
719.74	1543.66
719.927	1478.12
720.114	1424.87
720.301	1449.45
720.488	1404.39
720.676	1400.3
720.863	1469.93
721.05	1467.88
721.237	1553.9
721.424	1484.27
721.611	1375.72
721.798	1457.64
721.985	1402.35
722.172	1396.2
722.358	1402.35
722.545	1428.97
722.732	1414.63
722.919	1474.03
723.106	1351.15
723.293	1377.77
723.48	1385.96
723.667	1383.91
723.853	1330.67
724.04	1461.74
724.227	1310.19
724.414	1404.39
724.6	1320.43
724.787	1316.33
724.974	1357.29
725.161	1371.63
725.347	1283.56
725.534	1388.01
725.72	1289.71
725.907	1314.28
726.094	1336.81
726.28	1336.81
726.467	1263.08
726.653	1267.18
726.84	1367.53
727.027	1359.34
727.213	1308.14
727.4	1269.23
727.586	1295.85
727.773	1248.75
727.959	1293.8
728.145	1279.47
728.332	1377.77
728.518	1336.81
728.705	1375.72
728.891	1226.22
729.077	1285.61
729.264	1232.37
729.45	1283.56
729.636	1177.07
729.823	1326.57
730.009	1256.94
730.195	1252.84
730.382	1302
730.568	1295.85
730.754	1261.04
730.94	1295.85
731.126	1306.09
731.313	1289.71
731.499	1250.8
731.685	1183.21
731.871	1273.32
732.057	1265.13
732.243	1269.23
732.429	1267.18
732.615	1187.31
732.801	1265.13
732.987	1183.21
733.173	1197.55
733.359	1248.75
733.545	1256.94
733.731	1299.95
733.917	1338.86
734.103	1168.88
734.289	1287.66
734.475	1320.43
734.661	1222.13
734.847	1195.5
735.033	1187.31
735.219	1136.11
735.404	1236.46
735.59	1113.58
735.776	1162.73
735.962	1136.11
736.148	1248.75
736.333	1132.01
736.519	1125.87
736.705	1213.93
736.89	1222.13
737.076	1187.31
737.262	1099.25
737.447	1142.25
737.633	1175.02
737.819	1244.65
738.004	1218.03
738.19	1138.16
738.375	1246.7
738.561	1250.8
738.747	1146.35
738.932	1181.17
739.118	1060.34
739.303	1228.27
739.489	1175.02
739.674	1105.39
739.859	1177.07
740.045	1189.36
740.23	1007.09
740.416	1072.62
740.601	1105.39
740.786	1134.06
740.972	1113.58
741.157	1181.17
741.342	1078.77
741.528	1070.58
741.713	1097.2
741.898	1048.05
742.084	1150.45
742.269	1048.05
742.454	1011.18
742.639	1136.11
742.824	1035.76
743.01	1107.44
743.195	1050.1
743.38	1076.72
743.565	1015.28
743.75	1080.82
743.935	1070.58
744.12	1002.99
744.305	1035.76
744.49	984.56
744.675	900.59
744.86	984.56
745.045	1101.3
745.23	1046
745.415	953.84
745.6	1093.1
745.785	1068.53
745.97	1015.28
746.155	970.23
746.34	998.9
746.525	974.32
746.71	1035.76
746.895	1002.99
747.079	931.31
747.264	923.12
747.449	955.89
747.634	978.42
747.819	919.03
748.003	900.59
748.188	890.35
748.373	927.22
748.557	894.45
748.742	931.31
748.927	869.87
749.111	896.5
749.296	837.11
749.481	921.07
749.665	919.03
749.85	769.52
750.034	919.03
750.219	800.24
750.404	896.5
750.588	835.06
750.773	802.29
750.957	886.26
751.141	806.39
751.326	826.87
751.51	814.58
751.695	822.77
751.879	818.68
752.064	886.26
752.248	843.25
752.432	830.96
752.617	865.78
752.801	796.15
752.985	765.43
753.17	785.91
753.354	790
753.538	671.22
753.722	798.2
753.907	710.13
754.091	744.95
754.275	706.04
754.459	710.13
754.643	734.71
754.828	667.13
755.012	792.05
755.196	726.52
755.38	620.02
755.564	773.62
755.748	660.98
755.932	771.57
756.116	714.23
756.3	620.02
756.484	699.89
756.668	734.71
756.852	663.03
757.036	673.27
757.22	663.03
757.404	701.94
757.588	613.88
757.772	603.64
757.956	726.52
758.14	691.7
758.323	644.6
758.507	605.69
758.691	683.51
758.875	685.56
759.059	609.78
759.242	609.78
759.426	648.69
759.61	527.86
759.794	572.92
759.977	599.54
760.161	722.42
760.345	552.44
760.528	534.01
760.712	538.1
760.895	568.82
761.079	531.96
761.263	579.06
761.446	601.59
761.63	581.11
761.813	554.49
761.997	570.87
762.18	509.43
762.364	646.65
762.547	519.67
762.731	585.21
762.914	626.17
763.098	527.86
763.281	484.86
763.464	554.49
763.648	566.78
763.831	523.77
764.015	529.91
764.198	511.48
764.381	554.49
764.564	458.23
764.748	560.63
764.931	544.25
765.114	568.82
765.297	577.02
765.481	450.04
765.664	495.1
765.847	472.57
766.03	503.29
766.213	579.06
766.397	435.71
766.58	474.62
766.763	527.86
766.946	501.24
767.129	542.2
767.312	509.43
767.495	542.2
767.678	476.66
767.861	466.42
768.044	587.26
768.227	509.43
768.41	513.53
768.593	423.42
768.776	423.42
768.959	437.75
769.142	544.25
769.324	495.1
769.507	474.62
769.69	501.24
769.873	488.95
770.056	527.86
770.239	447.99
770.421	511.48
770.604	546.3
770.787	411.13
770.97	400.89
771.152	394.75
771.335	329.21
771.518	392.7
771.7	472.57
771.883	519.67
772.066	380.41
772.248	423.42
772.431	441.85
772.613	445.95
772.796	392.7
772.978	470.52
773.161	503.29
773.343	464.38
773.526	396.79
773.708	407.03
773.891	443.9
774.073	454.14
774.256	376.31
774.438	396.79
774.621	419.32
774.803	474.62
774.985	386.55
775.168	421.37
775.35	370.17
775.532	431.61
775.715	255.48
775.897	404.99
776.079	349.69
776.261	302.59
776.444	419.32
776.626	445.95
776.808	419.32
776.99	396.79
777.173	359.93
777.355	351.74
777.537	312.83
777.719	349.69
777.901	384.51
778.083	355.83
778.265	308.73
778.447	318.97
778.629	341.5
778.811	318.97
778.993	343.55
779.175	366.07
779.357	341.5
779.539	404.99
779.721	300.54
779.903	318.97
780.085	302.59
780.267	325.12
780.449	298.49
780.631	345.59
780.812	290.3
780.994	325.12
781.176	316.92
781.358	306.68
781.54	314.88
781.721	321.02
781.903	284.16
782.085	214.52
782.267	267.77
782.448	245.24
782.63	331.26
782.812	286.2
782.993	355.83
783.175	372.22
783.357	284.16
783.538	296.44
783.72	286.2
783.901	235
784.083	284.16
784.264	290.3
784.446	335.35
784.627	259.58
784.809	282.11
784.99	257.53
785.172	310.78
785.353	232.96
785.535	122.37
785.716	220.67
785.897	214.52
786.079	247.29
786.26	222.72
786.441	251.39
786.623	298.49
786.804	282.11
786.985	167.42
787.167	130.56
787.348	249.34
787.529	224.76
787.71	140.8
787.891	194.05
788.073	296.44
788.254	237.05
788.435	235
788.616	192
788.797	177.66
788.978	196.09
789.159	245.24
789.34	232.96
789.522	218.62
789.703	161.28
789.884	134.65
790.065	220.67
790.246	257.53
790.427	171.52
790.607	267.77
790.788	257.53
790.969	142.85
791.15	290.3
791.331	218.62
791.512	151.04
791.693	155.13
791.874	163.33
792.054	228.86
792.235	232.96
792.416	214.52
792.597	155.13
792.778	138.75
792.958	198.14
793.139	200.19
793.32	241.15
793.5	269.82
793.681	148.99
793.862	99.84
794.042	140.8
794.223	124.41
794.404	177.66
794.584	181.76
794.765	146.94
794.945	134.65
795.126	181.76
795.306	175.61
795.487	136.7
795.667	200.19
795.848	183.81
796.028	146.94
796.209	169.47
796.389	128.51
796.57	112.13
796.75	148.99
796.93	224.76
797.111	105.98
797.291	183.81
797.471	138.75
797.652	65.02
797.832	167.42
798.012	148.99
798.192	157.18
798.373	114.17
798.553	97.79
798.733	136.7
798.913	112.13
799.093	128.51
799.274	89.6
799.454	192
799.634	177.66
799.814	198.14
799.994	112.13
800.174	77.31
800.354	62.98
800.534	151.04
800.714	202.24
800.894	81.41
801.074	130.56
801.254	56.83
801.434	177.66
801.614	132.61
801.794	183.81
801.974	388.6
802.154	202.24
802.334	122.37
802.514	60.93
802.693	136.7
802.873	148.99
803.053	153.09
803.233	71.17
803.413	118.27
803.592	163.33
803.772	128.51
803.952	122.37
804.131	124.41
804.311	179.71
804.491	169.47
804.67	85.5
804.85	151.04
805.03	95.74
805.209	118.27
805.389	157.18
805.568	120.32
805.748	36.35
805.928	140.8
806.107	97.79
806.287	40.45
806.466	138.75
806.646	83.45
806.825	118.27
807.004	48.64
807.184	40.45
807.363	48.64
807.543	28.16
807.722	83.45
807.901	153.09
808.081	148.99
808.26	79.36
808.439	48.64
808.619	52.74
808.798	136.7
808.977	95.74
809.156	19.97
809.336	62.98
809.515	120.32
809.694	52.74
809.873	69.12
810.052	97.79
810.231	165.37
810.411	75.26
810.59	126.46
810.769	142.85
810.948	136.7
811.127	93.69
811.306	120.32
811.485	56.83
811.664	99.84
811.843	110.08
812.022	91.65
812.201	89.6
812.38	52.74
812.559	71.17
812.737	58.88
812.916	44.54
813.095	108.03
813.274	87.55
813.453	103.93
813.632	71.17
813.811	62.98
813.989	62.98
814.168	124.41
814.347	60.93
814.526	26.11
814.704	71.17
814.883	62.98
815.062	38.4
815.24	52.74
815.419	17.92
815.598	79.36
815.776	77.31
815.955	77.31
816.133	17.92
816.312	40.45
816.49	120.32
816.669	87.55
816.847	62.98
817.026	118.27
817.204	85.5
817.383	95.74
817.561	-10.75
817.74	163.33
817.918	79.36
818.097	93.69
818.275	110.08
818.453	54.78
818.632	32.26
818.81	83.45
818.988	-12.8
819.167	79.36
819.345	103.93
819.523	118.27
819.701	101.89
819.879	44.54
820.058	-25.09
820.236	95.74
820.414	60.93
820.592	112.13
820.77	44.54
820.948	77.31
821.127	26.11
821.305	87.55
821.483	9.73
821.661	105.98
821.839	50.69
822.017	79.36
822.195	60.93
822.373	81.41
822.551	56.83
822.729	77.31
822.907	34.3
823.085	46.59
823.262	22.02
823.44	81.41
823.618	118.27
823.796	105.98
823.974	101.89
824.152	28.16
824.329	110.08
824.507	5.63
824.685	15.87
824.863	42.5
825.04	-0.51
825.218	101.89
825.396	34.3
825.574	28.16
825.751	58.88
825.929	13.82
826.107	19.97
826.284	128.51
826.462	73.21
826.639	-8.7
826.817	58.88
826.994	79.36
827.172	15.87
827.349	58.88
827.527	32.26
827.704	15.87
827.882	120.32
828.059	46.59
828.237	52.74
828.414	103.93
828.591	3.58
828.769	73.21
828.946	60.93
829.124	62.98
829.301	81.41
829.478	-14.85
829.655	42.5
829.833	46.59
830.01	75.26
830.187	69.12
830.364	-4.61
830.542	15.87
830.719	81.41
830.896	19.97
831.073	67.07
831.25	69.12
831.427	1.54
831.604	13.82
831.782	9.73
831.959	-4.61
832.136	13.82
832.313	54.78
832.49	-49.66
832.667	65.02
832.844	-0.51
833.021	36.35
833.198	13.82
833.374	52.74
833.551	89.6
833.728	44.54
833.905	46.59
834.082	-0.51
834.259	40.45
834.436	97.79
834.612	13.82
834.789	46.59
834.966	60.93
835.143	65.02
835.319	46.59
835.496	30.21
835.673	112.13
835.85	-16.9
836.026	36.35
836.203	-45.57
836.38	22.02
836.556	-6.66
836.733	-16.9
836.909	87.55
837.086	36.35
837.262	54.78
837.439	73.21
837.616	77.31
837.792	1.54
837.968	-12.8
838.145	58.88
838.321	-4.61
838.498	62.98
838.674	52.74
838.851	34.3
839.027	46.59
839.203	38.4
839.38	28.16
839.556	19.97
839.732	58.88
839.909	17.92
840.085	85.5
840.261	77.31
840.437	-66.05
840.614	-16.9
840.79	5.63
840.966	52.74
841.142	79.36
841.318	32.26
841.494	11.78
841.671	60.93
841.847	36.35
842.023	-0.51
842.199	-53.76
842.375	13.82
842.551	85.5
842.727	19.97
842.903	-4.61
843.079	-16.9
843.255	17.92
843.431	-8.7
843.607	52.74
843.783	34.3
843.959	-16.9
844.134	-37.38
844.31	-29.18
844.486	50.69
844.662	24.06
844.838	65.02
845.013	-35.33
845.189	40.45
845.365	38.4
845.541	56.83
845.716	-10.75
845.892	-2.56
846.068	-2.56
846.244	-10.75
846.419	73.21
846.595	11.78
846.77	7.68
846.946	48.64
847.122	-8.7
847.297	30.21
847.473	36.35
847.648	-29.18
847.824	22.02
847.999	-57.86
848.175	-10.75
848.35	-45.57
848.526	97.79
848.701	28.16
848.876	-20.99
849.052	71.17
849.227	38.4
849.403	30.21
849.578	71.17
849.753	13.82
849.929	-37.38
850.104	-20.99
850.279	58.88
850.454	-10.75
850.63	3.58
850.805	-39.42
850.98	-8.7
851.155	50.69
851.33	15.87
851.505	13.82
851.681	-10.75
851.856	11.78
852.031	-23.04
852.206	42.5
852.381	32.26
852.556	30.21
852.731	85.5
852.906	-45.57
853.081	60.93
853.256	44.54
853.431	-31.23
853.606	-82.43
853.781	-18.94
853.956	-29.18
854.131	19.97
854.305	-18.94
854.48	13.82
854.655	5.63
854.83	54.78
855.005	-51.71
855.18	-8.7
855.354	11.78
855.529	-45.57
855.704	-53.76
855.879	-27.14
856.053	11.78
856.228	28.16
856.403	-6.66
856.577	-23.04
856.752	-43.52
856.926	46.59
857.101	-18.94
857.276	-14.85
857.45	-0.51
857.625	3.58
857.799	-66.05
857.974	-20.99
858.148	24.06
858.323	48.64
858.497	1.54
858.672	3.58
858.846	91.65
859.02	22.02
859.195	19.97
859.369	5.63
859.543	-6.66
859.718	75.26
859.892	32.26
860.066	-10.75
860.241	11.78
860.415	-4.61
860.589	-4.61
860.763	46.59
860.938	42.5
861.112	36.35
861.286	32.26
861.46	-12.8
861.634	13.82
861.808	40.45
861.982	15.87
862.157	-4.61
862.331	52.74
862.505	38.4
862.679	26.11
862.853	22.02
863.027	-80.38
863.201	-2.56
863.375	-18.94
863.549	5.63
863.722	28.16
863.896	-88.57
864.07	-29.18
864.244	5.63
864.418	-6.66
864.592	24.06
864.766	5.63
864.939	-20.99
865.113	-37.38
865.287	-8.7
865.461	-45.57
865.634	65.02
865.808	-53.76
865.982	32.26
866.156	-53.76
866.329	-12.8
866.503	-27.14
866.676	48.64
866.85	5.63
867.024	-0.51
867.197	-49.66
867.371	42.5
867.544	-10.75
867.718	79.36
867.891	-8.7
868.065	9.73
868.238	26.11
868.412	32.26
868.585	-8.7
868.759	22.02
868.932	-35.33
869.105	-27.14
869.279	-57.86
869.452	-0.51
869.625	52.74
869.799	32.26
869.972	-4.61
870.145	54.78
870.319	26.11
870.492	52.74
870.665	-41.47
870.838	-25.09
871.011	-33.28
871.185	22.02
871.358	-14.85
871.531	28.16
871.704	-78.33
871.877	5.63
872.05	22.02
872.223	-45.57
872.396	40.45
872.569	-2.56
872.742	-16.9
872.915	1.54
873.088	-6.66
873.261	15.87
873.434	28.16
873.607	11.78
873.78	-25.09
873.953	-35.33
874.126	28.16
874.299	60.93
874.471	-18.94
874.644	40.45
874.817	-35.33
874.99	87.55
875.163	17.92
875.335	9.73
875.508	-25.09
875.681	7.68
875.853	36.35
876.026	-61.95
876.199	44.54
876.371	-49.66
876.544	1.54
876.717	-27.14
876.889	5.63
877.062	32.26
877.234	-0.51
877.407	-20.99
877.579	30.21
877.752	17.92
877.924	1.54
878.097	-35.33
878.269	-0.51
878.442	-8.7
878.614	-41.47
878.786	56.83
878.959	-94.72
879.131	-14.85
879.303	-33.28
879.476	-35.33
879.648	28.16
879.82	-8.7
879.993	52.74
880.165	15.87
880.337	-45.57
880.509	-76.29
880.681	3.58
880.854	-20.99
881.026	44.54
881.198	32.26
881.37	-53.76
881.542	58.88
881.714	-78.33
881.886	30.21
882.058	36.35
882.23	-20.99
882.402	-8.7
882.574	34.3
882.746	-16.9
882.918	-59.9
883.09	34.3
883.262	-55.81
883.434	-27.14
883.606	-27.14
883.778	17.92
883.95	54.78
884.122	67.07
884.293	-18.94
884.465	-47.62
884.637	-18.94
884.809	-16.9
884.98	-10.75
885.152	5.63
885.324	-0.51
885.496	-35.33
885.667	19.97
885.839	9.73
886.011	36.35
886.182	54.78
886.354	-47.62
886.525	-33.28
886.697	-8.7
886.869	-74.24
887.04	-12.8
887.212	-25.09
887.383	99.84
887.555	9.73
887.726	-23.04
887.897	-2.56
888.069	56.83
888.24	-20.99
888.412	42.5
888.583	-31.23
888.754	-16.9
888.926	34.3
889.097	19.97
889.268	7.68
889.44	69.12
889.611	-10.75
889.782	99.84
889.953	69.12
890.125	54.78
890.296	-35.33
890.467	-4.61
890.638	-20.99
890.809	22.02
890.98	5.63
891.151	24.06
891.323	22.02
891.494	50.69
891.665	15.87
891.836	9.73
892.007	1.54
892.178	-27.14
892.349	-45.57
892.52	1.54
892.691	40.45
892.862	-84.48
893.032	-82.43
893.203	-0.51
893.374	-6.66
893.545	19.97
893.716	-59.9
893.887	24.06
894.057	-14.85
894.228	-25.09
894.399	-4.61
894.57	-35.33
894.74	-43.52
894.911	65.02
895.082	-10.75
895.253	15.87
895.423	-14.85
895.594	71.17
895.764	17.92
895.935	24.06
896.106	22.02
896.276	38.4
896.447	-31.23
896.617	54.78
896.788	-12.8
896.958	34.3
897.129	-37.38
897.299	7.68
897.47	-20.99
897.64	7.68
897.81	-39.42
897.981	-18.94
898.151	22.02
898.322	-10.75
898.492	24.06
898.662	-57.86
898.832	91.65
899.003	-20.99
899.173	7.68
899.343	-66.05
899.513	-35.33
