Data from USB4F104151__62__12-59-23-303.txt Node

Date: Fri Mar 14 12:59:23 EDT 2025
User: louis
Spectrometer: USB4F10415
Trigger mode: 4
Integration Time (sec): 1.000000E-2
Scans to average: 1
Electric dark correction enabled: true
Nonlinearity correction enabled: false
Boxcar width: 0
XAxis mode: Wavelengths
Number of Pixels in Spectrum: 3648
>>>>>Begin Spectral Data<<<<<
178.204	-22.19
178.424	-22.19
178.644	-22.19
178.864	-106.15
179.084	-75.43
179.304	-54.95
179.524	-22.19
179.744	-69.29
179.964	45.4
180.184	-1.71
180.404	-18.09
180.624	49.49
180.844	59.73
181.064	41.3
181.283	-13.99
181.503	-38.57
181.723	22.87
181.943	-79.53
182.163	-38.57
182.383	-1.71
182.602	45.4
182.822	51.54
183.042	-30.38
183.262	-5.8
183.482	-28.33
183.701	8.53
183.921	-7.85
184.141	2.39
184.361	41.3
184.58	8.53
184.8	61.78
185.02	-36.52
185.239	12.63
185.459	24.92
185.679	76.12
185.898	63.83
186.118	67.92
186.338	-9.9
186.557	-11.95
186.777	43.35
186.997	10.58
187.216	-38.57
187.436	65.88
187.655	96.6
187.875	-54.95
188.095	41.3
188.314	26.96
188.534	14.68
188.753	29.01
188.973	-5.8
189.192	14.68
189.412	24.92
189.631	78.16
189.851	67.92
190.07	24.92
190.29	-32.43
190.509	-5.8
190.729	-22.19
190.948	63.83
191.168	143.7
191.387	26.96
191.607	-9.9
191.826	31.06
192.045	8.53
192.265	72.02
192.484	51.54
192.704	-22.19
192.923	-7.85
193.142	37.2
193.362	22.87
193.581	45.4
193.8	59.73
194.02	-46.76
194.239	16.73
194.458	74.07
194.678	26.96
194.897	108.88
195.116	-50.86
195.335	45.4
195.555	55.64
195.774	61.78
195.993	-3.75
196.212	14.68
196.432	18.77
196.651	6.49
196.87	84.31
197.089	-34.47
197.308	14.68
197.528	35.16
197.747	31.06
197.966	59.73
198.185	84.31
198.404	22.87
198.623	10.58
198.842	51.54
199.062	-20.14
199.281	35.16
199.5	-3.75
199.719	12.63
199.938	-7.85
200.157	125.27
200.376	-57
200.595	43.35
200.814	47.44
201.033	86.36
201.252	0.34
201.471	-22.19
201.69	18.77
201.909	12.63
202.128	41.3
202.347	-1.71
202.566	43.35
202.785	51.54
203.004	49.49
203.223	29.01
203.442	-11.95
203.661	41.3
203.879	86.36
204.098	102.74
204.317	72.02
204.536	69.97
204.755	108.88
204.974	4.44
205.193	-22.19
205.411	76.12
205.63	53.59
205.849	35.16
206.068	-40.62
206.287	26.96
206.505	-34.47
206.724	29.01
206.943	-28.33
207.162	24.92
207.381	8.53
207.599	20.82
207.818	74.07
208.037	4.44
208.255	6.49
208.474	35.16
208.693	51.54
208.911	10.58
209.13	-5.8
209.349	-24.23
209.567	-34.47
209.786	24.92
210.005	-40.62
210.223	18.77
210.442	10.58
210.661	29.01
210.879	2.39
211.098	39.25
211.316	6.49
211.535	43.35
211.753	-59.05
211.972	20.82
212.191	-5.8
212.409	35.16
212.628	-3.75
212.846	47.44
213.065	14.68
213.283	72.02
213.502	-3.75
213.72	37.2
213.938	49.49
214.157	2.39
214.375	29.01
214.594	-34.47
214.812	45.4
215.031	16.73
215.249	72.02
215.467	-40.62
215.686	8.53
215.904	65.88
216.122	-3.75
216.341	33.11
216.559	51.54
216.778	72.02
216.996	80.21
217.214	-44.71
217.432	12.63
217.651	41.3
217.869	20.82
218.087	29.01
218.306	53.59
218.524	-5.8
218.742	8.53
218.96	31.06
219.179	4.44
219.397	-18.09
219.615	47.44
219.833	-18.09
220.051	-18.09
220.27	14.68
220.488	31.06
220.706	35.16
220.924	8.53
221.142	69.97
221.36	-9.9
221.578	53.59
221.796	-30.38
222.015	88.4
222.233	88.4
222.451	67.92
222.669	-79.53
222.887	59.73
223.105	-30.38
223.323	12.63
223.541	2.39
223.759	24.92
223.977	47.44
224.195	102.74
224.413	-38.57
224.631	10.58
224.849	69.97
225.067	92.5
225.285	37.2
225.503	-42.67
225.721	12.63
225.939	10.58
226.157	-28.33
226.375	55.64
226.592	-11.95
226.81	-11.95
227.028	-22.19
227.246	43.35
227.464	65.88
227.682	-5.8
227.9	-26.28
228.117	20.82
228.335	63.83
228.553	16.73
228.771	92.5
228.989	37.2
229.206	37.2
229.424	-11.95
229.642	6.49
229.86	20.82
230.077	39.25
230.295	18.77
230.513	43.35
230.731	-13.99
230.948	39.25
231.166	55.64
231.384	26.96
231.601	-7.85
231.819	72.02
232.037	51.54
232.254	22.87
232.472	26.96
232.689	12.63
232.907	29.01
233.125	86.36
233.342	4.44
233.56	35.16
233.777	61.78
233.995	33.11
234.213	29.01
234.43	-63.15
234.648	65.88
234.865	0.34
235.083	26.96
235.3	43.35
235.518	63.83
235.735	67.92
235.953	10.58
236.17	8.53
236.388	-20.14
236.605	-1.71
236.822	0.34
237.04	8.53
237.257	43.35
237.475	-9.9
237.692	33.11
237.909	33.11
238.127	-11.95
238.344	-24.23
238.562	-16.04
238.779	78.16
238.996	20.82
239.214	47.44
239.431	2.39
239.648	-7.85
239.865	67.92
240.083	10.58
240.3	24.92
240.517	6.49
240.735	67.92
240.952	78.16
241.169	115.03
241.386	53.59
241.603	29.01
241.821	53.59
242.038	106.84
242.255	57.68
242.472	61.78
242.689	22.87
242.907	14.68
243.124	72.02
243.341	-44.71
243.558	-16.04
243.775	24.92
243.992	-9.9
244.209	-30.38
244.426	39.25
244.643	61.78
244.86	-9.9
245.078	-7.85
245.295	31.06
245.512	4.44
245.729	10.58
245.946	86.36
246.163	6.49
246.38	-20.14
246.597	37.2
246.814	-32.43
247.031	22.87
247.248	10.58
247.464	22.87
247.681	102.74
247.898	6.49
248.115	16.73
248.332	4.44
248.549	104.79
248.766	86.36
248.983	24.92
249.2	39.25
249.417	-1.71
249.633	-13.99
249.85	112.98
250.067	31.06
250.284	65.88
250.501	47.44
250.717	-7.85
250.934	-3.75
251.151	80.21
251.368	-28.33
251.585	84.31
251.801	-61.1
252.018	57.68
252.235	18.77
252.451	69.97
252.668	69.97
252.885	33.11
253.102	24.92
253.318	57.68
253.535	18.77
253.752	-18.09
253.968	41.3
254.185	18.77
254.401	-52.91
254.618	10.58
254.835	-16.04
255.051	2.39
255.268	-28.33
255.484	20.82
255.701	-3.75
255.917	29.01
256.134	37.2
256.351	67.92
256.567	-16.04
256.784	2.39
257	20.82
257.217	39.25
257.433	-1.71
257.65	37.2
257.866	115.03
258.082	57.68
258.299	-30.38
258.515	67.92
258.732	41.3
258.948	29.01
259.165	4.44
259.381	57.68
259.597	24.92
259.814	69.97
260.03	-44.71
260.246	10.58
260.463	8.53
260.679	37.2
260.895	37.2
261.112	-13.99
261.328	26.96
261.544	51.54
261.761	51.54
261.977	67.92
262.193	14.68
262.409	12.63
262.626	43.35
262.842	26.96
263.058	16.73
263.274	-18.09
263.49	-61.1
263.707	-18.09
263.923	12.63
264.139	45.4
264.355	10.58
264.571	51.54
264.787	12.63
265.004	20.82
265.22	-22.19
265.436	31.06
265.652	-18.09
265.868	41.3
266.084	37.2
266.3	-38.57
266.516	16.73
266.732	53.59
266.948	-59.05
267.164	63.83
267.38	2.39
267.596	49.49
267.812	39.25
268.028	29.01
268.244	-34.47
268.46	22.87
268.676	47.44
268.892	65.88
269.108	8.53
269.324	-11.95
269.54	41.3
269.756	16.73
269.972	2.39
270.188	39.25
270.403	-20.14
270.619	37.2
270.835	-24.23
271.051	18.77
271.267	26.96
271.483	35.16
271.698	-16.04
271.914	22.87
272.13	20.82
272.346	-20.14
272.562	135.51
272.777	29.01
272.993	61.78
273.209	4.44
273.425	49.49
273.64	14.68
273.856	37.2
274.072	43.35
274.287	-18.09
274.503	41.3
274.719	-26.28
274.934	18.77
275.15	26.96
275.366	-16.04
275.581	-52.91
275.797	80.21
276.012	29.01
276.228	26.96
276.444	18.77
276.659	92.5
276.875	-5.8
277.09	45.4
277.306	-16.04
277.521	-9.9
277.737	-28.33
277.952	-9.9
278.168	43.35
278.383	61.78
278.599	31.06
278.814	31.06
279.03	-11.95
279.245	-40.62
279.461	-16.04
279.676	29.01
279.892	24.92
280.107	-16.04
280.322	-42.67
280.538	35.16
280.753	29.01
280.969	18.77
281.184	24.92
281.399	41.3
281.615	72.02
281.83	10.58
282.045	0.34
282.26	45.4
282.476	49.49
282.691	-18.09
282.906	43.35
283.122	49.49
283.337	2.39
283.552	26.96
283.767	12.63
283.983	29.01
284.198	0.34
284.413	74.07
284.628	29.01
284.843	33.11
285.058	20.82
285.274	69.97
285.489	53.59
285.704	-9.9
285.919	10.58
286.134	76.12
286.349	119.12
286.564	41.3
286.779	-18.09
286.995	45.4
287.21	-22.19
287.425	-46.76
287.64	20.82
287.855	67.92
288.07	35.16
288.285	29.01
288.5	-1.71
288.715	41.3
288.93	43.35
289.145	57.68
289.36	94.55
289.575	6.49
289.79	53.59
290.004	2.39
290.219	-16.04
290.434	67.92
290.649	0.34
290.864	6.49
291.079	4.44
291.294	76.12
291.509	-1.71
291.724	72.02
291.938	39.25
292.153	51.54
292.368	59.73
292.583	22.87
292.798	65.88
293.012	22.87
293.227	33.11
293.442	59.73
293.657	55.64
293.871	39.25
294.086	-16.04
294.301	43.35
294.516	76.12
294.73	72.02
294.945	26.96
295.16	51.54
295.374	20.82
295.589	41.3
295.804	10.58
296.018	57.68
296.233	-30.38
296.447	53.59
296.662	-5.8
296.877	-67.24
297.091	0.34
297.306	26.96
297.52	4.44
297.735	108.88
297.949	41.3
298.164	-22.19
298.378	57.68
298.593	45.4
298.807	-24.23
299.022	39.25
299.236	76.12
299.451	-71.34
299.665	0.34
299.88	49.49
300.094	26.96
300.309	39.25
300.523	47.44
300.737	0.34
300.952	-7.85
301.166	31.06
301.381	37.2
301.595	115.03
301.809	-38.57
302.024	10.58
302.238	-3.75
302.452	59.73
302.667	59.73
302.881	104.79
303.095	20.82
303.309	110.93
303.524	8.53
303.738	43.35
303.952	4.44
304.166	51.54
304.381	-28.33
304.595	-34.47
304.809	6.49
305.023	55.64
305.237	-3.75
305.452	72.02
305.666	-9.9
305.88	-20.14
306.094	33.11
306.308	0.34
306.522	6.49
306.736	63.83
306.95	20.82
307.164	10.58
307.379	47.44
307.593	-30.38
307.807	69.97
308.021	18.77
308.235	51.54
308.449	-44.71
308.663	-87.72
308.877	98.64
309.091	0.34
309.305	41.3
309.519	-48.81
309.733	0.34
309.947	-24.23
310.161	55.64
310.374	-9.9
310.588	117.08
310.802	-44.71
311.016	29.01
311.23	20.82
311.444	22.87
311.658	29.01
311.872	57.68
312.085	110.93
312.299	-5.8
312.513	24.92
312.727	-18.09
312.941	20.82
313.154	43.35
313.368	18.77
313.582	51.54
313.796	51.54
314.009	14.68
314.223	18.77
314.437	20.82
314.651	6.49
314.864	22.87
315.078	2.39
315.292	31.06
315.505	-18.09
315.719	33.11
315.933	51.54
316.146	35.16
316.36	53.59
316.573	29.01
316.787	33.11
317.001	-1.71
317.214	24.92
317.428	8.53
317.641	26.96
317.855	-7.85
318.068	8.53
318.282	37.2
318.495	35.16
318.709	100.69
318.922	20.82
319.136	47.44
319.349	29.01
319.563	20.82
319.776	104.79
319.99	74.07
320.203	45.4
320.417	69.97
320.63	29.01
320.843	61.78
321.057	158.03
321.27	-28.33
321.483	57.68
321.697	14.68
321.91	18.77
322.124	-3.75
322.337	37.2
322.55	35.16
322.763	35.16
322.977	2.39
323.19	51.54
323.403	-11.95
323.617	-9.9
323.83	10.58
324.043	127.32
324.256	0.34
324.469	59.73
324.683	35.16
324.896	26.96
325.109	-5.8
325.322	29.01
325.535	37.2
325.748	112.98
325.962	24.92
326.175	14.68
326.388	67.92
326.601	37.2
326.814	33.11
327.027	51.54
327.24	59.73
327.453	45.4
327.666	35.16
327.879	8.53
328.092	63.83
328.305	51.54
328.518	14.68
328.731	-30.38
328.944	16.73
329.157	24.92
329.37	47.44
329.583	61.78
329.796	94.55
330.009	102.74
330.222	61.78
330.435	74.07
330.648	31.06
330.861	31.06
331.073	-1.71
331.286	53.59
331.499	96.6
331.712	29.01
331.925	10.58
332.138	-16.04
332.35	88.4
332.563	26.96
332.776	57.68
332.989	31.06
333.202	37.2
333.414	-24.23
333.627	67.92
333.84	31.06
334.053	39.25
334.265	14.68
334.478	-26.28
334.691	2.39
334.903	63.83
335.116	78.16
335.329	31.06
335.541	110.93
335.754	29.01
335.966	108.88
336.179	22.87
336.392	2.39
336.604	20.82
336.817	-26.28
337.029	106.84
337.242	0.34
337.454	-20.14
337.667	20.82
337.88	84.31
338.092	59.73
338.305	24.92
338.517	41.3
338.729	33.11
338.942	135.51
339.154	59.73
339.367	-7.85
339.579	35.16
339.792	43.35
340.004	37.2
340.217	-34.47
340.429	59.73
340.641	100.69
340.854	76.12
341.066	57.68
341.278	53.59
341.491	37.2
341.703	43.35
341.915	-30.38
342.128	14.68
342.34	72.02
342.552	4.44
342.764	24.92
342.977	29.01
343.189	18.77
343.401	-5.8
343.613	51.54
343.826	35.16
344.038	67.92
344.25	41.3
344.462	82.26
344.674	47.44
344.886	31.06
345.099	24.92
345.311	0.34
345.523	0.34
345.735	14.68
345.947	37.2
346.159	-75.43
346.371	-3.75
346.583	22.87
346.795	16.73
347.007	33.11
347.219	43.35
347.431	47.44
347.643	49.49
347.855	16.73
348.067	86.36
348.279	-81.58
348.491	61.78
348.703	20.82
348.915	63.83
349.127	29.01
349.339	82.26
349.551	80.21
349.763	26.96
349.975	78.16
350.187	98.64
350.399	14.68
350.61	51.54
350.822	67.92
351.034	69.97
351.246	14.68
351.458	86.36
351.669	72.02
351.881	61.78
352.093	53.59
352.305	22.87
352.517	41.3
352.728	53.59
352.94	18.77
353.152	26.96
353.363	35.16
353.575	53.59
353.787	-28.33
353.999	78.16
354.21	41.3
354.422	-16.04
354.633	78.16
354.845	55.64
355.057	-22.19
355.268	2.39
355.48	31.06
355.692	61.78
355.903	6.49
356.115	-3.75
356.326	67.92
356.538	53.59
356.749	6.49
356.961	55.64
357.172	112.98
357.384	76.12
357.595	-16.04
357.807	33.11
358.018	24.92
358.23	29.01
358.441	4.44
358.653	-34.47
358.864	45.4
359.075	43.35
359.287	22.87
359.498	2.39
359.709	-40.62
359.921	-11.95
360.132	104.79
360.344	-11.95
360.555	49.49
360.766	84.31
360.977	14.68
361.189	86.36
361.4	61.78
361.611	4.44
361.823	45.4
362.034	90.45
362.245	-5.8
362.456	55.64
362.667	80.21
362.879	4.44
363.09	96.6
363.301	29.01
363.512	-22.19
363.723	106.84
363.935	18.77
364.146	72.02
364.357	20.82
364.568	-22.19
364.779	-1.71
364.99	47.44
365.201	94.55
365.412	65.88
365.623	106.84
365.834	84.31
366.045	55.64
366.256	69.97
366.467	82.26
366.678	86.36
366.889	53.59
367.1	47.44
367.311	39.25
367.522	65.88
367.733	37.2
367.944	-1.71
368.155	20.82
368.366	57.68
368.577	18.77
368.788	20.82
368.999	4.44
369.209	96.6
369.42	22.87
369.631	45.4
369.842	80.21
370.053	61.78
370.264	39.25
370.474	26.96
370.685	-16.04
370.896	31.06
371.107	14.68
371.317	69.97
371.528	-42.67
371.739	69.97
371.95	20.82
372.16	100.69
372.371	37.2
372.582	104.79
372.792	49.49
373.003	20.82
373.214	45.4
373.424	121.17
373.635	43.35
373.846	65.88
374.056	53.59
374.267	88.4
374.477	37.2
374.688	35.16
374.898	41.3
375.109	22.87
375.319	88.4
375.53	72.02
375.74	53.59
375.951	-1.71
376.161	63.83
376.372	26.96
376.582	-16.04
376.793	98.64
377.003	24.92
377.214	88.4
377.424	10.58
377.635	94.55
377.845	47.44
378.055	43.35
378.266	24.92
378.476	-5.8
378.686	-3.75
378.897	102.74
379.107	8.53
379.317	86.36
379.528	53.59
379.738	41.3
379.948	-9.9
380.158	37.2
380.369	112.98
380.579	-5.8
380.789	47.44
380.999	31.06
381.21	67.92
381.42	22.87
381.63	6.49
381.84	53.59
382.05	31.06
382.261	41.3
382.471	31.06
382.681	39.25
382.891	94.55
383.101	35.16
383.311	-50.86
383.521	18.77
383.731	35.16
383.941	110.93
384.151	74.07
384.361	18.77
384.571	26.96
384.781	43.35
384.991	63.83
385.201	53.59
385.411	22.87
385.621	80.21
385.831	84.31
386.041	-11.95
386.251	2.39
386.461	12.63
386.671	29.01
386.881	90.45
387.091	26.96
387.301	78.16
387.511	16.73
387.72	20.82
387.93	-7.85
388.14	61.78
388.35	4.44
388.56	26.96
388.769	41.3
388.979	88.4
389.189	12.63
389.399	26.96
389.609	-42.67
389.818	100.69
390.028	59.73
390.238	49.49
390.447	51.54
390.657	63.83
390.867	10.58
391.076	39.25
391.286	90.45
391.496	31.06
391.705	-28.33
391.915	-5.8
392.125	47.44
392.334	20.82
392.544	86.36
392.753	29.01
392.963	4.44
393.172	90.45
393.382	10.58
393.591	53.59
393.801	14.68
394.01	45.4
394.22	110.93
394.429	37.2
394.639	26.96
394.848	110.93
395.058	49.49
395.267	-1.71
395.477	-38.57
395.686	14.68
395.895	76.12
396.105	55.64
396.314	43.35
396.524	59.73
396.733	14.68
396.942	141.65
397.152	61.78
397.361	51.54
397.57	31.06
397.78	53.59
397.989	-3.75
398.198	131.41
398.407	10.58
398.617	129.36
398.826	18.77
399.035	57.68
399.244	78.16
399.453	117.08
399.663	67.92
399.872	76.12
400.081	145.75
400.29	69.97
400.499	74.07
400.708	139.6
400.917	141.65
401.127	47.44
401.336	29.01
401.545	61.78
401.754	80.21
401.963	100.69
402.172	119.12
402.381	80.21
402.59	98.64
402.799	65.88
403.008	92.5
403.217	59.73
403.426	121.17
403.635	78.16
403.844	108.88
404.053	205.14
404.262	104.79
404.471	92.5
404.68	104.79
404.888	37.2
405.097	4.44
405.306	100.69
405.515	35.16
405.724	76.12
405.933	143.7
406.142	65.88
406.35	92.5
406.559	117.08
406.768	129.36
406.977	203.09
407.185	96.6
407.394	121.17
407.603	143.7
407.812	170.32
408.02	153.94
408.229	125.27
408.438	151.89
408.646	139.6
408.855	178.51
409.064	203.09
409.272	127.32
409.481	219.47
409.69	233.81
409.898	184.66
410.107	198.99
410.315	211.28
410.524	223.57
410.733	215.38
410.941	268.63
411.15	215.38
411.358	270.67
411.567	221.52
411.775	244.05
411.984	188.75
412.192	258.39
412.401	182.61
412.609	315.73
412.818	328.02
413.026	309.58
413.234	315.73
413.443	213.33
413.651	358.74
413.86	330.06
414.068	364.88
414.276	360.78
414.485	328.02
414.693	387.41
414.901	389.46
415.11	360.78
415.318	397.65
415.526	442.7
415.734	409.94
415.943	534.86
416.151	452.94
416.359	473.42
416.567	463.18
416.776	483.66
416.984	565.58
417.192	635.21
417.4	569.68
417.608	596.3
417.817	674.12
418.025	649.55
418.233	672.08
418.441	655.69
418.649	686.41
418.857	725.32
419.065	786.76
419.273	731.47
419.481	784.71
419.689	829.77
419.897	911.69
420.105	946.5
420.313	850.25
420.521	1016.13
420.729	995.65
420.937	1018.18
421.145	948.55
421.353	1040.71
421.561	1085.76
421.769	1104.2
421.977	1143.11
422.185	1229.12
422.393	1218.88
422.601	1265.99
422.809	1321.28
423.017	1243.46
423.224	1417.54
423.432	1507.65
423.64	1435.97
423.848	1536.32
424.056	1605.95
424.263	1579.33
424.471	1644.86
424.679	1577.28
424.887	1780.03
425.094	1784.12
425.302	1849.66
425.51	1863.99
425.718	1935.67
425.925	1894.71
426.133	1933.62
426.341	2083.13
426.548	2163
426.756	2300.21
426.964	2226.48
427.171	2222.39
427.379	2457.9
427.586	2353.46
427.794	2586.93
428.001	2662.7
428.209	2703.66
428.417	2758.96
428.624	2779.43
428.832	2978.09
429.039	2849.07
429.247	2881.83
429.454	3273
429.662	3455.26
429.869	3258.66
430.076	3422.5
430.284	3258.66
430.491	3557.66
430.699	3664.16
430.906	3635.49
431.114	3639.58
431.321	3774.75
431.528	3836.19
431.736	4090.13
431.943	4380.95
432.15	4106.52
432.358	4292.88
432.565	4526.35
432.772	4505.87
432.979	4710.67
433.187	4784.4
433.394	4780.3
433.601	5132.55
433.808	5064.97
434.016	5255.43
434.223	5431.55
434.43	5683.45
434.637	5632.26
434.844	5937.4
435.052	6052.09
435.259	5902.59
435.466	5957.88
435.673	5925.11
435.88	6430.96
436.087	6779.12
436.294	6676.72
436.501	6508.79
436.708	6719.73
436.915	6850.8
437.122	7344.36
437.329	7149.8
437.537	7370.98
437.743	7598.31
437.95	7489.76
438.157	7719.14
438.364	7940.32
438.571	8179.93
438.778	8376.53
438.985	8872.14
439.192	8548.56
439.399	8890.57
439.606	8610
439.813	9105.61
440.02	9769.15
440.227	9556.16
440.433	9488.58
440.64	9840.83
440.847	9861.31
441.054	9937.09
441.261	10590.39
441.467	10594.48
441.674	10891.44
441.881	11055.28
442.088	11088.04
442.294	11016.37
442.501	11247.79
442.708	11497.64
442.914	12030.11
443.121	12454.04
443.328	12011.68
443.534	13011.09
443.741	12699.8
443.948	12583.06
444.154	13441.16
444.361	13250.7
444.568	13498.5
444.774	13383.82
444.981	13639.81
445.187	14106.75
445.394	14639.22
445.6	14545.02
445.807	16048.22
446.013	15382.63
446.22	15382.63
446.426	16177.25
446.633	16279.64
446.839	17178.7
447.046	15988.83
447.252	17090.64
447.459	17248.33
447.665	16924.76
447.871	17580.11
448.078	18700.34
448.284	17858.63
448.491	18309.18
448.697	18987.06
448.903	19388.46
449.11	19546.16
449.316	19023.92
449.522	19490.86
449.728	20070.44
449.935	20088.87
450.141	20269.09
450.347	20707.35
450.553	19996.71
450.76	20310.05
450.966	21096.47
451.172	20736.02
451.378	21518.35
451.584	20604.95
451.791	21692.43
451.997	21489.68
452.203	21964.81
452.409	21620.75
452.615	21518.35
452.821	20686.87
453.027	20635.67
453.233	21708.81
453.44	21020.69
453.646	21137.43
453.852	21372.94
454.058	21678.09
454.264	21172.24
454.47	21532.68
454.676	21112.85
454.882	21643.28
455.088	19816.49
455.294	20031.52
455.5	20396.06
455.705	20443.17
455.911	19724.33
456.117	19478.57
456.323	19251.25
456.529	18155.58
456.735	18868.28
456.941	18587.71
457.147	18249.79
457.352	17868.87
457.558	17600.58
457.764	17612.87
457.97	17174.61
458.176	16779.35
458.381	16801.88
458.587	16080.99
458.793	16121.95
458.999	15140.97
459.204	16572.5
459.41	15966.31
459.616	14870.64
459.821	14911.6
460.027	14698.61
460.233	14313.59
460.438	13889.67
460.644	13881.47
460.85	13215.88
461.055	13170.83
461.261	13031.57
461.466	11995.29
461.672	11784.35
461.878	12642.45
462.083	11645.09
462.289	11391.14
462.494	11571.36
462.7	10983.6
462.905	10479.8
463.111	10858.67
463.316	11090.09
463.522	10717.36
463.727	10651.83
463.932	10657.97
464.138	10668.21
464.343	10498.23
464.549	10504.37
464.754	10821.81
464.959	10594.48
465.165	10680.5
465.37	10074.3
465.575	9984.19
465.781	10320.06
465.986	10377.4
466.191	9896.13
466.397	9812.16
466.602	9205.96
466.807	9492.68
467.012	9597.12
467.218	9648.32
467.423	9513.16
467.628	9531.59
467.833	9781.44
468.038	9531.59
468.244	9261.26
468.449	9642.18
468.654	9404.61
468.859	9193.67
469.064	9218.25
469.269	8917.2
469.474	8847.57
469.679	9115.85
469.885	8913.1
470.09	8796.37
470.295	8884.43
470.5	8640.72
470.705	8831.18
470.91	8329.43
471.115	8573.14
471.32	8573.14
471.525	8556.75
471.73	8358.1
471.935	8423.64
472.139	8020.19
472.344	8100.06
472.549	8194.26
472.754	8098.01
472.959	7686.37
473.164	7676.13
473.369	7665.89
473.574	7893.21
473.778	7678.18
473.983	7629.02
474.188	7631.07
474.393	7350.5
474.598	7448.8
474.802	7227.62
475.007	7272.68
475.212	7454.95
475.417	6953.2
475.621	7024.87
475.826	7026.92
476.031	7076.07
476.235	6787.31
476.44	6760.69
476.645	6564.08
476.849	6729.97
477.054	6637.81
477.259	6650.1
477.463	6639.86
477.668	6258.93
477.872	6516.98
478.077	6463.73
478.282	6187.25
478.486	6252.79
478.691	6019.32
478.895	6230.26
479.1	6078.71
479.304	6174.97
479.509	5968.12
479.713	6017.27
479.918	5863.68
480.122	5726.46
480.326	5947.64
480.531	5961.98
480.735	5828.86
480.94	5808.38
481.144	5939.45
481.348	5730.56
481.553	5781.76
481.757	5654.78
481.961	5722.37
482.166	5697.79
482.37	5777.66
482.574	5730.56
482.778	5617.92
482.983	5746.94
483.187	5667.07
483.391	5734.65
483.595	5540.1
483.8	5761.28
484.004	5546.24
484.208	5794.04
484.412	5622.02
484.616	5810.43
484.821	5878.01
485.025	5581.06
485.229	5695.74
485.433	5681.41
485.637	5826.81
485.841	5497.09
486.045	5478.66
486.249	5685.5
486.453	5550.34
486.657	5622.02
486.861	5746.94
487.065	5470.47
487.269	5693.69
487.473	5654.78
487.677	5617.92
487.881	5808.38
488.085	5576.96
488.289	5718.27
488.493	5687.55
488.697	5527.81
488.901	5757.18
489.105	5667.07
489.309	5775.61
489.512	5785.85
489.716	5982.46
489.92	5818.62
490.124	5761.28
490.328	5912.83
490.531	5697.79
490.735	5789.95
490.939	5884.16
491.143	5851.39
491.346	5820.67
491.55	5886.2
491.754	5896.44
491.958	5916.92
492.161	5839.1
492.365	6160.63
492.569	6082.81
492.772	5988.6
492.976	6002.94
493.18	6127.86
493.383	6244.6
493.587	6246.65
493.79	6375.67
493.994	6166.78
494.197	6324.47
494.401	6269.17
494.605	6404.34
494.808	6516.98
495.012	6402.29
495.215	6590.7
495.419	6670.58
495.622	6564.08
495.825	6596.85
496.029	6785.26
496.232	6772.97
496.436	6967.53
496.639	7020.78
496.843	7059.69
497.046	7194.86
497.249	7235.81
497.453	7203.05
497.656	7284.97
497.859	7432.42
498.063	7457
498.266	7530.72
498.469	7428.32
498.673	7774.43
498.876	7991.52
499.079	7983.32
499.282	7776.48
499.485	7948.51
499.689	8192.22
499.892	8241.37
500.095	8243.42
500.298	8190.17
500.501	8444.12
500.705	8603.86
500.908	8632.53
501.111	8786.13
501.314	8904.91
501.517	8968.4
501.72	9212.1
501.923	9146.57
502.126	9453.77
502.329	9455.81
502.532	9511.11
502.735	9656.51
502.938	9865.41
503.141	9894.08
503.344	10084.54
503.547	10229.95
503.75	10000.57
503.953	10328.25
504.156	10596.53
504.359	10660.02
504.562	10729.65
504.765	10811.57
504.968	10924.21
505.17	11122.86
505.373	11176.11
505.576	11567.27
505.779	11501.73
505.982	11827.36
506.185	11899.04
506.387	12050.59
506.59	12284.06
506.793	12312.73
506.996	12402.84
507.198	12587.16
507.401	12513.43
507.604	12832.91
507.807	12994.7
508.009	13088.91
508.212	13420.68
508.415	13430.92
508.617	13410.44
508.82	13645.96
509.022	13877.38
509.225	13865.09
509.428	14315.64
509.63	14291.07
509.833	14233.72
510.035	14760.05
510.238	14493.82
510.44	14887.03
510.643	15319.15
510.845	15224.94
511.048	15198.32
511.25	15650.92
511.453	15708.26
511.655	16472.15
511.858	16083.04
512.06	16201.82
512.262	16525.4
512.465	16576.6
512.667	17086.54
512.87	17131.6
513.072	17215.57
513.274	17348.68
513.477	17549.39
513.679	17631.3
513.881	18151.49
514.084	18237.5
514.286	18257.98
514.488	18335.81
514.69	18970.68
514.893	19079.22
515.095	18950.2
515.297	19341.36
515.499	19398.7
515.701	19673.13
515.904	19865.64
516.106	20226.08
516.308	20176.93
516.51	20555.8
516.712	20490.27
516.914	20611.1
517.116	21194.77
517.318	21065.75
517.52	21401.61
517.722	21495.82
517.925	21669.9
518.127	22018.05
518.329	22249.47
518.531	22523.9
518.733	22910.97
518.935	22759.42
519.136	23091.19
519.338	23128.05
519.54	23355.38
519.742	23793.64
519.944	23582.7
520.146	24340.45
520.348	23953.38
520.55	24465.38
520.752	24657.89
520.954	25243.6
521.155	24952.79
521.357	25149.4
521.559	25341.91
521.761	25649.1
521.963	26124.23
522.164	26339.27
522.366	26154.95
522.568	26277.83
522.77	26720.19
522.971	26949.56
523.173	26539.97
523.375	27502.51
523.576	27221.94
523.778	27588.53
523.98	27750.32
524.181	27658.16
524.383	28034.99
524.584	28147.62
524.786	28145.58
524.988	28424.1
525.189	28172.2
525.391	28845.98
525.592	28950.43
525.794	28891.04
525.995	29124.5
526.197	29052.83
526.398	28923.8
526.6	29546.39
526.801	29523.86
527.003	30181.26
527.204	29837.2
527.406	30056.33
527.607	30338.95
527.808	30433.16
528.01	30078.86
528.211	30254.98
528.412	31178.62
528.614	30859.13
528.815	30672.77
529.016	30928.77
529.218	30797.7
529.419	30541.7
529.62	30723.97
529.822	30947.2
530.023	30926.72
530.224	31223.67
530.425	31006.59
530.626	30783.36
530.828	31025.02
531.029	31881.07
531.23	31242.1
531.431	31258.49
531.632	31649.65
531.833	31485.81
532.035	31582.07
532.236	31821.68
532.437	32087.92
532.638	31262.58
532.839	31702.9
533.04	32057.2
533.241	31268.73
533.442	32186.22
533.643	31989.61
533.844	31889.26
534.045	31764.34
534.246	31813.49
534.447	31987.57
534.648	32255.85
534.849	32034.67
535.05	31903.6
535.251	31956.85
535.451	32102.25
535.652	32094.06
535.853	32468.84
536.054	32102.25
536.255	32231.27
536.456	31991.66
536.657	32333.67
536.857	31883.12
537.058	31881.07
537.259	32274.28
537.46	32071.53
537.66	32118.64
537.861	32329.58
538.062	31981.42
538.263	32296.81
538.463	32024.43
538.664	32087.92
538.865	32171.88
539.065	32329.58
539.266	32165.74
539.466	32434.02
539.667	32016.24
539.868	32434.02
540.068	31922.03
540.269	31962.99
540.469	32268.14
540.67	32061.29
540.87	32008.04
541.071	32096.11
541.271	32085.87
541.472	32311.14
541.672	31952.75
541.873	32341.86
542.073	31670.13
542.274	32354.15
542.474	32239.47
542.675	31762.29
542.875	32044.91
543.075	32112.49
543.276	31913.84
543.476	32112.49
543.676	31661.94
543.877	32282.47
544.077	32118.64
544.277	32081.77
544.478	32132.97
544.678	32241.51
544.878	32020.33
545.078	31997.81
545.279	32006
545.479	31731.57
545.679	32124.78
545.879	31889.26
546.079	31866.74
546.28	32360.3
546.48	31905.65
546.68	32024.43
546.88	32114.54
547.08	31944.56
547.28	31989.61
547.48	31541.11
547.68	32165.74
547.88	31717.23
548.081	32122.73
548.281	31833.97
548.481	31836.02
548.681	32059.24
548.881	32030.57
549.081	31967.09
549.28	31496.05
549.48	32221.03
549.68	31838.06
549.88	32436.07
550.08	31737.71
550.28	31889.26
550.48	31971.18
550.68	32157.55
550.88	31770.48
551.08	31915.89
551.279	31766.38
551.479	32014.19
551.679	32208.75
551.879	31657.84
552.079	31848.3
552.278	31496.05
552.478	31938.41
552.678	31872.88
552.878	32085.87
553.077	31645.55
553.277	31242.1
553.477	31805.3
553.676	31606.64
553.876	31737.71
554.076	31551.35
554.275	31281.02
554.475	31338.36
554.674	31772.53
554.874	31729.52
555.074	31340.41
555.273	31485.81
555.473	31797.1
555.672	31258.49
555.872	31307.64
556.071	31467.38
556.271	31657.84
556.47	31207.29
556.67	31524.72
556.869	31238.01
557.068	31549.3
557.268	30908.29
557.467	31262.58
557.667	31033.21
557.866	31141.75
558.065	30998.4
558.265	31002.49
558.464	30711.68
558.663	31448.95
558.863	30762.88
559.062	31442.81
559.261	30846.85
559.461	31500.15
559.66	30699.39
559.859	30705.54
560.058	30508.93
560.258	30666.63
560.457	30416.77
560.656	30805.89
560.855	30492.55
561.054	30852.99
561.253	30660.48
561.453	30668.67
561.652	30582.66
561.851	30631.81
562.05	30412.68
562.249	30289.8
562.448	30558.08
562.647	30289.8
562.846	30185.35
563.045	30089.1
563.244	29972.36
563.443	30547.84
563.642	29888.4
563.841	30150.54
564.04	29509.52
564.239	30130.06
564.438	29837.2
564.637	29974.41
564.836	29757.33
565.035	29454.23
565.234	29683.6
565.432	29413.27
565.631	29110.17
565.83	29464.47
566.029	29304.73
566.228	29317.01
566.427	29015.96
566.625	29370.26
566.824	28979.1
567.023	28786.59
567.222	28579.75
567.42	28757.92
567.619	29079.45
567.818	28809.12
568.016	28778.4
568.215	28794.78
568.414	28716.96
568.612	28540.83
568.811	28448.68
569.01	28802.97
569.208	28182.44
569.407	28315.56
569.605	28260.26
569.804	28528.55
570.002	27981.74
570.201	28305.32
570.4	27897.77
570.598	27789.23
570.797	27631.54
570.995	27830.19
571.193	27785.13
571.392	27797.42
571.59	27529.14
571.789	27529.14
571.987	27420.59
572.186	27447.22
572.384	27492.27
572.582	27449.27
572.781	27365.3
572.979	26787.77
573.177	26875.84
573.376	26826.68
573.574	26726.33
573.772	27262.9
573.971	26814.4
574.169	26675.13
574.367	26513.34
574.565	26787.77
574.763	26515.39
574.962	26269.64
575.16	26132.42
575.358	26220.49
575.556	25794.51
575.754	26380.23
575.952	25972.68
576.151	26283.97
576.349	25688.01
576.547	25845.71
576.745	26148.81
576.943	25669.58
577.141	25843.66
577.339	25462.74
577.537	25663.44
577.735	25550.8
577.933	25122.77
578.131	25403.35
578.329	24946.65
578.527	25225.17
578.725	25061.33
578.923	25485.26
579.121	25020.38
579.319	24719.32
579.516	24934.36
579.714	25188.31
579.912	24745.95
580.11	24733.66
580.308	24834.01
580.506	24446.94
580.704	24348.64
580.901	24723.42
581.099	24412.13
581.297	24102.89
581.495	24201.19
581.692	24043.49
581.89	24266.72
582.088	24397.79
582.285	23891.94
582.483	24008.68
582.681	24000.49
582.878	23816.17
583.076	23814.12
583.274	23879.66
583.471	23539.69
583.669	23416.82
583.866	23382
584.064	23330.8
584.262	23322.61
584.459	23400.43
584.657	23039.99
584.854	23359.47
585.052	22849.53
585.249	22904.82
585.447	23216.12
585.644	22818.81
585.841	22874.1
586.039	22853.62
586.236	22497.28
586.434	22753.27
586.631	22343.68
586.828	22726.65
587.026	22321.15
587.223	22429.7
587.42	22530.05
587.618	22401.02
587.815	22272
588.012	22114.31
588.21	21954.57
588.407	22056.96
588.604	21755.91
588.801	21897.22
588.999	21776.39
589.196	22097.92
589.393	21729.29
589.59	21755.91
589.787	21579.79
589.984	21585.93
590.182	21043.22
590.379	21557.26
590.576	21141.52
590.773	21268.5
590.97	21147.67
591.167	21331.98
591.364	21071.89
591.561	21231.63
591.758	20932.63
591.955	20746.26
592.152	20959.25
592.349	20555.8
592.546	20822.04
592.743	20838.42
592.94	20408.35
593.137	20576.28
593.334	20801.56
593.531	20449.31
593.727	20469.79
593.924	20551.71
594.121	20310.05
594.318	20484.12
594.515	19959.84
594.712	20109.35
594.908	20260.9
595.105	20113.44
595.302	19822.63
595.499	19875.88
595.696	19771.43
595.892	19818.53
596.089	19689.51
596.286	19777.58
596.482	19519.53
596.679	19652.65
596.876	19603.5
597.072	19404.85
597.269	19394.61
597.466	19247.15
597.662	19247.15
597.859	19322.93
598.055	19361.84
598.252	19073.07
598.448	19003.44
598.645	18993.2
598.841	18843.7
599.038	18933.81
599.234	18989.11
599.431	18810.93
599.627	18710.58
599.824	18712.63
600.02	18507.83
600.217	18626.62
600.413	18384.96
600.609	18276.41
600.806	18294.85
601.002	18755.64
601.198	18292.8
601.395	18217.02
601.591	18305.09
601.787	18096.19
601.984	17977.41
602.18	18212.93
602.376	18077.76
602.572	18049.09
602.769	18112.58
602.965	17596.49
603.161	17866.82
603.357	17578.06
603.553	17555.53
603.75	17772.61
603.946	17344.59
604.142	17516.62
604.338	17115.22
604.534	17543.24
604.73	17080.4
604.926	17137.74
605.122	17303.63
605.318	17201.23
605.514	17092.69
605.71	16953.43
605.906	16922.71
606.102	16990.29
606.298	16672.85
606.494	16736.34
606.69	16959.57
606.886	16617.56
607.082	16500.83
607.278	16934.99
607.474	16351.32
607.67	16382.04
607.866	16502.87
608.062	16644.18
608.257	16402.52
608.453	16470.11
608.649	16222.3
608.845	16343.13
609.041	16169.05
609.236	16408.67
609.432	15951.97
609.628	16076.9
609.824	16068.7
610.019	15900.77
610.215	16130.14
610.411	16248.93
610.606	15947.87
610.802	15931.49
610.998	15786.08
611.193	16113.76
611.389	15771.75
611.584	15892.58
611.78	15796.32
611.976	15923.3
612.171	15829.09
612.367	15941.73
612.562	15628.39
612.758	15290.48
612.953	15403.11
613.149	15659.11
613.344	15345.77
613.539	15677.54
613.735	15505.51
613.93	15423.59
614.126	15255.66
614.321	15708.26
614.517	15097.97
614.712	15222.89
614.907	15239.28
615.103	15204.46
615.298	14987.38
615.493	15333.48
615.688	14946.42
615.884	15237.23
616.079	14837.87
616.274	15036.53
616.47	14999.66
616.665	14739.57
616.86	14801.01
617.055	14667.89
617.25	14749.81
617.445	14927.99
617.641	14467.19
617.836	14575.73
618.031	14563.45
618.226	14715
618.421	14467.19
618.616	14348.41
618.811	14262.4
619.006	14639.22
619.201	14030.98
619.396	14467.19
619.591	14291.07
619.786	14137.47
619.981	14065.79
620.176	14205.05
620.371	14002.3
620.566	13934.72
620.761	13643.91
620.956	13791.36
621.151	13682.82
621.346	13693.06
621.541	13355.15
621.735	13768.84
621.93	13383.82
622.125	13465.74
622.32	13133.96
622.515	13346.95
622.709	13158.54
622.904	13015.18
623.099	13131.92
623.294	13006.99
623.488	13093.01
623.683	13107.34
623.878	12886.16
624.072	12798.1
624.267	12912.78
624.462	12636.31
624.656	12599.45
624.851	12599.45
625.046	12353.69
625.24	12365.98
625.435	12124.32
625.629	12335.26
625.824	12073.12
626.018	12165.28
626.213	11853.98
626.407	12009.63
626.602	11894.94
626.796	11913.38
626.991	11827.36
627.185	11896.99
627.38	11716.77
627.574	11630.76
627.768	11428.01
627.963	11471.01
628.157	11401.38
628.352	11264.17
628.546	11268.27
628.74	11309.22
628.935	11040.94
629.129	11120.81
629.323	11071.66
629.517	11036.84
629.712	10985.65
629.906	11036.84
630.1	10784.94
630.294	10707.12
630.489	10891.44
630.683	10789.04
630.877	10467.51
631.071	10657.97
631.265	10606.77
631.459	10479.8
631.653	10381.49
631.848	10311.86
632.042	10264.76
632.236	10490.04
632.43	10221.75
632.624	10115.26
632.818	10123.45
633.012	10088.64
633.206	10344.63
633.4	9939.13
633.594	9810.11
633.788	9728.19
633.982	9953.47
634.176	9775.3
634.369	9480.39
634.563	9701.57
634.757	9441.48
634.951	9638.08
635.145	9529.54
635.339	9666.75
635.533	9345.22
635.726	9507.01
635.92	9187.53
636.114	9183.43
636.308	9294.02
636.501	9183.43
636.695	9322.7
636.889	9081.03
637.083	8913.1
637.276	8976.59
637.47	8849.61
637.664	8829.13
637.857	8997.07
638.051	8984.78
638.244	8751.31
638.438	8659.15
638.632	8644.82
638.825	8442.07
639.019	8540.37
639.212	8456.4
639.406	8374.49
639.599	8368.34
639.793	8415.44
639.986	8282.33
640.18	8358.1
640.373	8259.8
640.567	8141.02
640.76	8153.3
640.954	7925.98
641.147	8112.35
641.34	7825.63
641.534	7801.05
641.727	7848.16
641.92	7944.41
642.114	7823.58
642.307	7819.49
642.5	7553.25
642.694	7764.19
642.887	7524.58
643.08	7491.81
643.273	7680.22
643.467	7315.69
643.66	7530.72
643.853	7375.08
644.046	7262.44
644.239	7336.17
644.432	7289.06
644.626	7209.19
644.819	7325.93
645.012	7131.37
645.205	7049.45
645.398	7127.27
645.591	6973.67
645.784	7090.41
645.977	6908.14
646.17	6789.36
646.363	6828.27
646.556	6711.53
646.749	6842.6
646.942	6662.38
647.135	6605.04
647.328	6691.06
647.521	6568.18
647.714	6467.83
647.907	6555.89
648.099	6363.38
648.292	6629.62
648.485	6412.53
648.678	6394.1
648.871	6314.23
649.064	6357.24
649.256	6246.65
649.449	6256.89
649.642	6295.8
649.835	6248.69
650.027	5984.51
650.22	6062.33
650.413	6091
650.605	5775.61
650.798	5910.78
650.991	6009.08
651.183	5875.96
651.376	5884.16
651.568	5798.14
651.761	5910.78
651.954	5771.52
652.146	5824.76
652.339	5759.23
652.531	5787.9
652.724	5662.97
652.916	5648.64
653.109	5716.22
653.301	5507.33
653.494	5521.67
653.686	5417.22
653.879	5511.43
654.071	5462.27
654.263	5478.66
654.456	5488.9
654.648	5302.53
654.84	5392.64
655.033	5224.71
655.225	5232.9
655.417	5216.52
655.61	5167.37
655.802	5099.78
655.994	5089.54
656.186	5243.14
656.379	5138.69
656.571	5054.73
656.763	4995.34
656.955	5001.48
657.148	5071.11
657.34	4956.43
657.532	4860.17
657.724	4868.36
657.916	5015.82
658.108	4935.95
658.3	4688.14
658.492	4815.12
658.684	4665.61
658.876	4872.46
659.068	4745.48
659.26	4720.91
659.452	4768.01
659.644	4667.66
659.836	4686.09
660.028	4507.92
660.22	4454.67
660.412	4628.75
660.604	4438.29
660.796	4532.5
660.988	4339.99
661.18	4385.04
661.372	4440.34
661.563	4598.03
661.755	4301.08
661.947	4421.91
662.139	4399.38
662.331	4380.95
662.522	4253.97
662.714	4114.71
662.906	4129.05
663.097	4049.18
663.289	4155.67
663.481	4120.85
663.673	4036.89
663.864	3979.54
664.056	4086.04
664.247	3993.88
664.439	4000.02
664.631	3918.11
664.822	3938.59
665.014	3934.49
665.205	3930.39
665.397	3981.59
665.588	3770.65
665.78	3739.93
665.971	3860.76
666.163	3948.83
666.354	3762.46
666.546	3789.08
666.737	3705.12
666.929	3832.09
667.12	3803.42
667.311	3707.16
667.503	3705.12
667.694	3750.17
667.885	3727.64
668.077	3639.58
668.268	3500.32
668.459	3772.7
668.651	3520.8
668.842	3574.05
669.033	3563.81
669.224	3475.74
669.416	3377.44
669.607	3395.87
669.798	3520.8
669.989	3471.65
670.18	3469.6
670.371	3506.46
670.563	3303.71
670.754	3254.56
670.945	3418.4
671.136	3420.45
671.327	3406.11
671.518	3324.19
671.709	3234.08
671.9	3295.52
672.091	3221.8
672.282	3256.61
672.473	3242.28
672.664	3127.59
672.855	3289.38
673.046	3240.23
673.237	3168.55
673.428	3197.22
673.619	3238.18
673.809	3172.64
674	3064.1
674.191	3178.79
674.382	3060.01
674.573	3115.3
674.764	3182.88
674.954	3131.69
675.145	2957.61
675.336	3152.17
675.527	3037.48
675.717	3070.25
675.908	3049.77
676.099	2976.04
676.289	2969.9
676.48	3006.76
676.671	3000.62
676.861	2890.03
677.052	3000.62
677.243	3002.66
677.433	2869.55
677.624	2918.7
677.814	2918.7
678.005	2986.28
678.195	3006.76
678.386	2863.4
678.576	3039.53
678.767	2865.45
678.957	2875.69
679.148	2965.8
679.338	2863.4
679.529	2937.13
679.719	2996.52
679.909	2996.52
680.1	2953.51
680.29	2918.7
680.481	2861.35
680.671	2844.97
680.861	2828.59
681.052	2881.83
681.242	2761
681.432	2871.59
681.622	2861.35
681.813	2877.74
682.003	2824.49
682.193	2816.3
682.383	2871.59
682.573	2859.31
682.764	2779.43
682.954	2855.21
683.144	2812.2
683.334	2738.48
683.524	2799.91
683.714	2777.39
683.904	2765.1
684.094	2783.53
684.284	2863.4
684.474	2822.44
684.664	2967.85
684.854	2857.26
685.044	2801.96
685.234	2715.95
685.424	2820.39
685.614	2758.96
685.804	2773.29
685.994	2740.52
686.184	2849.07
686.374	2773.29
686.564	2697.52
686.753	2783.53
686.943	2793.77
687.133	2666.8
687.323	2713.9
687.513	2656.56
687.702	2703.66
687.892	2718
688.082	2685.23
688.272	2789.67
688.461	2728.24
688.651	2744.62
688.841	2584.88
689.03	2668.84
689.22	2767.15
689.41	2515.25
689.599	2695.47
689.789	2718
689.979	2660.65
690.168	2705.71
690.358	2619.69
690.547	2763.05
690.737	2539.82
690.926	2570.54
691.116	2597.17
691.305	2582.83
691.495	2556.21
691.684	2507.06
691.874	2656.56
692.063	2564.4
692.252	2703.66
692.442	2597.17
692.631	2472.24
692.82	2484.53
693.01	2459.95
693.199	2593.07
693.388	2507.06
693.578	2523.44
693.767	2459.95
693.956	2488.62
694.146	2482.48
694.335	2564.4
694.524	2517.29
694.713	2564.4
694.902	2464.05
695.092	2507.06
695.281	2451.76
695.47	2531.63
695.659	2404.66
695.848	2439.47
696.037	2556.21
696.226	2513.2
696.415	2445.62
696.604	2394.42
696.793	2476.34
696.982	2521.39
697.171	2365.75
697.36	2482.48
697.549	2375.99
697.738	2382.13
697.927	2421.04
698.116	2402.61
698.305	2390.32
698.494	2412.85
698.683	2316.59
698.872	2332.98
699.061	2451.76
699.25	2398.51
699.438	2359.6
699.627	2187.57
699.816	2332.98
700.005	2427.18
700.193	2373.94
700.382	2380.08
700.571	2296.11
700.76	2369.84
700.948	2443.57
701.137	2369.84
701.326	2457.9
701.514	2367.79
701.703	2318.64
701.892	2289.97
702.08	2396.46
702.269	2371.89
702.457	2304.31
702.646	2382.13
702.834	2267.44
703.023	2253.11
703.212	2240.82
703.4	2214.2
703.589	2412.85
703.777	2279.73
703.965	2302.26
704.154	2283.83
704.342	2279.73
704.531	2105.65
704.719	2171.19
704.907	2371.89
705.096	2187.57
705.284	2171.19
705.472	2181.43
705.661	2169.14
705.849	2191.67
706.037	2238.77
706.226	2103.61
706.414	2212.15
706.602	2210.1
706.79	2191.67
706.979	2124.08
707.167	2136.37
707.355	2126.13
707.543	2115.89
707.731	2167.09
707.919	2195.76
708.107	2117.94
708.296	2040.12
708.484	2117.94
708.672	2070.84
708.86	2021.69
709.048	2117.94
709.236	2140.47
709.424	2130.23
709.612	2119.99
709.8	2038.07
709.988	2091.32
710.176	2076.98
710.364	2160.95
710.551	2052.41
710.739	2052.41
710.927	2130.23
711.115	2126.13
711.303	2040.12
711.491	2064.69
711.679	2013.49
711.866	2027.83
712.054	2042.17
712.242	2083.13
712.43	2013.49
712.617	1900.86
712.805	1995.06
712.993	2091.32
713.181	1939.77
713.368	2009.4
713.556	2003.25
713.744	2003.25
713.931	1960.25
714.119	2009.4
714.306	1984.82
714.494	1952.06
714.682	1923.38
714.869	1896.76
715.057	1868.09
715.244	1898.81
715.432	2019.64
715.619	1986.87
715.807	2009.4
715.994	1894.71
716.182	1919.29
716.369	1904.95
716.556	1898.81
716.744	1931.58
716.931	1788.22
717.119	1888.57
717.306	1915.19
717.493	1970.49
717.681	1812.79
717.868	1962.3
718.055	1894.71
718.242	1788.22
718.43	1831.23
718.617	1780.03
718.804	1929.53
718.991	1825.08
719.179	1827.13
719.366	1767.74
719.553	1820.99
719.74	1745.21
719.927	1847.61
720.114	1890.62
720.301	1792.31
720.488	1806.65
720.676	1761.59
720.863	1757.5
721.05	1870.14
721.237	1808.7
721.424	1810.75
721.611	1755.45
721.798	1667.39
721.985	1675.58
722.172	1786.17
722.358	1702.2
722.545	1691.96
722.732	1681.72
722.919	1823.03
723.106	1732.92
723.293	1732.92
723.48	1708.35
723.667	1603.9
723.853	1780.03
724.04	1683.77
724.227	1673.53
724.414	1694.01
724.6	1732.92
724.787	1702.2
724.974	1681.72
725.161	1632.57
725.347	1737.02
725.534	1544.51
725.72	1679.68
725.907	1749.31
726.094	1628.48
726.28	1640.76
726.467	1671.48
726.653	1655.1
726.84	1612.09
727.027	1722.68
727.213	1610.04
727.4	1614.14
727.586	1548.61
727.773	1591.61
727.959	1612.09
728.145	1626.43
728.332	1548.61
728.518	1552.7
728.705	1581.37
728.891	1569.09
729.077	1591.61
729.264	1632.57
729.45	1626.43
729.636	1687.87
729.823	1554.75
730.009	1648.96
730.195	1771.83
730.382	1505.6
730.568	1610.04
730.754	1470.78
730.94	1571.13
731.126	1657.15
731.313	1509.69
731.499	1614.14
731.685	1499.45
731.871	1573.18
732.057	1571.13
732.243	1532.22
732.429	1497.41
732.615	1507.65
732.801	1630.52
732.987	1454.4
733.173	1616.19
733.359	1472.83
733.545	1456.45
733.731	1376.58
733.917	1450.3
734.103	1501.5
734.289	1483.07
734.475	1503.55
734.661	1515.84
734.847	1458.5
735.033	1468.73
735.219	1526.08
735.404	1489.21
735.59	1618.24
735.776	1452.35
735.962	1495.36
736.148	1554.75
736.333	1384.77
736.519	1421.63
736.705	1460.54
736.89	1466.69
737.076	1335.62
737.262	1476.93
737.447	1431.87
737.633	1456.45
737.819	1433.92
738.004	1534.27
738.19	1442.11
738.375	1413.44
738.561	1452.35
738.747	1483.07
738.932	1413.44
739.118	1360.19
739.303	1403.2
739.489	1413.44
739.674	1423.68
739.859	1382.72
740.045	1356.1
740.23	1253.7
740.416	1302.85
740.601	1345.86
740.786	1429.82
740.972	1491.26
741.157	1378.62
741.342	1253.7
741.528	1397.06
741.713	1337.66
741.898	1292.61
742.084	1227.07
742.269	1395.01
742.454	1339.71
742.639	1306.95
742.824	1296.71
743.01	1360.19
743.195	1300.8
743.38	1294.66
743.565	1263.94
743.75	1202.5
743.935	1290.56
744.12	1311.04
744.305	1329.47
744.49	1300.8
744.675	1251.65
744.86	1360.19
745.045	1263.94
745.23	1225.03
745.415	1296.71
745.6	1204.55
745.785	1231.17
745.97	1204.55
746.155	1280.32
746.34	1110.34
746.525	1179.97
746.71	1233.22
746.895	1278.27
747.079	1272.13
747.264	1270.08
747.449	1247.55
747.634	1222.98
747.819	1208.64
748.003	1108.29
748.188	1132.87
748.373	1124.68
748.557	1177.92
748.742	1163.59
748.927	1106.24
749.111	1139.01
749.296	1128.77
749.481	1044.81
749.665	1157.44
749.85	1141.06
750.034	1128.77
750.219	1098.05
750.404	1081.67
750.588	1036.61
750.773	1081.67
750.957	1014.09
751.141	940.36
751.326	1001.8
751.51	989.51
751.695	1059.14
751.879	1005.89
752.064	1069.38
752.248	1003.85
752.432	981.32
752.617	930.12
752.801	903.5
752.985	1003.85
753.17	969.03
753.354	966.98
753.538	1036.61
753.722	946.5
753.907	971.08
754.091	997.7
754.275	930.12
754.459	835.91
754.643	915.78
754.828	889.16
755.012	993.61
755.196	868.68
755.38	782.67
755.564	942.41
755.748	913.74
755.932	819.53
756.116	856.39
756.3	774.47
756.484	833.86
756.668	813.38
756.852	776.52
757.036	854.34
757.22	907.59
757.404	809.29
757.588	821.58
757.772	889.16
757.956	770.38
758.14	762.19
758.323	774.47
758.507	835.91
758.691	813.38
758.875	772.43
759.059	829.77
759.242	768.33
759.426	776.52
759.61	686.41
759.794	715.08
759.977	768.33
760.161	770.38
760.345	698.7
760.528	725.32
760.712	659.79
760.895	788.81
761.079	735.56
761.263	768.33
761.446	696.65
761.63	708.94
761.813	782.67
761.997	747.85
762.18	717.13
762.364	645.45
762.547	665.93
762.731	684.36
762.914	717.13
763.098	674.12
763.281	647.5
763.464	717.13
763.648	645.45
763.831	575.82
764.015	633.16
764.198	649.55
764.381	663.88
764.564	688.46
764.748	717.13
764.931	698.7
765.114	534.86
765.297	674.12
765.481	590.16
765.664	614.73
765.847	694.6
766.03	667.98
766.213	633.16
766.397	708.94
766.58	629.07
766.763	678.22
766.946	573.77
767.129	766.28
767.312	577.87
767.495	592.2
767.678	653.64
767.861	624.97
768.044	612.68
768.227	622.92
768.41	624.97
768.593	602.44
768.776	629.07
768.959	579.92
769.142	608.59
769.324	639.31
769.507	541.01
769.69	543.05
769.873	487.76
770.056	651.6
770.239	588.11
770.421	559.44
770.604	612.68
770.787	569.68
770.97	629.07
771.152	541.01
771.335	606.54
771.518	565.58
771.7	536.91
771.883	551.24
772.066	553.29
772.248	573.77
772.431	608.59
772.613	440.65
772.796	561.48
772.978	561.48
773.161	557.39
773.343	502.09
773.526	508.24
773.708	565.58
773.891	487.76
774.073	538.96
774.256	498
774.438	510.29
774.621	530.77
774.803	489.81
774.985	495.95
775.168	518.48
775.35	508.24
775.532	516.43
775.715	438.61
775.897	498
776.079	457.04
776.261	510.29
776.444	577.87
776.626	465.23
776.808	541.01
776.99	438.61
777.173	498
777.355	489.81
777.537	438.61
777.719	510.29
777.901	442.7
778.083	508.24
778.265	385.36
778.447	395.6
778.629	391.5
778.811	432.46
778.993	434.51
779.175	420.17
779.357	422.22
779.539	465.23
779.721	387.41
779.903	438.61
780.085	354.64
780.267	362.83
780.449	403.79
780.631	444.75
780.812	446.8
780.994	411.98
781.176	371.02
781.358	457.04
781.54	444.75
781.721	354.64
781.903	379.22
782.085	364.88
782.267	317.78
782.448	383.31
782.63	348.5
782.812	389.46
782.993	328.02
783.175	344.4
783.357	270.67
783.538	323.92
783.72	295.25
783.901	287.06
784.083	336.21
784.264	250.19
784.446	332.11
784.627	301.39
784.809	299.34
784.99	334.16
785.172	325.97
785.353	311.63
785.535	358.74
785.716	379.22
785.897	311.63
786.079	287.06
786.26	266.58
786.441	328.02
786.623	362.83
786.804	307.54
786.985	311.63
787.167	289.1
787.348	307.54
787.529	268.63
787.71	272.72
787.891	285.01
788.073	233.81
788.254	225.62
788.435	276.82
788.616	280.91
788.797	237.91
788.978	274.77
789.159	307.54
789.34	342.35
789.522	301.39
789.703	235.86
789.884	203.09
790.065	289.1
790.246	268.63
790.427	256.34
790.607	264.53
790.788	276.82
790.969	170.32
791.15	196.95
791.331	209.23
791.512	186.71
791.693	299.34
791.874	184.66
792.054	303.44
792.235	248.15
792.416	194.9
792.597	178.51
792.778	260.43
792.958	256.34
793.139	262.48
793.32	168.27
793.5	164.18
793.681	276.82
793.862	176.47
794.042	231.76
794.223	137.56
794.404	260.43
794.584	248.15
794.765	260.43
794.945	227.67
795.126	274.77
795.306	297.3
795.487	164.18
795.667	174.42
795.848	258.39
796.028	297.3
796.209	158.03
796.389	225.62
796.57	170.32
796.75	186.71
796.93	141.65
797.111	258.39
797.291	153.94
797.471	168.27
797.652	194.9
797.832	207.19
798.012	117.08
798.192	115.03
798.373	137.56
798.553	164.18
798.733	223.57
798.913	162.13
799.093	180.56
799.274	217.43
799.454	178.51
799.634	180.56
799.814	207.19
799.994	217.43
800.174	135.51
800.354	248.15
800.534	121.17
800.714	135.51
800.894	188.75
801.074	182.61
801.254	100.69
801.434	184.66
801.614	192.85
801.794	102.74
801.974	391.5
802.154	147.8
802.334	168.27
802.514	119.12
802.693	100.69
802.873	121.17
803.053	178.51
803.233	201.04
803.413	82.26
803.592	182.61
803.772	160.08
803.952	164.18
804.131	201.04
804.311	170.32
804.491	129.36
804.67	108.88
804.85	92.5
805.03	176.47
805.209	117.08
805.389	133.46
805.568	186.71
805.748	174.42
805.928	141.65
806.107	108.88
806.287	190.8
806.466	86.36
806.646	145.75
806.825	141.65
807.004	112.98
807.184	162.13
807.363	117.08
807.543	147.8
807.722	98.64
807.901	172.37
808.081	139.6
808.26	76.12
808.439	88.4
808.619	164.18
808.798	153.94
808.977	86.36
809.156	94.55
809.336	164.18
809.515	178.51
809.694	100.69
809.873	108.88
810.052	143.7
810.231	145.75
810.411	135.51
810.59	145.75
810.769	106.84
810.948	153.94
811.127	98.64
811.306	24.92
811.485	143.7
811.664	176.47
811.843	76.12
812.022	80.21
812.201	139.6
812.38	100.69
812.559	31.06
812.737	133.46
812.916	94.55
813.095	125.27
813.274	178.51
813.453	110.93
813.632	41.3
813.811	196.95
813.989	92.5
814.168	80.21
814.347	31.06
814.526	86.36
814.704	153.94
814.883	123.22
815.062	51.54
815.24	137.56
815.419	139.6
815.598	133.46
815.776	80.21
815.955	143.7
816.133	76.12
816.312	92.5
816.49	131.41
816.669	125.27
816.847	117.08
817.026	117.08
817.204	127.32
817.383	104.79
817.561	162.13
817.74	121.17
817.918	139.6
818.097	129.36
818.275	16.73
818.453	98.64
818.632	57.68
818.81	137.56
818.988	74.07
819.167	76.12
819.345	59.73
819.523	123.22
819.701	78.16
819.879	112.98
820.058	4.44
820.236	76.12
820.414	82.26
820.592	65.88
820.77	84.31
820.948	69.97
821.127	24.92
821.305	100.69
821.483	80.21
821.661	76.12
821.839	78.16
822.017	86.36
822.195	100.69
822.373	45.4
822.551	84.31
822.729	129.36
822.907	82.26
823.085	86.36
823.262	119.12
823.44	78.16
823.618	47.44
823.796	88.4
823.974	57.68
824.152	29.01
824.329	100.69
824.507	149.84
824.685	84.31
824.863	67.92
825.04	31.06
825.218	43.35
825.396	65.88
825.574	94.55
825.751	100.69
825.929	98.64
826.107	96.6
826.284	59.73
826.462	78.16
826.639	67.92
826.817	51.54
826.994	76.12
827.172	45.4
827.349	92.5
827.527	121.17
827.704	37.2
827.882	26.96
828.059	63.83
828.237	84.31
828.414	65.88
828.591	94.55
828.769	108.88
828.946	10.58
829.124	26.96
829.301	80.21
829.478	76.12
829.655	16.73
829.833	59.73
830.01	65.88
830.187	137.56
830.364	59.73
830.542	4.44
830.719	80.21
830.896	24.92
831.073	57.68
831.25	49.49
831.427	117.08
831.604	76.12
831.782	131.41
831.959	88.4
832.136	69.97
832.313	29.01
832.49	37.2
832.667	86.36
832.844	45.4
833.021	67.92
833.198	88.4
833.374	31.06
833.551	-9.9
833.728	26.96
833.905	47.44
834.082	51.54
834.259	55.64
834.436	119.12
834.612	121.17
834.789	76.12
834.966	106.84
835.143	-5.8
835.319	80.21
835.496	76.12
835.673	78.16
835.85	100.69
836.026	39.25
836.203	108.88
836.38	153.94
836.556	125.27
836.733	112.98
836.909	65.88
837.086	4.44
837.262	37.2
837.439	41.3
837.616	86.36
837.792	67.92
837.968	18.77
838.145	-20.14
838.321	-1.71
838.498	49.49
838.674	4.44
838.851	72.02
839.027	37.2
839.203	43.35
839.38	16.73
839.556	131.41
839.732	76.12
839.909	102.74
840.085	67.92
840.261	110.93
840.437	63.83
840.614	6.49
840.79	26.96
840.966	24.92
841.142	57.68
841.318	18.77
841.494	16.73
841.671	72.02
841.847	51.54
842.023	47.44
842.199	43.35
842.375	59.73
842.551	43.35
842.727	-9.9
842.903	51.54
843.079	-5.8
843.255	76.12
843.431	57.68
843.607	-13.99
843.783	22.87
843.959	61.78
844.134	6.49
844.31	110.93
844.486	29.01
844.662	24.92
844.838	37.2
845.013	14.68
845.189	10.58
845.365	51.54
845.541	-18.09
845.716	88.4
845.892	59.73
846.068	20.82
846.244	47.44
846.419	65.88
846.595	-1.71
846.77	39.25
846.946	80.21
847.122	74.07
847.297	43.35
847.473	20.82
847.648	4.44
847.824	49.49
847.999	20.82
848.175	-5.8
848.35	43.35
848.526	49.49
848.701	53.59
848.876	20.82
849.052	0.34
849.227	-7.85
849.403	-5.8
849.578	43.35
849.753	35.16
849.929	6.49
850.104	24.92
850.279	45.4
850.454	-1.71
850.63	-9.9
850.805	18.77
850.98	61.78
851.155	-28.33
851.33	12.63
851.505	55.64
851.681	88.4
851.856	43.35
852.031	51.54
852.206	16.73
852.381	65.88
852.556	-22.19
852.731	4.44
852.906	41.3
853.081	41.3
853.256	59.73
853.431	47.44
853.606	69.97
853.781	20.82
853.956	76.12
854.131	43.35
854.305	14.68
854.48	115.03
854.655	41.3
854.83	-79.53
855.005	-1.71
855.18	117.08
855.354	-7.85
855.529	-3.75
855.704	63.83
855.879	35.16
856.053	53.59
856.228	10.58
856.403	33.11
856.577	20.82
856.752	-1.71
856.926	45.4
857.101	37.2
857.276	41.3
857.45	-34.47
857.625	8.53
857.799	65.88
857.974	57.68
858.148	-13.99
858.323	74.07
858.497	10.58
858.672	29.01
858.846	57.68
859.02	33.11
859.195	35.16
859.369	33.11
859.543	-9.9
859.718	53.59
859.892	39.25
860.066	53.59
860.241	33.11
860.415	14.68
860.589	22.87
860.763	65.88
860.938	59.73
861.112	41.3
861.286	16.73
861.46	43.35
861.634	10.58
861.808	31.06
861.982	8.53
862.157	4.44
862.331	-11.95
862.505	29.01
862.679	12.63
862.853	-30.38
863.027	4.44
863.201	55.64
863.375	8.53
863.549	-22.19
863.722	-3.75
863.896	29.01
864.07	72.02
864.244	-36.52
864.418	-5.8
864.592	14.68
864.766	20.82
864.939	-3.75
865.113	4.44
865.287	20.82
865.461	78.16
865.634	29.01
865.808	0.34
865.982	18.77
866.156	-3.75
866.329	96.6
866.503	-22.19
866.676	57.68
866.85	37.2
867.024	37.2
867.197	94.55
867.371	24.92
867.544	8.53
867.718	10.58
867.891	-38.57
868.065	-42.67
868.238	26.96
868.412	53.59
868.585	14.68
868.759	37.2
868.932	8.53
869.105	26.96
869.279	-1.71
869.452	-18.09
869.625	8.53
869.799	92.5
869.972	-61.1
870.145	-7.85
870.319	8.53
870.492	43.35
870.665	0.34
870.838	14.68
871.011	-38.57
871.185	20.82
871.358	-9.9
871.531	45.4
871.704	61.78
871.877	-13.99
872.05	-42.67
872.223	33.11
872.396	16.73
872.569	47.44
872.742	-24.23
872.915	76.12
873.088	24.92
873.261	14.68
873.434	-36.52
873.607	2.39
873.78	39.25
873.953	-28.33
874.126	53.59
874.299	31.06
874.471	-24.23
874.644	4.44
874.817	22.87
874.99	37.2
875.163	2.39
875.335	49.49
875.508	12.63
875.681	45.4
875.853	6.49
876.026	18.77
876.199	-36.52
876.371	4.44
876.544	-36.52
876.717	-28.33
876.889	-11.95
877.062	12.63
877.234	26.96
877.407	-22.19
877.579	-22.19
877.752	22.87
877.924	-26.28
878.097	4.44
878.269	-30.38
878.442	29.01
878.614	14.68
878.786	14.68
878.959	-30.38
879.131	14.68
879.303	10.58
879.476	26.96
879.648	51.54
879.82	49.49
879.993	-50.86
880.165	-11.95
880.337	-46.76
880.509	80.21
880.681	-34.47
880.854	57.68
881.026	47.44
881.198	-32.43
881.37	-34.47
881.542	-26.28
881.714	45.4
881.886	-11.95
882.058	22.87
882.23	26.96
882.402	-54.95
882.574	74.07
882.746	-20.14
882.918	14.68
883.09	29.01
883.262	-9.9
883.434	-63.15
883.606	10.58
883.778	8.53
883.95	47.44
884.122	0.34
884.293	10.58
884.465	20.82
884.637	47.44
884.809	-9.9
884.98	43.35
885.152	69.97
885.324	16.73
885.496	-28.33
885.667	86.36
885.839	16.73
886.011	78.16
886.182	-32.43
886.354	88.4
886.525	41.3
886.697	41.3
886.869	-36.52
887.04	31.06
887.212	-32.43
887.383	53.59
887.555	2.39
887.726	20.82
887.897	-13.99
888.069	29.01
888.24	96.6
888.412	-42.67
888.583	18.77
888.754	41.3
888.926	59.73
889.097	35.16
889.268	20.82
889.44	24.92
889.611	-22.19
889.782	59.73
889.953	-13.99
890.125	-7.85
890.296	51.54
890.467	-1.71
890.638	0.34
890.809	29.01
890.98	33.11
891.151	26.96
891.323	-63.15
891.494	63.83
891.665	33.11
891.836	72.02
892.007	4.44
892.178	37.2
892.349	67.92
892.52	-26.28
892.691	86.36
892.862	-36.52
893.032	2.39
893.203	-30.38
893.374	-13.99
893.545	33.11
893.716	37.2
893.887	24.92
894.057	-54.95
894.228	33.11
894.399	51.54
894.57	10.58
894.74	-22.19
894.911	18.77
895.082	-73.39
895.253	24.92
895.423	-9.9
895.594	20.82
895.764	-3.75
895.935	37.2
896.106	-46.76
896.276	-7.85
896.447	-38.57
896.617	67.92
896.788	-24.23
896.958	18.77
897.129	2.39
897.299	84.31
897.47	8.53
897.64	53.59
897.81	18.77
897.981	43.35
898.151	14.68
898.322	67.92
898.492	86.36
898.662	4.44
898.832	29.01
899.003	-28.33
899.173	59.73
899.343	-48.81
899.513	-5.8
