Data from USB4F104151__43__12-59-05-405.txt Node

Date: Fri Mar 14 12:59:05 EDT 2025
User: louis
Spectrometer: USB4F10415
Trigger mode: 4
Integration Time (sec): 1.000000E-2
Scans to average: 1
Electric dark correction enabled: true
Nonlinearity correction enabled: false
Boxcar width: 0
XAxis mode: Wavelengths
Number of Pixels in Spectrum: 3648
>>>>>Begin Spectral Data<<<<<
178.204	-44.37
178.424	-44.37
178.644	-44.37
178.864	-64.85
179.084	-13.65
179.304	-19.8
179.524	-27.99
179.744	4.78
179.964	-27.99
180.184	-15.7
180.404	-15.7
180.624	23.21
180.844	21.16
181.064	-40.28
181.283	60.07
181.503	8.87
181.723	29.35
181.943	-23.89
182.163	0.68
182.383	23.21
182.602	17.07
182.822	17.07
183.042	-9.56
183.262	41.64
183.482	33.45
183.701	-48.47
183.921	-36.18
184.141	15.02
184.361	31.4
184.58	27.31
184.8	35.5
185.02	27.31
185.239	74.41
185.459	-9.56
185.679	17.07
185.898	8.87
186.118	78.51
186.338	2.73
186.557	15.02
186.777	-21.85
186.997	21.16
187.216	113.32
187.436	-27.99
187.655	25.26
187.875	-7.51
188.095	17.07
188.314	6.83
188.534	8.87
188.753	47.79
188.973	31.4
189.192	6.83
189.412	-68.95
189.631	55.98
189.851	35.5
190.07	76.46
190.29	-50.52
190.509	25.26
190.729	6.83
190.948	-13.65
191.168	15.02
191.387	68.27
191.607	23.21
191.826	-15.7
192.045	27.31
192.265	-42.32
192.484	25.26
192.704	6.83
192.923	-23.89
193.142	80.55
193.362	49.83
193.581	58.03
193.8	-19.8
194.02	-1.37
194.239	-1.37
194.458	111.27
194.678	4.78
194.897	-15.7
195.116	86.7
195.335	35.5
195.555	58.03
195.774	-64.85
195.993	45.74
196.212	17.07
196.432	-13.65
196.651	21.16
196.87	35.5
197.089	35.5
197.308	-3.41
197.528	49.83
197.747	-71
197.966	53.93
198.185	-17.75
198.404	23.21
198.623	45.74
198.842	70.31
199.062	10.92
199.281	37.55
199.5	4.78
199.719	29.35
199.938	23.21
200.157	-11.61
200.376	17.07
200.595	90.79
200.814	98.99
201.033	0.68
201.252	101.03
201.471	21.16
201.69	31.4
201.909	15.02
202.128	76.46
202.347	-1.37
202.566	33.45
202.785	-58.71
203.004	-40.28
203.223	74.41
203.442	-42.32
203.661	49.83
203.879	43.69
204.098	45.74
204.317	62.12
204.536	6.83
204.755	47.79
204.974	55.98
205.193	45.74
205.411	51.88
205.63	17.07
205.849	17.07
206.068	43.69
206.287	15.02
206.505	-7.51
206.724	6.83
206.943	25.26
207.162	45.74
207.381	41.64
207.599	-7.51
207.818	17.07
208.037	23.21
208.255	12.97
208.474	-3.41
208.693	8.87
208.911	47.79
209.13	12.97
209.349	12.97
209.567	-17.75
209.786	33.45
210.005	-44.37
210.223	51.88
210.442	37.55
210.661	39.59
210.879	17.07
211.098	49.83
211.316	-7.51
211.535	62.12
211.753	53.93
211.972	90.79
212.191	-15.7
212.409	8.87
212.628	-3.41
212.846	-46.42
213.065	-5.46
213.283	15.02
213.502	35.5
213.72	55.98
213.938	19.11
214.157	64.17
214.375	12.97
214.594	12.97
214.812	21.16
215.031	19.11
215.249	-3.41
215.467	41.64
215.686	80.55
215.904	47.79
216.122	-79.19
216.341	27.31
216.559	6.83
216.778	2.73
216.996	86.7
217.214	35.5
217.432	25.26
217.651	-7.51
217.869	-21.85
218.087	12.97
218.306	4.78
218.524	12.97
218.742	-15.7
218.96	41.64
219.179	21.16
219.397	45.74
219.615	72.36
219.833	-38.23
220.051	21.16
220.27	98.99
220.488	-1.37
220.706	45.74
220.924	-36.18
221.142	-13.65
221.36	53.93
221.578	49.83
221.796	-11.61
222.015	31.4
222.233	0.68
222.451	29.35
222.669	66.22
222.887	-3.41
223.105	4.78
223.323	35.5
223.541	-7.51
223.759	25.26
223.977	-9.56
224.195	8.87
224.413	12.97
224.631	92.84
224.849	12.97
225.067	62.12
225.285	10.92
225.503	82.6
225.721	25.26
225.939	19.11
226.157	10.92
226.375	41.64
226.592	10.92
226.81	45.74
227.028	27.31
227.246	35.5
227.464	8.87
227.682	115.37
227.9	39.59
228.117	31.4
228.335	125.61
228.553	8.87
228.771	43.69
228.989	39.59
229.206	-5.46
229.424	-32.08
229.642	21.16
229.86	-30.04
230.077	105.13
230.295	41.64
230.513	84.65
230.731	2.73
230.948	17.07
231.166	37.55
231.384	68.27
231.601	60.07
231.819	35.5
232.037	-60.76
232.254	58.03
232.472	60.07
232.689	-19.8
232.907	19.11
233.125	78.51
233.342	78.51
233.56	15.02
233.777	15.02
233.995	-1.37
234.213	-19.8
234.43	51.88
234.648	37.55
234.865	8.87
235.083	45.74
235.3	12.97
235.518	29.35
235.735	64.17
235.953	117.42
236.17	12.97
236.388	27.31
236.605	15.02
236.822	33.45
237.04	66.22
237.257	8.87
237.475	47.79
237.692	47.79
237.909	19.11
238.127	2.73
238.344	-11.61
238.562	43.69
238.779	-7.51
238.996	-48.47
239.214	43.69
239.431	-1.37
239.648	15.02
239.865	37.55
240.083	-50.52
240.3	47.79
240.517	29.35
240.735	35.5
240.952	2.73
241.169	80.55
241.386	55.98
241.603	-21.85
241.821	0.68
242.038	21.16
242.255	33.45
242.472	27.31
242.689	103.08
242.907	43.69
243.124	-46.42
243.341	-1.37
243.558	-54.61
243.775	33.45
243.992	-25.94
244.209	-44.37
244.426	62.12
244.643	-15.7
244.86	25.26
245.078	27.31
245.295	19.11
245.512	66.22
245.729	4.78
245.946	49.83
246.163	-23.89
246.38	58.03
246.597	33.45
246.814	29.35
247.031	-48.47
247.248	51.88
247.464	70.31
247.681	-48.47
247.898	-19.8
248.115	4.78
248.332	-25.94
248.549	-19.8
248.766	21.16
248.983	-11.61
249.2	55.98
249.417	4.78
249.633	-52.56
249.85	19.11
250.067	82.6
250.284	8.87
250.501	-13.65
250.717	-19.8
250.934	39.59
251.151	19.11
251.368	60.07
251.585	51.88
251.801	-32.08
252.018	8.87
252.235	45.74
252.451	23.21
252.668	80.55
252.885	66.22
253.102	58.03
253.318	58.03
253.535	-30.04
253.752	-9.56
253.968	29.35
254.185	51.88
254.401	37.55
254.618	-15.7
254.835	-36.18
255.051	62.12
255.268	41.64
255.484	45.74
255.701	19.11
255.917	68.27
256.134	-5.46
256.351	17.07
256.567	115.37
256.784	109.22
257	-3.41
257.217	33.45
257.433	10.92
257.65	66.22
257.866	35.5
258.082	25.26
258.299	-42.32
258.515	19.11
258.732	2.73
258.948	-48.47
259.165	96.94
259.381	72.36
259.597	-9.56
259.814	19.11
260.03	-71
260.246	23.21
260.463	25.26
260.679	25.26
260.895	37.55
261.112	49.83
261.328	33.45
261.544	17.07
261.761	41.64
261.977	21.16
262.193	10.92
262.409	31.4
262.626	-27.99
262.842	33.45
263.058	37.55
263.274	68.27
263.49	-3.41
263.707	68.27
263.923	47.79
264.139	4.78
264.355	55.98
264.571	82.6
264.787	72.36
265.004	51.88
265.22	53.93
265.436	-3.41
265.652	-25.94
265.868	-17.75
266.084	19.11
266.3	35.5
266.516	-50.52
266.732	47.79
266.948	80.55
267.164	-56.66
267.38	19.11
267.596	-48.47
267.812	35.5
268.028	-13.65
268.244	49.83
268.46	49.83
268.676	88.75
268.892	25.26
269.108	8.87
269.324	27.31
269.54	-11.61
269.756	21.16
269.972	-27.99
270.188	-7.51
270.403	-11.61
270.619	33.45
270.835	-15.7
271.051	-13.65
271.267	2.73
271.483	58.03
271.698	8.87
271.914	12.97
272.13	-54.61
272.346	-13.65
272.562	-13.65
272.777	86.7
272.993	-23.89
273.209	17.07
273.425	25.26
273.64	-17.75
273.856	-13.65
274.072	35.5
274.287	55.98
274.503	-30.04
274.719	10.92
274.934	74.41
275.15	-9.56
275.366	129.7
275.581	41.64
275.797	51.88
276.012	72.36
276.228	-15.7
276.444	8.87
276.659	105.13
276.875	19.11
277.09	58.03
277.306	15.02
277.521	60.07
277.737	78.51
277.952	-40.28
278.168	45.74
278.383	-48.47
278.599	58.03
278.814	12.97
279.03	29.35
279.245	17.07
279.461	35.5
279.676	53.93
279.892	-19.8
280.107	33.45
280.322	25.26
280.538	80.55
280.753	58.03
280.969	-5.46
281.184	-13.65
281.399	35.5
281.615	15.02
281.83	115.37
282.045	64.17
282.26	86.7
282.476	-1.37
282.691	117.42
282.906	60.07
283.122	41.64
283.337	8.87
283.552	-23.89
283.767	23.21
283.983	-40.28
284.198	115.37
284.413	55.98
284.628	-34.13
284.843	33.45
285.058	45.74
285.274	49.83
285.489	8.87
285.704	31.4
285.919	47.79
286.134	41.64
286.349	43.69
286.564	53.93
286.779	39.59
286.995	62.12
287.21	10.92
287.425	68.27
287.64	62.12
287.855	68.27
288.07	-3.41
288.285	47.79
288.5	74.41
288.715	8.87
288.93	27.31
289.145	-19.8
289.36	64.17
289.575	31.4
289.79	51.88
290.004	92.84
290.219	33.45
290.434	72.36
290.649	-3.41
290.864	-30.04
291.079	117.42
291.294	-1.37
291.509	-73.04
291.724	98.99
291.938	2.73
292.153	-3.41
292.368	-36.18
292.583	64.17
292.798	45.74
293.012	49.83
293.227	70.31
293.442	62.12
293.657	23.21
293.871	0.68
294.086	-21.85
294.301	70.31
294.516	51.88
294.73	-17.75
294.945	-23.89
295.16	-46.42
295.374	-25.94
295.589	84.65
295.804	-17.75
296.018	35.5
296.233	10.92
296.447	39.59
296.662	21.16
296.877	80.55
297.091	8.87
297.306	62.12
297.52	53.93
297.735	51.88
297.949	-34.13
298.164	98.99
298.378	31.4
298.593	37.55
298.807	66.22
299.022	31.4
299.236	64.17
299.451	-30.04
299.665	39.59
299.88	12.97
300.094	-11.61
300.309	-19.8
300.523	45.74
300.737	35.5
300.952	35.5
301.166	47.79
301.381	-42.32
301.595	27.31
301.809	84.65
302.024	33.45
302.238	4.78
302.452	27.31
302.667	17.07
302.881	51.88
303.095	-27.99
303.309	51.88
303.524	-17.75
303.738	66.22
303.952	6.83
304.166	8.87
304.381	-11.61
304.595	60.07
304.809	12.97
305.023	25.26
305.237	35.5
305.452	-7.51
305.666	53.93
305.88	129.7
306.094	80.55
306.308	27.31
306.522	68.27
306.736	35.5
306.95	-25.94
307.164	2.73
307.379	2.73
307.593	43.69
307.807	25.26
308.021	6.83
308.235	58.03
308.449	-38.23
308.663	33.45
308.877	94.89
309.091	25.26
309.305	39.59
309.519	4.78
309.733	25.26
309.947	-7.51
310.161	17.07
310.374	53.93
310.588	45.74
310.802	60.07
311.016	-25.94
311.23	-13.65
311.444	23.21
311.658	68.27
311.872	43.69
312.085	35.5
312.299	111.27
312.513	-56.66
312.727	8.87
312.941	27.31
313.154	10.92
313.368	45.74
313.582	43.69
313.796	103.08
314.009	-5.46
314.223	101.03
314.437	-7.51
314.651	0.68
314.864	-3.41
315.078	62.12
315.292	29.35
315.505	43.69
315.719	66.22
315.933	90.79
316.146	-38.23
316.36	6.83
316.573	68.27
316.787	49.83
317.001	49.83
317.214	41.64
317.428	66.22
317.641	-3.41
317.855	19.11
318.068	-3.41
318.282	8.87
318.495	53.93
318.709	47.79
318.922	76.46
319.136	12.97
319.349	-9.56
319.563	84.65
319.776	29.35
319.99	4.78
320.203	-9.56
320.417	25.26
320.63	29.35
320.843	35.5
321.057	-15.7
321.27	60.07
321.483	10.92
321.697	51.88
321.91	21.16
322.124	35.5
322.337	-52.56
322.55	-36.18
322.763	49.83
322.977	27.31
323.19	29.35
323.403	35.5
323.617	76.46
323.83	-19.8
324.043	0.68
324.256	45.74
324.469	31.4
324.683	15.02
324.896	21.16
325.109	31.4
325.322	8.87
325.535	4.78
325.748	-44.37
325.962	51.88
326.175	17.07
326.388	49.83
326.601	31.4
326.814	127.66
327.027	35.5
327.24	66.22
327.453	2.73
327.666	17.07
327.879	21.16
328.092	49.83
328.305	41.64
328.518	2.73
328.731	2.73
328.944	123.56
329.157	74.41
329.37	74.41
329.583	58.03
329.796	-5.46
330.009	-3.41
330.222	15.02
330.435	39.59
330.648	0.68
330.861	-13.65
331.073	12.97
331.286	-32.08
331.499	41.64
331.712	27.31
331.925	103.08
332.138	4.78
332.35	27.31
332.563	96.94
332.776	51.88
332.989	-40.28
333.202	105.13
333.414	51.88
333.627	-32.08
333.84	-7.51
334.053	90.79
334.265	4.78
334.478	23.21
334.691	-3.41
334.903	15.02
335.116	-19.8
335.329	4.78
335.541	-85.33
335.754	58.03
335.966	33.45
336.179	35.5
336.392	-38.23
336.604	27.31
336.817	49.83
337.029	41.64
337.242	82.6
337.454	37.55
337.667	-52.56
337.88	115.37
338.092	-36.18
338.305	47.79
338.517	-5.46
338.729	115.37
338.942	39.59
339.154	35.5
339.367	55.98
339.579	58.03
339.792	-17.75
340.004	-15.7
340.217	117.42
340.429	-9.56
340.641	-7.51
340.854	33.45
341.066	23.21
341.278	23.21
341.491	39.59
341.703	-40.28
341.915	43.69
342.128	17.07
342.34	-19.8
342.552	29.35
342.764	23.21
342.977	60.07
343.189	49.83
343.401	15.02
343.613	66.22
343.826	33.45
344.038	51.88
344.25	17.07
344.462	-5.46
344.674	47.79
344.886	35.5
345.099	-3.41
345.311	6.83
345.523	0.68
345.735	76.46
345.947	17.07
346.159	19.11
346.371	25.26
346.583	35.5
346.795	23.21
347.007	-21.85
347.219	98.99
347.431	-3.41
347.643	60.07
347.855	31.4
348.067	12.97
348.279	-7.51
348.491	8.87
348.703	62.12
348.915	90.79
349.127	2.73
349.339	17.07
349.551	96.94
349.763	-46.42
349.975	25.26
350.187	58.03
350.399	10.92
350.61	80.55
350.822	-38.23
351.034	25.26
351.246	58.03
351.458	103.08
351.669	96.94
351.881	68.27
352.093	-44.37
352.305	58.03
352.517	86.7
352.728	25.26
352.94	21.16
353.152	45.74
353.363	-13.65
353.575	45.74
353.787	39.59
353.999	41.64
354.21	43.69
354.422	90.79
354.633	80.55
354.845	17.07
355.057	-38.23
355.268	47.79
355.48	35.5
355.692	4.78
355.903	55.98
356.115	74.41
356.326	-23.89
356.538	66.22
356.749	76.46
356.961	88.75
357.172	86.7
357.384	2.73
357.595	76.46
357.807	76.46
358.018	45.74
358.23	76.46
358.441	47.79
358.653	107.18
358.864	43.69
359.075	53.93
359.287	45.74
359.498	29.35
359.709	27.31
359.921	25.26
360.132	35.5
360.344	-1.37
360.555	10.92
360.766	45.74
360.977	-5.46
361.189	29.35
361.4	70.31
361.611	27.31
361.823	10.92
362.034	-7.51
362.245	-42.32
362.456	47.79
362.667	-13.65
362.879	0.68
363.09	8.87
363.301	29.35
363.512	68.27
363.723	37.55
363.935	49.83
364.146	51.88
364.357	15.02
364.568	29.35
364.779	35.5
364.99	15.02
365.201	21.16
365.412	-7.51
365.623	53.93
365.834	-25.94
366.045	68.27
366.256	68.27
366.467	47.79
366.678	27.31
366.889	12.97
367.1	-15.7
367.311	8.87
367.522	-17.75
367.733	33.45
367.944	74.41
368.155	-17.75
368.366	47.79
368.577	21.16
368.788	25.26
368.999	49.83
369.209	45.74
369.42	35.5
369.631	27.31
369.842	37.55
370.053	33.45
370.264	37.55
370.474	64.17
370.685	-15.7
370.896	64.17
371.107	45.74
371.317	-52.56
371.528	8.87
371.739	0.68
371.95	101.03
372.16	53.93
372.371	68.27
372.582	53.93
372.792	2.73
373.003	98.99
373.214	23.21
373.424	25.26
373.635	4.78
373.846	25.26
374.056	29.35
374.267	-81.24
374.477	15.02
374.688	-32.08
374.898	15.02
375.109	45.74
375.319	45.74
375.53	88.75
375.74	98.99
375.951	-5.46
376.161	51.88
376.372	51.88
376.582	66.22
376.793	-46.42
377.003	-9.56
377.214	117.42
377.424	47.79
377.635	25.26
377.845	15.02
378.055	21.16
378.266	41.64
378.476	21.16
378.686	109.22
378.897	4.78
379.107	37.55
379.317	35.5
379.528	-1.37
379.738	53.93
379.948	37.55
380.158	72.36
380.369	27.31
380.579	10.92
380.789	17.07
380.999	12.97
381.21	10.92
381.42	62.12
381.63	-11.61
381.84	58.03
382.05	29.35
382.261	74.41
382.471	47.79
382.681	90.79
382.891	31.4
383.101	27.31
383.311	82.6
383.521	62.12
383.731	66.22
383.941	25.26
384.151	58.03
384.361	27.31
384.571	49.83
384.781	68.27
384.991	53.93
385.201	41.64
385.411	-44.37
385.621	80.55
385.831	43.69
386.041	94.89
386.251	62.12
386.461	84.65
386.671	12.97
386.881	70.31
387.091	-44.37
387.301	27.31
387.511	-3.41
387.72	45.74
387.93	4.78
388.14	27.31
388.35	53.93
388.56	66.22
388.769	33.45
388.979	41.64
389.189	60.07
389.399	37.55
389.609	8.87
389.818	41.64
390.028	60.07
390.238	49.83
390.447	33.45
390.657	49.83
390.867	2.73
391.076	23.21
391.286	51.88
391.496	70.31
391.705	84.65
391.915	90.79
392.125	55.98
392.334	103.08
392.544	125.61
392.753	-7.51
392.963	109.22
393.172	35.5
393.382	60.07
393.591	47.79
393.801	37.55
394.01	58.03
394.22	25.26
394.429	45.74
394.639	17.07
394.848	55.98
395.058	-32.08
395.267	92.84
395.477	21.16
395.686	74.41
395.895	121.51
396.105	29.35
396.314	-3.41
396.524	12.97
396.733	74.41
396.942	96.94
397.152	-38.23
397.361	6.83
397.57	-13.65
397.78	76.46
397.989	101.03
398.198	82.6
398.407	21.16
398.617	94.89
398.826	35.5
399.035	47.79
399.244	119.46
399.453	123.56
399.663	78.51
399.872	82.6
400.081	6.83
400.29	109.22
400.499	82.6
400.708	80.55
400.917	72.36
401.127	23.21
401.336	29.35
401.545	27.31
401.754	98.99
401.963	146.09
402.172	58.03
402.381	92.84
402.59	109.22
402.799	82.6
403.008	74.41
403.217	43.69
403.426	82.6
403.635	17.07
403.844	178.86
404.053	72.36
404.262	94.89
404.471	146.09
404.68	6.83
404.888	117.42
405.097	29.35
405.306	111.27
405.515	146.09
405.724	141.99
405.933	84.65
406.142	154.28
406.35	78.51
406.559	123.56
406.768	146.09
406.977	141.99
407.185	148.14
407.394	74.41
407.603	101.03
407.812	141.99
408.02	197.29
408.229	129.7
408.438	168.62
408.646	139.94
408.855	162.47
409.064	148.14
409.272	115.37
409.481	158.38
409.69	127.66
409.898	150.18
410.107	139.94
410.315	199.34
410.524	191.14
410.733	195.24
410.941	211.62
411.15	209.58
411.358	172.71
411.567	236.2
411.775	185
411.984	242.34
412.192	264.87
412.401	219.82
412.609	238.25
412.818	336.55
413.026	264.87
413.234	289.45
413.443	352.93
413.651	287.4
413.86	213.67
414.068	256.68
414.276	402.08
414.485	346.79
414.693	393.89
414.901	361.13
415.11	377.51
415.318	338.6
415.526	383.65
415.734	393.89
415.943	369.32
416.151	492.2
416.359	508.58
416.567	533.15
416.776	481.96
416.984	576.16
417.192	545.44
417.4	438.95
417.608	590.5
417.817	610.98
418.025	684.7
418.233	707.23
418.441	703.14
418.649	705.18
418.857	725.66
419.065	746.14
419.273	826.01
419.481	742.05
419.689	705.18
419.897	836.25
420.105	897.69
420.313	811.68
420.521	883.36
420.729	1012.38
420.937	950.94
421.145	1030.81
421.353	1086.11
421.561	1133.21
421.769	1149.59
421.977	1090.2
422.185	1086.11
422.393	1213.08
422.601	1280.66
422.809	1288.85
423.017	1333.91
423.224	1405.59
423.432	1381.01
423.64	1407.64
423.848	1604.24
424.056	1446.55
424.263	1559.19
424.471	1661.59
424.679	1604.24
424.887	1645.2
425.094	1745.55
425.302	1766.03
425.51	1737.36
425.718	1897.1
425.925	1956.49
426.133	2017.93
426.341	2062.99
426.548	2226.82
426.756	2202.25
426.964	2214.54
427.171	2222.73
427.379	2425.48
427.586	2452.1
427.794	2595.46
428.001	2597.51
428.209	2615.94
428.417	2577.03
428.624	2845.31
428.832	2933.37
429.039	2900.61
429.247	2822.78
429.454	3170.94
429.662	3306.1
429.869	3138.17
430.076	3381.88
430.284	3197.56
430.491	3568.24
430.699	3656.31
430.906	3676.79
431.114	3695.22
431.321	3883.63
431.528	3768.95
431.736	4196.97
431.943	4362.86
432.15	4151.92
432.358	4330.09
432.565	4502.12
432.772	4391.53
432.979	4829.79
433.187	4876.9
433.394	4762.21
433.601	5220.95
433.808	5005.92
434.016	5147.23
434.223	5229.15
434.43	5741.14
434.637	5556.82
434.844	5868.11
435.052	5962.32
435.259	5837.39
435.466	5984.85
435.673	5972.56
435.88	6351.43
436.087	6593.09
436.294	6638.15
436.501	6554.18
436.708	6789.7
436.915	6881.86
437.122	7154.24
437.329	7127.61
437.537	7451.19
437.743	7539.26
437.95	7619.13
438.157	7860.79
438.364	8241.71
438.571	8196.65
438.778	8278.57
438.985	9105.95
439.192	8778.28
439.399	8749.61
439.606	8610.34
439.813	9273.89
440.02	9654.81
440.227	9533.98
440.433	9388.57
440.64	9589.27
440.847	9781.78
441.054	10027.54
441.261	10613.26
441.467	10553.87
441.674	10856.97
441.881	11356.67
442.088	11252.22
442.294	11045.38
442.501	11299.33
442.708	11801.08
442.914	12052.98
443.121	12575.21
443.328	12243.44
443.534	13001.19
443.741	12564.97
443.948	12505.58
444.154	13246.94
444.361	13361.63
444.568	13556.19
444.774	13568.48
444.981	13560.28
445.187	14115.28
445.394	14713.29
445.6	14342.61
445.807	15946.17
446.013	15303.11
446.22	15456.7
446.426	16155.06
446.633	16458.16
446.839	16796.07
447.046	16132.53
447.252	17058.21
447.459	17133.99
447.665	17211.81
447.871	17944.98
448.078	18571.66
448.284	17627.55
448.491	18016.66
448.697	19110.28
448.903	19128.71
449.11	19302.79
449.316	19153.29
449.522	19372.42
449.728	19925.37
449.935	20189.56
450.141	19956.09
450.347	20332.92
450.553	19845.5
450.76	20267.38
450.966	20676.98
451.172	20543.86
451.378	21309.8
451.584	20760.94
451.791	21227.88
451.997	21178.73
452.203	21660
452.409	21766.49
452.615	21741.92
452.821	20791.66
453.027	20578.67
453.233	21799.26
453.44	20910.44
453.646	21021.03
453.852	21145.96
454.058	21621.09
454.264	21037.42
454.47	21344.61
454.676	20617.58
454.882	21340.52
455.088	19730.81
455.294	20359.54
455.5	20439.41
455.705	20564.34
455.911	19544.45
456.117	19276.16
456.323	19218.82
456.529	17891.74
456.735	18653.58
456.941	18504.08
457.147	17932.7
457.352	17582.49
457.558	17007.02
457.764	17240.48
457.97	17017.25
458.176	16644.52
458.381	16728.49
458.587	15698.36
458.793	15927.74
458.999	15045.06
459.204	16177.59
459.41	15655.36
459.616	14533.07
459.821	14758.35
460.027	14465.49
460.233	14088.66
460.438	13615.58
460.644	13838.81
460.85	13277.66
461.055	12909.03
461.261	12825.06
461.466	12335.6
461.672	11448.83
461.878	12388.85
462.083	11692.54
462.289	11397.63
462.494	11078.15
462.7	10777.09
462.905	10441.23
463.111	10846.73
463.316	10740.23
463.522	10680.84
463.727	10682.89
463.932	10633.74
464.138	10592.78
464.343	10455.56
464.549	10234.38
464.754	10922.5
464.959	10600.97
465.165	10383.88
465.37	9986.58
465.575	9718.29
465.781	10078.74
465.986	10265.1
466.191	9826.84
466.397	9556.5
466.602	9124.38
466.807	9456.15
467.012	9505.31
467.218	9529.88
467.423	9349.66
467.628	9486.87
467.833	9855.51
468.038	9603.61
468.244	9108
468.449	9581.08
468.654	9273.89
468.859	9124.38
469.064	9140.77
469.269	8874.53
469.474	8970.79
469.679	9030.18
469.885	8786.47
470.09	8849.96
470.295	8692.26
470.5	8360.49
470.705	8606.25
470.91	8536.62
471.115	8356.4
471.32	8544.81
471.525	8469.03
471.73	8180.27
471.935	8294.96
472.139	8233.52
472.344	7998
472.549	8172.08
472.754	8006.19
472.959	7889.46
473.164	7582.26
473.369	7420.47
473.574	7795.25
473.778	7686.71
473.983	7545.4
474.188	7694.9
474.393	7209.53
474.598	7365.18
474.802	7248.44
475.007	7383.61
475.212	7316.03
475.417	6873.67
475.621	6945.34
475.826	6941.25
476.031	6754.88
476.235	6730.31
476.44	6752.84
476.645	6441.54
476.849	6713.92
477.054	6545.99
477.259	6470.22
477.463	6443.59
477.668	6206.03
477.872	6431.3
478.077	6341.19
478.282	6038.09
478.486	6058.57
478.691	6038.09
478.895	6085.2
479.1	6021.71
479.304	5950.03
479.509	5892.69
479.713	5929.55
479.918	5866.07
480.122	5851.73
480.326	5990.99
480.531	5857.87
480.735	5677.65
480.94	5646.93
481.144	5741.14
481.348	5728.85
481.553	5618.26
481.757	5505.62
481.961	5726.8
482.166	5714.52
482.37	5763.67
482.574	5640.79
482.778	5712.47
482.983	5640.79
483.187	5739.09
483.391	5558.87
483.595	5569.11
483.8	5489.24
484.004	5528.15
484.208	5728.85
484.412	5612.12
484.616	5710.42
484.821	5769.81
485.025	5562.97
485.229	5605.97
485.433	5519.96
485.637	5681.75
485.841	5513.81
486.045	5616.21
486.249	5630.55
486.453	5491.29
486.657	5595.73
486.861	5651.03
487.065	5565.01
487.269	5575.25
487.473	5790.29
487.677	5657.17
487.881	5687.89
488.085	5749.33
488.289	5532.25
488.493	5737.04
488.697	5714.52
488.901	5696.08
489.105	5579.35
489.309	5581.4
489.512	5679.7
489.716	5747.28
489.92	5628.5
490.124	5773.91
490.328	5872.21
490.531	5687.89
490.735	5653.08
490.939	5933.65
491.143	5778
491.346	5765.71
491.55	5802.58
491.754	5892.69
491.958	6040.14
492.161	5859.92
492.365	6054.48
492.569	6009.42
492.772	5900.88
492.976	5993.04
493.18	5939.79
493.383	6179.4
493.587	6326.86
493.79	6363.72
493.994	6212.17
494.197	6296.14
494.401	6263.37
494.605	6261.32
494.808	6502.98
495.012	6347.34
495.215	6494.79
495.419	6619.72
495.622	6550.09
495.825	6582.85
496.029	6591.05
496.232	6851.14
496.436	6765.12
496.639	6949.44
496.843	7090.75
497.046	7035.46
497.249	7025.22
497.453	7060.03
497.656	7283.26
497.859	7201.34
498.063	7307.84
498.266	7350.84
498.469	7291.45
498.673	7395.9
498.876	7701.05
499.079	7813.68
499.282	7787.06
499.485	8116.78
499.689	7782.96
499.892	8235.56
500.095	8210.99
500.298	8432.17
500.501	8280.62
500.705	8462.89
500.908	8485.42
501.111	8536.62
501.314	8653.35
501.517	8809
501.72	9019.94
501.923	9011.75
502.126	9202.21
502.329	9382.43
502.532	9251.36
502.735	9445.91
502.938	9708.05
503.141	9738.77
503.344	9736.73
503.547	9900.56
503.75	10195.47
503.953	10220.05
504.156	10275.34
504.359	10504.71
504.562	10523.15
504.765	10607.11
504.968	10881.54
505.17	10951.17
505.373	10914.31
505.576	11145.73
505.779	11231.74
505.982	11418.11
506.185	11575.8
506.387	11477.5
506.59	11481.6
506.793	11768.31
506.996	12282.35
507.198	12448.24
507.401	12182
507.604	12364.27
507.807	12585.45
508.009	12851.69
508.212	12898.79
508.415	13107.68
508.617	13410.78
508.82	13322.72
509.022	13158.88
509.225	13670.87
509.428	13900.25
509.63	13928.92
509.833	13789.66
510.035	14100.95
510.238	14266.83
510.44	14592.46
510.643	14926.28
510.845	15022.53
511.048	14913.99
511.25	15026.63
511.453	15200.71
511.655	15962.55
511.858	15462.85
512.06	15679.93
512.262	15958.46
512.465	16005.56
512.667	16327.09
512.87	16386.48
513.072	16447.92
513.274	16951.72
513.477	16998.82
513.679	17086.89
513.881	17281.44
514.084	17314.21
514.286	17621.41
514.488	17512.86
514.69	18225.56
514.893	18112.92
515.095	18268.56
515.297	18540.94
515.499	18524.56
515.701	19036.55
515.904	19145.09
516.106	19212.68
516.308	19300.74
516.51	19560.83
516.712	19927.42
516.914	20142.46
517.116	20332.92
517.318	20308.34
517.52	20623.73
517.722	20791.66
517.925	21041.51
518.127	21043.56
518.329	21479.78
518.531	21064.04
518.733	21762.4
518.935	21838.17
519.136	21920.09
519.338	22356.31
519.54	22393.17
519.742	22784.33
519.944	22800.72
520.146	23046.47
520.348	23263.56
520.55	23169.35
520.752	23562.56
520.954	24248.63
521.155	23529.8
521.357	24271.16
521.559	24478.01
521.761	24664.37
521.963	24551.73
522.164	24703.28
522.366	24967.47
522.568	25518.37
522.77	25008.43
522.971	25588
523.173	25352.49
523.375	25895.2
523.576	25868.58
523.778	25805.09
523.98	26405.14
524.181	26315.03
524.383	26413.34
524.584	26747.15
524.786	27111.69
524.988	26833.17
525.189	27085.07
525.391	27234.57
525.592	27721.99
525.794	27648.26
525.995	27922.69
526.197	27764.99
526.398	27822.34
526.6	28039.42
526.801	28352.76
527.003	28496.12
527.204	28551.42
527.406	28598.52
527.607	28719.35
527.808	28801.27
528.01	28342.52
528.211	28483.83
528.412	28956.91
528.614	29098.22
528.815	29436.14
529.016	29575.4
529.218	29313.26
529.419	29376.75
529.62	29626.6
529.822	29319.4
530.023	29249.77
530.224	29812.96
530.425	29411.56
530.626	29411.56
530.828	29597.93
531.029	30320.86
531.23	29587.69
531.431	29464.81
531.632	29962.47
531.833	30077.15
532.035	29780.2
532.236	30046.43
532.437	30054.62
532.638	29886.69
532.839	30032.1
533.04	30456.03
533.241	30091.49
533.442	30566.62
533.643	30032.1
533.844	30314.72
534.045	30417.11
534.246	30028
534.447	30415.07
534.648	30103.78
534.849	30161.12
535.05	30183.65
535.251	30243.04
535.451	30359.77
535.652	30490.84
535.853	30021.86
536.054	30247.13
536.255	30388.44
536.456	30290.14
536.657	30423.26
536.857	30265.56
537.058	30128.35
537.259	30544.09
537.46	30570.71
537.66	30324.96
537.861	30374.11
538.062	30501.08
538.263	30427.35
538.463	30275.8
538.664	30005.47
538.865	30615.77
539.065	30539.99
539.266	30222.56
539.466	30992.59
539.667	29974.75
539.868	30765.27
540.068	30669.01
540.269	30392.54
540.469	30644.44
540.67	30421.21
540.87	30468.31
541.071	30284
541.271	30415.07
541.472	30449.88
541.672	30470.36
541.873	30206.17
542.073	29739.24
542.274	30675.16
542.474	30609.62
542.675	30240.99
542.875	30552.28
543.075	30429.4
543.276	29640.93
543.476	30736.6
543.676	30281.95
543.877	30679.25
544.077	30339.29
544.277	30036.19
544.478	30175.45
544.678	30601.43
544.878	30245.09
545.078	30331.1
545.279	30075.1
545.479	30097.63
545.679	30394.59
545.879	29948.13
546.079	30417.11
546.28	30206.17
546.48	30306.52
546.68	30378.2
546.88	30161.12
547.08	30157.02
547.28	30197.98
547.48	29950.18
547.68	29991.14
547.88	30032.1
548.081	30484.7
548.281	30128.35
548.481	30015.71
548.681	30267.61
548.881	30173.41
549.081	30470.36
549.28	30240.99
549.48	30386.39
549.68	30030.05
549.88	30793.94
550.08	29864.16
550.28	30105.82
550.48	30009.57
550.68	30204.13
550.88	29862.11
551.08	30001.38
551.279	30038.24
551.479	29835.49
551.679	29901.03
551.879	29737.19
552.079	29901.03
552.278	30240.99
552.478	30085.34
552.678	29997.28
552.878	30214.37
553.077	30171.36
553.277	29765.86
553.477	30329.05
553.676	29597.93
553.876	29640.93
554.076	29898.98
554.275	29941.99
554.475	29622.5
554.674	29991.14
554.874	29634.79
555.074	29518.06
555.273	29700.33
555.473	30081.25
555.672	29765.86
555.872	29565.16
556.071	29446.38
556.271	29886.69
556.47	29780.2
556.67	29495.53
556.869	29235.44
557.068	29628.65
557.268	29534.44
557.467	29319.4
557.667	29522.15
557.866	29419.75
558.065	29337.83
558.265	29331.69
558.464	29194.48
558.663	29436.14
558.863	28664.05
559.062	29493.48
559.261	28965.1
559.461	29257.96
559.66	28918
559.859	29108.46
560.058	28954.86
560.258	29225.2
560.457	28696.82
560.656	29061.36
560.855	28543.22
561.054	29098.22
561.253	28563.7
561.453	28829.94
561.652	28823.79
561.851	28823.79
562.05	28811.51
562.249	28735.73
562.448	28842.23
562.647	28750.07
562.846	28532.98
563.045	28631.29
563.244	28319.99
563.443	28739.83
563.642	28119.29
563.841	28242.17
564.04	28190.97
564.239	28489.98
564.438	28319.99
564.637	28283.13
564.836	28156.16
565.035	27791.62
565.234	27779.33
565.432	27775.23
565.631	27789.57
565.83	27752.71
566.029	27654.4
566.228	27449.61
566.427	27683.08
566.625	27824.39
566.824	27386.12
567.023	27521.29
567.222	27054.35
567.42	27519.24
567.619	27273.48
567.818	27207.95
568.016	27132.17
568.215	27203.85
568.414	27179.28
568.612	27277.58
568.811	27160.84
569.01	27207.95
569.208	26687.76
569.407	26923.28
569.605	26446.1
569.804	26806.55
570.002	26388.76
570.201	26851.6
570.4	26364.18
570.598	26296.6
570.797	26517.78
570.995	26298.65
571.193	26145.05
571.392	26399
571.59	26190.11
571.789	25925.92
571.987	25893.15
572.186	26147.1
572.384	25747.75
572.582	26005.79
572.781	25835.81
572.979	25688.35
573.177	25735.46
573.376	25628.96
573.574	25362.73
573.772	25651.49
573.971	25489.7
574.169	25352.49
574.367	25123.12
574.565	25297.19
574.763	25026.86
574.962	25243.95
575.16	25012.53
575.358	24942.89
575.556	24856.88
575.754	25135.4
575.952	24535.35
576.151	24664.37
576.349	24584.5
576.547	24617.27
576.745	24617.27
576.943	24475.96
577.141	24121.66
577.339	24449.33
577.537	24437.05
577.735	24217.91
577.933	24074.56
578.131	24029.5
578.329	24080.7
578.527	23759.17
578.725	23972.16
578.923	24092.99
579.121	23761.22
579.319	24021.31
579.516	23707.97
579.714	23699.78
579.912	23554.37
580.11	23187.78
580.308	23400.77
580.506	23327.05
580.704	23228.74
580.901	23236.94
581.099	23441.73
581.297	23140.68
581.495	22802.77
581.692	23114.06
581.89	22903.12
582.088	23128.39
582.285	22821.2
582.483	23091.53
582.681	22718.8
582.878	22565.2
583.076	22325.59
583.274	22651.22
583.471	22249.82
583.669	22169.94
583.866	22106.46
584.064	22550.87
584.262	21893.47
584.459	22337.88
584.657	21954.91
584.854	22286.68
585.052	21727.58
585.249	21973.34
585.447	21924.19
585.644	21715.3
585.841	21823.84
586.039	21793.12
586.236	21866.85
586.434	21586.27
586.631	21254.5
586.828	21438.82
587.026	21354.85
587.223	21426.53
587.42	21541.22
587.618	21246.31
587.815	21039.47
588.012	21246.31
588.21	21082.47
588.407	21008.75
588.604	20783.47
588.801	20709.74
588.999	20709.74
589.196	20695.41
589.393	20963.69
589.59	20861.29
589.787	20459.89
589.984	20439.41
590.182	20154.74
590.379	20359.54
590.576	20210.04
590.773	20289.91
590.97	20023.67
591.167	20078.97
591.364	20324.72
591.561	20324.72
591.758	19661.18
591.955	19927.42
592.152	20009.34
592.349	19708.29
592.546	19736.96
592.743	19855.74
592.94	19308.93
593.137	19620.22
593.334	19835.26
593.531	19642.75
593.727	19493.25
593.924	19253.64
594.121	19188.1
594.318	19265.92
594.515	19024.26
594.712	19194.25
594.908	18911.63
595.105	19274.12
595.302	18741.64
595.499	18942.35
595.696	19085.7
595.892	18979.21
596.089	19054.98
596.286	18729.36
596.482	18704.78
596.679	18813.32
596.876	18934.15
597.072	18557.33
597.269	18440.59
597.466	18352.53
597.662	18440.59
597.859	18231.7
598.055	18418.07
598.252	18172.31
598.448	18063.77
598.645	18088.34
598.841	17992.09
599.038	17906.07
599.234	17789.34
599.431	17920.41
599.627	17781.15
599.824	17963.42
600.02	17387.94
600.217	17555.87
600.413	17344.93
600.609	17654.17
600.806	17545.63
601.002	17564.06
601.198	17494.43
601.395	17162.66
601.591	17199.52
601.787	17174.95
601.984	17090.98
602.18	17215.91
602.376	16986.54
602.572	17047.97
602.769	16763.31
602.965	16873.9
603.161	16959.91
603.357	16843.18
603.553	16708.01
603.75	16921
603.946	16765.35
604.142	16734.64
604.338	16546.22
604.534	16941.48
604.73	16515.5
604.926	16331.19
605.122	16540.08
605.318	16144.82
605.514	16234.93
605.71	16183.73
605.906	16308.66
606.102	15997.37
606.298	16134.58
606.494	16144.82
606.69	16077.24
606.886	15962.55
607.082	15835.58
607.278	16036.28
607.474	15745.47
607.67	15702.46
607.866	15454.65
608.062	15864.25
608.257	15536.57
608.453	15634.88
608.649	15565.25
608.845	15524.29
609.041	15630.78
609.236	15487.42
609.432	15245.76
609.628	15364.54
609.824	15559.1
610.019	15315.39
610.215	15288.77
610.411	15401.41
610.606	15077.83
610.802	15172.04
610.998	15028.68
611.193	15208.9
611.389	15036.87
611.584	14975.43
611.78	14762.44
611.976	15045.06
612.171	15137.22
612.367	14993.86
612.562	14813.64
612.758	14909.9
612.953	14557.64
613.149	15043.01
613.344	14893.51
613.539	15022.53
613.735	14694.86
613.93	14903.75
614.126	14641.61
614.321	14698.95
614.517	14537.16
614.712	14490.06
614.907	14582.22
615.103	14701
615.298	14422.48
615.493	14748.11
615.688	14244.31
615.884	14533.07
616.079	14354.9
616.274	14410.19
616.47	14434.77
616.665	14127.57
616.86	14115.28
617.055	14115.28
617.25	13955.54
617.445	14148.05
617.641	13773.27
617.836	13978.07
618.031	13980.12
618.226	13961.69
618.421	13926.87
618.616	14029.27
618.811	13554.14
619.006	13883.86
619.201	13701.59
619.396	13709.79
619.591	13378.01
619.786	13586.91
619.981	13398.49
620.176	13554.14
620.371	13343.2
620.566	13394.4
620.761	13437.41
620.956	13416.93
621.151	13085.15
621.346	13294.05
621.541	12980.71
621.735	13097.44
621.93	13044.2
622.125	12880.36
622.32	12489.2
622.515	12653.03
622.709	12626.41
622.904	12630.51
623.099	12476.91
623.294	12272.11
623.488	12321.26
623.683	12374.51
623.878	12055.03
624.072	12397.04
624.267	12222.96
624.462	12399.09
624.656	11977.2
624.851	12044.79
625.046	12114.42
625.24	11739.64
625.435	11790.84
625.629	11903.48
625.824	11880.95
626.018	11526.65
626.213	11342.33
626.407	11596.28
626.602	11557.37
626.796	11430.4
626.991	11375.1
627.185	11424.25
627.38	11088.39
627.574	11018.75
627.768	10969.6
627.963	11135.49
628.157	10856.97
628.352	10998.27
628.546	10736.13
628.74	10781.19
628.935	10551.82
629.129	10482.19
629.323	10519.05
629.517	10392.08
629.712	10537.48
629.906	10332.68
630.1	10394.12
630.294	10252.81
630.489	10328.59
630.683	10238.48
630.877	10316.3
631.071	10117.65
631.265	10013.2
631.459	10017.3
631.653	9828.88
631.848	9980.43
632.042	9767.45
632.236	9927.19
632.43	9828.88
632.624	9716.25
632.818	9544.22
633.012	9663
633.206	9554.46
633.4	9452.06
633.594	9284.12
633.788	9437.72
633.982	9482.78
634.176	9390.62
634.369	9394.72
634.563	9468.44
634.757	9200.16
634.951	9345.56
635.145	9093.66
635.339	9054.75
635.533	8987.17
635.726	8981.03
635.92	8956.45
636.114	9171.49
636.308	8895.01
636.501	8606.25
636.695	8796.71
636.889	8653.35
637.083	8481.32
637.276	8737.32
637.47	8409.64
637.664	8421.93
637.857	8614.44
638.051	8489.51
638.244	8362.54
638.438	8247.85
638.632	8167.98
638.825	8106.54
639.019	8221.23
639.212	8143.41
639.406	8079.92
639.599	8213.04
639.793	8143.41
639.986	7815.73
640.18	7825.97
640.373	7887.41
640.567	7725.62
640.76	7961.14
640.954	7744.05
641.147	7608.89
641.34	7647.8
641.534	7684.66
641.727	7737.91
641.92	7723.57
642.114	7600.69
642.307	7567.93
642.5	7369.27
642.694	7256.64
642.887	7338.55
643.08	7211.58
643.273	7127.61
643.467	7215.68
643.66	7144
643.853	6910.53
644.046	7012.93
644.239	7156.29
644.432	6888
644.626	6885.95
644.819	6926.91
645.012	7031.36
645.205	6844.99
645.398	6842.95
645.591	6752.84
645.784	6572.61
645.977	6799.94
646.17	6629.96
646.363	6560.33
646.556	6566.47
646.749	6511.18
646.942	6476.36
647.135	6492.74
647.328	6552.13
647.521	6486.6
647.714	6279.75
647.907	6271.56
648.099	6306.38
648.292	6261.32
648.485	6072.91
648.678	6079.05
648.871	6052.43
649.064	6124.11
649.256	5974.61
649.449	5988.94
649.642	6103.63
649.835	5988.94
650.027	5884.5
650.22	5892.69
650.413	5810.77
650.605	5737.04
650.798	5839.44
650.991	5796.43
651.183	5661.27
651.376	5671.51
651.568	5605.97
651.761	5706.32
651.954	5620.31
652.146	5503.57
652.339	5743.19
652.531	5554.77
652.724	5528.15
652.916	5313.11
653.109	5362.26
653.301	5298.78
653.494	5335.64
653.686	5298.78
653.879	5210.72
654.071	5423.7
654.263	5173.85
654.456	5122.65
654.648	5167.71
654.84	5098.08
655.033	5010.01
655.225	5128.8
655.417	5098.08
655.61	4975.2
655.802	4967.01
655.994	4940.38
656.186	4993.63
656.379	4893.28
656.571	4946.53
656.763	4905.57
656.955	4754.02
657.148	4674.15
657.34	4735.59
657.532	4784.74
657.724	4790.88
657.916	4801.12
658.108	4768.35
658.3	4590.18
658.492	4674.15
658.684	4694.63
658.876	4432.49
659.068	4489.83
659.26	4366.95
659.452	4629.09
659.644	4600.42
659.836	4375.14
660.028	4371.05
660.22	4444.77
660.412	4395.62
660.604	4579.94
660.796	4330.09
660.988	4379.24
661.18	4180.59
661.372	4137.58
661.563	4369
661.755	4164.2
661.947	4215.4
662.139	4325.99
662.331	4178.54
662.522	4162.16
662.714	4063.85
662.906	4188.78
663.097	4047.47
663.289	4084.33
663.481	3838.58
663.673	4022.89
663.864	3945.07
664.056	3916.4
664.247	3928.69
664.439	3844.72
664.631	3967.6
664.822	3897.97
665.014	3836.53
665.205	3717.75
665.397	3656.31
665.588	3746.42
665.78	3711.6
665.971	3754.61
666.163	3732.08
666.354	3590.77
666.546	3588.72
666.737	3662.45
666.929	3603.06
667.12	3596.92
667.311	3480.18
667.503	3553.91
667.694	3678.83
667.885	3644.02
668.077	3621.49
668.268	3605.11
668.459	3422.84
668.651	3441.27
668.842	3322.49
669.033	3256.95
669.224	3318.39
669.416	3400.31
669.607	3418.74
669.798	3369.59
669.989	3406.45
670.18	3314.3
670.371	3254.9
670.563	3379.83
670.754	3353.21
670.945	3205.75
671.136	3191.42
671.327	3148.41
671.518	3220.09
671.709	3269.24
671.9	3306.1
672.091	3211.9
672.282	3172.99
672.473	3205.75
672.664	3123.84
672.855	3138.17
673.046	3175.03
673.237	3162.75
673.428	3132.03
673.619	3203.71
673.809	3072.64
674	3023.48
674.191	3187.32
674.382	3003
674.573	2931.33
674.764	3019.39
674.954	3017.34
675.145	2914.94
675.336	3056.25
675.527	2996.86
675.717	2960
675.908	2980.48
676.099	2998.91
676.289	3060.35
676.48	2937.47
676.671	3015.29
676.861	2826.88
677.052	2990.72
677.243	2982.53
677.433	2925.18
677.624	2818.69
677.814	2925.18
678.005	2867.84
678.195	2843.26
678.386	2876.03
678.576	2861.69
678.767	2773.63
678.957	2796.16
679.148	2663.04
679.338	2794.11
679.529	2830.98
679.719	2835.07
679.909	2796.16
680.1	2869.89
680.29	2728.58
680.481	2771.58
680.671	2896.51
680.861	2652.8
681.052	2712.19
681.242	2595.46
681.432	2826.88
681.622	2810.5
681.813	2687.62
682.003	2679.43
682.193	2847.36
682.383	2744.96
682.573	2675.33
682.764	2749.06
682.954	2689.67
683.144	2677.38
683.334	2648.71
683.524	2751.1
683.714	2701.95
683.904	2697.86
684.094	2728.58
684.284	2753.15
684.474	2640.51
684.664	2728.58
684.854	2671.23
685.044	2693.76
685.234	2740.86
685.424	2650.75
685.614	2646.66
685.804	2704
685.994	2540.16
686.184	2658.95
686.374	2701.95
686.564	2546.31
686.753	2638.47
686.943	2597.51
687.133	2697.86
687.323	2660.99
687.513	2603.65
687.702	2665.09
687.892	2550.4
688.082	2642.56
688.272	2638.47
688.461	2589.32
688.651	2493.06
688.841	2544.26
689.03	2486.92
689.22	2503.3
689.41	2523.78
689.599	2482.82
689.789	2517.64
689.979	2411.14
690.168	2443.91
690.358	2462.34
690.547	2415.24
690.737	2540.16
690.926	2427.53
691.116	2454.15
691.305	2400.9
691.495	2448.01
691.684	2398.85
691.874	2409.09
692.063	2343.56
692.252	2400.9
692.442	2402.95
692.631	2423.43
692.82	2257.54
693.01	2503.3
693.199	2384.52
693.388	2372.23
693.578	2329.22
693.767	2343.56
693.956	2321.03
694.146	2345.61
694.335	2245.26
694.524	2370.18
694.713	2318.98
694.902	2337.41
695.092	2327.18
695.281	2384.52
695.47	2237.06
695.659	2351.75
695.848	2335.37
696.037	2341.51
696.226	2196.11
696.415	2247.3
696.604	2181.77
696.793	2263.69
696.982	2224.78
697.171	2239.11
697.36	2210.44
697.549	2306.7
697.738	2278.02
697.927	2329.22
698.116	2210.44
698.305	2167.43
698.494	2183.82
698.683	2278.02
698.872	2151.05
699.061	2230.92
699.25	2183.82
699.438	2292.36
699.627	2163.34
699.816	2304.65
700.005	2138.76
700.193	2138.76
700.382	2116.23
700.571	2161.29
700.76	2134.67
700.948	2171.53
701.137	2126.47
701.326	2171.53
701.514	2271.88
701.703	2060.94
701.892	2058.89
702.08	2245.26
702.269	2065.04
702.457	1999.5
702.646	2112.14
702.834	2017.93
703.023	2130.57
703.212	2065.04
703.4	2181.77
703.589	2083.47
703.777	2108.04
703.965	2134.67
704.154	2114.19
704.342	2153.1
704.531	2142.86
704.719	1983.12
704.907	2116.23
705.096	1909.39
705.284	2069.13
705.472	1962.64
705.661	1999.5
705.849	2132.62
706.037	1997.45
706.226	2110.09
706.414	1942.16
706.602	1917.58
706.79	1993.36
706.979	2058.89
707.167	2001.55
707.355	1987.21
707.543	1856.14
707.731	2069.13
707.919	2022.03
708.107	2126.47
708.296	1876.62
708.484	1843.85
708.672	2042.51
708.86	1995.4
709.048	2034.32
709.236	1911.44
709.424	1956.49
709.612	1938.06
709.8	2009.74
709.988	1886.86
710.176	1841.81
710.364	2032.27
710.551	1866.38
710.739	1962.64
710.927	1956.49
711.115	1843.85
711.303	1950.35
711.491	1954.44
711.679	1831.57
711.866	1950.35
712.054	1829.52
712.242	1774.22
712.43	1870.48
712.617	1821.33
712.805	1890.96
712.993	1901.2
713.181	1917.58
713.368	1956.49
713.556	1745.55
713.744	1852.05
713.931	1718.93
714.119	1837.71
714.306	1837.71
714.494	1794.7
714.682	1755.79
714.869	1743.5
715.057	1788.56
715.244	1829.52
715.432	1714.83
715.619	1917.58
715.807	1757.84
715.994	1776.27
716.182	1796.75
716.369	1776.27
716.556	1788.56
716.744	1723.02
716.931	1733.26
717.119	1809.04
717.306	1825.42
717.493	1704.59
717.681	1657.49
717.868	1741.46
718.055	1704.59
718.242	1782.42
718.43	1704.59
718.617	1655.44
718.804	1723.02
718.991	1557.14
719.179	1559.19
719.366	1647.25
719.553	1686.16
719.74	1626.77
719.927	1604.24
720.114	1723.02
720.301	1772.18
720.488	1530.52
720.676	1575.57
720.863	1698.45
721.05	1690.26
721.237	1585.81
721.424	1626.77
721.611	1684.11
721.798	1651.35
721.985	1686.16
722.172	1616.53
722.358	1518.23
722.545	1563.28
722.732	1522.32
722.919	1587.86
723.106	1577.62
723.293	1647.25
723.48	1501.84
723.667	1569.43
723.853	1583.76
724.04	1596.05
724.227	1546.9
724.414	1675.92
724.6	1571.47
724.787	1538.71
724.974	1639.06
725.161	1544.85
725.347	1473.17
725.534	1540.76
725.72	1489.56
725.907	1516.18
726.094	1581.71
726.28	1485.46
726.467	1530.52
726.653	1624.72
726.84	1405.59
727.027	1487.51
727.213	1534.61
727.4	1507.99
727.586	1622.67
727.773	1491.6
727.959	1536.66
728.145	1495.7
728.332	1450.64
728.518	1548.95
728.705	1534.61
728.891	1378.97
729.077	1385.11
729.264	1483.41
729.45	1493.65
729.636	1512.08
729.823	1548.95
730.009	1448.6
730.195	1471.12
730.382	1395.35
730.568	1520.28
730.754	1518.23
730.94	1546.9
731.126	1464.98
731.313	1436.31
731.499	1557.14
731.685	1454.74
731.871	1366.68
732.057	1446.55
732.243	1436.31
732.429	1462.93
732.615	1454.74
732.801	1446.55
732.987	1397.4
733.173	1446.55
733.359	1301.14
733.545	1444.5
733.731	1391.25
733.917	1401.49
734.103	1403.54
734.289	1514.13
734.475	1421.97
734.661	1356.44
734.847	1458.84
735.033	1413.78
735.219	1503.89
735.404	1450.64
735.59	1467.03
735.776	1387.16
735.962	1421.97
736.148	1456.79
736.333	1299.09
736.519	1292.95
736.705	1307.29
736.89	1374.87
737.076	1409.69
737.262	1368.73
737.447	1393.3
737.633	1348.25
737.819	1352.34
738.004	1434.26
738.19	1383.06
738.375	1319.57
738.561	1378.97
738.747	1387.16
738.932	1325.72
739.118	1417.88
739.303	1372.82
739.489	1280.66
739.674	1295
739.859	1311.38
740.045	1272.47
740.23	1284.76
740.416	1311.38
740.601	1254.04
740.786	1268.38
740.972	1305.24
741.157	1247.9
741.342	1335.96
741.528	1147.55
741.713	1323.67
741.898	1260.18
742.084	1159.83
742.269	1315.48
742.454	1223.32
742.639	1165.98
742.824	1247.9
743.01	1243.8
743.195	1221.27
743.38	1182.36
743.565	1165.98
743.75	1229.46
743.935	1196.7
744.12	1141.4
744.305	1215.13
744.49	1139.35
744.675	1143.45
744.86	1120.92
745.045	1110.68
745.23	1153.69
745.415	1192.6
745.6	1106.59
745.785	1110.68
745.97	1198.74
746.155	1190.55
746.34	1084.06
746.525	1157.78
746.71	1165.98
746.895	1151.64
747.079	1168.02
747.264	1047.19
747.449	1098.39
747.634	1168.02
747.819	1092.25
748.003	1088.15
748.188	1106.59
748.373	1094.3
748.557	1118.87
748.742	1010.33
748.927	1000.09
749.111	1002.14
749.296	1002.14
749.481	1026.71
749.665	930.46
749.85	1094.3
750.034	920.22
750.219	989.85
750.404	1088.15
750.588	1010.33
750.773	985.76
750.957	977.56
751.141	895.64
751.326	942.75
751.51	942.75
751.695	959.13
751.879	942.75
752.064	991.9
752.248	1016.48
752.432	922.27
752.617	823.97
752.801	955.04
752.985	942.75
753.17	887.45
753.354	996
753.538	885.41
753.722	883.36
753.907	905.88
754.091	832.16
754.275	860.83
754.459	903.84
754.643	766.62
754.828	842.4
755.012	832.16
755.196	846.49
755.38	813.73
755.564	778.91
755.748	885.41
755.932	785.05
756.116	791.2
756.3	780.96
756.484	821.92
756.668	760.48
756.852	864.93
757.036	717.47
757.22	869.02
757.404	701.09
757.588	707.23
757.772	631.46
757.956	811.68
758.14	836.25
758.323	754.34
758.507	750.24
758.691	748.19
758.875	688.8
759.059	709.28
759.242	705.18
759.426	744.1
759.61	750.24
759.794	770.72
759.977	688.8
760.161	664.22
760.345	742.05
760.528	715.42
760.712	647.84
760.895	676.51
761.079	719.52
761.263	600.74
761.446	637.6
761.63	680.61
761.813	672.42
761.997	670.37
762.18	672.42
762.364	690.85
762.547	590.5
762.731	621.22
762.914	594.59
763.098	690.85
763.281	662.18
763.464	645.79
763.648	676.51
763.831	658.08
764.015	690.85
764.198	637.6
764.381	656.03
764.564	676.51
764.748	615.07
764.931	610.98
765.114	613.03
765.297	680.61
765.481	582.31
765.664	592.55
765.847	610.98
766.03	637.6
766.213	627.36
766.397	567.97
766.58	578.21
766.763	610.98
766.946	658.08
767.129	600.74
767.312	572.07
767.495	606.88
767.678	522.91
767.861	574.11
768.044	533.15
768.227	590.5
768.41	629.41
768.593	547.49
768.776	580.26
768.959	582.31
769.142	608.93
769.324	627.36
769.507	606.88
769.69	590.5
769.873	567.97
770.056	580.26
770.239	633.5
770.421	658.08
770.604	537.25
770.787	533.15
770.97	555.68
771.152	555.68
771.335	465.57
771.518	512.67
771.7	539.3
771.883	484
772.066	574.11
772.248	551.59
772.431	508.58
772.613	535.2
772.796	502.43
772.978	486.05
773.161	510.63
773.343	494.24
773.526	455.33
773.708	488.1
773.891	481.96
774.073	512.67
774.256	451.24
774.438	549.54
774.621	377.51
774.803	524.96
774.985	502.43
775.168	400.04
775.35	494.24
775.532	506.53
775.715	510.63
775.897	467.62
776.079	490.15
776.261	469.67
776.444	451.24
776.626	570.02
776.808	498.34
776.99	477.86
777.173	459.43
777.355	381.6
777.537	443.04
777.719	441
777.901	418.47
778.083	469.67
778.265	402.08
778.447	488.1
778.629	426.66
778.811	408.23
778.993	416.42
779.175	443.04
779.357	406.18
779.539	328.36
779.721	350.89
779.903	404.13
780.085	389.8
780.267	334.5
780.449	471.72
780.631	434.85
780.812	346.79
780.994	359.08
781.176	318.12
781.358	330.41
781.54	434.85
781.721	389.8
781.903	393.89
782.085	314.02
782.267	340.65
782.448	363.17
782.63	318.12
782.812	363.17
782.993	273.06
783.175	322.21
783.357	287.4
783.538	328.36
783.72	318.12
783.901	318.12
784.083	262.82
784.264	348.84
784.446	295.59
784.627	279.21
784.809	293.54
784.99	314.02
785.172	316.07
785.353	387.75
785.535	365.22
785.716	328.36
785.897	252.58
786.079	318.12
786.26	258.73
786.441	260.77
786.623	287.4
786.804	281.25
786.985	219.82
787.167	279.21
787.348	199.34
787.529	250.53
787.71	256.68
787.891	264.87
788.073	223.91
788.254	215.72
788.435	287.4
788.616	260.77
788.797	295.59
788.978	213.67
789.159	219.82
789.34	320.17
789.522	240.29
789.703	264.87
789.884	256.68
790.065	252.58
790.246	277.16
790.427	262.82
790.607	203.43
790.788	236.2
790.969	209.58
791.15	273.06
791.331	225.96
791.512	258.73
791.693	228.01
791.874	207.53
792.054	221.86
792.235	225.96
792.416	238.25
792.597	217.77
792.778	160.42
792.958	277.16
793.139	178.86
793.32	244.39
793.5	221.86
793.681	207.53
793.862	207.53
794.042	266.92
794.223	209.58
794.404	187.05
794.584	160.42
794.765	213.67
794.945	148.14
795.126	250.53
795.306	154.28
795.487	191.14
795.667	217.77
795.848	232.1
796.028	244.39
796.209	164.52
796.389	152.23
796.57	197.29
796.75	150.18
796.93	168.62
797.111	154.28
797.291	199.34
797.471	203.43
797.652	191.14
797.832	197.29
798.012	213.67
798.192	90.79
798.373	219.82
798.553	127.66
798.733	199.34
798.913	189.1
799.093	98.99
799.274	156.33
799.454	246.44
799.634	217.77
799.814	139.94
799.994	168.62
800.174	172.71
800.354	203.43
800.534	250.53
800.714	82.6
800.894	185
801.074	221.86
801.254	137.9
801.434	168.62
801.614	182.95
801.794	135.85
801.974	383.65
802.154	197.29
802.334	150.18
802.514	105.13
802.693	154.28
802.873	189.1
803.053	144.04
803.233	135.85
803.413	168.62
803.592	174.76
803.772	135.85
803.952	160.42
804.131	209.58
804.311	125.61
804.491	197.29
804.67	127.66
804.85	205.48
805.03	121.51
805.209	115.37
805.389	172.71
805.568	156.33
805.748	135.85
805.928	199.34
806.107	139.94
806.287	123.56
806.466	123.56
806.646	74.41
806.825	109.22
807.004	205.48
807.184	139.94
807.363	164.52
807.543	121.51
807.722	178.86
807.901	125.61
808.081	176.81
808.26	107.18
808.439	84.65
808.619	135.85
808.798	127.66
808.977	158.38
809.156	115.37
809.336	127.66
809.515	68.27
809.694	137.9
809.873	146.09
810.052	98.99
810.231	135.85
810.411	31.4
810.59	191.14
810.769	133.8
810.948	119.46
811.127	72.36
811.306	103.08
811.485	119.46
811.664	185
811.843	141.99
812.022	139.94
812.201	78.51
812.38	131.75
812.559	119.46
812.737	187.05
812.916	58.03
813.095	101.03
813.274	64.17
813.453	123.56
813.632	111.27
813.811	156.33
813.989	103.08
814.168	76.46
814.347	125.61
814.526	101.03
814.704	131.75
814.883	144.04
815.062	76.46
815.24	101.03
815.419	125.61
815.598	98.99
815.776	92.84
815.955	78.51
816.133	94.89
816.312	137.9
816.49	115.37
816.669	133.8
816.847	27.31
817.026	189.1
817.204	76.46
817.383	23.21
817.561	90.79
817.74	109.22
817.918	92.84
818.097	62.12
818.275	72.36
818.453	45.74
818.632	72.36
818.81	131.75
818.988	98.99
819.167	51.88
819.345	121.51
819.523	86.7
819.701	66.22
819.879	49.83
820.058	123.56
820.236	111.27
820.414	51.88
820.592	25.26
820.77	88.75
820.948	84.65
821.127	72.36
821.305	12.97
821.483	117.42
821.661	131.75
821.839	86.7
822.017	82.6
822.195	131.75
822.373	121.51
822.551	55.98
822.729	137.9
822.907	76.46
823.085	98.99
823.262	41.64
823.44	49.83
823.618	80.55
823.796	72.36
823.974	117.42
824.152	53.93
824.329	35.5
824.507	115.37
824.685	45.74
824.863	103.08
825.04	25.26
825.218	139.94
825.396	70.31
825.574	86.7
825.751	58.03
825.929	10.92
826.107	45.74
826.284	74.41
826.462	150.18
826.639	90.79
826.817	70.31
826.994	66.22
827.172	29.35
827.349	98.99
827.527	53.93
827.704	49.83
827.882	51.88
828.059	86.7
828.237	45.74
828.414	82.6
828.591	-1.37
828.769	84.65
828.946	58.03
829.124	101.03
829.301	70.31
829.478	92.84
829.655	43.69
829.833	60.07
830.01	35.5
830.187	82.6
830.364	33.45
830.542	109.22
830.719	66.22
830.896	64.17
831.073	72.36
831.25	84.65
831.427	29.35
831.604	121.51
831.782	84.65
831.959	74.41
832.136	113.32
832.313	148.14
832.49	49.83
832.667	17.07
832.844	-11.61
833.021	43.69
833.198	37.55
833.374	92.84
833.551	47.79
833.728	70.31
833.905	0.68
834.082	76.46
834.259	37.55
834.436	31.4
834.612	39.59
834.789	-50.52
834.966	12.97
835.143	76.46
835.319	2.73
835.496	29.35
835.673	49.83
835.85	21.16
836.026	-21.85
836.203	74.41
836.38	-32.08
836.556	60.07
836.733	70.31
836.909	35.5
837.086	27.31
837.262	68.27
837.439	94.89
837.616	68.27
837.792	70.31
837.968	19.11
838.145	-46.42
838.321	64.17
838.498	-23.89
838.674	55.98
838.851	68.27
839.027	64.17
839.203	0.68
839.38	2.73
839.556	23.21
839.732	78.51
839.909	80.55
840.085	21.16
840.261	64.17
840.437	19.11
840.614	53.93
840.79	-17.75
840.966	8.87
841.142	62.12
841.318	-19.8
841.494	33.45
841.671	117.42
841.847	66.22
842.023	58.03
842.199	33.45
842.375	53.93
842.551	92.84
842.727	92.84
842.903	64.17
843.079	-25.94
843.255	-11.61
843.431	-40.28
843.607	92.84
843.783	25.26
843.959	84.65
844.134	82.6
844.31	62.12
844.486	10.92
844.662	29.35
844.838	49.83
845.013	43.69
845.189	119.46
845.365	35.5
845.541	21.16
845.716	82.6
845.892	12.97
846.068	119.46
846.244	6.83
846.419	90.79
846.595	27.31
846.77	-32.08
846.946	-40.28
847.122	-15.7
847.297	33.45
847.473	33.45
847.648	-17.75
847.824	-13.65
847.999	45.74
848.175	76.46
848.35	92.84
848.526	33.45
848.701	58.03
848.876	92.84
849.052	10.92
849.227	68.27
849.403	-95.57
849.578	90.79
849.753	78.51
849.929	53.93
850.104	58.03
850.279	15.02
850.454	-36.18
850.63	70.31
850.805	43.69
850.98	70.31
851.155	45.74
851.33	62.12
851.505	45.74
851.681	-13.65
851.856	35.5
852.031	12.97
852.206	-54.61
852.381	35.5
852.556	35.5
852.731	121.51
852.906	-46.42
853.081	-15.7
853.256	4.78
853.431	76.46
853.606	-3.41
853.781	29.35
853.956	49.83
854.131	68.27
854.305	23.21
854.48	10.92
854.655	55.98
854.83	78.51
855.005	-15.7
855.18	53.93
855.354	12.97
855.529	-9.56
855.704	-68.95
855.879	72.36
856.053	53.93
856.228	-9.56
856.403	41.64
856.577	55.98
856.752	-23.89
856.926	31.4
857.101	6.83
857.276	21.16
857.45	12.97
857.625	88.75
857.799	-21.85
857.974	-52.56
858.148	-7.51
858.323	25.26
858.497	31.4
858.672	-9.56
858.846	29.35
859.02	-3.41
859.195	23.21
859.369	62.12
859.543	-19.8
859.718	-1.37
859.892	82.6
860.066	78.51
860.241	2.73
860.415	62.12
860.589	-9.56
860.763	19.11
860.938	8.87
861.112	29.35
861.286	-3.41
861.46	39.59
861.634	103.08
861.808	94.89
861.982	-15.7
862.157	17.07
862.331	25.26
862.505	8.87
862.679	10.92
862.853	-27.99
863.027	62.12
863.201	60.07
863.375	35.5
863.549	109.22
863.722	41.64
863.896	49.83
864.07	-3.41
864.244	33.45
864.418	-27.99
864.592	-7.51
864.766	53.93
864.939	2.73
865.113	8.87
865.287	17.07
865.461	82.6
865.634	25.26
865.808	35.5
865.982	15.02
866.156	49.83
866.329	-34.13
866.503	58.03
866.676	47.79
866.85	0.68
867.024	35.5
867.197	23.21
867.371	10.92
867.544	-21.85
867.718	-42.32
867.891	72.36
868.065	33.45
868.238	-5.46
868.412	-11.61
868.585	35.5
868.759	6.83
868.932	35.5
869.105	-3.41
869.279	88.75
869.452	10.92
869.625	60.07
869.799	31.4
869.972	31.4
870.145	-79.19
870.319	35.5
870.492	-19.8
870.665	8.87
870.838	-13.65
871.011	70.31
871.185	51.88
871.358	-3.41
871.531	-1.37
871.704	-32.08
871.877	58.03
872.05	76.46
872.223	82.6
872.396	31.4
872.569	23.21
872.742	-30.04
872.915	64.17
873.088	-23.89
873.261	68.27
873.434	60.07
873.607	2.73
873.78	-15.7
873.953	25.26
874.126	86.7
874.299	62.12
874.471	-52.56
874.644	78.51
874.817	23.21
874.99	4.78
875.163	6.83
875.335	39.59
875.508	55.98
875.681	12.97
875.853	37.55
876.026	-48.47
876.199	-5.46
876.371	62.12
876.544	94.89
876.717	31.4
876.889	0.68
877.062	27.31
877.234	41.64
877.407	80.55
877.579	-58.71
877.752	-3.41
877.924	47.79
878.097	19.11
878.269	68.27
878.442	12.97
878.614	23.21
878.786	35.5
878.959	-25.94
879.131	15.02
879.303	19.11
879.476	2.73
879.648	4.78
879.82	37.55
879.993	-7.51
880.165	0.68
880.337	41.64
880.509	23.21
880.681	31.4
880.854	19.11
881.026	-21.85
881.198	25.26
881.37	-23.89
881.542	29.35
881.714	-30.04
881.886	115.37
882.058	55.98
882.23	-56.66
882.402	-3.41
882.574	-36.18
882.746	-15.7
882.918	25.26
883.09	39.59
883.262	51.88
883.434	49.83
883.606	17.07
883.778	4.78
883.95	90.79
884.122	0.68
884.293	15.02
884.465	51.88
884.637	10.92
884.809	-23.89
884.98	58.03
885.152	35.5
885.324	49.83
885.496	-21.85
885.667	17.07
885.839	64.17
886.011	-23.89
886.182	8.87
886.354	33.45
886.525	12.97
886.697	68.27
886.869	-13.65
887.04	-71
887.212	19.11
887.383	41.64
887.555	-1.37
887.726	-17.75
887.897	55.98
888.069	19.11
888.24	-54.61
888.412	62.12
888.583	31.4
888.754	19.11
888.926	-36.18
889.097	21.16
889.268	-79.19
889.44	0.68
889.611	25.26
889.782	4.78
889.953	-30.04
890.125	-19.8
890.296	-25.94
890.467	82.6
890.638	-44.37
890.809	53.93
890.98	19.11
891.151	12.97
891.323	43.69
891.494	68.27
891.665	53.93
891.836	8.87
892.007	-64.85
892.178	-52.56
892.349	19.11
892.52	15.02
892.691	19.11
892.862	25.26
893.032	-50.52
893.203	-3.41
893.374	27.31
893.545	41.64
893.716	-5.46
893.887	-116.05
894.057	35.5
894.228	-62.8
894.399	-11.61
894.57	41.64
894.74	-42.32
894.911	94.89
895.082	-25.94
895.253	-15.7
895.423	6.83
895.594	8.87
895.764	-21.85
895.935	33.45
896.106	33.45
896.276	4.78
896.447	17.07
896.617	43.69
896.788	-25.94
896.958	-5.46
897.129	-7.51
897.299	-1.37
897.47	29.35
897.64	55.98
897.81	58.03
897.981	-25.94
898.151	-42.32
898.322	25.26
898.492	0.68
898.662	25.26
898.832	-7.51
899.003	6.83
899.173	-7.51
899.343	25.26
899.513	-48.47
