Data from USB4F104151__8__12-58-27-000.txt Node

Date: Fri Mar 14 12:58:27 EDT 2025
User: louis
Spectrometer: USB4F10415
Trigger mode: 4
Integration Time (sec): 1.000000E-2
Scans to average: 1
Electric dark correction enabled: true
Nonlinearity correction enabled: false
Boxcar width: 0
XAxis mode: Wavelengths
Number of Pixels in Spectrum: 3648
>>>>>Begin Spectral Data<<<<<
178.204	-54.61
178.424	-54.61
178.644	-54.61
178.864	2.73
179.084	-56.66
179.304	-38.23
179.524	127.66
179.744	62.12
179.964	-36.18
180.184	-40.28
180.404	-5.46
180.624	33.45
180.844	-17.75
181.064	4.78
181.283	2.73
181.503	-62.8
181.723	-30.04
181.943	-95.57
182.163	88.75
182.383	23.21
182.602	78.51
182.822	53.93
183.042	21.16
183.262	47.79
183.482	4.78
183.701	70.31
183.921	6.83
184.141	43.69
184.361	45.74
184.58	23.21
184.8	-19.8
185.02	-7.51
185.239	-9.56
185.459	-3.41
185.679	41.64
185.898	-50.52
186.118	72.36
186.338	27.31
186.557	86.7
186.777	60.07
186.997	29.35
187.216	-3.41
187.436	53.93
187.655	8.87
187.875	82.6
188.095	15.02
188.314	55.98
188.534	19.11
188.753	64.17
188.973	-56.66
189.192	94.89
189.412	21.16
189.631	70.31
189.851	-21.85
190.07	27.31
190.29	4.78
190.509	8.87
190.729	-5.46
190.948	33.45
191.168	27.31
191.387	31.4
191.607	146.09
191.826	49.83
192.045	31.4
192.265	72.36
192.484	0.68
192.704	-21.85
192.923	43.69
193.142	45.74
193.362	39.59
193.581	29.35
193.8	33.45
194.02	23.21
194.239	-7.51
194.458	-36.18
194.678	2.73
194.897	41.64
195.116	41.64
195.335	0.68
195.555	8.87
195.774	31.4
195.993	41.64
196.212	64.17
196.432	21.16
196.651	43.69
196.87	-60.76
197.089	53.93
197.308	27.31
197.528	21.16
197.747	49.83
197.966	39.59
198.185	39.59
198.404	107.18
198.623	21.16
198.842	27.31
199.062	45.74
199.281	64.17
199.5	-36.18
199.719	-3.41
199.938	53.93
200.157	51.88
200.376	49.83
200.595	17.07
200.814	-11.61
201.033	-83.28
201.252	19.11
201.471	8.87
201.69	68.27
201.909	39.59
202.128	92.84
202.347	37.55
202.566	33.45
202.785	8.87
203.004	25.26
203.223	6.83
203.442	51.88
203.661	-7.51
203.879	68.27
204.098	66.22
204.317	-25.94
204.536	70.31
204.755	-27.99
204.974	-68.95
205.193	82.6
205.411	64.17
205.63	-13.65
205.849	117.42
206.068	29.35
206.287	49.83
206.505	-21.85
206.724	45.74
206.943	-52.56
207.162	41.64
207.381	-44.37
207.599	37.55
207.818	70.31
208.037	21.16
208.255	31.4
208.474	47.79
208.693	2.73
208.911	33.45
209.13	25.26
209.349	127.66
209.567	12.97
209.786	53.93
210.005	10.92
210.223	33.45
210.442	-27.99
210.661	64.17
210.879	80.55
211.098	39.59
211.316	2.73
211.535	72.36
211.753	-23.89
211.972	74.41
212.191	58.03
212.409	96.94
212.628	8.87
212.846	-19.8
213.065	72.36
213.283	94.89
213.502	8.87
213.72	-17.75
213.938	-42.32
214.157	31.4
214.375	8.87
214.594	-11.61
214.812	21.16
215.031	-91.48
215.249	-15.7
215.467	2.73
215.686	-1.37
215.904	23.21
216.122	47.79
216.341	39.59
216.559	37.55
216.778	68.27
216.996	-7.51
217.214	23.21
217.432	41.64
217.651	-25.94
217.869	15.02
218.087	10.92
218.306	70.31
218.524	82.6
218.742	-3.41
218.96	-11.61
219.179	-23.89
219.397	41.64
219.615	10.92
219.833	-1.37
220.051	-60.76
220.27	105.13
220.488	17.07
220.706	39.59
220.924	0.68
221.142	37.55
221.36	19.11
221.578	60.07
221.796	27.31
222.015	4.78
222.233	-9.56
222.451	55.98
222.669	-56.66
222.887	68.27
223.105	-19.8
223.323	37.55
223.541	47.79
223.759	-17.75
223.977	-19.8
224.195	66.22
224.413	29.35
224.631	-11.61
224.849	74.41
225.067	115.37
225.285	43.69
225.503	64.17
225.721	-34.13
225.939	70.31
226.157	51.88
226.375	-1.37
226.592	0.68
226.81	64.17
227.028	58.03
227.246	88.75
227.464	51.88
227.682	8.87
227.9	15.02
228.117	109.22
228.335	12.97
228.553	64.17
228.771	-15.7
228.989	-1.37
229.206	-23.89
229.424	49.83
229.642	-13.65
229.86	15.02
230.077	72.36
230.295	135.85
230.513	12.97
230.731	66.22
230.948	62.12
231.166	98.99
231.384	109.22
231.601	78.51
231.819	-3.41
232.037	-9.56
232.254	45.74
232.472	33.45
232.689	19.11
232.907	68.27
233.125	62.12
233.342	94.89
233.56	55.98
233.777	-1.37
233.995	10.92
234.213	55.98
234.43	-114
234.648	74.41
234.865	21.16
235.083	-19.8
235.3	6.83
235.518	60.07
235.735	64.17
235.953	39.59
236.17	15.02
236.388	86.7
236.605	12.97
236.822	37.55
237.04	78.51
237.257	-30.04
237.475	-9.56
237.692	15.02
237.909	2.73
238.127	0.68
238.344	15.02
238.562	33.45
238.779	43.69
238.996	-11.61
239.214	29.35
239.431	64.17
239.648	45.74
239.865	4.78
240.083	47.79
240.3	55.98
240.517	-3.41
240.735	39.59
240.952	127.66
241.169	-19.8
241.386	25.26
241.603	15.02
241.821	58.03
242.038	-5.46
242.255	51.88
242.472	17.07
242.689	84.65
242.907	55.98
243.124	47.79
243.341	33.45
243.558	33.45
243.775	68.27
243.992	19.11
244.209	72.36
244.426	53.93
244.643	43.69
244.86	21.16
245.078	21.16
245.295	82.6
245.512	90.79
245.729	23.21
245.946	27.31
246.163	10.92
246.38	53.93
246.597	12.97
246.814	72.36
247.031	4.78
247.248	21.16
247.464	25.26
247.681	35.5
247.898	-42.32
248.115	88.75
248.332	-36.18
248.549	107.18
248.766	62.12
248.983	33.45
249.2	80.55
249.417	37.55
249.633	55.98
249.85	47.79
250.067	29.35
250.284	37.55
250.501	31.4
250.717	-9.56
250.934	-77.14
251.151	43.69
251.368	-1.37
251.585	35.5
251.801	-9.56
252.018	-7.51
252.235	66.22
252.451	12.97
252.668	-3.41
252.885	23.21
253.102	-1.37
253.318	19.11
253.535	-17.75
253.752	37.55
253.968	58.03
254.185	33.45
254.401	-5.46
254.618	-30.04
254.835	-27.99
255.051	6.83
255.268	2.73
255.484	-15.7
255.701	-36.18
255.917	39.59
256.134	6.83
256.351	37.55
256.567	2.73
256.784	0.68
257	27.31
257.217	45.74
257.433	-30.04
257.65	86.7
257.866	78.51
258.082	53.93
258.299	-27.99
258.515	-21.85
258.732	10.92
258.948	53.93
259.165	47.79
259.381	-3.41
259.597	39.59
259.814	-62.8
260.03	98.99
260.246	-36.18
260.463	115.37
260.679	70.31
260.895	78.51
261.112	-11.61
261.328	4.78
261.544	60.07
261.761	31.4
261.977	111.27
262.193	76.46
262.409	105.13
262.626	6.83
262.842	60.07
263.058	-5.46
263.274	10.92
263.49	55.98
263.707	-19.8
263.923	58.03
264.139	62.12
264.355	55.98
264.571	94.89
264.787	-7.51
265.004	37.55
265.22	94.89
265.436	64.17
265.652	4.78
265.868	94.89
266.084	-11.61
266.3	-15.7
266.516	43.69
266.732	60.07
266.948	55.98
267.164	6.83
267.38	41.64
267.596	19.11
267.812	58.03
268.028	19.11
268.244	64.17
268.46	72.36
268.676	64.17
268.892	27.31
269.108	4.78
269.324	2.73
269.54	80.55
269.756	4.78
269.972	-11.61
270.188	39.59
270.403	70.31
270.619	35.5
270.835	8.87
271.051	47.79
271.267	37.55
271.483	25.26
271.698	27.31
271.914	43.69
272.13	4.78
272.346	41.64
272.562	53.93
272.777	31.4
272.993	-19.8
273.209	62.12
273.425	-64.85
273.64	127.66
273.856	-54.61
274.072	25.26
274.287	8.87
274.503	33.45
274.719	53.93
274.934	25.26
275.15	70.31
275.366	66.22
275.581	19.11
275.797	31.4
276.012	78.51
276.228	2.73
276.444	74.41
276.659	88.75
276.875	15.02
277.09	33.45
277.306	98.99
277.521	21.16
277.737	29.35
277.952	70.31
278.168	27.31
278.383	35.5
278.599	-19.8
278.814	94.89
279.03	35.5
279.245	113.32
279.461	60.07
279.676	62.12
279.892	66.22
280.107	15.02
280.322	49.83
280.538	37.55
280.753	35.5
280.969	53.93
281.184	29.35
281.399	141.99
281.615	49.83
281.83	53.93
282.045	-81.24
282.26	-23.89
282.476	29.35
282.691	-11.61
282.906	53.93
283.122	-7.51
283.337	53.93
283.552	64.17
283.767	2.73
283.983	33.45
284.198	-7.51
284.413	37.55
284.628	-23.89
284.843	-19.8
285.058	37.55
285.274	-9.56
285.489	-58.71
285.704	105.13
285.919	4.78
286.134	4.78
286.349	23.21
286.564	17.07
286.779	-15.7
286.995	31.4
287.21	-1.37
287.425	-3.41
287.64	-44.37
287.855	55.98
288.07	10.92
288.285	82.6
288.5	0.68
288.715	41.64
288.93	72.36
289.145	23.21
289.36	39.59
289.575	25.26
289.79	121.51
290.004	37.55
290.219	25.26
290.434	64.17
290.649	39.59
290.864	-5.46
291.079	43.69
291.294	8.87
291.509	49.83
291.724	21.16
291.938	29.35
292.153	10.92
292.368	-5.46
292.583	4.78
292.798	35.5
293.012	19.11
293.227	6.83
293.442	-23.89
293.657	12.97
293.871	41.64
294.086	84.65
294.301	31.4
294.516	31.4
294.73	-5.46
294.945	80.55
295.16	-27.99
295.374	72.36
295.589	-13.65
295.804	0.68
296.018	31.4
296.233	74.41
296.447	64.17
296.662	31.4
296.877	8.87
297.091	-21.85
297.306	19.11
297.52	74.41
297.735	39.59
297.949	31.4
298.164	-48.47
298.378	-44.37
298.593	25.26
298.807	-40.28
299.022	43.69
299.236	72.36
299.451	4.78
299.665	-27.99
299.88	68.27
300.094	35.5
300.309	60.07
300.523	12.97
300.737	10.92
300.952	70.31
301.166	60.07
301.381	80.55
301.595	39.59
301.809	-17.75
302.024	-13.65
302.238	62.12
302.452	2.73
302.667	80.55
302.881	82.6
303.095	-15.7
303.309	43.69
303.524	8.87
303.738	25.26
303.952	64.17
304.166	4.78
304.381	64.17
304.595	-50.52
304.809	37.55
305.023	8.87
305.237	23.21
305.452	82.6
305.666	-9.56
305.88	-7.51
306.094	70.31
306.308	2.73
306.522	41.64
306.736	45.74
306.95	53.93
307.164	33.45
307.379	-13.65
307.593	53.93
307.807	-1.37
308.021	62.12
308.235	191.14
308.449	8.87
308.663	39.59
308.877	35.5
309.091	74.41
309.305	-58.71
309.519	23.21
309.733	29.35
309.947	33.45
310.161	64.17
310.374	10.92
310.588	107.18
310.802	17.07
311.016	37.55
311.23	-11.61
311.444	-36.18
311.658	-83.28
311.872	45.74
312.085	43.69
312.299	98.99
312.513	10.92
312.727	84.65
312.941	23.21
313.154	4.78
313.368	-21.85
313.582	-21.85
313.796	29.35
314.009	31.4
314.223	31.4
314.437	-5.46
314.651	49.83
314.864	19.11
315.078	92.84
315.292	45.74
315.505	37.55
315.719	76.46
315.933	78.51
316.146	-27.99
316.36	10.92
316.573	49.83
316.787	121.51
317.001	-1.37
317.214	12.97
317.428	76.46
317.641	-48.47
317.855	49.83
318.068	70.31
318.282	29.35
318.495	84.65
318.709	105.13
318.922	47.79
319.136	47.79
319.349	152.23
319.563	74.41
319.776	12.97
319.99	64.17
320.203	29.35
320.417	62.12
320.63	-58.71
320.843	66.22
321.057	90.79
321.27	41.64
321.483	23.21
321.697	90.79
321.91	70.31
322.124	21.16
322.337	29.35
322.55	88.75
322.763	21.16
322.977	53.93
323.19	19.11
323.403	15.02
323.617	-27.99
323.83	-5.46
324.043	80.55
324.256	62.12
324.469	8.87
324.683	90.79
324.896	8.87
325.109	-5.46
325.322	-23.89
325.535	49.83
325.748	62.12
325.962	92.84
326.175	-13.65
326.388	80.55
326.601	-1.37
326.814	4.78
327.027	31.4
327.24	19.11
327.453	-19.8
327.666	37.55
327.879	37.55
328.092	45.74
328.305	84.65
328.518	4.78
328.731	39.59
328.944	39.59
329.157	12.97
329.37	25.26
329.583	31.4
329.796	90.79
330.009	25.26
330.222	68.27
330.435	33.45
330.648	41.64
330.861	74.41
331.073	76.46
331.286	129.7
331.499	88.75
331.712	58.03
331.925	33.45
332.138	41.64
332.35	90.79
332.563	-1.37
332.776	45.74
332.989	41.64
333.202	-21.85
333.414	68.27
333.627	66.22
333.84	51.88
334.053	6.83
334.265	43.69
334.478	8.87
334.691	31.4
334.903	78.51
335.116	39.59
335.329	80.55
335.541	76.46
335.754	47.79
335.966	-34.13
336.179	25.26
336.392	6.83
336.604	51.88
336.817	41.64
337.029	43.69
337.242	19.11
337.454	101.03
337.667	82.6
337.88	39.59
338.092	0.68
338.305	23.21
338.517	-64.85
338.729	31.4
338.942	-1.37
339.154	55.98
339.367	4.78
339.579	31.4
339.792	64.17
340.004	45.74
340.217	35.5
340.429	29.35
340.641	-25.94
340.854	6.83
341.066	15.02
341.278	119.46
341.491	101.03
341.703	10.92
341.915	29.35
342.128	68.27
342.34	-15.7
342.552	53.93
342.764	8.87
342.977	25.26
343.189	29.35
343.401	29.35
343.613	-27.99
343.826	70.31
344.038	-13.65
344.25	98.99
344.462	0.68
344.674	6.83
344.886	90.79
345.099	41.64
345.311	25.26
345.523	-23.89
345.735	-77.14
345.947	47.79
346.159	0.68
346.371	41.64
346.583	29.35
346.795	80.55
347.007	37.55
347.219	45.74
347.431	88.75
347.643	35.5
347.855	60.07
348.067	-17.75
348.279	-48.47
348.491	15.02
348.703	31.4
348.915	68.27
349.127	-17.75
349.339	58.03
349.551	12.97
349.763	19.11
349.975	39.59
350.187	68.27
350.399	4.78
350.61	29.35
350.822	60.07
351.034	72.36
351.246	8.87
351.458	64.17
351.669	23.21
351.881	51.88
352.093	78.51
352.305	25.26
352.517	45.74
352.728	80.55
352.94	-54.61
353.152	47.79
353.363	-9.56
353.575	72.36
353.787	76.46
353.999	98.99
354.21	127.66
354.422	4.78
354.633	43.69
354.845	33.45
355.057	-27.99
355.268	84.65
355.48	45.74
355.692	12.97
355.903	4.78
356.115	-17.75
356.326	25.26
356.538	105.13
356.749	74.41
356.961	-3.41
357.172	12.97
357.384	53.93
357.595	23.21
357.807	45.74
358.018	4.78
358.23	121.51
358.441	10.92
358.653	31.4
358.864	37.55
359.075	-1.37
359.287	49.83
359.498	12.97
359.709	12.97
359.921	-40.28
360.132	47.79
360.344	-25.94
360.555	66.22
360.766	21.16
360.977	10.92
361.189	-40.28
361.4	-3.41
361.611	78.51
361.823	66.22
362.034	70.31
362.245	105.13
362.456	-32.08
362.667	53.93
362.879	62.12
363.09	101.03
363.301	31.4
363.512	53.93
363.723	74.41
363.935	49.83
364.146	31.4
364.357	-7.51
364.568	8.87
364.779	19.11
364.99	113.32
365.201	101.03
365.412	33.45
365.623	25.26
365.834	78.51
366.045	51.88
366.256	45.74
366.467	31.4
366.678	37.55
366.889	96.94
367.1	-75.09
367.311	25.26
367.522	-3.41
367.733	17.07
367.944	90.79
368.155	70.31
368.366	84.65
368.577	-3.41
368.788	55.98
368.999	19.11
369.209	4.78
369.42	92.84
369.631	103.08
369.842	35.5
370.053	72.36
370.264	107.18
370.474	-1.37
370.685	-48.47
370.896	12.97
371.107	58.03
371.317	60.07
371.528	17.07
371.739	25.26
371.95	45.74
372.16	103.08
372.371	-15.7
372.582	10.92
372.792	94.89
373.003	39.59
373.214	2.73
373.424	119.46
373.635	23.21
373.846	70.31
374.056	12.97
374.267	-3.41
374.477	6.83
374.688	31.4
374.898	29.35
375.109	119.46
375.319	17.07
375.53	8.87
375.74	53.93
375.951	94.89
376.161	41.64
376.372	41.64
376.582	90.79
376.793	39.59
377.003	-23.89
377.214	74.41
377.424	86.7
377.635	72.36
377.845	19.11
378.055	39.59
378.266	47.79
378.476	66.22
378.686	86.7
378.897	90.79
379.107	82.6
379.317	29.35
379.528	15.02
379.738	113.32
379.948	37.55
380.158	10.92
380.369	10.92
380.579	-1.37
380.789	37.55
380.999	47.79
381.21	-15.7
381.42	88.75
381.63	-1.37
381.84	41.64
382.05	70.31
382.261	84.65
382.471	58.03
382.681	47.79
382.891	70.31
383.101	70.31
383.311	-25.94
383.521	-17.75
383.731	60.07
383.941	105.13
384.151	-44.37
384.361	21.16
384.571	-9.56
384.781	55.98
384.991	41.64
385.201	45.74
385.411	2.73
385.621	64.17
385.831	47.79
386.041	29.35
386.251	70.31
386.461	55.98
386.671	68.27
386.881	6.83
387.091	92.84
387.301	31.4
387.511	53.93
387.72	37.55
387.93	43.69
388.14	23.21
388.35	41.64
388.56	144.04
388.769	23.21
388.979	62.12
389.189	39.59
389.399	2.73
389.609	49.83
389.818	49.83
390.028	-1.37
390.238	60.07
390.447	74.41
390.657	51.88
390.867	47.79
391.076	72.36
391.286	45.74
391.496	23.21
391.705	17.07
391.915	62.12
392.125	23.21
392.334	101.03
392.544	68.27
392.753	90.79
392.963	-5.46
393.172	-1.37
393.382	19.11
393.591	49.83
393.801	17.07
394.01	15.02
394.22	72.36
394.429	70.31
394.639	64.17
394.848	39.59
395.058	103.08
395.267	12.97
395.477	88.75
395.686	60.07
395.895	55.98
396.105	23.21
396.314	127.66
396.524	139.94
396.733	51.88
396.942	-1.37
397.152	29.35
397.361	74.41
397.57	109.22
397.78	150.18
397.989	80.55
398.198	133.8
398.407	43.69
398.617	47.79
398.826	115.37
399.035	80.55
399.244	55.98
399.453	17.07
399.663	76.46
399.872	51.88
400.081	35.5
400.29	101.03
400.499	29.35
400.708	-11.61
400.917	92.84
401.127	98.99
401.336	94.89
401.545	107.18
401.754	68.27
401.963	107.18
402.172	62.12
402.381	115.37
402.59	70.31
402.799	96.94
403.008	74.41
403.217	90.79
403.426	105.13
403.635	47.79
403.844	74.41
404.053	92.84
404.262	148.14
404.471	129.7
404.68	123.56
404.888	70.31
405.097	58.03
405.306	84.65
405.515	129.7
405.724	82.6
405.933	127.66
406.142	94.89
406.35	193.19
406.559	141.99
406.768	162.47
406.977	201.38
407.185	187.05
407.394	137.9
407.603	123.56
407.812	180.9
408.02	127.66
408.229	148.14
408.438	105.13
408.646	172.71
408.855	121.51
409.064	166.57
409.272	144.04
409.481	258.73
409.69	223.91
409.898	262.82
410.107	189.1
410.315	185
410.524	232.1
410.733	199.34
410.941	225.96
411.15	166.57
411.358	215.72
411.567	268.97
411.775	201.38
411.984	303.78
412.192	316.07
412.401	328.36
412.609	283.3
412.818	332.45
413.026	414.37
413.234	326.31
413.443	373.41
413.651	367.27
413.86	266.92
414.068	291.49
414.276	414.37
414.485	430.76
414.693	361.13
414.901	498.34
415.11	357.03
415.318	385.7
415.526	457.38
415.734	547.49
415.943	502.43
416.151	516.77
416.359	520.87
416.567	461.48
416.776	629.41
416.984	561.83
417.192	598.69
417.4	639.65
417.608	557.73
417.817	680.61
418.025	688.8
418.233	725.66
418.441	733.86
418.649	752.29
418.857	785.05
419.065	805.53
419.273	795.29
419.481	799.39
419.689	889.5
419.897	903.84
420.105	930.46
420.313	922.27
420.521	1047.19
420.729	1041.05
420.937	993.95
421.145	1022.62
421.353	1122.97
421.561	1176.22
421.769	1145.5
421.977	1280.66
422.185	1241.75
422.393	1462.93
422.601	1362.58
422.809	1243.8
423.017	1460.88
423.224	1505.94
423.432	1467.03
423.64	1581.71
423.848	1735.31
424.056	1702.54
424.263	1718.93
424.471	1710.74
424.679	1802.9
424.887	1804.94
425.094	1968.78
425.302	1911.44
425.51	1921.68
425.718	2042.51
425.925	2017.93
426.133	2146.95
426.341	2271.88
426.548	2349.7
426.756	2376.33
426.964	2413.19
427.171	2550.4
427.379	2577.03
427.586	2691.71
427.794	2628.23
428.001	2892.41
428.209	2925.18
428.417	2945.66
428.624	3050.11
428.832	3121.79
429.039	3052.16
429.247	3215.99
429.454	3398.26
429.662	3537.52
429.869	3396.21
430.076	3474.04
430.284	3433.08
430.491	3619.44
430.699	3955.31
430.906	3951.21
431.114	3953.26
431.321	4160.11
431.528	4127.34
431.736	4369
431.943	4663.91
432.15	4563.56
432.358	4567.65
432.565	4749.92
432.772	4702.82
432.979	4991.58
433.187	5124.7
433.394	5001.82
433.601	5651.03
433.808	5579.35
434.016	5503.57
434.223	5642.84
434.43	6011.47
434.637	5765.71
434.844	6163.02
435.052	6359.63
435.259	6271.56
435.466	6412.87
435.673	6402.63
435.88	6777.41
436.087	7238.2
436.294	7131.71
436.501	7072.32
436.708	7045.7
436.915	7514.68
437.122	7703.09
437.329	7735.86
437.537	7901.75
437.743	8049.2
437.95	8018.48
438.157	8409.64
438.364	8770.08
438.571	8682.02
438.778	8735.27
438.985	9548.31
439.192	9173.53
439.399	9591.32
439.606	9304.6
439.813	9673.24
440.02	10326.54
440.227	10349.07
440.433	10215.95
440.64	10621.45
440.847	10502.67
441.054	10441.23
441.261	11231.74
441.467	11252.22
441.674	11487.74
441.881	11901.43
442.088	11868.66
442.294	11696.63
442.501	12014.07
442.708	12231.15
442.914	12829.16
443.121	13371.87
443.328	12956.13
443.534	13947.35
443.741	13466.08
443.948	13218.27
444.154	14453.2
444.361	14354.9
444.568	14526.92
444.774	14430.67
444.981	14428.62
445.187	15075.78
445.394	15540.67
445.6	15458.75
445.807	16720.3
446.013	16210.36
446.22	16585.13
446.426	17088.93
446.633	17209.76
446.839	18080.15
447.046	17297.83
447.252	18033.05
447.459	18190.74
447.665	18391.44
447.871	19245.44
448.078	19630.46
448.284	18768.27
448.491	19085.7
448.697	20109.69
448.903	20236.66
449.11	20580.72
449.316	20072.82
449.522	20697.45
449.728	21090.66
449.935	21311.85
450.141	21199.21
450.347	21864.8
450.553	21451.11
450.76	21541.22
450.966	22047.07
451.172	21809.5
451.378	22427.99
451.584	21954.91
451.791	22548.82
451.997	22630.74
452.203	22909.26
452.409	22853.97
452.615	22909.26
452.821	22094.17
453.027	21703.01
453.233	22815.05
453.44	21940.57
453.646	22339.93
453.852	22413.65
454.058	23021.9
454.264	22196.57
454.47	22159.7
454.676	21987.68
454.882	22839.63
455.088	20873.58
455.294	20988.27
455.5	21584.23
455.705	21668.19
455.911	20787.57
456.117	20408.69
456.323	20121.98
456.529	19095.94
456.735	20101.5
456.941	19773.82
457.147	19294.6
457.352	18635.15
457.558	18395.54
457.764	18608.53
457.97	17932.7
458.176	17770.91
458.381	17801.63
458.587	16535.98
458.793	16855.47
458.999	15940.02
459.204	17179.04
459.41	16501.17
459.616	15262.15
459.821	15555.01
460.027	15391.17
460.233	14987.72
460.438	14297.55
460.644	14692.81
460.85	13879.77
461.055	13402.59
461.261	13650.39
461.466	12493.29
461.672	12335.6
461.878	13046.24
462.083	12212.72
462.289	12175.86
462.494	11813.37
462.7	11401.72
462.905	11022.85
463.111	11377.15
463.316	11522.55
463.522	11241.98
463.727	11176.45
463.932	11121.15
464.138	11008.51
464.343	11117.06
464.549	10861.06
464.754	11366.91
464.959	11336.19
465.165	10887.68
465.37	10668.55
465.575	10193.42
465.781	10553.87
465.986	10867.2
466.191	10211.85
466.397	10228.24
466.602	9613.85
466.807	9900.56
467.012	10103.31
467.218	9892.37
467.423	9888.28
467.628	9697.81
467.833	10375.69
468.038	9992.72
468.244	9767.45
468.449	10080.78
468.654	9966.1
468.859	9458.2
469.064	9619.99
469.269	9271.84
469.474	9364
469.679	9554.46
469.885	9126.43
470.09	9347.61
470.295	9163.29
470.5	9005.6
470.705	9167.39
470.91	9032.22
471.115	8868.39
471.32	9044.51
471.525	8854.05
471.73	8645.16
471.935	8575.53
472.139	8446.51
472.344	8677.93
472.549	8493.61
472.754	8340.01
472.959	8127.02
473.164	7895.6
473.369	7891.51
473.574	8069.68
473.778	8112.69
473.983	7883.31
474.188	7940.66
474.393	7746.1
474.598	7576.12
474.802	7641.65
475.007	7320.12
475.212	7479.86
475.417	7144
475.621	7223.87
475.826	7418.43
476.031	7144
476.235	7010.88
476.44	7109.18
476.645	6957.63
476.849	7127.61
477.054	6791.75
477.259	6666.82
477.463	6890.05
477.668	6632.01
477.872	6668.87
478.077	6459.98
478.282	6494.79
478.486	6449.74
478.691	6300.23
478.895	6326.86
479.1	6216.27
479.304	6322.76
479.509	6136.4
479.713	6216.27
479.918	6255.18
480.122	6040.14
480.326	6117.97
480.531	6060.62
480.735	5943.89
480.94	6031.95
481.144	6072.91
481.348	5984.85
481.553	5796.43
481.757	5853.78
481.961	5937.74
482.166	5870.16
482.37	5980.75
482.574	5937.74
482.778	5945.94
482.983	6038.09
483.187	5894.74
483.391	5978.7
483.595	5665.36
483.8	5646.93
484.004	5933.65
484.208	5794.39
484.412	5907.02
484.616	5888.59
484.821	5806.67
485.025	5700.18
485.229	5886.54
485.433	5937.74
485.637	5855.83
485.841	5735
486.045	5880.4
486.249	5794.39
486.453	5917.26
486.657	5892.69
486.861	5921.36
487.065	5722.71
487.269	5704.28
487.473	5720.66
487.677	5876.3
487.881	5780.05
488.085	5759.57
488.289	5864.02
488.493	5790.29
488.697	5821.01
488.901	5986.9
489.105	5868.11
489.309	5847.63
489.512	5962.32
489.716	5896.78
489.92	5872.21
490.124	5829.2
490.328	6048.33
490.531	5976.66
490.735	6029.9
490.939	6019.66
491.143	5839.44
491.346	5978.7
491.55	5984.85
491.754	6091.34
491.958	6158.92
492.161	6169.16
492.365	6148.68
492.569	6179.4
492.772	6087.25
492.976	6214.22
493.18	6267.47
493.383	6300.23
493.587	6459.98
493.79	6382.15
493.994	6357.58
494.197	6357.58
494.401	6457.93
494.605	6457.93
494.808	6582.85
495.012	6609.48
495.215	6632.01
495.419	6703.68
495.622	6679.11
495.825	6781.51
496.029	6607.43
496.232	6847.04
496.436	6840.9
496.639	7170.62
496.843	7029.31
497.046	7295.55
497.249	7275.07
497.453	7377.47
497.656	7332.41
497.859	7420.47
498.063	7569.98
498.266	7834.16
498.469	7797.3
498.673	7922.23
498.876	7926.32
499.079	8032.82
499.282	8026.67
499.485	8112.69
499.689	8122.93
499.892	8194.61
500.095	8409.64
500.298	8466.99
500.501	8299.05
500.705	8628.77
500.908	8735.27
501.111	8729.13
501.314	8819.24
501.517	9089.57
501.72	9056.8
501.923	8802.85
502.126	9378.33
502.329	9372.19
502.532	9562.65
502.735	9609.75
502.938	9740.82
503.141	9677.33
503.344	10140.18
503.547	9994.77
503.75	10246.67
503.953	10414.6
504.156	10359.31
504.359	10461.71
504.562	10330.64
504.765	10899.97
504.968	11112.96
505.17	11002.37
505.373	10844.68
505.576	11342.33
505.779	11172.35
505.982	11379.2
506.185	11651.58
506.387	11741.69
506.59	11721.21
506.793	12042.74
506.996	12237.3
507.198	12605.93
507.401	12202.48
507.604	12448.24
507.807	12794.34
508.009	13105.63
508.212	12962.28
508.415	13134.31
508.617	13173.22
508.82	13251.04
509.022	13398.49
509.225	13785.56
509.428	13904.34
509.63	14027.22
509.833	14127.57
510.035	14365.14
510.238	14303.7
510.44	14619.08
510.643	14737.87
510.845	14758.35
511.048	14926.28
511.25	14938.57
511.453	15090.12
511.655	15827.39
511.858	15546.81
512.06	15944.12
512.262	15772.09
512.465	15854.01
512.667	16341.43
512.87	16458.16
513.072	16411.06
513.274	16656.81
513.477	16812.46
513.679	17117.61
513.881	17396.13
514.084	17572.25
514.286	17478.05
514.488	17801.63
514.69	18139.54
514.893	18235.8
515.095	18377.11
515.297	18688.4
515.499	18440.59
515.701	19007.88
515.904	18895.24
516.106	19091.85
516.308	19237.25
516.51	19630.46
516.712	19652.99
516.914	19804.54
517.116	20167.03
517.318	20035.96
517.52	20300.15
517.722	20588.91
517.925	20801.9
518.127	21002.6
518.329	20955.5
518.531	21002.6
518.733	21621.09
518.935	21563.75
519.136	21778.78
519.338	22313.3
519.54	22395.22
519.742	22104.41
519.944	22208.86
520.146	22722.9
520.348	22829.39
520.55	22901.07
520.752	22991.18
520.954	23552.32
521.155	23351.62
521.357	24240.44
521.559	23923.01
521.761	24334.65
521.963	24060.22
522.164	24322.36
522.366	24281.4
522.568	24494.39
522.77	24840.5
522.971	25385.26
523.173	24951.09
523.375	25205.03
523.576	25338.15
523.778	25065.77
523.98	25921.82
524.181	25694.5
524.383	25844
524.584	26120.48
524.786	26288.41
524.988	26296.6
525.189	26362.14
525.391	26812.69
525.592	26659.09
525.794	26829.07
525.995	26970.38
526.197	26972.43
526.398	27097.36
526.6	27523.33
526.801	27648.26
527.003	27734.28
527.204	27306.25
527.406	27734.28
527.607	27961.6
527.808	27678.98
528.01	27691.27
528.211	28111.1
528.412	28682.49
528.614	28158.2
528.815	28199.16
529.016	28352.76
529.218	28121.34
529.419	28780.79
529.62	28600.57
529.822	28590.33
530.023	28293.37
530.224	28664.05
530.425	28721.4
530.626	28424.44
530.828	28619
531.029	29147.37
531.23	29059.31
531.431	28631.29
531.632	29114.61
531.833	28920.05
532.035	28831.99
532.236	29098.22
532.437	29309.16
532.638	28938.48
532.839	29315.31
533.04	29323.5
533.241	28788.98
533.442	29448.43
533.643	29337.83
533.844	29171.95
534.045	29274.35
534.246	28922.1
534.447	29460.71
534.648	29090.03
534.849	29239.53
535.05	29034.74
535.251	29425.9
535.451	29053.17
535.652	29389.03
535.853	29094.13
536.054	29442.28
536.255	29696.23
536.456	29038.83
536.657	29501.67
536.857	29231.34
537.058	28971.25
537.259	29292.78
537.46	29378.79
537.66	29135.09
537.861	29200.62
538.062	29051.12
538.263	29538.54
538.463	29356.27
538.664	29346.03
538.865	29192.43
539.065	29339.88
539.266	29087.98
539.466	29475.05
539.667	29104.37
539.868	29716.71
540.068	29092.08
540.269	29237.48
540.469	29653.22
540.67	29012.21
540.87	29194.48
541.071	29233.39
541.271	29446.38
541.472	29167.85
541.672	29143.28
541.873	28885.23
542.073	29071.6
542.274	29579.5
542.474	29036.78
542.675	28799.22
542.875	29264.11
543.075	28954.86
543.276	28690.68
543.476	29200.62
543.676	28938.48
543.877	29100.27
544.077	29440.23
544.277	28860.66
544.478	29192.43
544.678	29155.57
544.878	28893.43
545.078	29155.57
545.279	29053.17
545.479	28758.26
545.679	28956.91
545.879	29085.93
546.079	29106.41
546.28	28549.37
546.48	28672.25
546.68	29081.84
546.88	28938.48
547.08	29077.74
547.28	29094.13
547.48	28518.65
547.68	28893.43
547.88	28821.75
548.081	28926.19
548.281	28932.34
548.481	28754.16
548.681	29143.28
548.881	28930.29
549.081	28795.12
549.28	28698.87
549.48	28911.86
549.68	28508.41
549.88	28963.06
550.08	28705.01
550.28	28586.23
550.48	28702.96
550.68	29014.26
550.88	28408.06
551.08	28612.85
551.279	28504.31
551.479	28674.29
551.679	28694.77
551.879	28506.36
552.079	28760.31
552.278	28856.56
552.478	28619
552.678	28635.38
552.878	28872.95
553.077	28698.87
553.277	28498.17
553.477	28854.51
553.676	28461.3
553.876	28676.34
554.076	28727.54
554.275	28598.52
554.475	28137.73
554.674	28481.78
554.874	28496.12
555.074	28076.29
555.273	28297.47
555.473	28702.96
555.672	28440.82
555.872	28248.32
556.071	28309.75
556.271	28414.2
556.47	28184.83
556.67	28295.42
556.869	28262.65
557.068	28262.65
557.268	28274.94
557.467	28377.34
557.667	27932.93
557.866	28066.05
558.065	28160.25
558.265	27855.11
558.464	27818.24
558.663	28154.11
558.863	27619.59
559.062	28293.37
559.261	27693.32
559.461	28221.69
559.66	27611.4
559.859	28131.58
560.058	27732.23
560.258	27783.43
560.457	27631.88
560.656	27926.78
560.855	27484.42
561.054	27603.21
561.253	27425.03
561.453	27509
561.652	27459.85
561.851	27545.86
562.05	27574.53
562.249	27255.05
562.448	27545.86
562.647	27013.39
562.846	26919.18
563.045	27451.66
563.244	26671.38
563.443	27203.85
563.642	26982.67
563.841	27162.89
564.04	26988.81
564.239	27091.21
564.438	26781.97
564.637	26999.05
564.836	27044.11
565.035	26323.22
565.234	26802.45
565.432	26366.23
565.631	26718.48
565.83	26552.6
566.029	26399
566.228	26399
566.427	26304.79
566.625	26308.89
566.824	26294.55
567.023	26100
567.222	25938.21
567.42	26568.98
567.619	26362.14
567.818	26030.37
568.016	25790.75
568.215	26362.14
568.414	25809.18
568.612	26024.22
568.811	25612.58
569.01	25839.9
569.208	25596.2
569.407	25499.94
569.605	25438.5
569.804	25641.25
570.002	25434.41
570.201	25620.77
570.4	25309.48
570.598	25446.69
570.797	25059.63
570.995	25137.45
571.193	24979.76
571.392	25375.02
571.59	24867.12
571.789	24820.02
571.987	24971.57
572.186	24613.17
572.384	24633.65
572.582	24817.97
572.781	24656.18
572.979	24316.22
573.177	24512.82
573.376	24533.3
573.574	24490.29
573.772	24607.03
573.971	24207.67
574.169	24164.67
574.367	24105.27
574.565	24205.63
574.763	24211.77
574.962	23755.07
575.16	23736.64
575.358	23949.63
575.556	23378.25
575.754	24135.99
575.952	23630.15
576.151	23900.48
576.349	23521.6
576.547	23413.06
576.745	23468.36
576.943	23486.79
577.141	23429.45
577.339	23388.49
577.537	23435.59
577.735	23449.92
577.933	22946.12
578.131	23054.67
578.329	22593.87
578.527	22872.4
578.725	23028.04
578.923	23042.38
579.121	22573.39
579.319	22485.33
579.516	22823.25
579.714	22964.56
579.912	22542.67
580.11	22305.11
580.308	22716.75
580.506	22337.88
580.704	22151.51
580.901	22444.37
581.099	22325.59
581.297	22098.27
581.495	22215
581.692	21969.24
581.89	21973.34
582.088	21969.24
582.285	22008.15
582.483	21913.95
582.681	21598.56
582.878	21643.62
583.076	21569.89
583.274	21809.5
583.471	21530.98
583.669	21510.5
583.866	21381.48
584.064	21098.86
584.262	21086.57
584.459	21201.26
584.657	21180.78
584.854	21268.84
585.052	21148.01
585.249	21379.43
585.447	21145.96
585.644	20918.64
585.841	20912.49
586.039	20808.05
586.236	20509.04
586.434	20818.28
586.631	20652.4
586.828	20527.47
587.026	20326.77
587.223	20457.84
587.42	20466.03
587.618	20390.26
587.815	20138.36
588.012	20115.83
588.21	19986.81
588.407	20187.51
588.604	20175.22
588.801	19902.84
588.999	19894.65
589.196	19761.53
589.393	20052.34
589.59	19583.36
589.787	19661.18
589.984	19534.21
590.182	19483.01
590.379	19630.46
590.576	19589.5
590.773	19267.97
590.97	19179.91
591.167	19558.78
591.364	19110.28
591.561	19358.08
591.758	19489.15
591.955	19153.29
592.152	19265.92
592.349	19054.98
592.546	19265.92
592.743	18817.42
592.94	18631.05
593.137	18895.24
593.334	18839.95
593.531	18317.72
593.727	18678.16
593.924	18928.01
594.121	18569.62
594.318	18809.23
594.515	18094.49
594.712	18471.31
594.908	18383.25
595.105	18299.28
595.302	18102.68
595.499	18057.62
595.696	18053.53
595.892	18160.02
596.089	18352.53
596.286	18057.62
596.482	17942.94
596.679	17795.48
596.876	17957.27
597.072	17846.68
597.269	17662.37
597.466	17453.47
597.662	17770.91
597.859	17588.64
598.055	17502.62
598.252	17496.48
598.448	17349.03
598.645	17424.8
598.841	17115.56
599.038	17439.14
599.234	17322.4
599.431	17047.97
599.627	17215.91
599.824	17308.07
600.02	17019.3
600.217	16953.77
600.413	17007.02
600.609	16755.11
600.806	16701.87
601.002	16871.85
601.198	16566.7
601.395	16497.07
601.591	16134.58
601.787	16484.78
601.984	16120.24
602.18	16578.99
602.376	16378.29
602.572	16185.78
602.769	16355.76
602.965	16077.24
603.161	16232.88
603.357	16134.58
603.553	15845.82
603.75	16267.7
603.946	15987.13
604.142	15942.07
604.338	15741.37
604.534	15671.74
604.73	15716.79
604.926	15546.81
605.122	15649.21
605.318	15788.47
605.514	15550.91
605.71	15485.37
605.906	15555.01
606.102	15618.49
606.298	15514.05
606.494	15360.45
606.69	15391.17
606.886	15262.15
607.082	15348.16
607.278	15311.3
607.474	14957
607.67	15323.58
607.866	14995.91
608.062	15114.69
608.257	14864.84
608.453	14911.94
608.649	15024.58
608.845	14653.9
609.041	14838.22
609.236	14690.76
609.432	14776.78
609.628	14662.09
609.824	14604.75
610.019	14645.71
610.215	14733.77
610.411	14475.73
610.606	14399.95
610.802	14633.42
610.998	14625.23
611.193	14506.45
611.389	14674.38
611.584	14297.55
611.78	14524.88
611.976	14338.51
612.171	14268.88
612.367	14262.74
612.562	14350.8
612.758	14213.59
612.953	14211.54
613.149	14168.53
613.344	13933.01
613.539	14371.28
613.735	14039.51
613.93	14113.24
614.126	13943.25
614.321	14203.35
614.517	14084.56
614.712	14021.08
614.907	14016.98
615.103	14070.23
615.298	13769.18
615.493	14203.35
615.688	13754.84
615.884	13973.97
616.079	13896.15
616.274	13803.99
616.47	13703.64
616.665	13775.32
616.86	13703.64
617.055	13605.34
617.25	13670.87
617.445	13492.7
617.641	13281.76
617.836	13466.08
618.031	13275.62
618.226	13238.75
618.421	13205.99
618.616	12980.71
618.811	13115.87
619.006	13359.58
619.201	13101.54
619.396	13255.14
619.591	13113.83
619.786	13015.52
619.981	12851.69
620.176	13103.59
620.371	12941.8
620.566	12911.08
620.761	12618.22
620.956	12761.58
621.151	12685.8
621.346	12693.99
621.541	12401.13
621.735	12579.31
621.93	12315.12
622.125	12390.89
622.32	12063.22
622.515	12288.5
622.709	12177.9
622.904	12276.21
623.099	12028.4
623.294	12141.04
623.488	11856.37
623.683	11860.47
623.878	11788.79
624.072	11598.33
624.267	11839.99
624.462	11805.17
624.656	11475.45
624.851	11528.7
625.046	11375.1
625.24	11416.06
625.435	11268.61
625.629	11217.41
625.824	11223.55
626.018	11010.56
626.213	11043.33
626.407	10994.18
626.602	10826.25
626.796	10912.26
626.991	10924.55
627.185	10830.34
627.38	10654.22
627.574	10433.04
627.768	10551.82
627.963	10541.58
628.157	10508.81
628.352	10490.38
628.546	10562.06
628.74	10367.5
628.935	10195.47
629.129	10271.25
629.323	9826.84
629.517	10091.02
629.712	10125.84
629.906	10091.02
630.1	9867.8
630.294	9978.39
630.489	9972.24
630.683	9757.21
630.877	9728.53
631.071	9558.55
631.265	9736.73
631.459	9757.21
631.653	9499.16
631.848	9484.83
632.042	9548.31
632.236	9683.48
632.43	9323.04
632.624	9386.52
632.818	9189.92
633.012	9132.58
633.206	9153.06
633.4	9120.29
633.594	9085.47
633.788	9136.67
633.982	8907.3
634.176	8944.16
634.369	8991.27
634.563	8884.77
634.757	8823.33
634.951	8684.07
635.145	8770.08
635.339	8657.45
635.533	8501.8
635.726	8542.76
635.92	8391.21
636.114	8354.35
636.308	8587.82
636.501	8452.65
636.695	8499.75
636.889	8172.08
637.083	8354.35
637.276	8356.4
637.47	8014.38
637.664	8124.97
637.857	8084.02
638.051	8086.06
638.244	7989.81
638.438	8016.43
638.632	7823.92
638.825	7914.03
639.019	7760.44
639.212	7715.38
639.406	7705.14
639.599	7797.3
639.793	7694.9
639.986	7598.65
640.18	7492.15
640.373	7490.1
640.567	7387.71
640.76	7586.36
640.954	7406.14
641.147	7381.56
641.34	7469.62
641.534	7172.67
641.727	7254.59
641.92	7199.29
642.114	7004.74
642.307	7232.06
642.5	7135.81
642.694	7111.23
642.887	7109.18
643.08	6998.59
643.273	6898.24
643.467	7012.93
643.66	6806.08
643.853	6681.16
644.046	6797.89
644.239	6715.97
644.432	6728.26
644.626	6560.33
644.819	6525.51
645.012	6740.55
645.205	6623.81
645.398	6548.04
645.591	6564.42
645.784	6363.72
645.977	6408.78
646.17	6226.51
646.363	6359.63
646.556	6402.63
646.749	6326.86
646.942	6312.52
647.135	6197.84
647.328	6034
647.521	6107.73
647.714	6144.59
647.907	6093.39
648.099	6079.05
648.292	6019.66
648.485	5931.6
648.678	5915.22
648.871	5816.91
649.064	5769.81
649.256	5904.98
649.449	5831.25
649.642	5841.49
649.835	5618.26
650.027	5698.13
650.22	5730.9
650.413	5782.1
650.605	5605.97
650.798	5581.4
650.991	5427.8
651.183	5569.11
651.376	5450.33
651.568	5425.75
651.761	5530.2
651.954	5382.74
652.146	5241.43
652.339	5143.13
652.531	5259.87
652.724	5278.3
652.916	5223
653.109	5151.32
653.301	5223
653.494	5141.08
653.686	5050.97
653.879	5227.1
654.071	5040.73
654.263	4907.62
654.456	4993.63
654.648	5147.23
654.84	4825.7
655.033	4825.7
655.225	5071.45
655.417	4926.05
655.61	4844.13
655.802	4698.72
655.994	4754.02
656.186	4827.74
656.379	4764.26
656.571	4604.52
656.763	4625
656.955	4563.56
657.148	4571.75
657.34	4610.66
657.532	4559.46
657.724	4637.28
657.916	4565.6
658.108	4452.97
658.3	4541.03
658.492	4428.39
658.684	4477.54
658.876	4524.65
659.068	4418.15
659.26	4373.1
659.452	4405.86
659.644	4401.77
659.836	4190.83
660.028	4217.45
660.22	4254.31
660.412	4153.96
660.604	4035.18
660.796	4188.78
660.988	4215.4
661.18	4059.76
661.372	4070
661.563	3967.6
661.755	3957.36
661.947	4092.52
662.139	3961.45
662.331	3928.69
662.522	3824.24
662.714	3979.89
662.906	4018.8
663.097	3877.49
663.289	3852.91
663.481	3830.38
663.673	3730.03
663.864	3834.48
664.056	3760.75
664.247	3736.18
664.439	3627.64
664.631	3613.3
664.822	3740.27
665.014	3652.21
665.205	3605.11
665.397	3644.02
665.588	3684.98
665.78	3617.4
665.971	3469.94
666.163	3601.01
666.354	3551.86
666.546	3611.25
666.737	3560.05
666.929	3476.09
667.12	3504.76
667.311	3398.26
667.503	3424.89
667.694	3353.21
667.885	3433.08
668.077	3508.85
668.268	3297.91
668.459	3435.13
668.651	3414.65
668.842	3439.22
669.033	3277.43
669.224	3203.71
669.416	3330.68
669.607	3345.02
669.798	3121.79
669.989	3252.86
670.18	3211.9
670.371	3172.99
670.563	3099.26
670.754	3166.84
670.945	3209.85
671.136	3113.6
671.327	3201.66
671.518	3203.71
671.709	3142.27
671.9	3181.18
672.091	3123.83
672.282	2976.38
672.473	2994.81
672.664	3039.87
672.855	2923.13
673.046	3066.49
673.237	2968.19
673.428	2882.17
673.619	2941.57
673.809	2937.47
674	2962.05
674.191	2892.41
674.382	2921.09
674.573	2914.94
674.764	2814.59
674.954	2888.32
675.145	2873.98
675.336	2777.73
675.527	2761.34
675.717	2845.31
675.908	2806.4
676.099	2708.1
676.289	2757.25
676.48	2771.58
676.671	2695.81
676.861	2804.35
677.052	2777.73
677.243	2648.71
677.433	2663.04
677.624	2785.92
677.814	2665.09
678.005	2695.81
678.195	2701.95
678.386	2775.68
678.576	2683.52
678.767	2654.85
678.957	2652.8
679.148	2574.98
679.338	2697.86
679.529	2656.9
679.719	2660.99
679.909	2624.13
680.1	2605.7
680.29	2534.02
680.481	2634.37
680.671	2601.6
680.861	2542.21
681.052	2595.46
681.242	2513.54
681.432	2644.61
681.622	2593.41
681.813	2515.59
682.003	2675.33
682.193	2572.93
682.383	2605.7
682.573	2591.36
682.764	2468.48
682.954	2560.64
683.144	2474.63
683.334	2519.68
683.524	2519.68
683.714	2521.73
683.904	2380.42
684.094	2550.4
684.284	2478.72
684.474	2515.59
684.664	2503.3
684.854	2445.96
685.044	2462.34
685.234	2474.63
685.424	2470.53
685.614	2382.47
685.804	2306.7
685.994	2374.28
686.184	2419.33
686.374	2407.05
686.564	2423.43
686.753	2433.67
686.943	2345.61
687.133	2380.42
687.323	2327.18
687.513	2409.09
687.702	2472.58
687.892	2325.13
688.082	2441.86
688.272	2368.13
688.461	2372.23
688.651	2269.83
688.841	2321.03
689.03	2292.36
689.22	2368.13
689.41	2278.02
689.599	2335.37
689.789	2308.74
689.979	2167.43
690.168	2304.65
690.358	2349.7
690.547	2271.88
690.737	2206.34
690.926	2245.26
691.116	2261.64
691.305	2212.49
691.495	2105.99
691.684	2245.26
691.874	2181.77
692.063	2292.36
692.252	2218.63
692.442	2366.09
692.631	2151.05
692.82	2161.29
693.01	2093.71
693.199	2149
693.388	2161.29
693.578	2200.2
693.767	2151.05
693.956	2142.86
694.146	2267.78
694.335	2091.66
694.524	2161.29
694.713	2062.99
694.902	2126.47
695.092	2054.8
695.281	1995.4
695.47	2253.45
695.659	2030.22
695.848	2079.37
696.037	1970.83
696.226	2056.84
696.415	2120.33
696.604	2011.79
696.793	2075.27
696.982	1952.4
697.171	2087.56
697.36	2085.51
697.549	2083.47
697.738	1983.12
697.927	2052.75
698.116	1970.83
698.305	2005.64
698.494	1950.35
698.683	2097.8
698.872	2019.98
699.061	2101.9
699.25	1952.4
699.438	2038.41
699.627	1954.44
699.816	2005.64
700.005	1968.78
700.193	1981.07
700.382	1899.15
700.571	2003.6
700.76	2046.6
700.948	2075.27
701.137	1911.44
701.326	1983.12
701.514	1899.15
701.703	1911.44
701.892	1870.48
702.08	2030.22
702.269	1911.44
702.457	1860.24
702.646	1903.25
702.834	1850
703.023	1831.57
703.212	1901.2
703.4	1882.77
703.589	1790.61
703.777	1979.02
703.965	1890.96
704.154	1956.49
704.342	1720.98
704.531	1913.49
704.719	1858.19
704.907	1874.57
705.096	1913.49
705.284	1825.42
705.472	1938.06
705.661	1819.28
705.849	1854.09
706.037	1716.88
706.226	1755.79
706.414	1839.76
706.602	1819.28
706.79	1845.9
706.979	1802.9
707.167	1790.61
707.355	1774.22
707.543	1809.04
707.731	1811.09
707.919	1813.13
708.107	1847.95
708.296	1854.09
708.484	1862.29
708.672	1839.76
708.86	1843.85
709.048	1790.61
709.236	1815.18
709.424	1774.22
709.612	1786.51
709.8	1780.37
709.988	1806.99
710.176	1761.94
710.364	1806.99
710.551	1759.89
710.739	1704.59
710.927	1766.03
711.115	1639.06
711.303	1702.54
711.491	1645.2
711.679	1696.4
711.866	1692.3
712.054	1796.75
712.242	1643.15
712.43	1677.97
712.617	1763.98
712.805	1630.87
712.993	1645.2
713.181	1579.67
713.368	1692.3
713.556	1567.38
713.744	1663.63
713.931	1680.02
714.119	1753.74
714.306	1581.71
714.494	1618.58
714.682	1696.4
714.869	1577.62
715.057	1663.63
715.244	1649.3
715.432	1528.47
715.619	1626.77
715.807	1585.81
715.994	1645.2
716.182	1561.23
716.369	1718.93
716.556	1626.77
716.744	1612.43
716.931	1514.13
717.119	1598.1
717.306	1499.8
717.493	1569.43
717.681	1639.06
717.868	1569.43
718.055	1538.71
718.242	1585.81
718.43	1606.29
718.617	1626.77
718.804	1690.26
718.991	1524.37
719.179	1520.28
719.366	1692.3
719.553	1645.2
719.74	1487.51
719.927	1532.56
720.114	1546.9
720.301	1585.81
720.488	1596.05
720.676	1643.15
720.863	1538.71
721.05	1616.53
721.237	1577.62
721.424	1485.46
721.611	1505.94
721.798	1434.26
721.985	1442.45
722.172	1479.32
722.358	1481.36
722.545	1524.37
722.732	1450.64
722.919	1409.69
723.106	1438.36
723.293	1438.36
723.48	1487.51
723.667	1452.69
723.853	1532.56
724.04	1458.84
724.227	1503.89
724.414	1452.69
724.6	1450.64
724.787	1397.4
724.974	1600.15
725.161	1385.11
725.347	1399.45
725.534	1385.11
725.72	1421.97
725.907	1346.2
726.094	1415.83
726.28	1493.65
726.467	1462.93
726.653	1448.6
726.84	1378.97
727.027	1501.84
727.213	1227.42
727.4	1399.45
727.586	1389.21
727.773	1405.59
727.959	1374.87
728.145	1301.14
728.332	1444.5
728.518	1409.69
728.705	1467.03
728.891	1360.53
729.077	1405.59
729.264	1411.73
729.45	1340.05
729.636	1471.12
729.823	1395.35
730.009	1387.16
730.195	1421.97
730.382	1331.86
730.568	1297.05
730.754	1438.36
730.94	1329.81
731.126	1452.69
731.313	1331.86
731.499	1352.34
731.685	1274.52
731.871	1356.44
732.057	1413.78
732.243	1458.84
732.429	1260.18
732.615	1319.57
732.801	1286.81
732.987	1311.38
733.173	1430.16
733.359	1358.49
733.545	1251.99
733.731	1286.81
733.917	1356.44
734.103	1311.38
734.289	1307.29
734.475	1299.09
734.661	1307.29
734.847	1274.52
735.033	1358.49
735.219	1266.33
735.404	1315.48
735.59	1381.01
735.776	1317.53
735.962	1344.15
736.148	1309.33
736.333	1258.14
736.519	1233.56
736.705	1278.62
736.89	1335.96
737.076	1372.82
737.262	1364.63
737.447	1299.09
737.633	1272.47
737.819	1258.14
738.004	1231.51
738.19	1165.98
738.375	1297.05
738.561	1286.81
738.747	1370.77
738.932	1163.93
739.118	1317.53
739.303	1190.55
739.489	1276.57
739.674	1307.29
739.859	1225.37
740.045	1251.99
740.23	1286.81
740.416	1219.22
740.601	1217.18
740.786	1229.46
740.972	1241.75
741.157	1176.22
741.342	1282.71
741.528	1258.14
741.713	1208.98
741.898	1286.81
742.084	1176.22
742.269	1174.17
742.454	1227.42
742.639	1208.98
742.824	1155.74
743.01	1249.94
743.195	1200.79
743.38	1153.69
743.565	1198.74
743.75	1165.98
743.935	1133.21
744.12	1180.31
744.305	1106.59
744.49	1127.07
744.675	1159.83
744.86	1157.78
745.045	1168.02
745.23	1125.02
745.415	1084.06
745.6	996
745.785	1106.59
745.97	1122.97
746.155	1176.22
746.34	1100.44
746.525	1071.77
746.71	1147.55
746.895	973.47
747.079	1086.11
747.264	1030.81
747.449	1094.3
747.634	1061.53
747.819	1036.95
748.003	1096.35
748.188	1047.19
748.373	1061.53
748.557	1012.38
748.742	1079.96
748.927	1020.57
749.111	1012.38
749.296	965.28
749.481	1061.53
749.665	1039
749.85	1004.19
750.034	1047.19
750.219	987.8
750.404	909.98
750.588	924.32
750.773	1016.48
750.957	979.61
751.141	1030.81
751.326	1024.67
751.51	922.27
751.695	881.31
751.879	920.22
752.064	965.28
752.248	928.41
752.432	883.36
752.617	957.08
752.801	973.47
752.985	891.55
753.17	844.45
753.354	826.01
753.538	866.97
753.722	842.4
753.907	866.97
754.091	848.54
754.275	817.82
754.459	881.31
754.643	869.02
754.828	842.4
755.012	821.92
755.196	783.01
755.38	826.01
755.564	795.29
755.748	895.64
755.932	801.44
756.116	776.86
756.3	729.76
756.484	805.53
756.668	719.52
756.852	735.9
757.036	746.14
757.22	783.01
757.404	744.1
757.588	725.66
757.772	711.33
757.956	799.39
758.14	725.66
758.323	787.1
758.507	686.75
758.691	746.14
758.875	672.42
759.059	735.9
759.242	733.86
759.426	709.28
759.61	656.03
759.794	705.18
759.977	662.18
760.161	713.38
760.345	715.42
760.528	692.9
760.712	709.28
760.895	627.36
761.079	604.83
761.263	660.13
761.446	610.98
761.63	694.94
761.813	715.42
761.997	676.51
762.18	707.23
762.364	752.29
762.547	582.31
762.731	670.37
762.914	623.27
763.098	719.52
763.281	635.55
763.464	641.7
763.648	694.94
763.831	631.46
764.015	692.9
764.198	729.76
764.381	727.71
764.564	621.22
764.748	574.11
764.931	662.18
765.114	594.59
765.297	547.49
765.481	557.73
765.664	613.03
765.847	696.99
766.03	637.6
766.213	539.3
766.397	596.64
766.58	625.31
766.763	615.07
766.946	692.9
767.129	529.06
767.312	592.55
767.495	508.58
767.678	522.91
767.861	686.75
768.044	608.93
768.227	600.74
768.41	678.56
768.593	535.2
768.776	600.74
768.959	549.54
769.142	477.86
769.324	578.21
769.507	529.06
769.69	539.3
769.873	553.63
770.056	627.36
770.239	502.43
770.421	500.39
770.604	594.59
770.787	490.15
770.97	615.07
771.152	479.91
771.335	504.48
771.518	475.81
771.7	543.39
771.883	553.63
772.066	535.2
772.248	479.91
772.431	434.85
772.613	539.3
772.796	428.71
772.978	559.78
773.161	516.77
773.343	477.86
773.526	420.52
773.708	504.48
773.891	430.76
774.073	488.1
774.256	465.57
774.438	467.62
774.621	488.1
774.803	465.57
774.985	498.34
775.168	479.91
775.35	424.61
775.532	481.96
775.715	461.48
775.897	484
776.079	385.7
776.261	467.62
776.444	469.67
776.626	481.96
776.808	463.52
776.99	379.56
777.173	410.28
777.355	426.66
777.537	367.27
777.719	408.23
777.901	426.66
778.083	461.48
778.265	414.37
778.447	406.18
778.629	350.89
778.811	451.24
778.993	338.6
779.175	441
779.357	412.32
779.539	420.52
779.721	359.08
779.903	385.7
780.085	340.65
780.267	316.07
780.449	426.66
780.631	420.52
780.812	324.26
780.994	402.08
781.176	320.17
781.358	363.17
781.54	402.08
781.721	365.22
781.903	406.18
782.085	375.46
782.267	357.03
782.448	350.89
782.63	244.39
782.812	397.99
782.993	391.84
783.175	324.26
783.357	279.21
783.538	326.31
783.72	275.11
783.901	348.84
784.083	213.67
784.264	291.49
784.446	287.4
784.627	316.07
784.809	262.82
784.99	299.69
785.172	205.48
785.353	309.93
785.535	326.31
785.716	295.59
785.897	277.16
786.079	271.01
786.26	297.64
786.441	295.59
786.623	271.01
786.804	266.92
786.985	279.21
787.167	240.29
787.348	279.21
787.529	268.97
787.71	318.12
787.891	268.97
788.073	277.16
788.254	246.44
788.435	197.29
788.616	287.4
788.797	314.02
788.978	254.63
789.159	203.43
789.34	291.49
789.522	207.53
789.703	277.16
789.884	260.77
790.065	252.58
790.246	271.01
790.427	230.06
790.607	277.16
790.788	277.16
790.969	209.58
791.15	254.63
791.331	252.58
791.512	240.29
791.693	256.68
791.874	217.77
792.054	228.01
792.235	264.87
792.416	271.01
792.597	268.97
792.778	221.86
792.958	185
793.139	207.53
793.32	193.19
793.5	195.24
793.681	318.12
793.862	262.82
794.042	187.05
794.223	221.86
794.404	266.92
794.584	150.18
794.765	117.42
794.945	201.38
795.126	217.77
795.306	172.71
795.487	201.38
795.667	242.34
795.848	262.82
796.028	172.71
796.209	213.67
796.389	182.95
796.57	189.1
796.75	156.33
796.93	203.43
797.111	172.71
797.291	244.39
797.471	166.57
797.652	201.38
797.832	119.46
798.012	193.19
798.192	152.23
798.373	170.66
798.553	160.42
798.733	154.28
798.913	242.34
799.093	209.58
799.274	166.57
799.454	217.77
799.634	146.09
799.814	223.91
799.994	166.57
800.174	219.82
800.354	162.47
800.534	127.66
800.714	185
800.894	232.1
801.074	135.85
801.254	137.9
801.434	240.29
801.614	94.89
801.794	191.14
801.974	377.51
802.154	131.75
802.334	139.94
802.514	168.62
802.693	174.76
802.873	109.22
803.053	146.09
803.233	209.58
803.413	113.32
803.592	234.15
803.772	160.42
803.952	78.51
804.131	178.86
804.311	150.18
804.491	105.13
804.67	113.32
804.85	53.93
805.03	94.89
805.209	131.75
805.389	139.94
805.568	154.28
805.748	107.18
805.928	139.94
806.107	168.62
806.287	121.51
806.466	152.23
806.646	117.42
806.825	115.37
807.004	152.23
807.184	146.09
807.363	164.52
807.543	127.66
807.722	133.8
807.901	195.24
808.081	195.24
808.26	129.7
808.439	55.98
808.619	139.94
808.798	137.9
808.977	51.88
809.156	84.65
809.336	107.18
809.515	150.18
809.694	88.75
809.873	113.32
810.052	135.85
810.231	117.42
810.411	144.04
810.59	146.09
810.769	127.66
810.948	176.81
811.127	62.12
811.306	66.22
811.485	107.18
811.664	45.74
811.843	98.99
812.022	86.7
812.201	107.18
812.38	150.18
812.559	160.42
812.737	107.18
812.916	133.8
813.095	144.04
813.274	-25.94
813.453	121.51
813.632	88.75
813.811	123.56
813.989	144.04
814.168	98.99
814.347	80.55
814.526	88.75
814.704	158.38
814.883	135.85
815.062	80.55
815.24	201.38
815.419	74.41
815.598	78.51
815.776	60.07
815.955	109.22
816.133	117.42
816.312	78.51
816.49	125.61
816.669	96.94
816.847	33.45
817.026	88.75
817.204	111.27
817.383	164.52
817.561	49.83
817.74	103.08
817.918	111.27
818.097	109.22
818.275	64.17
818.453	101.03
818.632	84.65
818.81	103.08
818.988	127.66
819.167	29.35
819.345	80.55
819.523	98.99
819.701	111.27
819.879	141.99
820.058	45.74
820.236	51.88
820.414	41.64
820.592	80.55
820.77	74.41
820.948	51.88
821.127	51.88
821.305	96.94
821.483	68.27
821.661	148.14
821.839	64.17
822.017	62.12
822.195	86.7
822.373	72.36
822.551	68.27
822.729	94.89
822.907	101.03
823.085	109.22
823.262	49.83
823.44	68.27
823.618	103.08
823.796	96.94
823.974	62.12
824.152	82.6
824.329	49.83
824.507	62.12
824.685	80.55
824.863	96.94
825.04	105.13
825.218	117.42
825.396	39.59
825.574	86.7
825.751	15.02
825.929	117.42
826.107	109.22
826.284	58.03
826.462	64.17
826.639	107.18
826.817	29.35
826.994	4.78
827.172	53.93
827.349	88.75
827.527	119.46
827.704	47.79
827.882	66.22
828.059	82.6
828.237	51.88
828.414	76.46
828.591	23.21
828.769	72.36
828.946	72.36
829.124	33.45
829.301	92.84
829.478	88.75
829.655	115.37
829.833	19.11
830.01	43.69
830.187	105.13
830.364	55.98
830.542	64.17
830.719	62.12
830.896	78.51
831.073	25.26
831.25	105.13
831.427	15.02
831.604	80.55
831.782	8.87
831.959	92.84
832.136	125.61
832.313	68.27
832.49	60.07
832.667	103.08
832.844	103.08
833.021	88.75
833.198	60.07
833.374	53.93
833.551	68.27
833.728	43.69
833.905	90.79
834.082	35.5
834.259	-23.89
834.436	84.65
834.612	68.27
834.789	111.27
834.966	-46.42
835.143	146.09
835.319	58.03
835.496	29.35
835.673	45.74
835.85	101.03
836.026	58.03
836.203	84.65
836.38	-1.37
836.556	80.55
836.733	8.87
836.909	105.13
837.086	10.92
837.262	60.07
837.439	55.98
837.616	19.11
837.792	60.07
837.968	-7.51
838.145	43.69
838.321	66.22
838.498	74.41
838.674	35.5
838.851	17.07
839.027	62.12
839.203	72.36
839.38	45.74
839.556	12.97
839.732	43.69
839.909	19.11
840.085	88.75
840.261	23.21
840.437	86.7
840.614	49.83
840.79	39.59
840.966	70.31
841.142	21.16
841.318	2.73
841.494	47.79
841.671	78.51
841.847	103.08
842.023	19.11
842.199	82.6
842.375	-23.89
842.551	37.55
842.727	76.46
842.903	121.51
843.079	84.65
843.255	17.07
843.431	80.55
843.607	-1.37
843.783	10.92
843.959	17.07
844.134	15.02
844.31	80.55
844.486	2.73
844.662	45.74
844.838	27.31
845.013	66.22
845.189	82.6
845.365	43.69
845.541	58.03
845.716	72.36
845.892	43.69
846.068	25.26
846.244	21.16
846.419	64.17
846.595	55.98
846.77	4.78
846.946	49.83
847.122	15.02
847.297	15.02
847.473	17.07
847.648	82.6
847.824	25.26
847.999	51.88
848.175	66.22
848.35	119.46
848.526	74.41
848.701	-50.52
848.876	17.07
849.052	141.99
849.227	41.64
849.403	45.74
849.578	84.65
849.753	23.21
849.929	37.55
850.104	6.83
850.279	51.88
850.454	62.12
850.63	15.02
850.805	0.68
850.98	98.99
851.155	-1.37
851.33	88.75
851.505	74.41
851.681	21.16
851.856	-25.94
852.031	10.92
852.206	60.07
852.381	8.87
852.556	25.26
852.731	-17.75
852.906	41.64
853.081	80.55
853.256	0.68
853.431	84.65
853.606	60.07
853.781	41.64
853.956	80.55
854.131	64.17
854.305	31.4
854.48	62.12
854.655	31.4
854.83	21.16
855.005	29.35
855.18	23.21
855.354	-44.37
855.529	80.55
855.704	39.59
855.879	58.03
856.053	-13.65
856.228	76.46
856.403	109.22
856.577	45.74
856.752	-1.37
856.926	2.73
857.101	53.93
857.276	66.22
857.45	80.55
857.625	37.55
857.799	45.74
857.974	72.36
858.148	-19.8
858.323	2.73
858.497	17.07
858.672	31.4
858.846	45.74
859.02	92.84
859.195	49.83
859.369	35.5
859.543	66.22
859.718	-17.75
859.892	-1.37
860.066	78.51
860.241	17.07
860.415	49.83
860.589	15.02
860.763	12.97
860.938	12.97
861.112	12.97
861.286	-19.8
861.46	12.97
861.634	23.21
861.808	47.79
861.982	41.64
862.157	76.46
862.331	31.4
862.505	51.88
862.679	4.78
862.853	31.4
863.027	-11.61
863.201	39.59
863.375	-32.08
863.549	25.26
863.722	45.74
863.896	-5.46
864.07	-21.85
864.244	64.17
864.418	-64.85
864.592	117.42
864.766	25.26
864.939	55.98
865.113	45.74
865.287	92.84
865.461	17.07
865.634	23.21
865.808	41.64
865.982	101.03
866.156	2.73
866.329	4.78
866.503	45.74
866.676	45.74
866.85	88.75
867.024	64.17
867.197	19.11
867.371	10.92
867.544	-48.47
867.718	2.73
867.891	35.5
868.065	121.51
868.238	74.41
868.412	21.16
868.585	23.21
868.759	4.78
868.932	4.78
869.105	29.35
869.279	35.5
869.452	33.45
869.625	113.32
869.799	51.88
869.972	29.35
870.145	64.17
870.319	-1.37
870.492	19.11
870.665	-17.75
870.838	4.78
871.011	-7.51
871.185	-3.41
871.358	35.5
871.531	53.93
871.704	19.11
871.877	25.26
872.05	-34.13
872.223	-7.51
872.396	21.16
872.569	70.31
872.742	8.87
872.915	47.79
873.088	4.78
873.261	19.11
873.434	105.13
873.607	113.32
873.78	27.31
873.953	58.03
874.126	51.88
874.299	111.27
874.471	-1.37
874.644	-5.46
874.817	55.98
874.99	-21.85
875.163	35.5
875.335	68.27
875.508	-21.85
875.681	62.12
875.853	12.97
876.026	-11.61
876.199	-7.51
876.371	55.98
876.544	58.03
876.717	4.78
876.889	-11.61
877.062	47.79
877.234	45.74
877.407	41.64
877.579	62.12
877.752	-1.37
877.924	-23.89
878.097	31.4
878.269	55.98
878.442	39.59
878.614	90.79
878.786	6.83
878.959	39.59
879.131	15.02
879.303	21.16
879.476	43.69
879.648	10.92
879.82	21.16
879.993	-9.56
880.165	90.79
880.337	-19.8
880.509	4.78
880.681	-36.18
880.854	41.64
881.026	39.59
881.198	8.87
881.37	78.51
881.542	45.74
881.714	33.45
881.886	55.98
882.058	-23.89
882.23	49.83
882.402	19.11
882.574	10.92
882.746	-3.41
882.918	74.41
883.09	49.83
883.262	-3.41
883.434	0.68
883.606	-32.08
883.778	-42.32
883.95	21.16
884.122	39.59
884.293	84.65
884.465	33.45
884.637	80.55
884.809	8.87
884.98	21.16
885.152	41.64
885.324	39.59
885.496	25.26
885.667	94.89
885.839	4.78
886.011	45.74
886.182	31.4
886.354	27.31
886.525	47.79
886.697	10.92
886.869	15.02
887.04	45.74
887.212	43.69
887.383	-5.46
887.555	31.4
887.726	17.07
887.897	31.4
888.069	-44.37
888.24	-71
888.412	70.31
888.583	23.21
888.754	55.98
888.926	15.02
889.097	2.73
889.268	23.21
889.44	-25.94
889.611	-27.99
889.782	-9.56
889.953	-27.99
890.125	39.59
890.296	-21.85
890.467	-1.37
890.638	43.69
890.809	58.03
890.98	37.55
891.151	19.11
891.323	78.51
891.494	29.35
891.665	25.26
891.836	45.74
892.007	4.78
892.178	-97.62
892.349	21.16
892.52	74.41
892.691	-17.75
892.862	68.27
893.032	35.5
893.203	33.45
893.374	17.07
893.545	39.59
893.716	31.4
893.887	0.68
894.057	39.59
894.228	74.41
894.399	43.69
894.57	-56.66
894.74	17.07
894.911	15.02
895.082	-44.37
895.253	-1.37
895.423	-95.57
895.594	78.51
895.764	-73.04
895.935	49.83
896.106	-79.19
896.276	23.21
896.447	-79.19
896.617	4.78
896.788	58.03
896.958	72.36
897.129	-1.37
897.299	17.07
897.47	60.07
897.64	25.26
897.81	-19.8
897.981	-1.37
898.151	8.87
898.322	-5.46
898.492	-7.51
898.662	41.64
898.832	-7.51
899.003	-1.37
899.173	31.4
899.343	27.31
899.513	6.83
