Data from USB4F104151__23__12-58-38-419.txt Node

Date: Fri Mar 14 12:58:38 EDT 2025
User: louis
Spectrometer: USB4F10415
Trigger mode: 4
Integration Time (sec): 1.000000E-2
Scans to average: 1
Electric dark correction enabled: true
Nonlinearity correction enabled: false
Boxcar width: 0
XAxis mode: Wavelengths
Number of Pixels in Spectrum: 3648
>>>>>Begin Spectral Data<<<<<
178.204	-49.15
178.424	-49.15
178.644	-49.15
178.864	12.29
179.084	-34.82
179.304	40.96
179.524	18.43
179.744	57.34
179.964	0
180.184	-22.53
180.404	-26.62
180.624	-45.06
180.844	-47.1
181.064	-18.43
181.283	6.14
181.503	-2.05
181.723	38.91
181.943	30.72
182.163	8.19
182.383	-36.86
182.602	-8.19
182.822	0
183.042	-18.43
183.262	-73.73
183.482	57.34
183.701	-38.91
183.921	0
184.141	40.96
184.361	-22.53
184.58	0
184.8	49.15
185.02	-51.2
185.239	14.34
185.459	-43.01
185.679	-34.82
185.898	-36.86
186.118	108.54
186.338	32.77
186.557	22.53
186.777	12.29
186.997	49.15
187.216	-8.19
187.436	26.62
187.655	10.24
187.875	28.67
188.095	-8.19
188.314	-4.1
188.534	65.53
188.753	-24.58
188.973	22.53
189.192	30.72
189.412	-24.58
189.631	24.58
189.851	22.53
190.07	-18.43
190.29	-63.49
190.509	28.67
190.729	-4.1
190.948	59.39
191.168	-6.14
191.387	0
191.607	32.77
191.826	30.72
192.045	67.58
192.265	71.68
192.484	40.96
192.704	20.48
192.923	6.14
193.142	-6.14
193.362	16.38
193.581	-32.77
193.8	14.34
194.02	6.14
194.239	36.86
194.458	38.91
194.678	30.72
194.897	32.77
195.116	49.15
195.335	-16.38
195.555	26.62
195.774	6.14
195.993	8.19
196.212	2.05
196.432	0
196.651	-38.91
196.87	-63.49
197.089	49.15
197.308	-8.19
197.528	40.96
197.747	-40.96
197.966	-24.58
198.185	14.34
198.404	-65.54
198.623	32.77
198.842	43.01
199.062	28.67
199.281	16.38
199.5	-22.53
199.719	-6.14
199.938	57.34
200.157	38.91
200.376	-14.34
200.595	51.2
200.814	6.14
201.033	-4.1
201.252	10.24
201.471	75.77
201.69	36.86
201.909	24.58
202.128	-12.29
202.347	-6.14
202.566	4.1
202.785	36.86
203.004	47.1
203.223	-30.72
203.442	-28.67
203.661	-63.49
203.879	6.14
204.098	-2.05
204.317	-34.82
204.536	47.1
204.755	-18.43
204.974	-26.62
205.193	12.29
205.411	30.72
205.63	-34.82
205.849	40.96
206.068	32.77
206.287	-16.38
206.505	43.01
206.724	2.05
206.943	63.49
207.162	77.82
207.381	4.1
207.599	14.34
207.818	40.96
208.037	-8.19
208.255	-26.62
208.474	-22.53
208.693	6.14
208.911	43.01
209.13	38.91
209.349	47.1
209.567	28.67
209.786	6.14
210.005	8.19
210.223	88.06
210.442	30.72
210.661	16.38
210.879	20.48
211.098	55.3
211.316	47.1
211.535	32.77
211.753	36.86
211.972	-16.38
212.191	-34.82
212.409	67.58
212.628	18.43
212.846	65.53
213.065	14.34
213.283	69.63
213.502	-24.58
213.72	22.53
213.938	18.43
214.157	86.01
214.375	-34.82
214.594	40.96
214.812	67.58
215.031	4.1
215.249	24.58
215.467	6.14
215.686	73.73
215.904	38.91
216.122	4.1
216.341	6.14
216.559	6.14
216.778	8.19
216.996	6.14
217.214	14.34
217.432	-40.96
217.651	45.06
217.869	-2.05
218.087	47.1
218.306	12.29
218.524	10.24
218.742	0
218.96	86.01
219.179	32.77
219.397	-34.82
219.615	18.43
219.833	67.58
220.051	-40.96
220.27	18.43
220.488	2.05
220.706	24.58
220.924	24.58
221.142	55.3
221.36	16.38
221.578	6.14
221.796	51.2
222.015	-16.38
222.233	96.25
222.451	65.53
222.669	4.1
222.887	71.68
223.105	-59.39
223.323	61.44
223.541	-36.86
223.759	-8.19
223.977	-6.14
224.195	-20.48
224.413	32.77
224.631	-2.05
224.849	-6.14
225.067	59.39
225.285	49.15
225.503	32.77
225.721	-16.38
225.939	47.1
226.157	-22.53
226.375	49.15
226.592	12.29
226.81	34.82
227.028	53.25
227.246	63.49
227.464	14.34
227.682	36.86
227.9	108.54
228.117	0
228.335	38.91
228.553	-12.29
228.771	-22.53
228.989	83.97
229.206	49.15
229.424	0
229.642	-4.1
229.86	-18.43
230.077	73.73
230.295	40.96
230.513	55.3
230.731	2.05
230.948	88.06
231.166	-4.1
231.384	-24.58
231.601	32.77
231.819	43.01
232.037	-32.77
232.254	53.25
232.472	51.2
232.689	-36.86
232.907	45.06
233.125	-69.63
233.342	38.91
233.56	45.06
233.777	22.53
233.995	8.19
234.213	4.1
234.43	2.05
234.648	-59.39
234.865	10.24
235.083	10.24
235.3	-65.54
235.518	-20.48
235.735	-12.29
235.953	4.1
236.17	-28.67
236.388	-30.72
236.605	-26.62
236.822	22.53
237.04	40.96
237.257	34.82
237.475	-8.19
237.692	32.77
237.909	61.44
238.127	81.92
238.344	12.29
238.562	18.43
238.779	-20.48
238.996	47.1
239.214	34.82
239.431	-2.05
239.648	-43.01
239.865	12.29
240.083	-8.19
240.3	-16.38
240.517	63.49
240.735	51.2
240.952	14.34
241.169	30.72
241.386	32.77
241.603	102.4
241.821	-28.67
242.038	-22.53
242.255	90.11
242.472	36.86
242.689	77.82
242.907	16.38
243.124	14.34
243.341	-4.1
243.558	65.53
243.775	57.34
243.992	22.53
244.209	-22.53
244.426	71.68
244.643	-12.29
244.86	8.19
245.078	12.29
245.295	59.39
245.512	-18.43
245.729	22.53
245.946	-4.1
246.163	38.91
246.38	32.77
246.597	57.34
246.814	53.25
247.031	51.2
247.248	8.19
247.464	24.58
247.681	55.3
247.898	-40.96
248.115	47.1
248.332	18.43
248.549	10.24
248.766	18.43
248.983	22.53
249.2	-32.77
249.417	55.3
249.633	-65.54
249.85	-6.14
250.067	14.34
250.284	4.1
250.501	22.53
250.717	49.15
250.934	-10.24
251.151	26.62
251.368	-10.24
251.585	38.91
251.801	-38.91
252.018	30.72
252.235	-8.19
252.451	49.15
252.668	45.06
252.885	6.14
253.102	22.53
253.318	40.96
253.535	6.14
253.752	-24.58
253.968	65.53
254.185	49.15
254.401	16.38
254.618	90.11
254.835	-32.77
255.051	-2.05
255.268	34.82
255.484	40.96
255.701	-6.14
255.917	67.58
256.134	26.62
256.351	-45.06
256.567	14.34
256.784	18.43
257	28.67
257.217	-4.1
257.433	26.62
257.65	22.53
257.866	14.34
258.082	-30.72
258.299	83.97
258.515	73.73
258.732	-6.14
258.948	61.44
259.165	-2.05
259.381	-22.53
259.597	-24.58
259.814	14.34
260.03	16.38
260.246	12.29
260.463	14.34
260.679	43.01
260.895	14.34
261.112	57.34
261.328	49.15
261.544	30.72
261.761	81.92
261.977	94.21
262.193	8.19
262.409	24.58
262.626	-8.19
262.842	-12.29
263.058	-24.58
263.274	-12.29
263.49	-4.1
263.707	6.14
263.923	45.06
264.139	49.15
264.355	34.82
264.571	30.72
264.787	-8.19
265.004	-36.86
265.22	-8.19
265.436	2.05
265.652	22.53
265.868	0
266.084	2.05
266.3	28.67
266.516	8.19
266.732	106.49
266.948	36.86
267.164	30.72
267.38	0
267.596	43.01
267.812	61.44
268.028	71.68
268.244	-53.25
268.46	38.91
268.676	110.59
268.892	-8.19
269.108	22.53
269.324	10.24
269.54	14.34
269.756	8.19
269.972	22.53
270.188	57.34
270.403	51.2
270.619	38.91
270.835	38.91
271.051	-12.29
271.267	-40.96
271.483	-10.24
271.698	116.73
271.914	34.82
272.13	-16.38
272.346	47.1
272.562	59.39
272.777	79.87
272.993	-36.86
273.209	22.53
273.425	-53.25
273.64	43.01
273.856	-2.05
274.072	-10.24
274.287	-36.86
274.503	26.62
274.719	-38.91
274.934	71.68
275.15	10.24
275.366	12.29
275.581	-4.1
275.797	8.19
276.012	-10.24
276.228	43.01
276.444	-4.1
276.659	55.3
276.875	-8.19
277.09	-18.43
277.306	53.25
277.521	38.91
277.737	22.53
277.952	16.38
278.168	2.05
278.383	30.72
278.599	51.2
278.814	8.19
279.03	0
279.245	53.25
279.461	-26.62
279.676	-16.38
279.892	36.86
280.107	-4.1
280.322	69.63
280.538	8.19
280.753	18.43
280.969	116.73
281.184	47.1
281.399	45.06
281.615	0
281.83	24.58
282.045	14.34
282.26	-51.2
282.476	40.96
282.691	8.19
282.906	24.58
283.122	26.62
283.337	-51.2
283.552	2.05
283.767	32.77
283.983	10.24
284.198	26.62
284.413	22.53
284.628	-61.44
284.843	-57.34
285.058	59.39
285.274	-6.14
285.489	-24.58
285.704	49.15
285.919	47.1
286.134	38.91
286.349	6.14
286.564	-16.38
286.779	45.06
286.995	0
287.21	-6.14
287.425	47.1
287.64	63.49
287.855	14.34
288.07	-40.96
288.285	32.77
288.5	16.38
288.715	32.77
288.93	-14.34
289.145	20.48
289.36	55.3
289.575	61.44
289.79	-4.1
290.004	-30.72
290.219	79.87
290.434	51.2
290.649	22.53
290.864	-38.91
291.079	45.06
291.294	30.72
291.509	-18.43
291.724	10.24
291.938	12.29
292.153	47.1
292.368	36.86
292.583	6.14
292.798	-4.1
293.012	-8.19
293.227	61.44
293.442	81.92
293.657	18.43
293.871	40.96
294.086	2.05
294.301	26.62
294.516	67.58
294.73	0
294.945	-65.54
295.16	14.34
295.374	51.2
295.589	8.19
295.804	0
296.018	-10.24
296.233	22.53
296.447	57.34
296.662	26.62
296.877	83.97
297.091	-18.43
297.306	-43.01
297.52	14.34
297.735	34.82
297.949	43.01
298.164	2.05
298.378	22.53
298.593	20.48
298.807	-4.1
299.022	28.67
299.236	-34.82
299.451	-2.05
299.665	45.06
299.88	-57.34
300.094	14.34
300.309	-34.82
300.523	8.19
300.737	-92.16
300.952	4.1
301.166	16.38
301.381	131.07
301.595	32.77
301.809	32.77
302.024	-30.72
302.238	-16.38
302.452	47.1
302.667	-32.77
302.881	20.48
303.095	-26.62
303.309	6.14
303.524	-24.58
303.738	36.86
303.952	40.96
304.166	63.49
304.381	-47.1
304.595	77.82
304.809	16.38
305.023	49.15
305.237	16.38
305.452	20.48
305.666	-69.63
305.88	67.58
306.094	-14.34
306.308	59.39
306.522	-22.53
306.736	32.77
306.95	24.58
307.164	96.25
307.379	-20.48
307.593	57.34
307.807	26.62
308.021	43.01
308.235	71.68
308.449	-2.05
308.663	-26.62
308.877	45.06
309.091	36.86
309.305	26.62
309.519	102.4
309.733	55.3
309.947	-69.63
310.161	32.77
310.374	-12.29
310.588	67.58
310.802	-30.72
311.016	81.92
311.23	10.24
311.444	22.53
311.658	-2.05
311.872	79.87
312.085	63.49
312.299	43.01
312.513	47.1
312.727	-16.38
312.941	4.1
313.154	0
313.368	20.48
313.582	63.49
313.796	49.15
314.009	61.44
314.223	59.39
314.437	34.82
314.651	-6.14
314.864	43.01
315.078	-38.91
315.292	32.77
315.505	73.73
315.719	43.01
315.933	59.39
316.146	137.21
316.36	22.53
316.573	169.98
316.787	32.77
317.001	-30.72
317.214	-22.53
317.428	10.24
317.641	30.72
317.855	-12.29
318.068	40.96
318.282	18.43
318.495	38.91
318.709	65.53
318.922	-12.29
319.136	26.62
319.349	0
319.563	22.53
319.776	-30.72
319.99	51.2
320.203	98.3
320.417	75.77
320.63	90.11
320.843	2.05
321.057	47.1
321.27	24.58
321.483	20.48
321.697	47.1
321.91	32.77
322.124	32.77
322.337	49.15
322.55	24.58
322.763	47.1
322.977	20.48
323.19	6.14
323.403	12.29
323.617	24.58
323.83	-6.14
324.043	32.77
324.256	-16.38
324.469	57.34
324.683	-40.96
324.896	67.58
325.109	32.77
325.322	-8.19
325.535	-14.34
325.748	63.49
325.962	-43.01
326.175	6.14
326.388	-18.43
326.601	16.38
326.814	-2.05
327.027	-2.05
327.24	110.59
327.453	61.44
327.666	-43.01
327.879	6.14
328.092	36.86
328.305	51.2
328.518	55.3
328.731	55.3
328.944	6.14
329.157	28.67
329.37	-6.14
329.583	55.3
329.796	26.62
330.009	18.43
330.222	2.05
330.435	18.43
330.648	24.58
330.861	-34.82
331.073	51.2
331.286	36.86
331.499	-16.38
331.712	38.91
331.925	32.77
332.138	55.3
332.35	53.25
332.563	-12.29
332.776	30.72
332.989	-8.19
333.202	0
333.414	-18.43
333.627	59.39
333.84	0
334.053	61.44
334.265	38.91
334.478	10.24
334.691	49.15
334.903	55.3
335.116	-8.19
335.329	38.91
335.541	12.29
335.754	20.48
335.966	22.53
336.179	-18.43
336.392	-63.49
336.604	30.72
336.817	20.48
337.029	65.53
337.242	18.43
337.454	-26.62
337.667	75.77
337.88	53.25
338.092	49.15
338.305	124.93
338.517	32.77
338.729	40.96
338.942	-96.25
339.154	28.67
339.367	55.3
339.579	92.16
339.792	18.43
340.004	92.16
340.217	43.01
340.429	16.38
340.641	-18.43
340.854	38.91
341.066	2.05
341.278	57.34
341.491	79.87
341.703	14.34
341.915	26.62
342.128	8.19
342.34	30.72
342.552	10.24
342.764	14.34
342.977	20.48
343.189	4.1
343.401	-10.24
343.613	16.38
343.826	45.06
344.038	-32.77
344.25	34.82
344.462	-36.86
344.674	30.72
344.886	-32.77
345.099	-10.24
345.311	67.58
345.523	0
345.735	63.49
345.947	16.38
346.159	-6.14
346.371	26.62
346.583	-51.2
346.795	55.3
347.007	12.29
347.219	8.19
347.431	18.43
347.643	22.53
347.855	6.14
348.067	88.06
348.279	69.63
348.491	-16.38
348.703	-2.05
348.915	6.14
349.127	28.67
349.339	24.58
349.551	8.19
349.763	34.82
349.975	26.62
350.187	143.36
350.399	-16.38
350.61	-8.19
350.822	26.62
351.034	51.2
351.246	38.91
351.458	18.43
351.669	0
351.881	20.48
352.093	45.06
352.305	18.43
352.517	16.38
352.728	112.64
352.94	6.14
353.152	4.1
353.363	40.96
353.575	65.53
353.787	98.3
353.999	69.63
354.21	65.53
354.422	-22.53
354.633	36.86
354.845	49.15
355.057	61.44
355.268	6.14
355.48	61.44
355.692	53.25
355.903	43.01
356.115	30.72
356.326	24.58
356.538	57.34
356.749	77.82
356.961	-53.25
357.172	22.53
357.384	-2.05
357.595	-8.19
357.807	40.96
358.018	6.14
358.23	36.86
358.441	30.72
358.653	32.77
358.864	26.62
359.075	51.2
359.287	24.58
359.498	90.11
359.709	0
359.921	-36.86
360.132	24.58
360.344	34.82
360.555	-14.34
360.766	32.77
360.977	12.29
361.189	67.58
361.4	10.24
361.611	34.82
361.823	-16.38
362.034	0
362.245	-10.24
362.456	53.25
362.667	-28.67
362.879	38.91
363.09	30.72
363.301	61.44
363.512	30.72
363.723	16.38
363.935	6.14
364.146	71.68
364.357	8.19
364.568	63.49
364.779	67.58
364.99	22.53
365.201	53.25
365.412	14.34
365.623	-53.25
365.834	-34.82
366.045	18.43
366.256	8.19
366.467	12.29
366.678	77.82
366.889	38.91
367.1	22.53
367.311	18.43
367.522	16.38
367.733	49.15
367.944	55.3
368.155	32.77
368.366	2.05
368.577	59.39
368.788	63.49
368.999	-36.86
369.209	6.14
369.42	159.74
369.631	88.06
369.842	79.87
370.053	2.05
370.264	24.58
370.474	61.44
370.685	75.77
370.896	59.39
371.107	18.43
371.317	20.48
371.528	4.1
371.739	61.44
371.95	14.34
372.16	69.63
372.371	-12.29
372.582	22.53
372.792	-10.24
373.003	-18.43
373.214	30.72
373.424	63.49
373.635	14.34
373.846	-26.62
374.056	-43.01
374.267	12.29
374.477	55.3
374.688	40.96
374.898	20.48
375.109	71.68
375.319	43.01
375.53	43.01
375.74	24.58
375.951	24.58
376.161	2.05
376.372	51.2
376.582	32.77
376.793	65.53
377.003	108.54
377.214	53.25
377.424	32.77
377.635	14.34
377.845	30.72
378.055	-28.67
378.266	4.1
378.476	47.1
378.686	83.97
378.897	16.38
379.107	22.53
379.317	4.1
379.528	81.92
379.738	73.73
379.948	38.91
380.158	40.96
380.369	38.91
380.579	36.86
380.789	57.34
380.999	69.63
381.21	-36.86
381.42	67.58
381.63	18.43
381.84	32.77
382.05	47.1
382.261	49.15
382.471	75.77
382.681	47.1
382.891	22.53
383.101	-18.43
383.311	38.91
383.521	34.82
383.731	53.25
383.941	83.97
384.151	94.21
384.361	51.2
384.571	18.43
384.781	22.53
384.991	34.82
385.201	57.34
385.411	51.2
385.621	47.1
385.831	-12.29
386.041	69.63
386.251	-6.14
386.461	106.49
386.671	67.58
386.881	14.34
387.091	-32.77
387.301	2.05
387.511	2.05
387.72	51.2
387.93	49.15
388.14	40.96
388.35	65.53
388.56	49.15
388.769	-47.1
388.979	24.58
389.189	53.25
389.399	57.34
389.609	-20.48
389.818	90.11
390.028	-43.01
390.238	36.86
390.447	79.87
390.657	14.34
390.867	-26.62
391.076	38.91
391.286	-32.77
391.496	73.73
391.705	30.72
391.915	30.72
392.125	90.11
392.334	61.44
392.544	57.34
392.753	22.53
392.963	47.1
393.172	8.19
393.382	-16.38
393.591	61.44
393.801	73.73
394.01	51.2
394.22	22.53
394.429	63.49
394.639	-10.24
394.848	149.5
395.058	40.96
395.267	55.3
395.477	14.34
395.686	51.2
395.895	106.49
396.105	114.69
396.314	14.34
396.524	30.72
396.733	-12.29
396.942	71.68
397.152	77.82
397.361	26.62
397.57	30.72
397.78	34.82
397.989	36.86
398.198	67.58
398.407	90.11
398.617	88.06
398.826	61.44
399.035	59.39
399.244	137.21
399.453	108.54
399.663	43.01
399.872	38.91
400.081	83.97
400.29	75.77
400.499	55.3
400.708	57.34
400.917	51.2
401.127	40.96
401.336	88.06
401.545	73.73
401.754	69.63
401.963	131.07
402.172	67.58
402.381	24.58
402.59	22.53
402.799	40.96
403.008	40.96
403.217	14.34
403.426	73.73
403.635	90.11
403.844	55.3
404.053	75.77
404.262	98.3
404.471	133.12
404.68	6.14
404.888	8.19
405.097	96.25
405.306	137.21
405.515	71.68
405.724	77.82
405.933	172.03
406.142	149.5
406.35	118.78
406.559	102.4
406.768	40.96
406.977	75.77
407.185	151.55
407.394	94.21
407.603	71.68
407.812	86.01
408.02	149.5
408.229	137.21
408.438	116.73
408.646	174.08
408.855	124.93
409.064	182.27
409.272	131.07
409.481	194.56
409.69	180.22
409.898	219.13
410.107	163.84
410.315	192.51
410.524	188.41
410.733	229.37
410.941	143.36
411.15	221.18
411.358	245.76
411.567	243.71
411.775	260.09
411.984	196.61
412.192	182.27
412.401	251.9
412.609	229.37
412.818	268.28
413.026	288.76
413.234	272.38
413.443	315.39
413.651	292.86
413.86	339.96
414.068	348.15
414.276	389.11
414.485	282.62
414.693	374.78
414.901	362.49
415.11	434.17
415.318	511.99
415.526	458.74
415.734	360.44
415.943	448.51
416.151	428.03
416.359	503.8
416.567	495.61
416.776	450.55
416.984	561.14
417.192	536.57
417.4	573.43
417.608	557.05
417.817	612.34
418.025	550.9
418.233	698.36
418.441	630.77
418.649	739.32
418.857	735.22
419.065	673.78
419.273	790.52
419.481	763.89
419.689	831.48
419.897	882.67
420.105	841.72
420.313	892.91
420.521	917.49
420.729	980.98
420.937	940.02
421.145	1085.42
421.353	1062.9
421.561	1095.66
421.769	1097.71
421.977	1181.68
422.185	1142.77
422.393	1253.36
422.601	1417.19
422.809	1275.88
423.017	1353.71
423.224	1386.47
423.432	1456.11
423.64	1396.71
423.848	1535.98
424.056	1523.69
424.263	1597.42
424.471	1703.91
424.679	1685.48
424.887	1824.74
425.094	1771.49
425.302	1791.97
425.51	1865.7
425.718	1904.61
425.925	1951.71
426.133	2115.55
426.341	2127.84
426.548	2238.43
426.756	2123.74
426.964	2172.89
427.171	2445.27
427.379	2410.46
427.586	2529.24
427.794	2590.68
428.001	2789.33
428.209	2842.58
428.417	2711.51
428.624	2998.23
428.832	2889.68
429.039	3080.14
429.247	2951.12
429.454	3231.69
429.662	3479.5
429.869	3184.59
430.076	3432.4
430.284	3334.09
430.491	3463.12
430.699	3766.21
430.906	3704.78
431.114	3653.58
431.321	3923.91
431.528	4106.18
431.736	4243.39
431.943	4374.46
432.15	4229.06
432.358	4296.64
432.565	4657.08
432.772	4564.92
432.979	4825.01
433.187	4837.3
433.394	4827.06
433.601	5201.84
433.808	5382.06
434.016	5033.91
434.223	5353.39
434.43	5779.37
434.637	5619.63
434.844	5896.1
435.052	5957.54
435.259	6154.15
435.466	6166.43
435.673	6037.41
435.88	6395.81
436.087	6752.15
436.294	6850.46
436.501	6653.85
436.708	6655.9
436.915	7014.29
437.122	7214.99
437.329	7366.54
437.537	7628.68
437.743	7612.3
437.95	7430.03
438.157	8091.52
438.364	8206.21
438.571	8077.19
438.778	8296.32
438.985	9072.5
439.192	8771.45
439.399	8939.38
439.606	8796.03
439.813	9310.07
440.02	9981.8
440.227	9670.51
440.433	9621.36
440.64	9987.94
440.847	9910.12
441.054	10141.54
441.261	10839.9
441.467	10557.28
441.674	11042.65
441.881	11351.89
442.088	11257.68
442.294	11306.84
442.501	11478.86
442.708	11523.92
442.914	12246.85
443.121	12756.8
443.328	12429.12
443.534	13270.84
443.741	12744.51
443.948	12527.42
444.154	13774.64
444.361	13309.75
444.568	13856.56
444.774	13782.83
444.981	13973.29
445.187	14335.78
445.394	14700.32
445.6	14636.83
445.807	16054.03
446.013	15279.89
446.22	15802.13
446.426	16455.43
446.633	16420.61
446.839	16975.61
447.046	16447.24
447.252	17495.8
447.459	17544.95
447.665	17215.23
447.871	18126.57
448.078	18843.36
448.284	17950.45
448.491	18310.89
448.697	19418.84
448.903	19699.41
449.11	19551.96
449.316	19238.62
449.522	19680.98
449.728	20158.16
449.935	20471.5
450.141	20670.15
450.347	20885.19
450.553	20346.57
450.76	20422.34
450.966	21546.68
451.172	21126.85
451.378	21542.58
451.584	21257.92
451.791	21704.37
451.997	21714.61
452.203	21794.48
452.409	21995.18
452.615	22046.38
452.821	21141.18
453.027	20770.5
453.233	22333.1
453.44	21151.42
453.646	21485.24
453.852	21397.18
454.058	21808.82
454.264	21012.16
454.47	21753.52
454.676	21116.61
454.882	21878.45
455.088	19832.53
455.294	20215.5
455.5	20444.87
455.705	20803.27
455.911	19832.53
456.117	19611.35
456.323	19201.76
456.529	18507.49
456.735	19166.94
456.941	18591.46
457.147	18278.12
457.352	17745.65
457.558	17374.97
457.764	17811.18
457.97	17053.44
458.176	16928.51
458.381	17069.82
458.587	16000.78
458.793	16170.76
458.999	15279.89
459.204	16310.02
459.41	15996.68
459.616	14788.38
459.821	14821.15
460.027	14909.21
460.233	14384.93
460.438	13872.94
460.644	14001.96
460.85	13246.26
461.055	13080.38
461.261	13205.3
461.466	12113.74
461.672	11902.79
461.878	12873.53
462.083	11708.24
462.289	11626.32
462.494	11448.15
462.7	10780.51
462.905	10620.77
463.111	10979.16
463.316	11153.24
463.522	10862.43
463.727	10921.82
463.932	10958.68
464.138	10764.12
464.343	10616.67
464.549	10327.91
464.754	10698.59
464.959	10393.44
465.165	10598.24
465.37	10194.79
465.575	9789.29
465.781	10235.75
465.986	10323.81
466.191	9994.09
466.397	9668.46
466.602	9240.43
466.807	9533.29
467.012	9641.84
467.218	9709.42
467.423	9615.21
467.628	9488.24
467.833	9946.98
468.038	9455.47
468.244	9402.22
468.449	9787.24
468.654	9279.35
468.859	9351.03
469.064	9172.85
469.269	8873.85
469.474	8992.63
469.679	9230.2
469.885	8820.6
470.09	9111.41
470.295	8896.38
470.5	8820.6
470.705	8910.71
470.91	8562.56
471.115	8408.96
471.32	8652.67
471.525	8542.08
471.73	8267.65
471.935	8361.86
472.139	7939.97
472.344	8191.88
472.549	8073.09
472.754	8138.63
472.959	7933.83
473.164	7638.92
473.369	7585.68
473.574	7813
473.778	7794.57
473.983	7602.06
474.188	7552.91
474.393	7284.62
474.598	7362.45
474.802	7313.3
475.007	7391.12
475.212	7280.53
475.417	7100.31
475.621	7014.29
475.826	7067.54
476.031	6932.37
476.235	6582.17
476.44	6985.62
476.645	6875.03
476.849	6657.95
477.054	6514.59
477.259	6692.76
477.463	6545.31
477.668	6440.86
477.872	6553.5
478.077	6371.23
478.282	6164.39
478.486	6178.72
478.691	6199.2
478.895	6191.01
479.1	6092.71
479.304	5928.87
479.509	5965.73
479.713	6090.66
479.918	5717.93
480.122	5777.32
480.326	5826.47
480.531	5965.73
480.735	5846.95
480.94	5683.11
481.144	5937.06
481.348	5576.62
481.553	5689.26
481.757	5517.23
481.961	5709.74
482.166	5777.32
482.37	5615.53
482.574	5683.11
482.778	5670.83
482.983	5674.92
483.187	5484.46
483.391	5734.31
483.595	5517.23
483.8	5658.54
484.004	5599.15
484.208	5605.29
484.412	5695.4
484.616	5734.31
484.821	5758.89
485.025	5656.49
485.229	5709.74
485.433	5568.43
485.637	5629.87
485.841	5529.52
486.045	5492.65
486.249	5502.89
486.453	5638.06
486.657	5642.15
486.861	5676.97
487.065	5521.32
487.269	5564.33
487.473	5627.82
487.677	5795.75
487.881	5656.49
488.085	5527.47
488.289	5642.15
488.493	5484.46
488.697	5795.75
488.901	5681.07
489.105	5781.42
489.309	5728.17
489.512	5701.54
489.716	5621.67
489.92	5609.39
490.124	5719.98
490.328	5867.43
490.531	5715.88
490.735	5824.42
490.939	5912.49
491.143	5810.09
491.346	5873.57
491.55	6053.8
491.754	5871.53
491.958	6047.65
492.161	5926.82
492.365	5992.36
492.569	5967.78
492.772	5930.92
492.976	5959.59
493.18	6113.19
493.383	5971.88
493.587	6213.54
493.79	6246.3
493.994	6137.76
494.197	6274.98
494.401	6340.51
494.605	6428.57
494.808	6584.22
495.012	6518.68
495.215	6449.05
495.419	6461.34
495.622	6584.22
495.825	6858.65
496.029	6703
496.232	6834.07
496.436	6764.44
496.639	6866.84
496.843	6764.44
497.046	7120.79
497.249	6991.77
497.453	7190.42
497.656	7194.51
497.859	7264.15
498.063	7255.95
498.266	7460.75
498.469	7458.7
498.673	7593.87
498.876	7542.67
499.079	7776.14
499.282	7884.68
499.485	7866.25
499.689	8097.67
499.892	7995.27
500.095	8073.09
500.298	8224.64
500.501	8404.86
500.705	8361.86
500.908	8689.53
501.111	8779.64
501.314	8814.46
501.517	8718.2
501.72	8953.72
501.923	8918.9
502.126	9082.74
502.329	9185.14
502.532	9340.79
502.735	9295.73
502.938	9650.03
503.141	9727.85
503.344	9920.36
503.547	9959.27
503.75	10049.38
503.953	10217.32
504.156	10272.61
504.359	10200.93
504.562	10405.73
504.765	10618.72
504.968	10618.72
505.17	10798.94
505.373	10993.5
505.576	11202.39
505.779	11155.29
505.982	11259.73
506.185	11528.02
506.387	11669.33
506.59	11775.82
506.793	12089.16
506.996	11941.71
507.198	12130.12
507.401	12246.85
507.604	12474.18
507.807	12582.72
508.009	12713.79
508.212	12912.44
508.415	13029.18
508.617	13070.14
508.82	13213.49
509.022	13250.36
509.225	13731.63
509.428	13442.87
509.63	13752.11
509.833	13911.85
510.035	14167.85
510.238	14042.92
510.44	14378.79
510.643	14728.99
510.845	14651.17
511.048	14561.06
511.25	14903.07
511.453	15009.56
511.655	15423.25
511.858	15550.23
512.06	15646.48
512.262	15769.36
512.465	15865.61
512.667	15996.68
512.87	16367.37
513.072	16269.06
513.274	16692.99
513.477	16625.41
513.679	16860.93
513.881	17200.89
514.084	17223.42
514.286	17211.13
514.488	17610.48
514.69	17657.59
514.893	17843.95
515.095	18329.32
515.297	18521.83
515.499	18568.93
515.701	18710.24
515.904	19011.29
516.106	19226.33
516.308	19439.32
516.51	19478.23
516.712	19756.75
516.914	20045.52
517.116	19949.26
517.318	20063.95
517.52	20145.87
517.722	19961.55
517.925	20537.03
518.127	20960.96
518.329	21247.68
518.531	20942.53
518.733	21489.34
518.935	21563.06
519.136	21714.61
519.338	22034.1
519.54	22288.04
519.742	22058.67
519.944	22308.52
520.146	22908.58
520.348	22906.53
520.55	23246.49
520.752	23287.45
520.954	23651.99
521.155	23172.77
521.357	23752.34
521.559	24016.53
521.761	24397.45
521.963	24102.54
522.164	24493.71
522.366	24632.97
522.568	24741.51
522.77	24802.95
522.971	25200.26
523.173	25429.63
523.375	25394.81
523.576	25613.95
523.778	25153.15
523.98	25845.37
524.181	25986.68
524.383	26070.64
524.584	26502.76
524.786	26510.96
524.988	26259.06
525.189	26812.01
525.391	26818.15
525.592	26930.79
525.794	27178.59
525.995	26891.88
526.197	27244.13
526.398	27358.81
526.6	27731.54
526.801	27608.67
527.003	27899.48
527.204	27864.66
527.406	28247.63
527.607	28065.36
527.808	28337.74
528.01	27594.33
528.211	28069.46
528.412	28835.4
528.614	28536.4
528.815	28608.08
529.016	29036.1
529.218	28653.13
529.419	28628.56
529.62	28689.99
529.822	28737.1
530.023	28673.61
530.224	28788.3
530.425	29032.01
530.626	28321.36
530.828	28974.66
531.029	29521.47
531.23	28917.32
531.431	29113.92
531.632	29197.89
531.833	29437.5
532.035	29060.68
532.236	29435.45
532.437	29431.36
532.638	29283.91
532.839	29498.94
533.04	29464.13
533.241	29134.4
533.442	29763.13
533.643	29806.14
533.844	29673.02
534.045	29699.64
534.246	29388.35
534.447	30035.51
534.648	29531.71
534.849	29562.43
535.05	29574.72
535.251	29722.17
535.451	29752.89
535.652	29748.79
535.853	29498.94
536.054	29679.16
536.255	29568.57
536.456	29242.95
536.657	30111.28
536.857	29558.33
537.058	29527.61
537.259	29914.68
537.46	30074.42
537.66	29679.16
537.861	29558.33
538.062	29767.23
538.263	29843
538.463	29703.74
538.664	29587
538.865	29605.44
539.065	29857.34
539.266	29498.94
539.466	30058.04
539.667	29433.41
539.868	29843
540.068	29718.07
540.269	29507.13
540.469	29765.18
540.67	29670.97
540.87	29722.17
541.071	29726.27
541.271	29429.31
541.472	29648.44
541.672	29267.52
541.873	29867.58
542.073	29302.34
542.274	29857.34
542.474	29341.25
542.675	29208.13
542.875	29728.31
543.075	29765.18
543.276	29427.26
543.476	29650.49
543.676	29507.13
543.877	29716.03
544.077	29625.92
544.277	29472.32
544.478	29605.44
544.678	29613.63
544.878	29716.03
545.078	29349.44
545.279	29296.19
545.479	29425.22
545.679	29587
545.879	29406.78
546.079	29402.69
546.28	29343.3
546.48	29095.49
546.68	29285.95
546.88	29734.46
547.08	29615.68
547.28	29290.05
547.48	29017.67
547.68	29572.67
547.88	29410.88
548.081	29724.22
548.281	29484.61
548.481	29380.16
548.681	29623.87
548.881	29419.07
549.081	29212.23
549.28	29058.63
549.48	29410.88
549.68	29308.48
549.88	29410.88
550.08	29179.46
550.28	29488.7
550.48	29412.93
550.68	29894.2
550.88	28745.29
551.08	28982.85
551.279	29173.31
551.479	28974.66
551.679	29259.33
551.879	28694.09
552.079	29105.73
552.278	28974.66
552.478	29349.44
552.678	29222.47
552.878	29398.59
553.077	28837.45
553.277	28855.88
553.477	29656.64
553.676	28978.76
553.876	29204.03
554.076	28755.53
554.275	28765.77
554.475	28843.59
554.674	29081.16
554.874	28814.92
555.074	28538.44
555.273	29001.29
555.473	28741.19
555.672	28892.74
555.872	28808.78
556.071	28552.78
556.271	28810.82
556.47	28599.88
556.67	28571.21
556.869	28700.23
557.068	28646.99
557.268	28474.96
557.467	28681.8
557.667	28614.22
557.866	28608.08
558.065	28485.2
558.265	28407.37
558.464	28182.1
558.663	28456.53
558.863	28130.9
559.062	28622.41
559.261	28233.3
559.461	28585.55
559.66	28309.07
559.859	28085.84
560.058	27846.23
560.258	28137.04
560.457	27948.63
560.656	27989.59
560.855	27711.07
561.054	28051.03
561.253	27743.83
561.453	28276.3
561.652	27979.35
561.851	28048.98
562.05	27844.18
562.249	27797.08
562.448	28075.6
562.647	27565.66
562.846	27655.77
563.045	27842.14
563.244	27502.17
563.443	27754.07
563.642	27410.01
563.841	27256.42
564.04	27338.33
564.239	27577.95
564.438	26848.87
564.637	26996.32
564.836	27293.28
565.035	26951.27
565.234	27434.59
565.432	26902.12
565.631	27018.85
565.83	26928.74
566.029	27014.76
566.228	26666.6
566.427	26771.05
566.625	26691.18
566.824	26498.67
567.023	26941.03
567.222	26656.36
567.42	26979.94
567.619	26377.84
567.818	26678.89
568.016	26381.93
568.215	26494.57
568.414	26019.44
568.612	26490.48
568.811	26101.36
569.01	26005.11
569.208	25886.33
569.407	25955.96
569.605	25765.49
569.804	25935.48
570.002	25927.28
570.201	26046.07
570.4	25714.3
570.598	25534.07
570.797	25536.12
570.995	25714.3
571.193	25267.84
571.392	25523.83
571.59	25382.52
571.789	25446.01
571.987	25390.72
572.186	25157.25
572.384	24942.21
572.582	25396.86
572.781	25058.95
572.979	24626.82
573.177	24632.97
573.376	25011.84
573.574	24678.02
573.772	24891.01
573.971	24757.89
574.169	24614.54
574.367	24520.33
574.565	24790.66
574.763	24450.7
574.962	24581.77
575.16	24217.23
575.358	24082.06
575.556	24286.86
575.754	24401.55
575.952	24051.35
576.151	24065.68
576.349	23590.55
576.547	24125.07
576.745	23750.29
576.943	23729.81
577.141	23877.27
577.339	23953.04
577.537	23854.74
577.735	23541.4
577.933	23271.07
578.131	23606.94
578.329	23125.66
578.527	23156.38
578.725	23402.14
578.923	23252.64
579.121	23025.31
579.319	23279.26
579.516	23226.01
579.714	23137.95
579.912	22918.82
580.11	22763.17
580.308	22714.02
580.506	22748.84
580.704	22292.14
580.901	22689.45
581.099	22607.53
581.297	22439.59
581.495	22259.37
581.692	22595.24
581.89	22220.46
582.088	22374.06
582.285	22075.06
582.483	22337.2
582.681	22173.36
582.878	22230.7
583.076	21794.48
583.274	22159.02
583.471	21694.13
583.669	21745.33
583.866	21812.92
584.064	21724.85
584.262	21534.39
584.459	21788.34
584.657	21382.84
584.854	21669.56
585.052	21149.37
585.249	21401.27
585.447	21329.59
585.644	21239.48
585.841	21194.43
586.039	21395.13
586.236	20860.61
586.434	20717.25
586.631	20960.96
586.828	21139.13
587.026	20860.61
587.223	20840.13
587.42	20772.55
587.618	20668.1
587.815	20440.78
588.012	20428.49
588.21	20238.03
588.407	20577.99
588.604	20223.69
588.801	20342.47
588.999	20139.72
589.196	20127.44
589.393	20186.83
589.59	20072.14
589.787	19969.74
589.984	20068.05
590.182	19846.87
590.379	19893.97
590.576	19842.77
590.773	19601.11
590.97	19511
591.167	19543.77
591.364	19615.44
591.561	19269.34
591.758	19246.81
591.955	19379.93
592.152	19384.02
592.349	19140.32
592.546	19242.71
592.743	19316.44
592.94	18953.95
593.137	18953.95
593.334	19064.54
593.531	18783.97
593.727	19107.55
593.924	18786.02
594.121	18718.43
594.318	18839.26
594.515	18810.59
594.712	18482.92
594.908	18566.88
595.105	18570.98
595.302	18505.45
595.499	18437.86
595.696	18409.19
595.892	18253.55
596.089	18757.35
596.286	18171.63
596.482	18126.57
596.679	18067.18
596.876	18169.58
597.072	18003.69
597.269	17784.56
597.466	17846
597.662	17993.45
597.859	17813.23
598.055	17915.63
598.252	17759.99
598.448	17798.9
598.645	17405.69
598.841	17350.39
599.038	17596.15
599.234	17278.71
599.431	17311.48
599.627	17247.99
599.824	17276.66
600.02	17145.59
600.217	17264.38
600.413	17190.65
600.609	16803.58
600.806	17067.77
601.002	17030.91
601.198	16953.09
601.395	16664.32
601.591	16897.79
601.787	16836.35
601.984	16992
602.18	17002.24
602.376	16260.87
602.572	16396.04
602.769	16490.24
602.965	16310.02
603.161	16439.05
603.357	16248.58
603.553	16318.21
603.75	16289.54
603.946	16469.76
604.142	16228.1
604.338	15750.93
604.534	16127.75
604.73	15812.37
604.926	15798.03
605.122	15828.75
605.318	15847.18
605.514	15933.2
605.71	15587.09
605.906	15931.15
606.102	15626
606.298	15664.91
606.494	15443.73
606.69	15441.68
606.886	15802.13
607.082	15081.24
607.278	15585.04
607.474	15384.34
607.67	15488.79
607.866	15114.01
608.062	15494.93
608.257	15253.27
608.453	14978.84
608.649	15132.44
608.845	15081.24
609.041	14837.53
609.236	15234.84
609.432	15171.35
609.628	14984.99
609.824	14995.23
610.019	14866.21
610.215	14817.05
610.411	14948.12
610.606	14638.88
610.802	14728.99
610.998	14802.72
611.193	14761.76
611.389	14728.99
611.584	14706.46
611.78	14591.78
611.976	14591.78
612.171	14800.67
612.367	14518.05
612.562	14360.36
612.758	14427.94
612.953	14427.94
613.149	14524.19
613.344	14192.42
613.539	14489.38
613.735	14454.56
613.93	14360.36
614.126	14108.46
614.321	14206.76
614.517	14292.77
614.712	14163.75
614.907	14083.88
615.103	14270.25
615.298	13874.99
615.493	14296.87
615.688	14036.78
615.884	14329.64
616.079	13768.49
616.274	13961
616.47	13920.04
616.665	13866.8
616.86	13877.04
617.055	13756.21
617.25	13930.28
617.445	13715.25
617.641	13395.76
617.836	13741.87
618.031	13418.29
618.226	13686.58
618.421	13375.28
618.616	13745.97
618.811	13207.35
619.006	13528.88
619.201	12977.98
619.396	13137.72
619.591	13137.72
619.786	13205.3
619.981	13113.14
620.176	13020.99
620.371	13113.14
620.566	12926.78
620.761	12805.95
620.956	13068.09
621.151	12484.42
621.346	12642.11
621.541	12504.9
621.735	12805.95
621.93	12404.55
622.125	12590.91
622.32	12330.82
622.515	12209.99
622.709	12173.13
622.904	12154.69
623.099	12060.49
623.294	12054.34
623.488	12048.2
623.683	12013.38
623.878	11687.76
624.072	11915.08
624.267	11845.45
624.462	11665.23
624.656	11552.59
624.851	11630.41
625.046	11442
625.24	11376.47
625.435	11349.84
625.629	11388.75
625.824	11056.98
626.018	11194.2
626.213	11044.7
626.407	11091.8
626.602	10882.91
626.796	11161.43
626.991	11016.02
627.185	10901.34
627.38	10745.69
627.574	10667.87
627.768	10796.89
627.963	10493.79
628.157	10547.04
628.352	10542.94
628.546	10395.49
628.74	10288.99
628.935	10186.6
629.129	10403.68
629.323	10102.63
629.517	10151.78
629.712	10129.25
629.906	10112.87
630.1	10063.72
630.294	9910.12
630.489	9946.98
630.683	10000.23
630.877	9822.06
631.071	9975.66
631.265	9820.01
631.459	9666.41
631.653	9643.88
631.848	9557.87
632.042	9568.11
632.236	9566.06
632.43	9340.79
632.624	9586.54
632.818	9217.91
633.012	9273.2
633.206	9219.96
633.4	9322.35
633.594	9004.92
633.788	9011.06
633.982	9176.95
634.176	8771.45
634.369	9127.8
634.563	9023.35
634.757	8869.75
634.951	8824.7
635.145	8783.74
635.339	8771.45
635.533	8558.46
635.726	8771.45
635.92	8519.55
636.114	8687.48
636.308	8408.96
636.501	8585.08
636.695	8615.8
636.889	8142.72
637.083	8208.26
637.276	8249.22
637.47	8198.02
637.664	8437.63
637.857	8112
638.051	8124.29
638.244	8001.41
638.438	7993.22
638.632	8062.85
638.825	7806.86
639.019	7874.44
639.212	7643.02
639.406	7591.82
639.599	7634.83
639.793	7882.63
639.986	7763.85
640.18	7696.27
640.373	7563.15
640.567	7612.3
640.76	7466.89
640.954	7604.11
641.147	7389.07
641.34	7454.61
641.534	7405.45
641.727	7354.26
641.92	7380.88
642.114	7153.55
642.307	7192.47
642.5	7200.66
642.694	6895.51
642.887	7096.21
643.08	7002.01
643.273	7157.65
643.467	6963.09
643.66	6864.79
643.853	6799.26
644.046	6711.19
644.239	6741.91
644.432	6872.98
644.626	6772.63
644.819	6604.7
645.012	6645.66
645.205	6584.22
645.398	6592.41
645.591	6426.53
645.784	6504.35
645.977	6379.42
646.17	6481.82
646.363	6297.5
646.556	6360.99
646.749	6305.7
646.942	6309.79
647.135	6234.02
647.328	6135.71
647.521	6174.63
647.714	5978.02
647.907	6100.9
648.099	6178.72
648.292	5943.21
648.485	6000.55
648.678	5963.68
648.871	5842.85
649.064	5846.95
649.256	6078.37
649.449	5652.39
649.642	5771.18
649.835	5814.18
650.027	5719.98
650.22	5824.42
650.413	5689.26
650.605	5689.26
650.798	5537.71
650.991	5547.95
651.183	5615.53
651.376	5429.17
651.568	5488.56
651.761	5425.07
651.954	5377.97
652.146	5300.14
652.339	5302.19
652.531	5361.58
652.724	5169.07
652.916	5281.71
653.109	5246.9
653.301	5132.21
653.494	5298.1
653.686	5011.38
653.879	5298.1
654.071	5134.26
654.263	5072.82
654.456	5054.39
654.648	5072.82
654.84	4919.22
655.033	5150.64
655.225	5011.38
655.417	4931.51
655.61	4718.52
655.802	4865.97
655.994	4771.77
656.186	4882.36
656.379	4732.86
656.571	4718.52
656.763	4575.16
656.955	4564.92
657.148	4622.27
657.34	4640.7
657.532	4511.68
657.724	4669.37
657.916	4589.5
658.108	4415.42
658.3	4579.26
658.492	4519.87
658.684	4388.8
658.876	4495.29
659.068	4356.03
659.26	4368.32
659.452	4349.89
659.644	4458.43
659.836	4267.97
660.028	4251.58
660.22	4360.13
660.412	4216.77
660.604	4272.06
660.796	4145.09
660.988	4091.84
661.18	4046.79
661.372	4063.17
661.563	4038.59
661.755	3940.29
661.947	3981.25
662.139	3889.09
662.331	4003.78
662.522	3954.63
662.714	3911.62
662.906	3839.94
663.097	3887.04
663.289	3807.17
663.481	3704.78
663.673	3901.38
663.864	3727.3
664.056	3733.45
664.247	3741.64
664.439	3661.77
664.631	3758.02
664.822	3741.64
665.014	3708.87
665.205	3622.86
665.397	3608.52
665.588	3782.6
665.78	3436.49
665.971	3481.55
666.163	3657.67
666.354	3571.66
666.546	3569.61
666.737	3532.75
666.929	3547.08
667.12	3629
667.311	3479.5
667.503	3395.53
667.694	3483.59
667.885	3356.62
668.077	3407.82
668.268	3286.99
668.459	3221.45
668.651	3317.71
668.842	3422.16
669.033	3299.28
669.224	3309.52
669.416	3344.33
669.607	3321.81
669.798	3057.62
669.989	3252.17
670.18	3221.45
670.371	3291.09
670.563	3235.79
670.754	3209.17
670.945	3055.57
671.136	3291.09
671.327	3121.1
671.518	3153.87
671.709	3090.38
671.9	3227.6
672.091	2975.7
672.282	3074
672.473	2947.03
672.664	3080.14
672.855	3100.62
673.046	3069.91
673.237	3041.23
673.428	2987.99
673.619	2998.23
673.809	3014.61
674	2928.6
674.191	3018.71
674.382	2893.78
674.573	2832.34
674.764	2955.22
674.954	2885.59
675.145	2824.15
675.336	2901.97
675.527	2861.01
675.717	2764.76
675.908	2832.34
676.099	2818
676.289	2799.57
676.48	2744.28
676.671	2801.62
676.861	2750.42
677.052	2895.83
677.243	2813.91
677.433	2566.1
677.624	2754.52
677.814	2746.33
678.005	2723.8
678.195	2731.99
678.386	2770.9
678.576	2621.4
678.767	2654.17
678.957	2684.89
679.148	2822.1
679.338	2596.82
679.529	2709.46
679.719	2545.63
679.909	2674.65
680.1	2609.11
680.29	2635.74
680.481	2541.53
680.671	2643.93
680.861	2596.82
681.052	2623.45
681.242	2527.19
681.432	2703.32
681.622	2623.45
681.813	2678.74
682.003	2582.49
682.193	2570.2
682.383	2537.43
682.573	2635.74
682.764	2643.93
682.954	2578.39
683.144	2496.47
683.334	2592.73
683.524	2648.02
683.714	2486.23
683.904	2562.01
684.094	2572.25
684.284	2478.04
684.474	2521.05
684.664	2430.94
684.854	2619.35
685.044	2635.74
685.234	2447.32
685.424	2531.29
685.614	2465.75
685.804	2627.54
685.994	2439.13
686.184	2611.16
686.374	2447.32
686.564	2375.64
686.753	2523.1
686.943	2443.23
687.133	2322.4
687.323	2385.88
687.513	2293.72
687.702	2299.87
687.892	2414.56
688.082	2342.88
688.272	2400.22
688.461	2426.84
688.651	2394.08
688.841	2486.23
689.03	2562.01
689.22	2379.74
689.41	2314.2
689.599	2389.98
689.789	2303.96
689.979	2365.4
690.168	2394.08
690.358	2457.56
690.547	2273.25
690.737	2346.97
690.926	2291.68
691.116	2377.69
691.305	2379.74
691.495	2277.34
691.684	2209.76
691.874	2357.21
692.063	2295.77
692.252	2213.85
692.442	2299.87
692.631	2312.16
692.82	2201.57
693.01	2211.81
693.199	2217.95
693.388	2047.97
693.578	2197.47
693.767	2156.51
693.956	2207.71
694.146	2125.79
694.335	2220
694.524	2127.84
694.713	2293.72
694.902	2326.49
695.092	2193.37
695.281	2131.94
695.47	2277.34
695.659	2201.57
695.848	2162.65
696.037	2246.62
696.226	2220
696.415	2187.23
696.604	2127.84
696.793	2125.79
696.982	2123.74
697.171	2107.36
697.36	2064.35
697.549	2125.79
697.738	2125.79
697.927	2148.32
698.116	2047.97
698.305	2070.5
698.494	2131.94
698.683	2170.85
698.872	2099.17
699.061	2144.22
699.25	2109.41
699.438	2138.08
699.627	2103.26
699.816	2066.4
700.005	2023.39
700.193	2125.79
700.382	2111.46
700.571	1918.95
700.76	1972.19
700.948	2164.7
701.137	2009.06
701.326	1998.82
701.514	2078.69
701.703	1988.58
701.892	2101.22
702.08	1984.48
702.269	2037.73
702.457	1923.04
702.646	1886.18
702.834	1884.13
703.023	1996.77
703.212	1988.58
703.4	1923.04
703.589	2076.64
703.777	2099.17
703.965	1980.39
704.154	1929.19
704.342	1873.89
704.531	1865.7
704.719	1896.42
704.907	1908.71
705.096	2031.58
705.284	1892.32
705.472	1865.7
705.661	1810.4
705.849	1869.8
706.037	1943.52
706.226	1880.04
706.414	1961.95
706.602	1775.59
706.79	1746.92
706.979	1931.23
707.167	1859.56
707.355	1904.61
707.543	1894.37
707.731	1929.19
707.919	1859.56
708.107	1775.59
708.296	1794.02
708.484	1939.43
708.672	1855.46
708.86	1892.32
709.048	1734.63
709.236	1828.84
709.424	1824.74
709.612	1804.26
709.8	1777.64
709.988	1826.79
710.176	1791.97
710.364	1701.86
710.551	1822.69
710.739	1800.16
710.927	1755.11
711.115	1791.97
711.303	1701.86
711.491	1742.82
711.679	1734.63
711.866	1783.78
712.054	1828.84
712.242	1751.01
712.43	1841.12
712.617	1742.82
712.805	1708.01
712.993	1650.66
713.181	1587.18
713.368	1730.53
713.556	1822.69
713.744	1703.91
713.931	1789.92
714.119	1683.43
714.306	1660.9
714.494	1705.96
714.682	1824.74
714.869	1705.96
715.057	1808.36
715.244	1685.48
715.432	1751.01
715.619	1777.64
715.807	1761.25
715.994	1630.18
716.182	1607.66
716.369	1572.84
716.556	1718.25
716.744	1603.56
716.931	1640.42
717.119	1687.53
717.306	1710.05
717.493	1646.57
717.681	1542.12
717.868	1742.82
718.055	1644.52
718.242	1632.23
718.43	1644.52
718.617	1601.51
718.804	1656.81
718.991	1638.37
719.179	1599.46
719.366	1538.02
719.553	1652.71
719.74	1611.75
719.927	1611.75
720.114	1599.46
720.301	1540.07
720.488	1576.94
720.676	1521.64
720.863	1562.6
721.05	1689.57
721.237	1509.35
721.424	1568.74
721.611	1632.23
721.798	1560.55
721.985	1492.97
722.172	1525.74
722.358	1521.64
722.545	1576.94
722.732	1449.96
722.919	1527.78
723.106	1603.56
723.293	1546.22
723.48	1464.3
723.667	1544.17
723.853	1466.35
724.04	1521.64
724.227	1554.41
724.414	1517.54
724.6	1505.26
724.787	1531.88
724.974	1484.78
725.161	1488.87
725.347	1476.59
725.534	1603.56
725.72	1474.54
725.907	1458.15
726.094	1505.26
726.28	1337.32
726.467	1503.21
726.653	1462.25
726.84	1499.11
727.027	1404.91
727.213	1425.39
727.4	1501.16
727.586	1535.98
727.773	1484.78
727.959	1472.49
728.145	1374.19
728.332	1464.3
728.518	1423.34
728.705	1339.37
728.891	1427.43
729.077	1490.92
729.264	1431.53
729.45	1544.17
729.636	1409
729.823	1474.54
730.009	1384.43
730.195	1392.62
730.382	1337.32
730.568	1441.77
730.754	1382.38
730.94	1478.63
731.126	1458.15
731.313	1349.61
731.499	1404.91
731.685	1435.63
731.871	1433.58
732.057	1429.48
732.243	1429.48
732.429	1337.32
732.615	1335.28
732.801	1433.58
732.987	1429.48
733.173	1445.87
733.359	1437.67
733.545	1390.57
733.731	1396.71
733.917	1409
734.103	1302.51
734.289	1421.29
734.475	1314.8
734.661	1378.28
734.847	1380.33
735.033	1337.32
735.219	1320.94
735.404	1415.15
735.59	1300.46
735.776	1294.32
735.962	1368.04
736.148	1415.15
736.333	1341.42
736.519	1404.91
736.705	1306.6
736.89	1372.14
737.076	1382.38
737.262	1359.85
737.447	1398.76
737.633	1341.42
737.819	1406.95
738.004	1411.05
738.19	1290.22
738.375	1228.78
738.561	1275.88
738.747	1406.95
738.932	1269.74
739.118	1366
739.303	1308.65
739.489	1277.93
739.674	1224.69
739.859	1361.9
740.045	1228.78
740.23	1279.98
740.416	1253.36
740.601	1247.21
740.786	1277.93
740.972	1251.31
741.157	1146.86
741.342	1234.93
741.528	1257.45
741.713	1300.46
741.898	1284.08
742.084	1296.36
742.269	1216.49
742.454	1284.08
742.639	1267.69
742.824	1236.97
743.01	1191.92
743.195	1245.16
743.38	1220.59
743.565	1116.14
743.75	1150.96
743.935	1259.5
744.12	1175.53
744.305	1202.16
744.49	1239.02
744.675	1259.5
744.86	1155.05
745.045	1198.06
745.23	1163.25
745.415	1107.95
745.6	1128.43
745.785	1058.8
745.97	1165.29
746.155	1132.53
746.34	1112.05
746.525	1185.77
746.71	1128.43
746.895	1204.21
747.079	1204.21
747.264	1161.2
747.449	1112.05
747.634	1071.09
747.819	1056.75
748.003	1118.19
748.188	1023.98
748.373	1056.75
748.557	985.07
748.742	1066.99
748.927	1052.66
749.111	948.21
749.296	1021.94
749.481	1054.7
749.665	1036.27
749.85	993.26
750.034	978.93
750.219	1073.14
750.404	974.83
750.588	972.79
750.773	911.35
750.957	1079.28
751.141	1044.46
751.326	1015.79
751.51	958.45
751.695	964.59
751.879	901.11
752.064	1023.98
752.248	886.77
752.432	772.08
752.617	948.21
752.801	866.29
752.985	892.91
753.17	878.58
753.354	925.68
753.538	888.82
753.722	880.63
753.907	800.76
754.091	849.91
754.275	811
754.459	888.82
754.643	927.73
754.828	815.09
755.012	823.28
755.196	800.76
755.38	903.15
755.564	837.62
755.748	788.47
755.932	804.85
756.116	790.52
756.3	841.72
756.484	778.23
756.668	741.36
756.852	720.88
757.036	813.04
757.22	792.56
757.404	735.22
757.588	745.46
757.772	786.42
757.956	743.41
758.14	770.04
758.323	774.13
758.507	761.84
758.691	636.92
758.875	751.6
759.059	776.18
759.242	792.56
759.426	720.88
759.61	638.97
759.794	636.92
759.977	686.07
760.161	704.5
760.345	706.55
760.528	667.64
760.712	724.98
760.895	681.97
761.079	690.17
761.263	585.72
761.446	677.88
761.63	657.4
761.813	677.88
761.997	684.02
762.18	681.97
762.364	743.41
762.547	581.62
762.731	663.54
762.914	643.06
763.098	618.49
763.281	718.84
763.464	698.36
763.648	620.53
763.831	690.17
764.015	679.93
764.198	606.2
764.381	618.49
764.564	606.2
764.748	610.29
764.931	557.05
765.114	614.39
765.297	741.36
765.481	681.97
765.664	604.15
765.847	536.57
766.03	593.91
766.213	663.54
766.397	614.39
766.58	565.24
766.763	555
766.946	571.38
767.129	647.16
767.312	522.23
767.495	610.29
767.678	542.71
767.861	610.29
768.044	598.01
768.227	563.19
768.41	618.49
768.593	595.96
768.776	616.44
768.959	497.66
769.142	604.15
769.324	555
769.507	546.81
769.69	540.66
769.873	567.29
770.056	610.29
770.239	522.23
770.421	606.2
770.604	507.9
770.787	477.18
770.97	509.94
771.152	497.66
771.335	516.09
771.518	448.51
771.7	495.61
771.883	538.62
772.066	483.32
772.248	555
772.431	514.04
772.613	591.86
772.796	520.18
772.978	534.52
773.161	448.51
773.343	483.32
773.526	501.75
773.708	503.8
773.891	432.12
774.073	468.98
774.256	544.76
774.438	520.18
774.621	479.22
774.803	466.94
774.985	530.42
775.168	489.46
775.35	409.59
775.532	444.41
775.715	460.79
775.897	522.23
776.079	507.9
776.261	360.44
776.444	485.37
776.626	460.79
776.808	495.61
776.99	372.73
777.173	399.35
777.355	399.35
777.537	395.26
777.719	403.45
777.901	376.83
778.083	423.93
778.265	466.94
778.447	458.74
778.629	395.26
778.811	368.63
778.993	399.35
779.175	331.77
779.357	352.25
779.539	380.92
779.721	428.03
779.903	440.31
780.085	378.87
780.267	442.36
780.449	372.73
780.631	376.83
780.812	382.97
780.994	331.77
781.176	276.48
781.358	348.15
781.54	354.3
781.721	342.01
781.903	288.76
782.085	376.83
782.267	331.77
782.448	325.63
782.63	317.44
782.812	362.49
782.993	319.48
783.175	348.15
783.357	309.24
783.538	301.05
783.72	294.91
783.901	270.33
784.083	280.57
784.264	282.62
784.446	329.72
784.627	294.91
784.809	327.67
784.99	342.01
785.172	276.48
785.353	335.87
785.535	352.25
785.716	268.28
785.897	325.63
786.079	278.52
786.26	276.48
786.441	245.76
786.623	231.42
786.804	313.34
786.985	190.46
787.167	223.23
787.348	194.56
787.529	335.87
787.71	299
787.891	288.76
788.073	243.71
788.254	272.38
788.435	268.28
788.616	301.05
788.797	235.52
788.978	247.8
789.159	272.38
789.34	294.91
789.522	245.76
789.703	270.33
789.884	239.61
790.065	223.23
790.246	227.32
790.427	258.04
790.607	202.75
790.788	249.85
790.969	206.84
791.15	227.32
791.331	221.18
791.512	243.71
791.693	198.65
791.874	272.38
792.054	223.23
792.235	243.71
792.416	182.27
792.597	286.72
792.778	165.89
792.958	114.69
793.139	186.37
793.32	165.89
793.5	196.61
793.681	272.38
793.862	217.08
794.042	196.61
794.223	182.27
794.404	186.37
794.584	135.17
794.765	157.69
794.945	206.84
795.126	239.61
795.306	253.95
795.487	176.13
795.667	153.6
795.848	157.69
796.028	79.87
796.209	260.09
796.389	149.5
796.57	129.02
796.75	147.45
796.93	153.6
797.111	194.56
797.291	243.71
797.471	145.41
797.652	235.52
797.832	182.27
798.012	215.04
798.192	118.78
798.373	217.08
798.553	221.18
798.733	243.71
798.913	225.28
799.093	75.77
799.274	251.9
799.454	104.45
799.634	237.56
799.814	174.08
799.994	219.13
800.174	188.41
800.354	174.08
800.534	159.74
800.714	169.98
800.894	129.02
801.074	118.78
801.254	151.55
801.434	139.26
801.614	100.35
801.794	143.36
801.974	342.01
802.154	151.55
802.334	104.45
802.514	153.6
802.693	141.31
802.873	192.51
803.053	186.37
803.233	124.93
803.413	180.22
803.592	200.7
803.772	169.98
803.952	120.83
804.131	88.06
804.311	129.02
804.491	106.49
804.67	116.73
804.85	129.02
805.03	79.87
805.209	102.4
805.389	73.73
805.568	20.48
805.748	141.31
805.928	137.21
806.107	75.77
806.287	53.25
806.466	139.26
806.646	155.65
806.825	112.64
807.004	133.12
807.184	114.69
807.363	79.87
807.543	120.83
807.722	90.11
807.901	124.93
808.081	81.92
808.26	122.88
808.439	90.11
808.619	126.97
808.798	57.34
808.977	75.77
809.156	147.45
809.336	102.4
809.515	83.97
809.694	100.35
809.873	59.39
810.052	157.69
810.231	43.01
810.411	67.58
810.59	120.83
810.769	157.69
810.948	79.87
811.127	124.93
811.306	178.17
811.485	124.93
811.664	143.36
811.843	104.45
812.022	243.71
812.201	79.87
812.38	133.12
812.559	53.25
812.737	188.41
812.916	86.01
813.095	22.53
813.274	133.12
813.453	137.21
813.632	98.3
813.811	131.07
813.989	106.49
814.168	49.15
814.347	8.19
814.526	83.97
814.704	69.63
814.883	45.06
815.062	20.48
815.24	71.68
815.419	10.24
815.598	81.92
815.776	26.62
815.955	169.98
816.133	22.53
816.312	51.2
816.49	96.25
816.669	75.77
816.847	55.3
817.026	38.91
817.204	65.53
817.383	94.21
817.561	131.07
817.74	94.21
817.918	96.25
818.097	96.25
818.275	98.3
818.453	71.68
818.632	45.06
818.81	92.16
818.988	26.62
819.167	161.79
819.345	141.31
819.523	79.87
819.701	98.3
819.879	94.21
820.058	83.97
820.236	106.49
820.414	49.15
820.592	47.1
820.77	45.06
820.948	63.49
821.127	22.53
821.305	96.25
821.483	28.67
821.661	75.77
821.839	124.93
822.017	129.02
822.195	59.39
822.373	96.25
822.551	-28.67
822.729	-8.19
822.907	96.25
823.085	100.35
823.262	73.73
823.44	79.87
823.618	79.87
823.796	63.49
823.974	59.39
824.152	102.4
824.329	-8.19
824.507	92.16
824.685	67.58
824.863	73.73
825.04	28.67
825.218	49.15
825.396	102.4
825.574	53.25
825.751	24.58
825.929	12.29
826.107	28.67
826.284	83.97
826.462	98.3
826.639	-2.05
826.817	14.34
826.994	120.83
827.172	69.63
827.349	79.87
827.527	28.67
827.704	98.3
827.882	57.34
828.059	69.63
828.237	63.49
828.414	114.69
828.591	77.82
828.769	71.68
828.946	59.39
829.124	47.1
829.301	30.72
829.478	61.44
829.655	63.49
829.833	75.77
830.01	28.67
830.187	79.87
830.364	2.05
830.542	122.88
830.719	45.06
830.896	75.77
831.073	83.97
831.25	83.97
831.427	30.72
831.604	71.68
831.782	100.35
831.959	47.1
832.136	49.15
832.313	57.34
832.49	59.39
832.667	83.97
832.844	65.53
833.021	47.1
833.198	43.01
833.374	49.15
833.551	59.39
833.728	143.36
833.905	104.45
834.082	-8.19
834.259	47.1
834.436	55.3
834.612	49.15
834.789	40.96
834.966	-47.1
835.143	26.62
835.319	-16.38
835.496	55.3
835.673	40.96
835.85	38.91
836.026	83.97
836.203	0
836.38	67.58
836.556	94.21
836.733	26.62
836.909	-14.34
837.086	4.1
837.262	38.91
837.439	47.1
837.616	61.44
837.792	32.77
837.968	88.06
838.145	0
838.321	83.97
838.498	32.77
838.674	34.82
838.851	55.3
839.027	47.1
839.203	-18.43
839.38	32.77
839.556	40.96
839.732	16.38
839.909	26.62
840.085	51.2
840.261	8.19
840.437	51.2
840.614	0
840.79	47.1
840.966	-6.14
841.142	122.88
841.318	12.29
841.494	86.01
841.671	96.25
841.847	32.77
842.023	8.19
842.199	12.29
842.375	100.35
842.551	45.06
842.727	-26.62
842.903	81.92
843.079	47.1
843.255	116.73
843.431	28.67
843.607	43.01
843.783	51.2
843.959	28.67
844.134	38.91
844.31	65.53
844.486	14.34
844.662	69.63
844.838	57.34
845.013	57.34
845.189	59.39
845.365	55.3
845.541	-14.34
845.716	77.82
845.892	10.24
846.068	79.87
846.244	-38.91
846.419	20.48
846.595	57.34
846.77	4.1
846.946	10.24
847.122	22.53
847.297	77.82
847.473	26.62
847.648	30.72
847.824	47.1
847.999	0
848.175	38.91
848.35	26.62
848.526	90.11
848.701	51.2
848.876	6.14
849.052	-4.1
849.227	-32.77
849.403	67.58
849.578	67.58
849.753	38.91
849.929	40.96
850.104	10.24
850.279	32.77
850.454	49.15
850.63	22.53
850.805	-6.14
850.98	79.87
851.155	-36.86
851.33	18.43
851.505	38.91
851.681	18.43
851.856	12.29
852.031	49.15
852.206	86.01
852.381	-14.34
852.556	0
852.731	30.72
852.906	79.87
853.081	59.39
853.256	16.38
853.431	-16.38
853.606	-14.34
853.781	55.3
853.956	-12.29
854.131	30.72
854.305	71.68
854.48	38.91
854.655	-18.43
854.83	-24.58
855.005	14.34
855.18	2.05
855.354	-8.19
855.529	45.06
855.704	47.1
855.879	65.53
856.053	-61.44
856.228	-2.05
856.403	22.53
856.577	53.25
856.752	6.14
856.926	-14.34
857.101	-12.29
857.276	26.62
857.45	57.34
857.625	88.06
857.799	2.05
857.974	10.24
858.148	-34.82
858.323	2.05
858.497	2.05
858.672	18.43
858.846	6.14
859.02	26.62
859.195	49.15
859.369	73.73
859.543	18.43
859.718	40.96
859.892	55.3
860.066	69.63
860.241	81.92
860.415	88.06
860.589	67.58
860.763	22.53
860.938	-12.29
861.112	34.82
861.286	-20.48
861.46	26.62
861.634	18.43
861.808	28.67
861.982	10.24
862.157	96.25
862.331	-26.62
862.505	16.38
862.679	71.68
862.853	-12.29
863.027	28.67
863.201	30.72
863.375	-8.19
863.549	51.2
863.722	43.01
863.896	75.77
864.07	10.24
864.244	-40.96
864.418	-6.14
864.592	59.39
864.766	18.43
864.939	-4.1
865.113	-18.43
865.287	40.96
865.461	-22.53
865.634	20.48
865.808	112.64
865.982	16.38
866.156	-30.72
866.329	12.29
866.503	57.34
866.676	-12.29
866.85	-45.06
867.024	6.14
867.197	-8.19
867.371	4.1
867.544	-38.91
867.718	-14.34
867.891	36.86
868.065	2.05
868.238	-2.05
868.412	79.87
868.585	-26.62
868.759	-47.1
868.932	22.53
869.105	-20.48
869.279	34.82
869.452	32.77
869.625	-10.24
869.799	28.67
869.972	12.29
870.145	-92.16
870.319	26.62
870.492	-10.24
870.665	-51.2
870.838	16.38
871.011	32.77
871.185	57.34
871.358	8.19
871.531	2.05
871.704	-63.49
871.877	45.06
872.05	-22.53
872.223	73.73
872.396	12.29
872.569	-10.24
872.742	53.25
872.915	-32.77
873.088	-20.48
873.261	102.4
873.434	24.58
873.607	24.58
873.78	14.34
873.953	22.53
874.126	59.39
874.299	-2.05
874.471	-59.39
874.644	40.96
874.817	-30.72
874.99	-12.29
875.163	-22.53
875.335	55.3
875.508	-47.1
875.681	55.3
875.853	32.77
876.026	-26.62
876.199	-14.34
876.371	59.39
876.544	26.62
876.717	16.38
876.889	30.72
877.062	61.44
877.234	22.53
877.407	0
877.579	32.77
877.752	40.96
877.924	14.34
878.097	-2.05
878.269	75.77
878.442	16.38
878.614	12.29
878.786	26.62
878.959	10.24
879.131	28.67
879.303	12.29
879.476	75.77
879.648	-79.87
879.82	-6.14
879.993	10.24
880.165	-8.19
880.337	26.62
880.509	-30.72
880.681	20.48
880.854	20.48
881.026	43.01
881.198	32.77
881.37	-59.39
881.542	-67.58
881.714	71.68
881.886	10.24
882.058	-49.15
882.23	-34.82
882.402	4.1
882.574	86.01
882.746	20.48
882.918	-53.25
883.09	-63.49
883.262	18.43
883.434	-24.58
883.606	-65.54
883.778	-51.2
883.95	-40.96
884.122	-55.3
884.293	26.62
884.465	47.1
884.637	14.34
884.809	-40.96
884.98	-34.82
885.152	-18.43
885.324	57.34
885.496	14.34
885.667	40.96
885.839	-36.86
886.011	22.53
886.182	-16.38
886.354	-18.43
886.525	0
886.697	45.06
886.869	14.34
887.04	14.34
887.212	18.43
887.383	-14.34
887.555	28.67
887.726	-51.2
887.897	30.72
888.069	47.1
888.24	83.97
888.412	12.29
888.583	30.72
888.754	30.72
888.926	22.53
889.097	18.43
889.268	-34.82
889.44	-22.53
889.611	-43.01
889.782	-18.43
889.953	-8.19
890.125	71.68
890.296	12.29
890.467	24.58
890.638	-14.34
890.809	0
890.98	-22.53
891.151	36.86
891.323	-14.34
891.494	-8.19
891.665	-8.19
891.836	47.1
892.007	-12.29
892.178	-6.14
892.349	2.05
892.52	-12.29
892.691	-2.05
892.862	10.24
893.032	-55.3
893.203	59.39
893.374	-67.58
893.545	-22.53
893.716	2.05
893.887	-2.05
894.057	73.73
894.228	34.82
894.399	-32.77
894.57	83.97
894.74	8.19
894.911	32.77
895.082	40.96
895.253	28.67
895.423	-16.38
895.594	24.58
895.764	-28.67
895.935	61.44
896.106	6.14
896.276	49.15
896.447	-51.2
896.617	-77.82
896.788	8.19
896.958	59.39
897.129	-30.72
897.299	30.72
897.47	6.14
897.64	-40.96
897.81	-26.62
897.981	79.87
898.151	-120.83
898.322	40.96
898.492	0
898.662	-22.53
898.832	-4.1
899.003	-22.53
899.173	8.19
899.343	6.14
899.513	55.3
