Data from USB4F104151__52__12-59-14-124.txt Node

Date: Fri Mar 14 12:59:14 EDT 2025
User: louis
Spectrometer: USB4F10415
Trigger mode: 4
Integration Time (sec): 1.000000E-2
Scans to average: 1
Electric dark correction enabled: true
Nonlinearity correction enabled: false
Boxcar width: 0
XAxis mode: Wavelengths
Number of Pixels in Spectrum: 3648
>>>>>Begin Spectral Data<<<<<
178.204	-50.35
178.424	-50.35
178.644	-50.35
178.864	-70.83
179.084	-64.68
179.304	-5.29
179.524	0.85
179.744	7
179.964	-1.19
180.184	-21.67
180.404	37.72
180.624	-3.24
180.844	2.9
181.064	-42.15
181.283	-13.48
181.503	68.44
181.723	-29.87
181.943	-38.06
182.163	0.85
182.383	-13.48
182.602	-21.67
182.822	15.19
183.042	11.09
183.262	11.09
183.482	70.48
183.701	2.9
183.921	25.43
184.141	9.05
184.361	99.16
184.58	-13.48
184.8	23.38
185.02	-1.19
185.239	43.86
185.459	52.05
185.679	72.53
185.898	9.05
186.118	-31.91
186.338	-7.34
186.557	9.05
186.777	17.24
186.997	-33.96
187.216	80.72
187.436	58.2
187.655	-23.72
187.875	7
188.095	66.39
188.314	-19.63
188.534	27.48
188.753	-1.19
188.973	25.43
189.192	95.06
189.412	58.2
189.631	9.05
189.851	50
190.07	15.19
190.29	33.62
190.509	2.9
190.729	-15.53
190.948	56.15
191.168	15.19
191.387	25.43
191.607	27.48
191.826	58.2
192.045	-15.53
192.265	-1.19
192.484	7
192.704	25.43
192.923	-15.53
193.142	68.44
193.362	-31.91
193.581	4.95
193.8	62.29
194.02	41.81
194.239	21.33
194.458	0.85
194.678	19.29
194.897	27.48
195.116	-7.34
195.335	66.39
195.555	72.53
195.774	-7.34
195.993	13.14
196.212	29.52
196.432	25.43
196.651	41.81
196.87	-9.39
197.089	39.76
197.308	-29.87
197.528	-17.58
197.747	-23.72
197.966	19.29
198.185	35.67
198.404	27.48
198.623	35.67
198.842	-54.44
199.062	78.68
199.281	29.52
199.5	60.24
199.719	60.24
199.938	88.92
200.157	86.87
200.376	47.96
200.595	13.14
200.814	64.34
201.033	39.76
201.252	31.57
201.471	27.48
201.69	17.24
201.909	45.91
202.128	35.67
202.347	50
202.566	54.1
202.785	37.72
203.004	56.15
203.223	25.43
203.442	80.72
203.661	68.44
203.879	2.9
204.098	31.57
204.317	74.58
204.536	62.29
204.755	-17.58
204.974	50
205.193	39.76
205.411	52.05
205.63	13.14
205.849	58.2
206.068	-58.54
206.287	-19.63
206.505	-3.24
206.724	146.26
206.943	-25.77
207.162	15.19
207.381	47.96
207.599	17.24
207.818	-1.19
208.037	54.1
208.255	37.72
208.474	0.85
208.693	74.58
208.911	66.39
209.13	-113.83
209.349	27.48
209.567	29.52
209.786	60.24
210.005	-64.68
210.223	25.43
210.442	11.09
210.661	80.72
210.879	50
211.098	50
211.316	-7.34
211.535	31.57
211.753	-36.01
211.972	-21.67
212.191	13.14
212.409	4.95
212.628	-25.77
212.846	-3.24
213.065	68.44
213.283	29.52
213.502	13.14
213.72	-21.67
213.938	29.52
214.157	60.24
214.375	4.95
214.594	-25.77
214.812	-3.24
215.031	70.48
215.249	2.9
215.467	68.44
215.686	29.52
215.904	0.85
216.122	-13.48
216.341	127.83
216.559	23.38
216.778	-42.15
216.996	78.68
217.214	-50.35
217.432	31.57
217.651	9.05
217.869	-21.67
218.087	19.29
218.306	7
218.524	33.62
218.742	-3.24
218.96	-9.39
219.179	47.96
219.397	60.24
219.615	54.1
219.833	66.39
220.051	15.19
220.27	76.63
220.488	31.57
220.706	50
220.924	52.05
221.142	25.43
221.36	21.33
221.578	35.67
221.796	125.78
222.015	60.24
222.233	-3.24
222.451	7
222.669	25.43
222.887	43.86
223.105	-15.53
223.323	21.33
223.541	-21.67
223.759	45.91
223.977	-3.24
224.195	7
224.413	39.76
224.631	-5.29
224.849	-5.29
225.067	45.91
225.285	4.95
225.503	78.68
225.721	15.19
225.939	66.39
226.157	13.14
226.375	15.19
226.592	47.96
226.81	29.52
227.028	23.38
227.246	66.39
227.464	15.19
227.682	93.01
227.9	31.57
228.117	80.72
228.335	-13.48
228.553	-1.19
228.771	11.09
228.989	19.29
229.206	11.09
229.424	-9.39
229.642	-19.63
229.86	0.85
230.077	-36.01
230.295	35.67
230.513	7
230.731	88.92
230.948	25.43
231.166	58.2
231.384	21.33
231.601	-1.19
231.819	21.33
232.037	31.57
232.254	-5.29
232.472	7
232.689	66.39
232.907	60.24
233.125	0.85
233.342	64.34
233.56	33.62
233.777	2.9
233.995	-29.87
234.213	41.81
234.43	-17.58
234.648	-21.67
234.865	52.05
235.083	-46.25
235.3	-25.77
235.518	31.57
235.735	39.76
235.953	78.68
236.17	52.05
236.388	-33.96
236.605	15.19
236.822	47.96
237.04	33.62
237.257	-48.3
237.475	19.29
237.692	74.58
237.909	-33.96
238.127	37.72
238.344	19.29
238.562	-3.24
238.779	-11.43
238.996	56.15
239.214	-48.3
239.431	80.72
239.648	23.38
239.865	43.86
240.083	-7.34
240.3	-62.63
240.517	15.19
240.735	56.15
240.952	62.29
241.169	31.57
241.386	-48.3
241.603	13.14
241.821	60.24
242.038	84.82
242.255	33.62
242.472	-48.3
242.689	43.86
242.907	23.38
243.124	23.38
243.341	9.05
243.558	43.86
243.775	19.29
243.992	33.62
244.209	31.57
244.426	-23.72
244.643	15.19
244.86	15.19
245.078	68.44
245.295	54.1
245.512	15.19
245.729	-1.19
245.946	29.52
246.163	35.67
246.38	9.05
246.597	33.62
246.814	17.24
247.031	-11.43
247.248	-9.39
247.464	15.19
247.681	-17.58
247.898	-40.11
248.115	33.62
248.332	17.24
248.549	-5.29
248.766	-1.19
248.983	-46.25
249.2	76.63
249.417	-11.43
249.633	37.72
249.85	54.1
250.067	19.29
250.284	25.43
250.501	66.39
250.717	21.33
250.934	50
251.151	-31.91
251.368	-1.19
251.585	23.38
251.801	-31.91
252.018	50
252.235	45.91
252.451	-50.35
252.668	-36.01
252.885	19.29
253.102	-3.24
253.318	54.1
253.535	39.76
253.752	52.05
253.968	-27.82
254.185	-7.34
254.401	90.96
254.618	62.29
254.835	21.33
255.051	4.95
255.268	19.29
255.484	2.9
255.701	33.62
255.917	31.57
256.134	27.48
256.351	21.33
256.567	2.9
256.784	58.2
257	76.63
257.217	-33.96
257.433	68.44
257.65	101.2
257.866	21.33
258.082	-13.48
258.299	7
258.515	-1.19
258.732	-27.82
258.948	4.95
259.165	70.48
259.381	47.96
259.597	31.57
259.814	39.76
260.03	88.92
260.246	50
260.463	-11.43
260.679	9.05
260.895	-17.58
261.112	-46.25
261.328	-13.48
261.544	117.59
261.761	21.33
261.977	-31.91
262.193	-9.39
262.409	-50.35
262.626	13.14
262.842	58.2
263.058	74.58
263.274	60.24
263.49	7
263.707	-5.29
263.923	0.85
264.139	15.19
264.355	13.14
264.571	45.91
264.787	-25.77
265.004	93.01
265.22	-13.48
265.436	88.92
265.652	21.33
265.868	11.09
266.084	43.86
266.3	58.2
266.516	41.81
266.732	35.67
266.948	9.05
267.164	-3.24
267.38	-27.82
267.596	-29.87
267.812	19.29
268.028	21.33
268.244	27.48
268.46	-58.54
268.676	21.33
268.892	-9.39
269.108	-1.19
269.324	39.76
269.54	0.85
269.756	56.15
269.972	4.95
270.188	0.85
270.403	-21.67
270.619	39.76
270.835	-1.19
271.051	-9.39
271.267	-29.87
271.483	43.86
271.698	25.43
271.914	29.52
272.13	31.57
272.346	9.05
272.562	62.29
272.777	9.05
272.993	72.53
273.209	27.48
273.425	60.24
273.64	9.05
273.856	35.67
274.072	47.96
274.287	21.33
274.503	47.96
274.719	66.39
274.934	31.57
275.15	39.76
275.366	15.19
275.581	-11.43
275.797	19.29
276.012	2.9
276.228	80.72
276.444	15.19
276.659	-3.24
276.875	-11.43
277.09	127.83
277.306	0.85
277.521	39.76
277.737	-48.3
277.952	43.86
278.168	-19.63
278.383	93.01
278.599	15.19
278.814	45.91
279.03	58.2
279.245	21.33
279.461	21.33
279.676	76.63
279.892	80.72
280.107	-7.34
280.322	-23.72
280.538	52.05
280.753	7
280.969	2.9
281.184	-7.34
281.399	29.52
281.615	15.19
281.83	43.86
282.045	13.14
282.26	15.19
282.476	62.29
282.691	17.24
282.906	-23.72
283.122	11.09
283.337	7
283.552	33.62
283.767	93.01
283.983	27.48
284.198	33.62
284.413	29.52
284.628	33.62
284.843	68.44
285.058	78.68
285.274	-1.19
285.489	31.57
285.704	23.38
285.919	47.96
286.134	62.29
286.349	27.48
286.564	-27.82
286.779	27.48
286.995	7
287.21	-46.25
287.425	45.91
287.64	-3.24
287.855	33.62
288.07	66.39
288.285	33.62
288.5	70.48
288.715	21.33
288.93	27.48
289.145	11.09
289.36	21.33
289.575	0.85
289.79	-13.48
290.004	62.29
290.219	-54.44
290.434	78.68
290.649	-21.67
290.864	52.05
291.079	-9.39
291.294	86.87
291.509	-17.58
291.724	72.53
291.938	93.01
292.153	52.05
292.368	41.81
292.583	27.48
292.798	31.57
293.012	15.19
293.227	76.63
293.442	15.19
293.657	86.87
293.871	27.48
294.086	31.57
294.301	-23.72
294.516	80.72
294.73	9.05
294.945	27.48
295.16	19.29
295.374	31.57
295.589	37.72
295.804	-46.25
296.018	7
296.233	-3.24
296.447	19.29
296.662	-7.34
296.877	-11.43
297.091	31.57
297.306	-25.77
297.52	9.05
297.735	17.24
297.949	39.76
298.164	-3.24
298.378	-19.63
298.593	-7.34
298.807	43.86
299.022	4.95
299.236	54.1
299.451	31.57
299.665	80.72
299.88	35.67
300.094	25.43
300.309	4.95
300.523	-15.53
300.737	27.48
300.952	-19.63
301.166	56.15
301.381	33.62
301.595	-25.77
301.809	50
302.024	-40.11
302.238	-13.48
302.452	0.85
302.667	-42.15
302.881	9.05
303.095	-21.67
303.309	70.48
303.524	7
303.738	25.43
303.952	39.76
304.166	31.57
304.381	-5.29
304.595	47.96
304.809	-3.24
305.023	37.72
305.237	-9.39
305.452	19.29
305.666	41.81
305.88	7
306.094	4.95
306.308	15.19
306.522	-7.34
306.736	7
306.95	47.96
307.164	80.72
307.379	-13.48
307.593	23.38
307.807	-42.15
308.021	-25.77
308.235	39.76
308.449	33.62
308.663	17.24
308.877	99.16
309.091	93.01
309.305	17.24
309.519	-3.24
309.733	58.2
309.947	50
310.161	58.2
310.374	21.33
310.588	74.58
310.802	25.43
311.016	41.81
311.23	50
311.444	31.57
311.658	-25.77
311.872	41.81
312.085	50
312.299	9.05
312.513	39.76
312.727	35.67
312.941	23.38
313.154	60.24
313.368	7
313.582	25.43
313.796	29.52
314.009	15.19
314.223	50
314.437	-23.72
314.651	15.19
314.864	2.9
315.078	68.44
315.292	13.14
315.505	23.38
315.719	93.01
315.933	-1.19
316.146	47.96
316.36	-48.3
316.573	17.24
316.787	-3.24
317.001	56.15
317.214	27.48
317.428	80.72
317.641	-7.34
317.855	60.24
318.068	54.1
318.282	115.54
318.495	64.34
318.709	43.86
318.922	33.62
319.136	35.67
319.349	70.48
319.563	0.85
319.776	-21.67
319.99	21.33
320.203	74.58
320.417	-1.19
320.63	86.87
320.843	-11.43
321.057	13.14
321.27	113.49
321.483	17.24
321.697	43.86
321.91	4.95
322.124	43.86
322.337	47.96
322.55	0.85
322.763	54.1
322.977	11.09
323.19	31.57
323.403	13.14
323.617	97.11
323.83	66.39
324.043	-1.19
324.256	39.76
324.469	27.48
324.683	80.72
324.896	33.62
325.109	60.24
325.322	43.86
325.535	-19.63
325.748	72.53
325.962	31.57
326.175	76.63
326.388	64.34
326.601	-1.19
326.814	64.34
327.027	39.76
327.24	111.44
327.453	25.43
327.666	15.19
327.879	31.57
328.092	43.86
328.305	27.48
328.518	25.43
328.731	56.15
328.944	0.85
329.157	-15.53
329.37	31.57
329.583	86.87
329.796	115.54
330.009	-3.24
330.222	41.81
330.435	41.81
330.648	88.92
330.861	4.95
331.073	9.05
331.286	-13.48
331.499	88.92
331.712	33.62
331.925	62.29
332.138	84.82
332.35	31.57
332.563	39.76
332.776	27.48
332.989	17.24
333.202	31.57
333.414	-38.06
333.627	-38.06
333.84	60.24
334.053	140.12
334.265	-9.39
334.478	17.24
334.691	95.06
334.903	52.05
335.116	19.29
335.329	66.39
335.541	-9.39
335.754	45.91
335.966	-33.96
336.179	9.05
336.392	-31.91
336.604	50
336.817	123.73
337.029	25.43
337.242	50
337.454	4.95
337.667	17.24
337.88	2.9
338.092	-44.2
338.305	17.24
338.517	21.33
338.729	-7.34
338.942	27.48
339.154	31.57
339.367	31.57
339.579	43.86
339.792	0.85
340.004	105.3
340.217	78.68
340.429	-21.67
340.641	-48.3
340.854	39.76
341.066	47.96
341.278	11.09
341.491	25.43
341.703	80.72
341.915	-15.53
342.128	-9.39
342.34	54.1
342.552	11.09
342.764	72.53
342.977	15.19
343.189	-48.3
343.401	-1.19
343.613	17.24
343.826	13.14
344.038	-27.82
344.25	19.29
344.462	17.24
344.674	78.68
344.886	54.1
345.099	25.43
345.311	-13.48
345.523	9.05
345.735	19.29
345.947	78.68
346.159	-11.43
346.371	33.62
346.583	15.19
346.795	13.14
347.007	19.29
347.219	90.96
347.431	58.2
347.643	88.92
347.855	-42.15
348.067	43.86
348.279	41.81
348.491	-25.77
348.703	52.05
348.915	113.49
349.127	23.38
349.339	-40.11
349.551	-66.73
349.763	72.53
349.975	90.96
350.187	15.19
350.399	58.2
350.61	35.67
350.822	60.24
351.034	15.19
351.246	17.24
351.458	117.59
351.669	56.15
351.881	-1.19
352.093	111.44
352.305	31.57
352.517	33.62
352.728	84.82
352.94	-15.53
353.152	93.01
353.363	35.67
353.575	9.05
353.787	-29.87
353.999	66.39
354.21	58.2
354.422	7
354.633	21.33
354.845	-29.87
355.057	17.24
355.268	11.09
355.48	-17.58
355.692	0.85
355.903	23.38
356.115	76.63
356.326	33.62
356.538	-1.19
356.749	13.14
356.961	39.76
357.172	72.53
357.384	13.14
357.595	74.58
357.807	39.76
358.018	129.88
358.23	45.91
358.441	23.38
358.653	-1.19
358.864	27.48
359.075	56.15
359.287	-36.01
359.498	101.2
359.709	74.58
359.921	-31.91
360.132	0.85
360.344	-11.43
360.555	105.3
360.766	37.72
360.977	-27.82
361.189	4.95
361.4	103.25
361.611	7
361.823	47.96
362.034	72.53
362.245	19.29
362.456	86.87
362.667	-25.77
362.879	-21.67
363.09	11.09
363.301	15.19
363.512	29.52
363.723	72.53
363.935	80.72
364.146	47.96
364.357	17.24
364.568	78.68
364.779	50
364.99	7
365.201	23.38
365.412	-9.39
365.623	-29.87
365.834	58.2
366.045	-54.44
366.256	60.24
366.467	56.15
366.678	-1.19
366.889	66.39
367.1	52.05
367.311	70.48
367.522	58.2
367.733	50
367.944	31.57
368.155	-29.87
368.366	35.67
368.577	13.14
368.788	88.92
368.999	19.29
369.209	62.29
369.42	60.24
369.631	31.57
369.842	-13.48
370.053	56.15
370.264	-19.63
370.474	13.14
370.685	62.29
370.896	-42.15
371.107	-13.48
371.317	50
371.528	35.67
371.739	13.14
371.95	52.05
372.16	64.34
372.371	-50.35
372.582	45.91
372.792	64.34
373.003	43.86
373.214	33.62
373.424	-5.29
373.635	31.57
373.846	58.2
374.056	68.44
374.267	78.68
374.477	43.86
374.688	33.62
374.898	21.33
375.109	45.91
375.319	78.68
375.53	-7.34
375.74	19.29
375.951	17.24
376.161	23.38
376.372	17.24
376.582	31.57
376.793	47.96
377.003	37.72
377.214	50
377.424	33.62
377.635	70.48
377.845	-7.34
378.055	-23.72
378.266	76.63
378.476	11.09
378.686	17.24
378.897	43.86
379.107	66.39
379.317	60.24
379.528	47.96
379.738	35.67
379.948	45.91
380.158	-27.82
380.369	33.62
380.579	35.67
380.789	31.57
380.999	33.62
381.21	88.92
381.42	31.57
381.63	54.1
381.84	23.38
382.05	-38.06
382.261	45.91
382.471	45.91
382.681	21.33
382.891	0.85
383.101	39.76
383.311	-9.39
383.521	27.48
383.731	25.43
383.941	86.87
384.151	74.58
384.361	82.77
384.571	-42.15
384.781	80.72
384.991	88.92
385.201	41.81
385.411	37.72
385.621	76.63
385.831	88.92
386.041	-40.11
386.251	72.53
386.461	78.68
386.671	31.57
386.881	43.86
387.091	-3.24
387.301	78.68
387.511	97.11
387.72	7
387.93	45.91
388.14	68.44
388.35	7
388.56	84.82
388.769	93.01
388.979	88.92
389.189	35.67
389.399	66.39
389.609	41.81
389.818	58.2
390.028	93.01
390.238	64.34
390.447	64.34
390.657	9.05
390.867	50
391.076	76.63
391.286	45.91
391.496	7
391.705	56.15
391.915	105.3
392.125	17.24
392.334	90.96
392.544	54.1
392.753	50
392.963	86.87
393.172	-5.29
393.382	74.58
393.591	33.62
393.801	31.57
394.01	64.34
394.22	74.58
394.429	80.72
394.639	74.58
394.848	66.39
395.058	47.96
395.267	68.44
395.477	35.67
395.686	56.15
395.895	31.57
396.105	-7.34
396.314	105.3
396.524	37.72
396.733	-1.19
396.942	21.33
397.152	54.1
397.361	127.83
397.57	90.96
397.78	39.76
397.989	35.67
398.198	93.01
398.407	93.01
398.617	97.11
398.826	80.72
399.035	90.96
399.244	58.2
399.453	93.01
399.663	50
399.872	162.64
400.081	66.39
400.29	97.11
400.499	76.63
400.708	150.36
400.917	138.07
401.127	17.24
401.336	64.34
401.545	105.3
401.754	60.24
401.963	113.49
402.172	56.15
402.381	123.73
402.59	74.58
402.799	82.77
403.008	93.01
403.217	88.92
403.426	131.92
403.635	31.57
403.844	115.54
404.053	74.58
404.262	90.96
404.471	80.72
404.68	93.01
404.888	78.68
405.097	35.67
405.306	123.73
405.515	93.01
405.724	133.97
405.933	113.49
406.142	193.36
406.35	148.31
406.559	95.06
406.768	107.35
406.977	205.65
407.185	103.25
407.394	138.07
407.603	99.16
407.812	197.46
408.02	45.91
408.229	119.64
408.438	109.4
408.646	125.78
408.855	158.55
409.064	78.68
409.272	154.45
409.481	140.12
409.69	162.64
409.898	138.07
410.107	150.36
410.315	162.64
410.524	179.03
410.733	142.16
410.941	174.93
411.15	160.59
411.358	269.14
411.567	226.13
411.775	271.19
411.984	246.61
412.192	213.84
412.401	275.28
412.609	197.46
412.818	260.95
413.026	273.23
413.234	301.9
413.443	351.06
413.651	281.43
413.86	344.91
414.068	295.76
414.276	326.48
414.485	418.64
414.693	381.78
414.901	375.63
415.11	449.36
415.318	326.48
415.526	480.08
415.734	494.41
415.943	473.93
416.151	422.73
416.359	488.27
416.567	484.17
416.776	543.57
416.984	545.61
417.192	533.33
417.4	555.85
417.608	541.52
417.817	609.1
418.025	588.62
418.233	611.15
418.441	605
418.649	682.83
418.857	738.12
419.065	713.55
419.273	670.54
419.481	793.42
419.689	813.9
419.897	850.76
420.105	875.34
420.313	912.2
420.521	912.2
420.729	979.78
420.937	990.02
421.145	1106.76
421.353	1041.22
421.561	1094.47
421.769	1106.76
421.977	1190.72
422.185	1119.04
422.393	1229.63
422.601	1332.03
422.809	1266.5
423.017	1164.1
423.224	1413.95
423.432	1420.1
423.64	1442.62
423.848	1551.17
424.056	1397.57
424.263	1614.65
424.471	1626.94
424.679	1590.08
424.887	1778.49
425.094	1796.92
425.302	1794.87
425.51	1889.08
425.718	1905.46
425.925	1954.62
426.133	1987.38
426.341	2054.97
426.548	2173.75
426.756	2110.26
426.964	2143.03
427.171	2378.55
427.379	2411.31
427.586	2448.18
427.794	2612.01
428.001	2560.81
428.209	2704.17
428.417	2743.08
428.624	2884.39
428.832	2941.74
429.039	2935.59
429.247	2954.02
429.454	3095.33
429.662	3410.72
429.869	3214.12
430.076	3457.82
430.284	3394.34
430.491	3410.72
430.699	3691.29
430.906	3605.28
431.114	3818.27
431.321	3863.32
431.528	3914.52
431.736	4186.9
431.943	4383.51
432.15	4049.69
432.358	4291.35
432.565	4614.93
432.772	4453.14
432.979	4610.83
433.187	4875.02
433.394	4805.39
433.601	5186.31
433.808	5274.37
434.016	5114.63
434.223	5290.76
434.43	5698.3
434.637	5595.9
434.844	6013.69
435.052	6181.62
435.259	5921.53
435.466	5968.63
435.673	6087.42
435.88	6443.76
436.087	6677.23
436.294	6652.66
436.501	6677.23
436.708	6843.12
436.915	6818.54
437.122	7193.32
437.329	7105.26
437.537	7539.43
437.743	7568.1
437.95	7508.71
438.157	7920.35
438.364	8381.14
438.571	7926.49
438.778	8356.57
438.985	9128.65
439.192	8577.75
439.399	8975.05
439.606	8831.69
439.813	9202.38
440.02	9685.7
440.227	9720.51
440.433	9433.8
440.64	9878.21
440.847	9702.08
441.054	10181.31
441.261	10861.23
441.467	10597.04
441.674	10838.7
441.881	11303.59
442.088	11160.24
442.294	11127.47
442.501	11508.39
442.708	11592.36
442.914	11903.65
443.121	12513.94
443.328	12368.54
443.534	13114
443.741	12677.78
443.948	12788.37
444.154	13554.31
444.361	13480.58
444.568	13390.47
444.774	13486.73
444.981	13681.28
445.187	14246.52
445.394	14678.65
445.6	14748.28
445.807	15970.91
446.013	15231.6
446.22	15653.48
446.426	16198.24
446.633	16151.13
446.839	16968.27
447.046	16202.33
447.252	17205.84
447.459	17386.06
447.665	17326.67
447.871	18027.07
448.078	18790.97
448.284	18115.14
448.491	18344.51
448.697	18860.6
448.903	19343.92
449.11	19626.54
449.316	19300.91
449.522	19468.84
449.728	19952.16
449.935	20068.9
450.141	20034.08
450.347	21037.59
450.553	20126.24
450.76	20634.14
450.966	21029.4
451.172	21064.21
451.378	21580.3
451.584	21049.88
451.791	21748.23
451.997	21555.72
452.203	22137.35
452.409	21969.41
452.615	21936.65
452.821	20838.94
453.027	21013.01
453.233	22039.05
453.44	21137.94
453.646	21420.56
453.852	21635.6
454.058	22225.41
454.264	21049.88
454.47	21729.8
454.676	21182.99
454.882	22102.53
455.088	19943.97
455.294	20183.59
455.5	20462.11
455.705	20972.05
455.911	19905.06
456.117	19630.63
456.323	19081.78
456.529	18278.97
456.735	19024.44
456.941	18909.75
457.147	18457.15
457.352	17771.08
457.558	17801.8
457.764	17392.2
457.97	17328.72
458.176	16972.37
458.381	16718.42
458.587	16466.52
458.793	16011.87
458.999	15387.24
459.204	16370.27
459.41	15882.85
459.616	15045.23
459.821	14867.06
460.027	15024.75
460.233	14510.71
460.438	13890.18
460.644	14062.21
460.85	13281.93
461.055	13120.14
461.261	13021.84
461.466	12280.47
461.672	11858.59
461.878	12722.84
462.083	11944.61
462.289	11492.01
462.494	11303.59
462.7	10812.08
462.905	10529.46
463.111	10869.42
463.316	11203.24
463.522	10640.05
463.727	10914.48
463.932	10971.82
464.138	10558.13
464.343	10603.19
464.549	10261.18
464.754	11127.47
464.959	10685.11
465.165	10613.43
465.37	10105.53
465.575	9906.88
465.781	10287.8
465.986	10314.42
466.191	10011.32
466.397	9904.83
466.602	9290.44
466.807	9745.09
467.012	9738.94
467.218	9724.61
467.423	9634.5
467.628	9564.87
467.833	10050.24
468.038	9648.83
468.244	9425.61
468.449	9923.26
468.654	9261.77
468.859	9274.06
469.064	9194.19
469.269	9077.45
469.474	9052.88
469.679	9102.03
469.885	9040.59
470.09	9020.11
470.295	9022.16
470.5	8983.24
470.705	8843.98
470.91	8676.05
471.115	8549.07
471.32	8667.86
471.525	8747.73
471.73	8461.01
471.935	8379.09
472.139	8094.43
472.344	8184.54
472.549	8213.21
472.754	8092.38
472.959	7797.47
473.164	7776.99
473.369	7815.9
473.574	7967.45
473.778	7879.39
473.983	7690.98
474.188	7815.9
474.393	7477.99
474.598	7553.76
474.802	7396.07
475.007	7414.5
475.212	7443.17
475.417	6988.52
475.621	7203.56
475.826	6978.28
476.031	6937.32
476.235	6953.71
476.44	6912.75
476.645	6908.65
476.849	6818.54
477.054	6867.69
477.259	6578.93
477.463	6568.69
477.668	6349.56
477.872	6566.64
478.077	6324.98
478.282	6243.06
478.486	6163.19
478.691	6216.44
478.895	6146.81
479.1	6204.15
479.304	6136.57
479.509	5939.96
479.713	6071.03
479.918	5978.87
480.122	5987.07
480.326	6009.59
480.531	5960.44
480.735	5862.14
480.94	5804.8
481.144	6087.42
481.348	5812.99
481.553	5835.52
481.757	5710.59
481.961	5810.94
482.166	5851.9
482.37	5962.49
482.574	5677.82
482.778	5817.08
482.983	5790.46
483.187	5536.51
483.391	5759.74
483.595	5819.13
483.8	5833.47
484.004	5776.13
484.208	5669.63
484.412	5757.69
484.616	5700.35
484.821	5729.02
485.025	5503.75
485.229	5901.05
485.433	5708.54
485.637	5765.89
485.841	5747.45
486.045	5671.68
486.249	5761.79
486.453	5520.13
486.657	5776.13
486.861	5788.41
487.065	5659.39
487.269	5669.63
487.473	5712.64
487.677	5757.69
487.881	5761.79
488.085	5810.94
488.289	5767.93
488.493	5718.78
488.697	5948.15
488.901	5827.32
489.105	5638.91
489.309	5831.42
489.512	5847.8
489.716	5890.81
489.92	5784.32
490.124	5942.01
490.328	5817.08
490.531	5856
490.735	5995.26
490.939	6058.74
491.143	5896.96
491.346	6005.5
491.55	5888.76
491.754	6081.27
491.958	5856
492.161	5937.91
492.365	5987.07
492.569	6040.31
492.772	6099.7
492.976	6292.21
493.18	6138.62
493.383	6337.27
493.587	6341.36
493.79	6454
493.994	6300.41
494.197	6374.13
494.401	6382.32
494.605	6439.67
494.808	6609.65
495.012	6542.07
495.215	6519.54
495.419	6732.53
495.622	6630.13
495.825	6517.49
496.029	6773.49
496.232	6816.49
496.436	6920.94
496.639	7144.17
496.843	7084.78
497.046	7154.41
497.249	7201.51
497.453	7318.25
497.656	7406.31
497.859	7508.71
498.063	7797.47
498.266	7697.12
498.469	7846.62
498.673	7693.02
498.876	7920.35
499.079	8071.9
499.282	8207.06
499.485	8155.86
499.689	8401.62
499.892	8422.1
500.095	8467.16
500.298	8659.67
500.501	8491.73
500.705	8643.28
500.908	8733.39
501.111	8688.34
501.314	9061.07
501.517	9067.21
501.72	9321.16
501.923	9335.49
502.126	9411.27
502.329	9581.25
502.532	9685.7
502.735	9568.96
502.938	9728.7
503.141	9878.21
503.344	10154.68
503.547	10287.8
503.75	10506.93
503.953	10431.16
504.156	10541.75
504.359	10750.64
504.562	10900.14
504.765	10871.47
504.968	11125.42
505.17	11383.46
505.373	11426.47
505.576	11434.66
505.779	11672.23
505.982	11647.65
506.185	12098.2
506.387	12163.74
506.59	12366.49
506.793	12647.06
506.996	12300.95
507.198	12835.47
507.401	12688.02
507.604	12970.64
507.807	13290.12
508.009	13294.22
508.212	13531.78
508.415	13712
508.617	13716.1
508.82	14025.34
509.022	13849.22
509.225	14416.51
509.428	14248.57
509.63	14430.84
509.833	14289.53
510.035	15092.34
510.238	14842.48
510.44	14899.83
510.643	15125.1
510.845	15385.19
511.048	15403.63
511.25	15647.33
511.453	15817.32
511.655	16372.32
511.858	16167.52
512.06	16534.11
512.262	16812.63
512.465	16902.74
512.667	16876.12
512.87	17093.2
513.072	17422.92
513.274	17650.25
513.477	17902.15
513.679	18319.93
513.881	18408
514.084	18418.24
514.286	18518.59
514.488	18768.44
514.69	19055.15
514.893	19192.37
515.095	19401.26
515.297	19636.78
515.499	19538.48
515.701	19808.81
515.904	20048.42
516.106	20341.28
516.308	20537.88
516.51	20560.41
516.712	20879.89
516.914	20773.4
517.116	21336.59
517.318	21412.37
517.52	21602.83
517.722	21547.53
517.925	21899.78
518.127	22096.39
518.329	22422.02
518.531	22385.15
518.733	23054.84
518.935	22841.85
519.136	23118.32
519.338	23755.24
519.54	23615.98
519.742	24017.38
519.944	24033.77
520.146	24418.78
520.348	24607.2
520.55	24508.9
520.752	24711.64
520.954	25301.46
521.155	25008.6
521.357	25567.7
521.559	26132.93
521.761	26186.18
521.963	26065.35
522.164	26014.15
522.366	26366.4
522.568	26601.92
522.77	26993.08
522.971	27324.85
523.173	26986.94
523.375	27222.45
523.576	27441.59
523.778	27507.12
523.98	27906.48
524.181	27967.91
524.383	27728.3
524.584	28352.93
524.786	28215.72
524.988	28244.39
525.189	28918.17
525.391	29043.1
525.592	29133.21
525.794	29196.7
525.995	29426.07
526.197	29376.92
526.398	29579.67
526.6	29690.26
526.801	30423.43
527.003	29962.64
527.204	29534.61
527.406	30321.03
527.607	30108.04
527.808	30689.67
528.01	30046.6
528.211	30267.78
528.412	31056.25
528.614	30859.65
528.815	30456.2
529.016	31306.1
529.218	30935.42
529.419	31152.51
529.62	31027.58
529.822	31275.38
530.023	31105.4
530.224	31185.27
530.425	31697.27
530.626	31287.67
530.828	31097.21
531.029	32156.01
531.23	31338.87
531.431	31441.27
531.632	31650.16
531.833	31953.26
532.035	31660.4
532.236	31515
532.437	31846.77
532.638	31922.54
532.839	31992.17
533.04	32135.53
533.241	31797.62
533.442	31955.31
533.643	32323.94
533.844	31897.97
534.045	32311.66
534.246	31682.93
534.447	32594.28
534.648	32393.58
534.849	32301.42
535.05	32115.05
535.251	32438.63
535.451	32201.07
535.652	32024.94
535.853	32110.96
536.054	32213.35
536.255	32526.69
536.456	32010.6
536.657	32444.77
536.857	32385.38
537.058	32387.43
537.259	32921.95
537.46	32463.21
537.66	32229.74
537.861	32266.6
538.062	32463.21
538.263	32450.92
538.463	32352.62
538.664	32254.31
538.865	32233.83
539.065	32450.92
539.266	32274.79
539.466	32680.29
539.667	32156.01
539.868	32493.93
540.068	32282.98
540.269	32366.95
540.469	32455.01
540.67	32127.34
540.87	32319.85
541.071	32395.62
541.271	32397.67
541.472	32194.92
541.672	32399.72
541.873	32422.25
542.073	32217.45
542.274	32717.15
542.474	32317.8
542.675	32250.22
542.875	32553.32
543.075	32387.43
543.276	31799.66
543.476	32524.65
543.676	32133.48
543.877	32024.94
544.077	32233.83
544.277	32321.9
544.478	31869.3
544.678	32430.44
544.878	32239.98
545.078	32325.99
545.279	32221.55
545.479	32135.53
545.679	32293.22
545.879	32176.49
546.079	32151.91
546.28	32143.72
546.48	31973.74
546.68	32252.27
546.88	32014.7
547.08	32301.42
547.28	32123.24
547.48	32018.8
547.68	32430.44
547.88	32156.01
548.081	32252.27
548.281	32127.34
548.481	32164.2
548.681	32459.11
548.881	31887.73
549.081	32280.94
549.28	32045.42
549.48	32377.19
549.68	32045.42
549.88	32510.31
550.08	32078.19
550.28	32532.84
550.48	32043.37
550.68	32426.34
550.88	31850.86
551.08	32045.42
551.279	31779.18
551.479	32250.22
551.679	32133.48
551.879	32211.31
552.079	32356.71
552.278	31613.3
552.478	32272.74
552.678	32151.91
552.878	32285.03
553.077	31801.71
553.277	31725.94
553.477	32164.2
553.676	31922.54
553.876	31912.3
554.076	32205.16
554.275	31832.43
554.475	31650.16
554.674	31703.41
554.874	32067.95
555.074	31689.07
555.273	31578.48
555.473	31932.78
555.672	31662.45
555.872	31537.52
556.071	31658.35
556.271	32199.02
556.47	31551.86
556.67	31320.44
556.869	31420.79
557.068	31682.93
557.268	31136.12
557.467	31623.54
557.667	31254.9
557.866	31320.44
558.065	31666.55
558.265	30951.81
558.464	31269.24
558.663	31734.13
558.863	30818.69
559.062	31527.28
559.261	31017.34
559.461	31545.72
559.66	31062.4
559.859	30894.46
560.058	30677.38
560.258	30898.56
560.457	30577.03
560.656	31240.57
560.855	30704
561.054	30931.33
561.253	30591.36
561.453	30691.71
561.652	30937.47
561.851	31181.18
562.05	30501.25
562.249	30464.39
562.448	30579.07
562.647	30529.92
562.846	29962.64
563.045	30577.03
563.244	30069.13
563.443	30515.59
563.642	29864.33
563.841	30146.95
564.04	30136.71
564.239	30103.95
564.438	29811.09
564.637	29852.05
564.836	30269.83
565.035	29878.67
565.234	29856.14
565.432	29755.79
565.631	29307.29
565.83	29743.5
566.029	29653.39
566.228	29223.32
566.427	29245.85
566.625	29239.7
566.824	29161.88
567.023	29680.02
567.222	29084.06
567.42	29393.3
567.619	29045.15
567.818	29026.71
568.016	28950.94
568.215	29350.29
568.414	29082.01
568.612	29127.06
568.811	28625.31
569.01	28893.6
569.208	28582.31
569.407	28836.25
569.605	28311.97
569.804	29028.76
570.002	28191.14
570.201	28582.31
570.4	27955.63
570.598	27894.19
570.797	28320.17
570.995	28185
571.193	27767.21
571.392	28078.5
571.59	28060.07
571.789	27931.05
571.987	27576.75
572.186	27615.66
572.384	27548.08
572.582	27591.09
572.781	27935.15
572.979	27175.35
573.177	27529.65
573.376	27408.82
573.574	27056.57
573.772	27052.47
573.971	27144.63
574.169	26892.73
574.367	26970.55
574.565	27001.27
574.763	26816.96
574.962	26628.54
575.16	26651.07
575.358	26540.48
575.556	26376.64
575.754	26898.87
575.952	26261.96
576.151	26689.98
576.349	26177.99
576.547	26436.03
576.745	26171.85
576.943	26155.46
577.141	25932.23
577.339	26071.5
577.537	25952.71
577.735	26001.86
577.933	25676.24
578.131	25706.96
578.329	25729.48
578.527	25547.22
578.725	25563.6
578.923	25455.06
579.121	25364.95
579.319	25151.96
579.516	25506.26
579.714	25412.05
579.912	25176.53
580.11	24795.61
580.308	25039.32
580.506	24797.66
580.704	24447.46
580.901	24865.24
581.099	24861.15
581.297	24652.25
581.495	24613.34
581.692	24570.33
581.89	24345.06
582.088	24304.1
582.285	24531.42
582.483	24254.95
582.681	24486.37
582.878	24236.52
583.076	24005.1
583.274	24279.52
583.471	23630.32
583.669	24140.26
583.866	23544.3
584.064	23589.36
584.262	23446
584.459	23763.43
584.657	23394.8
584.854	23751.15
585.052	23400.94
585.249	23323.12
585.447	23652.84
585.644	23251.44
585.841	23384.56
586.039	23382.51
586.236	23106.04
586.434	22694.4
586.631	22768.12
586.828	23112.18
587.026	22637.05
587.223	23052.79
587.42	22948.34
587.618	22804.99
587.815	22663.68
588.012	22252.03
588.21	22471.17
588.407	22780.41
588.604	22409.73
588.801	22141.44
588.999	22368.77
589.196	22180.35
589.393	22176.26
589.59	22239.75
589.787	21643.79
589.984	21875.21
590.182	21737.99
590.379	22026.76
590.576	21514.77
590.773	21545.48
590.97	21377.55
591.167	21445.13
591.364	21318.16
591.561	21645.84
591.758	21107.22
591.955	21109.27
592.152	21355.02
592.349	20941.33
592.546	21576.2
592.743	21174.8
592.94	20853.27
593.137	21185.04
593.334	20957.72
593.531	20822.55
593.727	20951.57
593.924	20785.69
594.121	20548.12
594.318	20730.39
594.515	20562.46
594.712	20523.55
594.908	20349.47
595.105	20595.23
595.302	19843.62
595.499	20392.48
595.696	20359.71
595.892	20179.49
596.089	20128.29
596.286	20195.87
596.482	19669.55
596.679	19874.34
596.876	20027.94
597.072	20021.8
597.269	19776.04
597.466	19673.64
597.662	19782.18
597.859	19548.72
598.055	19614.25
598.252	19251.76
598.448	19407.41
598.645	19227.18
598.841	19171.89
599.038	19073.59
599.234	19419.69
599.431	19087.92
599.627	18958.9
599.824	19071.54
600.02	18727.48
600.217	18833.97
600.413	18913.84
600.609	18750.01
600.806	18520.63
601.002	18772.53
601.198	18594.36
601.395	18721.34
601.591	18330.17
601.787	18790.97
601.984	18403.9
602.18	18270.78
602.376	18338.37
602.572	18262.59
602.769	18283.07
602.965	18111.04
603.161	18035.27
603.357	18022.98
603.553	18080.32
603.75	17697.35
603.946	17853
604.142	18016.83
604.338	17719.88
604.534	17797.7
604.73	17322.57
604.926	17666.63
605.122	17519.18
605.318	17064.53
605.514	17300.05
605.71	17289.81
605.906	17470.03
606.102	17281.61
606.298	17365.58
606.494	17492.55
606.69	17044.05
606.886	17121.87
607.082	16988.75
607.278	17187.41
607.474	16804.44
607.67	17105.49
607.866	16771.67
608.062	16683.61
608.257	16697.94
608.453	16880.21
608.649	16845.4
608.845	16570.97
609.041	16857.68
609.236	16583.26
609.432	16628.31
609.628	16509.53
609.824	16462.43
610.019	16345.69
610.215	16433.75
610.411	16269.92
610.606	16474.71
610.802	16484.95
610.998	16167.52
611.193	16237.15
611.389	16235.1
611.584	15956.58
611.78	15925.86
611.976	15893.09
612.171	16173.66
612.367	15977.06
612.562	15725.16
612.758	15766.12
612.953	15860.32
613.149	16013.92
613.344	15723.11
613.539	16034.4
613.735	15753.83
613.93	15753.83
614.126	15669.86
614.321	15755.88
614.517	15524.46
614.712	15630.95
614.907	15538.79
615.103	15755.88
615.298	15334
615.493	15575.66
615.688	15284.84
615.884	15565.42
616.079	15172.21
616.274	15385.19
616.47	15080.05
616.665	15157.87
616.86	15164.01
617.055	15088.24
617.25	15090.29
617.445	15520.36
617.641	14934.64
617.836	15247.98
618.031	14987.89
618.226	14957.17
618.421	14586.49
618.616	14711.41
618.811	14727.8
619.006	14754.42
619.201	14727.8
619.396	14719.6
619.591	14183.04
619.786	14598.77
619.981	14334.59
620.176	14348.92
620.371	14281.34
620.566	14334.59
620.761	14031.49
620.956	14162.56
621.151	13896.32
621.346	13974.14
621.541	13759.11
621.735	13941.38
621.93	13419.14
622.125	13861.51
622.32	13494.92
622.515	13759.11
622.709	13548.17
622.904	13800.07
623.099	13357.71
623.294	13410.95
623.488	13318.79
623.683	13234.83
623.878	13001.36
624.072	13191.82
624.267	13130.38
624.462	13105.81
624.656	12681.88
624.851	12946.06
625.046	12714.64
625.24	12651.16
625.435	12520.09
625.629	12581.53
625.824	12530.33
626.018	12468.89
626.213	12184.22
626.407	12352.15
626.602	11960.99
626.796	12049.05
626.991	12239.51
627.185	11977.37
627.38	11901.6
627.574	11838.11
627.768	11745.95
627.963	11776.67
628.157	11616.93
628.352	11659.94
628.546	11541.16
628.74	11704.99
628.935	11319.98
629.129	11420.33
629.323	11145.9
629.517	11147.95
629.712	11233.96
629.906	11238.06
630.1	11147.95
630.294	11203.24
630.489	10926.77
630.683	11162.28
630.877	10791.6
631.071	10922.67
631.265	10863.28
631.459	10748.59
631.653	10586.8
631.848	10564.28
632.042	10615.48
632.236	10439.35
632.43	10429.11
632.624	10453.69
632.818	10355.38
633.012	10212.03
633.206	10382.01
633.4	10132.15
633.594	10193.59
633.788	10083
633.982	10162.87
634.176	10097.34
634.369	9798.34
634.563	9751.23
634.757	9624.26
634.951	9775.81
635.145	9765.57
635.339	9716.42
635.533	9456.33
635.726	9597.63
635.92	9489.09
636.114	9513.67
636.308	9374.41
636.501	9474.76
636.695	9343.69
636.889	9126.6
637.083	9315.02
637.276	9272.01
637.47	9196.23
637.664	9288.39
637.857	9077.45
638.051	9142.99
638.244	8823.5
638.438	8938.19
638.632	8805.07
638.825	8776.4
639.019	8667.86
639.212	8526.55
639.406	8616.66
639.599	8723.15
639.793	8549.07
639.986	8501.97
640.18	8381.14
640.373	8258.26
640.567	8499.92
640.76	8235.74
640.954	8190.68
641.147	8164.06
641.34	7983.84
641.534	8123.1
641.727	7983.84
641.92	8008.41
642.114	7987.93
642.307	8008.41
642.5	7959.26
642.694	7641.82
642.887	7627.49
643.08	7903.96
643.273	7719.65
643.467	7539.43
643.66	7736.03
643.853	7586.53
644.046	7238.37
644.239	7527.14
644.432	7340.77
644.626	7351.01
644.819	7334.63
645.012	7344.87
645.205	7291.62
645.398	7113.45
645.591	7146.22
645.784	7146.22
645.977	7168.74
646.17	7049.96
646.363	7013.1
646.556	6918.89
646.749	6898.41
646.942	7039.72
647.135	6978.28
647.328	6769.39
647.521	6671.09
647.714	6748.91
647.907	6818.54
648.099	6619.89
648.292	6746.86
648.485	6621.94
648.678	6511.35
648.871	6406.9
649.064	6507.25
649.256	6468.34
649.449	6355.7
649.642	6335.22
649.835	6224.63
650.027	6413.04
650.22	6073.08
650.413	6236.92
650.605	6241.01
650.798	6109.94
650.991	6134.52
651.183	6202.1
651.376	6056.7
651.568	6060.79
651.761	5825.28
651.954	6124.28
652.146	6071.03
652.339	6036.22
652.531	5862.14
652.724	5735.17
652.916	5833.47
653.109	5774.08
653.301	5843.71
653.494	5747.45
653.686	5776.13
653.879	5753.6
654.071	5579.52
654.263	5772.03
654.456	5626.62
654.648	5579.52
654.84	5466.88
655.033	5505.79
655.225	5470.98
655.417	5430.02
655.61	5260.04
655.802	5456.64
655.994	5126.92
656.186	5399.3
656.379	5298.95
656.571	5171.97
656.763	5315.33
656.955	5098.25
657.148	5241.61
657.34	5163.78
657.532	5171.97
657.724	5088.01
657.916	5036.81
658.108	4920.07
658.3	4901.64
658.492	5028.62
658.684	5014.28
658.876	4893.45
659.068	4901.64
659.26	4889.35
659.452	4868.88
659.644	4795.15
659.836	4764.43
660.028	4698.89
660.22	4641.55
660.412	4641.55
660.604	4670.22
660.796	4578.06
660.988	4627.21
661.18	4422.42
661.372	4463.38
661.563	4451.09
661.755	4451.09
661.947	4582.16
662.139	4453.14
662.331	4385.55
662.522	4348.69
662.714	4326.16
662.906	4268.82
663.097	4322.07
663.289	4524.82
663.481	4219.67
663.673	4135.7
663.864	4334.36
664.056	4225.81
664.247	4135.7
664.439	4053.78
664.631	4145.94
664.822	4248.34
665.014	4014.87
665.205	4209.43
665.397	3943.19
665.588	4072.22
665.78	3969.82
665.971	3973.91
666.163	4014.87
666.354	4047.64
666.546	3789.6
666.737	3889.95
666.929	3881.75
667.12	3785.5
667.311	3769.12
667.503	3730.2
667.694	3685.15
667.885	3752.73
668.077	3799.84
668.268	3676.96
668.459	3666.72
668.651	3638.05
668.842	3744.54
669.033	3674.91
669.224	3652.38
669.416	3572.51
669.607	3658.53
669.798	3537.7
669.989	3664.67
670.18	3314.47
670.371	3490.59
670.563	3435.3
670.754	3586.85
670.945	3451.68
671.136	3547.94
671.327	3390.24
671.518	3332.9
671.709	3402.53
671.9	3410.72
672.091	3408.67
672.282	3386.15
672.473	3298.08
672.664	3406.63
672.855	3410.72
673.046	3285.8
673.237	3332.9
673.428	3332.9
673.619	3185.44
673.809	3347.23
674	3427.11
674.191	3334.95
674.382	3259.17
674.573	3187.49
674.764	3142.44
674.954	3244.84
675.145	3357.47
675.336	3160.87
675.527	3107.62
675.717	3109.67
675.908	3257.12
676.099	3164.97
676.289	3117.86
676.48	3257.12
676.671	3189.54
676.861	3089.19
677.052	3087.14
677.243	3015.46
677.433	2994.98
677.624	2982.7
677.814	3091.24
678.005	3083.05
678.195	3078.95
678.386	3013.42
678.576	3091.24
678.767	3017.51
678.957	3148.58
679.148	2919.21
679.338	2960.17
679.529	2978.6
679.719	2982.7
679.909	3072.81
680.1	3109.67
680.29	3009.32
680.481	2919.21
680.671	3040.04
680.861	3040.04
681.052	2931.5
681.242	2822.95
681.432	2935.59
681.622	2870.06
681.813	2988.84
682.003	2894.63
682.193	2915.11
682.383	2923.3
682.573	2802.47
682.764	2861.87
682.954	2878.25
683.144	2839.34
683.334	2841.39
683.524	2978.6
683.714	2845.48
683.904	2859.82
684.094	2911.02
684.284	2841.39
684.474	2921.26
684.664	2890.54
684.854	2904.87
685.044	2849.58
685.234	2816.81
685.424	2841.39
685.614	2917.16
685.804	2794.28
685.994	2810.67
686.184	2775.85
686.374	2786.09
686.564	2777.9
686.753	2743.08
686.943	2786.09
687.133	2818.86
687.323	2765.61
687.513	2892.59
687.702	2695.98
687.892	2769.71
688.082	2632.49
688.272	2614.06
688.461	2673.45
688.651	2640.69
688.841	2646.83
689.03	2671.4
689.22	2620.21
689.41	2704.17
689.599	2751.28
689.789	2605.87
689.979	2726.7
690.168	2591.53
690.358	2700.08
690.547	2554.67
690.737	2636.59
690.926	2677.55
691.116	2698.03
691.305	2626.35
691.495	2679.6
691.684	2591.53
691.874	2575.15
692.063	2728.75
692.252	2569.01
692.442	2573.1
692.631	2605.87
692.82	2591.53
693.01	2482.99
693.199	2634.54
693.388	2468.66
693.578	2636.59
693.767	2540.33
693.956	2548.53
694.146	2501.42
694.335	2591.53
694.524	2480.94
694.713	2507.57
694.902	2661.16
695.092	2558.77
695.281	2470.7
695.47	2489.14
695.659	2497.33
695.848	2501.42
696.037	2530.09
696.226	2474.8
696.415	2505.52
696.604	2589.49
696.793	2415.41
696.982	2444.08
697.171	2442.03
697.36	2474.8
697.549	2396.98
697.738	2356.02
697.927	2390.83
698.116	2476.85
698.305	2448.18
698.494	2499.38
698.683	2376.5
698.872	2439.98
699.061	2394.93
699.25	2356.02
699.438	2370.35
699.627	2376.5
699.816	2358.07
700.005	2442.03
700.193	2325.3
700.382	2499.38
700.571	2374.45
700.76	2435.89
700.948	2327.35
701.137	2360.11
701.326	2392.88
701.514	2325.3
701.703	2341.68
701.892	2282.29
702.08	2306.87
702.269	2235.19
702.457	2325.3
702.646	2315.06
702.834	2237.24
703.023	2302.77
703.212	2337.59
703.4	2270
703.589	2308.91
703.777	2347.83
703.965	2284.34
704.154	2341.68
704.342	2272.05
704.531	2157.36
704.719	2128.69
704.907	2118.45
705.096	2196.28
705.284	2270
705.472	2231.09
705.661	2145.08
705.849	2263.86
706.037	2288.43
706.226	2245.43
706.414	2171.7
706.602	2216.76
706.79	2175.8
706.979	2145.08
707.167	2128.69
707.355	2104.12
707.543	2181.94
707.731	2231.09
707.919	2179.89
708.107	2112.31
708.296	2175.8
708.484	2089.78
708.672	2251.57
708.86	2083.64
709.048	2120.5
709.236	2220.85
709.424	2155.32
709.612	2073.4
709.8	2116.41
709.988	2161.46
710.176	2161.46
710.364	2120.5
710.551	2059.06
710.739	2112.31
710.927	1993.53
711.115	2100.02
711.303	1973.05
711.491	2126.64
711.679	2011.96
711.866	1997.62
712.054	1938.23
712.242	1891.13
712.43	2059.06
712.617	2065.21
712.805	2071.35
712.993	2005.81
713.181	1997.62
713.368	1911.61
713.556	1932.09
713.744	1987.38
713.931	1977.14
714.119	1882.94
714.306	2081.59
714.494	2091.83
714.682	2011.96
714.869	1932.09
715.057	1882.94
715.244	1878.84
715.432	1897.27
715.619	1932.09
715.807	1833.79
715.994	2011.96
716.182	1948.47
716.369	1852.22
716.556	1948.47
716.744	1811.26
716.931	1917.75
717.119	1919.8
717.306	1897.27
717.493	1860.41
717.681	1891.13
717.868	1880.89
718.055	1844.03
718.242	1966.9
718.43	1846.07
718.617	1844.03
718.804	1833.79
718.991	1860.41
719.179	1989.43
719.366	1870.65
719.553	1809.21
719.74	1882.94
719.927	1768.25
720.114	1719.1
720.301	1833.79
720.488	1700.67
720.676	1801.02
720.863	1780.54
721.05	1772.35
721.237	1751.87
721.424	1770.3
721.611	1696.57
721.798	1669.95
721.985	1727.29
722.172	1680.19
722.358	1772.35
722.545	1788.73
722.732	1749.82
722.919	1708.86
723.106	1807.16
723.293	1608.51
723.48	1655.61
723.667	1784.63
723.853	1727.29
724.04	1680.19
724.227	1610.56
724.414	1551.17
724.6	1639.23
724.787	1663.8
724.974	1684.28
725.161	1626.94
725.347	1690.43
725.534	1678.14
725.72	1696.57
725.907	1749.82
726.094	1647.42
726.28	1573.69
726.467	1628.99
726.653	1645.37
726.84	1592.13
727.027	1633.08
727.213	1653.56
727.4	1612.6
727.586	1581.89
727.773	1639.23
727.959	1645.37
728.145	1579.84
728.332	1604.41
728.518	1672
728.705	1598.27
728.891	1590.08
729.077	1538.88
729.264	1502.01
729.45	1532.73
729.636	1649.47
729.823	1579.84
730.009	1577.79
730.195	1514.3
730.382	1563.45
730.568	1524.54
730.754	1553.21
730.94	1493.82
731.126	1508.16
731.313	1571.65
731.499	1450.82
731.685	1606.46
731.871	1497.92
732.057	1491.77
732.243	1555.26
732.429	1573.69
732.615	1567.55
732.801	1596.22
732.987	1567.55
733.173	1532.73
733.359	1579.84
733.545	1518.4
733.731	1487.68
733.917	1532.73
734.103	1624.89
734.289	1510.21
734.475	1598.27
734.661	1526.59
734.847	1506.11
735.033	1549.12
735.219	1452.86
735.404	1528.64
735.59	1497.92
735.776	1475.39
735.962	1450.82
736.148	1465.15
736.333	1520.45
736.519	1485.63
736.705	1485.63
736.89	1506.11
737.076	1440.58
737.262	1483.58
737.447	1446.72
737.633	1479.49
737.819	1372.99
738.004	1393.47
738.19	1418.05
738.375	1383.23
738.561	1350.46
738.747	1372.99
738.932	1471.29
739.118	1420.1
739.303	1508.16
739.489	1424.19
739.674	1397.57
739.859	1334.08
740.045	1291.07
740.23	1430.34
740.416	1366.85
740.601	1301.31
740.786	1360.7
740.972	1354.56
741.157	1336.13
741.342	1366.85
741.528	1391.42
741.713	1252.16
741.898	1309.51
742.084	1317.7
742.269	1256.26
742.454	1280.83
742.639	1448.77
742.824	1329.99
743.01	1352.51
743.195	1395.52
743.38	1295.17
743.565	1342.27
743.75	1170.24
743.935	1315.65
744.12	1276.74
744.305	1223.49
744.49	1362.75
744.675	1286.98
744.86	1274.69
745.045	1248.07
745.23	1336.13
745.415	1309.51
745.6	1215.3
745.785	1260.35
745.97	1262.4
746.155	1219.39
746.34	1192.77
746.525	1219.39
746.71	1178.44
746.895	1172.29
747.079	1143.62
747.264	1278.79
747.449	1170.24
747.634	1190.72
747.819	1102.66
748.003	1102.66
748.188	1051.46
748.373	992.07
748.557	1153.86
748.742	1174.34
748.927	1106.76
749.111	1114.95
749.296	1061.7
749.481	1088.32
749.665	1133.38
749.85	1022.79
750.034	1082.18
750.219	1119.04
750.404	1082.18
750.588	1035.08
750.773	1084.23
750.957	1018.69
751.141	1071.94
751.326	1151.81
751.51	1043.27
751.695	947.01
751.879	1012.55
752.064	977.73
752.248	1000.26
752.432	990.02
752.617	949.06
752.801	957.25
752.985	1008.45
753.17	1104.71
753.354	969.54
753.538	965.45
753.722	977.73
753.907	924.49
754.091	1047.37
754.275	990.02
754.459	944.97
754.643	910.15
754.828	844.62
755.012	826.18
755.196	916.3
755.38	1004.36
755.564	893.77
755.748	826.18
755.932	949.06
756.116	910.15
756.3	887.62
756.484	899.91
756.668	846.66
756.852	846.66
757.036	838.47
757.22	861
757.404	867.14
757.588	871.24
757.772	793.42
757.956	797.51
758.14	734.03
758.323	793.42
758.507	852.81
758.691	830.28
758.875	750.41
759.059	750.41
759.242	713.55
759.426	772.94
759.61	840.52
759.794	785.23
759.977	736.07
760.161	772.94
760.345	777.03
760.528	768.84
760.712	740.17
760.895	736.07
761.079	686.92
761.263	752.46
761.446	707.4
761.63	764.75
761.813	682.83
761.997	715.59
762.18	592.72
762.364	633.68
762.547	723.79
762.731	678.73
762.914	684.87
763.098	721.74
763.281	678.73
763.464	736.07
763.648	748.36
763.831	623.44
764.015	639.82
764.198	711.5
764.381	621.39
764.564	660.3
764.748	598.86
764.931	729.93
765.114	697.16
765.297	641.87
765.481	699.21
765.664	666.44
765.847	627.53
766.03	701.26
766.213	662.35
766.397	631.63
766.58	629.58
766.763	672.59
766.946	643.92
767.129	619.34
767.312	633.68
767.495	484.17
767.678	580.43
767.861	611.15
768.044	639.82
768.227	570.19
768.41	613.2
768.593	623.44
768.776	607.05
768.959	609.1
769.142	596.81
769.324	557.9
769.507	566.09
769.69	637.77
769.873	574.28
770.056	615.24
770.239	572.24
770.421	535.37
770.604	580.43
770.787	553.8
770.97	531.28
771.152	531.28
771.335	478.03
771.518	584.52
771.7	611.15
771.883	607.05
772.066	541.52
772.248	490.32
772.431	594.76
772.613	559.95
772.796	480.08
772.978	621.39
773.161	564.04
773.343	504.65
773.526	490.32
773.708	549.71
773.891	453.45
774.073	557.9
774.256	539.47
774.438	516.94
774.621	537.42
774.803	443.21
774.985	525.13
775.168	521.04
775.35	502.61
775.532	529.23
775.715	459.6
775.897	469.84
776.079	426.83
776.261	555.85
776.444	551.76
776.626	506.7
776.808	508.75
776.99	392.02
777.173	457.55
777.355	410.45
777.537	459.6
777.719	500.56
777.901	437.07
778.083	471.89
778.265	461.65
778.447	387.92
778.629	404.3
778.811	416.59
778.993	394.06
779.175	459.6
779.357	389.97
779.539	490.32
779.721	418.64
779.903	392.02
780.085	385.87
780.267	361.3
780.449	359.25
780.631	416.59
780.812	299.86
780.994	355.15
781.176	355.15
781.358	394.06
781.54	367.44
781.721	351.06
781.903	359.25
782.085	357.2
782.267	437.07
782.448	381.78
782.63	369.49
782.812	367.44
782.993	312.14
783.175	306
783.357	367.44
783.538	342.86
783.72	316.24
783.901	361.3
784.083	375.63
784.264	363.34
784.446	273.23
784.627	340.82
784.809	404.3
784.99	209.75
785.172	355.15
785.353	283.47
785.535	334.67
785.716	293.71
785.897	322.38
786.079	226.13
786.26	226.13
786.441	279.38
786.623	252.75
786.804	338.77
786.985	265.04
787.167	308.05
787.348	260.95
787.529	277.33
787.71	262.99
787.891	326.48
788.073	289.62
788.254	244.56
788.435	291.66
788.616	269.14
788.797	215.89
788.978	244.56
789.159	232.27
789.34	318.29
789.522	271.19
789.703	265.04
789.884	228.18
790.065	246.61
790.246	154.45
790.427	156.5
790.607	291.66
790.788	277.33
790.969	197.46
791.15	332.62
791.331	113.49
791.512	217.94
791.693	242.51
791.874	244.56
792.054	250.71
792.235	236.37
792.416	158.55
792.597	228.18
792.778	203.6
792.958	222.03
793.139	174.93
793.32	185.17
793.5	187.22
793.681	258.9
793.862	174.93
794.042	199.51
794.223	162.64
794.404	195.41
794.584	201.55
794.765	244.56
794.945	246.61
795.126	236.37
795.306	232.27
795.487	246.61
795.667	170.83
795.848	240.47
796.028	187.22
796.209	224.08
796.389	166.74
796.57	254.8
796.75	158.55
796.93	244.56
797.111	189.27
797.291	183.12
797.471	158.55
797.652	236.37
797.832	148.31
798.012	205.65
798.192	191.31
798.373	129.88
798.553	154.45
798.733	226.13
798.913	172.88
799.093	199.51
799.274	234.32
799.454	203.6
799.634	119.64
799.814	213.84
799.994	187.22
800.174	117.59
800.354	176.98
800.534	199.51
800.714	185.17
800.894	103.25
801.074	144.21
801.254	172.88
801.434	148.31
801.614	228.18
801.794	203.6
801.974	379.73
802.154	181.07
802.334	179.03
802.514	144.21
802.693	127.83
802.873	166.74
803.053	140.12
803.233	133.97
803.413	121.68
803.592	99.16
803.772	113.49
803.952	117.59
804.131	138.07
804.311	156.5
804.491	183.12
804.67	164.69
804.85	101.2
805.03	115.54
805.209	90.96
805.389	99.16
805.568	156.5
805.748	78.68
805.928	144.21
806.107	156.5
806.287	187.22
806.466	74.58
806.646	164.69
806.825	176.98
807.004	103.25
807.184	166.74
807.363	154.45
807.543	166.74
807.722	191.31
807.901	205.65
808.081	187.22
808.26	58.2
808.439	154.45
808.619	66.39
808.798	113.49
808.977	236.37
809.156	133.97
809.336	117.59
809.515	121.68
809.694	146.26
809.873	133.97
810.052	154.45
810.231	185.17
810.411	29.52
810.59	152.4
810.769	154.45
810.948	97.11
811.127	119.64
811.306	82.77
811.485	113.49
811.664	181.07
811.843	119.64
812.022	82.77
812.201	68.44
812.38	111.44
812.559	64.34
812.737	125.78
812.916	50
813.095	127.83
813.274	146.26
813.453	93.01
813.632	97.11
813.811	136.02
813.989	66.39
814.168	58.2
814.347	99.16
814.526	113.49
814.704	86.87
814.883	88.92
815.062	93.01
815.24	148.31
815.419	107.35
815.598	78.68
815.776	72.53
815.955	97.11
816.133	43.86
816.312	109.4
816.49	25.43
816.669	123.73
816.847	80.72
817.026	93.01
817.204	72.53
817.383	154.45
817.561	54.1
817.74	121.68
817.918	88.92
818.097	164.69
818.275	88.92
818.453	170.83
818.632	148.31
818.81	82.77
818.988	80.72
819.167	68.44
819.345	58.2
819.523	70.48
819.701	119.64
819.879	121.68
820.058	121.68
820.236	148.31
820.414	45.91
820.592	93.01
820.77	121.68
820.948	140.12
821.127	43.86
821.305	58.2
821.483	31.57
821.661	148.31
821.839	95.06
822.017	56.15
822.195	105.3
822.373	111.44
822.551	33.62
822.729	117.59
822.907	35.67
823.085	60.24
823.262	11.09
823.44	68.44
823.618	31.57
823.796	123.73
823.974	90.96
824.152	39.76
824.329	31.57
824.507	109.4
824.685	127.83
824.863	80.72
825.04	99.16
825.218	88.92
825.396	70.48
825.574	-7.34
825.751	47.96
825.929	27.48
826.107	64.34
826.284	113.49
826.462	52.05
826.639	45.91
826.817	109.4
826.994	115.54
827.172	66.39
827.349	88.92
827.527	-11.43
827.704	27.48
827.882	50
828.059	80.72
828.237	7
828.414	95.06
828.591	41.81
828.769	56.15
828.946	64.34
829.124	56.15
829.301	60.24
829.478	2.9
829.655	80.72
829.833	39.76
830.01	142.16
830.187	72.53
830.364	95.06
830.542	64.34
830.719	35.67
830.896	56.15
831.073	41.81
831.25	45.91
831.427	95.06
831.604	88.92
831.782	31.57
831.959	60.24
832.136	60.24
832.313	54.1
832.49	-27.82
832.667	-25.77
832.844	45.91
833.021	43.86
833.198	64.34
833.374	58.2
833.551	31.57
833.728	107.35
833.905	13.14
834.082	105.3
834.259	11.09
834.436	105.3
834.612	25.43
834.789	-9.39
834.966	45.91
835.143	66.39
835.319	9.05
835.496	113.49
835.673	62.29
835.85	2.9
836.026	15.19
836.203	121.68
836.38	113.49
836.556	4.95
836.733	39.76
836.909	70.48
837.086	-9.39
837.262	31.57
837.439	17.24
837.616	23.38
837.792	72.53
837.968	35.67
838.145	-9.39
838.321	39.76
838.498	64.34
838.674	64.34
838.851	56.15
839.027	43.86
839.203	58.2
839.38	82.77
839.556	-31.91
839.732	72.53
839.909	-13.48
840.085	23.38
840.261	31.57
840.437	-13.48
840.614	-3.24
840.79	21.33
840.966	50
841.142	37.72
841.318	103.25
841.494	72.53
841.671	39.76
841.847	7
842.023	74.58
842.199	62.29
842.375	97.11
842.551	17.24
842.727	60.24
842.903	82.77
843.079	-9.39
843.255	95.06
843.431	-50.35
843.607	160.59
843.783	33.62
843.959	54.1
844.134	15.19
844.31	31.57
844.486	62.29
844.662	9.05
844.838	-7.34
845.013	25.43
845.189	97.11
845.365	39.76
845.541	115.54
845.716	25.43
845.892	39.76
846.068	27.48
846.244	-19.63
846.419	31.57
846.595	37.72
846.77	-1.19
846.946	72.53
847.122	62.29
847.297	76.63
847.473	70.48
847.648	-7.34
847.824	37.72
847.999	11.09
848.175	66.39
848.35	39.76
848.526	74.58
848.701	15.19
848.876	9.05
849.052	31.57
849.227	23.38
849.403	27.48
849.578	101.2
849.753	-9.39
849.929	23.38
850.104	25.43
850.279	19.29
850.454	-7.34
850.63	97.11
850.805	7
850.98	-17.58
851.155	113.49
851.33	43.86
851.505	-40.11
851.681	56.15
851.856	27.48
852.031	4.95
852.206	19.29
852.381	45.91
852.556	31.57
852.731	90.96
852.906	-9.39
853.081	-9.39
853.256	-1.19
853.431	43.86
853.606	-9.39
853.781	15.19
853.956	2.9
854.131	68.44
854.305	31.57
854.48	17.24
854.655	21.33
854.83	25.43
855.005	31.57
855.18	47.96
855.354	31.57
855.529	-33.96
855.704	23.38
855.879	-3.24
856.053	78.68
856.228	0.85
856.403	33.62
856.577	0.85
856.752	29.52
856.926	33.62
857.101	37.72
857.276	74.58
857.45	17.24
857.625	62.29
857.799	-33.96
857.974	25.43
858.148	-15.53
858.323	13.14
858.497	23.38
858.672	-29.87
858.846	31.57
859.02	50
859.195	25.43
859.369	56.15
859.543	-1.19
859.718	54.1
859.892	50
860.066	45.91
860.241	27.48
860.415	45.91
860.589	66.39
860.763	33.62
860.938	78.68
861.112	35.67
861.286	33.62
861.46	31.57
861.634	37.72
861.808	58.2
861.982	-38.06
862.157	13.14
862.331	-33.96
862.505	37.72
862.679	84.82
862.853	-5.29
863.027	97.11
863.201	74.58
863.375	-21.67
863.549	90.96
863.722	56.15
863.896	84.82
864.07	13.14
864.244	17.24
864.418	11.09
864.592	41.81
864.766	47.96
864.939	0.85
865.113	68.44
865.287	78.68
865.461	-29.87
865.634	84.82
865.808	15.19
865.982	-3.24
866.156	68.44
866.329	-7.34
866.503	66.39
866.676	80.72
866.85	33.62
867.024	-1.19
867.197	27.48
867.371	56.15
867.544	-5.29
867.718	0.85
867.891	-1.19
868.065	-25.77
868.238	-7.34
868.412	-15.53
868.585	33.62
868.759	-13.48
868.932	-3.24
869.105	-29.87
869.279	9.05
869.452	58.2
869.625	-21.67
869.799	-5.29
869.972	-21.67
870.145	-40.11
870.319	17.24
870.492	7
870.665	23.38
870.838	74.58
871.011	-44.2
871.185	43.86
871.358	-64.68
871.531	45.91
871.704	7
871.877	41.81
872.05	7
872.223	-31.91
872.396	13.14
872.569	33.62
872.742	-1.19
872.915	29.52
873.088	-13.48
873.261	-42.15
873.434	13.14
873.607	-25.77
873.78	-31.91
873.953	-7.34
874.126	-29.87
874.299	13.14
874.471	33.62
874.644	17.24
874.817	0.85
874.99	33.62
875.163	60.24
875.335	-64.68
875.508	-21.67
875.681	23.38
875.853	11.09
876.026	9.05
876.199	41.81
876.371	66.39
876.544	0.85
876.717	60.24
876.889	-9.39
877.062	7
877.234	-31.91
877.407	47.96
877.579	-3.24
877.752	11.09
877.924	68.44
878.097	-23.72
878.269	11.09
878.442	-42.15
878.614	39.76
878.786	31.57
878.959	29.52
879.131	56.15
879.303	17.24
879.476	39.76
879.648	-5.29
879.82	-11.43
879.993	17.24
880.165	-15.53
880.337	-19.63
880.509	52.05
880.681	0.85
880.854	13.14
881.026	11.09
881.198	76.63
881.37	29.52
881.542	15.19
881.714	-40.11
881.886	-17.58
882.058	82.77
882.23	7
882.402	-64.68
882.574	-68.78
882.746	11.09
882.918	35.67
883.09	23.38
883.262	23.38
883.434	-7.34
883.606	27.48
883.778	21.33
883.95	56.15
884.122	-5.29
884.293	88.92
884.465	-25.77
884.637	78.68
884.809	62.29
884.98	23.38
885.152	35.67
885.324	50
885.496	56.15
885.667	50
885.839	11.09
886.011	-44.2
886.182	-17.58
886.354	-66.73
886.525	-36.01
886.697	90.96
886.869	-1.19
887.04	-13.48
887.212	-25.77
887.383	-17.58
887.555	2.9
887.726	-44.2
887.897	-56.49
888.069	27.48
888.24	-31.91
888.412	47.96
888.583	-5.29
888.754	-5.29
888.926	29.52
889.097	2.9
889.268	-66.73
889.44	37.72
889.611	-33.96
889.782	-9.39
889.953	29.52
890.125	50
890.296	-44.2
890.467	62.29
890.638	-68.78
890.809	-54.44
890.98	54.1
891.151	54.1
891.323	-7.34
891.494	-9.39
891.665	-27.82
891.836	52.05
892.007	-19.63
892.178	113.49
892.349	-33.96
892.52	60.24
892.691	-7.34
892.862	19.29
893.032	39.76
893.203	-27.82
893.374	-38.06
893.545	60.24
893.716	-36.01
893.887	-1.19
894.057	0.85
894.228	9.05
894.399	17.24
894.57	-27.82
894.74	31.57
894.911	31.57
895.082	35.67
895.253	19.29
895.423	4.95
895.594	7
895.764	9.05
895.935	-72.87
896.106	25.43
896.276	9.05
896.447	-7.34
896.617	60.24
896.788	-13.48
896.958	2.9
897.129	-21.67
897.299	23.38
897.47	47.96
897.64	0.85
897.81	-7.34
897.981	17.24
898.151	-76.97
898.322	23.38
898.492	39.76
898.662	68.44
898.832	-23.72
899.003	13.14
899.173	35.67
899.343	-15.53
899.513	0.85
