Data from USB4F104151__66__12-59-28-743.txt Node

Date: Fri Mar 14 12:59:28 EDT 2025
User: louis
Spectrometer: USB4F10415
Trigger mode: 4
Integration Time (sec): 1.000000E-2
Scans to average: 1
Electric dark correction enabled: true
Nonlinearity correction enabled: false
Boxcar width: 0
XAxis mode: Wavelengths
Number of Pixels in Spectrum: 3648
>>>>>Begin Spectral Data<<<<<
178.204	-91.13
178.424	-91.13
178.644	-91.13
178.864	-87.04
179.084	-60.42
179.304	-23.55
179.524	-15.36
179.744	17.41
179.964	23.55
180.184	19.46
180.404	-15.36
180.624	17.41
180.844	9.22
181.064	-21.5
181.283	31.74
181.503	5.12
181.723	-48.13
181.943	-97.28
182.163	17.41
182.383	-44.03
182.602	-66.56
182.822	13.31
183.042	-3.07
183.262	-3.07
183.482	19.46
183.701	58.37
183.921	-5.12
184.141	50.18
184.361	39.94
184.58	-9.22
184.8	-33.79
185.02	-68.61
185.239	52.22
185.459	-19.46
185.679	-1.02
185.898	9.22
186.118	33.79
186.338	-33.79
186.557	101.37
186.777	5.12
186.997	-19.46
187.216	17.41
187.436	-13.31
187.655	9.22
187.875	3.07
188.095	68.61
188.314	113.66
188.534	5.12
188.753	-9.22
188.973	25.6
189.192	23.55
189.412	-5.12
189.631	9.22
189.851	29.7
190.07	50.18
190.29	-3.07
190.509	19.46
190.729	17.41
190.948	50.18
191.168	-13.31
191.387	84.99
191.607	9.22
191.826	60.42
192.045	-44.03
192.265	31.74
192.484	-11.26
192.704	29.7
192.923	-15.36
193.142	64.51
193.362	-3.07
193.581	1.02
193.8	-15.36
194.02	41.98
194.239	-9.22
194.458	-7.17
194.678	48.13
194.897	-37.89
195.116	-23.55
195.335	-62.46
195.555	84.99
195.774	70.65
195.993	50.18
196.212	93.18
196.432	-39.94
196.651	-60.42
196.87	-39.94
197.089	50.18
197.308	19.46
197.528	-25.6
197.747	-13.31
197.966	-17.41
198.185	78.85
198.404	9.22
198.623	3.07
198.842	17.41
199.062	-19.46
199.281	87.04
199.5	5.12
199.719	-41.98
199.938	39.94
200.157	74.75
200.376	-11.26
200.595	-35.84
200.814	-50.18
201.033	-87.04
201.252	95.23
201.471	17.41
201.69	-46.08
201.909	46.08
202.128	-35.84
202.347	23.55
202.566	33.79
202.785	39.94
203.004	74.75
203.223	46.08
203.442	72.7
203.661	-27.65
203.879	15.36
204.098	21.5
204.317	-23.55
204.536	7.17
204.755	-9.22
204.974	-44.03
205.193	-13.31
205.411	-39.94
205.63	-3.07
205.849	-31.74
206.068	78.85
206.287	-44.03
206.505	-54.27
206.724	17.41
206.943	74.75
207.162	-1.02
207.381	3.07
207.599	-27.65
207.818	21.5
208.037	-19.46
208.255	5.12
208.474	33.79
208.693	1.02
208.911	25.6
209.13	33.79
209.349	27.65
209.567	31.74
209.786	35.84
210.005	-15.36
210.223	-39.94
210.442	15.36
210.661	1.02
210.879	3.07
211.098	-41.98
211.316	-5.12
211.535	52.22
211.753	-68.61
211.972	62.46
212.191	25.6
212.409	-11.26
212.628	15.36
212.846	25.6
213.065	39.94
213.283	-44.03
213.502	21.5
213.72	62.46
213.938	11.26
214.157	25.6
214.375	-19.46
214.594	5.12
214.812	37.89
215.031	3.07
215.249	3.07
215.467	-23.55
215.686	72.7
215.904	-11.26
216.122	-64.51
216.341	37.89
216.559	62.46
216.778	-25.6
216.996	41.98
217.214	-31.74
217.432	-27.65
217.651	-17.41
217.869	-1.02
218.087	-25.6
218.306	37.89
218.524	-25.6
218.742	27.65
218.96	-7.17
219.179	-33.79
219.397	-15.36
219.615	-54.27
219.833	41.98
220.051	3.07
220.27	56.32
220.488	56.32
220.706	50.18
220.924	-35.84
221.142	21.5
221.36	46.08
221.578	-31.74
221.796	64.51
222.015	70.65
222.233	5.12
222.451	84.99
222.669	56.32
222.887	-15.36
223.105	21.5
223.323	19.46
223.541	-41.98
223.759	41.98
223.977	-35.84
224.195	15.36
224.413	-17.41
224.631	5.12
224.849	78.85
225.067	7.17
225.285	-46.08
225.503	29.7
225.721	5.12
225.939	13.31
226.157	-9.22
226.375	62.46
226.592	-48.13
226.81	-5.12
227.028	-23.55
227.246	50.18
227.464	44.03
227.682	13.31
227.9	35.84
228.117	9.22
228.335	1.02
228.553	-13.31
228.771	-15.36
228.989	66.56
229.206	62.46
229.424	19.46
229.642	-13.31
229.86	15.36
230.077	1.02
230.295	80.89
230.513	-56.32
230.731	78.85
230.948	23.55
231.166	23.55
231.384	29.7
231.601	1.02
231.819	-23.55
232.037	19.46
232.254	25.6
232.472	70.65
232.689	-89.09
232.907	-25.6
233.125	-19.46
233.342	-15.36
233.56	-25.6
233.777	11.26
233.995	-35.84
234.213	13.31
234.43	-31.74
234.648	-13.31
234.865	44.03
235.083	31.74
235.3	-82.94
235.518	-13.31
235.735	-13.31
235.953	5.12
236.17	50.18
236.388	37.89
236.605	-78.85
236.822	-19.46
237.04	54.27
237.257	-50.18
237.475	3.07
237.692	-58.37
237.909	84.99
238.127	-39.94
238.344	-35.84
238.562	-19.46
238.779	-33.79
238.996	1.02
239.214	72.7
239.431	62.46
239.648	-31.74
239.865	11.26
240.083	64.51
240.3	3.07
240.517	-7.17
240.735	-27.65
240.952	-41.98
241.169	-58.37
241.386	123.9
241.603	48.13
241.821	1.02
242.038	-9.22
242.255	7.17
242.472	54.27
242.689	3.07
242.907	66.56
243.124	13.31
243.341	72.7
243.558	11.26
243.775	-3.07
243.992	-21.5
244.209	-82.94
244.426	76.8
244.643	33.79
244.86	-41.98
245.078	7.17
245.295	-15.36
245.512	25.6
245.729	-3.07
245.946	-13.31
246.163	5.12
246.38	5.12
246.597	-3.07
246.814	15.36
247.031	62.46
247.248	54.27
247.464	15.36
247.681	52.22
247.898	13.31
248.115	11.26
248.332	35.84
248.549	25.6
248.766	-74.75
248.983	-50.18
249.2	15.36
249.417	41.98
249.633	-23.55
249.85	74.75
250.067	25.6
250.284	-72.7
250.501	29.7
250.717	39.94
250.934	29.7
251.151	-21.5
251.368	39.94
251.585	-25.6
251.801	9.22
252.018	29.7
252.235	39.94
252.451	13.31
252.668	52.22
252.885	1.02
253.102	-31.74
253.318	-27.65
253.535	25.6
253.752	74.75
253.968	5.12
254.185	5.12
254.401	17.41
254.618	9.22
254.835	-17.41
255.051	-48.13
255.268	60.42
255.484	-21.5
255.701	-5.12
255.917	50.18
256.134	-44.03
256.351	-50.18
256.567	-33.79
256.784	21.5
257	7.17
257.217	-58.37
257.433	15.36
257.65	19.46
257.866	5.12
258.082	5.12
258.299	33.79
258.515	39.94
258.732	44.03
258.948	1.02
259.165	-3.07
259.381	15.36
259.597	-7.17
259.814	-9.22
260.03	-41.98
260.246	5.12
260.463	13.31
260.679	39.94
260.895	-13.31
261.112	56.32
261.328	23.55
261.544	9.22
261.761	72.7
261.977	5.12
262.193	66.56
262.409	15.36
262.626	44.03
262.842	25.6
263.058	-17.41
263.274	78.85
263.49	11.26
263.707	-7.17
263.923	-23.55
264.139	-29.7
264.355	17.41
264.571	-1.02
264.787	1.02
265.004	1.02
265.22	56.32
265.436	37.89
265.652	-15.36
265.868	-9.22
266.084	-1.02
266.3	37.89
266.516	-11.26
266.732	-44.03
266.948	-11.26
267.164	15.36
267.38	-48.13
267.596	-62.46
267.812	-9.22
268.028	52.22
268.244	-46.08
268.46	-3.07
268.676	29.7
268.892	33.79
269.108	-31.74
269.324	35.84
269.54	9.22
269.756	-50.18
269.972	9.22
270.188	78.85
270.403	-21.5
270.619	58.37
270.835	-5.12
271.051	-23.55
271.267	-23.55
271.483	-31.74
271.698	70.65
271.914	-23.55
272.13	-17.41
272.346	21.5
272.562	13.31
272.777	60.42
272.993	19.46
273.209	-19.46
273.425	29.7
273.64	-64.51
273.856	19.46
274.072	56.32
274.287	-25.6
274.503	72.7
274.719	-19.46
274.934	23.55
275.15	56.32
275.366	-15.36
275.581	3.07
275.797	60.42
276.012	19.46
276.228	17.41
276.444	37.89
276.659	7.17
276.875	25.6
277.09	44.03
277.306	29.7
277.521	21.5
277.737	17.41
277.952	19.46
278.168	3.07
278.383	-7.17
278.599	-54.27
278.814	11.26
279.03	7.17
279.245	15.36
279.461	-9.22
279.676	1.02
279.892	-1.02
280.107	7.17
280.322	66.56
280.538	7.17
280.753	-44.03
280.969	11.26
281.184	25.6
281.399	37.89
281.615	39.94
281.83	7.17
282.045	-33.79
282.26	66.56
282.476	27.65
282.691	52.22
282.906	-23.55
283.122	-3.07
283.337	11.26
283.552	17.41
283.767	-39.94
283.983	7.17
284.198	-29.7
284.413	-68.61
284.628	46.08
284.843	56.32
285.058	31.74
285.274	-11.26
285.489	-13.31
285.704	-7.17
285.919	15.36
286.134	97.28
286.349	23.55
286.564	23.55
286.779	-3.07
286.995	33.79
287.21	-11.26
287.425	62.46
287.64	31.74
287.855	-21.5
288.07	-54.27
288.285	-5.12
288.5	21.5
288.715	74.75
288.93	-50.18
289.145	-64.51
289.36	7.17
289.575	9.22
289.79	37.89
290.004	97.28
290.219	1.02
290.434	-3.07
290.649	25.6
290.864	-7.17
291.079	64.51
291.294	29.7
291.509	-52.22
291.724	-15.36
291.938	15.36
292.153	70.65
292.368	-1.02
292.583	-27.65
292.798	-3.07
293.012	-15.36
293.227	-15.36
293.442	-1.02
293.657	66.56
293.871	13.31
294.086	35.84
294.301	21.5
294.516	-13.31
294.73	19.46
294.945	-15.36
295.16	23.55
295.374	11.26
295.589	41.98
295.804	-21.5
296.018	-3.07
296.233	41.98
296.447	-41.98
296.662	9.22
296.877	1.02
297.091	21.5
297.306	89.09
297.52	70.65
297.735	50.18
297.949	37.89
298.164	44.03
298.378	-52.22
298.593	-33.79
298.807	17.41
299.022	-15.36
299.236	-74.75
299.451	-44.03
299.665	15.36
299.88	58.37
300.094	27.65
300.309	17.41
300.523	-9.22
300.737	-3.07
300.952	-29.7
301.166	46.08
301.381	95.23
301.595	23.55
301.809	3.07
302.024	-44.03
302.238	-5.12
302.452	62.46
302.667	-11.26
302.881	13.31
303.095	80.89
303.309	50.18
303.524	29.7
303.738	27.65
303.952	-3.07
304.166	-33.79
304.381	-5.12
304.595	48.13
304.809	25.6
305.023	15.36
305.237	-44.03
305.452	56.32
305.666	23.55
305.88	-15.36
306.094	60.42
306.308	13.31
306.522	13.31
306.736	23.55
306.95	25.6
307.164	46.08
307.379	-15.36
307.593	39.94
307.807	87.04
308.021	-31.74
308.235	25.6
308.449	-48.13
308.663	-27.65
308.877	35.84
309.091	3.07
309.305	33.79
309.519	9.22
309.733	50.18
309.947	50.18
310.161	50.18
310.374	89.09
310.588	-3.07
310.802	64.51
311.016	60.42
311.23	-68.61
311.444	-35.84
311.658	-80.89
311.872	3.07
312.085	50.18
312.299	-19.46
312.513	74.75
312.727	-23.55
312.941	-91.13
313.154	62.46
313.368	78.85
313.582	13.31
313.796	-9.22
314.009	25.6
314.223	58.37
314.437	11.26
314.651	50.18
314.864	-11.26
315.078	39.94
315.292	-7.17
315.505	66.56
315.719	50.18
315.933	13.31
316.146	48.13
316.36	-9.22
316.573	5.12
316.787	-7.17
317.001	-1.02
317.214	3.07
317.428	-15.36
317.641	11.26
317.855	25.6
318.068	-27.65
318.282	66.56
318.495	11.26
318.709	35.84
318.922	-35.84
319.136	29.7
319.349	19.46
319.563	31.74
319.776	9.22
319.99	29.7
320.203	21.5
320.417	-66.56
320.63	-89.09
320.843	46.08
321.057	-19.46
321.27	39.94
321.483	17.41
321.697	27.65
321.91	64.51
322.124	-46.08
322.337	-19.46
322.55	41.98
322.763	-23.55
322.977	-11.26
323.19	31.74
323.403	41.98
323.617	17.41
323.83	13.31
324.043	15.36
324.256	21.5
324.469	-3.07
324.683	23.55
324.896	66.56
325.109	-17.41
325.322	23.55
325.535	-64.51
325.748	97.28
325.962	1.02
326.175	56.32
326.388	-9.22
326.601	-15.36
326.814	-19.46
327.027	37.89
327.24	17.41
327.453	-54.27
327.666	33.79
327.879	54.27
328.092	13.31
328.305	44.03
328.518	-7.17
328.731	-15.36
328.944	-52.22
329.157	-44.03
329.37	-21.5
329.583	39.94
329.796	-44.03
330.009	58.37
330.222	52.22
330.435	19.46
330.648	33.79
330.861	-56.32
331.073	66.56
331.286	58.37
331.499	13.31
331.712	-46.08
331.925	44.03
332.138	62.46
332.35	78.85
332.563	5.12
332.776	29.7
332.989	35.84
333.202	-19.46
333.414	15.36
333.627	56.32
333.84	37.89
334.053	-11.26
334.265	33.79
334.478	15.36
334.691	-25.6
334.903	7.17
335.116	-3.07
335.329	13.31
335.541	87.04
335.754	78.85
335.966	33.79
336.179	29.7
336.392	5.12
336.604	33.79
336.817	23.55
337.029	44.03
337.242	-35.84
337.454	17.41
337.667	37.89
337.88	-31.74
338.092	54.27
338.305	82.94
338.517	1.02
338.729	3.07
338.942	21.5
339.154	-9.22
339.367	23.55
339.579	-33.79
339.792	-21.5
340.004	25.6
340.217	27.65
340.429	37.89
340.641	-21.5
340.854	29.7
341.066	41.98
341.278	64.51
341.491	-5.12
341.703	23.55
341.915	56.32
342.128	7.17
342.34	-50.18
342.552	29.7
342.764	62.46
342.977	9.22
343.189	27.65
343.401	76.8
343.613	5.12
343.826	76.8
344.038	-60.42
344.25	41.98
344.462	82.94
344.674	97.28
344.886	-56.32
345.099	37.89
345.311	29.7
345.523	-5.12
345.735	70.65
345.947	25.6
346.159	-19.46
346.371	-21.5
346.583	9.22
346.795	-25.6
347.007	19.46
347.219	64.51
347.431	31.74
347.643	78.85
347.855	41.98
348.067	46.08
348.279	66.56
348.491	80.89
348.703	52.22
348.915	-7.17
349.127	-48.13
349.339	29.7
349.551	25.6
349.763	33.79
349.975	25.6
350.187	15.36
350.399	60.42
350.61	82.94
350.822	11.26
351.034	78.85
351.246	27.65
351.458	39.94
351.669	44.03
351.881	41.98
352.093	21.5
352.305	70.65
352.517	37.89
352.728	31.74
352.94	78.85
353.152	68.61
353.363	-27.65
353.575	89.09
353.787	-3.07
353.999	54.27
354.21	-13.31
354.422	-25.6
354.633	13.31
354.845	-11.26
355.057	46.08
355.268	27.65
355.48	11.26
355.692	25.6
355.903	46.08
356.115	44.03
356.326	25.6
356.538	44.03
356.749	-33.79
356.961	128
357.172	-33.79
357.384	-41.98
357.595	21.5
357.807	46.08
358.018	37.89
358.23	-9.22
358.441	1.02
358.653	-13.31
358.864	-5.12
359.075	48.13
359.287	27.65
359.498	33.79
359.709	115.71
359.921	35.84
360.132	33.79
360.344	35.84
360.555	58.37
360.766	56.32
360.977	44.03
361.189	48.13
361.4	-33.79
361.611	64.51
361.823	29.7
362.034	54.27
362.245	70.65
362.456	50.18
362.667	3.07
362.879	-1.02
363.09	17.41
363.301	-48.13
363.512	-15.36
363.723	25.6
363.935	33.79
364.146	21.5
364.357	46.08
364.568	87.04
364.779	50.18
364.99	-17.41
365.201	-13.31
365.412	13.31
365.623	82.94
365.834	80.89
366.045	-19.46
366.256	62.46
366.467	9.22
366.678	66.56
366.889	15.36
367.1	-19.46
367.311	41.98
367.522	3.07
367.733	46.08
367.944	9.22
368.155	56.32
368.366	19.46
368.577	7.17
368.788	48.13
368.999	21.5
369.209	33.79
369.42	41.98
369.631	58.37
369.842	11.26
370.053	-3.07
370.264	-48.13
370.474	76.8
370.685	-58.37
370.896	23.55
371.107	-11.26
371.317	140.29
371.528	21.5
371.739	29.7
371.95	19.46
372.16	44.03
372.371	62.46
372.582	56.32
372.792	54.27
373.003	5.12
373.214	-60.42
373.424	31.74
373.635	37.89
373.846	9.22
374.056	9.22
374.267	52.22
374.477	-44.03
374.688	54.27
374.898	80.89
375.109	44.03
375.319	74.75
375.53	93.18
375.74	13.31
375.951	82.94
376.161	-5.12
376.372	97.28
376.582	23.55
376.793	17.41
377.003	99.33
377.214	44.03
377.424	62.46
377.635	44.03
377.845	64.51
378.055	128
378.266	-27.65
378.476	29.7
378.686	58.37
378.897	46.08
379.107	68.61
379.317	54.27
379.528	64.51
379.738	111.61
379.948	27.65
380.158	17.41
380.369	58.37
380.579	-33.79
380.789	64.51
380.999	76.8
381.21	74.75
381.42	31.74
381.63	-23.55
381.84	-9.22
382.05	50.18
382.261	29.7
382.471	56.32
382.681	54.27
382.891	84.99
383.101	-9.22
383.311	-25.6
383.521	70.65
383.731	9.22
383.941	27.65
384.151	46.08
384.361	-9.22
384.571	39.94
384.781	76.8
384.991	-9.22
385.201	78.85
385.411	13.31
385.621	128
385.831	56.32
386.041	15.36
386.251	13.31
386.461	25.6
386.671	3.07
386.881	50.18
387.091	5.12
387.301	9.22
387.511	-17.41
387.72	-44.03
387.93	21.5
388.14	5.12
388.35	25.6
388.56	64.51
388.769	11.26
388.979	23.55
389.189	17.41
389.399	15.36
389.609	74.75
389.818	62.46
390.028	62.46
390.238	39.94
390.447	-11.26
390.657	21.5
390.867	39.94
391.076	21.5
391.286	66.56
391.496	39.94
391.705	39.94
391.915	33.79
392.125	27.65
392.334	62.46
392.544	70.65
392.753	50.18
392.963	39.94
393.172	-7.17
393.382	35.84
393.591	31.74
393.801	1.02
394.01	25.6
394.22	3.07
394.429	60.42
394.639	62.46
394.848	-17.41
395.058	46.08
395.267	64.51
395.477	72.7
395.686	46.08
395.895	66.56
396.105	50.18
396.314	60.42
396.524	80.89
396.733	19.46
396.942	37.89
397.152	60.42
397.361	60.42
397.57	7.17
397.78	3.07
397.989	29.7
398.198	64.51
398.407	80.89
398.617	15.36
398.826	113.66
399.035	64.51
399.244	82.94
399.453	46.08
399.663	97.28
399.872	11.26
400.081	123.9
400.29	33.79
400.499	74.75
400.708	76.8
400.917	54.27
401.127	62.46
401.336	72.7
401.545	78.85
401.754	25.6
401.963	95.23
402.172	74.75
402.381	113.66
402.59	-9.22
402.799	119.81
403.008	97.28
403.217	35.84
403.426	60.42
403.635	56.32
403.844	25.6
404.053	103.42
404.262	17.41
404.471	60.42
404.68	66.56
404.888	31.74
405.097	128
405.306	80.89
405.515	72.7
405.724	105.47
405.933	80.89
406.142	87.04
406.35	7.17
406.559	211.96
406.768	113.66
406.977	107.52
407.185	105.47
407.394	89.09
407.603	109.57
407.812	95.23
408.02	115.71
408.229	144.38
408.438	234.49
408.646	154.62
408.855	197.63
409.064	150.53
409.272	177.15
409.481	177.15
409.69	121.85
409.898	193.53
410.107	130.05
410.315	218.11
410.524	234.49
410.733	193.53
410.941	142.33
411.15	248.83
411.358	254.97
411.567	203.77
411.775	232.44
411.984	181.25
412.192	275.45
412.401	224.25
412.609	281.6
412.818	285.69
413.026	300.03
413.234	230.4
413.443	275.45
413.651	287.74
413.86	361.47
414.068	277.5
414.276	261.12
414.485	363.51
414.693	367.61
414.901	449.53
415.11	439.29
415.318	427
415.526	396.28
415.734	435.19
415.943	472.06
416.151	510.97
416.359	553.98
416.567	525.3
416.776	488.44
416.984	639.99
417.192	484.34
417.4	549.88
417.608	568.31
417.817	488.44
418.025	660.47
418.233	611.32
418.441	703.48
418.649	672.76
418.857	721.91
419.065	758.77
419.273	738.29
419.481	820.21
419.689	801.78
419.897	895.99
420.105	867.31
420.313	766.96
420.521	902.13
420.729	881.65
420.937	932.85
421.145	1078.26
421.353	1059.82
421.561	1201.13
421.769	1065.97
421.977	1162.22
422.185	1127.41
422.393	1178.61
422.601	1375.21
422.809	1332.2
423.017	1334.25
423.224	1397.74
423.432	1444.84
423.64	1426.41
423.848	1592.3
424.056	1532.9
424.263	1586.15
424.471	1643.49
424.679	1721.32
424.887	1823.72
425.094	1811.43
425.302	1831.91
425.51	1883.11
425.718	1965.03
425.925	2046.94
426.133	2122.72
426.341	2200.54
426.548	2288.61
426.756	2309.08
426.964	2300.89
427.171	2438.11
427.379	2487.26
427.586	2403.29
427.794	2595.8
428.001	2769.88
428.209	2771.93
428.417	2833.36
428.624	2915.28
428.832	3054.55
429.039	2962.39
429.247	3036.11
429.454	3202
429.662	3443.66
429.869	3316.69
430.076	3486.67
430.284	3367.88
430.491	3541.96
430.699	3673.03
430.906	3597.26
431.114	3736.52
431.321	4049.86
431.528	4074.43
431.736	4162.5
431.943	4350.91
432.15	4230.08
432.358	4582.33
432.565	4590.52
432.772	4651.96
432.979	4897.72
433.187	5022.64
433.394	4985.78
433.601	5231.54
433.808	5288.88
434.016	5276.59
434.223	5358.51
434.43	6036.39
434.637	5731.24
434.844	5944.23
435.052	6187.94
435.259	6157.22
435.466	6376.35
435.673	6257.57
435.88	6511.52
436.087	6953.88
436.294	6945.69
436.501	6890.39
436.708	6927.25
436.915	7130
437.122	7351.18
437.329	7412.62
437.537	7580.56
437.743	7789.45
437.95	7639.95
438.157	7938.95
438.364	8280.96
438.571	8524.67
438.778	8252.29
438.985	9182.07
439.192	8868.73
439.399	9241.46
439.606	8870.78
439.813	9378.67
440.02	9999.21
440.227	9845.61
440.433	9816.94
440.64	10074.98
440.847	10144.61
441.054	10163.04
441.261	10681.18
441.467	10879.83
441.674	11213.65
441.881	11547.47
442.088	11379.54
442.294	11299.67
442.501	11879.24
442.708	11860.81
442.914	12360.52
443.121	12825.4
443.328	12518.21
443.534	13517.62
443.741	13042.49
443.948	12993.34
444.154	13790
444.361	13751.09
444.568	13476.66
444.774	13878.06
444.981	14279.46
445.187	14545.7
445.394	15008.54
445.6	14920.48
445.807	16388.87
446.013	15725.33
446.22	16057.1
446.426	16460.55
446.633	16683.78
446.839	17386.23
447.046	16448.26
447.252	17591.03
447.459	17748.72
447.665	17523.44
447.871	18299.62
448.078	19276.51
448.284	18346.73
448.491	19059.42
448.697	19409.62
448.903	20331.21
449.11	20249.29
449.316	19849.94
449.522	20085.45
449.728	20775.62
449.935	20697.8
450.141	20744.9
450.347	21502.65
450.553	20609.73
450.76	21138.11
450.966	21566.13
451.172	21267.13
451.378	21895.86
451.584	21676.73
451.791	22061.74
451.997	22010.54
452.203	22387.37
452.409	22317.74
452.615	22377.13
452.821	21430.97
453.027	21193.4
453.233	22567.59
453.44	21584.57
453.646	21963.44
453.852	21836.47
454.058	22330.03
454.264	21738.16
454.47	22319.79
454.676	21721.78
454.882	22485.67
455.088	20681.41
455.294	20921.02
455.5	21056.19
455.705	21574.33
455.911	20224.72
456.117	20308.68
456.323	20046.54
456.529	18787.04
456.735	19432.15
456.941	18895.58
457.147	18887.39
457.352	18428.65
457.558	18193.13
457.764	18146.03
457.97	17842.93
458.176	17507.06
458.381	17281.78
458.587	16509.7
458.793	16636.67
458.999	15686.42
459.204	16917.25
459.41	16456.45
459.616	15184.66
459.821	15340.31
460.027	15307.54
460.233	15043.35
460.438	14187.3
460.644	14306.09
460.85	13685.55
461.055	13390.64
461.261	13441.84
461.466	12133.19
461.672	12272.45
461.878	12935.99
462.083	12217.16
462.289	11846.48
462.494	11776.84
462.7	11195.22
462.905	10910.55
463.111	11268.95
463.316	11361.11
463.522	11019.1
463.727	11273.04
463.932	11101.01
464.138	11053.91
464.343	11150.17
464.549	10707.8
464.754	11019.1
464.959	10992.47
465.165	11082.58
465.37	10484.58
465.575	10169.19
465.781	10451.81
465.986	10666.85
466.191	10253.16
466.397	10042.21
466.602	9753.45
466.807	10060.65
467.012	9763.69
467.218	9958.25
467.423	9773.93
467.628	9937.77
467.833	9995.11
468.038	9839.47
468.244	9581.42
468.449	10011.5
468.654	9536.37
468.859	9444.21
469.064	9446.26
469.269	9151.35
469.474	9151.35
469.679	9388.91
469.885	9091.96
470.09	9284.47
470.295	9345.91
470.5	8928.12
470.705	9102.2
470.91	8897.4
471.115	8663.93
471.32	9044.85
471.525	8858.49
471.73	8579.97
471.935	8602.49
472.139	8313.73
472.344	8479.61
472.549	8459.13
472.754	8338.3
472.959	8059.78
473.164	8059.78
473.369	7906.18
473.574	8092.55
473.778	8000.39
473.983	7963.53
474.188	7961.48
474.393	7431.05
474.598	7676.81
474.802	7787.4
475.007	7582.6
475.212	7447.44
475.417	7220.11
475.621	7205.78
475.826	7293.84
476.031	7183.25
476.235	7123.86
476.44	7052.18
476.645	6914.97
476.849	6943.64
477.054	6904.73
477.259	7043.99
477.463	6849.43
477.668	6761.37
477.872	6597.53
478.077	6501.28
478.282	6443.93
478.486	6386.59
478.691	6329.25
478.895	6337.44
479.1	6405.02
479.304	6304.67
479.509	6208.42
479.713	6245.28
479.918	6130.59
480.122	6138.79
480.326	6110.11
480.531	6142.88
480.735	5895.08
480.94	6116.26
481.144	6239.14
481.348	5823.4
481.553	5995.43
481.757	5721
481.961	6058.92
482.166	6063.01
482.37	5870.5
482.574	5890.98
482.778	5743.53
482.983	5858.21
483.187	5823.4
483.391	5854.12
483.595	5782.44
483.8	5753.77
484.004	5864.36
484.208	5813.16
484.412	5731.24
484.616	5747.62
484.821	6024.1
485.025	5745.58
485.229	5974.95
485.433	5913.51
485.637	5911.46
485.841	5784.49
486.045	5850.02
486.249	5634.99
486.453	5890.98
486.657	5854.12
486.861	5915.56
487.065	5677.99
487.269	5712.81
487.473	5591.98
487.677	5948.33
487.881	5952.42
488.085	5882.79
488.289	5989.28
488.493	5786.54
488.697	5983.14
488.901	5872.55
489.105	5909.41
489.309	5868.45
489.512	5983.14
489.716	6005.67
489.92	5882.79
490.124	5890.98
490.328	6026.15
490.531	6015.91
490.735	6116.26
490.939	6189.99
491.143	6032.29
491.346	5852.07
491.55	6312.86
491.754	6212.51
491.958	6282.14
492.161	6194.08
492.365	6267.81
492.569	6202.27
492.772	6263.71
492.976	6327.2
493.18	6263.71
493.383	6622.11
493.587	6503.32
493.79	6486.94
493.994	6452.13
494.197	6572.96
494.401	6534.04
494.605	6628.25
494.808	6798.23
495.012	6765.46
495.215	6861.72
495.419	6865.82
495.622	6755.22
495.825	6949.78
496.029	7000.98
496.232	7123.86
496.436	7201.68
496.639	7283.6
496.843	7123.86
497.046	7269.27
497.249	7531.41
497.453	7517.07
497.656	7642
497.859	7713.67
498.063	7674.76
498.266	7988.1
498.469	7918.47
498.673	7961.48
498.876	8207.23
499.079	8110.98
499.282	8164.23
499.485	8496
499.689	8395.65
499.892	8461.18
500.095	8575.87
500.298	8842.11
500.501	8682.36
500.705	9059.19
500.908	9059.19
501.111	9028.47
501.314	9313.14
501.517	9405.3
501.72	9687.92
501.923	9466.74
502.126	9675.63
502.329	9892.71
502.532	9978.73
502.735	9837.42
502.938	10283.88
503.141	10224.48
503.344	10486.62
503.547	10507.1
503.75	10525.54
503.953	10900.31
504.156	10967.9
504.359	11121.49
504.562	11146.07
504.765	11555.66
504.968	11496.27
505.17	11711.31
505.373	11819.85
505.576	11842.38
505.779	12063.56
505.982	12100.42
506.185	12399.43
506.387	12444.48
506.59	12581.7
506.793	12874.56
506.996	12804.92
507.198	13187.89
507.401	13015.87
507.604	13130.55
507.807	13609.78
508.009	13781.81
508.212	14009.13
508.415	14007.08
508.617	14308.13
508.82	14379.81
509.022	14353.19
509.225	14562.08
509.428	14760.73
509.63	15092.51
509.833	15067.93
510.035	15270.68
510.238	15221.53
510.44	15686.42
510.643	15960.84
510.845	16233.22
511.048	16061.19
511.25	16247.56
511.453	16380.68
511.655	17031.93
511.858	16784.13
512.06	17023.74
512.262	17222.39
512.465	17363.7
512.667	17623.8
512.87	17607.41
513.072	17894.13
513.274	18281.19
513.477	18561.76
513.679	18512.61
513.881	19002.08
514.084	19047.13
514.286	18856.67
514.488	19219.16
514.69	20042.45
514.893	19935.95
515.095	19987.15
515.297	20232.91
515.499	20517.57
515.701	20619.97
515.904	20949.7
516.106	20976.32
516.308	20988.61
516.51	21590.71
516.712	21519.03
516.914	21932.72
517.116	21940.91
517.318	22278.83
517.52	22434.47
517.722	22622.89
517.925	23081.63
518.127	23171.74
518.329	23247.52
518.531	23343.77
518.733	23837.33
518.935	23894.68
519.136	23876.24
519.338	24304.27
519.54	24472.2
519.742	24869.51
519.944	25121.41
520.146	25270.91
520.348	25516.67
520.55	25717.37
520.752	25725.56
520.954	26131.06
521.155	25821.81
521.357	26616.43
521.559	26997.35
521.761	26974.82
521.963	26946.15
522.164	27382.37
522.366	27521.63
522.568	27550.3
522.77	27464.28
522.971	28226.13
523.173	28207.7
523.375	28336.72
523.576	28529.23
523.778	28861
523.98	29147.72
524.181	29354.56
524.383	29088.32
524.584	29628.99
524.786	29766.2
524.988	29428.29
525.189	29807.16
525.391	30521.9
525.592	30444.08
525.794	30487.09
525.995	30370.35
526.197	30906.92
526.398	30700.08
526.6	30990.89
526.801	31068.71
527.003	31134.24
527.204	31287.84
527.406	31351.33
527.607	31490.59
527.808	32016.92
528.01	31027.75
528.211	31578.65
528.412	32586.25
528.614	32119.32
528.815	32121.37
529.016	32252.44
529.218	32231.96
529.419	32166.42
529.62	32608.78
529.822	32559.63
530.023	32651.79
530.224	32657.93
530.425	32410.13
530.626	32821.77
530.828	32537.1
531.029	33477.12
531.23	32815.63
531.431	32987.66
531.632	33151.49
531.833	33255.94
532.035	33200.65
532.236	33202.69
532.437	33241.6
532.638	32899.59
532.839	33413.63
533.04	33542.66
533.241	33059.34
533.442	33513.98
533.643	33475.07
533.844	33382.91
534.045	33511.94
534.246	33153.54
534.447	33776.12
534.648	33569.28
534.849	33665.53
535.05	33321.48
535.251	33837.56
535.451	33530.37
535.652	33903.1
535.853	33458.69
536.054	33817.08
536.255	33731.07
536.456	33454.59
536.657	34099.7
536.857	33757.69
537.058	33257.99
537.259	33907.19
537.46	33688.06
537.66	33325.57
537.861	33989.11
538.062	33772.03
538.263	33624.57
538.463	33538.56
538.664	33608.19
538.865	33913.34
539.065	33765.88
539.266	33286.66
539.466	33858.04
539.667	33595.9
539.868	34005.5
540.068	33837.56
540.269	33556.99
540.469	34001.4
540.67	33612.29
540.87	33554.94
541.071	33604.1
541.271	34093.56
541.472	33778.17
541.672	33638.91
541.873	33301
542.073	33229.32
542.274	33974.78
542.474	33976.83
542.675	33520.13
542.875	33927.67
543.075	33704.45
543.276	33509.89
543.476	33804.8
543.676	33546.75
543.877	33974.78
544.077	33815.04
544.277	33389.06
544.478	33714.69
544.678	33769.98
544.878	33714.69
545.078	33774.08
545.279	33493.5
545.479	33319.43
545.679	33657.34
545.879	33933.82
546.079	33329.67
546.28	33722.88
546.48	33313.28
546.68	33577.47
546.88	33653.25
547.08	33671.68
547.28	33649.15
547.48	33245.7
547.68	33389.06
547.88	33075.72
548.081	33608.19
548.281	33743.36
548.481	33518.08
548.681	33976.83
548.881	33509.89
549.081	33464.83
549.28	33516.03
549.48	33571.33
549.68	33329.67
549.88	33933.82
550.08	33821.18
550.28	33595.9
550.48	33556.99
550.68	33628.67
550.88	33065.48
551.08	33829.37
551.279	33591.81
551.479	33214.98
551.679	33292.8
551.879	33483.27
552.079	33585.66
552.278	33407.49
552.478	33184.26
552.678	33374.72
552.878	33608.19
553.077	33397.25
553.277	33206.79
553.477	33509.89
553.676	33276.42
553.876	33380.87
554.076	32936.46
554.275	33128.97
554.475	33069.58
554.674	33231.36
554.874	32901.64
555.074	33161.73
555.273	33346.05
555.473	33174.02
555.672	33006.09
555.872	32825.87
556.071	32885.26
556.271	33268.23
556.47	33124.87
556.67	32576.01
556.869	32725.52
557.068	32948.75
557.268	32555.54
557.467	32815.63
557.667	32791.05
557.866	32610.83
558.065	32700.94
558.265	32559.63
558.464	32379.41
558.663	32686.61
558.863	32449.04
559.062	32774.67
559.261	32117.27
559.461	32795.15
559.66	32016.92
559.859	32428.56
560.058	32229.91
560.258	32401.94
560.457	31963.67
560.656	32336.4
560.855	31980.06
561.054	32131.61
561.253	31695.39
561.453	31937.05
561.652	32006.68
561.851	31955.48
562.05	31662.62
562.249	31705.63
562.448	32045.59
562.647	31590.94
562.846	31427.1
563.045	31531.55
563.244	31541.79
563.443	32084.5
563.642	31181.35
563.841	31527.45
564.04	31128.1
564.239	31535.65
564.438	31218.21
564.637	31218.21
564.836	31136.29
565.035	31205.92
565.234	31033.89
565.432	30581.29
565.631	30820.91
565.83	31001.13
566.029	30710.32
566.228	30622.25
566.427	30761.51
566.625	30622.25
566.824	30423.6
567.023	30990.89
567.222	29758.01
567.42	30526
567.619	30065.21
567.818	30175.8
568.016	30286.39
568.215	30362.16
568.414	29934.14
568.612	30138.93
568.811	29776.44
569.01	30108.21
569.208	29669.95
569.407	30081.59
569.605	29561.4
569.804	29850.17
570.002	29368.9
570.201	29692.47
570.4	29375.04
570.598	29043.27
570.797	29225.54
570.995	29186.63
571.193	29088.32
571.392	29071.94
571.59	28719.69
571.789	29024.84
571.987	28793.42
572.186	28641.87
572.384	28525.13
572.582	28799.56
572.781	29123.14
572.979	28398.16
573.177	28779.08
573.376	28363.34
573.574	28117.59
573.772	28396.11
573.971	28035.67
574.169	28117.59
574.367	27617.88
574.565	28066.39
574.763	27847.26
574.962	27640.41
575.16	27263.58
575.358	27882.07
575.556	27384.41
575.754	27822.68
575.952	27341.41
576.151	27415.13
576.349	26931.81
576.547	27052.64
576.745	27177.57
576.943	27361.89
577.141	26845.8
577.339	27028.07
577.537	26954.34
577.735	26808.93
577.933	26366.57
578.131	26706.54
578.329	26464.88
578.527	26563.18
578.725	26653.29
578.923	26249.84
579.121	26503.79
579.319	26354.29
579.516	26274.42
579.714	25852.53
579.912	26253.94
580.11	25815.67
580.308	26030.71
580.506	25840.25
580.704	25389.69
580.901	25743.99
581.099	25901.68
581.297	25543.29
581.495	25328.25
581.692	25531
581.89	25137.79
582.088	25369.21
582.285	25406.08
582.483	25291.39
582.681	25234.05
582.878	24875.65
583.076	24746.63
583.274	25209.47
583.471	24599.18
583.669	24646.28
583.866	24486.54
584.064	24570.51
584.262	24369.8
584.459	24455.82
584.657	24068.75
584.854	24593.03
585.052	23808.66
585.249	24130.19
585.447	24257.17
585.644	23923.35
585.841	24158.86
586.039	24115.86
586.236	24160.91
586.434	23866
586.631	23847.57
586.828	23677.59
587.026	23407.26
587.223	23671.45
587.42	23386.78
587.618	23288.48
587.815	23126.69
588.012	22903.46
588.21	23235.23
588.407	23290.52
588.604	23159.45
588.801	22903.46
588.999	22805.16
589.196	22713
589.393	22637.22
589.59	22661.8
589.787	22702.76
589.984	22839.97
590.182	22217.39
590.379	22473.39
590.576	22348.46
590.773	22430.38
590.97	22153.9
591.167	22297.26
591.364	21787.32
591.561	22217.39
591.758	22026.93
591.955	22123.18
592.152	22057.65
592.349	21615.29
592.546	21656.25
592.743	21840.56
592.94	21181.12
593.137	21492.41
593.334	21633.72
593.531	21414.59
593.727	21349.05
593.924	21459.64
594.121	21099.2
594.318	21179.07
594.515	20986.56
594.712	21099.2
594.908	21111.49
595.105	21031.62
595.302	20822.72
595.499	20843.2
595.696	20548.29
595.892	20613.83
596.089	20562.63
596.286	20798.15
596.482	20538.05
596.679	20566.73
596.876	20511.43
597.072	20306.63
597.269	20406.98
597.466	20425.42
597.662	20198.09
597.859	20267.72
598.055	20040.4
598.252	19835.6
598.448	19919.57
598.645	19849.94
598.841	19593.94
599.038	19907.28
599.234	19647.19
599.431	19387.1
599.627	19415.77
599.824	19716.82
600.02	19528.41
600.217	19651.28
600.413	19178.2
600.609	18991.84
600.806	19051.23
601.002	19487.45
601.198	19104.48
601.395	18922.21
601.591	19063.52
601.787	19073.76
601.984	19045.09
602.18	18922.21
602.376	18784.99
602.572	18748.13
602.769	18619.11
602.965	18561.76
603.161	18582.24
603.357	18289.38
603.553	18301.67
603.75	18346.73
603.946	18385.64
604.142	18379.5
604.338	18264.81
604.534	18236.14
604.73	17892.08
604.926	17787.63
605.122	17996.53
605.318	17914.61
605.514	18051.82
605.71	17744.63
605.906	17629.94
606.102	17478.39
606.298	17654.51
606.494	17687.28
606.69	17820.4
606.886	17738.48
607.082	17302.26
607.278	17619.7
607.474	17187.58
607.67	17548.02
607.866	17273.59
608.062	17240.82
608.257	17023.74
608.453	17294.07
608.649	17212.15
608.845	16923.39
609.041	17099.52
609.236	17095.42
609.432	17113.85
609.628	17146.62
609.824	16900.86
610.019	16880.38
610.215	16646.91
610.411	16868.09
610.606	16573.19
610.802	16546.56
610.998	16751.36
611.193	16708.35
611.389	16481.03
611.584	16354.05
611.78	16581.38
611.976	16466.69
612.171	16501.51
612.367	16380.68
612.562	16227.08
612.758	16124.68
612.953	16120.59
613.149	16376.58
613.344	16165.64
613.539	16263.94
613.735	16243.46
613.93	16210.7
614.126	15811.34
614.321	16012.04
614.517	16077.58
614.712	16022.28
614.907	15741.71
615.103	15899.41
615.298	15661.84
615.493	15831.82
615.688	15555.35
615.884	15923.98
616.079	15856.4
616.274	15772.43
616.47	15813.39
616.665	15461.14
616.86	15692.56
617.055	15502.1
617.25	15285.01
617.445	15667.98
617.641	15115.03
617.836	15323.93
618.031	14979.87
618.226	15311.64
618.421	15078.17
618.616	15371.03
618.811	15102.75
619.006	15338.26
619.201	14842.65
619.396	14971.68
619.591	14596.9
619.786	14713.63
619.981	14596.9
620.176	14836.51
620.371	14490.4
620.566	14705.44
620.761	14375.72
620.956	14562.08
621.151	14189.35
621.346	14091.05
621.541	14054.19
621.735	14234.41
621.93	14113.58
622.125	14080.81
622.32	13802.29
622.515	13730.61
622.709	13656.88
622.904	13644.59
623.099	13609.78
623.294	13568.82
623.488	13601.58
623.683	13624.11
623.878	13161.27
624.072	13466.42
624.267	13400.88
624.462	13042.49
624.656	13071.16
624.851	13136.7
625.046	13056.82
625.24	12960.57
625.435	12688.19
625.629	12591.94
625.824	12798.78
626.018	12690.24
626.213	12536.64
626.407	12477.25
626.602	12319.56
626.796	12260.16
626.991	12299.08
627.185	12413.76
627.38	12194.63
627.574	12258.12
627.768	12135.24
627.963	12096.33
628.157	11938.63
628.352	11993.93
628.546	11598.67
628.74	11893.58
628.935	11780.94
629.129	11606.86
629.323	11467.6
629.517	11516.75
629.712	11459.41
629.906	11459.41
630.1	11103.06
630.294	11406.16
630.489	11031.38
630.683	11117.4
630.877	11047.77
631.071	10967.9
631.265	11017.05
631.459	11076.44
631.653	10773.34
631.848	10875.74
632.042	10668.89
632.236	10779.48
632.43	10513.25
632.624	10740.57
632.818	10539.87
633.012	10443.62
633.206	10310.5
633.4	10367.84
633.594	10214.24
633.788	10355.55
633.982	10247.01
634.176	10173.28
634.369	10120.04
634.563	10040.17
634.757	9943.91
634.951	9825.13
635.145	9794.41
635.339	10003.3
635.533	9868.14
635.726	9743.21
635.92	9626.48
636.114	9610.09
636.308	9626.48
636.501	9675.63
636.695	9462.64
636.889	9540.46
637.083	9276.27
637.276	9378.67
637.47	9270.13
637.664	9466.74
637.857	9243.51
638.051	9194.36
638.244	9124.72
638.438	9110.39
638.632	8889.21
638.825	9159.54
639.019	8895.35
639.212	8821.63
639.406	8827.77
639.599	8770.43
639.793	8844.15
639.986	8405.89
640.18	8510.33
640.373	8528.77
640.567	8459.13
640.76	8496
640.954	8270.72
641.147	8387.46
641.34	8182.66
641.534	8461.18
641.727	8139.65
641.92	8164.23
642.114	8012.68
642.307	7986.05
642.5	7863.18
642.694	7809.93
642.887	7988.1
643.08	7861.13
643.273	7881.61
643.467	7949.19
643.66	7570.32
643.853	7529.36
644.046	7529.36
644.239	7564.17
644.432	7623.56
644.626	7601.04
644.819	7504.78
645.012	7510.93
645.205	7287.7
645.398	7386
645.591	7244.69
645.784	7330.7
645.977	7095.19
646.17	7101.33
646.363	7050.13
646.556	6937.49
646.749	7029.65
646.942	6914.97
647.135	6896.53
647.328	6847.38
647.521	6947.73
647.714	6767.51
647.907	6771.61
648.099	6738.84
648.292	6599.58
648.485	6642.59
648.678	6476.7
648.871	6529.95
649.064	6460.32
649.256	6577.05
649.449	6540.19
649.642	6398.88
649.835	6218.66
650.027	6415.26
650.22	6353.82
650.413	6337.44
650.605	6376.35
650.798	6157.22
650.991	6200.23
651.183	6065.06
651.376	6040.48
651.568	6097.83
651.761	6067.11
651.954	5890.98
652.146	5903.27
652.339	5952.42
652.531	5854.12
652.724	5903.27
652.916	5692.33
653.109	5634.99
653.301	5866.41
653.494	5852.07
653.686	5661.61
653.879	5796.78
654.071	5534.64
654.263	5563.31
654.456	5665.71
654.648	5614.51
654.84	5417.9
655.033	5462.96
655.225	5512.11
655.417	5413.81
655.61	5286.83
655.802	5436.33
655.994	5325.74
656.186	5434.29
656.379	5321.65
656.571	5280.69
656.763	5356.46
656.955	5188.53
657.148	5182.38
657.34	5077.94
657.532	5082.03
657.724	4953.01
657.916	5049.27
658.108	5039.03
658.3	5079.99
658.492	4877.24
658.684	4950.96
658.876	4760.5
659.068	5008.31
659.26	4783.03
659.452	4805.56
659.644	4869.05
659.836	4737.98
660.028	4694.97
660.22	4578.23
660.412	4643.77
660.604	4686.78
660.796	4588.47
660.988	4522.94
661.18	4596.67
661.372	4518.84
661.563	4453.31
661.755	4559.8
661.947	4465.6
662.139	4539.32
662.331	4408.25
662.522	4342.72
662.714	4326.33
662.906	4191.17
663.097	4377.53
663.289	4201.41
663.481	4154.3
663.673	4342.72
663.864	4244.42
664.056	4094.91
664.247	4123.59
664.439	4105.15
664.631	4027.33
664.822	4135.87
665.014	4234.18
665.205	4103.11
665.397	4027.33
665.588	3998.66
665.78	3992.52
665.971	3976.13
666.163	3972.04
666.354	3906.5
666.546	3847.11
666.737	3855.3
666.929	3820.49
667.12	3744.71
667.311	3767.24
667.503	3791.81
667.694	3693.51
667.885	3654.6
668.077	3697.61
668.268	3673.03
668.459	3730.38
668.651	3732.42
668.842	3632.07
669.033	3662.79
669.224	3683.27
669.416	3587.02
669.607	3570.63
669.798	3617.74
669.989	3503.05
670.18	3593.16
670.371	3578.83
670.563	3429.32
670.754	3615.69
670.945	3564.49
671.136	3472.33
671.327	3515.34
671.518	3541.96
671.709	3488.71
671.9	3382.22
672.091	3355.6
672.282	3388.36
672.473	3396.56
672.664	3492.81
672.855	3169.23
673.046	3384.27
673.237	3310.54
673.428	3230.67
673.619	3136.46
673.809	3345.36
674	3204.05
674.191	3308.49
674.382	3189.71
674.573	3226.57
674.764	3040.21
674.954	3187.66
675.145	3130.32
675.336	3177.42
675.527	3224.53
675.717	3107.79
675.908	3042.26
676.099	3173.33
676.289	3087.31
676.48	3058.64
676.671	3165.14
676.861	3122.13
677.052	3154.9
677.243	3070.93
677.433	3197.9
677.624	3009.49
677.814	2976.72
678.005	3005.39
678.195	3120.08
678.386	3044.31
678.576	2946
678.767	3062.74
678.957	3032.02
679.148	3091.41
679.338	2966.48
679.529	3124.18
679.719	2919.38
679.909	2894.8
680.1	3001.3
680.29	2966.48
680.481	3075.03
680.671	2927.57
680.861	2978.77
681.052	2937.81
681.242	2989.01
681.432	2993.11
681.622	2950.1
681.813	3029.97
682.003	3042.26
682.193	2923.48
682.383	3011.54
682.573	2984.91
682.764	2966.48
682.954	2929.62
683.144	2898.9
683.334	2991.06
683.524	3054.55
683.714	2894.8
683.904	2915.28
684.094	2900.95
684.284	2913.24
684.474	2982.87
684.664	2976.72
684.854	3001.3
685.044	2847.7
685.234	2831.32
685.424	2888.66
685.614	2929.62
685.804	2962.39
685.994	2989.01
686.184	2845.65
686.374	2837.46
686.564	2880.47
686.753	2845.65
686.943	2753.49
687.133	2810.84
687.323	2857.94
687.513	2931.67
687.702	2894.8
687.892	2890.71
688.082	2792.41
688.272	2859.99
688.461	2741.21
688.651	2737.11
688.841	2737.11
689.03	2718.68
689.22	2816.98
689.41	2769.88
689.599	2915.28
689.789	2675.67
689.979	2780.12
690.168	2712.53
690.358	2667.48
690.547	2698.2
690.737	2702.29
690.926	2667.48
691.116	2624.47
691.305	2663.38
691.495	2626.52
691.684	2659.29
691.874	2591.7
692.063	2624.47
692.252	2776.02
692.442	2700.25
692.631	2685.91
692.82	2728.92
693.01	2634.71
693.199	2587.61
693.388	2583.51
693.578	2642.9
693.767	2544.6
693.956	2630.62
694.146	2638.81
694.335	2542.55
694.524	2751.45
694.713	2647
694.902	2714.58
695.092	2759.64
695.281	2606.04
695.47	2577.37
695.659	2554.84
695.848	2493.4
696.037	2659.29
696.226	2515.93
696.415	2548.7
696.604	2642.9
696.793	2601.94
696.982	2528.22
697.171	2470.87
697.36	2417.63
697.549	2425.82
697.738	2528.22
697.927	2474.97
698.116	2651.1
698.305	2462.68
698.494	2513.88
698.683	2569.18
698.872	2583.51
699.061	2513.88
699.25	2487.26
699.438	2454.49
699.627	2450.39
699.816	2483.16
700.005	2485.21
700.193	2413.53
700.382	2497.5
700.571	2444.25
700.76	2552.79
700.948	2569.18
701.137	2366.43
701.326	2415.58
701.514	2421.72
701.703	2407.39
701.892	2374.62
702.08	2436.06
702.269	2399.2
702.457	2315.23
702.646	2298.84
702.834	2376.67
703.023	2417.63
703.212	2409.44
703.4	2438.11
703.589	2339.8
703.777	2493.4
703.965	2319.32
704.154	2298.84
704.342	2407.39
704.531	2317.28
704.719	2337.76
704.907	2339.8
705.096	2356.19
705.284	2325.47
705.472	2261.98
705.661	2331.61
705.849	2366.43
706.037	2311.13
706.226	2372.57
706.414	2380.76
706.602	2218.97
706.79	2331.61
706.979	2159.58
707.167	2247.65
707.355	2300.89
707.543	2208.73
707.731	2257.89
707.919	2225.12
708.107	2122.72
708.296	2182.11
708.484	2180.06
708.672	2126.82
708.86	2274.27
709.048	2255.84
709.236	2135.01
709.424	2163.68
709.612	2155.49
709.8	2108.38
709.988	2108.38
710.176	2175.97
710.364	2163.68
710.551	2151.39
710.739	2096.1
710.927	2165.73
711.115	2141.15
711.303	2135.01
711.491	2225.12
711.679	2096.1
711.866	2122.72
712.054	2096.1
712.242	2096.1
712.43	2114.53
712.617	2112.48
712.805	2069.47
712.993	2044.9
713.181	2051.04
713.368	2085.86
713.556	2024.42
713.744	2020.32
713.931	2147.3
714.119	2059.23
714.306	2040.8
714.494	2065.38
714.682	1930.21
714.869	1973.22
715.057	1985.51
715.244	1979.36
715.432	2022.37
715.619	1991.65
715.807	1981.41
715.994	1997.79
716.182	1979.36
716.369	1975.27
716.556	1983.46
716.744	1991.65
716.931	2001.89
717.119	2005.99
717.306	1922.02
717.493	1962.98
717.681	1965.03
717.868	1876.96
718.055	1924.07
718.242	1868.77
718.43	2040.8
718.617	1778.66
718.804	1876.96
718.991	1858.53
719.179	1858.53
719.366	1989.6
719.553	1874.92
719.74	1881.06
719.927	1864.68
720.114	1887.2
720.301	1938.4
720.488	1901.54
720.676	1801.19
720.863	1883.11
721.05	1846.24
721.237	1897.44
721.424	1766.37
721.611	1848.29
721.798	1899.49
721.985	1733.61
722.172	1715.17
722.358	1827.81
722.545	1799.14
722.732	1758.18
722.919	1782.76
723.106	1760.23
723.293	1819.62
723.48	1713.13
723.667	1688.55
723.853	1790.95
724.04	1909.73
724.227	1817.57
724.414	1702.89
724.6	1721.32
724.787	1668.07
724.974	1823.72
725.161	1676.26
725.347	1668.07
725.534	1743.85
725.72	1741.8
725.907	1752.04
726.094	1639.4
726.28	1694.69
726.467	1668.07
726.653	1717.22
726.84	1625.06
727.027	1655.78
727.213	1704.93
727.4	1772.52
727.586	1600.49
727.773	1692.65
727.959	1752.04
728.145	1553.38
728.332	1670.12
728.518	1612.78
728.705	1690.6
728.891	1526.76
729.077	1670.12
729.264	1647.59
729.45	1594.34
729.636	1686.5
729.823	1682.41
730.009	1670.12
730.195	1526.76
730.382	1565.67
730.568	1627.11
730.754	1610.73
730.94	1575.91
731.126	1610.73
731.313	1709.03
731.499	1631.21
731.685	1606.63
731.871	1518.57
732.057	1668.07
732.243	1614.82
732.429	1678.31
732.615	1639.4
732.801	1633.26
732.987	1577.96
733.173	1637.35
733.359	1547.24
733.545	1614.82
733.731	1530.86
733.917	1637.35
734.103	1608.68
734.289	1543.14
734.475	1610.73
734.661	1553.38
734.847	1616.87
735.033	1639.4
735.219	1584.1
735.404	1553.38
735.59	1590.25
735.776	1453.03
735.962	1557.48
736.148	1512.42
736.333	1473.51
736.519	1455.08
736.705	1444.84
736.89	1512.42
737.076	1481.71
737.262	1528.81
737.447	1541.1
737.633	1463.27
737.819	1514.47
738.004	1397.74
738.19	1477.61
738.375	1481.71
738.561	1528.81
738.747	1397.74
738.932	1446.89
739.118	1418.22
739.303	1502.19
739.489	1457.13
739.674	1463.27
739.859	1481.71
740.045	1418.22
740.23	1389.55
740.416	1438.7
740.601	1342.44
740.786	1450.99
740.972	1477.61
741.157	1311.72
741.342	1463.27
741.528	1291.24
741.713	1453.03
741.898	1453.03
742.084	1248.24
742.269	1371.12
742.454	1371.12
742.639	1371.12
742.824	1377.26
743.01	1311.72
743.195	1448.94
743.38	1334.25
743.565	1405.93
743.75	1364.97
743.935	1354.73
744.12	1281
744.305	1256.43
744.49	1309.68
744.675	1391.59
744.86	1225.71
745.045	1381.35
745.23	1266.67
745.415	1184.75
745.6	1262.57
745.785	1258.48
745.97	1283.05
746.155	1248.24
746.34	1119.21
746.525	1227.76
746.71	1190.89
746.895	1209.33
747.079	1205.23
747.264	1129.45
747.449	1154.03
747.634	1209.33
747.819	1229.81
748.003	1119.21
748.188	1194.99
748.373	1178.61
748.557	1260.52
748.742	1086.45
748.927	1166.32
749.111	1149.93
749.296	1090.54
749.481	1154.03
749.665	1221.61
749.85	1057.78
750.034	1098.74
750.219	1162.22
750.404	971.76
750.588	1020.91
750.773	1108.98
750.957	1123.31
751.141	945.14
751.326	1041.39
751.51	1070.06
751.695	1055.73
751.879	1012.72
752.064	1039.34
752.248	1057.78
752.432	1012.72
752.617	904.18
752.801	1111.02
752.985	1086.45
753.17	934.9
753.354	900.08
753.538	965.62
753.722	973.81
753.907	934.9
754.091	945.14
754.275	1037.3
754.459	959.47
754.643	949.23
754.828	973.81
755.012	973.81
755.196	928.75
755.38	857.07
755.564	914.42
755.748	904.18
755.932	842.74
756.116	836.6
756.3	869.36
756.484	889.84
756.668	879.6
756.852	736.24
757.036	902.13
757.22	842.74
757.404	799.73
757.588	840.69
757.772	914.42
757.956	943.09
758.14	756.72
758.323	738.29
758.507	832.5
758.691	769.01
758.875	906.23
759.059	762.87
759.242	891.89
759.426	783.35
759.61	785.4
759.794	803.83
759.977	801.78
760.161	779.25
760.345	723.96
760.528	689.14
760.712	758.77
760.895	726
761.079	666.61
761.263	775.16
761.446	818.16
761.63	676.85
761.813	726
761.997	750.58
762.18	723.96
762.364	629.75
762.547	635.89
762.731	680.95
762.914	728.05
763.098	762.87
763.281	717.81
763.464	752.63
763.648	644.09
763.831	639.99
764.015	637.94
764.198	693.24
764.381	650.23
764.564	748.53
764.748	717.81
764.931	705.53
765.114	631.8
765.297	615.41
765.481	766.96
765.664	652.28
765.847	611.32
766.03	670.71
766.213	678.9
766.397	603.13
766.58	631.8
766.763	652.28
766.946	609.27
767.129	678.9
767.312	637.94
767.495	623.61
767.678	633.85
767.861	611.32
768.044	660.47
768.227	566.26
768.41	498.68
768.593	672.76
768.776	617.46
768.959	590.84
769.142	711.67
769.324	586.74
769.507	560.12
769.69	562.17
769.873	631.8
770.056	564.22
770.239	584.7
770.421	531.45
770.604	672.76
770.787	601.08
770.97	654.33
771.152	611.32
771.335	556.02
771.518	529.4
771.7	658.42
771.883	570.36
772.066	576.5
772.248	541.69
772.431	568.31
772.613	564.22
772.796	431.1
772.978	527.35
773.161	527.35
773.343	500.73
773.526	564.22
773.708	480.25
773.891	517.11
774.073	543.74
774.256	531.45
774.438	463.86
774.621	515.06
774.803	515.06
774.985	439.29
775.168	525.3
775.35	513.02
775.532	488.44
775.715	437.24
775.897	529.4
776.079	371.71
776.261	609.27
776.444	562.17
776.626	470.01
776.808	455.67
776.99	447.48
777.173	433.15
777.355	449.53
777.537	414.71
777.719	422.91
777.901	449.53
778.083	414.71
778.265	449.53
778.447	510.97
778.629	420.86
778.811	416.76
778.993	367.61
779.175	357.37
779.357	390.14
779.539	353.27
779.721	361.47
779.903	408.57
780.085	437.24
780.267	447.48
780.449	396.28
780.631	351.23
780.812	373.75
780.994	357.37
781.176	365.56
781.358	353.27
781.54	388.09
781.721	357.37
781.903	349.18
782.085	408.57
782.267	414.71
782.448	326.65
782.63	297.98
782.812	375.8
782.993	353.27
783.175	422.91
783.357	357.37
783.538	318.46
783.72	353.27
783.901	396.28
784.083	365.56
784.264	375.8
784.446	365.56
784.627	324.6
784.809	291.84
784.99	361.47
785.172	254.97
785.353	293.88
785.535	314.36
785.716	261.12
785.897	304.12
786.079	347.13
786.26	216.06
786.441	326.65
786.623	263.16
786.804	285.69
786.985	267.26
787.167	230.4
787.348	310.27
787.529	267.26
787.71	226.3
787.891	267.26
788.073	285.69
788.254	265.21
788.435	267.26
788.616	224.25
788.797	250.88
788.978	195.58
789.159	316.41
789.34	316.41
789.522	226.3
789.703	195.58
789.884	228.35
790.065	285.69
790.246	250.88
790.427	316.41
790.607	232.44
790.788	259.07
790.969	189.44
791.15	230.4
791.331	195.58
791.512	207.87
791.693	277.5
791.874	259.07
792.054	216.06
792.235	238.59
792.416	238.59
792.597	193.53
792.778	312.32
792.958	203.77
793.139	173.05
793.32	271.36
793.5	203.77
793.681	252.92
793.862	209.92
794.042	95.23
794.223	187.39
794.404	191.49
794.584	234.49
794.765	130.05
794.945	228.35
795.126	177.15
795.306	234.49
795.487	230.4
795.667	189.44
795.848	191.49
796.028	211.96
796.209	201.72
796.389	232.44
796.57	177.15
796.75	195.58
796.93	197.63
797.111	193.53
797.291	158.72
797.471	164.86
797.652	158.72
797.832	191.49
798.012	269.31
798.192	144.38
798.373	115.71
798.553	193.53
798.733	119.81
798.913	162.81
799.093	171.01
799.274	168.96
799.454	134.14
799.634	185.34
799.814	261.12
799.994	240.64
800.174	185.34
800.354	138.24
800.534	105.47
800.714	97.28
800.894	109.57
801.074	177.15
801.254	185.34
801.434	179.2
801.614	158.72
801.794	152.57
801.974	437.24
802.154	179.2
802.334	179.2
802.514	187.39
802.693	158.72
802.873	152.57
803.053	152.57
803.233	234.49
803.413	179.2
803.592	152.57
803.772	171.01
803.952	101.37
804.131	148.48
804.311	166.91
804.491	181.25
804.67	95.23
804.85	134.14
805.03	101.37
805.209	160.77
805.389	89.09
805.568	183.29
805.748	144.38
805.928	87.04
806.107	136.19
806.287	115.71
806.466	111.61
806.646	123.9
806.825	195.58
807.004	91.13
807.184	187.39
807.363	154.62
807.543	140.29
807.722	105.47
807.901	187.39
808.081	117.76
808.26	150.53
808.439	113.66
808.619	121.85
808.798	185.34
808.977	138.24
809.156	136.19
809.336	99.33
809.515	136.19
809.694	78.85
809.873	123.9
810.052	134.14
810.231	76.8
810.411	132.09
810.59	29.7
810.769	156.67
810.948	132.09
811.127	84.99
811.306	64.51
811.485	160.77
811.664	171.01
811.843	97.28
812.022	74.75
812.201	101.37
812.38	93.18
812.559	128
812.737	111.61
812.916	103.42
813.095	164.86
813.274	99.33
813.453	119.81
813.632	68.61
813.811	44.03
813.989	84.99
814.168	125.95
814.347	76.8
814.526	160.77
814.704	103.42
814.883	154.62
815.062	148.48
815.24	89.09
815.419	136.19
815.598	140.29
815.776	84.99
815.955	168.96
816.133	160.77
816.312	76.8
816.49	121.85
816.669	-13.31
816.847	1.02
817.026	91.13
817.204	95.23
817.383	5.12
817.561	68.61
817.74	132.09
817.918	93.18
818.097	72.7
818.275	93.18
818.453	173.05
818.632	82.94
818.81	37.89
818.988	62.46
819.167	66.56
819.345	70.65
819.523	78.85
819.701	56.32
819.879	72.7
820.058	107.52
820.236	179.2
820.414	111.61
820.592	35.84
820.77	68.61
820.948	89.09
821.127	-19.46
821.305	80.89
821.483	31.74
821.661	115.71
821.839	107.52
822.017	60.42
822.195	58.37
822.373	60.42
822.551	87.04
822.729	62.46
822.907	99.33
823.085	-5.12
823.262	52.22
823.44	1.02
823.618	37.89
823.796	89.09
823.974	37.89
824.152	68.61
824.329	68.61
824.507	37.89
824.685	66.56
824.863	70.65
825.04	62.46
825.218	84.99
825.396	154.62
825.574	64.51
825.751	64.51
825.929	107.52
826.107	48.13
826.284	64.51
826.462	101.37
826.639	50.18
826.817	25.6
826.994	136.19
827.172	7.17
827.349	136.19
827.527	84.99
827.704	29.7
827.882	54.27
828.059	58.37
828.237	48.13
828.414	70.65
828.591	89.09
828.769	-19.46
828.946	68.61
829.124	35.84
829.301	74.75
829.478	95.23
829.655	89.09
829.833	1.02
830.01	56.32
830.187	74.75
830.364	-11.26
830.542	119.81
830.719	54.27
830.896	82.94
831.073	39.94
831.25	54.27
831.427	62.46
831.604	89.09
831.782	9.22
831.959	117.76
832.136	37.89
832.313	103.42
832.49	-23.55
832.667	80.89
832.844	13.31
833.021	132.09
833.198	82.94
833.374	3.07
833.551	91.13
833.728	78.85
833.905	21.5
834.082	101.37
834.259	33.79
834.436	66.56
834.612	72.7
834.789	11.26
834.966	17.41
835.143	33.79
835.319	84.99
835.496	64.51
835.673	1.02
835.85	56.32
836.026	193.53
836.203	-3.07
836.38	-33.79
836.556	84.99
836.733	62.46
836.909	82.94
837.086	27.65
837.262	-41.98
837.439	-13.31
837.616	-31.74
837.792	29.7
837.968	46.08
838.145	31.74
838.321	84.99
838.498	97.28
838.674	-9.22
838.851	7.17
839.027	9.22
839.203	37.89
839.38	-19.46
839.556	33.79
839.732	66.56
839.909	11.26
840.085	48.13
840.261	66.56
840.437	31.74
840.614	-13.31
840.79	-31.74
840.966	64.51
841.142	52.22
841.318	31.74
841.494	37.89
841.671	54.27
841.847	68.61
842.023	-52.22
842.199	111.61
842.375	46.08
842.551	33.79
842.727	89.09
842.903	25.6
843.079	44.03
843.255	35.84
843.431	-1.02
843.607	115.71
843.783	33.79
843.959	89.09
844.134	78.85
844.31	-35.84
844.486	-33.79
844.662	46.08
844.838	17.41
845.013	58.37
845.189	70.65
845.365	-1.02
845.541	52.22
845.716	33.79
845.892	-11.26
846.068	44.03
846.244	1.02
846.419	-5.12
846.595	5.12
846.77	33.79
846.946	21.5
847.122	99.33
847.297	-13.31
847.473	5.12
847.648	33.79
847.824	74.75
847.999	7.17
848.175	121.85
848.35	62.46
848.526	62.46
848.701	21.5
848.876	82.94
849.052	25.6
849.227	13.31
849.403	62.46
849.578	-19.46
849.753	95.23
849.929	-41.98
850.104	50.18
850.279	101.37
850.454	50.18
850.63	66.56
850.805	-27.65
850.98	-41.98
851.155	72.7
851.33	13.31
851.505	13.31
851.681	9.22
851.856	5.12
852.031	19.46
852.206	50.18
852.381	17.41
852.556	-5.12
852.731	78.85
852.906	56.32
853.081	5.12
853.256	21.5
853.431	7.17
853.606	29.7
853.781	-1.02
853.956	33.79
854.131	37.89
854.305	27.65
854.48	31.74
854.655	23.55
854.83	-29.7
855.005	5.12
855.18	78.85
855.354	-37.89
855.529	-3.07
855.704	-3.07
855.879	-19.46
856.053	-23.55
856.228	13.31
856.403	-41.98
856.577	19.46
856.752	-21.5
856.926	-5.12
857.101	19.46
857.276	1.02
857.45	21.5
857.625	56.32
857.799	46.08
857.974	-48.13
858.148	3.07
858.323	39.94
858.497	25.6
858.672	7.17
858.846	15.36
859.02	48.13
859.195	58.37
859.369	15.36
859.543	-5.12
859.718	5.12
859.892	-70.65
860.066	99.33
860.241	23.55
860.415	13.31
860.589	3.07
860.763	44.03
860.938	9.22
861.112	56.32
861.286	84.99
861.46	-17.41
861.634	56.32
861.808	-44.03
861.982	5.12
862.157	37.89
862.331	-27.65
862.505	-11.26
862.679	3.07
862.853	15.36
863.027	21.5
863.201	-35.84
863.375	60.42
863.549	33.79
863.722	31.74
863.896	93.18
864.07	7.17
864.244	-23.55
864.418	23.55
864.592	-7.17
864.766	54.27
864.939	-37.89
865.113	-15.36
865.287	39.94
865.461	35.84
865.634	52.22
865.808	-3.07
865.982	17.41
866.156	54.27
866.329	21.5
866.503	35.84
866.676	64.51
866.85	58.37
867.024	-33.79
867.197	-9.22
867.371	-17.41
867.544	-15.36
867.718	3.07
867.891	-5.12
868.065	54.27
868.238	-31.74
868.412	74.75
868.585	5.12
868.759	35.84
868.932	23.55
869.105	-37.89
869.279	17.41
869.452	-31.74
869.625	-11.26
869.799	13.31
869.972	62.46
870.145	-9.22
870.319	5.12
870.492	-35.84
870.665	-23.55
870.838	-15.36
871.011	-62.46
871.185	-3.07
871.358	35.84
871.531	-37.89
871.704	35.84
871.877	25.6
872.05	21.5
872.223	-1.02
872.396	7.17
872.569	-5.12
872.742	-15.36
872.915	50.18
873.088	-1.02
873.261	-35.84
873.434	-27.65
873.607	-27.65
873.78	3.07
873.953	-3.07
874.126	39.94
874.299	-5.12
874.471	-9.22
874.644	-1.02
874.817	19.46
874.99	19.46
875.163	5.12
875.335	31.74
875.508	5.12
875.681	-35.84
875.853	11.26
876.026	52.22
876.199	1.02
876.371	-31.74
876.544	-27.65
876.717	78.85
876.889	-5.12
877.062	-3.07
877.234	-35.84
877.407	72.7
877.579	27.65
877.752	39.94
877.924	89.09
878.097	-15.36
878.269	3.07
878.442	-17.41
878.614	-25.6
878.786	89.09
878.959	-1.02
879.131	37.89
879.303	-33.79
879.476	13.31
879.648	-5.12
879.82	35.84
879.993	-7.17
880.165	-68.61
880.337	-21.5
880.509	37.89
880.681	11.26
880.854	-78.85
881.026	5.12
881.198	-9.22
881.37	-11.26
881.542	-41.98
881.714	-21.5
881.886	7.17
882.058	-56.32
882.23	-52.22
882.402	54.27
882.574	39.94
882.746	-3.07
882.918	46.08
883.09	1.02
883.262	62.46
883.434	-7.17
883.606	1.02
883.778	17.41
883.95	13.31
884.122	29.7
884.293	50.18
884.465	21.5
884.637	17.41
884.809	-21.5
884.98	46.08
885.152	-11.26
885.324	21.5
885.496	27.65
885.667	-60.42
885.839	15.36
886.011	-11.26
886.182	-44.03
886.354	1.02
886.525	-7.17
886.697	-3.07
886.869	11.26
887.04	-5.12
887.212	31.74
887.383	29.7
887.555	56.32
887.726	62.46
887.897	-9.22
888.069	25.6
888.24	-3.07
888.412	-29.7
888.583	-29.7
888.754	-50.18
888.926	41.98
889.097	-11.26
889.268	-25.6
889.44	-9.22
889.611	-52.22
889.782	-11.26
889.953	-29.7
890.125	44.03
890.296	3.07
890.467	27.65
890.638	-19.46
890.809	-1.02
890.98	66.56
891.151	46.08
891.323	39.94
891.494	-72.7
891.665	58.37
891.836	29.7
892.007	31.74
892.178	-5.12
892.349	-19.46
892.52	-3.07
892.691	-9.22
892.862	11.26
893.032	-27.65
893.203	21.5
893.374	-56.32
893.545	74.75
893.716	-19.46
893.887	-7.17
894.057	-31.74
894.228	-19.46
894.399	-7.17
894.57	-27.65
894.74	15.36
894.911	-15.36
895.082	17.41
895.253	-25.6
895.423	-44.03
895.594	50.18
895.764	-7.17
895.935	23.55
896.106	1.02
896.276	37.89
896.447	5.12
896.617	25.6
896.788	23.55
896.958	-1.02
897.129	33.79
897.299	-37.89
897.47	-11.26
897.64	-3.07
897.81	-54.27
897.981	15.36
898.151	7.17
898.322	-54.27
898.492	33.79
898.662	-1.02
898.832	-3.07
899.003	11.26
899.173	5.12
899.343	23.55
899.513	31.74
