Data from USB4F104151__24__12-58-38-818.txt Node

Date: Fri Mar 14 12:58:38 EDT 2025
User: louis
Spectrometer: USB4F10415
Trigger mode: 4
Integration Time (sec): 1.000000E-2
Scans to average: 1
Electric dark correction enabled: true
Nonlinearity correction enabled: false
Boxcar width: 0
XAxis mode: Wavelengths
Number of Pixels in Spectrum: 3648
>>>>>Begin Spectral Data<<<<<
178.204	-95.74
178.424	-95.74
178.644	-95.74
178.864	-87.55
179.084	-44.54
179.304	-17.92
179.524	18.94
179.744	16.9
179.964	25.09
180.184	-3.58
180.404	-24.06
180.624	-34.3
180.844	76.29
181.064	-34.3
181.283	6.66
181.503	35.33
181.723	-65.02
181.943	57.86
182.163	4.61
182.383	-48.64
182.602	27.14
182.822	-56.83
183.042	53.76
183.262	-46.59
183.482	-38.4
183.701	94.72
183.921	20.99
184.141	-24.06
184.361	70.14
184.58	-36.35
184.8	18.94
185.02	-38.4
185.239	-13.82
185.459	8.7
185.679	-3.58
185.898	41.47
186.118	-17.92
186.338	-34.3
186.557	-28.16
186.777	-3.58
186.997	72.19
187.216	18.94
187.436	-3.58
187.655	14.85
187.875	51.71
188.095	27.14
188.314	-3.58
188.534	-58.88
188.753	-13.82
188.973	-34.3
189.192	27.14
189.412	-40.45
189.631	72.19
189.851	-38.4
190.07	27.14
190.29	-28.16
190.509	-17.92
190.729	-30.21
190.948	68.09
191.168	51.71
191.387	64
191.607	-15.87
191.826	-5.63
192.045	-58.88
192.265	-56.83
192.484	-30.21
192.704	-30.21
192.923	-5.63
193.142	64
193.362	55.81
193.581	-42.5
193.8	10.75
194.02	-50.69
194.239	-7.68
194.458	53.76
194.678	-13.82
194.897	8.7
195.116	-13.82
195.335	-38.4
195.555	-71.17
195.774	-5.63
195.993	-11.78
196.212	102.91
196.432	-11.78
196.651	18.94
196.87	8.7
197.089	6.66
197.308	-36.35
197.528	-26.11
197.747	-13.82
197.966	31.23
198.185	43.52
198.404	14.85
198.623	-67.07
198.842	-5.63
199.062	-13.82
199.281	61.95
199.5	-22.02
199.719	53.76
199.938	10.75
200.157	-38.4
200.376	-44.54
200.595	23.04
200.814	31.23
201.033	25.09
201.252	4.61
201.471	102.91
201.69	23.04
201.909	53.76
202.128	59.9
202.347	-42.5
202.566	-32.26
202.785	6.66
203.004	45.57
203.223	39.42
203.442	0.51
203.661	27.14
203.879	0.51
204.098	-36.35
204.317	49.66
204.536	29.18
204.755	27.14
204.974	2.56
205.193	-30.21
205.411	29.18
205.63	39.42
205.849	27.14
206.068	18.94
206.287	4.61
206.505	35.33
206.724	43.52
206.943	-54.78
207.162	14.85
207.381	-28.16
207.599	-75.26
207.818	-34.3
208.037	-40.45
208.255	14.85
208.474	39.42
208.693	16.9
208.911	-26.11
209.13	39.42
209.349	82.43
209.567	14.85
209.786	29.18
210.005	49.66
210.223	33.28
210.442	0.51
210.661	2.56
210.879	4.61
211.098	-5.63
211.316	20.99
211.535	45.57
211.753	18.94
211.972	-69.12
212.191	-46.59
212.409	68.09
212.628	0.51
212.846	-22.02
213.065	25.09
213.283	37.38
213.502	-15.87
213.72	-83.45
213.938	12.8
214.157	37.38
214.375	61.95
214.594	-17.92
214.812	12.8
215.031	16.9
215.249	37.38
215.467	88.57
215.686	-17.92
215.904	12.8
216.122	-26.11
216.341	59.9
216.559	31.23
216.778	29.18
216.996	23.04
217.214	37.38
217.432	29.18
217.651	66.05
217.869	-28.16
218.087	-1.54
218.306	6.66
218.524	14.85
218.742	-22.02
218.96	-3.58
219.179	-9.73
219.397	70.14
219.615	10.75
219.833	-3.58
220.051	-46.59
220.27	45.57
220.488	-22.02
220.706	35.33
220.924	-1.54
221.142	23.04
221.36	-54.78
221.578	78.33
221.796	41.47
222.015	-38.4
222.233	-44.54
222.451	20.99
222.669	-48.64
222.887	6.66
223.105	-11.78
223.323	0.51
223.541	-28.16
223.759	43.52
223.977	-17.92
224.195	-11.78
224.413	-65.02
224.631	31.23
224.849	39.42
225.067	27.14
225.285	57.86
225.503	-46.59
225.721	10.75
225.939	51.71
226.157	-36.35
226.375	33.28
226.592	18.94
226.81	2.56
227.028	27.14
227.246	8.7
227.464	-9.73
227.682	23.04
227.9	-44.54
228.117	-69.12
228.335	-28.16
228.553	0.51
228.771	0.51
228.989	0.51
229.206	59.9
229.424	-5.63
229.642	-34.3
229.86	37.38
230.077	29.18
230.295	39.42
230.513	4.61
230.731	29.18
230.948	61.95
231.166	-22.02
231.384	78.33
231.601	-48.64
231.819	10.75
232.037	-22.02
232.254	14.85
232.472	31.23
232.689	-30.21
232.907	-11.78
233.125	-11.78
233.342	-7.68
233.56	27.14
233.777	-38.4
233.995	18.94
234.213	-3.58
234.43	-89.6
234.648	-65.02
234.865	51.71
235.083	-5.63
235.3	-40.45
235.518	-19.97
235.735	78.33
235.953	39.42
236.17	-26.11
236.388	76.29
236.605	0.51
236.822	-77.31
237.04	-22.02
237.257	6.66
237.475	-83.45
237.692	37.38
237.909	-3.58
238.127	2.56
238.344	-26.11
238.562	78.33
238.779	29.18
238.996	-69.12
239.214	4.61
239.431	55.81
239.648	-13.82
239.865	-83.45
240.083	41.47
240.3	12.8
240.517	43.52
240.735	4.61
240.952	-3.58
241.169	-3.58
241.386	-1.54
241.603	-44.54
241.821	20.99
242.038	-5.63
242.255	-65.02
242.472	-77.31
242.689	23.04
242.907	35.33
243.124	6.66
243.341	29.18
243.558	10.75
243.775	-13.82
243.992	-24.06
244.209	-46.59
244.426	6.66
244.643	-46.59
244.86	37.38
245.078	47.62
245.295	31.23
245.512	94.72
245.729	-26.11
245.946	76.29
246.163	-19.97
246.38	-19.97
246.597	20.99
246.814	-1.54
247.031	39.42
247.248	-9.73
247.464	-22.02
247.681	55.81
247.898	-3.58
248.115	-40.45
248.332	29.18
248.549	-1.54
248.766	-38.4
248.983	12.8
249.2	37.38
249.417	53.76
249.633	-17.92
249.85	90.62
250.067	18.94
250.284	0.51
250.501	37.38
250.717	39.42
250.934	6.66
251.151	49.66
251.368	74.24
251.585	-93.69
251.801	23.04
252.018	-30.21
252.235	10.75
252.451	-30.21
252.668	-15.87
252.885	-67.07
253.102	-9.73
253.318	92.67
253.535	2.56
253.752	-1.54
253.968	14.85
254.185	-46.59
254.401	45.57
254.618	84.48
254.835	14.85
255.051	27.14
255.268	23.04
255.484	6.66
255.701	-17.92
255.917	31.23
256.134	55.81
256.351	12.8
256.567	35.33
256.784	88.57
257	-28.16
257.217	61.95
257.433	51.71
257.65	-52.74
257.866	29.18
258.082	-7.68
258.299	31.23
258.515	-19.97
258.732	64
258.948	-3.58
259.165	-30.21
259.381	12.8
259.597	25.09
259.814	61.95
260.03	-30.21
260.246	55.81
260.463	45.57
260.679	41.47
260.895	-9.73
261.112	74.24
261.328	6.66
261.544	70.14
261.761	45.57
261.977	72.19
262.193	12.8
262.409	6.66
262.626	4.61
262.842	-28.16
263.058	39.42
263.274	-5.63
263.49	29.18
263.707	92.67
263.923	-9.73
264.139	39.42
264.355	-54.78
264.571	59.9
264.787	-54.78
265.004	35.33
265.22	12.8
265.436	-15.87
265.652	6.66
265.868	39.42
266.084	-36.35
266.3	20.99
266.516	-9.73
266.732	20.99
266.948	2.56
267.164	14.85
267.38	29.18
267.596	53.76
267.812	45.57
268.028	64
268.244	-17.92
268.46	-5.63
268.676	84.48
268.892	6.66
269.108	-13.82
269.324	-5.63
269.54	23.04
269.756	-13.82
269.972	-24.06
270.188	-9.73
270.403	-36.35
270.619	12.8
270.835	51.71
271.051	-50.69
271.267	39.42
271.483	14.85
271.698	14.85
271.914	-52.74
272.13	-1.54
272.346	0.51
272.562	6.66
272.777	4.61
272.993	0.51
273.209	27.14
273.425	-7.68
273.64	12.8
273.856	53.76
274.072	-5.63
274.287	-19.97
274.503	-54.78
274.719	12.8
274.934	20.99
275.15	-13.82
275.366	29.18
275.581	70.14
275.797	10.75
276.012	-34.3
276.228	49.66
276.444	47.62
276.659	68.09
276.875	51.71
277.09	10.75
277.306	12.8
277.521	-1.54
277.737	-11.78
277.952	-11.78
278.168	-1.54
278.383	-22.02
278.599	31.23
278.814	12.8
279.03	-36.35
279.245	-11.78
279.461	16.9
279.676	-13.82
279.892	-60.93
280.107	-1.54
280.322	55.81
280.538	35.33
280.753	-62.98
280.969	59.9
281.184	8.7
281.399	0.51
281.615	-13.82
281.83	125.44
282.045	-22.02
282.26	68.09
282.476	-26.11
282.691	12.8
282.906	-42.5
283.122	8.7
283.337	2.56
283.552	64
283.767	2.56
283.983	59.9
284.198	41.47
284.413	49.66
284.628	70.14
284.843	25.09
285.058	6.66
285.274	-26.11
285.489	18.94
285.704	-24.06
285.919	-15.87
286.134	-3.58
286.349	-44.54
286.564	70.14
286.779	-9.73
286.995	35.33
287.21	94.72
287.425	6.66
287.64	-13.82
287.855	-1.54
288.07	-56.83
288.285	20.99
288.5	-13.82
288.715	-13.82
288.93	-11.78
289.145	-13.82
289.36	4.61
289.575	-13.82
289.79	123.39
290.004	-50.69
290.219	45.57
290.434	-3.58
290.649	-3.58
290.864	-15.87
291.079	-36.35
291.294	-13.82
291.509	-3.58
291.724	29.18
291.938	-5.63
292.153	27.14
292.368	0.51
292.583	29.18
292.798	-7.68
293.012	-3.58
293.227	-22.02
293.442	-22.02
293.657	20.99
293.871	61.95
294.086	-13.82
294.301	16.9
294.516	-42.5
294.73	-1.54
294.945	-28.16
295.16	37.38
295.374	-36.35
295.589	29.18
295.804	-52.74
296.018	37.38
296.233	-11.78
296.447	35.33
296.662	-11.78
296.877	6.66
297.091	64
297.306	55.81
297.52	12.8
297.735	45.57
297.949	45.57
298.164	59.9
298.378	-24.06
298.593	-13.82
298.807	-32.26
299.022	29.18
299.236	-3.58
299.451	-60.93
299.665	-24.06
299.88	-44.54
300.094	-3.58
300.309	-38.4
300.523	59.9
300.737	-1.54
300.952	-30.21
301.166	23.04
301.381	-3.58
301.595	-36.35
301.809	51.71
302.024	-56.83
302.238	-42.5
302.452	-28.16
302.667	45.57
302.881	2.56
303.095	-44.54
303.309	35.33
303.524	20.99
303.738	39.42
303.952	-22.02
304.166	-26.11
304.381	12.8
304.595	55.81
304.809	-5.63
305.023	68.09
305.237	-73.21
305.452	39.42
305.666	2.56
305.88	23.04
306.094	-48.64
306.308	-13.82
306.522	6.66
306.736	37.38
306.95	90.62
307.164	-40.45
307.379	2.56
307.593	100.86
307.807	2.56
308.021	-1.54
308.235	8.7
308.449	-60.93
308.663	-1.54
308.877	100.86
309.091	-67.07
309.305	51.71
309.519	-1.54
309.733	31.23
309.947	2.56
310.161	29.18
310.374	-34.3
310.588	-40.45
310.802	-56.83
311.016	31.23
311.23	20.99
311.444	25.09
311.658	43.52
311.872	8.7
312.085	29.18
312.299	43.52
312.513	70.14
312.727	25.09
312.941	10.75
313.154	70.14
313.368	-38.4
313.582	8.7
313.796	39.42
314.009	43.52
314.223	0.51
314.437	23.04
314.651	8.7
314.864	-15.87
315.078	-65.02
315.292	6.66
315.505	41.47
315.719	6.66
315.933	31.23
316.146	-38.4
316.36	8.7
316.573	-11.78
316.787	25.09
317.001	2.56
317.214	-34.3
317.428	14.85
317.641	-42.5
317.855	23.04
318.068	16.9
318.282	2.56
318.495	27.14
318.709	4.61
318.922	-15.87
319.136	43.52
319.349	39.42
319.563	39.42
319.776	-56.83
319.99	31.23
320.203	23.04
320.417	-34.3
320.63	-89.6
320.843	-17.92
321.057	-15.87
321.27	41.47
321.483	88.57
321.697	20.99
321.91	18.94
322.124	-3.58
322.337	-36.35
322.55	10.75
322.763	-38.4
322.977	39.42
323.19	-11.78
323.403	35.33
323.617	-32.26
323.83	43.52
324.043	-13.82
324.256	45.57
324.469	53.76
324.683	6.66
324.896	-15.87
325.109	-50.69
325.322	-22.02
325.535	-1.54
325.748	47.62
325.962	43.52
326.175	-22.02
326.388	55.81
326.601	12.8
326.814	0.51
327.027	39.42
327.24	-5.63
327.453	-22.02
327.666	84.48
327.879	-38.4
328.092	-28.16
328.305	49.66
328.518	4.61
328.731	82.43
328.944	88.57
329.157	47.62
329.37	35.33
329.583	-50.69
329.796	35.33
330.009	-69.12
330.222	45.57
330.435	14.85
330.648	59.9
330.861	72.19
331.073	-19.97
331.286	43.52
331.499	27.14
331.712	12.8
331.925	51.71
332.138	49.66
332.35	-13.82
332.563	16.9
332.776	45.57
332.989	16.9
333.202	-52.74
333.414	-24.06
333.627	23.04
333.84	12.8
334.053	-46.59
334.265	55.81
334.478	-48.64
334.691	-9.73
334.903	-71.17
335.116	18.94
335.329	31.23
335.541	-15.87
335.754	10.75
335.966	31.23
336.179	27.14
336.392	-5.63
336.604	-5.63
336.817	14.85
337.029	-24.06
337.242	-56.83
337.454	37.38
337.667	6.66
337.88	6.66
338.092	-17.92
338.305	55.81
338.517	-30.21
338.729	51.71
338.942	-46.59
339.154	4.61
339.367	18.94
339.579	-1.54
339.792	53.76
340.004	-17.92
340.217	10.75
340.429	-19.97
340.641	-22.02
340.854	64
341.066	-65.02
341.278	12.8
341.491	0.51
341.703	53.76
341.915	2.56
342.128	59.9
342.34	-5.63
342.552	20.99
342.764	29.18
342.977	-9.73
343.189	47.62
343.401	-9.73
343.613	64
343.826	-3.58
344.038	-5.63
344.25	0.51
344.462	55.81
344.674	37.38
344.886	14.85
345.099	45.57
345.311	53.76
345.523	-15.87
345.735	6.66
345.947	35.33
346.159	53.76
346.371	-1.54
346.583	-17.92
346.795	76.29
347.007	43.52
347.219	68.09
347.431	20.99
347.643	18.94
347.855	10.75
348.067	18.94
348.279	23.04
348.491	-30.21
348.703	43.52
348.915	6.66
349.127	-11.78
349.339	43.52
349.551	55.81
349.763	43.52
349.975	12.8
350.187	47.62
350.399	12.8
350.61	27.14
350.822	-19.97
351.034	92.67
351.246	20.99
351.458	-13.82
351.669	121.34
351.881	10.75
352.093	-42.5
352.305	74.24
352.517	55.81
352.728	59.9
352.94	27.14
353.152	-36.35
353.363	35.33
353.575	66.05
353.787	29.18
353.999	39.42
354.21	14.85
354.422	-44.54
354.633	-38.4
354.845	12.8
355.057	-11.78
355.268	-5.63
355.48	27.14
355.692	51.71
355.903	39.42
356.115	-42.5
356.326	59.9
356.538	8.7
356.749	-9.73
356.961	59.9
357.172	10.75
357.384	-1.54
357.595	14.85
357.807	4.61
358.018	-11.78
358.23	53.76
358.441	10.75
358.653	-9.73
358.864	16.9
359.075	-32.26
359.287	4.61
359.498	12.8
359.709	-17.92
359.921	18.94
360.132	-34.3
360.344	59.9
360.555	16.9
360.766	29.18
360.977	-42.5
361.189	35.33
361.4	-54.78
361.611	29.18
361.823	76.29
362.034	16.9
362.245	12.8
362.456	-28.16
362.667	-50.69
362.879	-65.02
363.09	-11.78
363.301	2.56
363.512	64
363.723	41.47
363.935	-46.59
364.146	18.94
364.357	8.7
364.568	-22.02
364.779	57.86
364.99	59.9
365.201	-38.4
365.412	41.47
365.623	39.42
365.834	-42.5
366.045	20.99
366.256	59.9
366.467	20.99
366.678	47.62
366.889	-48.64
367.1	-7.68
367.311	12.8
367.522	20.99
367.733	31.23
367.944	-40.45
368.155	2.56
368.366	-5.63
368.577	20.99
368.788	33.28
368.999	29.18
369.209	6.66
369.42	-40.45
369.631	31.23
369.842	18.94
370.053	18.94
370.264	20.99
370.474	-30.21
370.685	74.24
370.896	45.57
371.107	20.99
371.317	39.42
371.528	16.9
371.739	59.9
371.95	51.71
372.16	31.23
372.371	4.61
372.582	20.99
372.792	-28.16
373.003	23.04
373.214	2.56
373.424	-13.82
373.635	53.76
373.846	-3.58
374.056	-71.17
374.267	20.99
374.477	37.38
374.688	37.38
374.898	10.75
375.109	33.28
375.319	-22.02
375.53	33.28
375.74	-34.3
375.951	6.66
376.161	61.95
376.372	2.56
376.582	23.04
376.793	39.42
377.003	-38.4
377.214	20.99
377.424	2.56
377.635	0.51
377.845	33.28
378.055	31.23
378.266	47.62
378.476	88.57
378.686	-13.82
378.897	12.8
379.107	2.56
379.317	-60.93
379.528	18.94
379.738	35.33
379.948	-17.92
380.158	55.81
380.369	-17.92
380.579	0.51
380.789	4.61
380.999	18.94
381.21	27.14
381.42	18.94
381.63	-32.26
381.84	59.9
382.05	-7.68
382.261	43.52
382.471	23.04
382.681	82.43
382.891	57.86
383.101	16.9
383.311	35.33
383.521	20.99
383.731	27.14
383.941	66.05
384.151	39.42
384.361	129.53
384.571	12.8
384.781	14.85
384.991	10.75
385.201	14.85
385.411	49.66
385.621	27.14
385.831	43.52
386.041	-24.06
386.251	-11.78
386.461	47.62
386.671	37.38
386.881	29.18
387.091	14.85
387.301	-50.69
387.511	6.66
387.72	6.66
387.93	47.62
388.14	90.62
388.35	74.24
388.56	102.91
388.769	113.15
388.979	-28.16
389.189	-38.4
389.399	10.75
389.609	27.14
389.818	51.71
390.028	98.81
390.238	92.67
390.447	-17.92
390.657	10.75
390.867	51.71
391.076	59.9
391.286	25.09
391.496	33.28
391.705	53.76
391.915	121.34
392.125	2.56
392.334	86.53
392.544	-36.35
392.753	8.7
392.963	86.53
393.172	27.14
393.382	35.33
393.591	109.05
393.801	33.28
394.01	12.8
394.22	-30.21
394.429	49.66
394.639	-13.82
394.848	31.23
395.058	-24.06
395.267	12.8
395.477	57.86
395.686	16.9
395.895	2.56
396.105	53.76
396.314	72.19
396.524	76.29
396.733	68.09
396.942	27.14
397.152	88.57
397.361	100.86
397.57	12.8
397.78	80.38
397.989	53.76
398.198	119.29
398.407	66.05
398.617	51.71
398.826	66.05
399.035	29.18
399.244	23.04
399.453	64
399.663	72.19
399.872	47.62
400.081	31.23
400.29	59.9
400.499	33.28
400.708	14.85
400.917	-1.54
401.127	49.66
401.336	20.99
401.545	8.7
401.754	51.71
401.963	96.77
402.172	39.42
402.381	92.67
402.59	16.9
402.799	47.62
403.008	51.71
403.217	51.71
403.426	111.1
403.635	-19.97
403.844	76.29
404.053	176.64
404.262	61.95
404.471	70.14
404.68	61.95
404.888	104.96
405.097	57.86
405.306	100.86
405.515	53.76
405.724	78.33
405.933	154.11
406.142	-1.54
406.35	109.05
406.559	84.48
406.768	57.86
406.977	18.94
407.185	180.73
407.394	117.25
407.603	78.33
407.812	117.25
408.02	100.86
408.229	49.66
408.438	143.87
408.646	121.34
408.855	147.97
409.064	145.92
409.272	135.68
409.481	152.06
409.69	94.72
409.898	117.25
410.107	174.59
410.315	141.82
410.524	147.97
410.733	219.64
410.941	143.87
411.15	160.25
411.358	211.45
411.567	207.36
411.775	238.08
411.984	233.98
412.192	240.12
412.401	233.98
412.609	236.03
412.818	281.08
413.026	252.41
413.234	276.99
413.443	244.22
413.651	326.14
413.86	315.9
414.068	340.47
414.276	371.19
414.485	371.19
414.693	354.81
414.901	346.62
415.11	418.3
415.318	346.62
415.526	416.25
415.734	463.35
415.943	424.44
416.151	459.26
416.359	446.97
416.567	485.88
416.776	532.98
416.984	600.57
417.192	514.55
417.4	565.75
417.608	559.61
417.817	707.06
418.025	619
418.233	606.71
418.441	668.15
418.649	727.54
418.857	772.6
419.065	694.77
419.273	788.98
419.481	707.06
419.689	788.98
419.897	899.57
420.105	870.9
420.313	866.8
420.521	897.52
420.729	1030.64
420.937	915.95
421.145	971.25
421.353	1032.69
421.561	1092.08
421.769	1053.17
421.977	1176.05
422.185	1133.04
422.393	1282.54
422.601	1354.22
422.809	1376.75
423.017	1321.45
423.224	1331.69
423.432	1446.38
423.64	1460.71
423.848	1575.4
424.056	1542.63
424.263	1649.13
424.471	1540.58
424.679	1626.6
424.887	1808.87
425.094	1772
425.302	1862.12
425.51	1823.2
425.718	2015.71
425.925	1901.03
426.133	2011.62
426.341	2208.22
426.548	2271.71
426.756	2286.05
426.964	2355.68
427.171	2449.88
427.379	2449.88
427.586	2535.9
427.794	2679.26
428.001	2740.69
428.209	2888.15
428.417	2894.29
428.624	3013.07
428.832	2931.16
429.039	2822.61
429.247	2953.68
429.454	3115.47
429.662	3416.52
429.869	3230.16
430.076	3473.87
430.284	3406.28
430.491	3551.69
430.699	3633.61
430.906	3680.71
431.114	3946.95
431.321	3901.89
431.528	3979.72
431.736	4233.66
431.943	4182.46
432.15	4284.86
432.358	4350.4
432.565	4549.05
432.772	4524.47
432.979	4860.34
433.187	4893.11
433.394	4891.06
433.601	5292.46
433.808	5296.56
434.016	5161.39
434.223	5388.72
434.43	5796.26
434.637	5616.04
434.844	5996.96
435.052	6261.15
435.259	6015.4
435.466	6060.45
435.673	6025.64
435.88	6527.39
436.087	6787.48
436.294	6834.58
436.501	6541.72
436.708	6769.05
436.915	7172.5
437.122	7520.65
437.329	7293.33
437.537	7610.76
437.743	7598.48
437.95	7594.38
438.157	8151.43
438.364	8253.83
438.571	8210.82
438.778	8425.86
438.985	9191.8
439.192	8688
439.399	9183.6
439.606	8753.53
439.813	9408.88
440.02	9703.79
440.227	9703.79
440.433	9566.57
440.64	9980.26
440.847	9877.87
441.054	10021.22
441.261	10807.64
441.467	10631.52
441.674	10682.72
441.881	11350.35
442.088	11225.43
442.294	11237.72
442.501	11403.6
442.708	12038.47
442.914	12042.57
443.121	12726.59
443.328	12409.15
443.534	13252.92
443.741	12978.49
443.948	12824.89
444.154	13873.45
444.361	13545.78
444.568	13687.09
444.774	13760.81
444.981	13783.34
445.187	14035.24
445.394	14768.41
445.6	14489.89
445.807	16140.55
446.013	15335.7
446.22	15780.11
446.426	16265.48
446.633	16625.92
446.839	17240.31
447.046	16544
447.252	17365.24
447.459	17447.16
447.665	17240.31
447.871	18024.68
448.078	19095.77
448.284	17676.53
448.491	18612.45
448.697	19257.56
448.903	19718.36
449.11	19482.84
449.316	19386.58
449.522	19808.47
449.728	20490.44
449.935	20179.15
450.141	20594.89
450.347	21090.49
450.553	20070.61
450.76	20832.45
450.966	21225.66
451.172	21082.3
451.378	21696.69
451.584	21194.94
451.791	21438.65
451.997	21510.33
452.203	22055.09
452.409	21727.41
452.615	21809.33
452.821	21186.75
453.027	20807.87
453.233	21967.02
453.44	21463.22
453.646	21500.09
453.852	21461.18
454.058	21708.98
454.264	21291.2
454.47	21967.02
454.676	21270.72
454.882	21838
455.088	19824.85
455.294	20240.59
455.5	20527.3
455.705	21076.16
455.911	20201.68
456.117	19767.51
456.323	19349.72
456.529	18393.32
456.735	18866.4
456.941	18700.51
457.147	18362.6
457.352	17697.01
457.558	17527.03
457.764	17484.02
457.97	17146.11
458.176	17133.82
458.381	16969.98
458.587	16210.18
458.793	16103.69
458.999	15175.96
459.204	16206.09
459.41	16132.36
459.616	14858.53
459.821	14811.42
460.027	14629.15
460.233	14274.85
460.438	13943.08
460.644	14119.21
460.85	13334.84
461.055	13336.88
461.261	12986.68
461.466	11989.32
461.672	11749.71
461.878	12745.02
462.083	11587.92
462.289	11682.13
462.494	11393.36
462.7	11014.49
462.905	10500.45
463.111	11057.5
463.316	10973.53
463.522	10584.41
463.727	10758.49
463.932	10832.22
464.138	10731.87
464.343	10613.09
464.549	10531.17
464.754	10748.25
464.959	10559.84
465.165	10617.18
465.37	10266.98
465.575	9918.82
465.781	10502.5
465.986	10309.99
466.191	9884.01
466.397	9892.2
466.602	9181.56
466.807	9640.3
467.012	9556.33
467.218	9828.71
467.423	9542
467.628	9619.82
467.833	10078.57
468.038	9566.57
468.244	9705.84
468.449	9861.48
468.654	9402.74
468.859	9236.85
469.064	9253.23
469.269	8894.84
469.474	9107.83
469.679	9113.97
469.885	8935.8
470.09	9126.26
470.295	8847.74
470.5	8714.62
470.705	8800.63
470.91	8714.62
471.115	8548.73
471.32	8577.41
471.525	8520.06
471.73	8368.51
471.935	8634.75
472.139	8075.65
472.344	8001.93
472.549	8204.67
472.754	8022.41
472.959	7811.46
473.164	7594.38
473.369	7702.92
473.574	7952.77
473.778	7760.27
473.983	7680.39
474.188	7676.3
474.393	7281.04
474.598	7446.93
474.802	7311.76
475.007	7381.39
475.212	7258.51
475.417	7023
475.621	7066
475.826	6928.79
476.031	6883.73
476.235	6848.92
476.44	6803.86
476.645	6619.55
476.849	6865.3
477.054	6707.61
477.259	6529.44
477.463	6459.81
477.668	6244.77
477.872	6461.85
478.077	6283.68
478.282	6226.34
478.486	5960.1
478.691	6058.4
478.895	6189.47
479.1	6121.89
479.304	6044.07
479.509	6082.98
479.713	6050.21
479.918	5853.61
480.122	5773.74
480.326	5798.31
480.531	5913
480.735	5734.82
480.94	5646.76
481.144	6011.3
481.348	5749.16
481.553	5589.42
481.757	5726.63
481.961	5738.92
482.166	5910.95
482.37	5683.63
482.574	5556.65
482.778	5579.18
482.983	5603.75
483.187	5421.49
483.391	5689.77
483.595	5480.88
483.8	5579.18
484.004	5630.38
484.208	5581.23
484.412	5542.32
484.616	5632.43
484.821	5599.66
485.025	5394.86
485.229	5728.68
485.433	5591.47
485.637	5579.18
485.841	5589.42
486.045	5628.33
486.249	5607.85
486.453	5525.93
486.657	5564.84
486.861	5683.63
487.065	5452.2
487.269	5648.81
487.473	5548.46
487.677	5482.92
487.881	5558.7
488.085	5538.22
488.289	5702.06
488.493	5546.41
488.697	5734.82
488.901	5624.23
489.105	5605.8
489.309	5738.92
489.512	5667.24
489.716	5691.82
489.92	5642.67
490.124	5646.76
490.328	5816.74
490.531	5702.06
490.735	5822.89
490.939	5794.22
491.143	5671.34
491.346	6029.73
491.55	5896.61
491.754	5947.81
491.958	5898.66
492.161	5994.92
492.365	5949.86
492.569	5892.52
492.772	5978.53
492.976	5921.19
493.18	6089.12
493.383	6113.7
493.587	6158.75
493.79	6191.52
493.994	6226.34
494.197	6279.58
494.401	6308.26
494.605	6447.52
494.808	6353.31
495.012	6429.09
495.215	6402.46
495.419	6732.19
495.622	6637.98
495.825	6781.34
496.029	6541.72
496.232	6742.43
496.436	6711.71
496.639	6863.26
496.843	6953.37
497.046	7000.47
497.249	7012.76
497.453	7121.3
497.656	7248.27
497.859	7227.79
498.063	7375.25
498.266	7528.85
498.469	7379.34
498.673	7491.98
498.876	7592.33
499.079	7731.59
499.282	7713.16
499.485	8073.6
499.689	7897.48
499.892	7989.64
500.095	8251.78
500.298	8411.52
500.501	8259.97
500.705	8571.26
500.908	8538.49
501.111	8694.14
501.314	8821.11
501.517	8946.04
501.72	9089.4
501.923	8962.42
502.126	8987
502.329	9159.03
502.532	9269.62
502.735	9478.51
502.938	9501.04
503.141	9656.68
503.344	9621.87
503.547	9929.06
503.75	10146.15
503.953	10164.58
504.156	10236.26
504.359	10301.79
504.562	10572.13
504.765	10748.25
504.968	10748.25
505.17	10959.19
505.373	10957.14
505.576	11110.74
505.779	11387.22
505.982	11379.03
506.185	11594.06
506.387	11725.13
506.59	11651.41
506.793	12032.33
506.996	11710.8
507.198	12093.77
507.401	12183.88
507.604	12249.41
507.807	12577.09
508.009	12783.93
508.212	13033.79
508.415	13254.97
508.617	13162.81
508.82	12964.15
509.022	13326.64
509.225	13621.55
509.428	13676.85
509.63	13732.14
509.833	13922.6
510.035	14074.15
510.238	14074.15
510.44	14074.15
510.643	14481.7
510.845	14747.93
511.048	14625.06
511.25	14919.96
511.453	15085.85
511.655	15810.83
511.858	15415.57
512.06	15679.76
512.262	15773.97
512.465	15610.13
512.667	16292.1
512.87	16148.75
513.072	16259.34
513.274	16652.55
513.477	16816.38
513.679	17035.52
513.881	17176.83
514.084	17338.62
514.286	17438.97
514.488	17750.26
514.69	17971.44
514.893	18016.49
515.095	18084.08
515.297	18405.61
515.499	18598.12
515.701	18860.26
515.904	19020
516.106	18927.84
516.308	19181.79
516.51	19587.29
516.712	19552.47
516.914	19587.29
517.116	20250.83
517.318	20285.64
517.52	20314.31
517.722	20435.14
517.925	20459.72
518.127	20883.65
518.329	21180.6
518.531	21147.84
518.733	21493.94
518.935	21813.43
519.136	21465.27
519.338	22177.97
519.54	22278.32
519.742	22188.21
519.944	22587.56
520.146	22544.55
520.348	22923.43
520.55	22827.17
520.752	23425.18
520.954	23548.06
521.155	23337.12
521.357	23736.47
521.559	24045.71
521.761	24443.02
521.963	24242.32
522.164	24445.07
522.366	24678.54
522.568	24905.86
522.77	24967.3
522.971	25221.25
523.173	25065.6
523.375	25458.81
523.576	25450.62
523.778	25620.6
523.98	25673.85
524.181	26282.09
524.383	26056.82
524.584	26398.83
524.786	26646.63
524.988	26431.6
525.189	26546.28
525.391	26849.38
525.592	26976.36
525.794	27250.78
525.995	26898.53
526.197	27109.47
526.398	27629.66
526.6	27918.42
526.801	27590.75
527.003	27684.95
527.204	27703.39
527.406	28346.45
527.607	28336.21
527.808	28612.68
528.01	27963.48
528.211	28026.96
528.412	28803.14
528.614	28418.13
528.815	28504.14
529.016	28618.83
529.218	28655.69
529.419	28682.31
529.62	28805.19
529.822	28741.71
530.023	28727.37
530.224	28964.93
530.425	28960.84
530.626	28696.65
530.828	28801.1
531.029	29261.89
531.23	29110.34
531.431	29196.35
531.632	29511.74
531.833	29718.59
532.035	29241.41
532.236	29427.77
532.437	29487.17
532.638	28966.98
532.839	29327.42
533.04	29706.3
533.241	28915.78
533.442	30218.29
533.643	29419.58
533.844	29462.59
534.045	29982.77
534.246	29237.31
534.447	29577.28
534.648	29243.46
534.849	29597.76
535.05	29110.34
535.251	29829.18
535.451	29491.26
535.652	29810.75
535.853	30081.08
536.054	29831.22
536.255	29904.95
536.456	29509.69
536.657	30242.87
536.857	29759.55
537.058	29419.58
537.259	29845.56
537.46	30040.12
537.66	29530.17
537.861	29698.11
538.062	29659.2
538.263	29921.34
538.463	29278.27
538.664	29628.48
538.865	29675.58
539.065	29816.89
539.266	29415.49
539.466	29915.19
539.667	29610.04
539.868	30124.08
540.068	29788.22
540.269	29542.46
540.469	29317.18
540.67	29728.83
540.87	29495.36
541.071	29425.73
541.271	29794.36
541.472	29777.98
541.672	29501.5
541.873	29382.72
542.073	29100.1
542.274	30003.25
542.474	29663.29
542.675	29067.33
542.875	29687.87
543.075	29505.6
543.276	29040.71
543.476	29761.59
543.676	29296.7
543.877	29698.11
544.077	29564.99
544.277	29745.21
544.478	29403.2
544.678	29890.62
544.878	29323.33
545.078	29458.49
545.279	29501.5
545.479	29495.36
545.679	29747.26
545.879	29366.34
546.079	29423.68
546.28	29374.53
546.48	29171.78
546.68	29331.52
546.88	29526.08
547.08	29319.23
547.28	29438.01
547.48	29411.39
547.68	29495.36
547.88	29390.91
548.081	29450.3
548.281	29554.75
548.481	28561.48
548.681	29241.41
548.881	29302.85
549.081	29550.65
549.28	29366.34
549.48	29497.41
549.68	29372.48
549.88	29886.52
550.08	29065.28
550.28	29200.45
550.48	29341.76
550.68	29368.38
550.88	29229.12
551.08	29386.82
551.279	29278.27
551.479	28901.45
551.679	29290.56
551.879	29202.5
552.079	29225.03
552.278	28878.92
552.478	28948.55
552.678	29003.85
552.878	29171.78
553.077	29321.28
553.277	28645.45
553.477	29161.54
553.676	28786.76
553.876	29114.44
554.076	28586.06
554.275	29100.1
554.475	28878.92
554.674	29198.4
554.874	29071.43
555.074	29040.71
555.273	28975.17
555.473	29114.44
555.672	28393.55
555.872	28647.5
556.071	28880.97
556.271	28973.13
556.47	28657.74
556.67	28342.35
556.869	28530.76
557.068	28815.43
557.268	28557.39
557.467	28989.51
557.667	28667.98
557.866	28686.41
558.065	28524.62
558.265	28549.2
558.464	28268.62
558.663	28713.03
558.863	28155.99
559.062	28739.66
559.261	28190.8
559.461	28481.61
559.66	27965.53
559.859	28436.56
560.058	27779.16
560.258	28381.26
560.457	27738.2
560.656	28414.03
560.855	27684.95
561.054	28242
561.253	27777.11
561.453	28092.5
561.652	27912.28
561.851	28086.36
562.05	27922.52
562.249	27820.12
562.448	27979.86
562.647	27652.19
562.846	27961.43
563.045	27680.86
563.244	27557.98
563.443	27551.84
563.642	27015.27
563.841	27521.12
564.04	27422.81
564.239	27701.34
564.438	26900.58
564.637	27431.01
564.836	27371.61
565.035	27056.23
565.234	27224.16
565.432	27119.71
565.631	26933.35
565.83	27129.95
566.029	26855.53
566.228	27086.95
566.427	26896.49
566.625	26636.39
566.824	26114.16
567.023	26566.76
567.222	26454.12
567.42	26648.68
567.619	26605.67
567.818	26589.29
568.016	26697.83
568.215	26534
568.414	26454.12
568.612	26652.78
568.811	26402.93
569.01	26169.46
569.208	25935.99
569.407	26230.9
569.605	25927.8
569.804	26083.44
570.002	25700.47
570.201	25897.08
570.4	25747.58
570.598	25532.54
570.797	25618.55
570.995	25825.4
571.193	25335.93
571.392	25532.54
571.59	25557.11
571.789	25245.82
571.987	25215.1
572.186	25229.44
572.384	25034.88
572.582	25088.13
572.781	25049.22
572.979	24899.72
573.177	25081.99
573.376	24805.51
573.574	24600.71
573.772	25004.16
573.971	24676.49
574.169	24574.09
574.367	24580.23
574.565	24688.78
574.763	24479.88
574.962	24604.81
575.16	24160.4
575.358	24408.2
575.556	23900.31
575.754	24379.53
575.952	23873.68
576.151	24346.76
576.349	23777.43
576.547	23926.93
576.745	23955.6
576.943	23812.24
577.141	23845.01
577.339	23840.92
577.537	23316.64
577.735	23488.67
577.933	23013.54
578.131	23457.95
578.329	23156.89
578.527	23021.73
578.725	23031.97
578.923	23670.93
579.121	23120.03
579.319	23111.84
579.516	23154.85
579.714	23042.21
579.912	23048.35
580.11	22941.86
580.308	22753.44
580.506	22827.17
580.704	22417.58
580.901	22487.21
581.099	22696.1
581.297	22202.54
581.495	22614.18
581.692	22438.06
581.89	21858.48
582.088	22474.92
582.285	22196.4
582.483	22276.27
582.681	22225.07
582.878	21930.16
583.076	21915.83
583.274	22374.57
583.471	21903.54
583.669	21694.64
583.866	21612.73
584.064	21614.77
584.262	21498.04
584.459	21842.1
584.657	21795
584.854	21711.03
585.052	21125.31
585.249	21375.16
585.447	21506.23
585.644	20936.9
585.841	21371.07
586.039	21448.89
586.236	20717.76
586.434	21076.16
586.631	20984
586.828	21141.69
587.026	20560.07
587.223	20959.42
587.42	20781.25
587.618	20877.51
587.815	20656.32
588.012	20619.46
588.21	20379.85
588.407	20553.93
588.604	20402.38
588.801	20244.68
588.999	20170.96
589.196	20261.07
589.393	20322.51
589.59	20035.79
589.787	20091.09
589.984	20027.6
590.182	19728.59
590.379	20041.93
590.576	19792.08
590.773	19794.13
590.97	19527.89
591.167	19730.64
591.364	19265.75
591.561	19751.12
591.758	19402.97
591.955	19345.62
592.152	19708.12
592.349	19177.69
592.546	19271.9
592.743	19337.43
592.94	18819.3
593.137	18936.03
593.334	18933.98
593.531	18954.46
593.727	18991.33
593.924	18958.56
594.121	18647.27
594.318	18665.7
594.515	18557.16
594.712	18577.64
594.908	18417.89
595.105	18360.55
595.302	18383.08
595.499	18495.72
595.696	18262.25
595.892	18381.03
596.089	18270.44
596.286	18221.29
596.482	18079.98
596.679	18061.55
596.876	18129.13
597.072	17744.11
597.269	18020.59
597.466	17793.26
597.662	17885.42
597.859	18036.97
598.055	17832.18
598.252	17481.97
598.448	17479.93
598.645	17840.37
598.841	17518.84
599.038	17584.37
599.234	17563.89
599.431	17301.75
599.627	16969.98
599.824	17205.5
600.02	17164.54
600.217	17152.25
600.413	17187.07
600.609	17185.02
600.806	17008.89
601.002	17152.25
601.198	16914.69
601.395	16834.82
601.591	16802.05
601.787	16732.42
601.984	16582.91
602.18	16906.49
602.376	16582.91
602.572	16400.65
602.769	16457.99
602.965	16308.49
603.161	16568.58
603.357	16419.08
603.553	16032.01
603.75	16240.9
603.946	16226.57
604.142	16253.19
604.338	15898.89
604.534	16201.99
604.73	15978.76
604.926	15847.69
605.122	15927.56
605.318	15849.74
605.514	15866.13
605.71	15753.49
605.906	15853.84
606.102	15552.79
606.298	15757.58
606.494	15442.2
606.69	15440.15
606.886	15368.47
607.082	15380.76
607.278	15446.29
607.474	15161.62
607.67	15391
607.866	14979.36
608.062	15395.09
608.257	15212.82
608.453	15186.2
608.649	15130.91
608.845	14989.6
609.041	15323.41
609.236	14827.81
609.432	15141.14
609.628	14858.53
609.824	15044.89
610.019	14850.33
610.215	14891.29
610.411	14899.48
610.606	14711.07
610.802	14692.64
610.998	14518.56
611.193	14866.72
611.389	14405.92
611.584	14524.71
611.78	14500.13
611.976	14438.69
612.171	14694.69
612.367	14324.01
612.562	14391.59
612.758	14043.43
612.953	14266.66
613.149	14752.03
613.344	14090.54
613.539	14313.77
613.735	14205.22
613.93	14317.86
614.126	14166.31
614.321	14356.77
614.517	14197.03
614.712	13988.14
614.907	14076.2
615.103	14287.14
615.298	13855.02
615.493	14360.87
615.688	13996.33
615.884	14272.81
616.079	13863.21
616.274	14076.2
616.47	13740.33
616.665	14246.18
616.86	13707.57
617.055	13844.78
617.25	13775.15
617.445	13734.19
617.641	13484.34
617.836	13646.13
618.031	13578.54
618.226	13887.79
618.421	13633.84
618.616	13521.2
618.811	13168.95
619.006	13435.19
619.201	13084.98
619.396	13160.76
619.591	13123.9
619.786	13236.53
619.981	12855.61
620.176	13050.17
620.371	13058.36
620.566	13150.52
620.761	12757.31
620.956	12769.6
621.151	12720.45
621.346	12912.95
621.541	12495.17
621.735	12704.06
621.93	12284.23
622.125	12437.83
622.32	12411.2
622.515	12241.22
622.709	12360
622.904	12054.86
623.099	12271.94
623.294	12333.38
623.488	11931.98
623.683	12155.21
623.878	11897.16
624.072	11884.87
624.267	11874.63
624.462	11592.02
624.656	11587.92
624.851	11716.94
625.046	11594.06
625.24	11594.06
625.435	11506
625.629	11290.96
625.824	11311.44
626.018	11254.1
626.213	10867.03
626.407	11135.32
626.602	11088.21
626.796	10946.9
626.991	10907.99
627.185	10924.38
627.38	10889.56
627.574	10715.48
627.768	10588.51
627.963	10715.48
628.157	10514.78
628.352	10613.09
628.546	10649.95
628.74	10697.05
628.935	10279.27
629.129	10350.95
629.323	10258.79
629.517	10047.85
629.712	9986.41
629.906	9814.38
630.1	10002.79
630.294	9935.21
630.489	9865.58
630.683	10058.09
630.877	9855.34
631.071	9701.74
631.265	9875.82
631.459	9851.24
631.653	9658.73
631.848	9466.22
632.042	9361.78
632.236	9394.54
632.43	9333.11
632.624	9482.61
632.818	9181.56
633.012	9292.15
633.206	9320.82
633.4	9161.08
633.594	9251.19
633.788	9210.23
633.982	9238.9
634.176	8954.23
634.369	9013.62
634.563	9075.06
634.757	8718.71
634.951	9021.81
635.145	8905.08
635.339	8839.55
635.533	8587.64
635.726	8737.15
635.92	8548.73
636.114	8573.31
636.308	8366.46
636.501	8425.86
636.695	8692.09
636.889	8399.23
637.083	8184.2
637.276	8309.12
637.47	8196.48
637.664	8163.72
637.857	8262.02
638.051	8163.72
638.244	7983.49
638.438	7993.73
638.632	8194.43
638.825	8028.55
639.019	7743.88
639.212	7780.75
639.406	7672.2
639.599	7702.92
639.793	7881.1
639.986	7573.9
640.18	7618.96
640.373	7688.59
640.567	7422.35
640.76	7584.14
640.954	7338.38
641.147	7485.84
641.34	7322
641.534	7315.86
641.727	7205.27
641.92	7184.79
642.114	7186.83
642.307	7168.4
642.5	7102.87
642.694	7051.67
642.887	6879.64
643.08	7143.83
643.273	6916.5
643.467	6902.17
643.66	6990.23
643.853	6820.25
644.046	6707.61
644.239	6570.4
644.432	6758.81
644.626	6506.91
644.819	6562.2
645.012	6646.17
645.205	6609.31
645.398	6541.72
645.591	6468
645.784	6605.21
645.977	6427.04
646.17	6365.6
646.363	6285.73
646.556	6232.48
646.749	6347.17
646.942	6265.25
647.135	6158.75
647.328	6068.64
647.521	6226.34
647.714	5974.44
647.907	6121.89
648.099	6085.03
648.292	6101.41
648.485	5900.71
648.678	5894.57
648.871	6003.11
649.064	5970.34
649.256	5968.29
649.449	5679.53
649.642	5886.37
649.835	5773.74
650.027	5659.05
650.22	5650.86
650.413	5613.99
650.605	5738.92
650.798	5554.6
650.991	5380.53
651.183	5583.27
651.376	5405.1
651.568	5390.77
651.761	5251.5
651.954	5392.81
652.146	5415.34
652.339	5411.25
652.531	5374.38
652.724	5372.33
652.916	5298.61
653.109	5237.17
653.301	5241.26
653.494	5175.73
653.686	5085.62
653.879	5290.42
654.071	5032.37
654.263	4929.97
654.456	5089.71
654.648	5046.71
654.84	4993.46
655.033	4868.53
655.225	4962.74
655.417	4823.48
655.61	4856.25
655.802	4936.12
655.994	4782.52
656.186	4932.02
656.379	4788.66
656.571	4788.66
656.763	4704.7
656.955	4692.41
657.148	4790.71
657.34	4688.31
657.532	4587.96
657.724	4616.63
657.916	4612.54
658.108	4735.42
658.3	4444.6
658.492	4403.64
658.684	4438.46
658.876	4358.59
659.068	4389.31
659.26	4223.42
659.452	4319.68
659.644	4211.14
659.836	4344.25
660.028	4313.53
660.22	4182.46
660.412	4270.53
660.604	4139.46
660.796	4153.79
660.988	4180.42
661.18	4061.63
661.372	3987.91
661.563	4043.2
661.755	4075.97
661.947	3879.36
662.139	4069.83
662.331	4002.24
662.522	4004.29
662.714	3951.04
662.906	4035.01
663.097	3846.6
663.289	3760.58
663.481	3858.89
663.673	3895.75
663.864	3789.25
664.056	3684.81
664.247	3695.05
664.439	3586.51
664.631	3711.43
664.822	3656.14
665.014	3738.05
665.205	3590.6
665.397	3615.18
665.588	3613.13
665.78	3606.98
665.971	3572.17
666.163	3639.75
666.354	3606.98
666.546	3455.44
666.737	3330.51
666.929	3484.11
667.12	3447.24
667.311	3400.14
667.503	3346.89
667.694	3410.38
667.885	3484.11
668.077	3346.89
668.268	3234.25
668.459	3273.17
668.651	3398.09
668.842	3338.7
669.033	3207.63
669.224	3273.17
669.416	3254.73
669.607	3277.26
669.798	3291.6
669.989	3199.44
670.18	3232.21
670.371	3170.77
670.563	3084.75
670.754	3019.22
670.945	3117.52
671.136	3082.7
671.327	3135.95
671.518	3076.56
671.709	3076.56
671.9	3002.83
672.091	3090.9
672.282	3025.36
672.473	3066.32
672.664	3037.65
672.855	2931.16
673.046	2947.54
673.237	2834.9
673.428	3033.55
673.619	2908.63
673.809	3013.07
674	2863.57
674.191	2998.74
674.382	2912.72
674.573	2812.37
674.764	2828.76
674.954	2910.68
675.145	2798.04
675.336	2791.89
675.527	2834.9
675.717	2845.14
675.908	2709.97
676.099	2892.24
676.289	2918.87
676.48	2826.71
676.671	2789.85
676.861	2636.25
677.052	2773.46
677.243	2738.65
677.433	2687.45
677.624	2767.32
677.814	2722.26
678.005	2695.64
678.195	2646.49
678.386	2783.7
678.576	2623.96
678.767	2675.16
678.957	2664.92
679.148	2617.82
679.338	2648.54
679.529	2623.96
679.719	2611.67
679.909	2705.88
680.1	2568.66
680.29	2638.3
680.481	2566.62
680.671	2568.66
680.861	2636.25
681.052	2509.27
681.242	2623.96
681.432	2677.21
681.622	2548.19
681.813	2544.09
682.003	2488.79
682.193	2509.27
682.383	2527.71
682.573	2591.19
682.764	2566.62
682.954	2519.51
683.144	2505.18
683.334	2603.48
683.524	2542.04
683.714	2478.55
683.904	2486.75
684.094	2544.09
684.284	2486.75
684.474	2488.79
684.664	2533.85
684.854	2525.66
685.044	2626.01
685.234	2513.37
685.424	2537.95
685.614	2470.36
685.804	2443.74
685.994	2499.03
686.184	2447.83
686.374	2349.53
686.564	2343.39
686.753	2546.14
686.943	2480.6
687.133	2474.46
687.323	2343.39
687.513	2314.72
687.702	2421.21
687.892	2456.03
688.082	2415.07
688.272	2406.88
688.461	2347.48
688.651	2351.58
688.841	2451.93
689.03	2365.92
689.22	2318.81
689.41	2316.76
689.599	2314.72
689.789	2333.15
689.979	2214.37
690.168	2308.57
690.358	2189.79
690.547	2234.85
690.737	2331.1
690.926	2392.54
691.116	2372.06
691.305	2357.72
691.495	2292.19
691.684	2114.02
691.874	2312.67
692.063	2255.33
692.252	2263.52
692.442	2275.81
692.631	2247.13
692.82	2257.37
693.01	2193.89
693.199	2277.85
693.388	2286.05
693.578	2148.83
693.767	2240.99
693.956	2224.61
694.146	2159.07
694.335	2183.65
694.524	2122.21
694.713	2300.38
694.902	2091.49
695.092	2236.89
695.281	2240.99
695.47	2095.58
695.659	2083.3
695.848	2218.46
696.037	2109.92
696.226	2169.31
696.415	2095.58
696.604	2161.12
696.793	2171.36
696.982	2167.26
697.171	2050.53
697.36	2097.63
697.549	2165.21
697.738	2157.02
697.927	2068.96
698.116	2046.43
698.305	2079.2
698.494	2040.29
698.683	2214.37
698.872	2079.2
699.061	2060.77
699.25	2021.86
699.438	2138.59
699.627	2017.76
699.816	2177.5
700.005	2021.86
700.193	2046.43
700.382	2075.1
700.571	1946.08
700.76	2148.83
700.948	2046.43
701.137	1931.75
701.326	1966.56
701.514	1987.04
701.703	2001.38
701.892	2050.53
702.08	2009.57
702.269	1941.99
702.457	1976.8
702.646	2058.72
702.834	1974.75
703.023	1888.74
703.212	1946.08
703.4	2003.43
703.589	1896.93
703.777	1987.04
703.965	1991.14
704.154	1855.97
704.342	1812.96
704.531	1839.59
704.719	1976.8
704.907	1948.13
705.096	1888.74
705.284	1886.69
705.472	1954.27
705.661	1829.35
705.849	1915.36
706.037	1933.79
706.226	1886.69
706.414	1952.23
706.602	1864.16
706.79	1827.3
706.979	1853.92
707.167	1851.88
707.355	1724.9
707.543	1829.35
707.731	1886.69
707.919	1874.4
708.107	1884.64
708.296	1950.18
708.484	1880.55
708.672	1837.54
708.86	1722.85
709.048	1874.4
709.236	1894.88
709.424	1757.67
709.612	1825.25
709.8	1823.2
709.988	1731.05
710.176	1870.31
710.364	1774.05
710.551	1882.6
710.739	1790.44
710.927	1704.42
711.115	1812.96
711.303	1737.19
711.491	1757.67
711.679	1698.28
711.866	1790.44
712.054	1710.57
712.242	1618.41
712.43	1808.87
712.617	1722.85
712.805	1804.77
712.993	1708.52
713.181	1696.23
713.368	1733.09
713.556	1632.74
713.744	1714.66
713.931	1757.67
714.119	1677.8
714.306	1694.18
714.494	1690.09
714.682	1636.84
714.869	1733.09
715.057	1722.85
715.244	1636.84
715.432	1675.75
715.619	1630.7
715.807	1685.99
715.994	1661.41
716.182	1616.36
716.369	1622.5
716.556	1677.8
716.744	1575.4
716.931	1747.43
717.119	1552.87
717.306	1624.55
717.493	1671.65
717.681	1610.22
717.868	1624.55
718.055	1509.86
718.242	1524.2
718.43	1636.84
718.617	1618.41
718.804	1620.46
718.991	1542.63
719.179	1626.6
719.366	1565.16
719.553	1649.13
719.74	1548.78
719.927	1554.92
720.114	1661.41
720.301	1556.97
720.488	1526.25
720.676	1573.35
720.863	1583.59
721.05	1571.3
721.237	1485.29
721.424	1489.39
721.611	1614.31
721.798	1489.39
721.985	1448.43
722.172	1516.01
722.358	1567.21
722.545	1540.58
722.732	1509.86
722.919	1485.29
723.106	1565.16
723.293	1417.71
723.48	1585.64
723.667	1526.25
723.853	1481.19
724.04	1497.58
724.227	1591.78
724.414	1497.58
724.6	1503.72
724.787	1411.56
724.974	1489.39
725.161	1479.15
725.347	1567.21
725.534	1419.75
725.72	1442.28
725.907	1446.38
726.094	1464.81
726.28	1403.37
726.467	1489.39
726.653	1329.64
726.84	1516.01
727.027	1450.47
727.213	1556.97
727.4	1397.23
727.586	1378.79
727.773	1419.75
727.959	1384.94
728.145	1481.19
728.332	1413.61
728.518	1497.58
728.705	1421.8
728.891	1528.3
729.077	1311.21
729.264	1427.95
729.45	1397.23
729.636	1391.08
729.823	1393.13
730.009	1444.33
730.195	1446.38
730.382	1360.36
730.568	1372.65
730.754	1456.62
730.94	1296.88
731.126	1421.8
731.313	1411.56
731.499	1403.37
731.685	1477.1
731.871	1395.18
732.057	1380.84
732.243	1415.66
732.429	1434.09
732.615	1380.84
732.801	1409.51
732.987	1364.46
733.173	1489.39
733.359	1423.85
733.545	1370.6
733.731	1343.98
733.917	1411.56
734.103	1348.08
734.289	1362.41
734.475	1315.31
734.661	1468.91
734.847	1411.56
735.033	1348.08
735.219	1354.22
735.404	1307.12
735.59	1288.68
735.776	1356.27
735.962	1348.08
736.148	1339.88
736.333	1288.68
736.519	1290.73
736.705	1311.21
736.89	1313.26
737.076	1341.93
737.262	1311.21
737.447	1360.36
737.633	1233.39
737.819	1362.41
738.004	1386.99
738.19	1210.86
738.375	1305.07
738.561	1255.92
738.747	1264.11
738.932	1303.02
739.118	1255.92
739.303	1292.78
739.489	1335.79
739.674	1346.03
739.859	1315.31
740.045	1262.06
740.23	1341.93
740.416	1329.64
740.601	1337.84
740.786	1243.63
740.972	1186.29
741.157	1190.38
741.342	1305.07
741.528	1182.19
741.713	1290.73
741.898	1116.65
742.084	1161.71
742.269	1257.96
742.454	1262.06
742.639	1317.36
742.824	1210.86
743.01	1176.05
743.195	1262.06
743.38	1137.13
743.565	1260.01
743.75	1249.77
743.935	1165.81
744.12	1141.23
744.305	1311.21
744.49	1294.83
744.675	1208.81
744.86	1249.77
745.045	1196.53
745.23	1268.2
745.415	1223.15
745.6	1079.79
745.785	1233.39
745.97	1118.7
746.155	1192.43
746.34	1124.85
746.525	1057.26
746.71	1196.53
746.895	1149.42
747.079	1055.22
747.264	1112.56
747.449	1145.33
747.634	1122.8
747.819	1057.26
748.003	1100.27
748.188	997.87
748.373	1024.5
748.557	979.44
748.742	1001.97
748.927	1059.31
749.111	1051.12
749.296	1038.83
749.481	1053.17
749.665	952.82
749.85	1042.93
750.034	1073.65
750.219	1020.4
750.404	1053.17
750.588	1038.83
750.773	993.78
750.957	1024.5
751.141	893.43
751.326	969.2
751.51	1051.12
751.695	866.8
751.879	952.82
752.064	1042.93
752.248	901.62
752.432	918
752.617	903.67
752.801	973.3
752.985	938.48
753.17	930.29
753.354	846.32
753.538	772.6
753.722	926.19
753.907	885.23
754.091	909.81
754.275	967.15
754.459	840.18
754.643	934.39
754.828	872.95
755.012	780.79
755.196	815.6
755.38	860.66
755.564	768.5
755.748	821.75
755.932	854.51
756.116	838.13
756.3	797.17
756.484	764.4
756.668	803.32
756.852	733.68
757.036	754.16
757.22	756.21
757.404	854.51
757.588	750.07
757.772	676.34
757.956	758.26
758.14	735.73
758.323	766.45
758.507	688.63
758.691	725.49
758.875	649.72
759.059	756.21
759.242	694.77
759.426	645.62
759.61	643.57
759.794	713.21
759.977	647.67
760.161	678.39
760.345	717.3
760.528	780.79
760.712	731.64
760.895	664.05
761.079	692.73
761.263	670.2
761.446	571.9
761.63	586.23
761.813	686.58
761.997	653.81
762.18	657.91
762.364	625.14
762.547	674.29
762.731	575.99
762.914	707.06
763.098	633.33
763.281	633.33
763.464	666.1
763.648	614.9
763.831	553.46
764.015	494.07
764.198	573.94
764.381	608.76
764.564	551.42
764.748	625.14
764.931	700.92
765.114	512.5
765.297	598.52
765.481	612.85
765.664	610.81
765.847	612.85
766.03	645.62
766.213	612.85
766.397	545.27
766.58	524.79
766.763	524.79
766.946	543.22
767.129	553.46
767.312	547.32
767.495	653.81
767.678	555.51
767.861	672.25
768.044	526.84
768.227	547.32
768.41	563.7
768.593	475.64
768.776	584.18
768.959	553.46
769.142	588.28
769.324	455.16
769.507	524.79
769.69	557.56
769.873	551.42
770.056	520.7
770.239	479.74
770.421	469.5
770.604	524.79
770.787	475.64
770.97	508.41
771.152	569.85
771.335	569.85
771.518	510.46
771.7	399.87
771.883	549.37
772.066	504.31
772.248	449.02
772.431	500.22
772.613	442.87
772.796	389.63
772.978	504.31
773.161	485.88
773.343	455.16
773.526	473.59
773.708	508.41
773.891	492.02
774.073	485.88
774.256	485.88
774.438	434.68
774.621	367.1
774.803	408.06
774.985	461.3
775.168	479.74
775.35	504.31
775.532	397.82
775.715	418.3
775.897	477.69
776.079	463.35
776.261	442.87
776.444	440.83
776.626	430.59
776.808	403.96
776.99	504.31
777.173	420.35
777.355	328.19
777.537	432.63
777.719	442.87
777.901	420.35
778.083	477.69
778.265	365.05
778.447	408.06
778.629	422.39
778.811	379.39
778.993	305.66
779.175	377.34
779.357	328.19
779.539	348.67
779.721	406.01
779.903	350.71
780.085	348.67
780.267	303.61
780.449	426.49
780.631	363
780.812	352.76
780.994	326.14
781.176	375.29
781.358	315.9
781.54	303.61
781.721	371.19
781.903	371.19
782.085	299.52
782.267	391.67
782.448	283.13
782.63	311.8
782.812	338.43
782.993	311.8
783.175	406.01
783.357	336.38
783.538	307.71
783.72	330.23
783.901	315.9
784.083	291.32
784.264	297.47
784.446	238.08
784.627	307.71
784.809	281.08
784.99	272.89
785.172	281.08
785.353	250.36
785.535	246.27
785.716	276.99
785.897	258.56
786.079	313.85
786.26	197.12
786.441	260.6
786.623	268.8
786.804	262.65
786.985	256.51
787.167	285.18
787.348	186.88
787.529	281.08
787.71	248.32
787.891	268.8
788.073	197.12
788.254	182.78
788.435	346.62
788.616	233.98
788.797	236.03
788.978	219.64
789.159	283.13
789.34	317.95
789.522	213.5
789.703	250.36
789.884	227.84
790.065	293.37
790.246	268.8
790.427	272.89
790.607	186.88
790.788	225.79
790.969	137.73
791.15	221.69
791.331	188.93
791.512	168.45
791.693	135.68
791.874	160.25
792.054	184.83
792.235	223.74
792.416	184.83
792.597	166.4
792.778	188.93
792.958	186.88
793.139	152.06
793.32	207.36
793.5	172.54
793.681	215.55
793.862	131.58
794.042	188.93
794.223	195.07
794.404	197.12
794.584	145.92
794.765	184.83
794.945	199.16
795.126	182.78
795.306	174.59
795.487	283.13
795.667	236.03
795.848	203.26
796.028	96.77
796.209	102.91
796.389	178.69
796.57	190.97
796.75	207.36
796.93	225.79
797.111	176.64
797.291	178.69
797.471	76.29
797.652	190.97
797.832	47.62
798.012	231.93
798.192	150.01
798.373	135.68
798.553	186.88
798.733	160.25
798.913	139.77
799.093	90.62
799.274	158.21
799.454	145.92
799.634	102.91
799.814	80.38
799.994	160.25
800.174	129.53
800.354	190.97
800.534	123.39
800.714	92.67
800.894	168.45
801.074	123.39
801.254	158.21
801.434	147.97
801.614	150.01
801.794	86.53
801.974	352.76
802.154	152.06
802.334	190.97
802.514	172.54
802.693	164.35
802.873	131.58
803.053	96.77
803.233	141.82
803.413	154.11
803.592	104.96
803.772	152.06
803.952	145.92
804.131	78.33
804.311	184.83
804.491	166.4
804.67	102.91
804.85	98.81
805.03	92.67
805.209	156.16
805.389	125.44
805.568	64
805.748	104.96
805.928	143.87
806.107	92.67
806.287	59.9
806.466	117.25
806.646	154.11
806.825	104.96
807.004	168.45
807.184	96.77
807.363	133.63
807.543	123.39
807.722	96.77
807.901	133.63
808.081	41.47
808.26	152.06
808.439	107.01
808.619	104.96
808.798	96.77
808.977	70.14
809.156	68.09
809.336	57.86
809.515	147.97
809.694	92.67
809.873	94.72
810.052	27.14
810.231	168.45
810.411	107.01
810.59	88.57
810.769	92.67
810.948	96.77
811.127	80.38
811.306	86.53
811.485	84.48
811.664	182.78
811.843	82.43
812.022	125.44
812.201	82.43
812.38	45.57
812.559	84.48
812.737	66.05
812.916	6.66
813.095	86.53
813.274	27.14
813.453	84.48
813.632	8.7
813.811	100.86
813.989	37.38
814.168	96.77
814.347	35.33
814.526	111.1
814.704	74.24
814.883	43.52
815.062	35.33
815.24	84.48
815.419	84.48
815.598	111.1
815.776	53.76
815.955	-5.63
816.133	-15.87
816.312	47.62
816.49	86.53
816.669	59.9
816.847	80.38
817.026	94.72
817.204	-1.54
817.383	80.38
817.561	41.47
817.74	104.96
817.918	20.99
818.097	92.67
818.275	-44.54
818.453	64
818.632	-15.87
818.81	70.14
818.988	147.97
819.167	33.28
819.345	41.47
819.523	59.9
819.701	25.09
819.879	35.33
820.058	66.05
820.236	57.86
820.414	66.05
820.592	123.39
820.77	55.81
820.948	66.05
821.127	53.76
821.305	41.47
821.483	10.75
821.661	16.9
821.839	82.43
822.017	125.44
822.195	61.95
822.373	59.9
822.551	45.57
822.729	133.63
822.907	94.72
823.085	76.29
823.262	18.94
823.44	64
823.618	10.75
823.796	31.23
823.974	4.61
824.152	64
824.329	31.23
824.507	109.05
824.685	33.28
824.863	43.52
825.04	29.18
825.218	43.52
825.396	92.67
825.574	14.85
825.751	31.23
825.929	-13.82
826.107	84.48
826.284	66.05
826.462	4.61
826.639	12.8
826.817	90.62
826.994	37.38
827.172	0.51
827.349	76.29
827.527	20.99
827.704	59.9
827.882	70.14
828.059	84.48
828.237	68.09
828.414	61.95
828.591	29.18
828.769	64
828.946	35.33
829.124	72.19
829.301	68.09
829.478	27.14
829.655	16.9
829.833	39.42
830.01	76.29
830.187	129.53
830.364	16.9
830.542	45.57
830.719	39.42
830.896	20.99
831.073	64
831.25	47.62
831.427	27.14
831.604	59.9
831.782	10.75
831.959	47.62
832.136	31.23
832.313	-52.74
832.49	82.43
832.667	37.38
832.844	-11.78
833.021	31.23
833.198	100.86
833.374	80.38
833.551	37.38
833.728	-1.54
833.905	29.18
834.082	74.24
834.259	-50.69
834.436	33.28
834.612	-48.64
834.789	70.14
834.966	-69.12
835.143	23.04
835.319	84.48
835.496	39.42
835.673	-17.92
835.85	31.23
836.026	68.09
836.203	-3.58
836.38	14.85
836.556	43.52
836.733	2.56
836.909	102.91
837.086	-5.63
837.262	37.38
837.439	14.85
837.616	70.14
837.792	29.18
837.968	49.66
838.145	111.1
838.321	18.94
838.498	2.56
838.674	18.94
838.851	-13.82
839.027	20.99
839.203	47.62
839.38	-13.82
839.556	33.28
839.732	35.33
839.909	8.7
840.085	-15.87
840.261	35.33
840.437	25.09
840.614	-13.82
840.79	45.57
840.966	41.47
841.142	8.7
841.318	55.81
841.494	61.95
841.671	-11.78
841.847	2.56
842.023	96.77
842.199	10.75
842.375	-5.63
842.551	-67.07
842.727	6.66
842.903	45.57
843.079	0.51
843.255	45.57
843.431	6.66
843.607	10.75
843.783	-48.64
843.959	45.57
844.134	35.33
844.31	86.53
844.486	-5.63
844.662	-13.82
844.838	4.61
845.013	4.61
845.189	-40.45
845.365	-9.73
845.541	-1.54
845.716	57.86
845.892	20.99
846.068	23.04
846.244	27.14
846.419	4.61
846.595	31.23
846.77	43.52
846.946	0.51
847.122	-11.78
847.297	16.9
847.473	37.38
847.648	-34.3
847.824	14.85
847.999	25.09
848.175	51.71
848.35	-22.02
848.526	-54.78
848.701	51.71
848.876	82.43
849.052	20.99
849.227	12.8
849.403	2.56
849.578	-24.06
849.753	33.28
849.929	39.42
850.104	31.23
850.279	98.81
850.454	-22.02
850.63	-24.06
850.805	0.51
850.98	37.38
851.155	18.94
851.33	76.29
851.505	6.66
851.681	-15.87
851.856	-5.63
852.031	-5.63
852.206	-24.06
852.381	-79.36
852.556	-36.35
852.731	20.99
852.906	-60.93
853.081	29.18
853.256	-22.02
853.431	39.42
853.606	-3.58
853.781	-22.02
853.956	14.85
854.131	59.9
854.305	-58.88
854.48	20.99
854.655	0.51
854.83	29.18
855.005	51.71
855.18	47.62
855.354	29.18
855.529	-3.58
855.704	-3.58
855.879	53.76
856.053	31.23
856.228	33.28
856.403	37.38
856.577	-52.74
856.752	25.09
856.926	-7.68
857.101	33.28
857.276	-9.73
857.45	4.61
857.625	72.19
857.799	0.51
857.974	-87.55
858.148	-11.78
858.323	-19.97
858.497	2.56
858.672	43.52
858.846	-5.63
859.02	20.99
859.195	-11.78
859.369	84.48
859.543	-24.06
859.718	-28.16
859.892	-62.98
860.066	18.94
860.241	27.14
860.415	-95.74
860.589	-144.89
860.763	10.75
860.938	25.09
861.112	145.92
861.286	-7.68
861.46	-19.97
861.634	-7.68
861.808	-36.35
861.982	-36.35
862.157	-58.88
862.331	37.38
862.505	-3.58
862.679	-60.93
862.853	-44.54
863.027	-3.58
863.201	47.62
863.375	18.94
863.549	70.14
863.722	-5.63
863.896	0.51
864.07	-5.63
864.244	35.33
864.418	8.7
864.592	-24.06
864.766	14.85
864.939	-62.98
865.113	-22.02
865.287	68.09
865.461	-22.02
865.634	31.23
865.808	39.42
865.982	-71.17
866.156	-65.02
866.329	51.71
866.503	-38.4
866.676	4.61
866.85	23.04
867.024	-85.5
867.197	18.94
867.371	-50.69
867.544	-1.54
867.718	10.75
867.891	-15.87
868.065	-46.59
868.238	2.56
868.412	-15.87
868.585	-5.63
868.759	35.33
868.932	-38.4
869.105	37.38
869.279	27.14
869.452	-15.87
869.625	2.56
869.799	41.47
869.972	18.94
870.145	-40.45
870.319	-50.69
870.492	-15.87
870.665	39.42
870.838	-22.02
871.011	-32.26
871.185	-17.92
871.358	8.7
871.531	-24.06
871.704	20.99
871.877	10.75
872.05	39.42
872.223	-9.73
872.396	12.8
872.569	-60.93
872.742	-54.78
872.915	111.1
873.088	-71.17
873.261	41.47
873.434	-17.92
873.607	8.7
873.78	-38.4
873.953	-36.35
874.126	-52.74
874.299	-5.63
874.471	-67.07
874.644	-95.74
874.817	4.61
874.99	8.7
875.163	-36.35
875.335	12.8
875.508	-75.26
875.681	-42.5
875.853	0.51
876.026	-48.64
876.199	47.62
876.371	-15.87
876.544	14.85
876.717	-1.54
876.889	25.09
877.062	-17.92
877.234	-124.41
877.407	35.33
877.579	2.56
877.752	-13.82
877.924	-17.92
878.097	-28.16
878.269	20.99
878.442	31.23
878.614	-22.02
878.786	-38.4
878.959	4.61
879.131	18.94
879.303	27.14
879.476	4.61
879.648	-5.63
879.82	47.62
879.993	-58.88
880.165	20.99
880.337	-38.4
880.509	2.56
880.681	-40.45
880.854	-30.21
881.026	39.42
881.198	-5.63
881.37	8.7
881.542	-11.78
881.714	4.61
881.886	74.24
882.058	4.61
882.23	68.09
882.402	-46.59
882.574	23.04
882.746	66.05
882.918	-32.26
883.09	45.57
883.262	-5.63
883.434	35.33
883.606	-5.63
883.778	-32.26
883.95	-3.58
884.122	-22.02
884.293	-28.16
884.465	-40.45
884.637	-69.12
884.809	-34.3
884.98	-13.82
885.152	8.7
885.324	14.85
885.496	-28.16
885.667	-42.5
885.839	2.56
886.011	31.23
886.182	-1.54
886.354	-28.16
886.525	86.53
886.697	64
886.869	20.99
887.04	-60.93
887.212	14.85
887.383	-1.54
887.555	-32.26
887.726	-34.3
887.897	-19.97
888.069	-42.5
888.24	-56.83
888.412	41.47
888.583	-34.3
888.754	12.8
888.926	-54.78
889.097	-5.63
889.268	-44.54
889.44	29.18
889.611	-71.17
889.782	51.71
889.953	61.95
890.125	41.47
890.296	20.99
890.467	-28.16
890.638	2.56
890.809	59.9
890.98	-42.5
891.151	47.62
891.323	29.18
891.494	-36.35
891.665	-9.73
891.836	10.75
892.007	12.8
892.178	35.33
892.349	-15.87
892.52	2.56
892.691	-38.4
892.862	-52.74
893.032	-22.02
893.203	-32.26
893.374	27.14
893.545	6.66
893.716	0.51
893.887	-15.87
894.057	0.51
894.228	-77.31
894.399	-52.74
894.57	57.86
894.74	-36.35
894.911	6.66
895.082	55.81
895.253	-46.59
895.423	-22.02
895.594	-24.06
895.764	-15.87
895.935	25.09
896.106	43.52
896.276	-79.36
896.447	-22.02
896.617	27.14
896.788	-38.4
896.958	-44.54
897.129	-48.64
897.299	-71.17
897.47	12.8
897.64	41.47
897.81	-32.26
897.981	27.14
898.151	10.75
898.322	76.29
898.492	35.33
898.662	33.28
898.832	-54.78
899.003	6.66
899.173	-40.45
899.343	-65.02
899.513	-30.21
