Data from USB4F104151__31__12-58-52-747.txt Node

Date: Fri Mar 14 12:58:52 EDT 2025
User: louis
Spectrometer: USB4F10415
Trigger mode: 4
Integration Time (sec): 1.000000E-2
Scans to average: 1
Electric dark correction enabled: true
Nonlinearity correction enabled: false
Boxcar width: 0
XAxis mode: Wavelengths
Number of Pixels in Spectrum: 3648
>>>>>Begin Spectral Data<<<<<
178.204	-47.44
178.424	-47.44
178.644	-47.44
178.864	-49.49
179.084	-47.44
179.304	30.38
179.524	-39.25
179.744	11.95
179.964	24.23
180.184	46.76
180.404	7.85
180.624	-12.63
180.844	-18.77
181.064	-0.34
181.283	-45.4
181.503	-10.58
181.723	5.8
181.943	-41.3
182.163	7.85
182.383	-31.06
182.602	-6.49
182.822	-22.87
183.042	-18.77
183.262	-90.45
183.482	-115.03
183.701	77.48
183.921	11.95
184.141	-16.73
184.361	-6.49
184.58	18.09
184.8	9.9
185.02	63.15
185.239	-12.63
185.459	-92.5
185.679	-20.82
185.898	-37.2
186.118	32.43
186.338	-4.44
186.557	-10.58
186.777	-84.31
186.997	22.19
187.216	-14.68
187.436	1.71
187.655	-8.53
187.875	-12.63
188.095	-51.54
188.314	7.85
188.534	-0.34
188.753	-35.16
188.973	-14.68
189.192	13.99
189.412	-49.49
189.631	-43.35
189.851	13.99
190.07	-10.58
190.29	-37.2
190.509	-47.44
190.729	-55.64
190.948	24.23
191.168	-39.25
191.387	-20.82
191.607	9.9
191.826	-8.53
192.045	38.57
192.265	-51.54
192.484	38.57
192.704	-41.3
192.923	-35.16
193.142	5.8
193.362	-22.87
193.581	9.9
193.8	50.86
194.02	13.99
194.239	-14.68
194.458	1.71
194.678	-67.92
194.897	-0.34
195.116	-37.2
195.335	38.57
195.555	-24.92
195.774	3.75
195.993	-0.34
196.212	-0.34
196.432	-6.49
196.651	-63.83
196.87	1.71
197.089	-10.58
197.308	-41.3
197.528	-35.16
197.747	-137.56
197.966	34.47
198.185	24.23
198.404	-14.68
198.623	61.1
198.842	22.19
199.062	7.85
199.281	-43.35
199.5	-67.92
199.719	40.62
199.938	-45.4
200.157	-18.77
200.376	-8.53
200.595	-59.73
200.814	-0.34
201.033	32.43
201.252	-53.59
201.471	-0.34
201.69	57
201.909	30.38
202.128	-22.87
202.347	-18.77
202.566	-4.44
202.785	59.05
203.004	3.75
203.223	22.19
203.442	16.04
203.661	44.71
203.879	36.52
204.098	-47.44
204.317	40.62
204.536	-2.39
204.755	-14.68
204.974	30.38
205.193	-20.82
205.411	-24.92
205.63	-67.92
205.849	28.33
206.068	-33.11
206.287	-41.3
206.505	40.62
206.724	-31.06
206.943	-8.53
207.162	3.75
207.381	91.82
207.599	-26.96
207.818	-2.39
208.037	-2.39
208.255	-16.73
208.474	20.14
208.693	28.33
208.911	-47.44
209.13	-2.39
209.349	-45.4
209.567	91.82
209.786	-2.39
210.005	3.75
210.223	16.04
210.442	-14.68
210.661	59.05
210.879	9.9
211.098	57
211.316	5.8
211.535	-35.16
211.753	-35.16
211.972	65.19
212.191	-43.35
212.409	-12.63
212.628	-90.45
212.846	-10.58
213.065	-31.06
213.283	16.04
213.502	-74.07
213.72	67.24
213.938	38.57
214.157	28.33
214.375	-59.73
214.594	16.04
214.812	73.39
215.031	36.52
215.249	-24.92
215.467	-18.77
215.686	-55.64
215.904	1.71
216.122	1.71
216.341	46.76
216.559	5.8
216.778	20.14
216.996	-61.78
217.214	-12.63
217.432	-31.06
217.651	-80.21
217.869	87.72
218.087	-39.25
218.306	-61.78
218.524	28.33
218.742	-33.11
218.96	-18.77
219.179	54.95
219.397	-8.53
219.615	24.23
219.833	9.9
220.051	-41.3
220.27	22.19
220.488	-33.11
220.706	-33.11
220.924	-26.96
221.142	46.76
221.36	1.71
221.578	-33.11
221.796	-16.73
222.015	34.47
222.233	34.47
222.451	40.62
222.669	63.15
222.887	-2.39
223.105	11.95
223.323	22.19
223.541	-6.49
223.759	-14.68
223.977	57
224.195	24.23
224.413	-45.4
224.631	-12.63
224.849	30.38
225.067	-16.73
225.285	7.85
225.503	13.99
225.721	-67.92
225.939	-0.34
226.157	59.05
226.375	40.62
226.592	26.28
226.81	18.09
227.028	-37.2
227.246	18.09
227.464	-18.77
227.682	-33.11
227.9	28.33
228.117	30.38
228.335	-6.49
228.553	7.85
228.771	-33.11
228.989	-14.68
229.206	-45.4
229.424	18.09
229.642	-22.87
229.86	-55.64
230.077	9.9
230.295	-12.63
230.513	-33.11
230.731	-41.3
230.948	-10.58
231.166	32.43
231.384	-115.03
231.601	-49.49
231.819	-22.87
232.037	54.95
232.254	-39.25
232.472	30.38
232.689	-29.01
232.907	9.9
233.125	11.95
233.342	-14.68
233.56	-14.68
233.777	-12.63
233.995	-49.49
234.213	-16.73
234.43	22.19
234.648	-18.77
234.865	46.76
235.083	36.52
235.3	-43.35
235.518	16.04
235.735	79.53
235.953	50.86
236.17	-37.2
236.388	34.47
236.605	7.85
236.822	7.85
237.04	-43.35
237.257	-22.87
237.475	-33.11
237.692	63.15
237.909	61.1
238.127	63.15
238.344	54.95
238.562	-10.58
238.779	-108.88
238.996	16.04
239.214	7.85
239.431	42.67
239.648	-43.35
239.865	57
240.083	-8.53
240.3	11.95
240.517	67.24
240.735	38.57
240.952	-20.82
241.169	9.9
241.386	-26.96
241.603	-0.34
241.821	-8.53
242.038	26.28
242.255	-18.77
242.472	26.28
242.689	3.75
242.907	40.62
243.124	-39.25
243.341	-39.25
243.558	-29.01
243.775	-31.06
243.992	-84.31
244.209	1.71
244.426	-16.73
244.643	3.75
244.86	-61.78
245.078	63.15
245.295	-47.44
245.512	13.99
245.729	-12.63
245.946	7.85
246.163	30.38
246.38	-0.34
246.597	-43.35
246.814	-2.39
247.031	-0.34
247.248	34.47
247.464	18.09
247.681	54.95
247.898	-22.87
248.115	46.76
248.332	-20.82
248.549	50.86
248.766	63.15
248.983	26.28
249.2	11.95
249.417	13.99
249.633	-37.2
249.85	3.75
250.067	-47.44
250.284	16.04
250.501	-10.58
250.717	34.47
250.934	-14.68
251.151	-65.88
251.368	-2.39
251.585	3.75
251.801	-18.77
252.018	32.43
252.235	-26.96
252.451	-18.77
252.668	75.43
252.885	18.09
253.102	26.28
253.318	-39.25
253.535	-45.4
253.752	-16.73
253.968	-12.63
254.185	-33.11
254.401	-49.49
254.618	20.14
254.835	52.91
255.051	-18.77
255.268	40.62
255.484	-6.49
255.701	-29.01
255.917	57
256.134	3.75
256.351	16.04
256.567	-22.87
256.784	-8.53
257	-33.11
257.217	22.19
257.433	-8.53
257.65	-12.63
257.866	5.8
258.082	1.71
258.299	-10.58
258.515	67.24
258.732	-72.02
258.948	13.99
259.165	-24.92
259.381	9.9
259.597	57
259.814	-26.96
260.03	7.85
260.246	-14.68
260.463	7.85
260.679	44.71
260.895	59.05
261.112	-26.96
261.328	3.75
261.544	20.14
261.761	-59.73
261.977	-24.92
262.193	-31.06
262.409	-26.96
262.626	71.34
262.842	-24.92
263.058	46.76
263.274	-29.01
263.49	-10.58
263.707	26.28
263.923	-10.58
264.139	-10.58
264.355	3.75
264.571	-4.44
264.787	-4.44
265.004	-67.92
265.22	11.95
265.436	-0.34
265.652	-41.3
265.868	-10.58
266.084	11.95
266.3	-18.77
266.516	26.28
266.732	-8.53
266.948	-26.96
267.164	-82.26
267.38	-59.73
267.596	83.63
267.812	-16.73
268.028	34.47
268.244	-49.49
268.46	-2.39
268.676	11.95
268.892	-4.44
269.108	42.67
269.324	-31.06
269.54	16.04
269.756	-35.16
269.972	59.05
270.188	-41.3
270.403	-4.44
270.619	-57.68
270.835	20.14
271.051	-31.06
271.267	1.71
271.483	-33.11
271.698	-39.25
271.914	40.62
272.13	77.48
272.346	16.04
272.562	-76.12
272.777	50.86
272.993	11.95
273.209	-2.39
273.425	-4.44
273.64	-41.3
273.856	-4.44
274.072	40.62
274.287	-65.88
274.503	22.19
274.719	-6.49
274.934	-35.16
275.15	-22.87
275.366	42.67
275.581	-26.96
275.797	-35.16
276.012	-47.44
276.228	1.71
276.444	-31.06
276.659	42.67
276.875	-22.87
277.09	50.86
277.306	-0.34
277.521	-31.06
277.737	-96.6
277.952	-33.11
278.168	-53.59
278.383	-10.58
278.599	42.67
278.814	46.76
279.03	20.14
279.245	24.23
279.461	7.85
279.676	-31.06
279.892	24.23
280.107	40.62
280.322	-4.44
280.538	81.58
280.753	1.71
280.969	65.19
281.184	-2.39
281.399	34.47
281.615	-18.77
281.83	5.8
282.045	-4.44
282.26	3.75
282.476	-0.34
282.691	79.53
282.906	-26.96
283.122	11.95
283.337	-45.4
283.552	-4.44
283.767	-6.49
283.983	-57.68
284.198	-18.77
284.413	22.19
284.628	-82.26
284.843	-0.34
285.058	13.99
285.274	32.43
285.489	-35.16
285.704	22.19
285.919	18.09
286.134	-10.58
286.349	9.9
286.564	30.38
286.779	-14.68
286.995	-14.68
287.21	22.19
287.425	34.47
287.64	38.57
287.855	5.8
288.07	-57.68
288.285	7.85
288.5	-10.58
288.715	-61.78
288.93	-26.96
289.145	81.58
289.36	38.57
289.575	-92.5
289.79	-10.58
290.004	95.91
290.219	-18.77
290.434	-96.6
290.649	-4.44
290.864	-8.53
291.079	-59.73
291.294	13.99
291.509	-18.77
291.724	-8.53
291.938	22.19
292.153	102.06
292.368	5.8
292.583	24.23
292.798	-4.44
293.012	42.67
293.227	-59.73
293.442	-26.96
293.657	-0.34
293.871	-22.87
294.086	-6.49
294.301	-10.58
294.516	40.62
294.73	-10.58
294.945	-76.12
295.16	-35.16
295.374	3.75
295.589	-37.2
295.804	20.14
296.018	32.43
296.233	7.85
296.447	7.85
296.662	-39.25
296.877	18.09
297.091	46.76
297.306	-14.68
297.52	-33.11
297.735	18.09
297.949	18.09
298.164	-8.53
298.378	28.33
298.593	-6.49
298.807	-22.87
299.022	-33.11
299.236	3.75
299.451	-2.39
299.665	-31.06
299.88	16.04
300.094	77.48
300.309	11.95
300.523	3.75
300.737	18.09
300.952	-2.39
301.166	-12.63
301.381	9.9
301.595	30.38
301.809	-31.06
302.024	5.8
302.238	54.95
302.452	42.67
302.667	-31.06
302.881	-16.73
303.095	7.85
303.309	-47.44
303.524	5.8
303.738	-35.16
303.952	-14.68
304.166	-59.73
304.381	-8.53
304.595	57
304.809	22.19
305.023	-12.63
305.237	-18.77
305.452	5.8
305.666	-10.58
305.88	46.76
306.094	3.75
306.308	16.04
306.522	-12.63
306.736	7.85
306.95	30.38
307.164	3.75
307.379	-22.87
307.593	-39.25
307.807	9.9
308.021	-18.77
308.235	46.76
308.449	52.91
308.663	13.99
308.877	30.38
309.091	-69.97
309.305	-16.73
309.519	-14.68
309.733	16.04
309.947	-2.39
310.161	16.04
310.374	42.67
310.588	30.38
310.802	81.58
311.016	-31.06
311.23	-55.64
311.444	-65.88
311.658	-51.54
311.872	-4.44
312.085	-14.68
312.299	7.85
312.513	50.86
312.727	30.38
312.941	48.81
313.154	-92.5
313.368	9.9
313.582	-39.25
313.796	-35.16
314.009	18.09
314.223	20.14
314.437	57
314.651	36.52
314.864	7.85
315.078	-6.49
315.292	-55.64
315.505	-2.39
315.719	40.62
315.933	32.43
316.146	-8.53
316.36	-55.64
316.573	-26.96
316.787	-18.77
317.001	44.71
317.214	87.72
317.428	-10.58
317.641	3.75
317.855	95.91
318.068	-47.44
318.282	61.1
318.495	73.39
318.709	30.38
318.922	30.38
319.136	59.05
319.349	40.62
319.563	42.67
319.776	-8.53
319.99	42.67
320.203	-12.63
320.417	91.82
320.63	-37.2
320.843	34.47
321.057	79.53
321.27	18.09
321.483	-26.96
321.697	7.85
321.91	22.19
322.124	67.24
322.337	104.11
322.55	-16.73
322.763	-8.53
322.977	-26.96
323.19	7.85
323.403	-57.68
323.617	-14.68
323.83	13.99
324.043	40.62
324.256	-37.2
324.469	61.1
324.683	1.71
324.896	9.9
325.109	-2.39
325.322	52.91
325.535	-26.96
325.748	20.14
325.962	85.67
326.175	-43.35
326.388	46.76
326.601	-86.36
326.814	40.62
327.027	-35.16
327.24	-6.49
327.453	-18.77
327.666	5.8
327.879	-55.64
328.092	59.05
328.305	71.34
328.518	13.99
328.731	28.33
328.944	-4.44
329.157	87.72
329.37	40.62
329.583	-41.3
329.796	18.09
330.009	5.8
330.222	-55.64
330.435	42.67
330.648	-6.49
330.861	24.23
331.073	18.09
331.286	38.57
331.499	-16.73
331.712	5.8
331.925	48.81
332.138	18.09
332.35	-16.73
332.563	46.76
332.776	-4.44
332.989	-47.44
333.202	38.57
333.414	11.95
333.627	-22.87
333.84	-57.68
334.053	-2.39
334.265	-59.73
334.478	22.19
334.691	40.62
334.903	-24.92
335.116	9.9
335.329	-22.87
335.541	-26.96
335.754	16.04
335.966	-41.3
336.179	-112.98
336.392	-8.53
336.604	-22.87
336.817	93.87
337.029	-51.54
337.242	-8.53
337.454	-47.44
337.667	-8.53
337.88	20.14
338.092	-14.68
338.305	30.38
338.517	26.28
338.729	-74.07
338.942	-18.77
339.154	-22.87
339.367	-33.11
339.579	-6.49
339.792	3.75
340.004	-29.01
340.217	-55.64
340.429	-33.11
340.641	-37.2
340.854	-18.77
341.066	3.75
341.278	120.49
341.491	24.23
341.703	-16.73
341.915	67.24
342.128	50.86
342.34	-18.77
342.552	-6.49
342.764	38.57
342.977	3.75
343.189	38.57
343.401	44.71
343.613	-10.58
343.826	83.63
344.038	-49.49
344.25	-22.87
344.462	-31.06
344.674	63.15
344.886	5.8
345.099	-51.54
345.311	-22.87
345.523	54.95
345.735	30.38
345.947	42.67
346.159	-10.58
346.371	54.95
346.583	28.33
346.795	1.71
347.007	22.19
347.219	65.19
347.431	30.38
347.643	28.33
347.855	-4.44
348.067	3.75
348.279	-8.53
348.491	3.75
348.703	26.28
348.915	-14.68
349.127	-24.92
349.339	-6.49
349.551	65.19
349.763	93.87
349.975	-10.58
350.187	24.23
350.399	13.99
350.61	30.38
350.822	-43.35
351.034	36.52
351.246	20.14
351.458	28.33
351.669	1.71
351.881	-0.34
352.093	42.67
352.305	-10.58
352.517	-14.68
352.728	-8.53
352.94	-72.02
353.152	22.19
353.363	77.48
353.575	-49.49
353.787	-26.96
353.999	-33.11
354.21	11.95
354.422	9.9
354.633	48.81
354.845	1.71
355.057	-10.58
355.268	20.14
355.48	63.15
355.692	-18.77
355.903	-16.73
356.115	22.19
356.326	-115.03
356.538	22.19
356.749	54.95
356.961	67.24
357.172	28.33
357.384	-47.44
357.595	-65.88
357.807	13.99
358.018	-63.83
358.23	-14.68
358.441	-6.49
358.653	73.39
358.864	32.43
359.075	18.09
359.287	3.75
359.498	1.71
359.709	38.57
359.921	-90.45
360.132	9.9
360.344	83.63
360.555	11.95
360.766	48.81
360.977	-22.87
361.189	5.8
361.4	-37.2
361.611	13.99
361.823	1.71
362.034	-33.11
362.245	-20.82
362.456	9.9
362.667	7.85
362.879	-65.88
363.09	-8.53
363.301	83.63
363.512	116.39
363.723	48.81
363.935	22.19
364.146	-6.49
364.357	-24.92
364.568	79.53
364.779	46.76
364.99	46.76
365.201	26.28
365.412	16.04
365.623	-2.39
365.834	16.04
366.045	-10.58
366.256	-18.77
366.467	16.04
366.678	7.85
366.889	30.38
367.1	-43.35
367.311	9.9
367.522	59.05
367.733	-33.11
367.944	-35.16
368.155	16.04
368.366	34.47
368.577	79.53
368.788	40.62
368.999	22.19
369.209	20.14
369.42	-18.77
369.631	-43.35
369.842	-2.39
370.053	24.23
370.264	22.19
370.474	-51.54
370.685	-22.87
370.896	5.8
371.107	67.24
371.317	-14.68
371.528	-14.68
371.739	-4.44
371.95	13.99
372.16	26.28
372.371	-24.92
372.582	-37.2
372.792	-31.06
373.003	38.57
373.214	-4.44
373.424	-14.68
373.635	-96.6
373.846	11.95
374.056	11.95
374.267	-24.92
374.477	36.52
374.688	-8.53
374.898	-24.92
375.109	13.99
375.319	5.8
375.53	48.81
375.74	-8.53
375.951	54.95
376.161	28.33
376.372	16.04
376.582	-39.25
376.793	-72.02
377.003	30.38
377.214	75.43
377.424	30.38
377.635	28.33
377.845	-22.87
378.055	16.04
378.266	-26.96
378.476	-6.49
378.686	-41.3
378.897	16.04
379.107	38.57
379.317	32.43
379.528	-37.2
379.738	28.33
379.948	-6.49
380.158	63.15
380.369	-2.39
380.579	-2.39
380.789	-74.07
380.999	-31.06
381.21	7.85
381.42	50.86
381.63	65.19
381.84	-22.87
382.05	16.04
382.261	50.86
382.471	46.76
382.681	34.47
382.891	28.33
383.101	-6.49
383.311	-35.16
383.521	-57.68
383.731	-0.34
383.941	46.76
384.151	57
384.361	5.8
384.571	3.75
384.781	-6.49
384.991	16.04
385.201	-43.35
385.411	34.47
385.621	95.91
385.831	-12.63
386.041	11.95
386.251	-33.11
386.461	-22.87
386.671	-8.53
386.881	40.62
387.091	-53.59
387.301	5.8
387.511	-39.25
387.72	5.8
387.93	11.95
388.14	-6.49
388.35	-26.96
388.56	63.15
388.769	-39.25
388.979	-0.34
389.189	93.87
389.399	-18.77
389.609	46.76
389.818	11.95
390.028	81.58
390.238	13.99
390.447	75.43
390.657	46.76
390.867	-53.59
391.076	-29.01
391.286	97.96
391.496	106.15
391.705	22.19
391.915	50.86
392.125	-8.53
392.334	-10.58
392.544	9.9
392.753	65.19
392.963	13.99
393.172	38.57
393.382	-16.73
393.591	128.68
393.801	3.75
394.01	42.67
394.22	-53.59
394.429	42.67
394.639	44.71
394.848	73.39
395.058	1.71
395.267	-24.92
395.477	42.67
395.686	106.15
395.895	61.1
396.105	120.49
396.314	-8.53
396.524	-33.11
396.733	13.99
396.942	71.34
397.152	1.71
397.361	38.57
397.57	57
397.78	32.43
397.989	36.52
398.198	52.91
398.407	67.24
398.617	30.38
398.826	81.58
399.035	-8.53
399.244	-39.25
399.453	-0.34
399.663	13.99
399.872	44.71
400.081	75.43
400.29	57
400.499	54.95
400.708	65.19
400.917	30.38
401.127	48.81
401.336	-31.06
401.545	71.34
401.754	9.9
401.963	30.38
402.172	50.86
402.381	11.95
402.59	40.62
402.799	32.43
403.008	87.72
403.217	89.77
403.426	89.77
403.635	85.67
403.844	13.99
404.053	1.71
404.262	91.82
404.471	126.63
404.68	57
404.888	95.91
405.097	38.57
405.306	26.28
405.515	114.34
405.724	106.15
405.933	40.62
406.142	30.38
406.35	112.3
406.559	26.28
406.768	16.04
406.977	93.87
407.185	65.19
407.394	104.11
407.603	69.29
407.812	71.34
408.02	122.54
408.229	87.72
408.438	75.43
408.646	118.44
408.855	114.34
409.064	159.4
409.272	104.11
409.481	147.11
409.69	110.25
409.898	167.59
410.107	106.15
410.315	161.45
410.524	54.95
410.733	157.35
410.941	138.92
411.15	206.5
411.358	183.98
411.567	171.69
411.775	179.88
411.984	159.4
412.192	229.03
412.401	179.88
412.609	282.28
412.818	241.32
413.026	136.87
413.234	218.79
413.443	229.03
413.651	239.27
413.86	294.57
414.068	290.47
414.276	263.85
414.485	306.85
414.693	265.89
414.901	349.86
415.11	335.53
415.318	280.23
415.526	360.1
415.734	417.44
415.943	302.76
416.151	409.25
416.359	409.25
416.567	421.54
416.776	396.96
416.984	439.97
417.192	575.14
417.4	505.51
417.608	493.22
417.817	562.85
418.025	513.7
418.233	575.14
418.441	482.98
418.649	575.14
418.857	593.57
419.065	609.95
419.273	661.15
419.481	648.86
419.689	716.45
419.897	714.4
420.105	796.32
420.313	794.27
420.521	808.61
420.729	702.11
420.937	800.41
421.145	921.24
421.353	841.37
421.561	941.72
421.769	923.29
421.977	1046.17
422.185	1044.12
422.393	1115.8
422.601	1087.13
422.809	1134.23
423.017	1123.99
423.224	1255.06
423.432	1281.69
423.64	1320.6
423.848	1312.41
424.056	1316.5
424.263	1326.74
424.471	1357.46
424.679	1388.18
424.887	1537.68
425.094	1543.83
425.302	1648.27
425.51	1640.08
425.718	1681.04
425.925	1709.71
426.133	1746.58
426.341	1861.26
426.548	1951.37
426.756	1943.18
426.964	1930.89
427.171	2115.21
427.379	2197.13
427.586	2164.36
427.794	2217.61
428.001	2315.91
428.209	2473.6
428.417	2410.12
428.624	2528.9
428.832	2563.72
429.039	2600.58
429.247	2584.2
429.454	2875.01
429.662	3024.51
429.869	2803.33
430.076	3024.51
430.284	2911.87
430.491	3122.81
430.699	3309.18
430.906	3243.64
431.114	3360.38
431.321	3393.14
431.528	3470.97
431.736	3575.41
431.943	3927.66
432.15	3673.71
432.358	3802.74
432.565	3989.1
432.772	3999.34
432.979	4261.48
433.187	4275.82
433.394	4261.48
433.601	4658.79
433.808	4537.96
434.016	4607.59
434.223	4847.2
434.43	5097.05
434.637	5029.47
434.844	5518.93
435.052	5396.06
435.259	5267.03
435.466	5518.93
435.673	5301.85
435.88	5764.69
436.087	6098.51
436.294	5940.82
436.501	5901.9
436.708	6006.35
436.915	6200.91
437.122	6596.17
437.329	6274.63
437.537	6657.61
437.743	6876.74
437.95	6788.68
438.157	7233.08
438.364	7527.99
438.571	7315
438.778	7370.3
438.985	8058.42
439.192	7695.93
439.399	7984.69
439.606	7896.63
439.813	8222.25
440.02	8644.13
440.227	8586.79
440.433	8459.82
440.64	8918.56
440.847	8623.66
441.054	8844.84
441.261	9641.5
441.467	9428.51
441.674	9532.95
441.881	9942.55
442.088	10001.94
442.294	9944.59
442.501	10149.39
442.708	10305.04
442.914	10726.92
443.121	11308.54
443.328	10950.15
443.534	11746.81
443.741	11269.63
443.948	11085.31
444.154	11773.43
444.361	12070.39
444.568	11894.26
444.774	12086.77
444.981	12137.97
445.187	12459.5
445.394	13229.54
445.6	12967.4
445.807	14335.44
446.013	13792.73
446.22	13829.59
446.426	14530
446.633	14575.05
446.839	14874.06
447.046	14294.48
447.252	15525.31
447.459	15144.39
447.665	15230.4
447.871	15930.81
448.078	16430.51
448.284	15758.78
448.491	16516.53
448.697	17028.52
448.903	17159.59
449.11	17190.31
449.316	17370.53
449.522	17391.01
449.728	18040.22
449.935	18079.13
450.141	17974.68
450.347	18290.07
450.553	17710.49
450.76	17933.72
450.966	18414.99
451.172	18494.86
451.378	19316.1
451.584	18689.42
451.791	19088.78
451.997	19074.44
452.203	19303.81
452.409	19443.07
452.615	19297.67
452.821	18800.01
453.027	18359.7
453.233	19557.76
453.44	18548.11
453.646	18902.41
453.852	19127.69
454.058	19309.96
454.264	18580.88
454.47	18976.14
454.676	18591.12
454.882	19477.89
455.088	17651.1
455.294	18159
455.5	18300.31
455.705	18519.44
455.911	17560.99
456.117	17311.14
456.323	17100.2
456.529	16266.67
456.735	17104.29
456.941	16672.17
457.147	16375.22
457.352	15431.1
457.558	15537.6
457.764	15689.15
457.97	15136.2
458.176	14818.76
458.381	15144.39
458.587	14280.14
458.793	14306.77
458.999	13436.38
459.204	14607.82
459.41	14095.83
459.616	13176.29
459.821	13290.98
460.027	13008.36
460.233	12850.66
460.438	12219.89
460.644	12533.23
460.85	11810.29
461.055	11644.41
461.261	11558.39
461.466	10645
461.672	10384.91
461.878	11208.19
462.083	10454.54
462.289	10239.5
462.494	10233.36
462.7	9926.16
462.905	9344.54
463.111	9502.23
463.316	9840.15
463.522	9688.6
463.727	9555.48
463.932	9747.99
464.138	9541.15
464.343	9416.22
464.549	9319.96
464.754	9694.74
464.959	9422.36
465.165	9297.44
465.37	9063.97
465.575	8689.19
465.781	9326.11
465.986	9324.06
466.191	9123.36
466.397	8697.38
466.602	8353.32
466.807	8513.06
467.012	8695.33
467.218	8564.26
467.423	8455.72
467.628	8568.36
467.833	8779.3
468.038	8504.87
468.244	8205.87
468.449	8543.78
468.654	8273.45
468.859	8193.58
469.064	8074.8
469.269	7988.78
469.474	8019.5
469.679	8039.98
469.885	7988.78
470.09	8109.61
470.295	7867.95
470.5	7681.59
470.705	8025.65
470.91	7755.32
471.115	7599.67
471.32	7708.21
471.525	7683.64
471.73	7450.17
471.935	7411.26
472.139	7343.67
472.344	7341.63
472.549	7190.08
472.754	7167.55
472.959	7048.77
473.164	6837.83
473.369	6809.15
473.574	7083.58
473.778	6991.42
473.983	6962.75
474.188	6688.32
474.393	6518.34
474.598	6757.96
474.802	6450.76
475.007	6473.29
475.212	6413.9
475.417	6155.85
475.621	6223.44
475.826	6149.71
476.031	6358.6
476.235	6104.65
476.44	6078.03
476.645	5918.29
476.849	5914.19
477.054	6059.6
477.259	5819.99
477.463	5871.19
477.668	5750.35
477.872	5738.07
478.077	5586.52
478.282	5520.98
478.486	5664.34
478.691	5516.89
478.895	5510.74
479.1	5563.99
479.304	5545.56
479.509	5258.84
479.713	5316.19
479.918	5422.68
480.122	5330.52
480.326	5242.46
480.531	5271.13
480.735	5133.92
480.94	5119.58
481.144	5459.54
481.348	5054.05
481.553	5144.16
481.757	5074.53
481.961	5013.09
482.166	5062.24
482.37	5168.73
482.574	4982.37
482.778	4941.41
482.983	5135.96
483.187	5078.62
483.391	5207.64
483.595	5160.54
483.8	5072.48
484.004	5066.33
484.208	5201.5
484.412	4965.98
484.616	5156.44
484.821	5031.52
485.025	4996.7
485.229	5152.35
485.433	4961.89
485.637	5164.64
485.841	4955.74
486.045	4998.75
486.249	5242.46
486.453	5074.53
486.657	5043.81
486.861	5160.54
487.065	4886.11
487.269	4935.26
487.473	5086.81
487.677	5162.59
487.881	5119.58
488.085	5062.24
488.289	5154.4
488.493	5000.8
488.697	5174.88
488.901	5135.96
489.105	5090.91
489.309	5142.11
489.512	5271.13
489.716	5264.99
489.92	5172.83
490.124	5170.78
490.328	5193.31
490.531	5115.48
490.735	5056.09
490.939	5295.71
491.143	5293.66
491.346	5283.42
491.55	5342.81
491.754	5291.61
491.958	5441.11
492.161	5285.47
492.365	5344.86
492.569	5373.53
492.772	5387.86
492.976	5449.3
493.18	5596.76
493.383	5596.76
493.587	5674.58
493.79	5582.42
493.994	5543.51
494.197	5590.61
494.401	5815.89
494.605	5744.21
494.808	5748.31
495.012	5707.35
495.215	6012.49
495.419	5860.95
495.622	5875.28
495.825	6035.02
496.029	6012.49
496.232	6139.47
496.436	6024.78
496.639	6291.02
496.843	6352.46
497.046	6358.6
497.249	6372.94
497.453	6477.38
497.656	6409.8
497.859	6616.65
498.063	6637.13
498.266	6547.01
498.469	6696.52
498.673	6934.08
498.876	6913.6
499.079	7026.24
499.282	6968.9
499.485	7091.77
499.689	7183.93
499.892	7288.38
500.095	7437.88
500.298	7593.53
500.501	7515.7
500.705	7857.71
500.908	7697.97
501.111	7923.25
501.314	7984.69
501.517	8009.26
501.72	8091.18
501.923	8130.09
502.126	8312.36
502.329	8488.49
502.532	8484.39
502.735	8791.59
502.938	8855.08
503.141	8799.78
503.344	9018.91
503.547	9020.96
503.75	9074.21
503.953	9297.44
504.156	9586.2
504.359	9371.16
504.562	9563.67
504.765	9911.83
504.968	9803.29
505.17	9917.97
505.373	9995.79
505.576	10178.06
505.779	10364.43
505.982	10534.41
506.185	10475.02
506.387	10683.91
506.59	10720.78
506.793	10997.25
506.996	11134.46
507.198	11214.34
507.401	11283.97
507.604	11249.15
507.807	11525.63
508.009	11681.27
508.212	11558.39
508.415	11746.81
508.617	12033.52
508.82	12189.17
509.022	12099.06
509.225	12637.67
509.428	12621.29
509.63	12977.64
509.833	12738.02
510.035	13065.7
510.238	13090.27
510.44	13221.34
510.643	13612.51
510.845	13639.13
511.048	13546.97
511.25	13817.3
511.453	14087.64
511.655	14484.94
511.858	14210.51
512.06	14353.87
512.262	14652.88
512.465	14665.16
512.667	14917.06
512.87	15132.1
513.072	15271.36
513.274	15414.72
513.477	15558.08
513.679	15695.29
513.881	16106.93
514.084	16074.17
514.286	16098.74
514.488	16319.92
514.69	16846.25
514.893	16821.67
515.095	16819.63
515.297	17085.86
515.499	17206.69
515.701	17290.66
515.904	17671.58
516.106	17880.47
516.308	17829.27
516.51	18136.47
516.712	18380.18
516.914	18224.53
517.116	18660.75
517.318	18757
517.52	18943.37
517.722	18849.16
517.925	19338.63
518.127	19498.37
518.329	19551.62
518.531	19621.25
518.733	20024.7
518.935	20288.89
519.136	20217.21
519.338	20551.03
519.54	20745.58
519.742	20632.94
519.944	20991.34
520.146	21343.59
520.348	21845.34
520.55	21376.36
520.752	21509.47
520.954	22134.1
521.155	21644.64
521.357	22369.62
521.559	22486.36
521.761	22695.25
521.963	22547.79
522.164	22957.39
522.366	23094.6
522.568	23436.61
522.77	23448.9
522.971	23541.06
523.173	23311.69
523.375	23633.22
523.576	24018.24
523.778	23930.17
523.98	24196.41
524.181	24458.55
524.383	24386.87
524.584	24837.42
524.786	24808.75
524.988	24859.95
525.189	25161
525.391	25257.26
525.592	25339.18
525.794	25531.69
525.995	25507.11
526.197	25558.31
526.398	25580.84
526.6	26101.02
526.801	25994.53
527.003	26385.69
527.204	26529.05
527.406	26750.23
527.607	26377.5
527.808	26430.74
528.01	26049.82
528.211	26498.33
528.412	26869.01
528.614	26858.77
528.815	26766.61
529.016	27702.53
529.218	26774.8
529.419	27206.92
529.62	27254.03
529.822	27260.17
530.023	27340.04
530.224	27071.76
530.425	27290.89
530.626	26969.36
530.828	27329.8
531.029	27753.73
531.23	27540.74
531.431	27555.08
531.632	27557.13
531.833	27575.56
532.035	28089.6
532.236	28022.02
532.437	27806.98
532.638	27970.82
532.839	28196.09
533.04	27806.98
533.241	27331.85
533.442	27874.56
533.643	27843.84
533.844	27886.85
534.045	28048.64
534.246	27692.29
534.447	28265.72
534.648	28200.19
534.849	28062.97
535.05	28075.26
535.251	28241.15
535.451	27946.24
535.652	28245.24
535.853	28380.41
536.054	28032.25
536.255	28392.7
536.456	27915.52
536.657	28564.73
536.857	28343.55
537.058	28060.93
537.259	28529.91
537.46	28105.98
537.66	27987.2
537.861	28013.82
538.062	28161.28
538.263	28437.75
538.463	28114.17
538.664	28120.32
538.865	28181.76
539.065	28370.17
539.266	27942.14
539.466	28353.79
539.667	28187.9
539.868	28818.67
540.068	28142.85
540.269	27868.42
540.469	28384.51
540.67	28161.28
540.87	28042.49
541.071	28101.89
541.271	28181.76
541.472	28163.32
541.672	28042.49
541.873	28011.78
542.073	27716.87
542.274	28464.38
542.474	27946.24
542.675	27946.24
542.875	28136.7
543.075	27872.51
543.276	28071.17
543.476	28263.68
543.676	28077.31
543.877	28163.32
544.077	28206.33
544.277	28165.37
544.478	28245.24
544.678	27974.91
544.878	27927.81
545.078	28187.9
545.279	27829.51
545.479	27788.55
545.679	27870.47
545.879	28019.97
546.079	28284.16
546.28	27841.79
546.48	27489.54
546.68	28198.14
546.88	27706.63
547.08	28261.63
547.28	28132.61
547.48	27712.77
547.68	28122.37
547.88	28026.11
548.081	27823.36
548.281	27833.6
548.481	28065.02
548.681	28196.09
548.881	27923.71
549.081	28095.74
549.28	27841.79
549.48	27950.34
549.68	27999.49
549.88	28480.76
550.08	27532.55
550.28	28095.74
550.48	27841.79
550.68	27919.62
550.88	28034.3
551.08	28069.12
551.279	28026.11
551.479	27516.17
551.679	28263.68
551.879	27383.05
552.079	27849.99
552.278	27628.81
552.478	27995.39
552.678	27833.6
552.878	27780.35
553.077	27630.85
553.277	27362.57
553.477	28245.24
553.676	27911.42
553.876	27536.65
554.076	27720.96
554.275	27696.39
554.475	27204.88
554.674	27507.97
554.874	27749.64
555.074	27583.75
555.273	27612.42
555.473	27796.74
555.672	27753.73
555.872	27542.79
556.071	27671.81
556.271	27643.14
556.47	27677.96
556.67	27346.19
556.869	27530.5
557.068	27194.64
557.268	27260.17
557.467	26959.12
557.667	27135.24
557.866	27157.77
558.065	27110.67
558.265	27108.62
558.464	26955.02
558.663	27395.34
558.863	26924.3
559.062	27276.55
559.261	26713.36
559.461	27362.57
559.66	26756.37
559.859	26858.77
560.058	26764.56
560.258	26950.93
560.457	26866.96
560.656	27022.61
560.855	26537.24
561.054	27012.37
561.253	26414.36
561.453	26631.44
561.652	26690.84
561.851	26455.32
562.05	26846.48
562.249	26637.59
562.448	26553.62
562.647	26483.99
562.846	26395.93
563.045	26873.1
563.244	26418.46
563.443	26576.15
563.642	25869.6
563.841	26133.79
564.04	26141.98
564.239	26344.73
564.438	26012.96
564.637	25980.19
564.836	26146.08
565.035	26086.68
565.234	26176.8
565.432	25808.16
565.631	25738.53
565.83	25705.76
566.029	25789.73
566.228	25535.78
566.427	25482.53
566.625	25746.72
566.824	25441.57
567.023	25564.45
567.222	24980.78
567.42	25539.88
567.619	25363.75
567.818	25144.62
568.016	25253.16
568.215	25269.55
568.414	25146.67
568.612	25267.5
568.811	25066.8
569.01	25253.16
569.208	24872.24
569.407	24839.47
569.605	24769.84
569.804	24741.17
570.002	24560.95
570.201	24882.48
570.4	24493.36
570.598	24710.45
570.797	24487.22
570.995	24726.83
571.193	24044.86
571.392	24513.84
571.59	24190.27
571.789	24089.92
571.987	23897.41
572.186	24296.76
572.384	23901.5
572.582	24118.59
572.781	23983.42
572.979	23926.08
573.177	23991.61
573.376	23690.56
573.574	23602.5
573.772	23688.51
573.971	23412.04
574.169	23395.65
574.367	23612.74
574.565	23530.82
574.763	23477.57
574.962	23311.69
575.16	23004.49
575.358	23297.35
575.556	22959.44
575.754	23438.66
575.952	22854.99
576.151	23332.17
576.349	22881.61
576.547	22762.83
576.745	22719.82
576.943	22531.41
577.141	22562.13
577.339	22603.09
577.537	22685.01
577.735	22435.16
577.933	22627.67
578.131	22484.31
578.329	22394.2
578.527	22070.62
578.725	22256.98
578.923	22197.59
579.121	22173.02
579.319	21898.59
579.516	22084.95
579.714	22187.35
579.912	21679.46
580.11	21581.15
580.308	21902.68
580.506	21595.49
580.704	21327.21
580.901	21566.82
581.099	21716.32
581.297	21405.03
581.495	21466.47
581.692	21415.27
581.89	21103.98
582.088	21505.38
582.285	20972.91
582.483	21345.64
582.681	21063.02
582.878	20936.04
583.076	20800.88
583.274	20866.41
583.471	20559.22
583.669	20788.59
583.866	20995.43
584.064	21063.02
584.262	20469.11
584.459	20764.01
584.657	20589.94
584.854	20678
585.052	20090.23
585.249	20587.89
585.447	20374.9
585.644	20079.99
585.841	20266.36
586.039	20288.89
586.236	19965.31
586.434	19791.23
586.631	19969.4
586.828	19862.91
587.026	19862.91
587.223	19737.98
587.42	19785.08
587.618	20047.22
587.815	19756.41
588.012	19658.11
588.21	19578.24
588.407	19576.19
588.604	19404.16
588.801	19260.8
588.999	19594.62
589.196	19389.83
589.393	19373.44
589.59	19047.82
589.787	18972.04
589.984	18716.05
590.182	18627.98
590.379	18984.33
590.576	18685.33
590.773	18836.88
590.97	18853.26
591.167	18998.66
591.364	18683.28
591.561	18539.92
591.758	18505.1
591.955	18179.48
592.152	18685.33
592.349	18453.91
592.546	18322.84
592.743	18597.26
592.94	18130.33
593.137	18175.38
593.334	18234.77
593.531	18249.11
593.727	18285.97
593.924	17886.62
594.121	17888.67
594.318	18060.7
594.515	17782.17
594.712	18214.29
594.908	17763.74
595.105	17759.64
595.302	17585.57
595.499	17798.56
595.696	17640.86
595.892	17321.38
596.089	17386.91
596.286	17462.69
596.482	17522.08
596.679	17325.47
596.876	17407.39
597.072	17253.8
597.269	17092.01
597.466	17044.9
597.662	17051.05
597.859	17268.13
598.055	17343.91
598.252	16854.44
598.448	16868.78
598.645	16663.98
598.841	16618.93
599.038	16782.76
599.234	16747.95
599.431	16438.7
599.627	16508.33
599.824	16610.73
600.02	16270.77
600.217	16432.56
600.413	16309.68
600.609	16453.04
600.806	16190.9
601.002	16334.26
601.198	16156.08
601.395	16047.54
601.591	16156.08
601.787	16082.36
601.984	16006.58
602.18	16057.78
602.376	16004.53
602.572	15838.65
602.769	15699.39
602.965	15730.11
603.161	15541.69
603.357	15496.64
603.553	15732.15
603.75	15701.44
603.946	15539.65
604.142	15384
604.338	15418.82
604.534	15672.76
604.73	15381.95
604.926	15377.86
605.122	15312.32
605.318	15121.86
605.514	15097.28
605.71	15111.62
605.906	15181.25
606.102	15115.72
606.298	15105.48
606.494	14861.77
606.69	15121.86
606.886	14935.49
607.082	14810.57
607.278	14912.97
607.474	14499.28
607.67	14755.27
607.866	14513.61
608.062	14679.5
608.257	14405.07
608.453	14609.87
608.649	14826.95
608.845	14497.23
609.041	14491.09
609.236	14499.28
609.432	14495.18
609.628	14523.85
609.824	14429.65
610.019	14114.26
610.215	14263.76
610.411	14341.58
610.606	14187.99
610.802	14218.71
610.998	14144.98
611.193	13858.26
611.389	14022.1
611.584	14118.36
611.78	13927.89
611.976	14112.21
612.171	13977.05
612.367	13915.61
612.562	13796.82
612.758	13712.86
612.953	13635.03
613.149	13905.37
613.344	13882.84
613.539	13989.33
613.735	13782.49
613.93	13917.65
614.126	13745.62
614.321	13985.24
614.517	13518.3
614.712	13639.13
614.907	13506.01
615.103	13766.1
615.298	13448.67
615.493	13532.64
615.688	13252.06
615.884	13632.99
616.079	13268.45
616.274	13254.11
616.47	13362.65
616.665	13202.91
616.86	13106.66
617.055	13311.46
617.25	13323.74
617.445	13360.61
617.641	12987.88
617.836	13051.36
618.031	12908.01
618.226	13004.26
618.421	12658.15
618.616	12936.68
618.811	12758.5
619.006	12963.3
619.201	12637.67
619.396	13030.88
619.591	12592.62
619.786	12770.79
619.981	12434.92
620.176	12875.24
620.371	12467.69
620.566	12662.25
620.761	12383.73
620.956	12410.35
621.151	12369.39
621.346	12453.36
621.541	11933.17
621.735	12027.38
621.93	11912.69
622.125	11918.84
622.32	11771.38
622.515	11957.75
622.709	11965.94
622.904	11679.22
623.099	11607.55
623.294	11679.22
623.488	11636.22
623.683	11466.24
623.878	11568.63
624.072	11298.3
624.267	11175.42
624.462	11402.75
624.656	11261.44
624.851	11288.06
625.046	11003.39
625.24	10923.52
625.435	11091.46
625.629	10989.06
625.824	10751.49
626.018	10952.2
626.213	10497.55
626.407	10726.92
626.602	10616.33
626.796	10741.25
626.991	10636.81
627.185	10380.81
627.38	10466.83
627.574	10350.09
627.768	10239.5
627.963	10180.11
628.157	10108.43
628.352	10198.54
628.546	10042.9
628.74	10110.48
628.935	9889.3
629.129	9905.68
629.323	9758.23
629.517	9649.69
629.712	10008.08
629.906	9817.62
630.1	9633.3
630.294	9678.36
630.489	9649.69
630.683	9584.15
630.877	9514.52
631.071	9326.11
631.265	9455.13
631.459	9287.2
631.653	9274.91
631.848	9270.81
632.042	8996.39
632.236	9111.07
632.43	9068.06
632.624	9086.5
632.818	9102.88
633.012	8996.39
633.206	8875.56
633.4	8990.24
633.594	8691.24
633.788	8848.93
633.982	8756.77
634.176	8859.17
634.369	8637.99
634.563	8513.06
634.757	8482.35
634.951	8648.23
635.145	8676.9
635.339	8619.56
635.533	8381.99
635.726	8420.91
635.92	8312.36
636.114	8144.43
636.308	8263.21
636.501	8177.2
636.695	8162.86
636.889	7902.77
637.083	8015.41
637.276	8027.7
637.47	7994.93
637.664	7827
637.857	7900.72
638.051	7847.47
638.244	7863.86
638.438	7798.32
638.632	7634.49
638.825	7714.36
639.019	7484.98
639.212	7523.9
639.406	7626.29
639.599	7288.38
639.793	7476.79
639.986	7120.45
640.18	7505.46
640.373	7261.76
640.567	7329.34
640.76	7161.41
640.954	7196.22
641.147	7292.48
641.34	7124.54
641.534	7124.54
641.727	7108.16
641.92	7075.39
642.114	6866.5
642.307	6948.42
642.5	6794.82
642.694	6800.96
642.887	6641.22
643.08	6929.98
643.273	6821.44
643.467	6723.14
643.66	6628.93
643.853	6635.08
644.046	6540.87
644.239	6458.95
644.432	6489.67
644.626	6297.16
644.819	6475.34
645.012	6432.33
645.205	6397.51
645.398	6436.42
645.591	6217.29
645.784	6178.38
645.977	6116.94
646.17	6116.94
646.363	6155.85
646.556	5981.78
646.749	6020.69
646.942	6069.84
647.135	6075.98
647.328	5989.97
647.521	6016.59
647.714	5897.81
647.907	5944.91
648.099	5955.15
648.292	5852.75
648.485	5705.3
648.678	5520.98
648.871	5690.96
649.064	5561.94
649.256	5637.72
649.449	5785.17
649.642	5482.07
649.835	5783.12
650.027	5529.17
650.22	5402.2
650.413	5500.5
650.605	5447.26
650.798	5416.54
650.991	5152.35
651.183	5250.65
651.376	5250.65
651.568	5248.6
651.761	5320.28
651.954	5047.9
652.146	5033.57
652.339	5162.59
652.531	5140.06
652.724	5058.14
652.916	5019.23
653.109	5127.77
653.301	4894.3
653.494	4990.56
653.686	4912.74
653.879	4974.17
654.071	4896.35
654.263	4830.82
654.456	4869.73
654.648	4974.17
654.84	4779.62
655.033	4898.4
655.225	4720.23
655.417	4814.43
655.61	4798.05
655.802	4626.02
655.994	4763.23
656.186	4685.41
656.379	4615.78
656.571	4595.3
656.763	4556.39
656.955	4398.7
657.148	4658.79
657.34	4419.18
657.532	4396.65
657.724	4439.65
657.916	4511.33
658.108	4378.22
658.3	4384.36
658.492	4245.1
658.684	4232.81
658.876	4077.16
659.068	4265.58
659.26	4177.51
659.452	4150.89
659.644	4253.29
659.836	4261.48
660.028	4275.82
660.22	4003.44
660.412	4077.16
660.604	3966.57
660.796	3962.48
660.988	4068.97
661.18	4023.92
661.372	4130.41
661.563	3976.81
661.755	3929.71
661.947	3853.94
662.139	4044.4
662.331	3851.89
662.522	3759.73
662.714	3853.94
662.906	3827.31
663.097	3679.86
663.289	3485.3
663.481	3759.73
663.673	3638.9
663.864	3698.29
664.056	3612.28
664.247	3599.99
664.439	3657.33
664.631	3702.39
664.822	3589.75
665.014	3532.4
665.205	3520.12
665.397	3567.22
665.588	3475.06
665.78	3425.91
665.971	3444.34
666.163	3387
666.354	3505.78
666.546	3350.14
666.737	3366.52
666.929	3366.52
667.12	3325.56
667.311	3309.18
667.503	3233.4
667.694	3387
667.885	3323.51
668.077	3325.56
668.268	3178.11
668.459	3169.91
668.651	3169.91
668.842	3231.35
669.033	3210.87
669.224	3094.14
669.416	2942.59
669.607	3112.57
669.798	3022.46
669.989	3149.43
670.18	3307.13
670.371	3012.22
670.563	2987.65
670.754	3042.94
670.945	2997.88
671.136	2852.48
671.327	2948.73
671.518	3016.32
671.709	3049.08
671.9	3036.8
672.091	3044.99
672.282	2940.54
672.473	2889.34
672.664	2852.48
672.855	3008.12
673.046	2915.97
673.237	2848.38
673.428	2815.62
673.619	2866.81
673.809	2872.96
674	2901.63
674.191	2975.36
674.382	2713.22
674.573	2801.28
674.764	2815.62
674.954	2782.85
675.145	2864.77
675.336	2795.14
675.527	2793.09
675.717	2729.6
675.908	2897.53
676.099	2700.93
676.289	2621.06
676.48	2666.11
676.671	2696.83
676.861	2668.16
677.052	2659.97
677.243	2784.9
677.433	2678.4
677.624	2594.44
677.814	2612.87
678.005	2694.79
678.195	2629.25
678.386	2649.73
678.576	2580.1
678.767	2741.89
678.957	2576
679.148	2770.56
679.338	2627.2
679.529	2659.97
679.719	2569.86
679.909	2588.29
680.1	2522.76
680.29	2420.36
680.481	2557.57
680.671	2598.53
680.861	2473.6
681.052	2553.48
681.242	2498.18
681.432	2569.86
681.622	2545.28
681.813	2455.17
682.003	2506.37
682.193	2516.61
682.383	2438.79
682.573	2506.37
682.764	2565.76
682.954	2375.3
683.144	2530.95
683.334	2512.52
683.524	2580.1
683.714	2410.12
683.904	2471.56
684.094	2393.73
684.284	2385.54
684.474	2553.48
684.664	2332.3
684.854	2453.13
685.044	2498.18
685.234	2377.35
685.424	2414.21
685.614	2401.93
685.804	2473.6
685.994	2418.31
686.184	2533
686.374	2399.88
686.564	2479.75
686.753	2371.21
686.943	2397.83
687.133	2461.32
687.323	2463.37
687.513	2403.97
687.702	2324.1
687.892	2471.56
688.082	2348.68
688.272	2446.98
688.461	2342.53
688.651	2279.05
688.841	2340.49
689.03	2371.21
689.22	2375.3
689.41	2330.25
689.599	2266.76
689.789	2317.96
689.979	2358.92
690.168	2377.35
690.358	2363.01
690.547	2184.84
690.737	2303.62
690.926	2213.51
691.116	2139.79
691.305	2373.25
691.495	2188.94
691.684	2100.87
691.874	2164.36
692.063	2211.46
692.252	2262.66
692.442	2254.47
692.631	2178.7
692.82	2188.94
693.01	2184.84
693.199	2139.79
693.388	2094.73
693.578	2088.59
693.767	2277
693.956	2168.46
694.146	2250.38
694.335	2135.69
694.524	2121.35
694.713	2199.18
694.902	2289.29
695.092	2221.7
695.281	2094.73
695.47	2160.27
695.659	2100.87
695.848	2123.4
696.037	2125.45
696.226	2197.13
696.415	2035.34
696.604	2178.7
696.793	2094.73
696.982	2078.35
697.171	2180.75
697.36	2186.89
697.549	1953.42
697.738	2145.93
697.927	2076.3
698.116	2109.07
698.305	2145.93
698.494	2129.55
698.683	2098.83
698.872	2074.25
699.061	2078.35
699.25	1984.14
699.438	2135.69
699.627	2053.77
699.816	2041.48
700.005	2084.49
700.193	2121.35
700.382	2045.58
700.571	2029.2
700.76	1945.23
700.948	2021
701.137	1967.76
701.326	2021
701.514	2006.67
701.703	2025.1
701.892	2053.77
702.08	1980.04
702.269	1932.94
702.457	1932.94
702.646	1869.45
702.834	2039.44
703.023	1883.79
703.212	1912.46
703.4	1908.37
703.589	1992.33
703.777	2070.16
703.965	2002.57
704.154	1867.41
704.342	1869.45
704.531	1900.17
704.719	1859.21
704.907	1914.51
705.096	1857.17
705.284	1922.7
705.472	1885.84
705.661	1902.22
705.849	1785.49
706.037	1910.41
706.226	1861.26
706.414	1846.93
706.602	1846.93
706.79	1889.93
706.979	1900.17
707.167	1785.49
707.355	1857.17
707.543	1818.25
707.731	1908.37
707.919	1857.17
708.107	1836.69
708.296	1824.4
708.484	1818.25
708.672	1816.21
708.86	1885.84
709.048	1822.35
709.236	1859.21
709.424	1748.62
709.612	1678.99
709.8	1797.78
709.988	1767.06
710.176	1865.36
710.364	1803.92
710.551	1775.25
710.739	1767.06
710.927	1726.1
711.115	1752.72
711.303	1713.81
711.491	1728.14
711.679	1726.1
711.866	1668.75
712.054	1754.77
712.242	1814.16
712.43	1779.34
712.617	1713.81
712.805	1793.68
712.993	1724.05
713.181	1611.41
713.368	1701.52
713.556	1711.76
713.744	1617.55
713.931	1742.48
714.119	1695.38
714.306	1670.8
714.494	1625.75
714.682	1662.61
714.869	1629.84
715.057	1625.75
715.244	1730.19
715.432	1638.03
715.619	1603.22
715.807	1695.38
715.994	1791.63
716.182	1607.31
716.369	1597.07
716.556	1619.6
716.744	1726.1
716.931	1545.88
717.119	1660.56
717.306	1613.46
717.493	1523.35
717.681	1523.35
717.868	1603.22
718.055	1646.23
718.242	1480.34
718.43	1527.44
718.617	1543.83
718.804	1590.93
718.991	1605.27
719.179	1545.88
719.366	1652.37
719.553	1578.64
719.74	1650.32
719.927	1566.35
720.114	1439.38
720.301	1595.03
720.488	1506.96
720.676	1492.63
720.863	1463.96
721.05	1533.59
721.237	1572.5
721.424	1539.73
721.611	1517.2
721.798	1541.78
721.985	1480.34
722.172	1539.73
722.358	1500.82
722.545	1449.62
722.732	1509.01
722.919	1455.76
723.106	1459.86
723.293	1351.32
723.48	1500.82
723.667	1488.53
723.853	1390.23
724.04	1384.09
724.227	1373.85
724.414	1502.87
724.6	1488.53
724.787	1529.49
724.974	1453.72
725.161	1408.66
725.347	1392.28
725.534	1406.61
725.72	1455.76
725.907	1431.19
726.094	1492.63
726.28	1365.65
726.467	1437.33
726.653	1435.28
726.84	1369.75
727.027	1511.06
727.213	1418.9
727.4	1539.73
727.586	1349.27
727.773	1437.33
727.959	1359.51
728.145	1390.23
728.332	1429.14
728.518	1418.9
728.705	1406.61
728.891	1334.93
729.077	1410.71
729.264	1328.79
729.45	1384.09
729.636	1390.23
729.823	1392.28
730.009	1300.12
730.195	1341.08
730.382	1472.15
730.568	1312.41
730.754	1400.47
730.94	1332.89
731.126	1343.13
731.313	1382.04
731.499	1439.38
731.685	1384.09
731.871	1353.37
732.057	1449.62
732.243	1414.81
732.429	1300.12
732.615	1373.85
732.801	1423
732.987	1437.33
733.173	1355.41
733.359	1332.89
733.545	1336.98
733.731	1234.58
733.917	1330.84
734.103	1367.7
734.289	1328.79
734.475	1244.82
734.661	1388.18
734.847	1316.5
735.033	1291.93
735.219	1277.59
735.404	1336.98
735.59	1312.41
735.776	1490.58
735.962	1250.97
736.148	1255.06
736.333	1332.89
736.519	1379.99
736.705	1296.02
736.89	1255.06
737.076	1330.84
737.262	1304.21
737.447	1248.92
737.633	1242.78
737.819	1330.84
738.004	1177.24
738.19	1253.02
738.375	1269.4
738.561	1134.23
738.747	1259.16
738.932	1195.67
739.118	1230.49
739.303	1240.73
739.489	1285.78
739.674	1253.02
739.859	1269.4
740.045	1300.12
740.23	1189.53
740.416	1164.95
740.601	1173.14
740.786	1336.98
740.972	1277.59
741.157	1212.06
741.342	1197.72
741.528	1152.67
741.713	1220.25
741.898	1177.24
742.084	1080.99
742.269	1191.58
742.454	1220.25
742.639	1121.95
742.824	1115.8
743.01	1236.63
743.195	1173.14
743.38	1185.43
743.565	1107.61
743.75	1117.85
743.935	1121.95
744.12	1263.26
744.305	1021.6
744.49	1244.82
744.675	1193.62
744.86	1175.19
745.045	1134.23
745.23	1103.51
745.415	1107.61
745.6	1183.38
745.785	1072.79
745.97	1132.19
746.155	1105.56
746.34	1056.41
746.525	1044.12
746.71	962.2
746.895	997.02
747.079	1011.36
747.264	1062.55
747.449	1070.75
747.634	1117.85
747.819	1031.83
748.003	1042.07
748.188	1070.75
748.373	1072.79
748.557	1007.26
748.742	951.96
748.927	1040.03
749.111	898.72
749.296	990.88
749.481	990.88
749.665	968.35
749.85	978.59
750.034	960.16
750.219	931.48
750.404	921.24
750.588	949.92
750.773	947.87
750.957	949.92
751.141	947.87
751.326	927.39
751.51	947.87
751.695	915.1
751.879	904.86
752.064	843.42
752.248	859.81
752.432	900.76
752.617	878.24
752.801	863.9
752.985	829.09
753.17	878.24
753.354	945.82
753.538	851.61
753.722	933.53
753.907	882.33
754.091	835.23
754.275	824.99
754.459	906.91
754.643	738.98
754.828	714.4
755.012	798.37
755.196	765.6
755.38	773.79
755.564	743.07
755.748	810.65
755.932	755.36
756.116	810.65
756.3	796.32
756.484	738.98
756.668	763.55
756.852	728.74
757.036	732.83
757.22	784.03
757.404	730.78
757.588	771.74
757.772	669.34
757.956	824.99
758.14	716.45
758.323	749.22
758.507	591.52
758.691	751.26
758.875	687.78
759.059	673.44
759.242	638.62
759.426	695.97
759.61	644.77
759.794	689.82
759.977	734.88
760.161	669.34
760.345	661.15
760.528	640.67
760.712	652.96
760.895	677.54
761.079	589.47
761.263	671.39
761.446	616.1
761.63	687.78
761.813	657.06
761.997	593.57
762.18	603.81
762.364	568.99
762.547	591.52
762.731	579.23
762.914	612
763.098	663.2
763.281	614.05
763.464	620.19
763.648	599.71
763.831	624.29
764.015	558.75
764.198	646.82
764.381	628.39
764.564	659.1
764.748	564.9
764.931	636.58
765.114	581.28
765.297	575.14
765.481	548.51
765.664	538.27
765.847	538.27
766.03	544.42
766.213	523.94
766.397	564.9
766.58	612
766.763	577.19
766.946	564.9
767.129	521.89
767.312	544.42
767.495	501.41
767.678	544.42
767.861	564.9
768.044	560.8
768.227	591.52
768.41	591.52
768.593	444.07
768.776	534.18
768.959	523.94
769.142	556.71
769.324	499.36
769.507	515.75
769.69	566.95
769.873	456.36
770.056	536.23
770.239	511.65
770.421	515.75
770.604	507.55
770.787	550.56
770.97	460.45
771.152	497.32
771.335	507.55
771.518	403.11
771.7	437.92
771.883	548.51
772.066	444.07
772.248	568.99
772.431	427.68
772.613	530.08
772.796	429.73
772.978	501.41
773.161	458.4
773.343	495.27
773.526	437.92
773.708	405.16
773.891	435.88
774.073	480.93
774.256	523.94
774.438	429.73
774.621	448.16
774.803	358.05
774.985	429.73
775.168	429.73
775.35	487.08
775.532	362.15
775.715	435.88
775.897	370.34
776.079	382.63
776.261	425.64
776.444	425.64
776.626	411.3
776.808	368.29
776.99	378.53
777.173	478.88
777.355	362.15
777.537	394.92
777.719	421.54
777.901	388.77
778.083	401.06
778.265	372.39
778.447	431.78
778.629	382.63
778.811	392.87
778.993	337.57
779.175	360.1
779.357	407.2
779.539	333.48
779.721	358.05
779.903	306.85
780.085	366.25
780.267	347.81
780.449	372.39
780.631	343.72
780.812	396.96
780.994	362.15
781.176	362.15
781.358	294.57
781.54	290.47
781.721	349.86
781.903	310.95
782.085	321.19
782.267	337.57
782.448	278.18
782.63	343.72
782.812	247.46
782.993	349.86
783.175	292.52
783.357	321.19
783.538	257.7
783.72	261.8
783.901	272.04
784.083	333.48
784.264	325.29
784.446	315.05
784.627	272.04
784.809	278.18
784.99	304.81
785.172	229.03
785.353	265.89
785.535	263.85
785.716	224.94
785.897	214.7
786.079	253.61
786.26	269.99
786.441	186.02
786.623	267.94
786.804	216.74
786.985	247.46
787.167	259.75
787.348	276.13
787.529	294.57
787.71	247.46
787.891	302.76
788.073	257.7
788.254	177.83
788.435	251.56
788.616	265.89
788.797	218.79
788.978	204.46
789.159	173.74
789.34	292.52
789.522	151.21
789.703	269.99
789.884	231.08
790.065	165.54
790.246	220.84
790.427	188.07
790.607	179.88
790.788	237.22
790.969	114.34
791.15	208.55
791.331	173.74
791.512	175.78
791.693	226.98
791.874	171.69
792.054	136.87
792.235	229.03
792.416	198.31
792.597	138.92
792.778	122.54
792.958	163.5
793.139	259.75
793.32	106.15
793.5	175.78
793.681	196.26
793.862	226.98
794.042	186.02
794.223	171.69
794.404	188.07
794.584	202.41
794.765	280.23
794.945	192.17
795.126	143.02
795.306	149.16
795.487	145.06
795.667	124.58
795.848	143.02
796.028	126.63
796.209	186.02
796.389	206.5
796.57	118.44
796.75	120.49
796.93	173.74
797.111	233.13
797.291	161.45
797.471	155.3
797.652	104.11
797.832	147.11
798.012	147.11
798.192	91.82
798.373	153.26
798.553	186.02
798.733	153.26
798.913	202.41
799.093	192.17
799.274	165.54
799.454	177.83
799.634	190.12
799.814	167.59
799.994	251.56
800.174	61.1
800.354	108.2
800.534	136.87
800.714	100.01
800.894	126.63
801.074	106.15
801.254	136.87
801.434	95.91
801.614	163.5
801.794	114.34
801.974	362.15
802.154	71.34
802.334	108.2
802.514	100.01
802.693	122.54
802.873	97.96
803.053	126.63
803.233	194.22
803.413	118.44
803.592	75.43
803.772	155.3
803.952	59.05
804.131	118.44
804.311	124.58
804.491	108.2
804.67	153.26
804.85	97.96
805.03	122.54
805.209	169.64
805.389	44.71
805.568	87.72
805.748	61.1
805.928	175.78
806.107	65.19
806.287	165.54
806.466	81.58
806.646	69.29
806.825	89.77
807.004	171.69
807.184	104.11
807.363	79.53
807.543	85.67
807.722	63.15
807.901	100.01
808.081	110.25
808.26	89.77
808.439	108.2
808.619	108.2
808.798	63.15
808.977	87.72
809.156	128.68
809.336	116.39
809.515	155.3
809.694	124.58
809.873	128.68
810.052	81.58
810.231	81.58
810.411	104.11
810.59	91.82
810.769	100.01
810.948	155.3
811.127	145.06
811.306	134.82
811.485	65.19
811.664	130.73
811.843	100.01
812.022	52.91
812.201	71.34
812.38	89.77
812.559	-8.53
812.737	89.77
812.916	87.72
813.095	85.67
813.274	147.11
813.453	67.24
813.632	50.86
813.811	38.57
813.989	5.8
814.168	104.11
814.347	128.68
814.526	69.29
814.704	116.39
814.883	42.67
815.062	81.58
815.24	110.25
815.419	79.53
815.598	106.15
815.776	52.91
815.955	13.99
816.133	77.48
816.312	120.49
816.49	89.77
816.669	106.15
816.847	11.95
817.026	91.82
817.204	61.1
817.383	120.49
817.561	69.29
817.74	48.81
817.918	16.04
818.097	63.15
818.275	65.19
818.453	30.38
818.632	71.34
818.81	77.48
818.988	87.72
819.167	-6.49
819.345	79.53
819.523	114.34
819.701	54.95
819.879	112.3
820.058	57
820.236	81.58
820.414	34.47
820.592	73.39
820.77	38.57
820.948	38.57
821.127	54.95
821.305	65.19
821.483	69.29
821.661	110.25
821.839	28.33
822.017	128.68
822.195	63.15
822.373	95.91
822.551	20.14
822.729	79.53
822.907	59.05
823.085	81.58
823.262	91.82
823.44	42.67
823.618	63.15
823.796	104.11
823.974	-2.39
824.152	32.43
824.329	38.57
824.507	106.15
824.685	-10.58
824.863	69.29
825.04	30.38
825.218	54.95
825.396	34.47
825.574	77.48
825.751	-47.44
825.929	44.71
826.107	16.04
826.284	11.95
826.462	30.38
826.639	77.48
826.817	57
826.994	75.43
827.172	42.67
827.349	75.43
827.527	-37.2
827.704	28.33
827.882	71.34
828.059	79.53
828.237	-16.73
828.414	38.57
828.591	46.76
828.769	77.48
828.946	11.95
829.124	30.38
829.301	28.33
829.478	54.95
829.655	75.43
829.833	26.28
830.01	73.39
830.187	73.39
830.364	-10.58
830.542	5.8
830.719	46.76
830.896	30.38
831.073	-26.96
831.25	-35.16
831.427	44.71
831.604	-33.11
831.782	-4.44
831.959	16.04
832.136	11.95
832.313	26.28
832.49	-18.77
832.667	11.95
832.844	100.01
833.021	42.67
833.198	50.86
833.374	46.76
833.551	-45.4
833.728	20.14
833.905	36.52
834.082	-10.58
834.259	-63.83
834.436	46.76
834.612	-14.68
834.789	63.15
834.966	34.47
835.143	73.39
835.319	-20.82
835.496	71.34
835.673	-61.78
835.85	48.81
836.026	38.57
836.203	30.38
836.38	38.57
836.556	24.23
836.733	-33.11
836.909	20.14
837.086	16.04
837.262	-10.58
837.439	85.67
837.616	40.62
837.792	7.85
837.968	34.47
838.145	48.81
838.321	26.28
838.498	-35.16
838.674	36.52
838.851	3.75
839.027	116.39
839.203	22.19
839.38	34.47
839.556	-10.58
839.732	20.14
839.909	71.34
840.085	28.33
840.261	34.47
840.437	-0.34
840.614	32.43
840.79	48.81
840.966	11.95
841.142	7.85
841.318	54.95
841.494	24.23
841.671	-55.64
841.847	16.04
842.023	-59.73
842.199	-55.64
842.375	50.86
842.551	73.39
842.727	36.52
842.903	-43.35
843.079	42.67
843.255	44.71
843.431	69.29
843.607	67.24
843.783	-6.49
843.959	-37.2
844.134	1.71
844.31	71.34
844.486	26.28
844.662	13.99
844.838	11.95
845.013	13.99
845.189	83.63
845.365	38.57
845.541	-6.49
845.716	-55.64
845.892	18.09
846.068	13.99
846.244	13.99
846.419	36.52
846.595	-6.49
846.77	46.76
846.946	3.75
847.122	-18.77
847.297	-31.06
847.473	40.62
847.648	38.57
847.824	65.19
847.999	-24.92
848.175	3.75
848.35	30.38
848.526	32.43
848.701	-2.39
848.876	46.76
849.052	52.91
849.227	71.34
849.403	36.52
849.578	24.23
849.753	-6.49
849.929	13.99
850.104	-67.92
850.279	-2.39
850.454	5.8
850.63	50.86
850.805	9.9
850.98	1.71
851.155	3.75
851.33	-4.44
851.505	-10.58
851.681	32.43
851.856	-22.87
852.031	-8.53
852.206	26.28
852.381	-31.06
852.556	22.19
852.731	7.85
852.906	-33.11
853.081	-10.58
853.256	54.95
853.431	-2.39
853.606	-35.16
853.781	-45.4
853.956	24.23
854.131	-22.87
854.305	-0.34
854.48	16.04
854.655	40.62
854.83	36.52
855.005	46.76
855.18	13.99
855.354	-55.64
855.529	-72.02
855.704	-72.02
855.879	24.23
856.053	11.95
856.228	16.04
856.403	-0.34
856.577	-22.87
856.752	-24.92
856.926	42.67
857.101	-76.12
857.276	-51.54
857.45	9.9
857.625	-49.49
857.799	87.72
857.974	-47.44
858.148	-16.73
858.323	-12.63
858.497	-39.25
858.672	-20.82
858.846	-14.68
859.02	30.38
859.195	-20.82
859.369	13.99
859.543	-18.77
859.718	63.15
859.892	-20.82
860.066	73.39
860.241	-51.54
860.415	-16.73
860.589	-82.26
860.763	-16.73
860.938	3.75
861.112	34.47
861.286	34.47
861.46	42.67
861.634	-18.77
861.808	-22.87
861.982	-8.53
862.157	7.85
862.331	20.14
862.505	24.23
862.679	-53.59
862.853	-67.92
863.027	-8.53
863.201	-12.63
863.375	9.9
863.549	38.57
863.722	-43.35
863.896	3.75
864.07	73.39
864.244	-33.11
864.418	26.28
864.592	7.85
864.766	-43.35
864.939	-16.73
865.113	-29.01
865.287	-43.35
865.461	1.71
865.634	24.23
865.808	40.62
865.982	-29.01
866.156	-16.73
866.329	100.01
866.503	100.01
866.676	28.33
866.85	-18.77
867.024	13.99
867.197	-24.92
867.371	-6.49
867.544	48.81
867.718	13.99
867.891	46.76
868.065	22.19
868.238	-51.54
868.412	-2.39
868.585	7.85
868.759	57
868.932	-6.49
869.105	28.33
869.279	-20.82
869.452	-26.96
869.625	-90.45
869.799	22.19
869.972	16.04
870.145	-16.73
870.319	-24.92
870.492	46.76
870.665	-55.64
870.838	81.58
871.011	9.9
871.185	20.14
871.358	-45.4
871.531	57
871.704	-47.44
871.877	63.15
872.05	34.47
872.223	-26.96
872.396	22.19
872.569	18.09
872.742	-10.58
872.915	71.34
873.088	-31.06
873.261	5.8
873.434	-24.92
873.607	-14.68
873.78	-10.58
873.953	-45.4
874.126	-6.49
874.299	13.99
874.471	5.8
874.644	-55.64
874.817	-22.87
874.99	32.43
875.163	-39.25
875.335	22.19
875.508	-16.73
875.681	-12.63
875.853	-67.92
876.026	-29.01
876.199	36.52
876.371	-51.54
876.544	13.99
876.717	73.39
876.889	54.95
877.062	59.05
877.234	-47.44
877.407	-63.83
877.579	-55.64
877.752	44.71
877.924	5.8
878.097	-65.88
878.269	-43.35
878.442	46.76
878.614	-26.96
878.786	-8.53
878.959	13.99
879.131	-4.44
879.303	-2.39
879.476	-22.87
879.648	-69.97
879.82	26.28
879.993	-51.54
880.165	-16.73
880.337	-29.01
880.509	-20.82
880.681	-41.3
880.854	-72.02
881.026	-43.35
881.198	46.76
881.37	26.28
881.542	46.76
881.714	34.47
881.886	59.05
882.058	-0.34
882.23	-2.39
882.402	-0.34
882.574	63.15
882.746	-6.49
882.918	54.95
883.09	-43.35
883.262	-2.39
883.434	-26.96
883.606	-10.58
883.778	-53.59
883.95	24.23
884.122	-45.4
884.293	42.67
884.465	-37.2
884.637	-84.31
884.809	-4.44
884.98	100.01
885.152	-63.83
885.324	30.38
885.496	-47.44
885.667	-22.87
885.839	-35.16
886.011	104.11
886.182	9.9
886.354	-12.63
886.525	30.38
886.697	-39.25
886.869	16.04
887.04	-55.64
887.212	9.9
887.383	-45.4
887.555	20.14
887.726	30.38
887.897	13.99
888.069	-45.4
888.24	22.19
888.412	1.71
888.583	-37.2
888.754	7.85
888.926	-59.73
889.097	-10.58
889.268	-84.31
889.44	-33.11
889.611	-26.96
889.782	-63.83
889.953	-53.59
890.125	42.67
890.296	-4.44
890.467	-43.35
890.638	50.86
890.809	42.67
890.98	-53.59
891.151	-41.3
891.323	36.52
891.494	16.04
891.665	-86.36
891.836	-43.35
892.007	-117.08
892.178	9.9
892.349	-33.11
892.52	106.15
892.691	7.85
892.862	20.14
893.032	1.71
893.203	-59.73
893.374	-0.34
893.545	3.75
893.716	-72.02
893.887	-47.44
894.057	-72.02
894.228	-18.77
894.399	-4.44
894.57	-14.68
894.74	-61.78
894.911	-26.96
895.082	-31.06
895.253	-37.2
895.423	-26.96
895.594	16.04
895.764	3.75
895.935	26.28
896.106	-61.78
896.276	-10.58
896.447	16.04
896.617	36.52
896.788	-14.68
896.958	-0.34
897.129	-51.54
897.299	16.04
897.47	-39.25
897.64	-31.06
897.81	30.38
897.981	-22.87
898.151	-65.88
898.322	-51.54
898.492	-2.39
898.662	48.81
898.832	-35.16
899.003	-39.25
899.173	-65.88
899.343	13.99
899.513	-22.87
