Data from USB4F104151__37__12-58-58-186.txt Node

Date: Fri Mar 14 12:58:58 EDT 2025
User: louis
Spectrometer: USB4F10415
Trigger mode: 4
Integration Time (sec): 1.000000E-2
Scans to average: 1
Electric dark correction enabled: true
Nonlinearity correction enabled: false
Boxcar width: 0
XAxis mode: Wavelengths
Number of Pixels in Spectrum: 3648
>>>>>Begin Spectral Data<<<<<
178.204	-17.24
178.424	-17.24
178.644	-17.24
178.864	-15.19
179.084	-11.09
179.304	13.48
179.524	-35.67
179.744	-54.1
179.964	23.72
180.184	19.63
180.404	23.72
180.624	15.53
180.844	-4.95
181.064	-19.29
181.283	40.11
181.503	-39.76
181.723	17.58
181.943	56.49
182.163	9.39
182.383	-43.86
182.602	103.59
182.822	56.49
183.042	-29.52
183.262	60.59
183.482	-11.09
183.701	29.87
183.921	17.58
184.141	36.01
184.361	-19.29
184.58	-17.24
184.8	38.06
185.02	-68.44
185.239	31.91
185.459	25.77
185.679	107.69
185.898	-58.2
186.118	29.87
186.338	3.24
186.557	79.02
186.777	15.53
186.997	74.92
187.216	31.91
187.436	113.83
187.655	19.63
187.875	48.3
188.095	-64.34
188.314	3.24
188.534	83.11
188.753	15.53
188.973	-50
189.192	-9.05
189.412	5.29
189.631	29.87
189.851	74.92
190.07	58.54
190.29	7.34
190.509	81.07
190.729	-25.43
190.948	36.01
191.168	52.39
191.387	25.77
191.607	-60.24
191.826	23.72
192.045	93.35
192.265	-27.48
192.484	60.59
192.704	-0.85
192.923	29.87
193.142	68.78
193.362	54.44
193.581	-33.62
193.8	-21.33
194.02	52.39
194.239	48.3
194.458	-7
194.678	-0.85
194.897	52.39
195.116	-19.29
195.335	-31.57
195.555	5.29
195.774	-19.29
195.993	-45.91
196.212	19.63
196.432	25.77
196.651	46.25
196.87	-17.24
197.089	-15.19
197.308	7.34
197.528	-0.85
197.747	58.54
197.966	-31.57
198.185	9.39
198.404	1.19
198.623	27.82
198.842	105.64
199.062	58.54
199.281	89.26
199.5	68.78
199.719	79.02
199.938	21.67
200.157	21.67
200.376	31.91
200.595	54.44
200.814	-13.14
201.033	56.49
201.252	-62.29
201.471	81.07
201.69	50.35
201.909	-47.96
202.128	-25.43
202.347	72.87
202.566	7.34
202.785	-39.76
203.004	-11.09
203.223	85.16
203.442	11.43
203.661	25.77
203.879	-4.95
204.098	29.87
204.317	27.82
204.536	-2.9
204.755	79.02
204.974	38.06
205.193	70.83
205.411	79.02
205.63	-41.81
205.849	64.68
206.068	87.21
206.287	-31.57
206.505	70.83
206.724	7.34
206.943	68.78
207.162	27.82
207.381	38.06
207.599	38.06
207.818	5.29
208.037	33.96
208.255	-11.09
208.474	79.02
208.693	-13.14
208.911	23.72
209.13	-11.09
209.349	19.63
209.567	50.35
209.786	89.26
210.005	87.21
210.223	46.25
210.442	7.34
210.661	3.24
210.879	-41.81
211.098	27.82
211.316	-13.14
211.535	-9.05
211.753	-39.76
211.972	13.48
212.191	64.68
212.409	7.34
212.628	50.35
212.846	29.87
213.065	91.31
213.283	70.83
213.502	64.68
213.72	17.58
213.938	-4.95
214.157	-82.77
214.375	9.39
214.594	48.3
214.812	33.96
215.031	-15.19
215.249	3.24
215.467	72.87
215.686	46.25
215.904	74.92
216.122	-4.95
216.341	11.43
216.559	9.39
216.778	-19.29
216.996	-33.62
217.214	17.58
217.432	79.02
217.651	33.96
217.869	40.11
218.087	-33.62
218.306	64.68
218.524	44.2
218.742	17.58
218.96	7.34
219.179	1.19
219.397	-25.43
219.615	50.35
219.833	76.97
220.051	15.53
220.27	-52.05
220.488	-43.86
220.706	1.19
220.924	-9.05
221.142	-7
221.36	56.49
221.578	-41.81
221.796	7.34
222.015	-33.62
222.233	70.83
222.451	-11.09
222.669	97.45
222.887	40.11
223.105	79.02
223.323	-50
223.541	13.48
223.759	-31.57
223.977	9.39
224.195	29.87
224.413	21.67
224.631	7.34
224.849	-0.85
225.067	113.83
225.285	-4.95
225.503	13.48
225.721	-7
225.939	50.35
226.157	40.11
226.375	42.15
226.592	52.39
226.81	48.3
227.028	-74.58
227.246	44.2
227.464	40.11
227.682	17.58
227.9	19.63
228.117	31.91
228.335	54.44
228.553	29.87
228.771	66.73
228.989	5.29
229.206	25.77
229.424	5.29
229.642	52.39
229.86	-64.34
230.077	54.44
230.295	62.63
230.513	25.77
230.731	19.63
230.948	-0.85
231.166	91.31
231.384	31.91
231.601	-2.9
231.819	64.68
232.037	-13.14
232.254	17.58
232.472	-35.67
232.689	-31.57
232.907	-0.85
233.125	15.53
233.342	-0.85
233.56	40.11
233.777	-15.19
233.995	-0.85
234.213	15.53
234.43	19.63
234.648	17.58
234.865	72.87
235.083	38.06
235.3	-0.85
235.518	25.77
235.735	25.77
235.953	-27.48
236.17	70.83
236.388	-25.43
236.605	5.29
236.822	44.2
237.04	72.87
237.257	42.15
237.475	1.19
237.692	-19.29
237.909	70.83
238.127	38.06
238.344	-17.24
238.562	91.31
238.779	56.49
238.996	-9.05
239.214	-33.62
239.431	38.06
239.648	19.63
239.865	-23.38
240.083	11.43
240.3	29.87
240.517	-43.86
240.735	25.77
240.952	42.15
241.169	56.49
241.386	38.06
241.603	-0.85
241.821	-0.85
242.038	23.72
242.255	-19.29
242.472	81.07
242.689	5.29
242.907	-19.29
243.124	11.43
243.341	-19.29
243.558	-11.09
243.775	101.55
243.992	-31.57
244.209	62.63
244.426	46.25
244.643	54.44
244.86	-4.95
245.078	70.83
245.295	5.29
245.512	29.87
245.729	-9.05
245.946	21.67
246.163	5.29
246.38	29.87
246.597	46.25
246.814	50.35
247.031	-35.67
247.248	-11.09
247.464	42.15
247.681	5.29
247.898	-43.86
248.115	76.97
248.332	42.15
248.549	79.02
248.766	-2.9
248.983	60.59
249.2	17.58
249.417	-39.76
249.633	38.06
249.85	-4.95
250.067	17.58
250.284	42.15
250.501	19.63
250.717	58.54
250.934	11.43
251.151	-23.38
251.368	-9.05
251.585	72.87
251.801	-27.48
252.018	-7
252.235	19.63
252.451	1.19
252.668	-27.48
252.885	42.15
253.102	3.24
253.318	33.96
253.535	-45.91
253.752	25.77
253.968	52.39
254.185	72.87
254.401	29.87
254.618	7.34
254.835	70.83
255.051	46.25
255.268	36.01
255.484	42.15
255.701	-4.95
255.917	36.01
256.134	-7
256.351	13.48
256.567	19.63
256.784	36.01
257	11.43
257.217	-19.29
257.433	-2.9
257.65	-2.9
257.866	-41.81
258.082	15.53
258.299	23.72
258.515	13.48
258.732	3.24
258.948	1.19
259.165	3.24
259.381	27.82
259.597	-29.52
259.814	5.29
260.03	62.63
260.246	-2.9
260.463	5.29
260.679	107.69
260.895	-13.14
261.112	15.53
261.328	-45.91
261.544	-7
261.761	87.21
261.977	72.87
262.193	13.48
262.409	21.67
262.626	-7
262.842	29.87
263.058	-17.24
263.274	70.83
263.49	54.44
263.707	72.87
263.923	-27.48
264.139	-13.14
264.355	27.82
264.571	29.87
264.787	44.2
265.004	-25.43
265.22	66.73
265.436	-17.24
265.652	50.35
265.868	15.53
266.084	58.54
266.3	38.06
266.516	-23.38
266.732	-4.95
266.948	-50
267.164	50.35
267.38	-15.19
267.596	87.21
267.812	44.2
268.028	56.49
268.244	-27.48
268.46	15.53
268.676	38.06
268.892	25.77
269.108	36.01
269.324	83.11
269.54	23.72
269.756	21.67
269.972	5.29
270.188	3.24
270.403	89.26
270.619	-9.05
270.835	48.3
271.051	93.35
271.267	17.58
271.483	48.3
271.698	31.91
271.914	103.59
272.13	-27.48
272.346	36.01
272.562	25.77
272.777	9.39
272.993	52.39
273.209	60.59
273.425	-41.81
273.64	-43.86
273.856	-9.05
274.072	23.72
274.287	44.2
274.503	-27.48
274.719	-13.14
274.934	40.11
275.15	-25.43
275.366	52.39
275.581	17.58
275.797	-9.05
276.012	48.3
276.228	-66.39
276.444	46.25
276.659	15.53
276.875	-50
277.09	27.82
277.306	48.3
277.521	40.11
277.737	17.58
277.952	23.72
278.168	-0.85
278.383	29.87
278.599	-37.72
278.814	-35.67
279.03	-0.85
279.245	111.78
279.461	25.77
279.676	-13.14
279.892	-27.48
280.107	-23.38
280.322	54.44
280.538	-31.57
280.753	50.35
280.969	5.29
281.184	-13.14
281.399	87.21
281.615	-19.29
281.83	-74.58
282.045	99.5
282.26	-52.05
282.476	-39.76
282.691	48.3
282.906	7.34
283.122	-13.14
283.337	58.54
283.552	17.58
283.767	-19.29
283.983	89.26
284.198	25.77
284.413	33.96
284.628	48.3
284.843	83.11
285.058	66.73
285.274	9.39
285.489	46.25
285.704	-0.85
285.919	-11.09
286.134	54.44
286.349	36.01
286.564	66.73
286.779	-56.15
286.995	74.92
287.21	-43.86
287.425	97.45
287.64	15.53
287.855	33.96
288.07	25.77
288.285	3.24
288.5	48.3
288.715	-7
288.93	7.34
289.145	9.39
289.36	19.63
289.575	70.83
289.79	25.77
290.004	48.3
290.219	62.63
290.434	-11.09
290.649	-13.14
290.864	15.53
291.079	38.06
291.294	31.91
291.509	3.24
291.724	-25.43
291.938	-31.57
292.153	-27.48
292.368	-4.95
292.583	15.53
292.798	64.68
293.012	17.58
293.227	68.78
293.442	60.59
293.657	-29.52
293.871	25.77
294.086	64.68
294.301	60.59
294.516	54.44
294.73	27.82
294.945	38.06
295.16	29.87
295.374	87.21
295.589	-23.38
295.804	-13.14
296.018	33.96
296.233	29.87
296.447	68.78
296.662	21.67
296.877	50.35
297.091	50.35
297.306	46.25
297.52	-4.95
297.735	40.11
297.949	21.67
298.164	1.19
298.378	-47.96
298.593	105.64
298.807	68.78
299.022	36.01
299.236	-9.05
299.451	-2.9
299.665	9.39
299.88	3.24
300.094	27.82
300.309	29.87
300.523	23.72
300.737	15.53
300.952	3.24
301.166	3.24
301.381	48.3
301.595	38.06
301.809	1.19
302.024	-21.33
302.238	27.82
302.452	33.96
302.667	48.3
302.881	-31.57
303.095	58.54
303.309	-21.33
303.524	56.49
303.738	-0.85
303.952	11.43
304.166	58.54
304.381	-43.86
304.595	19.63
304.809	25.77
305.023	-7
305.237	54.44
305.452	-27.48
305.666	48.3
305.88	66.73
306.094	9.39
306.308	107.69
306.522	52.39
306.736	3.24
306.95	33.96
307.164	62.63
307.379	-31.57
307.593	21.67
307.807	66.73
308.021	62.63
308.235	-17.24
308.449	25.77
308.663	5.29
308.877	72.87
309.091	-47.96
309.305	83.11
309.519	50.35
309.733	-29.52
309.947	-45.91
310.161	-25.43
310.374	1.19
310.588	99.5
310.802	21.67
311.016	3.24
311.23	-4.95
311.444	83.11
311.658	-33.62
311.872	31.91
312.085	9.39
312.299	7.34
312.513	19.63
312.727	83.11
312.941	-7
313.154	-7
313.368	48.3
313.582	29.87
313.796	-29.52
314.009	40.11
314.223	-2.9
314.437	-2.9
314.651	17.58
314.864	-41.81
315.078	27.82
315.292	48.3
315.505	52.39
315.719	5.29
315.933	5.29
316.146	-9.05
316.36	-27.48
316.573	50.35
316.787	36.01
317.001	54.44
317.214	-2.9
317.428	31.91
317.641	38.06
317.855	62.63
318.068	56.49
318.282	79.02
318.495	-7
318.709	70.83
318.922	7.34
319.136	-0.85
319.349	23.72
319.563	97.45
319.776	152.74
319.99	-56.15
320.203	31.91
320.417	72.87
320.63	136.36
320.843	23.72
321.057	81.07
321.27	52.39
321.483	50.35
321.697	21.67
321.91	-19.29
322.124	36.01
322.337	76.97
322.55	-0.85
322.763	21.67
322.977	13.48
323.19	25.77
323.403	1.19
323.617	21.67
323.83	17.58
324.043	64.68
324.256	60.59
324.469	23.72
324.683	-41.81
324.896	29.87
325.109	7.34
325.322	36.01
325.535	15.53
325.748	17.58
325.962	62.63
326.175	-4.95
326.388	23.72
326.601	-2.9
326.814	3.24
327.027	25.77
327.24	46.25
327.453	-11.09
327.666	-23.38
327.879	79.02
328.092	85.16
328.305	66.73
328.518	66.73
328.731	33.96
328.944	-0.85
329.157	40.11
329.37	38.06
329.583	50.35
329.796	109.74
330.009	11.43
330.222	36.01
330.435	40.11
330.648	48.3
330.861	54.44
331.073	17.58
331.286	25.77
331.499	21.67
331.712	50.35
331.925	21.67
332.138	21.67
332.35	31.91
332.563	11.43
332.776	79.02
332.989	-74.58
333.202	-0.85
333.414	-9.05
333.627	-37.72
333.84	1.19
334.053	29.87
334.265	-17.24
334.478	29.87
334.691	25.77
334.903	48.3
335.116	-7
335.329	140.46
335.541	36.01
335.754	-0.85
335.966	21.67
336.179	40.11
336.392	115.88
336.604	46.25
336.817	19.63
337.029	70.83
337.242	25.77
337.454	72.87
337.667	54.44
337.88	-39.76
338.092	9.39
338.305	56.49
338.517	101.55
338.729	76.97
338.942	48.3
339.154	79.02
339.367	-17.24
339.579	9.39
339.792	9.39
340.004	29.87
340.217	23.72
340.429	48.3
340.641	31.91
340.854	7.34
341.066	15.53
341.278	62.63
341.491	70.83
341.703	33.96
341.915	-0.85
342.128	17.58
342.34	-0.85
342.552	19.63
342.764	40.11
342.977	56.49
343.189	48.3
343.401	44.2
343.613	1.19
343.826	40.11
344.038	-23.38
344.25	36.01
344.462	1.19
344.674	48.3
344.886	62.63
345.099	95.4
345.311	62.63
345.523	79.02
345.735	74.92
345.947	21.67
346.159	56.49
346.371	11.43
346.583	33.96
346.795	36.01
347.007	-21.33
347.219	11.43
347.431	31.91
347.643	48.3
347.855	-45.91
348.067	40.11
348.279	46.25
348.491	46.25
348.703	-11.09
348.915	70.83
349.127	19.63
349.339	79.02
349.551	-2.9
349.763	-7
349.975	13.48
350.187	87.21
350.399	-31.57
350.61	38.06
350.822	36.01
351.034	101.55
351.246	81.07
351.458	11.43
351.669	52.39
351.881	89.26
352.093	81.07
352.305	31.91
352.517	7.34
352.728	72.87
352.94	29.87
353.152	38.06
353.363	-31.57
353.575	46.25
353.787	54.44
353.999	99.5
354.21	38.06
354.422	62.63
354.633	-4.95
354.845	52.39
355.057	33.96
355.268	-23.38
355.48	-15.19
355.692	-11.09
355.903	13.48
356.115	-0.85
356.326	25.77
356.538	70.83
356.749	17.58
356.961	64.68
357.172	46.25
357.384	64.68
357.595	17.58
357.807	105.64
358.018	-21.33
358.23	17.58
358.441	93.35
358.653	64.68
358.864	-15.19
359.075	50.35
359.287	11.43
359.498	27.82
359.709	13.48
359.921	25.77
360.132	-62.29
360.344	-0.85
360.555	-4.95
360.766	21.67
360.977	15.53
361.189	40.11
361.4	56.49
361.611	9.39
361.823	40.11
362.034	54.44
362.245	25.77
362.456	42.15
362.667	87.21
362.879	23.72
363.09	15.53
363.301	-31.57
363.512	107.69
363.723	66.73
363.935	-15.19
364.146	38.06
364.357	29.87
364.568	115.88
364.779	52.39
364.99	31.91
365.201	74.92
365.412	52.39
365.623	25.77
365.834	13.48
366.045	-39.76
366.256	50.35
366.467	29.87
366.678	23.72
366.889	62.63
367.1	3.24
367.311	9.39
367.522	36.01
367.733	124.07
367.944	83.11
368.155	74.92
368.366	119.98
368.577	46.25
368.788	11.43
368.999	-39.76
369.209	25.77
369.42	36.01
369.631	134.31
369.842	68.78
370.053	31.91
370.264	52.39
370.474	66.73
370.685	1.19
370.896	62.63
371.107	-19.29
371.317	5.29
371.528	27.82
371.739	13.48
371.95	31.91
372.16	-43.86
372.371	-0.85
372.582	58.54
372.792	-4.95
373.003	46.25
373.214	48.3
373.424	31.91
373.635	33.96
373.846	62.63
374.056	27.82
374.267	25.77
374.477	15.53
374.688	-19.29
374.898	33.96
375.109	40.11
375.319	42.15
375.53	19.63
375.74	-11.09
375.951	60.59
376.161	29.87
376.372	9.39
376.582	52.39
376.793	1.19
377.003	33.96
377.214	27.82
377.424	23.72
377.635	83.11
377.845	21.67
378.055	93.35
378.266	21.67
378.476	83.11
378.686	21.67
378.897	136.36
379.107	5.29
379.317	95.4
379.528	52.39
379.738	-25.43
379.948	-29.52
380.158	79.02
380.369	-13.14
380.579	5.29
380.789	58.54
380.999	62.63
381.21	-13.14
381.42	126.12
381.63	87.21
381.84	13.48
382.05	66.73
382.261	62.63
382.471	36.01
382.681	87.21
382.891	-2.9
383.101	115.88
383.311	19.63
383.521	70.83
383.731	113.83
383.941	42.15
384.151	-31.57
384.361	11.43
384.571	7.34
384.781	56.49
384.991	46.25
385.201	29.87
385.411	56.49
385.621	44.2
385.831	-2.9
386.041	-41.81
386.251	79.02
386.461	5.29
386.671	56.49
386.881	7.34
387.091	66.73
387.301	-9.05
387.511	9.39
387.72	25.77
387.93	15.53
388.14	38.06
388.35	7.34
388.56	33.96
388.769	27.82
388.979	40.11
389.189	52.39
389.399	56.49
389.609	27.82
389.818	38.06
390.028	23.72
390.238	89.26
390.447	13.48
390.657	46.25
390.867	15.53
391.076	-2.9
391.286	64.68
391.496	-13.14
391.705	97.45
391.915	79.02
392.125	70.83
392.334	27.82
392.544	23.72
392.753	48.3
392.963	31.91
393.172	97.45
393.382	38.06
393.591	-2.9
393.801	36.01
394.01	83.11
394.22	124.07
394.429	70.83
394.639	119.98
394.848	21.67
395.058	81.07
395.267	99.5
395.477	-13.14
395.686	56.49
395.895	79.02
396.105	103.59
396.314	-9.05
396.524	117.93
396.733	66.73
396.942	81.07
397.152	56.49
397.361	70.83
397.57	38.06
397.78	128.17
397.989	-0.85
398.198	60.59
398.407	72.87
398.617	107.69
398.826	87.21
399.035	52.39
399.244	68.78
399.453	76.97
399.663	44.2
399.872	44.2
400.081	27.82
400.29	130.22
400.499	60.59
400.708	85.16
400.917	68.78
401.127	19.63
401.336	62.63
401.545	119.98
401.754	83.11
401.963	70.83
402.172	31.91
402.381	56.49
402.59	5.29
402.799	148.65
403.008	48.3
403.217	124.07
403.426	105.64
403.635	60.59
403.844	54.44
404.053	56.49
404.262	58.54
404.471	105.64
404.68	7.34
404.888	68.78
405.097	76.97
405.306	54.44
405.515	97.45
405.724	113.83
405.933	146.6
406.142	179.37
406.35	81.07
406.559	138.41
406.768	46.25
406.977	148.65
407.185	185.51
407.394	152.74
407.603	109.74
407.812	122.02
408.02	107.69
408.229	175.27
408.438	175.27
408.646	119.98
408.855	132.26
409.064	119.98
409.272	156.84
409.481	130.22
409.69	234.66
409.898	119.98
410.107	175.27
410.315	169.13
410.524	193.7
410.733	203.94
410.941	179.37
411.15	263.33
411.358	138.41
411.567	236.71
411.775	154.79
411.984	306.34
412.192	271.53
412.401	285.86
412.609	300.2
412.818	257.19
413.026	269.48
413.234	255.14
413.443	230.57
413.651	232.62
413.86	271.53
414.068	351.4
414.276	357.54
414.485	341.16
414.693	449.7
414.901	441.51
415.11	386.21
415.318	408.74
415.526	431.27
415.734	406.69
415.943	423.08
416.151	457.89
416.359	500.9
416.567	453.8
416.776	513.19
416.984	513.19
417.192	593.06
417.4	521.38
417.608	468.13
417.817	562.34
418.025	619.68
418.233	658.59
418.441	496.8
418.649	670.88
418.857	697.5
419.065	709.79
419.273	644.26
419.481	711.84
419.689	705.7
419.897	816.29
420.105	793.76
420.313	816.29
420.521	828.57
420.729	883.87
420.937	883.87
421.145	867.49
421.353	992.41
421.561	1016.99
421.769	1049.75
421.977	928.92
422.185	1002.65
422.393	1037.47
422.601	1305.75
422.809	1262.74
423.017	1186.97
423.224	1301.65
423.432	1369.24
423.64	1348.76
423.848	1473.68
424.056	1424.53
424.263	1442.96
424.471	1465.49
424.679	1563.79
424.887	1658
425.094	1617.04
425.302	1641.62
425.51	1698.96
425.718	1832.08
425.925	1719.44
426.133	1889.42
426.341	1860.75
426.548	1942.67
426.756	2000.01
426.964	2114.7
427.171	2190.47
427.379	2223.24
427.586	2194.57
427.794	2372.74
428.001	2425.99
428.209	2559.11
428.417	2448.52
428.624	2591.88
428.832	2636.93
429.039	2552.96
429.247	2745.47
429.454	2942.08
429.662	3093.63
429.869	2890.88
430.076	3171.45
430.284	3026.04
430.491	3026.04
430.699	3255.42
430.906	3292.28
431.114	3456.12
431.321	3585.14
431.528	3478.65
431.736	3810.42
431.943	3890.29
432.15	3867.76
432.358	3853.42
432.565	4050.03
432.772	4152.43
432.979	4203.63
433.187	4430.95
433.394	4521.06
433.601	4871.26
433.808	4709.47
434.016	4568.16
434.223	4836.45
434.43	5200.99
434.637	5133.4
434.844	5522.52
435.052	5395.54
435.259	5485.65
435.466	5502.04
435.673	5608.53
435.88	6063.18
436.087	6177.87
436.294	6196.3
436.501	5966.93
436.708	6057.04
436.915	6327.37
437.122	6685.76
437.329	6478.92
437.537	6876.23
437.743	6878.27
437.95	6763.59
438.157	7136.32
438.364	7439.42
438.571	7439.42
438.778	7504.95
438.985	8049.71
439.192	7773.24
439.399	8105.01
439.606	7885.87
439.813	8334.38
440.02	8791.08
440.227	8758.31
440.433	8635.43
440.64	8948.77
440.847	8625.19
441.054	8983.59
441.261	9479.19
441.467	9612.31
441.674	9755.67
441.881	10040.34
442.088	10011.67
442.294	10163.22
442.501	10357.77
442.708	10650.63
442.914	11131.9
443.121	11295.74
443.328	10771.46
443.534	11914.23
443.741	11490.3
443.948	11375.61
444.154	12428.27
444.361	12237.81
444.568	12243.95
444.774	12405.74
444.981	12284.91
445.187	12801
445.394	13368.29
445.6	13251.55
445.807	14482.38
446.013	13900.76
446.22	13839.32
446.426	14711.75
446.633	14887.88
446.839	15270.85
447.046	14683.08
447.252	15676.35
447.459	15551.42
447.665	15385.54
447.871	16214.96
448.078	16901.03
448.284	16176.05
448.491	16556.97
448.697	17238.95
448.903	17367.97
449.11	17570.72
449.316	17406.88
449.522	17847.19
449.728	18332.56
449.935	18252.69
450.141	18199.44
450.347	18471.82
450.553	18293.65
450.76	18441.11
450.966	19024.78
451.172	19141.51
451.378	19397.51
451.584	18969.48
451.791	19510.14
451.997	19432.32
452.203	19815.29
452.409	19696.51
452.615	19520.38
452.821	18903.95
453.027	18842.51
453.233	19811.2
453.44	19000.2
453.646	19379.07
453.852	19114.89
454.058	19739.52
454.264	19065.74
454.47	19573.63
454.676	19217.29
454.882	19678.08
455.088	18043.8
455.294	18248.6
455.5	18381.71
455.705	18666.38
455.911	17789.85
456.117	17685.4
456.323	17359.78
456.529	16497.58
456.735	17052.58
456.941	16767.91
457.147	16436.14
457.352	15930.3
457.558	15893.43
457.764	15842.23
457.97	15365.06
458.176	15401.92
458.381	15188.93
458.587	14521.29
458.793	14607.31
458.999	13900.76
459.204	14750.67
459.41	14349.26
459.616	13388.77
459.821	13540.32
460.027	13286.37
460.233	13034.47
460.438	12559.34
460.644	12538.86
460.85	11750.39
461.055	11928.56
461.261	11691
461.466	11129.86
461.672	10488.84
461.878	11369.47
462.083	10560.52
462.289	10505.23
462.494	10105.87
462.7	9860.12
462.905	9528.35
463.111	9813.01
463.316	9913.36
463.522	9681.94
463.727	9866.26
463.932	9509.91
464.138	9720.85
464.343	9616.41
464.549	9239.58
464.754	9571.35
464.959	9583.64
465.165	9649.18
465.37	9163.81
465.575	8930.34
465.781	9210.91
465.986	9163.81
466.191	8905.76
466.397	8842.28
466.602	8442.92
466.807	8688.68
467.012	8682.53
467.218	8627.24
467.423	8492.07
467.628	8569.9
467.833	8997.92
468.038	8657.96
468.244	8254.51
468.449	8760.36
468.654	8281.13
468.859	8350.76
469.064	8387.63
469.269	8006.7
469.474	8221.74
469.679	8266.8
469.885	8055.86
470.09	8086.58
470.295	8102.96
470.5	7930.93
470.705	7877.68
470.91	7672.89
471.115	7638.07
471.32	7537.72
471.525	7660.6
471.73	7609.4
471.935	7580.73
472.139	7304.25
472.344	7339.07
472.549	7316.54
472.754	7380.03
472.959	7029.82
473.164	6890.56
473.369	6917.19
473.574	7066.69
473.778	7212.09
473.983	6755.4
474.188	6966.34
474.393	6634.57
474.598	6714.44
474.802	6646.85
475.007	6521.93
475.212	6468.68
475.417	6308.94
475.621	6317.13
475.826	6372.43
476.031	6177.87
476.235	6151.24
476.44	6306.89
476.645	6022.22
476.849	5964.88
477.054	6028.37
477.259	5954.64
477.463	5839.95
477.668	5669.97
477.872	5854.29
478.077	5739.6
478.282	5678.16
478.486	5538.9
478.691	5649.49
478.895	5545.05
479.1	5598.29
479.304	5495.89
479.509	5450.84
479.713	5551.19
479.918	5268.57
480.122	5295.19
480.326	5315.67
480.531	5348.44
480.735	5289.05
480.94	5276.76
481.144	5432.41
481.348	5004.38
481.553	5272.67
481.757	5078.11
481.961	5151.84
482.166	5047.39
482.37	5209.18
482.574	5037.15
482.778	5045.34
482.983	5086.3
483.187	5055.58
483.391	5078.11
483.595	5119.07
483.8	5016.67
484.004	5088.35
484.208	5239.9
484.412	5112.92
484.616	5078.11
484.821	5209.18
485.025	5102.68
485.229	5069.92
485.433	5096.54
485.637	4942.94
485.841	4996.19
486.045	5114.97
486.249	5266.52
486.453	5112.92
486.657	5137.5
486.861	5135.45
487.065	4977.76
487.269	5153.88
487.473	4981.85
487.677	5180.51
487.881	5100.64
488.085	5270.62
488.289	5299.29
488.493	4996.19
488.697	5375.06
488.901	5276.76
489.105	4996.19
489.309	5299.29
489.512	5190.75
489.716	5309.53
489.92	5223.51
490.124	5147.74
490.328	5241.95
490.531	5301.34
490.735	5295.19
490.939	5321.82
491.143	5196.89
491.346	5221.47
491.55	5358.68
491.754	5270.62
491.958	5405.78
492.161	5303.39
492.365	5520.47
492.569	5389.4
492.772	5483.61
492.976	5452.89
493.18	5477.46
493.383	5530.71
493.587	5653.59
493.79	5684.31
493.994	5731.41
494.197	5633.11
494.401	5882.96
494.605	5618.77
494.808	5817.43
495.012	5887.06
495.215	6073.42
495.419	5975.12
495.622	5950.54
495.825	6050.89
496.029	6018.13
496.232	6214.73
496.436	6147.15
496.639	6442.06
496.843	6265.93
497.046	6382.67
497.249	6356.04
497.453	6474.82
497.656	6550.6
497.859	6519.88
498.063	6675.52
498.266	6841.41
498.469	6853.7
498.673	6792.26
498.876	7017.54
499.079	7031.87
499.282	7103.55
499.485	7138.37
499.689	7259.2
499.892	7457.85
500.095	7513.14
500.298	7478.33
500.501	7533.62
500.705	7832.63
500.908	7797.81
501.111	8078.38
501.314	7992.37
501.517	8016.94
501.72	8199.21
501.923	8107.05
502.126	8406.06
502.329	8600.62
502.532	8827.94
502.735	8688.68
502.938	8938.53
503.141	9042.98
503.344	9157.66
503.547	9073.7
503.75	9325.6
503.953	9335.84
504.156	9473.05
504.359	9663.51
504.562	9653.27
504.765	9966.61
504.968	9931.8
505.17	10028.05
505.373	10009.62
505.576	10294.29
505.779	10210.32
505.982	10511.37
506.185	10963.97
506.387	10793.99
506.59	10843.14
506.793	11058.18
506.996	11191.3
507.198	11404.28
507.401	11308.03
507.604	11492.35
507.807	11795.45
508.009	11842.55
508.212	11924.47
508.415	12119.03
508.617	12284.91
508.82	12248.05
509.022	12276.72
509.225	12555.24
509.428	13044.71
509.63	12815.34
509.833	12833.77
510.035	13212.64
510.238	13366.24
510.44	13542.36
510.643	13474.78
510.845	13880.28
511.048	13564.89
511.25	13831.13
511.453	14066.64
511.655	14554.06
511.858	14416.85
512.06	14576.59
512.262	14896.07
512.465	14687.18
512.667	15207.36
512.87	15123.4
513.072	15422.4
513.274	15508.41
513.477	15606.72
513.679	15870.9
513.881	16303.03
514.084	16358.32
514.286	16311.22
514.488	16532.4
514.69	17044.39
514.893	16843.69
515.095	17284
515.297	17220.52
515.499	17249.19
515.701	17623.97
515.904	17953.69
516.106	17699.74
516.308	18209.68
516.51	18461.58
516.712	18439.06
516.914	18563.98
517.116	19178.37
517.318	18994.06
517.52	19207.05
517.722	19047.3
517.925	19698.56
518.127	19538.82
518.329	19864.44
518.531	19796.86
518.733	20366.2
518.935	20427.63
519.136	20470.64
519.338	20966.25
519.54	20882.28
519.742	21171.05
519.944	20994.92
520.146	21769.05
520.348	21457.76
520.55	21855.07
520.752	22033.24
520.954	22281.05
521.155	22008.67
521.357	22537.04
521.559	22936.4
521.761	23065.42
521.963	23126.86
522.164	23102.28
522.366	23231.3
522.568	23640.9
522.77	23389
522.971	23919.42
523.173	23993.15
523.375	23761.73
523.576	24214.33
523.778	24345.4
523.98	24777.52
524.181	24582.96
524.383	24828.72
524.584	25119.53
524.786	25305.9
524.988	24943.41
525.189	25353
525.391	25482.02
525.592	25283.37
525.794	25774.88
525.995	25647.91
526.197	25916.19
526.398	26123.04
526.6	26080.03
526.801	26354.46
527.003	26639.12
527.204	26739.47
527.406	26987.28
527.607	26809.11
527.808	26784.53
528.01	26768.15
528.211	26936.08
528.412	27589.38
528.614	27030.29
528.815	27128.59
529.016	27544.33
529.218	27243.27
529.419	27493.13
529.62	27599.62
529.822	27456.26
530.023	27755.27
530.224	27761.41
530.425	27669.25
530.626	27433.74
530.828	27396.87
531.029	28095.23
531.23	27833.09
531.431	27925.25
531.632	28138.24
531.833	28404.47
532.035	28039.93
532.236	28209.92
532.437	28377.85
532.638	28007.17
532.839	27992.83
533.04	28379.9
533.241	28029.69
533.442	28789.49
533.643	28269.31
533.844	28146.43
534.045	28588.79
534.246	28173.05
534.447	28484.34
534.648	28236.54
534.849	28873.46
535.05	28463.86
535.251	28263.16
535.451	28545.78
535.652	28769.01
535.853	28492.54
536.054	28390.14
536.255	28752.63
536.456	28222.2
536.657	28873.46
536.857	28519.16
537.058	28447.48
537.259	28709.62
537.46	28531.45
537.66	28304.12
537.861	28539.64
538.062	28291.83
538.263	28582.65
538.463	28709.62
538.664	28332.79
538.865	28646.13
539.065	29014.77
539.266	28678.9
539.466	28758.77
539.667	28191.48
539.868	28642.04
540.068	28297.98
540.269	28560.12
540.469	28713.72
540.67	28453.62
540.87	28574.45
541.071	28594.93
541.271	28678.9
541.472	28254.97
541.672	28521.21
541.873	28314.36
542.073	28228.35
542.274	28906.23
542.474	28355.32
542.675	28398.33
542.875	28613.37
543.075	28463.86
543.276	28179.2
543.476	28519.16
543.676	28414.71
543.877	28461.82
544.077	28588.79
544.277	28386.04
544.478	28179.2
544.678	28701.43
544.878	28371.71
545.078	28453.62
545.279	28052.22
545.479	28437.24
545.679	28781.3
545.879	28345.08
546.079	28701.43
546.28	28279.55
546.48	28429.05
546.68	28357.37
546.88	28216.06
547.08	28355.32
547.28	28394.23
547.48	28078.85
547.68	28343.03
547.88	28162.81
548.081	28498.68
548.281	28267.26
548.481	28185.34
548.681	28441.34
548.881	28564.21
549.081	28093.18
549.28	28117.76
549.48	28338.94
549.68	28447.48
549.88	28494.58
550.08	27910.91
550.28	28105.47
550.48	28128
550.68	28541.69
550.88	28044.03
551.08	28025.6
551.279	28140.29
551.479	28365.56
551.679	28187.39
551.879	28197.63
552.079	28308.22
552.278	27978.5
552.478	28388.09
552.678	28185.34
552.878	28093.18
553.077	28019.46
553.277	27706.12
553.477	28261.12
553.676	27728.64
553.876	28340.99
554.076	28107.52
554.275	27722.5
554.475	27886.34
554.674	28007.17
554.874	28027.65
555.074	28136.19
555.273	27794.18
555.473	28101.37
555.672	27978.5
555.872	27812.61
556.071	28123.9
556.271	27767.55
556.47	27665.16
556.67	27417.35
556.869	27570.95
557.068	27734.79
557.268	27370.25
557.467	27583.24
557.667	27595.53
557.866	27570.95
558.065	27695.88
558.265	27175.69
558.464	27505.41
558.663	27517.7
558.863	27439.88
559.062	27734.79
559.261	26927.89
559.461	27403.02
559.66	26759.95
559.859	27306.76
560.058	27198.22
560.258	27294.47
560.457	26981.13
560.656	27263.75
560.855	27214.6
561.054	26987.28
561.253	26893.07
561.453	27067.15
561.652	26805.01
561.851	26882.83
562.05	27042.57
562.249	26606.36
562.448	26866.45
562.647	26454.81
562.846	26651.41
563.045	26659.6
563.244	26417.94
563.443	27063.05
563.642	26366.74
563.841	26092.32
564.04	26243.87
564.239	26608.4
564.438	26321.69
564.637	26303.26
564.836	26495.77
565.035	26073.88
565.234	25994.01
565.432	26108.7
565.631	25969.44
565.83	26088.22
566.029	26104.6
566.228	25697.06
566.427	25494.31
566.625	25783.07
566.824	25475.88
567.023	25873.18
567.222	25355.05
567.42	25793.31
567.619	25453.35
567.818	25469.73
568.016	25404.2
568.215	25789.22
568.414	25246.51
568.612	25727.78
568.811	25170.73
569.01	25424.68
569.208	24822.58
569.407	25234.22
569.605	24687.41
569.804	25281.32
570.002	24902.45
570.201	24994.61
570.4	24496.95
570.598	24951.6
570.797	24529.72
570.995	24546.1
571.193	24171.32
571.392	24486.71
571.59	24195.9
571.789	24458.04
571.987	24312.63
572.186	24308.54
572.384	24136.51
572.582	24140.6
572.781	24341.3
572.979	23661.38
573.177	23870.27
573.376	23804.74
573.574	24144.7
573.772	24054.59
573.971	23841.6
574.169	23497.54
574.367	23405.38
574.565	23831.36
574.763	23499.59
574.962	23313.22
575.16	22954.83
575.358	23319.37
575.556	23026.51
575.754	23636.8
575.952	23022.41
576.151	23438.15
576.349	23012.17
576.547	22704.98
576.745	22616.91
576.943	22793.04
577.141	22635.35
577.339	22897.49
577.537	22475.6
577.735	22510.42
577.933	22311.77
578.131	22491.99
578.329	22393.68
578.527	22344.53
578.725	22506.32
578.923	22420.31
579.121	22109.02
579.319	21961.56
579.516	22211.42
579.714	22063.96
579.912	21795.68
580.11	21775.2
580.308	21994.33
580.506	21715.81
580.704	21490.53
580.901	21836.64
581.099	21742.43
581.297	21480.29
581.495	21263.21
581.692	21295.97
581.89	21427.04
582.088	21414.76
582.285	21238.63
582.483	21451.62
582.681	21328.74
582.878	21205.86
583.076	20960.11
583.274	20861.8
583.471	20996.97
583.669	20843.37
583.866	20700.01
584.064	20986.73
584.262	20738.93
584.459	20716.4
584.657	20378.48
584.854	20935.53
585.052	20300.66
585.249	20284.28
585.447	20620.14
585.644	20149.11
585.841	20280.18
586.039	20454.26
586.236	20042.62
586.434	20222.84
586.631	19846.01
586.828	20007.8
587.026	19999.61
587.223	19768.19
587.42	19727.23
587.618	19581.82
587.815	19450.75
588.012	19684.22
588.21	19714.94
588.407	19497.86
588.604	19542.91
588.801	19469.19
588.999	19401.6
589.196	19352.45
589.393	19178.37
589.59	18998.15
589.787	18905.99
589.984	19092.36
590.182	18795.4
590.379	18951.05
590.576	18916.23
590.773	18815.88
590.97	18768.78
591.167	18746.25
591.364	18662.29
591.561	18539.41
591.758	18672.53
591.955	18441.11
592.152	18647.95
592.349	18248.6
592.546	18535.31
592.743	18396.05
592.94	18256.79
593.137	18406.29
593.334	18115.48
593.531	18213.78
593.727	18363.28
593.924	18152.34
594.121	17851.29
594.318	18203.54
594.515	17845.15
594.712	18002.84
594.908	17789.85
595.105	17601.44
595.302	17664.93
595.499	17822.62
595.696	17458.08
595.892	17310.63
596.089	17568.67
596.286	17554.33
596.482	17308.58
596.679	17417.12
596.876	17410.98
597.072	17322.91
597.269	17234.85
597.466	16974.76
597.662	17167.27
597.859	17097.64
598.055	17099.69
598.252	16964.52
598.448	16958.38
598.645	16726.96
598.841	16774.06
599.038	16790.44
599.234	16878.51
599.431	16438.19
599.627	16376.75
599.824	16665.52
600.02	16450.48
600.217	16505.77
600.413	16253.87
600.609	16364.46
600.806	16133.04
601.002	16378.8
601.198	16231.35
601.395	15858.62
601.591	16016.31
601.787	15872.95
601.984	15786.94
602.18	16073.65
602.376	15877.05
602.572	15768.51
602.769	15942.58
602.965	15768.51
603.161	15786.94
603.357	15901.62
603.553	15633.34
603.75	15635.39
603.946	15451.07
604.142	15643.58
604.338	15180.74
604.534	15283.14
604.73	15217.6
604.926	15399.87
605.122	15094.72
605.318	15221.7
605.514	15045.57
605.71	14851.02
605.906	15037.38
606.102	15176.64
606.298	15072.2
606.494	14697.42
606.69	15018.95
606.886	15080.39
607.082	14783.43
607.278	15004.61
607.474	14500.81
607.67	14638.03
607.866	14519.25
608.062	14762.95
608.257	14441.42
608.453	14296.02
608.649	14676.94
608.845	14500.81
609.041	14390.22
609.236	14363.6
609.432	14128.08
609.628	14310.35
609.824	14152.66
610.019	14226.39
610.215	14300.11
610.411	14193.62
610.606	14080.98
610.802	14306.26
610.998	14216.15
611.193	14062.55
611.389	13997.01
611.584	13843.42
611.78	13607.9
611.976	14068.69
612.171	13818.84
612.367	14031.83
612.562	13773.78
612.758	13495.26
612.953	13638.62
613.149	13790.17
613.344	13519.84
613.539	13937.62
613.735	13853.66
613.93	13511.64
614.126	13671.39
614.321	13640.67
614.517	13624.28
614.712	13546.46
614.907	13562.84
615.103	13345.76
615.298	13341.66
615.493	13370.33
615.688	13403.1
615.884	13456.35
616.079	13312.99
616.274	13235.17
616.47	13349.85
616.665	13528.03
616.86	12954.6
617.055	13165.54
617.25	13020.13
617.445	13274.08
617.641	12954.6
617.836	12948.45
618.031	12739.56
618.226	13093.86
618.421	12837.86
618.616	13128.67
618.811	12770.28
619.006	12815.34
619.201	12563.43
619.396	12647.4
619.591	12512.24
619.786	12739.56
619.981	12299.25
620.176	12653.55
620.371	12432.36
620.566	12379.12
620.761	12190.7
620.956	12284.91
621.151	11838.45
621.346	12121.07
621.541	11930.61
621.735	12033.01
621.93	11920.37
622.125	11781.11
622.32	11684.86
622.515	11932.66
622.709	11703.29
622.904	11582.46
623.099	11670.52
623.294	11852.79
623.488	11332.61
623.683	11463.68
623.878	11269.12
624.072	11289.6
624.267	11267.07
624.462	11187.2
624.656	10896.39
624.851	10884.1
625.046	10886.15
625.24	11015.17
625.435	10996.74
625.629	10755.08
625.824	10771.46
626.018	10761.22
626.213	10656.78
626.407	10791.94
626.602	10353.68
626.796	10429.45
626.991	10259.47
627.185	10380.3
627.38	10282
627.574	10341.39
627.768	10230.8
627.963	10294.29
628.157	9950.23
628.352	10224.65
628.546	9942.03
628.74	10032.15
628.935	10023.95
629.129	9776.15
629.323	9649.18
629.517	9739.29
629.712	9815.06
629.906	9731.09
630.1	9483.29
630.294	9563.16
630.489	9491.48
630.683	9421.85
630.877	9296.92
631.071	9344.03
631.265	9325.6
631.459	9221.15
631.653	9106.46
631.848	9192.48
632.042	9012.26
632.236	9047.07
632.43	9071.65
632.624	9030.69
632.818	8901.67
633.012	8766.5
633.206	8901.67
633.4	8879.14
633.594	8571.94
633.788	8764.45
633.982	8643.62
634.176	8594.47
634.369	8426.54
634.563	8565.8
634.757	8535.08
634.951	8479.79
635.145	8506.41
635.339	8330.28
635.533	8371.24
635.726	8361
635.92	8074.29
636.114	8391.72
636.308	8215.6
636.501	8029.23
636.695	8158.25
636.889	8045.62
637.083	8121.39
637.276	7949.36
637.47	7683.13
637.664	7814.2
637.857	7918.64
638.051	7791.67
638.244	7640.12
638.438	7681.08
638.632	7605.3
638.825	7566.39
639.019	7388.22
639.212	7359.55
639.406	7382.07
639.599	7533.62
639.793	7451.7
639.986	7527.48
640.18	7496.76
640.373	7179.33
640.567	7058.49
640.76	7214.14
640.954	7193.66
641.147	7083.07
641.34	7132.22
641.534	7205.95
641.727	7128.13
641.92	6868.03
642.114	6970.43
642.307	6806.59
642.5	6814.79
642.694	6667.33
642.887	6698.05
643.08	6767.68
643.273	6718.53
643.467	6646.85
643.66	6632.52
643.853	6685.76
644.046	6575.17
644.239	6474.82
644.432	6446.15
644.626	6413.38
644.819	6419.53
645.012	6476.87
645.205	6313.03
645.398	6415.43
645.591	6224.97
645.784	6112.33
645.977	6112.33
646.17	6065.23
646.363	6009.93
646.556	6243.4
646.749	6083.66
646.942	5923.92
647.135	5760.08
647.328	5852.24
647.521	6009.93
647.714	5692.5
647.907	5755.99
648.099	5676.12
648.292	5739.6
648.485	5801.04
648.678	5678.16
648.871	5551.19
649.064	5586.01
649.256	5674.07
649.449	5403.74
649.642	5422.17
649.835	5438.55
650.027	5295.19
650.22	5246.04
650.413	5553.24
650.605	5315.67
650.798	5350.49
650.991	5192.8
651.183	5432.41
651.376	5039.2
651.568	5252.19
651.761	5141.6
651.954	5270.62
652.146	5031.01
652.339	5067.87
652.531	5127.26
652.724	4924.51
652.916	5071.97
653.109	4936.8
653.301	5117.02
653.494	4955.23
653.686	4777.06
653.879	4985.95
654.071	4879.46
654.263	4815.97
654.456	4848.74
654.648	4717.67
654.84	4858.98
655.033	4607.08
655.225	4740.19
655.417	4539.49
655.61	4674.66
655.802	4699.23
655.994	4633.7
656.186	4519.01
656.379	4525.16
656.571	4496.49
656.763	4496.49
656.955	4586.6
657.148	4504.68
657.34	4410.47
657.532	4299.88
657.724	4363.37
657.916	4433
658.108	4238.44
658.3	4363.37
658.492	4363.37
658.684	4277.35
658.876	4134
659.068	4185.19
659.26	4211.82
659.452	4002.93
659.644	4082.8
659.836	4105.32
660.028	4150.38
660.22	3986.54
660.412	4007.02
660.604	3912.81
660.796	3937.39
660.988	4002.93
661.18	3908.72
661.372	4017.26
661.563	4011.12
661.755	3937.39
661.947	3865.71
662.139	3867.76
662.331	3654.77
662.522	3574.9
662.714	3843.18
662.906	3607.67
663.097	3683.44
663.289	3630.2
663.481	3615.86
663.673	3755.12
663.864	3630.2
664.056	3644.53
664.247	3433.59
664.439	3388.53
664.631	3519.6
664.822	3343.48
665.014	3535.99
665.205	3595.38
665.397	3429.49
665.588	3466.36
665.78	3488.89
665.971	3421.3
666.163	3347.58
666.354	3464.31
666.546	3279.99
666.737	3357.82
666.929	3302.52
667.12	3355.77
667.311	3226.75
667.503	3302.52
667.694	3288.18
667.885	3253.37
668.077	3087.48
668.268	3234.94
668.459	3196.03
668.651	3232.89
668.842	3189.88
669.033	3200.12
669.224	3224.7
669.416	3077.24
669.607	3163.26
669.798	3021.95
669.989	3077.24
670.18	3187.83
670.371	2954.37
670.563	2935.93
670.754	3050.62
670.945	3064.96
671.136	3067
671.327	2905.21
671.518	2964.61
671.709	2901.12
671.9	2993.28
672.091	2962.56
672.282	2960.51
672.473	2815.1
672.664	2958.46
672.855	2882.69
673.046	2833.54
673.237	2897.02
673.428	2880.64
673.619	2847.87
673.809	2829.44
674	2888.83
674.191	2843.78
674.382	2829.44
674.573	2933.89
674.764	2743.42
674.954	2874.49
675.145	2749.57
675.336	2669.7
675.527	2694.27
675.717	2716.8
675.908	2651.27
676.099	2700.42
676.289	2661.51
676.48	2776.19
676.671	2661.51
676.861	2563.2
677.052	2692.23
677.243	2559.11
677.433	2634.88
677.624	2610.31
677.814	2618.5
678.005	2651.27
678.195	2671.75
678.386	2616.45
678.576	2604.16
678.767	2589.83
678.957	2622.59
679.148	2593.92
679.338	2565.25
679.529	2528.39
679.719	2659.46
679.909	2657.41
680.1	2491.52
680.29	2634.88
680.481	2581.64
680.671	2509.96
680.861	2520.2
681.052	2454.66
681.242	2514.05
681.432	2684.03
681.622	2544.77
681.813	2516.1
682.003	2645.12
682.193	2370.69
682.383	2491.52
682.573	2536.58
682.764	2454.66
682.954	2505.86
683.144	2567.3
683.334	2528.39
683.524	2501.76
683.714	2382.98
683.904	2389.13
684.094	2481.28
684.284	2487.43
684.474	2440.33
684.664	2403.46
684.854	2595.97
685.044	2458.76
685.234	2399.37
685.424	2565.25
685.614	2380.93
685.804	2473.09
685.994	2333.83
686.184	2397.32
686.374	2505.86
686.564	2458.76
686.753	2348.17
686.943	2360.45
687.133	2350.21
687.323	2372.74
687.513	2378.89
687.702	2444.42
687.892	2454.66
688.082	2387.08
688.272	2405.51
688.461	2323.59
688.651	2301.06
688.841	2346.12
689.03	2393.22
689.22	2350.21
689.41	2378.89
689.599	2374.79
689.789	2282.63
689.979	2231.43
690.168	2311.3
690.358	2311.3
690.547	2294.92
690.737	2485.38
690.926	2290.82
691.116	2294.92
691.305	2206.86
691.495	2348.17
691.684	2301.06
691.874	2245.77
692.063	2213
692.252	2253.96
692.442	2233.48
692.631	2190.47
692.82	2186.38
693.01	2258.06
693.199	2202.76
693.388	2258.06
693.578	2143.37
693.767	2266.25
693.956	2124.94
694.146	2294.92
694.335	2137.23
694.524	2276.49
694.713	2229.38
694.902	2227.34
695.092	2208.9
695.281	2106.51
695.47	2217.1
695.659	2075.79
695.848	2061.45
696.037	2139.27
696.226	2190.47
696.415	2094.22
696.604	2178.19
696.793	2153.61
696.982	2137.23
697.171	2151.56
697.36	2045.07
697.549	2198.67
697.738	2145.42
697.927	2106.51
698.116	2157.71
698.305	2086.03
698.494	1995.92
698.683	2139.27
698.872	2157.71
699.061	2131.08
699.25	2157.71
699.438	2024.59
699.627	2077.83
699.816	2038.92
700.005	1987.72
700.193	2006.16
700.382	2229.38
700.571	2038.92
700.76	1963.15
700.948	2120.84
701.137	2032.78
701.326	2114.7
701.514	2094.22
701.703	2104.46
701.892	1940.62
702.08	1965.2
702.269	1922.19
702.457	1985.68
702.646	2155.66
702.834	2059.4
703.023	2045.07
703.212	1916.05
703.4	1993.87
703.589	1946.76
703.777	2028.68
703.965	1934.48
704.154	1979.53
704.342	1940.62
704.531	1971.34
704.719	1961.1
704.907	1942.67
705.096	1995.92
705.284	1944.72
705.472	1877.13
705.661	1924.24
705.849	2090.12
706.037	1893.52
706.226	1901.71
706.414	1799.31
706.602	1885.33
706.79	1905.81
706.979	1881.23
707.167	1922.19
707.355	1899.66
707.543	1854.61
707.731	1832.08
707.919	1864.85
708.107	1838.22
708.296	1797.26
708.484	1713.3
708.672	1862.8
708.86	1922.19
709.048	1762.45
709.236	1772.69
709.424	1825.93
709.612	1881.23
709.8	1776.78
709.988	1803.41
710.176	1825.93
710.364	1793.17
710.551	1838.22
710.739	1848.46
710.927	1817.74
711.115	1858.7
711.303	1768.59
711.491	1766.54
711.679	1723.54
711.866	1711.25
712.054	1782.93
712.242	1807.5
712.43	1793.17
712.617	1782.93
712.805	1766.54
712.993	1836.17
713.181	1735.82
713.368	1680.53
713.556	1862.8
713.744	1684.62
713.931	1741.97
714.119	1694.86
714.306	1776.78
714.494	1629.33
714.682	1739.92
714.869	1610.9
715.057	1619.09
715.244	1637.52
715.432	1696.91
715.619	1637.52
715.807	1762.45
715.994	1672.34
716.182	1660.05
716.369	1586.32
716.556	1709.2
716.744	1727.63
716.931	1639.57
717.119	1660.05
717.306	1680.53
717.493	1600.66
717.681	1617.04
717.868	1545.36
718.055	1684.62
718.242	1653.91
718.43	1645.71
718.617	1649.81
718.804	1580.18
718.991	1713.3
719.179	1590.42
719.366	1557.65
719.553	1594.51
719.74	1539.22
719.927	1555.6
720.114	1578.13
720.301	1531.03
720.488	1627.28
720.676	1686.67
720.863	1647.76
721.05	1631.38
721.237	1586.32
721.424	1526.93
721.611	1619.09
721.798	1490.07
721.985	1531.03
722.172	1512.6
722.358	1643.67
722.545	1483.92
722.732	1514.64
722.919	1584.27
723.106	1549.46
723.293	1498.26
723.48	1629.33
723.667	1633.43
723.853	1475.73
724.04	1553.55
724.227	1455.25
724.414	1578.13
724.6	1479.83
724.787	1473.68
724.974	1498.26
725.161	1584.27
725.347	1428.63
725.534	1432.72
725.72	1459.35
725.907	1483.92
726.094	1459.35
726.28	1432.72
726.467	1365.14
726.653	1432.72
726.84	1416.34
727.027	1449.11
727.213	1381.53
727.4	1385.62
727.586	1533.08
727.773	1397.91
727.959	1453.2
728.145	1383.57
728.332	1393.81
728.518	1440.92
728.705	1463.44
728.891	1356.95
729.077	1512.6
729.264	1449.11
729.45	1373.33
729.636	1399.96
729.823	1494.16
730.009	1465.49
730.195	1334.42
730.382	1481.88
730.568	1369.24
730.754	1440.92
730.94	1336.47
731.126	1393.81
731.313	1408.15
731.499	1338.52
731.685	1281.18
731.871	1453.2
732.057	1412.25
732.243	1422.48
732.429	1471.64
732.615	1318.04
732.801	1371.29
732.987	1383.57
733.173	1397.91
733.359	1283.22
733.545	1469.59
733.731	1283.22
733.917	1375.38
734.103	1311.89
734.289	1406.1
734.475	1492.12
734.661	1434.77
734.847	1389.72
735.033	1373.33
735.219	1383.57
735.404	1336.47
735.59	1367.19
735.776	1307.8
735.962	1332.37
736.148	1332.37
736.333	1238.17
736.519	1240.22
736.705	1277.08
736.89	1334.42
737.076	1248.41
737.262	1277.08
737.447	1309.85
737.633	1315.99
737.819	1340.57
738.004	1307.8
738.19	1301.65
738.375	1293.46
738.561	1367.19
738.747	1283.22
738.932	1350.81
739.118	1242.26
739.303	1361.05
739.489	1223.83
739.674	1246.36
739.859	1193.11
740.045	1305.75
740.23	1303.7
740.416	1248.41
740.601	1293.46
740.786	1268.89
740.972	1209.5
741.157	1236.12
741.342	1258.65
741.528	1205.4
741.713	1219.74
741.898	1223.83
742.084	1207.45
742.269	1197.21
742.454	1277.08
742.639	1191.06
742.824	1315.99
743.01	1164.44
743.195	1215.64
743.38	1127.58
743.565	1143.96
743.75	1121.43
743.935	1219.74
744.12	1207.45
744.305	1197.21
744.49	1119.39
744.675	1043.61
744.86	1160.34
745.045	1146.01
745.23	1209.5
745.415	1135.77
745.6	1193.11
745.785	1094.81
745.97	1141.91
746.155	1068.19
746.34	1170.58
746.525	1019.04
746.71	1107.1
746.895	1066.14
747.079	1021.08
747.264	1045.66
747.449	1143.96
747.634	1090.71
747.819	1072.28
748.003	986.27
748.188	1100.95
748.373	1078.43
748.557	978.08
748.742	1008.8
748.927	971.93
749.111	1070.23
749.296	986.27
749.481	1068.19
749.665	1014.94
749.85	1047.71
750.034	957.6
750.219	978.08
750.404	963.74
750.588	1100.95
750.773	918.68
750.957	939.16
751.141	1035.42
751.326	1002.65
751.51	978.08
751.695	855.2
751.879	892.06
752.064	896.16
752.248	890.01
752.432	883.87
752.617	953.5
752.801	924.83
752.985	898.2
753.17	963.74
753.354	898.2
753.538	920.73
753.722	795.81
753.907	820.38
754.091	947.36
754.275	892.06
754.459	836.77
754.643	810.14
754.828	842.91
755.012	840.86
755.196	865.44
755.38	818.33
755.564	791.71
755.748	849.05
755.932	851.1
756.116	867.49
756.3	705.7
756.484	804
756.668	828.57
756.852	754.85
757.036	715.94
757.22	754.85
757.404	769.18
757.588	713.89
757.772	744.61
757.956	724.13
758.14	773.28
758.323	726.18
758.507	746.66
758.691	801.95
758.875	713.89
759.059	668.83
759.242	717.98
759.426	660.64
759.61	681.12
759.794	736.42
759.977	677.02
760.161	705.7
760.345	691.36
760.528	726.18
760.712	695.46
760.895	717.98
761.079	611.49
761.263	685.22
761.446	593.06
761.63	652.45
761.813	705.7
761.997	650.4
762.18	644.26
762.364	650.4
762.547	599.2
762.731	648.35
762.914	591.01
763.098	627.87
763.281	586.91
763.464	605.35
763.648	595.11
763.831	634.02
764.015	681.12
764.198	607.39
764.381	609.44
764.564	597.15
764.748	623.78
764.931	562.34
765.114	642.21
765.297	634.02
765.481	554.15
765.664	597.15
765.847	660.64
766.03	613.54
766.213	586.91
766.397	609.44
766.58	525.47
766.763	558.24
766.946	507.04
767.129	566.43
767.312	644.26
767.495	558.24
767.678	566.43
767.861	580.77
768.044	607.39
768.227	654.5
768.41	488.61
768.593	603.3
768.776	550.05
768.959	586.91
769.142	566.43
769.324	572.58
769.507	548
769.69	562.34
769.873	535.71
770.056	545.95
770.239	533.67
770.421	545.95
770.604	509.09
770.787	459.94
770.97	482.47
771.152	523.43
771.335	507.04
771.518	496.8
771.7	578.72
771.883	619.68
772.066	523.43
772.248	535.71
772.431	466.08
772.613	564.39
772.796	498.85
772.978	496.8
773.161	474.28
773.343	461.99
773.526	464.04
773.708	611.49
773.891	537.76
774.073	511.14
774.256	457.89
774.438	447.65
774.621	457.89
774.803	459.94
774.985	484.52
775.168	517.28
775.35	490.66
775.532	453.8
775.715	416.93
775.897	425.12
776.079	392.36
776.261	427.17
776.444	429.22
776.626	498.85
776.808	349.35
776.99	468.13
777.173	382.12
777.355	517.28
777.537	361.64
777.719	388.26
777.901	378.02
778.083	378.02
778.265	396.45
778.447	380.07
778.629	363.69
778.811	476.32
778.993	429.22
779.175	353.45
779.357	355.49
779.539	361.64
779.721	283.81
779.903	347.3
780.085	382.12
780.267	431.27
780.449	384.16
780.631	400.55
780.812	369.83
780.994	365.73
781.176	326.82
781.358	390.31
781.54	347.3
781.721	328.87
781.903	251.05
782.085	408.74
782.267	384.16
782.448	351.4
782.63	330.92
782.812	310.44
782.993	353.45
783.175	308.39
783.357	330.92
783.538	332.97
783.72	335.01
783.901	263.33
784.083	277.67
784.264	308.39
784.446	343.21
784.627	332.97
784.809	308.39
784.99	285.86
785.172	318.63
785.353	220.33
785.535	365.73
785.716	279.72
785.897	261.29
786.079	279.72
786.26	257.19
786.441	310.44
786.623	222.38
786.804	314.53
786.985	251.05
787.167	263.33
787.348	292.01
787.529	302.25
787.71	285.86
787.891	300.2
788.073	224.42
788.254	332.97
788.435	240.81
788.616	316.58
788.797	236.71
788.978	242.85
789.159	230.57
789.34	287.91
789.522	181.42
789.703	275.62
789.884	230.57
790.065	269.48
790.246	265.38
790.427	316.58
790.607	296.1
790.788	214.18
790.969	173.22
791.15	296.1
791.331	236.71
791.512	234.66
791.693	138.41
791.874	208.04
792.054	228.52
792.235	205.99
792.416	199.85
792.597	257.19
792.778	148.65
792.958	218.28
793.139	228.52
793.32	191.66
793.5	195.75
793.681	191.66
793.862	128.17
794.042	238.76
794.223	281.77
794.404	197.8
794.584	222.38
794.765	201.9
794.945	158.89
795.126	199.85
795.306	275.62
795.487	134.31
795.667	199.85
795.848	187.56
796.028	33.96
796.209	183.46
796.389	208.04
796.57	193.7
796.75	122.02
796.93	173.22
797.111	193.7
797.291	234.66
797.471	234.66
797.652	167.08
797.832	218.28
798.012	162.98
798.192	195.75
798.373	103.59
798.553	169.13
798.733	134.31
798.913	181.42
799.093	154.79
799.274	173.22
799.454	160.94
799.634	195.75
799.814	226.47
799.994	126.12
800.174	134.31
800.354	109.74
800.534	189.61
800.714	216.23
800.894	144.55
801.074	148.65
801.254	191.66
801.434	113.83
801.614	99.5
801.794	138.41
801.974	382.12
802.154	175.27
802.334	136.36
802.514	122.02
802.693	113.83
802.873	154.79
803.053	117.93
803.233	177.32
803.413	105.64
803.592	81.07
803.772	105.64
803.952	218.28
804.131	177.32
804.311	160.94
804.491	210.09
804.67	146.6
804.85	152.74
805.03	154.79
805.209	160.94
805.389	119.98
805.568	72.87
805.748	74.92
805.928	156.84
806.107	103.59
806.287	165.03
806.466	138.41
806.646	85.16
806.825	66.73
807.004	79.02
807.184	99.5
807.363	169.13
807.543	85.16
807.722	119.98
807.901	214.18
808.081	97.45
808.26	97.45
808.439	142.5
808.619	132.26
808.798	58.54
808.977	70.83
809.156	33.96
809.336	117.93
809.515	117.93
809.694	113.83
809.873	122.02
810.052	144.55
810.231	87.21
810.411	128.17
810.59	107.69
810.769	76.97
810.948	146.6
811.127	54.44
811.306	97.45
811.485	54.44
811.664	169.13
811.843	111.78
812.022	97.45
812.201	79.02
812.38	74.92
812.559	111.78
812.737	97.45
812.916	181.42
813.095	58.54
813.274	130.22
813.453	62.63
813.632	113.83
813.811	60.59
813.989	97.45
814.168	220.33
814.347	64.68
814.526	70.83
814.704	128.17
814.883	160.94
815.062	74.92
815.24	109.74
815.419	115.88
815.598	50.35
815.776	79.02
815.955	95.4
816.133	119.98
816.312	40.11
816.49	56.49
816.669	117.93
816.847	60.59
817.026	138.41
817.204	79.02
817.383	72.87
817.561	109.74
817.74	23.72
817.918	44.2
818.097	74.92
818.275	50.35
818.453	113.83
818.632	46.25
818.81	76.97
818.988	136.36
819.167	83.11
819.345	76.97
819.523	64.68
819.701	54.44
819.879	89.26
820.058	15.53
820.236	79.02
820.414	101.55
820.592	11.43
820.77	29.87
820.948	152.74
821.127	58.54
821.305	46.25
821.483	15.53
821.661	91.31
821.839	36.01
822.017	56.49
822.195	52.39
822.373	117.93
822.551	101.55
822.729	152.74
822.907	40.11
823.085	66.73
823.262	29.87
823.44	70.83
823.618	5.29
823.796	87.21
823.974	115.88
824.152	-0.85
824.329	74.92
824.507	72.87
824.685	31.91
824.863	146.6
825.04	23.72
825.218	40.11
825.396	99.5
825.574	140.46
825.751	79.02
825.929	93.35
826.107	122.02
826.284	-17.24
826.462	9.39
826.639	60.59
826.817	40.11
826.994	95.4
827.172	46.25
827.349	119.98
827.527	68.78
827.704	152.74
827.882	101.55
828.059	66.73
828.237	40.11
828.414	81.07
828.591	113.83
828.769	50.35
828.946	33.96
829.124	126.12
829.301	19.63
829.478	99.5
829.655	29.87
829.833	-25.43
830.01	36.01
830.187	31.91
830.364	44.2
830.542	66.73
830.719	31.91
830.896	38.06
831.073	29.87
831.25	46.25
831.427	74.92
831.604	105.64
831.782	130.22
831.959	68.78
832.136	36.01
832.313	64.68
832.49	27.82
832.667	130.22
832.844	5.29
833.021	66.73
833.198	74.92
833.374	74.92
833.551	62.63
833.728	48.3
833.905	81.07
834.082	72.87
834.259	42.15
834.436	101.55
834.612	56.49
834.789	70.83
834.966	-15.19
835.143	44.2
835.319	40.11
835.496	64.68
835.673	58.54
835.85	81.07
836.026	50.35
836.203	93.35
836.38	3.24
836.556	-27.48
836.733	111.78
836.909	66.73
837.086	97.45
837.262	-68.44
837.439	23.72
837.616	109.74
837.792	42.15
837.968	56.49
838.145	87.21
838.321	146.6
838.498	11.43
838.674	95.4
838.851	124.07
839.027	46.25
839.203	27.82
839.38	83.11
839.556	36.01
839.732	3.24
839.909	9.39
840.085	27.82
840.261	33.96
840.437	29.87
840.614	52.39
840.79	54.44
840.966	50.35
841.142	79.02
841.318	29.87
841.494	50.35
841.671	40.11
841.847	42.15
842.023	-2.9
842.199	54.44
842.375	62.63
842.551	17.58
842.727	-2.9
842.903	85.16
843.079	93.35
843.255	81.07
843.431	11.43
843.607	40.11
843.783	-45.91
843.959	64.68
844.134	23.72
844.31	122.02
844.486	38.06
844.662	15.53
844.838	54.44
845.013	31.91
845.189	54.44
845.365	97.45
845.541	23.72
845.716	62.63
845.892	29.87
846.068	31.91
846.244	-0.85
846.419	19.63
846.595	46.25
846.77	58.54
846.946	103.59
847.122	44.2
847.297	19.63
847.473	79.02
847.648	-13.14
847.824	81.07
847.999	-58.2
848.175	29.87
848.35	13.48
848.526	38.06
848.701	48.3
848.876	42.15
849.052	93.35
849.227	95.4
849.403	68.78
849.578	36.01
849.753	29.87
849.929	109.74
850.104	66.73
850.279	48.3
850.454	31.91
850.63	-11.09
850.805	29.87
850.98	50.35
851.155	-0.85
851.33	95.4
851.505	36.01
851.681	25.77
851.856	66.73
852.031	50.35
852.206	-4.95
852.381	17.58
852.556	-7
852.731	17.58
852.906	13.48
853.081	42.15
853.256	87.21
853.431	58.54
853.606	89.26
853.781	60.59
853.956	-0.85
854.131	83.11
854.305	11.43
854.48	36.01
854.655	33.96
854.83	-17.24
855.005	1.19
855.18	52.39
855.354	68.78
855.529	5.29
855.704	31.91
855.879	-9.05
856.053	25.77
856.228	68.78
856.403	3.24
856.577	11.43
856.752	-31.57
856.926	31.91
857.101	-23.38
857.276	31.91
857.45	7.34
857.625	38.06
857.799	33.96
857.974	62.63
858.148	19.63
858.323	56.49
858.497	11.43
858.672	31.91
858.846	-13.14
859.02	103.59
859.195	58.54
859.369	29.87
859.543	109.74
859.718	33.96
859.892	21.67
860.066	101.55
860.241	5.29
860.415	-23.38
860.589	56.49
860.763	38.06
860.938	38.06
861.112	1.19
861.286	33.96
861.46	79.02
861.634	29.87
861.808	50.35
861.982	-39.76
862.157	11.43
862.331	70.83
862.505	21.67
862.679	-19.29
862.853	21.67
863.027	-35.67
863.201	79.02
863.375	-13.14
863.549	46.25
863.722	56.49
863.896	89.26
864.07	27.82
864.244	87.21
864.418	40.11
864.592	-33.62
864.766	1.19
864.939	21.67
865.113	58.54
865.287	66.73
865.461	44.2
865.634	21.67
865.808	33.96
865.982	33.96
866.156	81.07
866.329	74.92
866.503	25.77
866.676	46.25
866.85	68.78
867.024	52.39
867.197	17.58
867.371	54.44
867.544	29.87
867.718	-29.52
867.891	21.67
868.065	38.06
868.238	-43.86
868.412	-45.91
868.585	83.11
868.759	23.72
868.932	9.39
869.105	-58.2
869.279	-23.38
869.452	62.63
869.625	-41.81
869.799	38.06
869.972	56.49
870.145	36.01
870.319	-29.52
870.492	44.2
870.665	11.43
870.838	-21.33
871.011	-60.24
871.185	79.02
871.358	13.48
871.531	62.63
871.704	-7
871.877	-78.68
872.05	-9.05
872.223	21.67
872.396	21.67
872.569	60.59
872.742	-4.95
872.915	44.2
873.088	38.06
873.261	3.24
873.434	66.73
873.607	13.48
873.78	52.39
873.953	-7
874.126	128.17
874.299	-47.96
874.471	3.24
874.644	-7
874.817	15.53
874.99	113.83
875.163	1.19
875.335	40.11
875.508	44.2
875.681	33.96
875.853	-50
876.026	46.25
876.199	13.48
876.371	64.68
876.544	-11.09
876.717	15.53
876.889	3.24
877.062	-11.09
877.234	21.67
877.407	40.11
877.579	17.58
877.752	72.87
877.924	62.63
878.097	-39.76
878.269	-15.19
878.442	91.31
878.614	-11.09
878.786	3.24
878.959	113.83
879.131	81.07
879.303	9.39
879.476	81.07
879.648	-19.29
879.82	17.58
879.993	5.29
880.165	21.67
880.337	31.91
880.509	11.43
880.681	-2.9
880.854	-0.85
881.026	1.19
881.198	13.48
881.37	46.25
881.542	54.44
881.714	29.87
881.886	-27.48
882.058	-0.85
882.23	15.53
882.402	-7
882.574	56.49
882.746	-35.67
882.918	-15.19
883.09	3.24
883.262	-27.48
883.434	36.01
883.606	-41.81
883.778	40.11
883.95	40.11
884.122	5.29
884.293	46.25
884.465	-7
884.637	40.11
884.809	9.39
884.98	13.48
885.152	-2.9
885.324	25.77
885.496	25.77
885.667	1.19
885.839	-60.24
886.011	72.87
886.182	-11.09
886.354	-17.24
886.525	33.96
886.697	76.97
886.869	13.48
887.04	23.72
887.212	83.11
887.383	25.77
887.555	-43.86
887.726	46.25
887.897	-11.09
888.069	31.91
888.24	-17.24
888.412	42.15
888.583	46.25
888.754	-13.14
888.926	-13.14
889.097	13.48
889.268	-66.39
889.44	36.01
889.611	5.29
889.782	-11.09
889.953	-31.57
890.125	68.78
890.296	-2.9
890.467	29.87
890.638	15.53
890.809	56.49
890.98	5.29
891.151	-19.29
891.323	-19.29
891.494	-47.96
891.665	-9.05
891.836	23.72
892.007	11.43
892.178	-31.57
892.349	79.02
892.52	19.63
892.691	81.07
892.862	-17.24
893.032	7.34
893.203	1.19
893.374	40.11
893.545	38.06
893.716	15.53
893.887	-50
894.057	-19.29
894.228	23.72
894.399	-19.29
894.57	-13.14
894.74	29.87
894.911	-50
895.082	113.83
895.253	64.68
895.423	52.39
895.594	15.53
895.764	70.83
895.935	19.63
896.106	-74.58
896.276	-23.38
896.447	-45.91
896.617	15.53
896.788	-50
896.958	29.87
897.129	3.24
897.299	48.3
897.47	52.39
897.64	-21.33
897.81	5.29
897.981	31.91
898.151	3.24
898.322	42.15
898.492	23.72
898.662	21.67
898.832	38.06
899.003	1.19
899.173	60.59
899.343	15.53
899.513	27.82
