Data from USB4F104151__67__12-59-29-083.txt Node

Date: Fri Mar 14 12:59:29 EDT 2025
User: louis
Spectrometer: USB4F10415
Trigger mode: 4
Integration Time (sec): 1.000000E-2
Scans to average: 1
Electric dark correction enabled: true
Nonlinearity correction enabled: false
Boxcar width: 0
XAxis mode: Wavelengths
Number of Pixels in Spectrum: 3648
>>>>>Begin Spectral Data<<<<<
178.204	-29.7
178.424	-29.7
178.644	-29.7
178.864	-33.79
179.084	-95.23
179.304	-1.02
179.524	37.89
179.744	-21.5
179.964	-33.79
180.184	-3.07
180.404	5.12
180.624	3.07
180.844	13.31
181.064	-23.55
181.283	23.55
181.503	-19.46
181.723	19.46
181.943	7.17
182.163	-15.36
182.383	9.22
182.602	-37.89
182.822	-15.36
183.042	31.74
183.262	35.84
183.482	13.31
183.701	70.65
183.921	13.31
184.141	23.55
184.361	50.18
184.58	39.94
184.8	5.12
185.02	46.08
185.239	-23.55
185.459	54.27
185.679	5.12
185.898	-50.18
186.118	25.6
186.338	1.02
186.557	78.85
186.777	-50.18
186.997	-23.55
187.216	-41.98
187.436	-25.6
187.655	-5.12
187.875	25.6
188.095	19.46
188.314	39.94
188.534	15.36
188.753	54.27
188.973	5.12
189.192	-33.79
189.412	-13.31
189.631	11.26
189.851	31.74
190.07	60.42
190.29	23.55
190.509	41.98
190.729	68.61
190.948	48.13
191.168	54.27
191.387	31.74
191.607	27.65
191.826	-91.13
192.045	-72.7
192.265	54.27
192.484	25.6
192.704	13.31
192.923	5.12
193.142	-46.08
193.362	33.79
193.581	23.55
193.8	-3.07
194.02	13.31
194.239	9.22
194.458	15.36
194.678	23.55
194.897	27.65
195.116	-33.79
195.335	21.5
195.555	-9.22
195.774	-3.07
195.993	3.07
196.212	13.31
196.432	-46.08
196.651	-11.26
196.87	-3.07
197.089	35.84
197.308	-33.79
197.528	72.7
197.747	5.12
197.966	13.31
198.185	-11.26
198.404	37.89
198.623	41.98
198.842	-31.74
199.062	60.42
199.281	-78.85
199.5	-5.12
199.719	-11.26
199.938	-11.26
200.157	37.89
200.376	64.51
200.595	76.8
200.814	7.17
201.033	5.12
201.252	-15.36
201.471	52.22
201.69	23.55
201.909	-39.94
202.128	-25.6
202.347	-3.07
202.566	29.7
202.785	-19.46
203.004	95.23
203.223	-1.02
203.442	-15.36
203.661	31.74
203.879	72.7
204.098	41.98
204.317	11.26
204.536	7.17
204.755	21.5
204.974	52.22
205.193	17.41
205.411	-9.22
205.63	-76.8
205.849	-25.6
206.068	27.65
206.287	29.7
206.505	41.98
206.724	29.7
206.943	56.32
207.162	48.13
207.381	17.41
207.599	48.13
207.818	-27.65
208.037	31.74
208.255	13.31
208.474	13.31
208.693	39.94
208.911	70.65
209.13	48.13
209.349	37.89
209.567	-25.6
209.786	-11.26
210.005	35.84
210.223	29.7
210.442	15.36
210.661	15.36
210.879	37.89
211.098	-17.41
211.316	5.12
211.535	-3.07
211.753	21.5
211.972	9.22
212.191	-9.22
212.409	1.02
212.628	15.36
212.846	41.98
213.065	-5.12
213.283	62.46
213.502	-9.22
213.72	66.56
213.938	46.08
214.157	29.7
214.375	17.41
214.594	35.84
214.812	56.32
215.031	66.56
215.249	-11.26
215.467	50.18
215.686	-29.7
215.904	-19.46
216.122	-25.6
216.341	58.37
216.559	5.12
216.778	56.32
216.996	-1.02
217.214	1.02
217.432	50.18
217.651	-21.5
217.869	80.89
218.087	-15.36
218.306	-23.55
218.524	9.22
218.742	37.89
218.96	-1.02
219.179	-1.02
219.397	-29.7
219.615	35.84
219.833	7.17
220.051	3.07
220.27	27.65
220.488	-60.42
220.706	39.94
220.924	37.89
221.142	33.79
221.36	-35.84
221.578	48.13
221.796	-33.79
222.015	-1.02
222.233	82.94
222.451	76.8
222.669	37.89
222.887	-3.07
223.105	31.74
223.323	1.02
223.541	-13.31
223.759	54.27
223.977	68.61
224.195	60.42
224.413	-31.74
224.631	23.55
224.849	9.22
225.067	95.23
225.285	-35.84
225.503	-3.07
225.721	23.55
225.939	25.6
226.157	54.27
226.375	39.94
226.592	25.6
226.81	27.65
227.028	58.37
227.246	-19.46
227.464	21.5
227.682	-33.79
227.9	7.17
228.117	128
228.335	15.36
228.553	48.13
228.771	-7.17
228.989	37.89
229.206	-21.5
229.424	-3.07
229.642	29.7
229.86	25.6
230.077	-68.61
230.295	37.89
230.513	27.65
230.731	62.46
230.948	13.31
231.166	56.32
231.384	15.36
231.601	11.26
231.819	52.22
232.037	11.26
232.254	1.02
232.472	-50.18
232.689	3.07
232.907	21.5
233.125	-15.36
233.342	-13.31
233.56	-19.46
233.777	33.79
233.995	-29.7
234.213	74.75
234.43	-15.36
234.648	-91.13
234.865	21.5
235.083	5.12
235.3	62.46
235.518	29.7
235.735	15.36
235.953	-5.12
236.17	-7.17
236.388	70.65
236.605	15.36
236.822	-7.17
237.04	44.03
237.257	19.46
237.475	13.31
237.692	19.46
237.909	7.17
238.127	44.03
238.344	128
238.562	144.38
238.779	27.65
238.996	-1.02
239.214	21.5
239.431	125.95
239.648	-3.07
239.865	13.31
240.083	-17.41
240.3	37.89
240.517	21.5
240.735	21.5
240.952	21.5
241.169	-9.22
241.386	44.03
241.603	13.31
241.821	37.89
242.038	64.51
242.255	80.89
242.472	-27.65
242.689	23.55
242.907	15.36
243.124	1.02
243.341	-23.55
243.558	48.13
243.775	11.26
243.992	-56.32
244.209	-25.6
244.426	58.37
244.643	64.51
244.86	9.22
245.078	5.12
245.295	46.08
245.512	37.89
245.729	-15.36
245.946	37.89
246.163	-27.65
246.38	9.22
246.597	50.18
246.814	-17.41
247.031	31.74
247.248	29.7
247.464	1.02
247.681	39.94
247.898	-15.36
248.115	-44.03
248.332	23.55
248.549	125.95
248.766	-27.65
248.983	19.46
249.2	44.03
249.417	84.99
249.633	50.18
249.85	62.46
250.067	21.5
250.284	19.46
250.501	-3.07
250.717	29.7
250.934	11.26
251.151	1.02
251.368	-25.6
251.585	54.27
251.801	48.13
252.018	46.08
252.235	-7.17
252.451	-33.79
252.668	35.84
252.885	82.94
253.102	54.27
253.318	50.18
253.535	-35.84
253.752	13.31
253.968	-17.41
254.185	23.55
254.401	21.5
254.618	5.12
254.835	-58.37
255.051	15.36
255.268	-25.6
255.484	50.18
255.701	27.65
255.917	54.27
256.134	46.08
256.351	13.31
256.567	3.07
256.784	17.41
257	23.55
257.217	13.31
257.433	-35.84
257.65	-27.65
257.866	50.18
258.082	-1.02
258.299	15.36
258.515	-3.07
258.732	68.61
258.948	-19.46
259.165	-39.94
259.381	-27.65
259.597	-11.26
259.814	-19.46
260.03	-19.46
260.246	-11.26
260.463	13.31
260.679	-1.02
260.895	39.94
261.112	31.74
261.328	-64.51
261.544	121.85
261.761	58.37
261.977	-33.79
262.193	54.27
262.409	62.46
262.626	25.6
262.842	27.65
263.058	46.08
263.274	11.26
263.49	87.04
263.707	54.27
263.923	70.65
264.139	-11.26
264.355	48.13
264.571	58.37
264.787	-3.07
265.004	58.37
265.22	-54.27
265.436	-35.84
265.652	15.36
265.868	91.13
266.084	66.56
266.3	48.13
266.516	-13.31
266.732	7.17
266.948	31.74
267.164	48.13
267.38	-11.26
267.596	-7.17
267.812	5.12
268.028	33.79
268.244	13.31
268.46	33.79
268.676	68.61
268.892	64.51
269.108	58.37
269.324	54.27
269.54	-41.98
269.756	19.46
269.972	19.46
270.188	33.79
270.403	3.07
270.619	37.89
270.835	46.08
271.051	29.7
271.267	-7.17
271.483	1.02
271.698	5.12
271.914	-3.07
272.13	89.09
272.346	54.27
272.562	21.5
272.777	39.94
272.993	27.65
273.209	44.03
273.425	-17.41
273.64	-7.17
273.856	5.12
274.072	3.07
274.287	48.13
274.503	1.02
274.719	39.94
274.934	-48.13
275.15	19.46
275.366	31.74
275.581	13.31
275.797	-17.41
276.012	-1.02
276.228	115.71
276.444	48.13
276.659	62.46
276.875	-5.12
277.09	68.61
277.306	5.12
277.521	64.51
277.737	41.98
277.952	48.13
278.168	25.6
278.383	89.09
278.599	54.27
278.814	-27.65
279.03	23.55
279.245	9.22
279.461	25.6
279.676	41.98
279.892	-66.56
280.107	91.13
280.322	25.6
280.538	103.42
280.753	11.26
280.969	82.94
281.184	46.08
281.399	74.75
281.615	37.89
281.83	23.55
282.045	-37.89
282.26	-23.55
282.476	64.51
282.691	66.56
282.906	29.7
283.122	46.08
283.337	27.65
283.552	31.74
283.767	7.17
283.983	29.7
284.198	-39.94
284.413	41.98
284.628	-27.65
284.843	-3.07
285.058	19.46
285.274	52.22
285.489	-9.22
285.704	52.22
285.919	-5.12
286.134	68.61
286.349	1.02
286.564	80.89
286.779	-9.22
286.995	35.84
287.21	-70.65
287.425	37.89
287.64	1.02
287.855	76.8
288.07	-21.5
288.285	7.17
288.5	89.09
288.715	33.79
288.93	60.42
289.145	76.8
289.36	68.61
289.575	60.42
289.79	48.13
290.004	52.22
290.219	5.12
290.434	31.74
290.649	50.18
290.864	3.07
291.079	7.17
291.294	17.41
291.509	15.36
291.724	9.22
291.938	9.22
292.153	15.36
292.368	-17.41
292.583	56.32
292.798	17.41
293.012	37.89
293.227	21.5
293.442	23.55
293.657	78.85
293.871	13.31
294.086	21.5
294.301	74.75
294.516	-29.7
294.73	64.51
294.945	3.07
295.16	-44.03
295.374	31.74
295.589	72.7
295.804	13.31
296.018	27.65
296.233	29.7
296.447	19.46
296.662	72.7
296.877	7.17
297.091	-41.98
297.306	-1.02
297.52	-17.41
297.735	-5.12
297.949	44.03
298.164	60.42
298.378	46.08
298.593	54.27
298.807	7.17
299.022	19.46
299.236	33.79
299.451	46.08
299.665	-19.46
299.88	-19.46
300.094	1.02
300.309	-9.22
300.523	25.6
300.737	70.65
300.952	70.65
301.166	62.46
301.381	31.74
301.595	-27.65
301.809	66.56
302.024	-41.98
302.238	-31.74
302.452	23.55
302.667	-19.46
302.881	33.79
303.095	21.5
303.309	-44.03
303.524	-35.84
303.738	70.65
303.952	-11.26
304.166	84.99
304.381	-17.41
304.595	41.98
304.809	31.74
305.023	1.02
305.237	33.79
305.452	23.55
305.666	25.6
305.88	70.65
306.094	54.27
306.308	44.03
306.522	-17.41
306.736	87.04
306.95	74.75
307.164	97.28
307.379	62.46
307.593	46.08
307.807	-11.26
308.021	21.5
308.235	50.18
308.449	72.7
308.663	1.02
308.877	95.23
309.091	23.55
309.305	31.74
309.519	35.84
309.733	89.09
309.947	31.74
310.161	123.9
310.374	19.46
310.588	66.56
310.802	-3.07
311.016	3.07
311.23	62.46
311.444	97.28
311.658	54.27
311.872	21.5
312.085	23.55
312.299	23.55
312.513	-11.26
312.727	48.13
312.941	37.89
313.154	60.42
313.368	41.98
313.582	25.6
313.796	-13.31
314.009	-13.31
314.223	50.18
314.437	48.13
314.651	-11.26
314.864	27.65
315.078	62.46
315.292	19.46
315.505	-35.84
315.719	46.08
315.933	58.37
316.146	29.7
316.36	52.22
316.573	48.13
316.787	21.5
317.001	3.07
317.214	-11.26
317.428	62.46
317.641	-13.31
317.855	5.12
318.068	56.32
318.282	54.27
318.495	-29.7
318.709	70.65
318.922	7.17
319.136	95.23
319.349	70.65
319.563	64.51
319.776	17.41
319.99	33.79
320.203	87.04
320.417	54.27
320.63	31.74
320.843	19.46
321.057	5.12
321.27	37.89
321.483	41.98
321.697	21.5
321.91	35.84
322.124	27.65
322.337	29.7
322.55	-1.02
322.763	27.65
322.977	33.79
323.19	-5.12
323.403	-9.22
323.617	-3.07
323.83	21.5
324.043	-58.37
324.256	31.74
324.469	13.31
324.683	80.89
324.896	48.13
325.109	21.5
325.322	-25.6
325.535	-21.5
325.748	-3.07
325.962	21.5
326.175	-1.02
326.388	5.12
326.601	37.89
326.814	46.08
327.027	72.7
327.24	11.26
327.453	62.46
327.666	21.5
327.879	54.27
328.092	-1.02
328.305	-21.5
328.518	31.74
328.731	17.41
328.944	29.7
329.157	-19.46
329.37	89.09
329.583	19.46
329.796	56.32
330.009	41.98
330.222	-39.94
330.435	93.18
330.648	41.98
330.861	-62.46
331.073	37.89
331.286	66.56
331.499	-39.94
331.712	52.22
331.925	7.17
332.138	-23.55
332.35	-17.41
332.563	25.6
332.776	29.7
332.989	21.5
333.202	23.55
333.414	11.26
333.627	62.46
333.84	48.13
334.053	66.56
334.265	23.55
334.478	60.42
334.691	15.36
334.903	9.22
335.116	35.84
335.329	5.12
335.541	46.08
335.754	37.89
335.966	35.84
336.179	58.37
336.392	54.27
336.604	23.55
336.817	-13.31
337.029	37.89
337.242	3.07
337.454	54.27
337.667	56.32
337.88	-21.5
338.092	13.31
338.305	54.27
338.517	17.41
338.729	107.52
338.942	121.85
339.154	66.56
339.367	31.74
339.579	46.08
339.792	23.55
340.004	31.74
340.217	37.89
340.429	74.75
340.641	27.65
340.854	29.7
341.066	50.18
341.278	31.74
341.491	54.27
341.703	50.18
341.915	76.8
342.128	15.36
342.34	107.52
342.552	5.12
342.764	50.18
342.977	15.36
343.189	-9.22
343.401	17.41
343.613	21.5
343.826	29.7
344.038	39.94
344.25	-31.74
344.462	-9.22
344.674	33.79
344.886	33.79
345.099	-7.17
345.311	17.41
345.523	19.46
345.735	25.6
345.947	29.7
346.159	5.12
346.371	31.74
346.583	15.36
346.795	54.27
347.007	15.36
347.219	-9.22
347.431	15.36
347.643	33.79
347.855	54.27
348.067	-3.07
348.279	58.37
348.491	58.37
348.703	35.84
348.915	89.09
349.127	31.74
349.339	130.05
349.551	-17.41
349.763	62.46
349.975	-1.02
350.187	50.18
350.399	35.84
350.61	-9.22
350.822	84.99
351.034	25.6
351.246	25.6
351.458	-7.17
351.669	37.89
351.881	74.75
352.093	82.94
352.305	76.8
352.517	25.6
352.728	99.33
352.94	15.36
353.152	46.08
353.363	-58.37
353.575	56.32
353.787	44.03
353.999	87.04
354.21	46.08
354.422	-17.41
354.633	-17.41
354.845	-19.46
355.057	-31.74
355.268	-66.56
355.48	60.42
355.692	-35.84
355.903	89.09
356.115	-5.12
356.326	56.32
356.538	17.41
356.749	-9.22
356.961	21.5
357.172	62.46
357.384	35.84
357.595	7.17
357.807	1.02
358.018	50.18
358.23	23.55
358.441	37.89
358.653	68.61
358.864	58.37
359.075	37.89
359.287	37.89
359.498	-9.22
359.709	3.07
359.921	-19.46
360.132	21.5
360.344	56.32
360.555	37.89
360.766	39.94
360.977	39.94
361.189	9.22
361.4	27.65
361.611	62.46
361.823	80.89
362.034	44.03
362.245	-37.89
362.456	91.13
362.667	91.13
362.879	78.85
363.09	5.12
363.301	9.22
363.512	87.04
363.723	54.27
363.935	-5.12
364.146	5.12
364.357	64.51
364.568	41.98
364.779	48.13
364.99	95.23
365.201	21.5
365.412	27.65
365.623	-31.74
365.834	41.98
366.045	1.02
366.256	-3.07
366.467	-1.02
366.678	17.41
366.889	-9.22
367.1	50.18
367.311	97.28
367.522	-27.65
367.733	107.52
367.944	37.89
368.155	62.46
368.366	25.6
368.577	41.98
368.788	95.23
368.999	58.37
369.209	-15.36
369.42	60.42
369.631	17.41
369.842	-23.55
370.053	37.89
370.264	37.89
370.474	9.22
370.685	31.74
370.896	41.98
371.107	48.13
371.317	5.12
371.528	87.04
371.739	107.52
371.95	1.02
372.16	46.08
372.371	80.89
372.582	17.41
372.792	99.33
373.003	37.89
373.214	29.7
373.424	3.07
373.635	25.6
373.846	25.6
374.056	-1.02
374.267	17.41
374.477	72.7
374.688	87.04
374.898	3.07
375.109	46.08
375.319	15.36
375.53	13.31
375.74	37.89
375.951	-3.07
376.161	44.03
376.372	107.52
376.582	78.85
376.793	15.36
377.003	15.36
377.214	-64.51
377.424	-41.98
377.635	64.51
377.845	1.02
378.055	78.85
378.266	58.37
378.476	50.18
378.686	58.37
378.897	15.36
379.107	97.28
379.317	56.32
379.528	93.18
379.738	68.61
379.948	27.65
380.158	74.75
380.369	41.98
380.579	52.22
380.789	21.5
380.999	-11.26
381.21	29.7
381.42	33.79
381.63	41.98
381.84	91.13
382.05	21.5
382.261	46.08
382.471	25.6
382.681	33.79
382.891	56.32
383.101	31.74
383.311	-9.22
383.521	29.7
383.731	62.46
383.941	109.57
384.151	11.26
384.361	66.56
384.571	21.5
384.781	60.42
384.991	-23.55
385.201	56.32
385.411	70.65
385.621	33.79
385.831	29.7
386.041	27.65
386.251	-23.55
386.461	31.74
386.671	80.89
386.881	80.89
387.091	72.7
387.301	78.85
387.511	58.37
387.72	-41.98
387.93	60.42
388.14	66.56
388.35	-17.41
388.56	29.7
388.769	23.55
388.979	111.61
389.189	-5.12
389.399	17.41
389.609	15.36
389.818	123.9
390.028	5.12
390.238	72.7
390.447	11.26
390.657	41.98
390.867	41.98
391.076	87.04
391.286	33.79
391.496	89.09
391.705	-35.84
391.915	25.6
392.125	87.04
392.334	95.23
392.544	9.22
392.753	74.75
392.963	1.02
393.172	66.56
393.382	48.13
393.591	54.27
393.801	-29.7
394.01	25.6
394.22	35.84
394.429	13.31
394.639	39.94
394.848	23.55
395.058	39.94
395.267	60.42
395.477	78.85
395.686	156.67
395.895	66.56
396.105	111.61
396.314	52.22
396.524	64.51
396.733	54.27
396.942	29.7
397.152	50.18
397.361	115.71
397.57	27.65
397.78	37.89
397.989	64.51
398.198	9.22
398.407	82.94
398.617	105.47
398.826	89.09
399.035	93.18
399.244	-15.36
399.453	41.98
399.663	62.46
399.872	80.89
400.081	54.27
400.29	70.65
400.499	148.48
400.708	41.98
400.917	21.5
401.127	87.04
401.336	74.75
401.545	80.89
401.754	107.52
401.963	31.74
402.172	80.89
402.381	60.42
402.59	103.42
402.799	70.65
403.008	91.13
403.217	23.55
403.426	62.46
403.635	101.37
403.844	97.28
404.053	93.18
404.262	146.43
404.471	123.9
404.68	152.57
404.888	185.34
405.097	87.04
405.306	117.76
405.515	58.37
405.724	179.2
405.933	72.7
406.142	107.52
406.35	68.61
406.559	99.33
406.768	66.56
406.977	130.05
407.185	103.42
407.394	183.29
407.603	136.19
407.812	162.81
408.02	171.01
408.229	193.53
408.438	130.05
408.646	119.81
408.855	166.91
409.064	197.63
409.272	166.91
409.481	197.63
409.69	173.05
409.898	64.51
410.107	181.25
410.315	171.01
410.524	209.92
410.733	148.48
410.941	130.05
411.15	281.6
411.358	158.72
411.567	207.87
411.775	310.27
411.984	207.87
412.192	240.64
412.401	261.12
412.609	214.01
412.818	234.49
413.026	334.84
413.234	287.74
413.443	310.27
413.651	271.36
413.86	316.41
414.068	248.83
414.276	318.46
414.485	375.8
414.693	334.84
414.901	463.86
415.11	410.62
415.318	439.29
415.526	474.1
415.734	519.16
415.943	494.58
416.151	484.34
416.359	379.9
416.567	553.98
416.776	476.15
416.984	437.24
417.192	668.66
417.4	611.32
417.608	545.78
417.817	527.35
418.025	676.85
418.233	676.85
418.441	691.19
418.649	723.96
418.857	738.29
419.065	805.88
419.273	685.05
419.481	822.26
419.689	812.02
419.897	803.83
420.105	844.79
420.313	883.7
420.521	914.42
420.729	1006.58
420.937	1094.64
421.145	951.28
421.353	1025.01
421.561	1151.98
421.769	1174.51
421.977	1264.62
422.185	1106.93
422.393	1182.7
422.601	1278.96
422.809	1328.11
423.017	1336.3
423.224	1405.93
423.432	1473.51
423.64	1483.75
423.848	1543.14
424.056	1516.52
424.263	1725.41
424.471	1500.14
424.679	1659.88
424.887	1766.37
425.094	1813.48
425.302	1864.68
425.51	1909.73
425.718	1885.16
425.925	1915.87
426.133	2001.89
426.341	2218.97
426.548	2298.84
426.756	2237.41
426.964	2257.89
427.171	2345.95
427.379	2427.87
427.586	2626.52
427.794	2612.18
428.001	2798.55
428.209	2823.12
428.417	2773.97
428.624	3093.46
428.832	3083.22
429.039	2948.05
429.247	3068.88
429.454	3179.47
429.662	3400.65
429.869	3281.87
430.076	3453.9
430.284	3419.08
430.491	3400.65
430.699	3660.74
430.906	3625.93
431.114	3791.81
431.321	3896.26
431.528	3939.27
431.736	4238.27
431.943	4283.33
432.15	4350.91
432.358	4334.53
432.565	4578.23
432.772	4524.99
432.979	4719.54
433.187	5088.18
433.394	4848.57
433.601	5170.1
433.808	5221.3
434.016	5301.17
434.223	5422
434.43	5690.28
434.637	5694.38
434.844	5989.28
435.052	6124.45
435.259	6110.11
435.466	6132.64
435.673	6200.23
435.88	6448.03
436.087	7011.22
436.294	6900.63
436.501	6663.07
436.708	6687.64
436.915	7132.05
437.122	7338.9
437.329	7361.42
437.537	7713.67
437.743	7682.95
437.95	7619.47
438.157	8035.21
438.364	8434.56
438.571	8170.37
438.778	8416.13
438.985	9036.66
439.192	8833.91
439.399	8885.11
439.606	8833.91
439.813	9335.67
440.02	9966.44
440.227	9739.12
440.433	9710.44
440.64	10093.41
440.847	9925.48
441.054	10236.77
441.261	10879.83
441.467	10576.73
441.674	10867.55
441.881	11178.84
442.088	11344.72
442.294	11174.74
442.501	11453.27
442.708	11871.05
442.914	12270.4
443.121	12972.86
443.328	12399.43
443.534	13269.81
443.741	12964.67
443.948	12938.04
444.154	13667.12
444.361	13824.81
444.568	13867.82
444.774	13869.87
444.981	13966.12
445.187	14519.07
445.394	14986.01
445.6	14666.53
445.807	16251.66
446.013	15469.33
446.22	15887.12
446.426	16546.56
446.633	16401.16
446.839	17453.81
447.046	16567.04
447.252	17468.15
447.459	17347.32
447.665	17558.26
447.871	18438.89
448.078	19251.93
448.284	18287.34
448.491	18512.61
448.697	19163.87
448.903	19727.06
449.11	19989.2
449.316	19512.02
449.522	19999.44
449.728	20521.67
449.935	20734.66
450.141	20628.17
450.347	20939.46
450.553	20390.6
450.76	20693.7
450.966	21553.85
451.172	21521.08
451.378	21883.57
451.584	21527.22
451.791	21947.06
451.997	21912.24
452.203	22387.37
452.409	22641.32
452.615	22194.86
452.821	21498.55
453.027	21330.62
453.233	22418.09
453.44	21574.33
453.646	21635.77
453.852	21541.56
454.058	22399.66
454.264	21713.59
454.47	22102.7
454.676	21449.4
454.882	21881.52
455.088	20439.75
455.294	20593.35
455.5	21066.43
455.705	21269.18
455.911	20548.29
456.117	20200.14
456.323	19604.18
456.529	18604.77
456.735	19475.16
456.941	19057.37
457.147	18639.59
457.352	18141.93
457.558	18066.16
457.764	18084.59
457.97	17281.78
458.176	17326.84
458.381	17414.9
458.587	16184.07
458.793	16661.25
458.999	15663.89
459.204	16794.37
459.41	16159.5
459.616	14988.06
459.821	15053.59
460.027	15196.95
460.233	14885.66
460.438	14082.86
460.644	14119.72
460.85	13695.79
461.055	13308.72
461.261	13361.97
461.466	12387.14
461.672	11856.72
461.878	12819.26
462.083	11895.63
462.289	11889.48
462.494	11924.3
462.7	11131.73
462.905	11051.86
463.111	11375.44
463.316	11297.62
463.522	10963.8
463.727	11066.2
463.932	10859.35
464.138	10802.01
464.343	11060.06
464.549	10693.47
464.754	10888.03
464.959	10896.22
465.165	10986.33
465.37	10449.76
465.575	10150.76
465.781	10474.34
465.986	10455.9
466.191	10320.74
466.397	10048.36
466.602	9497.46
466.807	9765.74
467.012	9735.02
467.218	9943.91
467.423	9599.85
467.628	9755.5
467.833	10335.07
468.038	9866.09
468.244	9808.75
468.449	9976.68
468.654	9573.23
468.859	9483.12
469.064	9476.98
469.269	9171.83
469.474	9306.99
469.679	9438.06
469.885	9051
470.09	9094.01
470.295	9139.06
470.5	8979.32
470.705	8926.07
470.91	8606.59
471.115	8608.64
471.32	8756.09
471.525	8680.32
471.73	8541.05
471.935	8340.35
472.139	8235.91
472.344	8409.98
472.549	8420.22
472.754	8303.49
472.959	8078.21
473.164	7881.61
473.369	7850.89
473.574	8231.81
473.778	7959.43
473.983	8010.63
474.188	7865.22
474.393	7480.21
474.598	7506.83
474.802	7533.45
475.007	7533.45
475.212	7588.75
475.417	7213.97
475.621	7187.35
475.826	7342.99
476.031	7123.86
476.235	6898.58
476.44	7240.59
476.645	6837.14
476.849	6906.77
477.054	6921.11
477.259	6736.79
477.463	6749.08
477.668	6523.8
477.872	6681.5
478.077	6546.33
478.282	6480.8
478.486	6407.07
478.691	6302.62
478.895	6353.82
479.1	6230.94
479.304	6333.34
479.509	6052.77
479.713	6261.66
479.918	6161.31
480.122	6052.77
480.326	6112.16
480.531	5864.36
480.735	5931.94
480.94	5895.08
481.144	6093.73
481.348	5710.76
481.553	5952.42
481.757	5837.73
481.961	5768.1
482.166	5897.13
482.37	5919.65
482.574	5835.69
482.778	5856.17
482.983	5815.21
483.187	5850.02
483.391	5831.59
483.595	5759.91
483.8	5786.54
484.004	5649.32
484.208	5764.01
484.412	5751.72
484.616	5792.68
484.821	5692.33
485.025	5671.85
485.229	5807.02
485.433	5804.97
485.637	5817.26
485.841	5743.53
486.045	5688.23
486.249	5888.93
486.453	5835.69
486.657	5901.22
486.861	5792.68
487.065	5739.43
487.269	5829.54
487.473	5870.5
487.677	5977
487.881	5772.2
488.085	5757.86
488.289	5893.03
488.493	5804.97
488.697	5917.61
488.901	5858.21
489.105	5940.13
489.309	5942.18
489.512	5907.37
489.716	5841.83
489.92	5944.23
490.124	5852.07
490.328	6085.54
490.531	5927.85
490.735	6042.53
490.939	6083.49
491.143	6071.2
491.346	6058.92
491.55	6093.73
491.754	6081.44
491.958	6183.84
492.161	6189.99
492.365	6331.3
492.569	6149.03
492.772	6282.14
492.976	6261.66
493.18	6378.4
493.383	6228.9
493.587	6308.77
493.79	6488.99
493.994	6368.16
494.197	6423.45
494.401	6497.18
494.605	6376.35
494.808	6671.26
495.012	6722.46
495.215	6497.18
495.419	6841.24
495.622	6900.63
495.825	6898.58
496.029	6841.24
496.232	7082.9
496.436	7041.94
496.639	7394.19
496.843	7109.52
497.046	7408.53
497.249	7424.91
497.453	7461.77
497.656	7500.69
497.859	7578.51
498.063	7674.76
498.266	8037.25
498.469	7889.8
498.673	7746.44
498.876	7963.53
499.079	8184.71
499.282	8266.63
499.485	8438.66
499.689	8287.11
499.892	8487.81
500.095	8608.64
500.298	8778.62
500.501	8528.77
500.705	8942.46
500.908	8911.74
501.111	9126.77
501.314	9063.29
501.517	9319.28
501.72	9534.32
501.923	9362.29
502.126	9735.02
502.329	9802.6
502.532	9827.18
502.735	10142.57
502.938	9962.34
503.141	10345.31
503.344	10427.23
503.547	10437.47
503.75	10740.57
503.953	10890.07
504.156	10994.52
504.359	11092.82
504.562	11141.97
504.765	11447.12
504.968	11393.87
505.17	11598.67
505.373	11580.24
505.576	11967.31
505.779	11842.38
505.982	12192.58
506.185	12360.52
506.387	12497.73
506.59	12579.65
506.793	12692.29
506.996	12755.77
507.198	13226.81
507.401	13087.54
507.604	13388.6
507.807	13652.78
508.009	13755.18
508.212	13695.79
508.415	14086.95
508.617	14101.29
508.82	14263.08
509.022	14295.85
509.225	14752.54
509.428	14873.37
509.63	14836.51
509.833	14897.95
510.035	15170.33
510.238	15270.68
510.44	15498
510.643	15907.6
510.845	16206.6
511.048	15708.94
511.25	16112.39
511.453	16147.21
511.655	16896.77
511.858	16544.52
512.06	16980.73
512.262	17326.84
512.465	17199.87
512.667	17328.89
512.87	17945.33
513.072	17693.43
513.274	18311.91
513.477	18266.86
513.679	18479.85
513.881	18629.35
514.084	18963.17
514.286	18832.1
514.488	19088.09
514.69	19768.02
514.893	19731.15
515.095	19696.34
515.297	20222.67
515.499	20533.96
515.701	20480.71
515.904	20624.07
516.106	21103.29
516.308	20933.31
516.51	21107.39
516.712	21574.33
516.914	21666.49
517.116	21764.79
517.318	22147.76
517.52	22389.42
517.722	22350.51
517.925	23073.44
518.127	23186.08
518.329	23192.22
518.531	23190.17
518.733	23659.16
518.935	23538.33
519.136	23902.87
519.338	24291.98
519.54	24740.49
519.742	24789.64
519.944	24996.48
520.146	25528.95
520.348	25590.39
520.55	25498.23
520.752	25395.84
520.954	26358.38
521.155	26075.76
521.357	26362.48
521.559	26772.07
521.761	26958.44
521.963	27279.97
522.164	27257.44
522.366	27224.67
522.568	27462.24
522.77	27738.71
522.971	27951.7
523.173	27961.94
523.375	28758.6
523.576	28349.01
523.778	28484.17
523.98	28967.49
524.181	29037.12
524.383	28957.25
524.584	29370.94
524.786	29317.7
524.988	29332.03
525.189	29878.84
525.391	29919.8
525.592	30155.32
525.794	30270
525.995	30261.81
526.197	30390.83
526.398	30356.02
526.6	30831.15
526.801	30798.38
527.003	31048.23
527.204	30818.86
527.406	31373.86
527.607	31494.69
527.808	31861.27
528.01	31070.76
528.211	31826.46
528.412	32004.63
528.614	31740.44
528.815	32031.26
529.016	32221.72
529.218	32438.8
529.419	32231.96
529.62	32444.94
529.822	32256.53
530.023	32590.35
530.224	32543.25
530.425	32481.81
530.626	32721.42
530.828	32322.07
531.029	33061.38
531.23	32772.62
531.431	32463.38
531.632	32645.65
531.833	33223.17
532.035	33120.77
532.236	33149.45
532.437	33356.29
532.638	33012.23
532.839	33182.21
533.04	33843.71
533.241	33296.9
533.442	33532.42
533.643	33178.12
533.844	33333.76
534.045	33235.46
534.246	33294.85
534.447	33462.79
534.648	33038.86
534.849	33473.03
535.05	33368.58
535.251	33554.94
535.451	33018.38
535.652	33505.79
535.853	33434.11
536.054	33870.33
536.255	34036.22
536.456	33274.37
536.657	34042.36
536.857	33341.96
537.058	33409.54
537.259	33597.95
537.46	33686.01
537.66	33468.93
537.861	33473.03
538.062	33317.38
538.263	33241.6
538.463	33395.2
538.664	33395.2
538.865	33720.83
539.065	33876.48
539.266	33643.01
539.466	33985.02
539.667	33671.68
539.868	33763.84
540.068	33702.4
540.269	33722.88
540.469	33886.71
540.67	33442.31
540.87	33346.05
541.071	33681.92
541.271	33780.22
541.472	33305.09
541.672	33657.34
541.873	33407.49
542.073	33389.06
542.274	34075.13
542.474	33266.18
542.675	33329.67
542.875	33942.01
543.075	33466.88
543.276	33270.28
543.476	33630.72
543.676	33462.79
543.877	33671.68
544.077	33315.33
544.277	33464.83
544.478	33444.35
544.678	33434.11
544.878	33305.09
545.078	33569.28
545.279	33167.88
545.479	33239.56
545.679	33309.19
545.879	33559.04
546.079	33294.85
546.28	33448.45
546.48	33141.25
546.68	33088.01
546.88	33438.21
547.08	33550.85
547.28	33272.32
547.48	33354.24
547.68	33112.58
547.88	33206.79
548.081	33571.33
548.281	33556.99
548.481	33196.55
548.681	33427.97
548.881	33083.91
549.081	33497.6
549.28	33247.75
549.48	33745.41
549.68	33333.76
549.88	33530.37
550.08	33081.86
550.28	33221.13
550.48	33397.25
550.68	33860.09
550.88	33360.39
551.08	33546.75
551.279	33212.93
551.479	33122.82
551.679	33231.36
551.879	33411.59
552.079	33468.93
552.278	33274.37
552.478	33184.26
552.678	33210.89
552.878	33286.66
553.077	32979.46
553.277	32979.46
553.477	33612.29
553.676	33231.36
553.876	33040.9
554.076	33206.79
554.275	32516.62
554.475	32702.99
554.674	33149.45
554.874	33202.69
555.074	32700.94
555.273	32913.93
555.473	33206.79
555.672	32684.56
555.872	33038.86
556.071	32965.13
556.271	33010.18
556.47	32653.84
556.67	32260.63
556.869	32506.38
557.068	32930.31
557.268	32539.15
557.467	32780.81
557.667	32614.93
557.866	32688.65
558.065	32627.21
558.265	32485.9
558.464	32393.75
558.663	32903.69
558.863	32260.63
559.062	32862.73
559.261	32238.1
559.461	32639.5
559.66	31658.52
559.859	32031.26
560.058	31779.36
560.258	32492.05
560.457	31732.25
560.656	32252.44
560.855	31908.38
561.054	32129.56
561.253	31580.7
561.453	32014.87
561.652	31832.6
561.851	31693.34
562.05	31494.69
562.249	31298.08
562.448	32057.88
562.647	31576.61
562.846	31433.25
563.045	31207.97
563.244	31171.11
563.443	31654.43
563.642	31119.91
563.841	31175.2
564.04	31148.58
564.239	31361.57
564.438	30829.1
564.637	30876.2
564.836	31328.8
565.035	30822.95
565.234	30833.19
565.432	30802.47
565.631	30511.66
565.83	30564.91
566.029	30470.7
566.228	30626.35
566.427	30405.17
566.625	30226.99
566.824	30089.78
567.023	30464.56
567.222	29729.34
567.42	30425.65
567.619	30224.95
567.818	30011.96
568.016	30224.95
568.215	30267.95
568.414	29909.56
568.612	30313.01
568.811	29923.9
569.01	30100.02
569.208	29475.39
569.407	29696.57
569.605	29372.99
569.804	29420.1
570.002	29661.76
570.201	29360.7
570.4	29090.37
570.598	28863.05
570.797	28719.69
570.995	28942.92
571.193	28398.16
571.392	28885.58
571.59	28549.71
571.789	28828.23
571.987	28349.01
572.186	28889.67
572.384	28398.16
572.582	28623.44
572.781	28815.94
572.979	28131.92
573.177	28078.68
573.376	28033.62
573.574	28058.2
573.772	27951.7
573.971	27976.28
574.169	27886.17
574.367	27847.26
574.565	27775.58
574.763	27597.4
574.962	27650.65
575.16	27400.8
575.358	27427.42
575.556	27210.34
575.754	27286.11
575.952	27388.51
576.151	27232.86
576.349	27009.64
576.547	26858.09
576.745	26991.2
576.943	26964.58
577.141	27185.76
577.339	26813.03
577.537	26767.98
577.735	26653.29
577.933	26483.31
578.131	26376.81
578.329	26403.44
578.527	26139.25
578.725	26321.52
578.923	26284.65
579.121	25778.81
579.319	26286.7
579.516	26026.61
579.714	25918.07
579.912	25793.14
580.11	25627.26
580.308	25399.93
580.506	25662.07
580.704	25227.9
580.901	25483.9
581.099	25424.51
581.297	25365.12
581.495	25080.45
581.692	25469.56
581.89	24849.03
582.088	25318.01
582.285	24984.19
582.483	25160.32
582.681	24777.35
582.878	24996.48
583.076	24660.62
583.274	24965.76
583.471	24685.19
583.669	24586.89
583.866	24568.46
584.064	24713.86
584.262	24003.22
584.459	24220.3
584.657	24205.97
584.854	24308.37
585.052	23773.85
585.249	24019.6
585.447	24228.49
585.644	23794.32
585.841	23638.68
586.039	24187.53
586.236	23554.71
586.434	23749.27
586.631	23278.24
586.828	23470.75
587.026	23739.03
587.223	23276.19
587.42	23577.24
587.618	23136.93
587.815	23169.69
588.012	23100.06
588.21	23020.19
588.407	22987.43
588.604	22948.51
588.801	22887.07
588.999	22942.37
589.196	22581.93
589.393	22870.69
589.59	22465.19
589.787	22512.3
589.984	22477.48
590.182	22127.28
590.379	22465.19
590.576	22401.71
590.773	22280.88
590.97	22295.21
591.167	22053.55
591.364	21834.42
591.561	21965.49
591.758	21574.33
591.955	21529.27
592.152	22059.7
592.349	21742.26
592.546	21910.19
592.743	21746.36
592.94	21422.78
593.137	21637.81
593.334	21562.04
593.531	21076.67
593.727	21467.83
593.924	21443.26
594.121	21023.42
594.318	21152.45
594.515	20785.86
594.712	20955.84
594.908	21101.25
595.105	20847.3
595.302	20486.86
595.499	20886.21
595.696	20632.26
595.892	20472.52
596.089	20626.12
596.286	20660.93
596.482	20490.95
596.679	20183.76
596.876	20462.28
597.072	20243.15
597.269	20181.71
597.466	19999.44
597.662	20067.02
597.859	19950.29
598.055	19970.77
598.252	19890.9
598.448	19876.56
598.645	19579.61
598.841	19485.4
599.038	19581.65
599.234	19839.7
599.431	19264.22
599.627	19360.47
599.824	19591.89
600.02	19323.61
600.217	19614.42
600.413	19229.4
600.609	19303.13
600.806	19098.33
601.002	19200.73
601.198	18897.63
601.395	18692.83
601.591	18893.54
601.787	18916.06
601.984	18952.93
602.18	18758.37
602.376	18836.19
602.572	18672.36
602.769	18735.84
602.965	18316.01
603.161	18289.38
603.357	18258.67
603.553	18383.59
603.75	18193.13
603.946	18283.24
604.142	18166.51
604.338	17939.18
604.534	18074.35
604.73	17740.53
604.926	17980.14
605.122	17984.24
605.318	17939.18
605.514	17658.61
605.71	17769.2
605.906	17711.86
606.102	17451.77
606.298	17685.23
606.494	17550.07
606.69	17646.32
606.886	17416.95
607.082	17355.51
607.278	17439.48
607.474	17142.52
607.67	17378.04
607.866	16876.29
608.062	17267.45
608.257	16880.38
608.453	17279.74
608.649	17079.04
608.845	16909.05
609.041	16749.31
609.236	16995.07
609.432	16790.27
609.628	16755.46
609.824	16978.68
610.019	16610.05
610.215	16726.78
610.411	16839.42
610.606	16530.18
610.802	16808.7
610.998	16597.76
611.193	16626.43
611.389	16270.09
611.584	16524.04
611.78	16141.07
611.976	16392.97
612.171	16306.95
612.367	16274.18
612.562	15983.37
612.758	15995.66
612.953	16026.38
613.149	16323.33
613.344	16143.11
613.539	16233.22
613.735	16055.05
613.93	16028.43
614.126	15938.32
614.321	16038.67
614.517	15926.03
614.712	15821.58
614.907	15833.87
615.103	15889.17
615.298	15610.64
615.493	16038.67
615.688	15299.35
615.884	16053
616.079	15635.22
616.274	15608.59
616.47	15538.96
616.665	15334.17
616.86	15483.67
617.055	15330.07
617.25	15209.24
617.445	15450.9
617.641	14889.76
617.836	15393.56
618.031	15063.83
618.226	15088.41
618.421	15012.63
618.616	15196.95
618.811	14879.52
619.006	15162.14
619.201	15006.49
619.396	14908.19
619.591	14740.26
619.786	14813.98
619.981	14390.05
620.176	14428.96
620.371	14471.97
620.566	14480.16
620.761	14246.69
620.956	14467.88
621.151	14353.19
621.346	14267.17
621.541	13921.07
621.735	14164.78
621.93	13812.53
622.125	13878.06
622.32	13701.93
622.515	13783.85
622.709	13777.71
622.904	13685.55
623.099	13640.5
623.294	13509.43
623.488	13443.89
623.683	13316.92
623.878	13120.31
624.072	13292.34
624.267	13196.09
624.462	13204.28
624.656	13050.68
624.851	12940.09
625.046	12829.5
625.24	12868.41
625.435	12655.42
625.629	12702.53
625.824	12651.33
626.018	12600.13
626.213	12323.65
626.407	12557.12
626.602	12114.76
626.796	12628.8
626.991	12049.22
627.185	12200.77
627.38	12266.31
627.574	12030.79
627.768	11778.89
627.963	11928.39
628.157	11715.41
628.352	11778.89
628.546	11656.01
628.74	11914.06
628.935	11504.46
629.129	11555.66
629.323	11232.08
629.517	11262.8
629.712	11256.66
629.906	11408.21
630.1	11070.3
630.294	11080.53
630.489	11158.36
630.683	11060.06
630.877	10974.04
631.071	10947.42
631.265	10984.28
631.459	10724.19
631.653	10718.04
631.848	10820.44
632.042	10672.99
632.236	10750.81
632.43	10670.94
632.624	10498.91
632.818	10255.2
633.012	10419.04
633.206	10292.07
633.4	10277.73
633.594	10154.85
633.788	10304.35
633.982	10146.66
634.176	10115.94
634.369	9966.44
634.563	9816.94
634.757	9909.1
634.951	9675.63
635.145	9784.17
635.339	9966.44
635.533	9710.44
635.726	9720.68
635.92	9427.82
636.114	9675.63
636.308	9595.76
636.501	9425.78
636.695	9593.71
636.889	9483.12
637.083	9374.58
637.276	9229.17
637.47	9190.26
637.664	9177.97
637.857	9067.38
638.051	9229.17
638.244	8954.74
638.438	9046.9
638.632	8858.49
638.825	8827.77
639.019	9124.72
639.212	8665.98
639.406	8713.08
639.599	8637.31
639.793	8504.19
639.986	8500.09
640.18	8606.59
640.373	8496
640.567	8412.03
640.76	8448.9
640.954	8334.21
641.147	8080.26
641.34	8131.46
641.534	8305.54
641.727	8158.08
641.92	8094.6
642.114	7904.14
642.307	8027.01
642.5	7879.56
642.694	7824.26
642.887	7730.06
643.08	7869.32
643.273	7863.18
643.467	7820.17
643.66	7547.79
643.853	7510.93
644.046	7461.77
644.239	7431.05
644.432	7519.12
644.626	7412.62
644.819	7547.79
645.012	7353.23
645.205	7232.4
645.398	7117.72
645.591	7265.17
645.784	7068.56
645.977	7140.24
646.17	6970.26
646.363	6927.25
646.556	6847.38
646.749	6986.65
646.942	7089.04
647.135	7054.23
647.328	6759.32
647.521	6790.04
647.714	6800.28
647.907	6613.92
648.099	6638.49
648.292	6699.93
648.485	6564.76
648.678	6585.24
648.871	6521.76
649.064	6366.11
649.256	6544.28
649.449	6466.46
649.642	6509.47
649.835	6372.25
650.027	6345.63
650.22	6253.47
650.413	6257.57
650.605	6378.4
650.798	6183.84
650.991	6169.51
651.183	6085.54
651.376	5977
651.568	5923.75
651.761	6136.74
651.954	6040.48
652.146	5948.33
652.339	5843.88
652.531	5829.54
652.724	5809.06
652.916	5747.62
653.109	5831.59
653.301	5776.3
653.494	5768.1
653.686	5665.71
653.879	5600.17
654.071	5653.42
654.263	5612.46
654.456	5536.68
654.648	5591.98
654.84	5333.93
655.033	5493.68
655.225	5501.87
655.417	5405.61
655.61	5321.65
655.802	5481.39
655.994	5213.1
656.186	5315.5
656.379	5217.2
656.571	5280.69
656.763	5190.58
656.955	5206.96
657.148	5098.42
657.34	5131.19
657.532	5112.75
657.724	5041.08
657.916	5018.55
658.108	4975.54
658.3	5000.12
658.492	5143.47
658.684	4912.05
658.876	4705.21
659.068	4910.01
659.26	4867
659.452	4791.22
659.644	4801.46
659.836	4645.82
660.028	4838.33
660.22	4651.96
660.412	4572.09
660.604	4561.85
660.796	4541.37
660.988	4651.96
661.18	4506.56
661.372	4404.16
661.563	4496.32
661.755	4514.75
661.947	4508.6
662.139	4406.2
662.331	4367.29
662.522	4357.05
662.714	4256.7
662.906	4244.42
663.097	4307.9
663.289	4314.05
663.481	4174.78
663.673	4129.73
663.864	4252.61
664.056	4174.78
664.247	4051.91
664.439	4135.87
664.631	3939.27
664.822	4047.81
665.014	3935.17
665.205	4033.47
665.397	3980.23
665.588	4101.06
665.78	3951.56
665.971	3855.3
666.163	3896.26
666.354	3857.35
666.546	3814.34
666.737	3705.8
666.929	3781.57
667.12	3697.61
667.311	3662.79
667.503	3707.85
667.694	3664.84
667.885	3664.84
668.077	3744.71
668.268	3662.79
668.459	3716.04
668.651	3716.04
668.842	3654.6
669.033	3597.26
669.224	3742.66
669.416	3562.44
669.607	3605.45
669.798	3527.63
669.989	3570.63
670.18	3615.69
670.371	3550.15
670.563	3365.84
670.754	3486.67
670.945	3429.32
671.136	3531.72
671.327	3310.54
671.518	3283.92
671.709	3390.41
671.9	3433.42
672.091	3349.45
672.282	3380.17
672.473	3396.56
672.664	3279.82
672.855	3296.21
673.046	3298.25
673.237	3341.26
673.428	3294.16
673.619	3365.84
673.809	3212.24
674	3322.83
674.191	3113.94
674.382	3249.1
674.573	3265.49
674.764	3277.77
674.954	3179.47
675.145	3193.81
675.336	3195.86
675.527	3191.76
675.717	2999.25
675.908	3144.66
676.099	3257.29
676.289	3185.62
676.48	3011.54
676.671	3169.23
676.861	3060.69
677.052	3101.65
677.243	3011.54
677.433	3064.79
677.624	3040.21
677.814	2980.82
678.005	2950.1
678.195	3068.88
678.386	3103.7
678.576	2978.77
678.767	3027.92
678.957	3101.65
679.148	3122.13
679.338	3013.59
679.529	2972.63
679.719	2997.2
679.909	3093.46
680.1	2995.15
680.29	3087.31
680.481	3066.83
680.671	3064.79
680.861	3101.65
681.052	2962.39
681.242	3021.78
681.432	2948.05
681.622	2849.75
681.813	2964.43
682.003	2939.86
682.193	2868.18
682.383	2925.52
682.573	2898.9
682.764	2839.51
682.954	3068.88
683.144	3009.49
683.334	2831.32
683.524	2933.72
683.714	2853.84
683.904	2923.48
684.094	2929.62
684.284	2837.46
684.474	3011.54
684.664	2905.04
684.854	2999.25
685.044	2833.36
685.234	2741.21
685.424	2896.85
685.614	2907.09
685.804	2894.8
685.994	2853.84
686.184	2831.32
686.374	2825.17
686.564	2898.9
686.753	2921.43
686.943	2903
687.133	2714.58
687.323	2880.47
687.513	2888.66
687.702	2773.97
687.892	2753.49
688.082	2814.93
688.272	2864.08
688.461	2900.95
688.651	2917.33
688.841	2866.13
689.03	2769.88
689.22	2804.69
689.41	2776.02
689.599	2716.63
689.789	2839.51
689.979	2929.62
690.168	2786.26
690.358	2751.45
690.547	2794.45
690.737	2683.86
690.926	2784.21
691.116	2603.99
691.305	2698.2
691.495	2696.15
691.684	2595.8
691.874	2726.87
692.063	2624.47
692.252	2667.48
692.442	2659.29
692.631	2554.84
692.82	2544.6
693.01	2522.07
693.199	2608.09
693.388	2644.95
693.578	2720.73
693.767	2579.42
693.956	2593.75
694.146	2642.9
694.335	2507.74
694.524	2528.22
694.713	2626.52
694.902	2585.56
695.092	2601.94
695.281	2386.91
695.47	2589.66
695.659	2587.61
695.848	2558.94
696.037	2642.9
696.226	2548.7
696.415	2544.6
696.604	2503.64
696.793	2651.1
696.982	2450.39
697.171	2325.47
697.36	2544.6
697.549	2513.88
697.738	2507.74
697.927	2511.83
698.116	2606.04
698.305	2427.87
698.494	2585.56
698.683	2485.21
698.872	2526.17
699.061	2477.02
699.25	2522.07
699.438	2407.39
699.627	2595.8
699.816	2485.21
700.005	2407.39
700.193	2509.79
700.382	2436.06
700.571	2374.62
700.76	2384.86
700.948	2393.05
701.137	2436.06
701.326	2374.62
701.514	2425.82
701.703	2407.39
701.892	2382.81
702.08	2380.76
702.269	2356.19
702.457	2341.85
702.646	2423.77
702.834	2429.91
703.023	2444.25
703.212	2413.53
703.4	2372.57
703.589	2360.28
703.777	2374.62
703.965	2386.91
704.154	2307.04
704.342	2388.96
704.531	2302.94
704.719	2393.05
704.907	2288.61
705.096	2294.75
705.284	2407.39
705.472	2462.68
705.661	2358.24
705.849	2231.26
706.037	2282.46
706.226	2300.89
706.414	2313.18
706.602	2261.98
706.79	2290.65
706.979	2216.93
707.167	2208.73
707.355	2325.47
707.543	2325.47
707.731	2186.21
707.919	2223.07
708.107	2155.49
708.296	2268.13
708.484	2251.74
708.672	2141.15
708.86	2190.3
709.048	2249.69
709.236	2173.92
709.424	2210.78
709.612	2255.84
709.8	2202.59
709.988	2204.64
710.176	2104.29
710.364	2241.5
710.551	2165.73
710.739	2118.62
710.927	2081.76
711.115	2167.77
711.303	2048.99
711.491	1999.84
711.679	2202.59
711.866	2190.3
712.054	2044.9
712.242	1989.6
712.43	2151.39
712.617	2085.86
712.805	1967.07
712.993	2126.82
713.181	1999.84
713.368	2122.72
713.556	2071.52
713.744	2032.61
713.931	2128.86
714.119	1991.65
714.306	2094.05
714.494	2079.71
714.682	1973.22
714.869	2012.13
715.057	2022.37
715.244	1948.64
715.432	2079.71
715.619	2008.03
715.807	2028.51
715.994	1958.88
716.182	2008.03
716.369	2030.56
716.556	1928.16
716.744	1901.54
716.931	1944.55
717.119	1965.03
717.306	1848.29
717.493	1924.07
717.681	1995.75
717.868	2044.9
718.055	1813.48
718.242	1915.87
718.43	1934.31
718.617	1930.21
718.804	1919.97
718.991	1948.64
719.179	1772.52
719.366	1879.01
719.553	1819.62
719.74	1856.48
719.927	1870.82
720.114	1891.3
720.301	1840.1
720.488	1838.05
720.676	1795.04
720.863	1887.2
721.05	1860.58
721.237	1815.52
721.424	1850.34
721.611	1663.97
721.798	1770.47
721.985	1780.71
722.172	1772.52
722.358	1840.1
722.545	1811.43
722.732	1805.28
722.919	1778.66
723.106	1762.28
723.293	1768.42
723.48	1725.41
723.667	1772.52
723.853	1737.7
724.04	1795.04
724.227	1797.09
724.414	1741.8
724.6	1788.9
724.787	1729.51
724.974	1780.71
725.161	1733.61
725.347	1803.24
725.534	1684.45
725.72	1606.63
725.907	1649.64
726.094	1766.37
726.28	1684.45
726.467	1680.36
726.653	1743.85
726.84	1719.27
727.027	1768.42
727.213	1553.38
727.4	1696.74
727.586	1604.58
727.773	1606.63
727.959	1733.61
728.145	1639.4
728.332	1629.16
728.518	1672.17
728.705	1692.65
728.891	1713.13
729.077	1577.96
729.264	1602.54
729.45	1594.34
729.636	1610.73
729.823	1682.41
730.009	1633.26
730.195	1479.66
730.382	1639.4
730.568	1639.4
730.754	1623.02
730.94	1514.47
731.126	1709.03
731.313	1672.17
731.499	1663.97
731.685	1604.58
731.871	1580.01
732.057	1532.9
732.243	1625.06
732.429	1549.29
732.615	1590.25
732.801	1586.15
732.987	1612.78
733.173	1704.93
733.359	1637.35
733.545	1629.16
733.731	1506.28
733.917	1551.34
734.103	1600.49
734.289	1555.43
734.475	1532.9
734.661	1604.58
734.847	1577.96
735.033	1557.48
735.219	1559.53
735.404	1577.96
735.59	1502.19
735.776	1567.72
735.962	1588.2
736.148	1469.42
736.333	1553.38
736.519	1520.62
736.705	1459.18
736.89	1571.82
737.076	1545.19
737.262	1512.42
737.447	1434.6
737.633	1471.47
737.819	1512.42
738.004	1459.18
738.19	1537
738.375	1362.92
738.561	1506.28
738.747	1379.31
738.932	1321.96
739.118	1410.03
739.303	1457.13
739.489	1465.32
739.674	1381.35
739.859	1438.7
740.045	1389.55
740.23	1469.42
740.416	1373.16
740.601	1401.83
740.786	1387.5
740.972	1342.44
741.157	1405.93
741.342	1418.22
741.528	1334.25
741.713	1399.79
741.898	1414.12
742.084	1295.34
742.269	1328.11
742.454	1448.94
742.639	1352.68
742.824	1303.53
743.01	1344.49
743.195	1397.74
743.38	1338.35
743.565	1291.24
743.75	1348.59
743.935	1360.88
744.12	1350.64
744.305	1438.7
744.49	1256.43
744.675	1283.05
744.86	1334.25
745.045	1364.97
745.23	1227.76
745.415	1201.13
745.6	1256.43
745.785	1219.57
745.97	1270.76
746.155	1231.85
746.34	1248.24
746.525	1178.61
746.71	1240.05
746.895	1233.9
747.079	1289.2
747.264	1227.76
747.449	1242.09
747.634	1186.8
747.819	1233.9
748.003	1080.3
748.188	1123.31
748.373	1143.79
748.557	1143.79
748.742	1151.98
748.927	1049.58
749.111	1129.45
749.296	1094.64
749.481	1123.31
749.665	1117.17
749.85	1141.74
750.034	1043.44
750.219	1139.69
750.404	1098.74
750.588	1061.87
750.773	1149.93
750.957	1092.59
751.141	1080.3
751.326	1127.41
751.51	994.29
751.695	1133.55
751.879	1102.83
752.064	955.38
752.248	1035.25
752.432	1102.83
752.617	1008.62
752.801	1045.49
752.985	1068.02
753.17	996.34
753.354	932.85
753.538	1117.17
753.722	971.76
753.907	998.38
754.091	957.43
754.275	992.24
754.459	908.27
754.643	932.85
754.828	941.04
755.012	922.61
755.196	947.19
755.38	973.81
755.564	877.55
755.748	855.03
755.932	840.69
756.116	824.31
756.3	785.4
756.484	906.23
756.668	857.07
756.852	836.6
757.036	941.04
757.22	871.41
757.404	922.61
757.588	758.77
757.772	867.31
757.956	836.6
758.14	865.27
758.323	881.65
758.507	775.16
758.691	801.78
758.875	760.82
759.059	793.59
759.242	746.48
759.426	809.97
759.61	904.18
759.794	693.24
759.977	771.06
760.161	740.34
760.345	672.76
760.528	734.2
760.712	850.93
760.895	728.05
761.079	824.31
761.263	721.91
761.446	711.67
761.63	760.82
761.813	779.25
761.997	726
762.18	695.29
762.364	756.72
762.547	603.13
762.731	721.91
762.914	697.33
763.098	631.8
763.281	721.91
763.464	748.53
763.648	674.81
763.831	646.13
764.015	701.43
764.198	734.2
764.381	689.14
764.564	678.9
764.748	693.24
764.931	652.28
765.114	633.85
765.297	660.47
765.481	617.46
765.664	639.99
765.847	648.18
766.03	619.51
766.213	697.33
766.397	650.23
766.58	625.65
766.763	566.26
766.946	627.7
767.129	674.81
767.312	594.93
767.495	654.33
767.678	693.24
767.861	685.05
768.044	730.1
768.227	599.03
768.41	639.99
768.593	654.33
768.776	668.66
768.959	564.22
769.142	693.24
769.324	605.17
769.507	576.5
769.69	576.5
769.873	564.22
770.056	644.09
770.239	572.41
770.421	592.89
770.604	582.65
770.787	584.7
770.97	627.7
771.152	549.88
771.335	603.13
771.518	525.3
771.7	500.73
771.883	607.22
772.066	541.69
772.248	498.68
772.431	576.5
772.613	566.26
772.796	537.59
772.978	572.41
773.161	639.99
773.343	527.35
773.526	537.59
773.708	504.82
773.891	508.92
774.073	531.45
774.256	549.88
774.438	603.13
774.621	525.3
774.803	472.06
774.985	418.81
775.168	474.1
775.35	490.49
775.532	537.59
775.715	451.58
775.897	496.63
776.079	513.02
776.261	486.39
776.444	486.39
776.626	435.19
776.808	414.71
776.99	461.82
777.173	437.24
777.355	443.39
777.537	490.49
777.719	392.19
777.901	416.76
778.083	482.3
778.265	519.16
778.447	480.25
778.629	390.14
778.811	435.19
778.993	400.38
779.175	480.25
779.357	431.1
779.539	420.86
779.721	353.27
779.903	375.8
780.085	392.19
780.267	406.52
780.449	371.71
780.631	392.19
780.812	478.2
780.994	396.28
781.176	386.04
781.358	338.94
781.54	408.57
781.721	381.95
781.903	408.57
782.085	383.99
782.267	377.85
782.448	410.62
782.63	324.6
782.812	414.71
782.993	398.33
783.175	330.75
783.357	340.99
783.538	381.95
783.72	353.27
783.901	308.22
784.083	281.6
784.264	390.14
784.446	302.08
784.627	355.32
784.809	336.89
784.99	351.23
785.172	400.38
785.353	375.8
785.535	381.95
785.716	349.18
785.897	310.27
786.079	271.36
786.26	310.27
786.441	289.79
786.623	328.7
786.804	316.41
786.985	283.64
787.167	281.6
787.348	250.88
787.529	250.88
787.71	316.41
787.891	293.88
788.073	214.01
788.254	343.03
788.435	265.21
788.616	248.83
788.797	277.5
788.978	201.72
789.159	261.12
789.34	297.98
789.522	295.93
789.703	236.54
789.884	257.02
790.065	248.83
790.246	263.16
790.427	236.54
790.607	185.34
790.788	277.5
790.969	297.98
791.15	316.41
791.331	261.12
791.512	308.22
791.693	201.72
791.874	216.06
792.054	185.34
792.235	230.4
792.416	154.62
792.597	181.25
792.778	265.21
792.958	248.83
793.139	287.74
793.32	199.68
793.5	164.86
793.681	226.3
793.862	205.82
794.042	203.77
794.223	209.92
794.404	152.57
794.584	318.46
794.765	230.4
794.945	222.2
795.126	222.2
795.306	203.77
795.487	193.53
795.667	158.72
795.848	187.39
796.028	160.77
796.209	214.01
796.389	234.49
796.57	211.96
796.75	140.29
796.93	171.01
797.111	226.3
797.291	242.68
797.471	136.19
797.652	242.68
797.832	246.78
798.012	195.58
798.192	173.05
798.373	211.96
798.553	214.01
798.733	183.29
798.913	148.48
799.093	177.15
799.274	132.09
799.454	171.01
799.634	162.81
799.814	207.87
799.994	201.72
800.174	185.34
800.354	175.1
800.534	134.14
800.714	144.38
800.894	173.05
801.074	87.04
801.254	177.15
801.434	158.72
801.614	168.96
801.794	173.05
801.974	390.14
802.154	205.82
802.334	187.39
802.514	207.87
802.693	156.67
802.873	179.2
803.053	162.81
803.233	156.67
803.413	191.49
803.592	201.72
803.772	107.52
803.952	89.09
804.131	95.23
804.311	87.04
804.491	117.76
804.67	119.81
804.85	146.43
805.03	199.68
805.209	230.4
805.389	209.92
805.568	222.2
805.748	37.89
805.928	168.96
806.107	132.09
806.287	179.2
806.466	146.43
806.646	97.28
806.825	80.89
807.004	158.72
807.184	136.19
807.363	142.33
807.543	115.71
807.722	111.61
807.901	134.14
808.081	156.67
808.26	168.96
808.439	152.57
808.619	99.33
808.798	150.53
808.977	171.01
809.156	87.04
809.336	123.9
809.515	171.01
809.694	80.89
809.873	48.13
810.052	70.65
810.231	209.92
810.411	95.23
810.59	82.94
810.769	107.52
810.948	140.29
811.127	103.42
811.306	103.42
811.485	136.19
811.664	48.13
811.843	123.9
812.022	101.37
812.201	54.27
812.38	148.48
812.559	93.18
812.737	148.48
812.916	76.8
813.095	35.84
813.274	119.81
813.453	160.77
813.632	142.33
813.811	82.94
813.989	121.85
814.168	113.66
814.347	105.47
814.526	164.86
814.704	84.99
814.883	121.85
815.062	113.66
815.24	123.9
815.419	66.56
815.598	97.28
815.776	128
815.955	95.23
816.133	80.89
816.312	99.33
816.49	132.09
816.669	103.42
816.847	97.28
817.026	70.65
817.204	144.38
817.383	105.47
817.561	35.84
817.74	91.13
817.918	80.89
818.097	72.7
818.275	95.23
818.453	84.99
818.632	136.19
818.81	146.43
818.988	113.66
819.167	15.36
819.345	89.09
819.523	144.38
819.701	29.7
819.879	62.46
820.058	84.99
820.236	48.13
820.414	123.9
820.592	115.71
820.77	99.33
820.948	41.98
821.127	82.94
821.305	21.5
821.483	68.61
821.661	164.86
821.839	136.19
822.017	115.71
822.195	78.85
822.373	29.7
822.551	148.48
822.729	62.46
822.907	31.74
823.085	99.33
823.262	103.42
823.44	37.89
823.618	119.81
823.796	58.37
823.974	68.61
824.152	35.84
824.329	60.42
824.507	99.33
824.685	72.7
824.863	95.23
825.04	70.65
825.218	23.55
825.396	64.51
825.574	56.32
825.751	80.89
825.929	56.32
826.107	87.04
826.284	146.43
826.462	95.23
826.639	37.89
826.817	-19.46
826.994	21.5
827.172	23.55
827.349	37.89
827.527	84.99
827.704	128
827.882	15.36
828.059	21.5
828.237	15.36
828.414	54.27
828.591	39.94
828.769	48.13
828.946	97.28
829.124	84.99
829.301	-3.07
829.478	70.65
829.655	31.74
829.833	87.04
830.01	48.13
830.187	58.37
830.364	95.23
830.542	82.94
830.719	64.51
830.896	64.51
831.073	68.61
831.25	60.42
831.427	91.13
831.604	82.94
831.782	87.04
831.959	136.19
832.136	62.46
832.313	7.17
832.49	109.57
832.667	97.28
832.844	66.56
833.021	62.46
833.198	56.32
833.374	72.7
833.551	-37.89
833.728	29.7
833.905	33.79
834.082	54.27
834.259	105.47
834.436	62.46
834.612	-37.89
834.789	78.85
834.966	70.65
835.143	11.26
835.319	5.12
835.496	103.42
835.673	58.37
835.85	107.52
836.026	62.46
836.203	-15.36
836.38	62.46
836.556	70.65
836.733	13.31
836.909	72.7
837.086	21.5
837.262	21.5
837.439	33.79
837.616	74.75
837.792	54.27
837.968	70.65
838.145	-31.74
838.321	70.65
838.498	70.65
838.674	41.98
838.851	93.18
839.027	41.98
839.203	-23.55
839.38	117.76
839.556	11.26
839.732	46.08
839.909	33.79
840.085	-1.02
840.261	70.65
840.437	95.23
840.614	44.03
840.79	78.85
840.966	27.65
841.142	39.94
841.318	66.56
841.494	33.79
841.671	105.47
841.847	78.85
842.023	3.07
842.199	74.75
842.375	-5.12
842.551	-33.79
842.727	37.89
842.903	89.09
843.079	-5.12
843.255	70.65
843.431	50.18
843.607	80.89
843.783	-13.31
843.959	48.13
844.134	37.89
844.31	15.36
844.486	48.13
844.662	58.37
844.838	56.32
845.013	17.41
845.189	25.6
845.365	72.7
845.541	107.52
845.716	72.7
845.892	68.61
846.068	72.7
846.244	-58.37
846.419	13.31
846.595	-17.41
846.77	62.46
846.946	15.36
847.122	46.08
847.297	3.07
847.473	-17.41
847.648	56.32
847.824	39.94
847.999	25.6
848.175	46.08
848.35	-13.31
848.526	60.42
848.701	-3.07
848.876	33.79
849.052	41.98
849.227	80.89
849.403	-15.36
849.578	19.46
849.753	50.18
849.929	33.79
850.104	17.41
850.279	46.08
850.454	17.41
850.63	54.27
850.805	44.03
850.98	7.17
851.155	1.02
851.33	-1.02
851.505	15.36
851.681	58.37
851.856	-27.65
852.031	52.22
852.206	13.31
852.381	44.03
852.556	56.32
852.731	23.55
852.906	1.02
853.081	72.7
853.256	46.08
853.431	121.85
853.606	13.31
853.781	37.89
853.956	41.98
854.131	48.13
854.305	25.6
854.48	56.32
854.655	15.36
854.83	-17.41
855.005	29.7
855.18	62.46
855.354	54.27
855.529	23.55
855.704	33.79
855.879	62.46
856.053	62.46
856.228	-11.26
856.403	25.6
856.577	89.09
856.752	-33.79
856.926	89.09
857.101	58.37
857.276	62.46
857.45	39.94
857.625	46.08
857.799	25.6
857.974	89.09
858.148	-58.37
858.323	74.75
858.497	-11.26
858.672	-33.79
858.846	3.07
859.02	-33.79
859.195	-17.41
859.369	58.37
859.543	78.85
859.718	27.65
859.892	91.13
860.066	11.26
860.241	48.13
860.415	23.55
860.589	56.32
860.763	11.26
860.938	39.94
861.112	11.26
861.286	27.65
861.46	9.22
861.634	48.13
861.808	-33.79
861.982	5.12
862.157	31.74
862.331	-37.89
862.505	11.26
862.679	21.5
862.853	25.6
863.027	-15.36
863.201	128
863.375	7.17
863.549	48.13
863.722	-5.12
863.896	-25.6
864.07	3.07
864.244	15.36
864.418	68.61
864.592	52.22
864.766	27.65
864.939	82.94
865.113	-19.46
865.287	17.41
865.461	3.07
865.634	-15.36
865.808	-37.89
865.982	9.22
866.156	-15.36
866.329	87.04
866.503	-44.03
866.676	60.42
866.85	46.08
867.024	58.37
867.197	-19.46
867.371	29.7
867.544	-11.26
867.718	21.5
867.891	-31.74
868.065	5.12
868.238	-54.27
868.412	9.22
868.585	41.98
868.759	-17.41
868.932	21.5
869.105	29.7
869.279	7.17
869.452	3.07
869.625	25.6
869.799	78.85
869.972	-27.65
870.145	-15.36
870.319	72.7
870.492	3.07
870.665	21.5
870.838	-44.03
871.011	-11.26
871.185	37.89
871.358	41.98
871.531	54.27
871.704	-37.89
871.877	11.26
872.05	-1.02
872.223	17.41
872.396	-13.31
872.569	-23.55
872.742	17.41
872.915	-7.17
873.088	-3.07
873.261	23.55
873.434	37.89
873.607	15.36
873.78	54.27
873.953	31.74
874.126	72.7
874.299	7.17
874.471	25.6
874.644	29.7
874.817	11.26
874.99	5.12
875.163	3.07
875.335	97.28
875.508	27.65
875.681	9.22
875.853	3.07
876.026	-15.36
876.199	21.5
876.371	99.33
876.544	-3.07
876.717	56.32
876.889	44.03
877.062	48.13
877.234	-23.55
877.407	29.7
877.579	5.12
877.752	64.51
877.924	-23.55
878.097	5.12
878.269	48.13
878.442	31.74
878.614	9.22
878.786	-13.31
878.959	1.02
879.131	87.04
879.303	19.46
879.476	17.41
879.648	58.37
879.82	56.32
879.993	5.12
880.165	21.5
880.337	33.79
880.509	-44.03
880.681	-9.22
880.854	-11.26
881.026	44.03
881.198	35.84
881.37	13.31
881.542	17.41
881.714	-17.41
881.886	123.9
882.058	-27.65
882.23	-33.79
882.402	-50.18
882.574	60.42
882.746	9.22
882.918	17.41
883.09	58.37
883.262	54.27
883.434	19.46
883.606	27.65
883.778	-19.46
883.95	50.18
884.122	1.02
884.293	27.65
884.465	31.74
884.637	-27.65
884.809	15.36
884.98	62.46
885.152	-1.02
885.324	17.41
885.496	33.79
885.667	13.31
885.839	-3.07
886.011	27.65
886.182	-46.08
886.354	64.51
886.525	23.55
886.697	-17.41
886.869	-33.79
887.04	128
887.212	56.32
887.383	25.6
887.555	41.98
887.726	25.6
887.897	-25.6
888.069	60.42
888.24	31.74
888.412	39.94
888.583	-31.74
888.754	27.65
888.926	37.89
889.097	31.74
889.268	17.41
889.44	33.79
889.611	68.61
889.782	46.08
889.953	-7.17
890.125	25.6
890.296	-66.56
890.467	-5.12
890.638	31.74
890.809	-54.27
890.98	56.32
891.151	66.56
891.323	-37.89
891.494	-9.22
891.665	-58.37
891.836	25.6
892.007	-19.46
892.178	54.27
892.349	70.65
892.52	15.36
892.691	9.22
892.862	15.36
893.032	-35.84
893.203	9.22
893.374	-5.12
893.545	72.7
893.716	-39.94
893.887	74.75
894.057	1.02
894.228	-7.17
894.399	-5.12
894.57	11.26
894.74	1.02
894.911	-9.22
895.082	25.6
895.253	72.7
895.423	-31.74
895.594	82.94
895.764	-66.56
895.935	29.7
896.106	27.65
896.276	70.65
896.447	7.17
896.617	-11.26
896.788	-46.08
896.958	13.31
897.129	17.41
897.299	-31.74
897.47	29.7
897.64	-35.84
897.81	-11.26
897.981	74.75
898.151	-44.03
898.322	23.55
898.492	-50.18
898.662	5.12
898.832	74.75
899.003	-39.94
899.173	19.46
899.343	21.5
899.513	-17.41
