Data from USB4F104151__55__12-59-18-324.txt Node

Date: Fri Mar 14 12:59:18 EDT 2025
User: louis
Spectrometer: USB4F10415
Trigger mode: 4
Integration Time (sec): 1.000000E-2
Scans to average: 1
Electric dark correction enabled: true
Nonlinearity correction enabled: false
Boxcar width: 0
XAxis mode: Wavelengths
Number of Pixels in Spectrum: 3648
>>>>>Begin Spectral Data<<<<<
178.204	-4.95
178.424	-4.95
178.644	-4.95
178.864	-82.77
179.084	-74.58
179.304	60.59
179.524	52.39
179.744	-25.43
179.964	-29.52
180.184	-9.05
180.404	-45.91
180.624	-15.19
180.844	-2.9
181.064	-2.9
181.283	-17.24
181.503	11.43
181.723	23.72
181.943	25.77
182.163	-25.43
182.383	-54.1
182.602	87.21
182.822	89.26
183.042	58.54
183.262	-41.81
183.482	-39.76
183.701	5.29
183.921	64.68
184.141	15.53
184.361	68.78
184.58	50.35
184.8	68.78
185.02	-21.33
185.239	13.48
185.459	-56.15
185.679	27.82
185.898	-4.95
186.118	-15.19
186.338	27.82
186.557	19.63
186.777	-39.76
186.997	46.25
187.216	5.29
187.436	93.35
187.655	19.63
187.875	64.68
188.095	29.87
188.314	58.54
188.534	-4.95
188.753	36.01
188.973	29.87
189.192	40.11
189.412	21.67
189.631	21.67
189.851	-21.33
190.07	13.48
190.29	21.67
190.509	-35.67
190.729	5.29
190.948	-19.29
191.168	54.44
191.387	31.91
191.607	-47.96
191.826	19.63
192.045	58.54
192.265	-21.33
192.484	-9.05
192.704	62.63
192.923	40.11
193.142	52.39
193.362	66.73
193.581	3.24
193.8	-21.33
194.02	1.19
194.239	97.45
194.458	72.87
194.678	17.58
194.897	7.34
195.116	-4.95
195.335	-4.95
195.555	11.43
195.774	40.11
195.993	25.77
196.212	-4.95
196.432	-33.62
196.651	-17.24
196.87	56.49
197.089	-21.33
197.308	46.25
197.528	1.19
197.747	31.91
197.966	-35.67
198.185	11.43
198.404	17.58
198.623	50.35
198.842	-2.9
199.062	81.07
199.281	46.25
199.5	-0.85
199.719	-45.91
199.938	48.3
200.157	48.3
200.376	5.29
200.595	38.06
200.814	54.44
201.033	-19.29
201.252	44.2
201.471	-13.14
201.69	-27.48
201.909	-33.62
202.128	27.82
202.347	66.73
202.566	7.34
202.785	42.15
203.004	13.48
203.223	64.68
203.442	9.39
203.661	31.91
203.879	54.44
204.098	40.11
204.317	29.87
204.536	83.11
204.755	-9.05
204.974	36.01
205.193	11.43
205.411	85.16
205.63	79.02
205.849	29.87
206.068	17.58
206.287	-19.29
206.505	48.3
206.724	11.43
206.943	9.39
207.162	-45.91
207.381	50.35
207.599	60.59
207.818	56.49
208.037	66.73
208.255	-35.67
208.474	60.59
208.693	-2.9
208.911	46.25
209.13	19.63
209.349	36.01
209.567	74.92
209.786	-52.05
210.005	68.78
210.223	52.39
210.442	11.43
210.661	87.21
210.879	62.63
211.098	5.29
211.316	76.97
211.535	38.06
211.753	68.78
211.972	15.53
212.191	-4.95
212.409	38.06
212.628	-33.62
212.846	23.72
213.065	95.4
213.283	109.74
213.502	-23.38
213.72	13.48
213.938	64.68
214.157	15.53
214.375	23.72
214.594	3.24
214.812	23.72
215.031	29.87
215.249	-23.38
215.467	13.48
215.686	7.34
215.904	56.49
216.122	58.54
216.341	50.35
216.559	5.29
216.778	97.45
216.996	-56.15
217.214	36.01
217.432	44.2
217.651	36.01
217.869	-0.85
218.087	52.39
218.306	-25.43
218.524	-19.29
218.742	-2.9
218.96	40.11
219.179	9.39
219.397	52.39
219.615	17.58
219.833	29.87
220.051	5.29
220.27	27.82
220.488	-23.38
220.706	-27.48
220.924	62.63
221.142	76.97
221.36	-23.38
221.578	-17.24
221.796	3.24
222.015	111.78
222.233	60.59
222.451	-0.85
222.669	-17.24
222.887	13.48
223.105	31.91
223.323	70.83
223.541	21.67
223.759	38.06
223.977	31.91
224.195	138.41
224.413	68.78
224.631	-19.29
224.849	40.11
225.067	36.01
225.285	17.58
225.503	3.24
225.721	-45.91
225.939	15.53
226.157	68.78
226.375	48.3
226.592	-54.1
226.81	70.83
227.028	38.06
227.246	76.97
227.464	81.07
227.682	74.92
227.9	27.82
228.117	54.44
228.335	46.25
228.553	-17.24
228.771	23.72
228.989	66.73
229.206	33.96
229.424	68.78
229.642	40.11
229.86	5.29
230.077	62.63
230.295	-13.14
230.513	38.06
230.731	5.29
230.948	-17.24
231.166	3.24
231.384	21.67
231.601	52.39
231.819	-13.14
232.037	31.91
232.254	-9.05
232.472	27.82
232.689	87.21
232.907	19.63
233.125	-33.62
233.342	-4.95
233.56	-29.52
233.777	33.96
233.995	48.3
234.213	-15.19
234.43	11.43
234.648	-27.48
234.865	36.01
235.083	25.77
235.3	25.77
235.518	85.16
235.735	52.39
235.953	117.93
236.17	97.45
236.388	15.53
236.605	85.16
236.822	13.48
237.04	36.01
237.257	70.83
237.475	-21.33
237.692	29.87
237.909	-13.14
238.127	83.11
238.344	128.17
238.562	19.63
238.779	95.4
238.996	27.82
239.214	-41.81
239.431	-35.67
239.648	-23.38
239.865	42.15
240.083	3.24
240.3	44.2
240.517	-9.05
240.735	54.44
240.952	-19.29
241.169	9.39
241.386	19.63
241.603	38.06
241.821	68.78
242.038	42.15
242.255	-17.24
242.472	95.4
242.689	44.2
242.907	13.48
243.124	11.43
243.341	29.87
243.558	-17.24
243.775	19.63
243.992	-27.48
244.209	64.68
244.426	19.63
244.643	5.29
244.86	-11.09
245.078	111.78
245.295	23.72
245.512	40.11
245.729	1.19
245.946	23.72
246.163	87.21
246.38	27.82
246.597	-23.38
246.814	-19.29
247.031	85.16
247.248	54.44
247.464	48.3
247.681	36.01
247.898	17.58
248.115	25.77
248.332	-13.14
248.549	-33.62
248.766	44.2
248.983	40.11
249.2	62.63
249.417	25.77
249.633	-0.85
249.85	46.25
250.067	-13.14
250.284	68.78
250.501	15.53
250.717	48.3
250.934	-11.09
251.151	-29.52
251.368	-54.1
251.585	52.39
251.801	36.01
252.018	1.19
252.235	9.39
252.451	-4.95
252.668	27.82
252.885	72.87
253.102	36.01
253.318	64.68
253.535	68.78
253.752	38.06
253.968	66.73
254.185	44.2
254.401	38.06
254.618	81.07
254.835	60.59
255.051	17.58
255.268	46.25
255.484	70.83
255.701	70.83
255.917	46.25
256.134	-17.24
256.351	36.01
256.567	-13.14
256.784	93.35
257	23.72
257.217	50.35
257.433	21.67
257.65	56.49
257.866	56.49
258.082	-39.76
258.299	29.87
258.515	56.49
258.732	52.39
258.948	48.3
259.165	-2.9
259.381	-35.67
259.597	-2.9
259.814	21.67
260.03	17.58
260.246	91.31
260.463	64.68
260.679	68.78
260.895	-35.67
261.112	64.68
261.328	54.44
261.544	56.49
261.761	72.87
261.977	66.73
262.193	38.06
262.409	27.82
262.626	40.11
262.842	38.06
263.058	29.87
263.274	-15.19
263.49	9.39
263.707	38.06
263.923	-7
264.139	29.87
264.355	48.3
264.571	76.97
264.787	13.48
265.004	85.16
265.22	-2.9
265.436	19.63
265.652	-50
265.868	29.87
266.084	-7
266.3	-0.85
266.516	-27.48
266.732	62.63
266.948	21.67
267.164	38.06
267.38	-33.62
267.596	13.48
267.812	38.06
268.028	-4.95
268.244	-7
268.46	99.5
268.676	3.24
268.892	9.39
269.108	48.3
269.324	-15.19
269.54	17.58
269.756	17.58
269.972	1.19
270.188	27.82
270.403	17.58
270.619	38.06
270.835	29.87
271.051	62.63
271.267	-70.48
271.483	7.34
271.698	3.24
271.914	33.96
272.13	1.19
272.346	76.97
272.562	-17.24
272.777	85.16
272.993	72.87
273.209	-2.9
273.425	36.01
273.64	-4.95
273.856	23.72
274.072	29.87
274.287	33.96
274.503	19.63
274.719	81.07
274.934	44.2
275.15	-19.29
275.366	60.59
275.581	101.55
275.797	68.78
276.012	-9.05
276.228	29.87
276.444	-27.48
276.659	19.63
276.875	31.91
277.09	42.15
277.306	31.91
277.521	85.16
277.737	-33.62
277.952	3.24
278.168	36.01
278.383	64.68
278.599	-29.52
278.814	-0.85
279.03	19.63
279.245	-4.95
279.461	38.06
279.676	103.59
279.892	17.58
280.107	7.34
280.322	79.02
280.538	21.67
280.753	31.91
280.969	25.77
281.184	-47.96
281.399	36.01
281.615	-7
281.83	56.49
282.045	-11.09
282.26	15.53
282.476	21.67
282.691	33.96
282.906	-13.14
283.122	21.67
283.337	48.3
283.552	-21.33
283.767	48.3
283.983	89.26
284.198	31.91
284.413	76.97
284.628	9.39
284.843	48.3
285.058	48.3
285.274	21.67
285.489	23.72
285.704	64.68
285.919	-25.43
286.134	70.83
286.349	13.48
286.564	-27.48
286.779	38.06
286.995	70.83
287.21	31.91
287.425	130.22
287.64	25.77
287.855	36.01
288.07	-9.05
288.285	17.58
288.5	38.06
288.715	21.67
288.93	79.02
289.145	25.77
289.36	17.58
289.575	-0.85
289.79	54.44
290.004	-35.67
290.219	44.2
290.434	1.19
290.649	1.19
290.864	17.58
291.079	11.43
291.294	36.01
291.509	3.24
291.724	15.53
291.938	58.54
292.153	72.87
292.368	19.63
292.583	33.96
292.798	48.3
293.012	-25.43
293.227	-4.95
293.442	95.4
293.657	52.39
293.871	11.43
294.086	44.2
294.301	36.01
294.516	44.2
294.73	54.44
294.945	33.96
295.16	9.39
295.374	1.19
295.589	31.91
295.804	3.24
296.018	17.58
296.233	70.83
296.447	9.39
296.662	38.06
296.877	64.68
297.091	11.43
297.306	-27.48
297.52	-27.48
297.735	17.58
297.949	17.58
298.164	91.31
298.378	-43.86
298.593	5.29
298.807	19.63
299.022	27.82
299.236	76.97
299.451	36.01
299.665	107.69
299.88	-31.57
300.094	48.3
300.309	31.91
300.523	23.72
300.737	54.44
300.952	109.74
301.166	56.49
301.381	19.63
301.595	21.67
301.809	23.72
302.024	58.54
302.238	19.63
302.452	-4.95
302.667	3.24
302.881	27.82
303.095	83.11
303.309	124.07
303.524	-19.29
303.738	-33.62
303.952	25.77
304.166	3.24
304.381	29.87
304.595	81.07
304.809	11.43
305.023	97.45
305.237	5.29
305.452	-2.9
305.666	-29.52
305.88	52.39
306.094	11.43
306.308	15.53
306.522	89.26
306.736	29.87
306.95	31.91
307.164	21.67
307.379	52.39
307.593	76.97
307.807	54.44
308.021	19.63
308.235	27.82
308.449	36.01
308.663	-0.85
308.877	76.97
309.091	27.82
309.305	105.64
309.519	-19.29
309.733	5.29
309.947	-2.9
310.161	79.02
310.374	44.2
310.588	15.53
310.802	23.72
311.016	48.3
311.23	48.3
311.444	23.72
311.658	19.63
311.872	-13.14
312.085	-7
312.299	52.39
312.513	38.06
312.727	29.87
312.941	33.96
313.154	60.59
313.368	5.29
313.582	-0.85
313.796	19.63
314.009	-11.09
314.223	85.16
314.437	52.39
314.651	-72.53
314.864	46.25
315.078	-60.24
315.292	21.67
315.505	7.34
315.719	-11.09
315.933	87.21
316.146	62.63
316.36	13.48
316.573	-23.38
316.787	-13.14
317.001	36.01
317.214	31.91
317.428	66.73
317.641	-93.01
317.855	-7
318.068	5.29
318.282	46.25
318.495	54.44
318.709	27.82
318.922	13.48
319.136	103.59
319.349	-0.85
319.563	-27.48
319.776	13.48
319.99	3.24
320.203	-2.9
320.417	11.43
320.63	58.54
320.843	25.77
321.057	-11.09
321.27	72.87
321.483	68.78
321.697	60.59
321.91	31.91
322.124	52.39
322.337	42.15
322.55	-4.95
322.763	-4.95
322.977	58.54
323.19	54.44
323.403	33.96
323.617	-11.09
323.83	81.07
324.043	-4.95
324.256	50.35
324.469	3.24
324.683	50.35
324.896	23.72
325.109	21.67
325.322	27.82
325.535	103.59
325.748	21.67
325.962	7.34
326.175	40.11
326.388	54.44
326.601	-4.95
326.814	46.25
327.027	1.19
327.24	23.72
327.453	27.82
327.666	56.49
327.879	7.34
328.092	64.68
328.305	60.59
328.518	85.16
328.731	-7
328.944	58.54
329.157	17.58
329.37	21.67
329.583	33.96
329.796	11.43
330.009	54.44
330.222	25.77
330.435	52.39
330.648	42.15
330.861	-15.19
331.073	56.49
331.286	-54.1
331.499	19.63
331.712	25.77
331.925	19.63
332.138	31.91
332.35	3.24
332.563	3.24
332.776	44.2
332.989	-9.05
333.202	76.97
333.414	-0.85
333.627	105.64
333.84	-2.9
334.053	11.43
334.265	11.43
334.478	70.83
334.691	52.39
334.903	9.39
335.116	44.2
335.329	50.35
335.541	-7
335.754	44.2
335.966	-15.19
336.179	7.34
336.392	5.29
336.604	70.83
336.817	19.63
337.029	93.35
337.242	119.98
337.454	17.58
337.667	44.2
337.88	38.06
338.092	48.3
338.305	31.91
338.517	9.39
338.729	5.29
338.942	23.72
339.154	-25.43
339.367	17.58
339.579	89.26
339.792	-0.85
340.004	111.78
340.217	-35.67
340.429	1.19
340.641	9.39
340.854	31.91
341.066	-23.38
341.278	83.11
341.491	23.72
341.703	122.02
341.915	-11.09
342.128	-11.09
342.34	13.48
342.552	40.11
342.764	19.63
342.977	56.49
343.189	15.53
343.401	-4.95
343.613	52.39
343.826	-21.33
344.038	76.97
344.25	40.11
344.462	48.3
344.674	31.91
344.886	15.53
345.099	105.64
345.311	5.29
345.523	68.78
345.735	7.34
345.947	113.83
346.159	46.25
346.371	21.67
346.583	-0.85
346.795	68.78
347.007	-15.19
347.219	105.64
347.431	44.2
347.643	17.58
347.855	54.44
348.067	48.3
348.279	3.24
348.491	113.83
348.703	5.29
348.915	52.39
349.127	25.77
349.339	60.59
349.551	15.53
349.763	15.53
349.975	54.44
350.187	68.78
350.399	66.73
350.61	11.43
350.822	72.87
351.034	-13.14
351.246	44.2
351.458	42.15
351.669	-4.95
351.881	-35.67
352.093	44.2
352.305	66.73
352.517	-37.72
352.728	140.46
352.94	44.2
353.152	68.78
353.363	72.87
353.575	-0.85
353.787	122.02
353.999	13.48
354.21	-0.85
354.422	23.72
354.633	42.15
354.845	23.72
355.057	68.78
355.268	99.5
355.48	1.19
355.692	95.4
355.903	19.63
356.115	-13.14
356.326	126.12
356.538	15.53
356.749	93.35
356.961	81.07
357.172	7.34
357.384	27.82
357.595	74.92
357.807	19.63
358.018	-25.43
358.23	27.82
358.441	38.06
358.653	79.02
358.864	68.78
359.075	11.43
359.287	87.21
359.498	56.49
359.709	21.67
359.921	52.39
360.132	46.25
360.344	-41.81
360.555	81.07
360.766	11.43
360.977	3.24
361.189	-11.09
361.4	-15.19
361.611	-37.72
361.823	62.63
362.034	29.87
362.245	19.63
362.456	64.68
362.667	17.58
362.879	-7
363.09	46.25
363.301	-39.76
363.512	115.88
363.723	-0.85
363.935	40.11
364.146	48.3
364.357	-7
364.568	60.59
364.779	46.25
364.99	-11.09
365.201	44.2
365.412	101.55
365.623	29.87
365.834	11.43
366.045	93.35
366.256	31.91
366.467	76.97
366.678	46.25
366.889	-2.9
367.1	-2.9
367.311	60.59
367.522	-0.85
367.733	27.82
367.944	36.01
368.155	36.01
368.366	76.97
368.577	27.82
368.788	48.3
368.999	87.21
369.209	23.72
369.42	162.98
369.631	54.44
369.842	5.29
370.053	79.02
370.264	23.72
370.474	-50
370.685	-7
370.896	56.49
371.107	60.59
371.317	48.3
371.528	29.87
371.739	-60.24
371.95	50.35
372.16	42.15
372.371	3.24
372.582	81.07
372.792	27.82
373.003	-7
373.214	-29.52
373.424	17.58
373.635	62.63
373.846	9.39
374.056	76.97
374.267	27.82
374.477	13.48
374.688	36.01
374.898	13.48
375.109	87.21
375.319	11.43
375.53	31.91
375.74	31.91
375.951	17.58
376.161	52.39
376.372	48.3
376.582	7.34
376.793	3.24
377.003	-7
377.214	89.26
377.424	68.78
377.635	85.16
377.845	29.87
378.055	83.11
378.266	17.58
378.476	11.43
378.686	42.15
378.897	72.87
379.107	19.63
379.317	68.78
379.528	5.29
379.738	76.97
379.948	66.73
380.158	56.49
380.369	58.54
380.579	72.87
380.789	103.59
380.999	122.02
381.21	58.54
381.42	23.72
381.63	29.87
381.84	52.39
382.05	128.17
382.261	11.43
382.471	52.39
382.681	46.25
382.891	105.64
383.101	-27.48
383.311	93.35
383.521	70.83
383.731	66.73
383.941	87.21
384.151	27.82
384.361	56.49
384.571	68.78
384.781	-11.09
384.991	99.5
385.201	27.82
385.411	54.44
385.621	99.5
385.831	46.25
386.041	-11.09
386.251	3.24
386.461	54.44
386.671	-11.09
386.881	111.78
387.091	60.59
387.301	101.55
387.511	29.87
387.72	87.21
387.93	52.39
388.14	40.11
388.35	13.48
388.56	76.97
388.769	5.29
388.979	52.39
389.189	-7
389.399	44.2
389.609	21.67
389.818	46.25
390.028	93.35
390.238	95.4
390.447	27.82
390.657	56.49
390.867	64.68
391.076	27.82
391.286	3.24
391.496	105.64
391.705	40.11
391.915	52.39
392.125	70.83
392.334	1.19
392.544	38.06
392.753	25.77
392.963	-52.05
393.172	70.83
393.382	21.67
393.591	124.07
393.801	134.31
394.01	25.77
394.22	31.91
394.429	-23.38
394.639	-25.43
394.848	107.69
395.058	111.78
395.267	72.87
395.477	76.97
395.686	70.83
395.895	128.17
396.105	103.59
396.314	23.72
396.524	40.11
396.733	64.68
396.942	9.39
397.152	62.63
397.361	36.01
397.57	17.58
397.78	79.02
397.989	52.39
398.198	74.92
398.407	81.07
398.617	95.4
398.826	46.25
399.035	97.45
399.244	85.16
399.453	48.3
399.663	91.31
399.872	76.97
400.081	89.26
400.29	79.02
400.499	46.25
400.708	124.07
400.917	101.55
401.127	103.59
401.336	101.55
401.545	64.68
401.754	93.35
401.963	25.77
402.172	-17.24
402.381	203.94
402.59	11.43
402.799	105.64
403.008	54.44
403.217	60.59
403.426	31.91
403.635	99.5
403.844	101.55
404.053	93.35
404.262	91.31
404.471	158.89
404.68	103.59
404.888	87.21
405.097	154.79
405.306	150.7
405.515	40.11
405.724	93.35
405.933	113.83
406.142	93.35
406.35	134.31
406.559	87.21
406.768	109.74
406.977	70.83
407.185	150.7
407.394	103.59
407.603	103.59
407.812	195.75
408.02	146.6
408.229	203.94
408.438	193.7
408.646	142.5
408.855	76.97
409.064	160.94
409.272	191.66
409.481	169.13
409.69	210.09
409.898	169.13
410.107	119.98
410.315	130.22
410.524	236.71
410.733	183.46
410.941	249
411.15	259.24
411.358	210.09
411.567	236.71
411.775	181.42
411.984	197.8
412.192	263.33
412.401	263.33
412.609	265.38
412.818	296.1
413.026	212.14
413.234	341.16
413.443	296.1
413.651	283.81
413.86	404.64
414.068	427.17
414.276	310.44
414.485	341.16
414.693	359.59
414.901	435.36
415.11	396.45
415.318	461.99
415.526	416.93
415.734	461.99
415.943	502.95
416.151	449.7
416.359	476.32
416.567	507.04
416.776	543.91
416.984	531.62
417.192	588.96
417.4	560.29
417.608	560.29
417.817	560.29
418.025	709.79
418.233	664.74
418.441	677.02
418.649	642.21
418.857	795.81
419.065	740.51
419.273	720.03
419.481	822.43
419.689	906.4
419.897	840.86
420.105	904.35
420.313	953.5
420.521	920.73
420.729	980.12
420.937	1012.89
421.145	1109.15
421.353	1057.95
421.561	1152.15
421.769	1092.76
421.977	1217.69
422.185	1189.02
422.393	1141.91
422.601	1227.93
422.809	1207.45
423.017	1295.51
423.224	1391.77
423.432	1461.4
423.64	1455.25
423.848	1608.85
424.056	1559.7
424.263	1758.35
424.471	1602.71
424.679	1797.26
424.887	1717.39
425.094	1840.27
425.302	1850.51
425.51	1864.85
425.718	1905.81
425.925	2014.35
426.133	2038.92
426.341	2079.88
426.548	2225.29
426.756	2284.68
426.964	2215.05
427.171	2337.93
427.379	2548.87
427.586	2495.62
427.794	2452.61
428.001	2659.46
428.209	2800.77
428.417	2833.54
428.624	2954.37
428.832	2890.88
429.039	3001.47
429.247	2956.41
429.454	3189.88
429.662	3411.06
429.869	3216.51
430.076	3525.75
430.284	3419.25
430.491	3497.08
430.699	3619.96
430.906	3597.43
431.114	3732.59
431.321	3966.06
431.528	4031.6
431.736	4230.25
431.943	4308.07
432.15	4154.48
432.358	4271.21
432.565	4623.46
432.772	4576.36
432.979	4762.72
433.187	4926.56
433.394	4926.56
433.601	5131.36
433.808	5123.16
434.016	5164.12
434.223	5383.26
434.43	5651.54
434.637	5536.85
434.844	6003.79
435.052	6098
435.259	6181.96
435.466	6106.19
435.673	6114.38
435.88	6374.47
436.087	6564.93
436.294	6747.2
436.501	6560.84
436.708	6726.72
436.915	7013.44
437.122	7341.11
437.329	7388.22
437.537	7474.23
437.743	7707.7
437.95	7558.2
438.157	7945.27
438.364	8367.15
438.571	8318
438.778	8303.66
438.985	9112.61
439.192	8873
439.399	9088.03
439.606	8956.96
439.813	9399.32
440.02	9909.27
440.227	9894.93
440.433	9636.89
440.64	9954.32
440.847	9886.74
441.054	9982.99
441.261	10574.86
441.467	10664.97
441.674	11004.93
441.881	11426.81
442.088	11217.92
442.294	11189.25
442.501	11543.55
442.708	11635.71
442.914	11959.28
443.121	12616.68
443.328	12540.91
443.534	13210.59
443.741	12805.1
443.948	12772.33
444.154	13624.28
444.361	13523.93
444.568	13695.96
444.774	13554.65
444.981	13990.87
445.187	14304.21
445.394	15080.39
445.6	14560.2
445.807	15956.92
446.013	15367.1
446.22	15633.34
446.426	16352.18
446.633	16397.23
446.839	16870.31
447.046	16491.44
447.252	17294.24
447.459	17519.52
447.665	17425.31
447.871	17980.31
448.078	19016.58
448.284	18004.89
448.491	18543.5
448.697	19542.91
448.903	19575.68
449.11	19731.33
449.316	19436.42
449.522	19895.16
449.728	20063.1
449.935	20665.2
450.141	20386.68
450.347	21068.65
450.553	20353.91
450.76	20628.34
450.966	21207.91
451.172	20849.52
451.378	21924.7
451.584	21261.16
451.791	21437.28
451.997	21736.29
452.203	21988.19
452.409	22274.9
452.615	21859.17
452.821	21171.05
453.027	20767.6
453.233	22041.43
453.44	21232.49
453.646	21332.84
453.852	21539.68
454.058	22035.29
454.264	21408.61
454.47	21748.57
454.676	21023.59
454.882	21949.28
455.088	20147.06
455.294	20527.99
455.5	20597.62
455.705	20874.09
455.911	20075.38
456.117	19585.92
456.323	19420.03
456.529	18424.72
456.735	19278.72
456.941	18672.53
457.147	18369.43
457.352	18168.73
457.558	17863.58
457.764	17425.31
457.97	17570.72
458.176	17101.73
458.381	16999.34
458.587	16372.66
458.793	16391.09
458.999	15332.29
459.204	16311.22
459.41	16116.66
459.616	14889.93
459.821	14928.84
460.027	14916.55
460.233	14601.16
460.438	14001.11
460.644	14222.29
460.85	13376.48
461.055	13300.7
461.261	13093.86
461.466	12215.28
461.672	11824.12
461.878	12770.28
462.083	11615.23
462.289	11731.96
462.494	11545.59
462.7	11066.37
462.905	10671.11
463.111	11070.47
463.316	11262.97
463.522	10830.85
463.727	10980.36
463.932	10900.48
464.138	10722.31
464.343	10986.5
464.549	10382.35
464.754	10925.06
464.959	10761.22
465.165	10775.56
465.37	10341.39
465.575	9923.6
465.781	10581
465.986	10433.55
466.191	9960.47
466.397	9976.85
466.602	9317.4
466.807	9804.82
467.012	9624.6
467.218	9514.01
467.423	9704.47
467.628	9638.94
467.833	10089.49
468.038	9907.22
468.244	9497.63
468.449	9800.73
468.654	9464.86
468.859	9425.95
469.064	9507.87
469.269	9120.8
469.474	9128.99
469.679	9188.38
469.885	8840.23
470.09	8946.72
470.295	9253.92
470.5	8893.47
470.705	9026.59
470.91	8604.71
471.115	8623.14
471.32	8629.29
471.525	8586.28
471.73	8463.4
471.935	8598.57
472.139	8150.06
472.344	8371.24
472.549	8244.27
472.754	8301.61
472.959	8016.94
473.164	7828.53
473.369	7838.77
473.574	7885.87
473.778	7922.74
473.983	7785.52
474.188	7683.13
474.393	7595.06
474.598	7550.01
474.802	7386.17
475.007	7441.47
475.212	7457.85
475.417	7236.67
475.621	7183.42
475.826	7083.07
476.031	7048.26
476.235	6857.79
476.44	7087.17
476.645	6796.35
476.849	6888.51
477.054	6863.94
477.259	6720.58
477.463	6687.81
477.668	6444.1
477.872	6589.51
478.077	6532.17
478.282	6278.22
478.486	6155.34
478.691	6057.04
478.895	6270.03
479.1	6165.58
479.304	6270.03
479.509	5964.88
479.713	6151.24
479.918	6007.89
480.122	5846.1
480.326	6057.04
480.531	5880.91
480.735	5792.85
480.94	5860.43
481.144	5936.21
481.348	5780.56
481.553	5690.45
481.757	5688.4
481.961	5864.53
482.166	5932.11
482.37	5887.06
482.574	5667.92
482.778	5768.27
482.983	5938.26
483.187	5893.2
483.391	5743.7
483.595	5704.79
483.8	5686.36
484.004	5733.46
484.208	5938.26
484.412	5633.11
484.616	5837.91
484.821	5817.43
485.025	5665.88
485.229	5782.61
485.433	5700.69
485.637	5727.32
485.841	5663.83
486.045	5749.84
486.249	5829.71
486.453	5735.51
486.657	5827.67
486.861	5794.9
487.065	5792.85
487.269	5719.12
487.473	5508.18
487.677	5889.1
487.881	5715.03
488.085	5952.59
488.289	5887.06
488.493	5745.75
488.697	5667.92
488.901	5866.58
489.105	5854.29
489.309	5721.17
489.512	5790.8
489.716	5825.62
489.92	5880.91
490.124	5848.15
490.328	5942.35
490.531	5934.16
490.735	5803.09
490.939	6042.7
491.143	5968.98
491.346	5872.72
491.55	6114.38
491.754	6046.8
491.958	6141
492.161	5977.17
492.365	6093.9
492.569	6126.67
492.772	6235.21
492.976	6261.84
493.18	6132.81
493.383	6450.25
493.587	6335.56
493.79	6366.28
493.994	6270.03
494.197	6392.91
494.401	6597.7
494.605	6532.17
494.808	6437.96
495.012	6427.72
495.215	6745.16
495.419	6888.51
495.622	6782.02
495.825	6767.68
496.029	6904.9
496.232	7040.06
496.436	6984.77
496.639	7271.48
496.843	7054.4
497.046	7195.71
497.249	7287.87
497.453	7343.16
497.656	7328.83
497.859	7640.12
498.063	7537.72
498.266	7676.98
498.469	7787.57
498.673	7908.4
498.876	7838.77
499.079	7851.06
499.282	8051.76
499.485	8246.32
499.689	8240.17
499.892	8320.04
500.095	8457.26
500.298	8463.4
500.501	8537.13
500.705	8995.87
500.908	8801.32
501.111	9212.96
501.314	9030.69
501.517	9358.36
501.72	9305.12
501.923	9219.1
502.126	9712.66
502.329	9727
502.532	9722.9
502.735	9747.48
502.938	10112.02
503.141	10157.07
503.344	10298.38
503.547	10265.61
503.75	10558.47
503.953	10581
504.156	10585.1
504.359	10832.9
504.562	10726.41
504.765	11224.06
504.968	11324.41
505.17	11101.19
505.373	11424.76
505.576	11439.1
505.779	11770.87
505.982	11699.19
506.185	12026.87
506.387	12108.79
506.59	12174.32
506.793	12682.22
506.996	12475.37
507.198	13061.09
507.401	12784.62
507.604	13011.94
507.807	13302.75
508.009	13437.92
508.212	13474.78
508.415	13523.93
508.617	13646.81
508.82	13999.06
509.022	13784.02
509.225	14250.96
509.428	14478.29
509.63	14652.36
509.833	14625.74
510.035	14959.56
510.238	14881.74
510.44	15211.46
510.643	15551.42
510.845	15485.89
511.048	15532.99
511.25	15940.54
511.453	16008.12
511.655	16444.34
511.858	16434.1
512.06	16628.65
512.262	16722.86
512.465	16866.22
512.667	17103.78
512.87	17202.08
513.072	17279.91
513.274	17664.93
513.477	17793.95
513.679	18185.11
513.881	18410.39
514.084	18684.81
514.286	18310.04
514.488	18508.69
514.69	19270.53
514.893	19315.59
515.095	19057.54
515.297	19620.74
515.499	19858.3
515.701	19815.29
515.904	20296.56
516.106	20331.38
516.308	20609.9
516.51	20874.09
516.712	20878.19
516.914	21042.03
517.116	21713.76
517.318	21554.02
517.52	21902.17
517.722	21758.81
517.925	22104.92
518.127	22479.7
518.329	22674.26
518.531	22448.98
518.733	22834
518.935	23075.66
519.136	23259.98
519.338	23534.4
519.54	23921.47
519.742	24101.69
519.944	24226.62
520.146	24537.91
520.348	24711.99
520.55	24718.13
520.752	24857.39
520.954	25463.59
521.155	25301.8
521.357	25930.53
521.559	25981.73
521.761	26225.43
521.963	26540.82
522.164	26411.8
522.366	26530.58
522.568	26637.08
522.77	26964.75
522.971	27462.41
523.173	27222.8
523.375	27417.35
523.576	27634.44
523.778	27632.39
523.98	28199.68
524.181	28377.85
524.383	28076.8
524.584	28594.93
524.786	28656.37
524.988	28699.38
525.189	28863.22
525.391	29262.57
525.592	29410.03
525.794	29399.79
525.995	29424.36
526.197	29618.92
526.398	29643.49
526.6	29969.12
526.801	30051.04
527.003	30077.66
527.204	30069.47
527.406	30450.39
527.607	30434.01
527.808	30724.82
528.01	30182.11
528.211	30714.58
528.412	31318.73
528.614	30937.81
528.815	30958.29
529.016	31429.32
529.218	31093.46
529.419	31367.88
529.62	31544.01
529.822	30913.23
530.023	31283.92
530.224	31443.66
530.425	31632.07
530.626	31353.55
530.828	31681.22
531.029	32150.21
531.23	31668.94
531.431	31402.7
531.632	32117.44
531.833	32053.95
532.035	32078.53
532.236	32201.41
532.437	32283.33
532.638	31718.09
532.839	32219.84
533.04	32312
533.241	31914.69
533.442	32826.04
533.643	32129.73
533.844	32375.48
534.045	32293.57
534.246	31867.59
534.447	32635.58
534.648	32398.01
534.849	32436.92
535.05	32086.72
535.251	32680.63
535.451	32635.58
535.652	32572.09
535.853	32156.35
536.054	32242.37
536.255	32832.18
536.456	32185.02
536.657	32905.91
536.857	32658.1
537.058	32520.89
537.259	32858.81
537.46	32387.77
537.66	32783.03
537.861	32563.9
538.062	32283.33
538.263	32285.37
538.463	32316.09
538.664	32553.66
538.865	32576.19
539.065	32877.24
539.266	32355
539.466	32737.98
539.667	32049.86
539.868	32807.61
540.068	32582.33
540.269	32252.61
540.469	32774.84
540.67	32565.95
540.87	32373.44
541.071	32330.43
541.271	32690.87
541.472	32398.01
541.672	32357.05
541.873	32309.95
542.073	32168.64
542.274	32664.25
542.474	32484.03
542.675	32238.27
542.875	32484.03
543.075	32361.15
543.276	32119.49
543.476	32606.91
543.676	31953.6
543.877	32615.1
544.077	32342.72
544.277	32455.36
544.478	32467.64
544.678	32158.4
544.878	32520.89
545.078	32584.38
545.279	32105.15
545.479	32406.2
545.679	32262.85
545.879	32541.37
546.079	32443.07
546.28	32477.88
546.48	32107.2
546.68	32660.15
546.88	32524.99
547.08	32344.77
547.28	32287.42
547.48	32146.11
547.68	32467.64
547.88	32406.2
548.081	32477.88
548.281	32553.66
548.481	32225.98
548.681	32426.68
548.881	32139.97
549.081	31963.84
549.28	32076.48
549.48	32559.8
549.68	32322.24
549.88	32656.06
550.08	32475.84
550.28	32371.39
550.48	32273.09
550.68	32811.7
550.88	32133.82
551.08	32398.01
551.279	32031.43
551.479	32142.02
551.679	32000.71
551.879	32137.92
552.079	32332.48
552.278	31974.08
552.478	32148.16
552.678	32133.82
552.878	32146.11
553.077	32258.75
553.277	31509.19
553.477	32164.54
553.676	32010.95
553.876	32111.3
554.076	31900.36
554.275	31675.08
554.475	31519.43
554.674	32146.11
554.874	32021.19
555.074	31759.05
555.273	31865.54
555.473	32522.94
555.672	31527.63
555.872	31922.88
556.071	32037.57
556.271	31840.96
556.47	31922.88
556.67	31220.43
556.869	31683.27
557.068	31685.32
557.268	31711.94
557.467	31810.25
557.667	31718.09
557.866	31773.38
558.065	31853.25
558.265	31480.52
558.464	31236.81
558.663	31859.4
558.863	31197.9
559.062	31711.94
559.261	30892.76
559.461	31562.44
559.66	30909.14
559.859	31548.11
560.058	31175.37
560.258	31126.22
560.457	30804.69
560.656	31267.53
560.855	31079.12
561.054	31298.25
561.253	30554.84
561.453	30907.09
561.652	30925.52
561.851	31146.7
562.05	30941.91
562.249	30317.28
562.448	31005.39
562.647	30808.79
562.846	30374.62
563.045	30716.63
563.244	30313.18
563.443	30679.77
563.642	30192.35
563.841	30153.44
564.04	30180.06
564.239	30661.33
564.438	30051.04
564.637	30214.88
564.836	30264.03
565.035	30067.42
565.234	30341.85
565.432	29940.45
565.631	29461.23
565.83	29731.56
566.029	29602.53
566.228	30175.97
566.427	29606.63
566.625	29373.16
566.824	29360.87
567.023	29584.1
567.222	28869.36
567.42	29727.46
567.619	29358.83
567.818	29238
568.016	29260.52
568.215	29059.82
568.414	29233.9
568.612	29297.39
568.811	28947.18
569.01	28791.54
569.208	28226.3
569.407	28773.11
569.605	28592.89
569.804	28945.14
570.002	28551.93
570.201	28386.04
570.4	28599.03
570.598	28265.21
570.797	28379.9
570.995	28138.24
571.193	28005.12
571.392	28289.79
571.59	27876.1
571.789	27968.26
571.987	28128
572.186	27976.45
572.384	28001.02
572.582	28066.56
572.781	27730.69
572.979	27474.7
573.177	27564.81
573.376	27710.21
573.574	27509.51
573.772	27429.64
573.971	27200.27
574.169	26940.18
574.367	26753.81
574.565	27206.41
574.763	27093.77
574.962	26665.75
575.16	26694.42
575.358	26688.28
575.556	26305.31
575.754	26733.33
575.952	26626.84
576.151	26626.84
576.349	26149.66
576.547	26129.18
576.745	26123.04
576.943	25938.72
577.141	26348.31
577.339	26383.13
577.537	25922.34
577.735	25969.44
577.933	25748.26
578.131	25860.9
578.329	25692.96
578.527	25574.18
578.725	25506.6
578.923	25881.38
579.121	25680.67
579.319	25535.27
579.516	25633.57
579.714	25494.31
579.912	25256.75
580.11	25168.68
580.308	25201.45
580.506	24978.22
580.704	24681.27
580.901	25086.76
581.099	25146.15
581.297	24599.35
581.495	24535.86
581.692	24910.64
581.89	24636.21
582.088	24970.03
582.285	24048.44
582.483	24648.5
582.681	24374.07
582.878	24251.19
583.076	24066.88
583.274	24294.2
583.471	23995.2
583.669	23966.52
583.866	23655.23
584.064	23935.81
584.262	23540.55
584.459	24009.53
584.657	23827.26
584.854	23690.05
585.052	23227.21
585.249	23511.88
585.447	23466.82
585.644	23399.24
585.841	23225.16
586.039	23608.13
586.236	23071.56
586.434	23315.27
586.631	23128.91
586.828	22909.77
587.026	23178.06
587.223	22999.88
587.42	23044.94
587.618	22709.07
587.815	22467.41
588.012	22520.66
588.21	22367.06
588.407	22674.26
588.604	22428.5
588.801	22534.99
588.999	22565.71
589.196	22473.56
589.393	22479.7
589.59	22121.31
589.787	21736.29
589.984	22029.15
590.182	21820.25
590.379	22025.05
590.576	21779.29
590.773	21785.44
590.97	21601.12
591.167	21748.57
591.364	21238.63
591.561	21439.33
591.758	21443.43
591.955	21492.58
592.152	21470.05
592.349	21136.23
592.546	21384.04
592.743	21310.31
592.94	20839.28
593.137	20927.34
593.334	21357.41
593.531	20712.3
593.727	20786.03
593.924	20792.17
594.121	20544.37
594.318	20749.17
594.515	20593.52
594.712	20706.16
594.908	20296.56
595.105	20560.75
595.302	20339.57
595.499	20220.79
595.696	20069.24
595.892	20063.1
596.089	20435.83
596.286	20265.85
596.482	20044.66
596.679	19958.65
596.876	20247.41
597.072	19514.24
597.269	19716.99
597.466	19585.92
597.662	19719.04
597.859	19964.79
598.055	19608.45
598.252	19510.14
598.448	19565.44
598.645	19508.1
598.841	19469.19
599.038	19143.56
599.234	19116.93
599.431	18992.01
599.627	19030.92
599.824	19307.4
600.02	19073.93
600.217	18994.06
600.413	18748.3
600.609	19014.54
600.806	18750.35
601.002	18916.23
601.198	18490.26
601.395	18527.12
601.591	18561.94
601.787	18645.9
601.984	18324.37
602.18	18576.27
602.376	18287.51
602.572	18518.93
602.769	18305.94
602.965	17970.07
603.161	18248.6
603.357	18060.18
603.553	17820.57
603.75	18033.56
603.946	17775.52
604.142	18275.22
604.338	17378.21
604.534	17677.21
604.73	17499.04
604.926	17644.45
605.122	17564.57
605.318	17501.09
605.514	17511.33
605.71	17318.82
605.906	17474.46
606.102	17404.83
606.298	17484.7
606.494	17052.58
606.69	17290.15
606.886	17243.04
607.082	17032.1
607.278	17163.17
607.474	16864.17
607.67	17159.08
607.866	16698.28
608.062	17028.01
608.257	17025.96
608.453	16817.07
608.649	16751.53
608.845	16657.32
609.041	16599.98
609.236	16630.7
609.432	16509.87
609.628	16642.99
609.824	16587.69
610.019	16477.1
610.215	16794.54
610.411	16458.67
610.606	16354.23
610.802	16286.64
610.998	16311.22
611.193	16270.26
611.389	16214.96
611.584	16102.32
611.78	16026.55
611.976	16047.03
612.171	16343.99
612.367	16049.08
612.562	16087.99
612.758	15735.74
612.953	15883.19
613.149	16094.13
613.344	15576
613.539	15950.78
613.735	15860.66
613.93	15926.2
614.126	15627.2
614.321	15872.95
614.517	15623.1
614.712	15465.41
614.907	15479.74
615.103	15717.31
615.298	15545.28
615.493	15535.04
615.688	15346.62
615.884	15592.38
616.079	15428.54
616.274	15430.59
616.47	15289.28
616.665	15313.86
616.86	15080.39
617.055	15264.71
617.25	15266.75
617.445	15494.08
617.641	15061.96
617.836	15328.19
618.031	14916.55
618.226	15023.05
618.421	15043.53
618.616	15047.62
618.811	14697.42
619.006	14969.8
619.201	14568.4
619.396	14765
619.591	14502.86
619.786	14750.67
619.981	14242.77
620.176	14339.02
620.371	14353.36
620.566	14388.18
620.761	14304.21
620.956	14478.29
621.151	14128.08
621.346	14318.54
621.541	13788.12
621.735	14085.08
621.93	13845.46
622.125	13882.33
622.32	13489.12
622.515	13800.41
622.709	13611.99
622.904	13624.28
623.099	13388.77
623.294	13593.56
623.488	13310.94
623.683	13364.19
623.878	13009.89
624.072	13175.78
624.267	13083.62
624.462	12956.64
624.656	13052.9
624.851	12962.79
625.046	12649.45
625.24	12794.86
625.435	12686.31
625.629	12585.96
625.824	12592.11
626.018	12626.92
626.213	12237.81
626.407	12563.43
626.602	11830.26
626.796	12248.05
626.991	12174.32
627.185	12256.24
627.38	11836.41
627.574	11947
627.768	11983.86
627.963	11889.65
628.157	11707.38
628.352	11736.06
628.546	11445.24
628.74	11760.63
628.935	11455.48
629.129	11539.45
629.323	11316.22
629.517	11291.65
629.712	11271.17
629.906	11129.86
630.1	11101.19
630.294	11201.54
630.489	11213.82
630.683	11140.1
630.877	10812.42
631.071	10728.45
631.265	10687.5
631.459	10791.94
631.653	10687.5
631.848	10660.87
632.042	10677.26
632.236	10736.65
632.43	10533.9
632.624	10497.03
632.818	10441.74
633.012	10351.63
633.206	10245.13
633.4	10294.29
633.594	10112.02
633.788	10374.16
633.982	10075.15
634.176	10042.39
634.369	10048.53
634.563	9901.08
634.757	9833.49
634.951	9683.99
635.145	9894.93
635.339	9935.89
635.533	9808.92
635.726	9808.92
635.92	9532.44
636.114	9436.19
636.308	9434.14
636.501	9464.86
636.695	9491.48
636.889	9344.03
637.083	9186.33
637.276	9024.54
637.47	9038.88
637.664	9221.15
637.857	9051.17
638.051	9071.65
638.244	9008.16
638.438	8991.78
638.632	8946.72
638.825	8909.86
639.019	8932.39
639.212	8784.93
639.406	8743.97
639.599	8617
639.793	8782.88
639.986	8393.77
640.18	8533.03
640.373	8500.26
640.567	8399.91
640.76	8375.34
640.954	8281.13
641.147	8174.64
641.34	8172.59
641.534	8180.78
641.727	8127.53
641.92	8080.43
642.114	8123.44
642.307	7818.29
642.5	8105.01
642.694	7609.4
642.887	7810.1
643.08	7984.18
643.273	7748.66
643.467	7808.05
643.66	7550.01
643.853	7773.24
644.046	7576.63
644.239	7556.15
644.432	7347.26
644.626	7400.51
644.819	7400.51
645.012	7367.74
645.205	7498.81
645.398	7230.52
645.591	7259.2
645.784	7330.87
645.977	7130.17
646.17	7160.89
646.363	7099.45
646.556	6968.38
646.749	7152.7
646.942	6931.52
647.135	6892.61
647.328	6939.71
647.521	6919.23
647.714	6653
647.907	6679.62
648.099	6730.82
648.292	6538.31
648.485	6550.6
648.678	6622.28
648.871	6542.41
649.064	6585.41
649.256	6458.44
649.449	6321.23
649.642	6288.46
649.835	6272.07
650.027	6280.27
650.22	6429.77
650.413	6218.83
650.605	6401.1
650.798	6202.44
650.991	6171.72
651.183	6067.28
651.376	6136.91
651.568	6091.85
651.761	6026.32
651.954	5979.22
652.146	5962.83
652.339	5942.35
652.531	5860.43
652.724	5950.54
652.916	5862.48
653.109	5788.75
653.301	5968.98
653.494	5645.4
653.686	5686.36
653.879	5700.69
654.071	5655.64
654.263	5626.96
654.456	5465.18
654.648	5467.22
654.84	5528.66
655.033	5499.99
655.225	5602.39
655.417	5491.8
655.61	5221.47
655.802	5411.93
655.994	5434.46
656.186	5293.15
656.379	5301.34
656.571	5287
656.763	5252.19
656.955	5088.35
657.148	5143.64
657.34	5080.16
657.532	5008.48
657.724	5137.5
657.916	4924.51
658.108	5135.45
658.3	5108.83
658.492	5000.29
658.684	4889.7
658.876	5022.81
659.068	4967.52
659.26	4820.07
659.452	4893.79
659.644	4756.58
659.836	4725.86
660.028	4844.64
660.22	4625.51
660.412	4672.61
660.604	4625.51
660.796	4713.57
660.988	4549.73
661.18	4490.34
661.372	4478.05
661.563	4627.56
661.755	4510.82
661.947	4476.01
662.139	4430.95
662.331	4373.61
662.522	4234.35
662.714	4404.33
662.906	4344.94
663.097	4314.22
663.289	4346.98
663.481	4326.5
663.673	4369.51
663.864	4211.82
664.056	4189.29
664.247	4287.59
664.439	4154.48
664.631	4187.24
664.822	4066.41
665.014	4129.9
665.205	4168.81
665.397	4093.04
665.588	4078.7
665.78	4068.46
665.971	3976.3
666.163	3912.81
666.354	3826.8
666.546	3845.23
666.737	3839.09
666.929	3902.58
667.12	3914.86
667.311	3775.6
667.503	3859.57
667.694	3765.36
667.885	3742.83
668.077	3773.55
668.268	3693.68
668.459	3771.51
668.651	3742.83
668.842	3734.64
669.033	3638.39
669.224	3585.14
669.416	3624.05
669.607	3562.61
669.798	3529.84
669.989	3601.52
670.18	3538.04
670.371	3640.44
670.563	3535.99
670.754	3564.66
670.945	3488.89
671.136	3501.17
671.327	3351.67
671.518	3366.01
671.709	3468.41
671.9	3443.83
672.091	3359.86
672.282	3411.06
672.473	3406.97
672.664	3335.29
672.855	3527.8
673.046	3398.77
673.237	3277.94
673.428	3355.77
673.619	3286.14
673.809	3378.3
674	3394.68
674.191	3335.29
674.382	3120.25
674.573	3245.18
674.764	3273.85
674.954	3267.7
675.145	3277.94
675.336	3294.33
675.527	3181.69
675.717	3124.35
675.908	3132.54
676.099	3234.94
676.289	3105.92
676.48	3024
676.671	3075.2
676.861	3107.96
677.052	3093.63
677.243	2997.37
677.433	3099.77
677.624	3132.54
677.814	2983.04
678.005	3064.96
678.195	3030.14
678.386	3040.38
678.576	3085.44
678.767	3107.96
678.957	3118.2
679.148	2983.04
679.338	2985.09
679.529	3003.52
679.719	2995.32
679.909	3056.76
680.1	3110.01
680.29	2985.09
680.481	2978.94
680.671	2894.97
680.861	2917.5
681.052	2862.21
681.242	2942.08
681.432	2966.65
681.622	2972.8
681.813	2970.75
682.003	2935.93
682.193	2835.58
682.383	2972.8
682.573	2884.73
682.764	2894.97
682.954	2942.08
683.144	2903.17
683.334	2942.08
683.524	2892.93
683.714	2870.4
683.904	2968.7
684.094	2907.26
684.284	2782.34
684.474	2983.04
684.664	2804.86
684.854	2845.82
685.044	2843.78
685.234	2843.78
685.424	2903.17
685.614	2768
685.804	2761.86
685.994	2712.71
686.184	2800.77
686.374	2843.78
686.564	2794.62
686.753	2786.43
686.943	2874.49
687.133	2800.77
687.323	2868.35
687.513	2790.53
687.702	2755.71
687.892	2708.61
688.082	2653.31
688.272	2733.18
688.461	2737.28
688.651	2641.03
688.841	2792.58
689.03	2763.9
689.22	2686.08
689.41	2700.42
689.599	2731.14
689.789	2733.18
689.979	2663.55
690.168	2739.33
690.358	2600.07
690.547	2665.6
690.737	2587.78
690.926	2641.03
691.116	2636.93
691.305	2677.89
691.495	2624.64
691.684	2509.96
691.874	2667.65
692.063	2548.87
692.252	2739.33
692.442	2638.98
692.631	2555.01
692.82	2606.21
693.01	2643.07
693.199	2495.62
693.388	2512
693.578	2530.44
693.767	2628.74
693.956	2542.72
694.146	2530.44
694.335	2430.09
694.524	2444.42
694.713	2487.43
694.902	2577.54
695.092	2507.91
695.281	2483.33
695.47	2497.67
695.659	2436.23
695.848	2512
696.037	2577.54
696.226	2473.09
696.415	2411.65
696.604	2471.04
696.793	2401.41
696.982	2417.8
697.171	2579.59
697.36	2413.7
697.549	2423.94
697.738	2438.28
697.927	2370.69
698.116	2469
698.305	2395.27
698.494	2481.28
698.683	2354.31
698.872	2317.45
699.061	2393.22
699.25	2452.61
699.438	2354.31
699.627	2405.51
699.816	2446.47
700.005	2471.04
700.193	2368.65
700.382	2419.85
700.571	2370.69
700.76	2329.74
700.948	2374.79
701.137	2348.17
701.326	2428.04
701.514	2227.34
701.703	2432.13
701.892	2206.86
702.08	2288.78
702.269	2260.1
702.457	2249.86
702.646	2266.25
702.834	2319.5
703.023	2241.67
703.212	2141.32
703.4	2266.25
703.589	2221.19
703.777	2266.25
703.965	2249.86
704.154	2225.29
704.342	2282.63
704.531	2331.78
704.719	2141.32
704.907	2159.75
705.096	2239.62
705.284	2272.39
705.472	2221.19
705.661	2215.05
705.849	2231.43
706.037	2290.82
706.226	2305.16
706.414	2104.46
706.602	2118.79
706.79	2151.56
706.979	2202.76
707.167	2145.42
707.355	2131.08
707.543	2307.21
707.731	2141.32
707.919	2163.85
708.107	2167.95
708.296	2133.13
708.484	2116.75
708.672	2083.98
708.86	2133.13
709.048	2077.83
709.236	2045.07
709.424	2075.79
709.612	2137.23
709.8	2098.31
709.988	2114.7
710.176	2086.03
710.364	2116.75
710.551	2026.64
710.739	2069.64
710.927	2118.79
711.115	2090.12
711.303	2129.03
711.491	2116.75
711.679	1954.96
711.866	1995.92
712.054	2038.92
712.242	1903.76
712.43	1866.89
712.617	2086.03
712.805	1911.95
712.993	1993.87
713.181	2022.54
713.368	2014.35
713.556	2043.02
713.744	1895.57
713.931	2059.4
714.119	2057.36
714.306	2135.18
714.494	1907.85
714.682	1954.96
714.869	1903.76
715.057	2018.44
715.244	1989.77
715.432	1952.91
715.619	1993.87
715.807	1821.84
715.994	1901.71
716.182	1905.81
716.369	1930.38
716.556	1858.7
716.744	1830.03
716.931	1938.57
717.119	1817.74
717.306	1922.19
717.493	1889.42
717.681	1895.57
717.868	1815.69
718.055	1803.41
718.242	1789.07
718.43	1907.85
718.617	1848.46
718.804	1895.57
718.991	1760.4
719.179	1815.69
719.366	1813.65
719.553	1731.73
719.74	1784.98
719.927	1789.07
720.114	1739.92
720.301	1883.28
720.488	1707.15
720.676	1793.17
720.863	1821.84
721.05	1719.44
721.237	1703.06
721.424	1813.65
721.611	1832.08
721.798	1750.16
721.985	1768.59
722.172	1793.17
722.358	1801.36
722.545	1748.11
722.732	1678.48
722.919	1774.74
723.106	1660.05
723.293	1658
723.48	1701.01
723.667	1719.44
723.853	1633.43
724.04	1815.69
724.227	1719.44
724.414	1701.01
724.6	1641.62
724.787	1729.68
724.974	1666.19
725.161	1662.1
725.347	1666.19
725.534	1608.85
725.72	1672.34
725.907	1723.54
726.094	1641.62
726.28	1647.76
726.467	1727.63
726.653	1539.22
726.84	1625.23
727.027	1645.71
727.213	1627.28
727.4	1576.08
727.586	1680.53
727.773	1637.52
727.959	1678.48
728.145	1625.23
728.332	1526.93
728.518	1721.49
728.705	1692.82
728.891	1610.9
729.077	1631.38
729.264	1660.05
729.45	1569.94
729.636	1600.66
729.823	1541.27
730.009	1592.47
730.195	1604.75
730.382	1436.82
730.568	1602.71
730.754	1561.75
730.94	1485.97
731.126	1504.4
731.313	1586.32
731.499	1627.28
731.685	1551.51
731.871	1485.97
732.057	1547.41
732.243	1533.08
732.429	1418.39
732.615	1508.5
732.801	1561.75
732.987	1506.45
733.173	1510.55
733.359	1406.1
733.545	1498.26
733.731	1535.12
733.917	1494.16
734.103	1621.14
734.289	1612.95
734.475	1477.78
734.661	1514.64
734.847	1535.12
735.033	1541.27
735.219	1500.31
735.404	1453.2
735.59	1434.77
735.776	1469.59
735.962	1434.77
736.148	1545.36
736.333	1500.31
736.519	1420.44
736.705	1408.15
736.89	1504.4
737.076	1453.2
737.262	1387.67
737.447	1533.08
737.633	1371.29
737.819	1424.53
738.004	1461.4
738.19	1342.61
738.375	1432.72
738.561	1449.11
738.747	1389.72
738.932	1522.84
739.118	1406.1
739.303	1420.44
739.489	1371.29
739.674	1543.32
739.859	1471.64
740.045	1373.33
740.23	1318.04
740.416	1430.68
740.601	1338.52
740.786	1336.47
740.972	1447.06
741.157	1420.44
741.342	1322.13
741.528	1342.61
741.713	1238.17
741.898	1268.89
742.084	1342.61
742.269	1309.85
742.454	1414.29
742.639	1242.26
742.824	1322.13
743.01	1293.46
743.195	1436.82
743.38	1297.56
743.565	1328.28
743.75	1252.5
743.935	1240.22
744.12	1246.36
744.305	1240.22
744.49	1330.33
744.675	1248.41
744.86	1266.84
745.045	1250.46
745.23	1215.64
745.415	1227.93
745.6	1207.45
745.785	1250.46
745.97	1094.81
746.155	1199.26
746.34	1266.84
746.525	1252.5
746.71	1367.19
746.895	1272.98
747.079	1209.5
747.264	1176.73
747.449	1229.98
747.634	1154.2
747.819	1092.76
748.003	1109.15
748.188	1111.19
748.373	1125.53
748.557	1166.49
748.742	1039.51
748.927	1068.19
749.111	1086.62
749.296	1068.19
749.481	1131.67
749.665	1086.62
749.85	1096.86
750.034	1027.23
750.219	1086.62
750.404	1084.57
750.588	1143.96
750.773	1084.57
750.957	1057.95
751.141	1055.9
751.326	1012.89
751.51	1008.8
751.695	1039.51
751.879	1008.8
752.064	1105.05
752.248	1041.56
752.432	949.4
752.617	955.55
752.801	937.12
752.985	1047.71
753.17	996.51
753.354	949.4
753.538	914.59
753.722	1004.7
753.907	937.12
754.091	986.27
754.275	1037.47
754.459	945.31
754.643	896.16
754.828	953.5
755.012	943.26
755.196	959.64
755.38	865.44
755.564	926.88
755.748	834.72
755.932	797.85
756.116	867.49
756.3	896.16
756.484	896.16
756.668	869.53
756.852	857.25
757.036	840.86
757.22	834.72
757.404	861.34
757.588	865.44
757.772	881.82
757.956	875.68
758.14	799.9
758.323	785.57
758.507	742.56
758.691	777.37
758.875	840.86
759.059	748.7
759.242	765.09
759.426	742.56
759.61	820.38
759.794	767.13
759.977	773.28
760.161	832.67
760.345	789.66
760.528	799.9
760.712	674.98
760.895	742.56
761.079	668.83
761.263	750.75
761.446	717.98
761.63	685.22
761.813	742.56
761.997	664.74
762.18	666.78
762.364	769.18
762.547	621.73
762.731	736.42
762.914	720.03
763.098	787.61
763.281	656.54
763.464	613.54
763.648	781.47
763.831	609.44
764.015	640.16
764.198	599.2
764.381	640.16
764.564	658.59
764.748	687.26
764.931	699.55
765.114	679.07
765.297	664.74
765.481	629.92
765.664	595.11
765.847	666.78
766.03	695.46
766.213	662.69
766.397	713.89
766.58	603.3
766.763	658.59
766.946	625.83
767.129	660.64
767.312	615.59
767.495	621.73
767.678	593.06
767.861	517.28
768.044	556.19
768.227	636.06
768.41	621.73
768.593	634.02
768.776	636.06
768.959	656.54
769.142	570.53
769.324	562.34
769.507	595.11
769.69	601.25
769.873	545.95
770.056	582.82
770.239	572.58
770.421	658.59
770.604	482.47
770.787	474.28
770.97	541.86
771.152	605.35
771.335	502.95
771.518	494.76
771.7	498.85
771.883	566.43
772.066	568.48
772.248	507.04
772.431	554.15
772.613	584.87
772.796	545.95
772.978	539.81
773.161	461.99
773.343	480.42
773.526	543.91
773.708	488.61
773.891	490.66
774.073	537.76
774.256	480.42
774.438	470.18
774.621	466.08
774.803	502.95
774.985	527.52
775.168	421.03
775.35	533.67
775.532	461.99
775.715	498.85
775.897	562.34
776.079	384.16
776.261	429.22
776.444	494.76
776.626	519.33
776.808	429.22
776.99	382.12
777.173	513.19
777.355	447.65
777.537	421.03
777.719	398.5
777.901	435.36
778.083	484.52
778.265	423.08
778.447	488.61
778.629	390.31
778.811	361.64
778.993	439.46
779.175	437.41
779.357	347.3
779.539	421.03
779.721	515.23
779.903	488.61
780.085	355.49
780.267	414.88
780.449	464.04
780.631	386.21
780.812	443.56
780.994	427.17
781.176	390.31
781.358	371.88
781.54	382.12
781.721	394.4
781.903	425.12
782.085	439.46
782.267	388.26
782.448	380.07
782.63	369.83
782.812	324.77
782.993	332.97
783.175	314.53
783.357	330.92
783.538	380.07
783.72	302.25
783.901	361.64
784.083	357.54
784.264	322.73
784.446	310.44
784.627	287.91
784.809	349.35
784.99	322.73
785.172	306.34
785.353	384.16
785.535	320.68
785.716	279.72
785.897	271.53
786.079	347.3
786.26	304.29
786.441	263.33
786.623	220.33
786.804	249
786.985	367.78
787.167	355.49
787.348	265.38
787.529	310.44
787.71	277.67
787.891	287.91
788.073	269.48
788.254	240.81
788.435	371.88
788.616	318.63
788.797	275.62
788.978	326.82
789.159	232.62
789.34	292.01
789.522	232.62
789.703	261.29
789.884	322.73
790.065	199.85
790.246	275.62
790.427	222.38
790.607	232.62
790.788	310.44
790.969	224.42
791.15	300.2
791.331	224.42
791.512	230.57
791.693	136.36
791.874	246.95
792.054	285.86
792.235	292.01
792.416	302.25
792.597	275.62
792.778	265.38
792.958	273.57
793.139	187.56
793.32	271.53
793.5	126.12
793.681	218.28
793.862	259.24
794.042	203.94
794.223	201.9
794.404	173.22
794.584	185.51
794.765	271.53
794.945	249
795.126	220.33
795.306	234.66
795.487	236.71
795.667	240.81
795.848	240.81
796.028	251.05
796.209	185.51
796.389	249
796.57	220.33
796.75	119.98
796.93	205.99
797.111	109.74
797.291	158.89
797.471	212.14
797.652	210.09
797.832	191.66
798.012	195.75
798.192	177.32
798.373	142.5
798.553	210.09
798.733	216.23
798.913	167.08
799.093	193.7
799.274	205.99
799.454	146.6
799.634	134.31
799.814	179.37
799.994	126.12
800.174	175.27
800.354	150.7
800.534	189.61
800.714	154.79
800.894	234.66
801.074	208.04
801.254	171.18
801.434	195.75
801.614	134.31
801.794	103.59
801.974	349.35
802.154	142.5
802.334	273.57
802.514	175.27
802.693	122.02
802.873	189.61
803.053	175.27
803.233	134.31
803.413	126.12
803.592	117.93
803.772	191.66
803.952	111.78
804.131	99.5
804.311	199.85
804.491	177.32
804.67	97.45
804.85	156.84
805.03	148.65
805.209	103.59
805.389	91.31
805.568	113.83
805.748	122.02
805.928	271.53
806.107	167.08
806.287	136.36
806.466	173.22
806.646	165.03
806.825	122.02
807.004	93.35
807.184	162.98
807.363	160.94
807.543	138.41
807.722	185.51
807.901	126.12
808.081	138.41
808.26	138.41
808.439	130.22
808.619	158.89
808.798	177.32
808.977	95.4
809.156	117.93
809.336	97.45
809.515	132.26
809.694	136.36
809.873	111.78
810.052	76.97
810.231	130.22
810.411	158.89
810.59	72.87
810.769	126.12
810.948	148.65
811.127	58.54
811.306	109.74
811.485	109.74
811.664	74.92
811.843	91.31
812.022	142.5
812.201	136.36
812.38	103.59
812.559	101.55
812.737	158.89
812.916	66.73
813.095	111.78
813.274	62.63
813.453	60.59
813.632	124.07
813.811	158.89
813.989	93.35
814.168	134.31
814.347	85.16
814.526	124.07
814.704	154.79
814.883	148.65
815.062	76.97
815.24	119.98
815.419	148.65
815.598	93.35
815.776	101.55
815.955	36.01
816.133	122.02
816.312	101.55
816.49	160.94
816.669	107.69
816.847	113.83
817.026	154.79
817.204	93.35
817.383	138.41
817.561	126.12
817.74	83.11
817.918	91.31
818.097	117.93
818.275	144.55
818.453	64.68
818.632	89.26
818.81	52.39
818.988	119.98
819.167	126.12
819.345	85.16
819.523	74.92
819.701	76.97
819.879	66.73
820.058	66.73
820.236	48.3
820.414	52.39
820.592	144.55
820.77	136.36
820.948	181.42
821.127	54.44
821.305	85.16
821.483	150.7
821.661	60.59
821.839	128.17
822.017	81.07
822.195	142.5
822.373	105.64
822.551	99.5
822.729	56.49
822.907	70.83
823.085	93.35
823.262	66.73
823.44	89.26
823.618	107.69
823.796	187.56
823.974	74.92
824.152	132.26
824.329	83.11
824.507	132.26
824.685	52.39
824.863	99.5
825.04	87.21
825.218	52.39
825.396	56.49
825.574	66.73
825.751	81.07
825.929	50.35
826.107	103.59
826.284	83.11
826.462	76.97
826.639	56.49
826.817	97.45
826.994	136.36
827.172	122.02
827.349	44.2
827.527	97.45
827.704	62.63
827.882	95.4
828.059	111.78
828.237	70.83
828.414	103.59
828.591	56.49
828.769	126.12
828.946	42.15
829.124	48.3
829.301	62.63
829.478	27.82
829.655	64.68
829.833	44.2
830.01	68.78
830.187	128.17
830.364	85.16
830.542	128.17
830.719	54.44
830.896	17.58
831.073	9.39
831.25	101.55
831.427	31.91
831.604	64.68
831.782	46.25
831.959	58.54
832.136	60.59
832.313	76.97
832.49	31.91
832.667	31.91
832.844	52.39
833.021	76.97
833.198	50.35
833.374	54.44
833.551	64.68
833.728	38.06
833.905	160.94
834.082	19.63
834.259	-0.85
834.436	126.12
834.612	56.49
834.789	109.74
834.966	46.25
835.143	60.59
835.319	68.78
835.496	-0.85
835.673	62.63
835.85	46.25
836.026	54.44
836.203	79.02
836.38	-0.85
836.556	85.16
836.733	85.16
836.909	44.2
837.086	40.11
837.262	38.06
837.439	99.5
837.616	85.16
837.792	85.16
837.968	50.35
838.145	11.43
838.321	103.59
838.498	76.97
838.674	44.2
838.851	64.68
839.027	11.43
839.203	111.78
839.38	-0.85
839.556	-39.76
839.732	36.01
839.909	58.54
840.085	79.02
840.261	48.3
840.437	64.68
840.614	87.21
840.79	72.87
840.966	-4.95
841.142	87.21
841.318	48.3
841.494	31.91
841.671	81.07
841.847	52.39
842.023	-4.95
842.199	-33.62
842.375	54.44
842.551	85.16
842.727	68.78
842.903	99.5
843.079	60.59
843.255	31.91
843.431	-23.38
843.607	23.72
843.783	42.15
843.959	29.87
844.134	27.82
844.31	-33.62
844.486	72.87
844.662	38.06
844.838	-11.09
845.013	50.35
845.189	3.24
845.365	97.45
845.541	70.83
845.716	-0.85
845.892	48.3
846.068	46.25
846.244	72.87
846.419	158.89
846.595	-29.52
846.77	-29.52
846.946	72.87
847.122	58.54
847.297	27.82
847.473	-99.16
847.648	117.93
847.824	79.02
847.999	-19.29
848.175	11.43
848.35	66.73
848.526	85.16
848.701	46.25
848.876	38.06
849.052	38.06
849.227	31.91
849.403	33.96
849.578	-17.24
849.753	15.53
849.929	7.34
850.104	-9.05
850.279	74.92
850.454	64.68
850.63	107.69
850.805	60.59
850.98	-21.33
851.155	-7
851.33	-33.62
851.505	19.63
851.681	85.16
851.856	70.83
852.031	21.67
852.206	52.39
852.381	23.72
852.556	31.91
852.731	62.63
852.906	36.01
853.081	11.43
853.256	60.59
853.431	15.53
853.606	74.92
853.781	87.21
853.956	21.67
854.131	64.68
854.305	9.39
854.48	93.35
854.655	15.53
854.83	15.53
855.005	25.77
855.18	-2.9
855.354	15.53
855.529	5.29
855.704	36.01
855.879	-11.09
856.053	19.63
856.228	19.63
856.403	76.97
856.577	5.29
856.752	-17.24
856.926	-11.09
857.101	95.4
857.276	7.34
857.45	-13.14
857.625	-0.85
857.799	3.24
857.974	-15.19
858.148	-7
858.323	-7
858.497	-27.48
858.672	33.96
858.846	-52.05
859.02	38.06
859.195	70.83
859.369	42.15
859.543	23.72
859.718	38.06
859.892	38.06
860.066	-33.62
860.241	19.63
860.415	23.72
860.589	70.83
860.763	7.34
860.938	7.34
861.112	42.15
861.286	33.96
861.46	11.43
861.634	7.34
861.808	-76.63
861.982	38.06
862.157	-31.57
862.331	36.01
862.505	79.02
862.679	19.63
862.853	23.72
863.027	11.43
863.201	46.25
863.375	-21.33
863.549	33.96
863.722	-13.14
863.896	-0.85
864.07	13.48
864.244	40.11
864.418	13.48
864.592	46.25
864.766	15.53
864.939	-43.86
865.113	1.19
865.287	85.16
865.461	-15.19
865.634	58.54
865.808	29.87
865.982	-37.72
866.156	52.39
866.329	38.06
866.503	-21.33
866.676	-9.05
866.85	44.2
867.024	-23.38
867.197	101.55
867.371	62.63
867.544	-13.14
867.718	68.78
867.891	64.68
868.065	7.34
868.238	-19.29
868.412	54.44
868.585	7.34
868.759	-17.24
868.932	29.87
869.105	-19.29
869.279	-72.53
869.452	15.53
869.625	-31.57
869.799	25.77
869.972	3.24
870.145	23.72
870.319	36.01
870.492	101.55
870.665	-11.09
870.838	31.91
871.011	29.87
871.185	-2.9
871.358	-25.43
871.531	40.11
871.704	33.96
871.877	-23.38
872.05	50.35
872.223	-15.19
872.396	-9.05
872.569	-4.95
872.742	-7
872.915	13.48
873.088	44.2
873.261	17.58
873.434	-11.09
873.607	-33.62
873.78	-15.19
873.953	-62.29
874.126	60.59
874.299	-43.86
874.471	3.24
874.644	44.2
874.817	21.67
874.99	89.26
875.163	-11.09
875.335	68.78
875.508	50.35
875.681	38.06
875.853	-50
876.026	52.39
876.199	74.92
876.371	-2.9
876.544	11.43
876.717	54.44
876.889	-72.53
877.062	-17.24
877.234	-37.72
877.407	5.29
877.579	62.63
877.752	-2.9
877.924	81.07
878.097	-74.58
878.269	9.39
878.442	-2.9
878.614	76.97
878.786	38.06
878.959	-21.33
879.131	11.43
879.303	-19.29
879.476	-27.48
879.648	15.53
879.82	-2.9
879.993	-0.85
880.165	-37.72
880.337	-50
880.509	9.39
880.681	-66.39
880.854	85.16
881.026	-17.24
881.198	-19.29
881.37	44.2
881.542	56.49
881.714	-37.72
881.886	-74.58
882.058	27.82
882.23	-54.1
882.402	42.15
882.574	3.24
882.746	9.39
882.918	7.34
883.09	-25.43
883.262	50.35
883.434	-21.33
883.606	23.72
883.778	11.43
883.95	19.63
884.122	-35.67
884.293	17.58
884.465	38.06
884.637	48.3
884.809	33.96
884.98	29.87
885.152	11.43
885.324	58.54
885.496	42.15
885.667	19.63
885.839	-21.33
886.011	124.07
886.182	64.68
886.354	1.19
886.525	25.77
886.697	54.44
886.869	-39.76
887.04	54.44
887.212	91.31
887.383	-11.09
887.555	-11.09
887.726	17.58
887.897	-21.33
888.069	15.53
888.24	-9.05
888.412	-13.14
888.583	56.49
888.754	-47.96
888.926	66.73
889.097	21.67
889.268	11.43
889.44	-35.67
889.611	50.35
889.782	-33.62
889.953	23.72
890.125	79.02
890.296	56.49
890.467	19.63
890.638	11.43
890.809	68.78
890.98	-15.19
891.151	27.82
891.323	48.3
891.494	29.87
891.665	-39.76
891.836	81.07
892.007	-41.81
892.178	1.19
892.349	-27.48
892.52	64.68
892.691	9.39
892.862	29.87
893.032	-29.52
893.203	36.01
893.374	-0.85
893.545	54.44
893.716	-13.14
893.887	40.11
894.057	-52.05
894.228	58.54
894.399	-33.62
894.57	46.25
894.74	50.35
894.911	46.25
895.082	-0.85
895.253	38.06
895.423	19.63
895.594	3.24
895.764	42.15
895.935	27.82
896.106	9.39
896.276	29.87
896.447	64.68
896.617	68.78
896.788	21.67
896.958	-11.09
897.129	36.01
897.299	-37.72
897.47	-58.2
897.64	-11.09
897.81	-23.38
897.981	36.01
898.151	15.53
898.322	-11.09
898.492	21.67
898.662	-7
898.832	19.63
899.003	13.48
899.173	54.44
899.343	-27.48
899.513	-39.76
