Data from USB4F104151__92__13-00-05-799.txt Node

Date: Fri Mar 14 13:00:05 EDT 2025
User: louis
Spectrometer: USB4F10415
Trigger mode: 4
Integration Time (sec): 1.000000E-2
Scans to average: 1
Electric dark correction enabled: true
Nonlinearity correction enabled: false
Boxcar width: 0
XAxis mode: Wavelengths
Number of Pixels in Spectrum: 3648
>>>>>Begin Spectral Data<<<<<
178.204	15.02
178.424	15.02
178.644	15.02
178.864	-21.85
179.084	-71
179.304	-19.8
179.524	27.31
179.744	-42.32
179.964	-5.46
180.184	-9.56
180.404	2.73
180.624	60.07
180.844	29.35
181.064	-34.13
181.283	-13.65
181.503	8.87
181.723	-3.41
181.943	-15.7
182.163	-30.04
182.383	92.84
182.602	64.17
182.822	-27.99
183.042	-7.51
183.262	15.02
183.482	-5.46
183.701	-32.08
183.921	35.5
184.141	-38.23
184.361	25.26
184.58	0.68
184.8	-58.71
185.02	-46.42
185.239	31.4
185.459	6.83
185.679	15.02
185.898	-27.99
186.118	-1.37
186.338	19.11
186.557	60.07
186.777	-66.9
186.997	31.4
187.216	21.16
187.436	23.21
187.655	39.59
187.875	12.97
188.095	-58.71
188.314	2.73
188.534	60.07
188.753	41.64
188.973	-11.61
189.192	33.45
189.412	78.51
189.631	47.79
189.851	-11.61
190.07	49.83
190.29	-11.61
190.509	64.17
190.729	-9.56
190.948	-48.47
191.168	94.89
191.387	35.5
191.607	0.68
191.826	-5.46
192.045	33.45
192.265	-68.95
192.484	-19.8
192.704	43.69
192.923	31.4
193.142	-1.37
193.362	15.02
193.581	39.59
193.8	33.45
194.02	4.78
194.239	17.07
194.458	-52.56
194.678	-32.08
194.897	31.4
195.116	17.07
195.335	-46.42
195.555	47.79
195.774	129.7
195.993	-58.71
196.212	-40.28
196.432	-38.23
196.651	-36.18
196.87	-1.37
197.089	76.46
197.308	33.45
197.528	-1.37
197.747	37.55
197.966	-36.18
198.185	8.87
198.404	47.79
198.623	2.73
198.842	98.99
199.062	6.83
199.281	35.5
199.5	-68.95
199.719	35.5
199.938	-42.32
200.157	-27.99
200.376	2.73
200.595	25.26
200.814	41.64
201.033	-1.37
201.252	-5.46
201.471	0.68
201.69	-21.85
201.909	17.07
202.128	35.5
202.347	-56.66
202.566	-21.85
202.785	31.4
203.004	-3.41
203.223	31.4
203.442	33.45
203.661	2.73
203.879	4.78
204.098	-54.61
204.317	-7.51
204.536	78.51
204.755	4.78
204.974	-32.08
205.193	-9.56
205.411	51.88
205.63	-21.85
205.849	-13.65
206.068	68.27
206.287	-21.85
206.505	31.4
206.724	-11.61
206.943	0.68
207.162	-13.65
207.381	45.74
207.599	-5.46
207.818	0.68
208.037	-11.61
208.255	19.11
208.474	-54.61
208.693	-32.08
208.911	-13.65
209.13	15.02
209.349	23.21
209.567	47.79
209.786	-44.37
210.005	19.11
210.223	-44.37
210.442	-36.18
210.661	21.16
210.879	-75.09
211.098	-13.65
211.316	-13.65
211.535	43.69
211.753	-36.18
211.972	-7.51
212.191	21.16
212.409	-7.51
212.628	-17.75
212.846	27.31
213.065	47.79
213.283	-7.51
213.502	45.74
213.72	-62.8
213.938	-3.41
214.157	60.07
214.375	10.92
214.594	43.69
214.812	29.35
215.031	35.5
215.249	4.78
215.467	37.55
215.686	6.83
215.904	74.41
216.122	74.41
216.341	49.83
216.559	6.83
216.778	58.03
216.996	31.4
217.214	53.93
217.432	-68.95
217.651	43.69
217.869	-40.28
218.087	96.94
218.306	45.74
218.524	-5.46
218.742	-7.51
218.96	12.97
219.179	-40.28
219.397	27.31
219.615	4.78
219.833	-77.14
220.051	60.07
220.27	68.27
220.488	12.97
220.706	-23.89
220.924	-15.7
221.142	-30.04
221.36	49.83
221.578	25.26
221.796	-21.85
222.015	66.22
222.233	10.92
222.451	45.74
222.669	-77.14
222.887	55.98
223.105	17.07
223.323	-21.85
223.541	-5.46
223.759	-30.04
223.977	41.64
224.195	21.16
224.413	-17.75
224.631	27.31
224.849	6.83
225.067	8.87
225.285	4.78
225.503	37.55
225.721	-62.8
225.939	-66.9
226.157	31.4
226.375	45.74
226.592	27.31
226.81	-17.75
227.028	19.11
227.246	55.98
227.464	60.07
227.682	-1.37
227.9	2.73
228.117	17.07
228.335	-13.65
228.553	-27.99
228.771	10.92
228.989	105.13
229.206	-38.23
229.424	2.73
229.642	17.07
229.86	-7.51
230.077	-48.47
230.295	17.07
230.513	27.31
230.731	23.21
230.948	12.97
231.166	72.36
231.384	-50.52
231.601	-5.46
231.819	-58.71
232.037	27.31
232.254	-13.65
232.472	39.59
232.689	-1.37
232.907	12.97
233.125	-54.61
233.342	19.11
233.56	-44.37
233.777	64.17
233.995	8.87
234.213	84.65
234.43	8.87
234.648	51.88
234.865	25.26
235.083	33.45
235.3	6.83
235.518	37.55
235.735	2.73
235.953	55.98
236.17	-17.75
236.388	-38.23
236.605	-19.8
236.822	43.69
237.04	47.79
237.257	51.88
237.475	-13.65
237.692	68.27
237.909	21.16
238.127	-7.51
238.344	43.69
238.562	6.83
238.779	-3.41
238.996	-13.65
239.214	-13.65
239.431	-11.61
239.648	-38.23
239.865	-44.37
240.083	17.07
240.3	10.92
240.517	12.97
240.735	12.97
240.952	119.46
241.169	27.31
241.386	76.46
241.603	-23.89
241.821	4.78
242.038	-25.94
242.255	2.73
242.472	-48.47
242.689	-38.23
242.907	76.46
243.124	8.87
243.341	0.68
243.558	25.26
243.775	23.21
243.992	-25.94
244.209	-5.46
244.426	-3.41
244.643	-15.7
244.86	51.88
245.078	43.69
245.295	10.92
245.512	19.11
245.729	19.11
245.946	66.22
246.163	-71
246.38	-11.61
246.597	-11.61
246.814	62.12
247.031	27.31
247.248	-21.85
247.464	64.17
247.681	-3.41
247.898	0.68
248.115	-1.37
248.332	53.93
248.549	49.83
248.766	45.74
248.983	-21.85
249.2	45.74
249.417	-32.08
249.633	2.73
249.85	39.59
250.067	-46.42
250.284	58.03
250.501	43.69
250.717	58.03
250.934	-13.65
251.151	-21.85
251.368	66.22
251.585	-15.7
251.801	15.02
252.018	-79.19
252.235	-15.7
252.451	37.55
252.668	-13.65
252.885	37.55
253.102	-79.19
253.318	0.68
253.535	-5.46
253.752	0.68
253.968	19.11
254.185	0.68
254.401	31.4
254.618	-13.65
254.835	-3.41
255.051	-21.85
255.268	-7.51
255.484	51.88
255.701	-19.8
255.917	66.22
256.134	19.11
256.351	8.87
256.567	-7.51
256.784	-21.85
257	-19.8
257.217	86.7
257.433	12.97
257.65	10.92
257.866	-23.89
258.082	-13.65
258.299	-62.8
258.515	74.41
258.732	-75.09
258.948	-3.41
259.165	-66.9
259.381	2.73
259.597	-81.24
259.814	4.78
260.03	19.11
260.246	164.52
260.463	-5.46
260.679	2.73
260.895	-11.61
261.112	60.07
261.328	-1.37
261.544	31.4
261.761	-17.75
261.977	2.73
262.193	-75.09
262.409	-38.23
262.626	31.4
262.842	-7.51
263.058	-46.42
263.274	53.93
263.49	33.45
263.707	-23.89
263.923	35.5
264.139	35.5
264.355	94.89
264.571	60.07
264.787	-54.61
265.004	-93.52
265.22	-42.32
265.436	35.5
265.652	-56.66
265.868	51.88
266.084	-23.89
266.3	76.46
266.516	0.68
266.732	-38.23
266.948	-54.61
267.164	23.21
267.38	-52.56
267.596	19.11
267.812	-11.61
268.028	4.78
268.244	-40.28
268.46	-3.41
268.676	70.31
268.892	-25.94
269.108	29.35
269.324	43.69
269.54	51.88
269.756	49.83
269.972	10.92
270.188	-128.34
270.403	-11.61
270.619	-13.65
270.835	-13.65
271.051	-40.28
271.267	-38.23
271.483	74.41
271.698	25.26
271.914	35.5
272.13	21.16
272.346	-13.65
272.562	-3.41
272.777	-77.14
272.993	-71
273.209	6.83
273.425	-23.89
273.64	-46.42
273.856	2.73
274.072	8.87
274.287	-38.23
274.503	-3.41
274.719	-1.37
274.934	43.69
275.15	35.5
275.366	8.87
275.581	-5.46
275.797	-21.85
276.012	-23.89
276.228	51.88
276.444	10.92
276.659	33.45
276.875	-46.42
277.09	2.73
277.306	-62.8
277.521	86.7
277.737	-7.51
277.952	27.31
278.168	12.97
278.383	35.5
278.599	-3.41
278.814	21.16
279.03	-5.46
279.245	21.16
279.461	15.02
279.676	-54.61
279.892	19.11
280.107	-3.41
280.322	-40.28
280.538	2.73
280.753	-5.46
280.969	21.16
281.184	-11.61
281.399	27.31
281.615	90.79
281.83	53.93
282.045	23.21
282.26	8.87
282.476	12.97
282.691	21.16
282.906	-44.37
283.122	-13.65
283.337	70.31
283.552	62.12
283.767	-15.7
283.983	80.55
284.198	-34.13
284.413	8.87
284.628	-13.65
284.843	43.69
285.058	37.55
285.274	43.69
285.489	-38.23
285.704	-1.37
285.919	-15.7
286.134	76.46
286.349	25.26
286.564	-54.61
286.779	6.83
286.995	53.93
287.21	45.74
287.425	25.26
287.64	-11.61
287.855	53.93
288.07	-48.47
288.285	51.88
288.5	-5.46
288.715	-46.42
288.93	31.4
289.145	53.93
289.36	-27.99
289.575	43.69
289.79	15.02
290.004	4.78
290.219	-5.46
290.434	10.92
290.649	19.11
290.864	58.03
291.079	4.78
291.294	37.55
291.509	-56.66
291.724	37.55
291.938	-71
292.153	-62.8
292.368	-38.23
292.583	-44.37
292.798	-23.89
293.012	15.02
293.227	8.87
293.442	2.73
293.657	-46.42
293.871	51.88
294.086	-5.46
294.301	31.4
294.516	-13.65
294.73	-27.99
294.945	12.97
295.16	17.07
295.374	2.73
295.589	51.88
295.804	17.07
296.018	-19.8
296.233	0.68
296.447	88.75
296.662	-11.61
296.877	80.55
297.091	19.11
297.306	35.5
297.52	31.4
297.735	-62.8
297.949	4.78
298.164	-5.46
298.378	-48.47
298.593	-34.13
298.807	-9.56
299.022	-9.56
299.236	-5.46
299.451	6.83
299.665	-52.56
299.88	45.74
300.094	-32.08
300.309	6.83
300.523	25.26
300.737	-32.08
300.952	-11.61
301.166	27.31
301.381	33.45
301.595	-15.7
301.809	29.35
302.024	39.59
302.238	-11.61
302.452	-13.65
302.667	47.79
302.881	64.17
303.095	47.79
303.309	51.88
303.524	-36.18
303.738	-42.32
303.952	33.45
304.166	-34.13
304.381	39.59
304.595	-1.37
304.809	37.55
305.023	-7.51
305.237	-11.61
305.452	-54.61
305.666	41.64
305.88	41.64
306.094	49.83
306.308	10.92
306.522	51.88
306.736	43.69
306.95	94.89
307.164	-38.23
307.379	27.31
307.593	49.83
307.807	0.68
308.021	33.45
308.235	51.88
308.449	-1.37
308.663	17.07
308.877	64.17
309.091	-25.94
309.305	29.35
309.519	-32.08
309.733	-1.37
309.947	23.21
310.161	-1.37
310.374	29.35
310.588	29.35
310.802	27.31
311.016	47.79
311.23	25.26
311.444	-52.56
311.658	-44.37
311.872	27.31
312.085	23.21
312.299	-9.56
312.513	-9.56
312.727	31.4
312.941	-3.41
313.154	10.92
313.368	-1.37
313.582	-3.41
313.796	31.4
314.009	2.73
314.223	-7.51
314.437	27.31
314.651	17.07
314.864	55.98
315.078	29.35
315.292	2.73
315.505	0.68
315.719	43.69
315.933	41.64
316.146	-19.8
316.36	27.31
316.573	23.21
316.787	19.11
317.001	12.97
317.214	-56.66
317.428	27.31
317.641	-5.46
317.855	-95.57
318.068	12.97
318.282	-11.61
318.495	29.35
318.709	4.78
318.922	-25.94
319.136	0.68
319.349	-3.41
319.563	4.78
319.776	-23.89
319.99	-5.46
320.203	-23.89
320.417	19.11
320.63	47.79
320.843	-1.37
321.057	-17.75
321.27	10.92
321.483	-3.41
321.697	74.41
321.91	35.5
322.124	-71
322.337	-1.37
322.55	-36.18
322.763	43.69
322.977	76.46
323.19	37.55
323.403	35.5
323.617	-1.37
323.83	94.89
324.043	0.68
324.256	15.02
324.469	-19.8
324.683	62.12
324.896	27.31
325.109	80.55
325.322	-44.37
325.535	8.87
325.748	-9.56
325.962	64.17
326.175	19.11
326.388	0.68
326.601	41.64
326.814	12.97
327.027	-19.8
327.24	17.07
327.453	43.69
327.666	-7.51
327.879	-25.94
328.092	43.69
328.305	45.74
328.518	0.68
328.731	23.21
328.944	19.11
329.157	23.21
329.37	23.21
329.583	15.02
329.796	17.07
330.009	-3.41
330.222	35.5
330.435	58.03
330.648	68.27
330.861	33.45
331.073	76.46
331.286	2.73
331.499	-7.51
331.712	-71
331.925	35.5
332.138	21.16
332.35	43.69
332.563	33.45
332.776	10.92
332.989	-19.8
333.202	43.69
333.414	60.07
333.627	60.07
333.84	-1.37
334.053	-9.56
334.265	2.73
334.478	15.02
334.691	43.69
334.903	49.83
335.116	35.5
335.329	39.59
335.541	8.87
335.754	-40.28
335.966	-7.51
336.179	10.92
336.392	27.31
336.604	76.46
336.817	43.69
337.029	68.27
337.242	47.79
337.454	-25.94
337.667	6.83
337.88	-21.85
338.092	-32.08
338.305	-30.04
338.517	82.6
338.729	8.87
338.942	8.87
339.154	12.97
339.367	27.31
339.579	78.51
339.792	10.92
340.004	49.83
340.217	-44.37
340.429	12.97
340.641	25.26
340.854	21.16
341.066	-38.23
341.278	96.94
341.491	-25.94
341.703	41.64
341.915	76.46
342.128	19.11
342.34	47.79
342.552	47.79
342.764	-48.47
342.977	-15.7
343.189	21.16
343.401	-11.61
343.613	15.02
343.826	21.16
344.038	6.83
344.25	-17.75
344.462	0.68
344.674	115.37
344.886	23.21
345.099	37.55
345.311	35.5
345.523	-19.8
345.735	60.07
345.947	-1.37
346.159	15.02
346.371	-3.41
346.583	-21.85
346.795	8.87
347.007	6.83
347.219	37.55
347.431	-89.43
347.643	62.12
347.855	-15.7
348.067	35.5
348.279	10.92
348.491	4.78
348.703	-42.32
348.915	76.46
349.127	-42.32
349.339	-46.42
349.551	19.11
349.763	47.79
349.975	39.59
350.187	47.79
350.399	-11.61
350.61	-5.46
350.822	78.51
351.034	27.31
351.246	37.55
351.458	53.93
351.669	35.5
351.881	-19.8
352.093	33.45
352.305	-19.8
352.517	-40.28
352.728	66.22
352.94	-34.13
353.152	21.16
353.363	129.7
353.575	-21.85
353.787	72.36
353.999	10.92
354.21	19.11
354.422	-3.41
354.633	-17.75
354.845	82.6
355.057	37.55
355.268	27.31
355.48	15.02
355.692	25.26
355.903	12.97
356.115	37.55
356.326	-34.13
356.538	55.98
356.749	-1.37
356.961	78.51
357.172	-5.46
357.384	-44.37
357.595	51.88
357.807	8.87
358.018	25.26
358.23	21.16
358.441	8.87
358.653	21.16
358.864	-21.85
359.075	17.07
359.287	-30.04
359.498	27.31
359.709	27.31
359.921	-7.51
360.132	-9.56
360.344	4.78
360.555	-34.13
360.766	-13.65
360.977	-17.75
361.189	-85.33
361.4	12.97
361.611	19.11
361.823	64.17
362.034	49.83
362.245	47.79
362.456	12.97
362.667	31.4
362.879	66.22
363.09	10.92
363.301	41.64
363.512	12.97
363.723	-5.46
363.935	82.6
364.146	-30.04
364.357	37.55
364.568	27.31
364.779	74.41
364.99	31.4
365.201	-38.23
365.412	70.31
365.623	0.68
365.834	80.55
366.045	15.02
366.256	0.68
366.467	-27.99
366.678	43.69
366.889	2.73
367.1	0.68
367.311	-7.51
367.522	23.21
367.733	60.07
367.944	31.4
368.155	2.73
368.366	8.87
368.577	58.03
368.788	64.17
368.999	-3.41
369.209	-1.37
369.42	37.55
369.631	6.83
369.842	17.07
370.053	31.4
370.264	66.22
370.474	33.45
370.685	31.4
370.896	-5.46
371.107	2.73
371.317	68.27
371.528	39.59
371.739	72.36
371.95	10.92
372.16	72.36
372.371	-11.61
372.582	37.55
372.792	-11.61
373.003	19.11
373.214	64.17
373.424	-3.41
373.635	4.78
373.846	41.64
374.056	-11.61
374.267	-25.94
374.477	-21.85
374.688	-3.41
374.898	-17.75
375.109	23.21
375.319	21.16
375.53	-5.46
375.74	41.64
375.951	0.68
376.161	15.02
376.372	-21.85
376.582	51.88
376.793	70.31
377.003	-27.99
377.214	19.11
377.424	-3.41
377.635	0.68
377.845	29.35
378.055	47.79
378.266	-60.76
378.476	-44.37
378.686	-38.23
378.897	29.35
379.107	17.07
379.317	88.75
379.528	6.83
379.738	-25.94
379.948	29.35
380.158	33.45
380.369	12.97
380.579	-15.7
380.789	-64.85
380.999	-9.56
381.21	-5.46
381.42	-5.46
381.63	4.78
381.84	-13.65
382.05	29.35
382.261	17.07
382.471	17.07
382.681	-15.7
382.891	-27.99
383.101	-21.85
383.311	37.55
383.521	-21.85
383.731	-42.32
383.941	39.59
384.151	2.73
384.361	29.35
384.571	15.02
384.781	60.07
384.991	82.6
385.201	21.16
385.411	23.21
385.621	107.18
385.831	39.59
386.041	8.87
386.251	-17.75
386.461	29.35
386.671	-23.89
386.881	-7.51
387.091	39.59
387.301	10.92
387.511	66.22
387.72	60.07
387.93	35.5
388.14	21.16
388.35	-21.85
388.56	60.07
388.769	19.11
388.979	53.93
389.189	92.84
389.399	-87.38
389.609	53.93
389.818	33.45
390.028	37.55
390.238	21.16
390.447	17.07
390.657	76.46
390.867	47.79
391.076	-3.41
391.286	33.45
391.496	49.83
391.705	49.83
391.915	47.79
392.125	-23.89
392.334	-3.41
392.544	105.13
392.753	47.79
392.963	-19.8
393.172	35.5
393.382	15.02
393.591	-40.28
393.801	72.36
394.01	27.31
394.22	-5.46
394.429	43.69
394.639	-1.37
394.848	62.12
395.058	64.17
395.267	96.94
395.477	53.93
395.686	60.07
395.895	15.02
396.105	-5.46
396.314	-1.37
396.524	-11.61
396.733	45.74
396.942	80.55
397.152	45.74
397.361	-15.7
397.57	33.45
397.78	-21.85
397.989	70.31
398.198	76.46
398.407	-9.56
398.617	-1.37
398.826	2.73
399.035	162.47
399.244	33.45
399.453	103.08
399.663	92.84
399.872	60.07
400.081	21.16
400.29	8.87
400.499	66.22
400.708	86.7
400.917	-13.65
401.127	35.5
401.336	51.88
401.545	19.11
401.754	29.35
401.963	29.35
402.172	33.45
402.381	43.69
402.59	25.26
402.799	27.31
403.008	23.21
403.217	72.36
403.426	10.92
403.635	-21.85
403.844	39.59
404.053	29.35
404.262	76.46
404.471	60.07
404.68	66.22
404.888	70.31
405.097	60.07
405.306	41.64
405.515	103.08
405.724	109.22
405.933	53.93
406.142	43.69
406.35	84.65
406.559	66.22
406.768	137.9
406.977	58.03
407.185	94.89
407.394	60.07
407.603	144.04
407.812	119.46
408.02	49.83
408.229	178.86
408.438	21.16
408.646	119.46
408.855	43.69
409.064	187.05
409.272	105.13
409.481	135.85
409.69	152.23
409.898	92.84
410.107	68.27
410.315	125.61
410.524	121.51
410.733	123.56
410.941	174.76
411.15	185
411.358	160.42
411.567	197.29
411.775	152.23
411.984	178.86
412.192	223.91
412.401	279.21
412.609	156.33
412.818	236.2
413.026	211.62
413.234	217.77
413.443	180.9
413.651	205.48
413.86	299.69
414.068	252.58
414.276	248.49
414.485	264.87
414.693	336.55
414.901	268.97
415.11	268.97
415.318	297.64
415.526	285.35
415.734	289.45
415.943	297.64
416.151	385.7
416.359	297.64
416.567	311.97
416.776	307.88
416.984	387.75
417.192	369.32
417.4	383.65
417.608	389.8
417.817	400.04
418.025	428.71
418.233	430.76
418.441	516.77
418.649	453.28
418.857	510.63
419.065	551.59
419.273	596.64
419.481	510.63
419.689	653.98
419.897	696.99
420.105	707.23
420.313	731.81
420.521	735.9
420.729	715.42
420.937	692.9
421.145	864.93
421.353	737.95
421.561	813.73
421.769	852.64
421.977	907.93
422.185	877.21
422.393	952.99
422.601	981.66
422.809	1012.38
423.017	952.99
423.224	1022.62
423.432	1079.96
423.64	1039
423.848	1092.25
424.056	1178.26
424.263	1231.51
424.471	1280.66
424.679	1163.93
424.887	1288.86
425.094	1290.9
425.302	1374.87
425.51	1338.01
425.718	1450.64
425.925	1387.16
426.133	1557.14
426.341	1501.84
426.548	1774.22
426.756	1573.52
426.964	1739.41
427.171	1792.66
427.379	1839.76
427.586	1835.66
427.794	1909.39
428.001	2105.99
428.209	2091.66
428.417	2026.12
428.624	2069.13
428.832	2173.58
429.039	2192.01
429.247	2112.14
429.454	2417.29
429.662	2531.97
429.869	2431.62
430.076	2544.26
430.284	2450.05
430.491	2558.6
430.699	2763.39
430.906	2679.43
431.114	2787.97
431.321	2882.17
431.528	2902.65
431.736	3037.82
431.943	3299.96
432.15	3226.23
432.358	3123.84
432.565	3351.16
432.772	3408.5
432.979	3541.62
433.187	3689.07
433.394	3656.31
433.601	3803.76
433.808	4035.18
434.016	3877.49
434.223	4008.56
434.43	4354.66
434.637	4108.91
434.844	4586.08
435.052	4487.78
435.259	4403.82
435.466	4717.15
435.673	4532.84
435.88	4684.39
436.087	5038.69
436.294	5132.89
436.501	4960.86
436.708	5022.3
436.915	5311.07
437.122	5378.65
437.329	5499.48
437.537	5550.68
437.743	5718.61
437.95	5691.99
438.157	6009.42
438.364	6212.17
438.571	6240.84
438.778	6224.46
438.985	6818.37
439.192	6683.2
439.399	6593.09
439.606	6541.89
439.813	6982.21
440.02	7553.59
440.227	7273.02
440.433	7201.34
440.64	7330.36
440.847	7359.03
441.054	7694.9
441.261	8022.58
441.467	7985.71
441.674	8243.76
441.881	8352.3
442.088	8350.25
442.294	8194.61
442.501	8647.21
442.708	8471.08
442.914	9067.04
443.121	9517.59
443.328	9126.43
443.534	9847.32
443.741	9490.97
443.948	9364
444.154	10111.5
444.361	10146.32
444.568	10170.9
444.774	10174.99
444.981	10349.07
445.187	10566.15
445.394	11084.29
445.6	11088.39
445.807	11817.46
446.013	11383.29
446.22	11831.8
446.426	12110.32
446.633	12145.14
446.839	12720.62
447.046	12165.62
447.252	13009.38
447.459	13185.51
447.665	13025.76
447.871	13504.99
448.078	14098.9
448.284	13322.72
448.491	13883.86
448.697	14281.17
448.903	14674.38
449.11	14733.77
449.316	14778.83
449.522	14686.67
449.728	15096.26
449.935	15342.02
450.141	15362.5
450.347	15897.02
450.553	15188.42
450.76	15180.23
450.966	15964.6
451.172	15624.64
451.378	16191.92
451.584	15907.26
451.791	16275.89
451.997	16050.61
452.203	16681.39
452.409	16740.78
452.615	16415.15
452.821	15952.31
453.027	15813.05
453.233	16556.46
453.44	15944.12
453.646	16087.48
453.852	16183.73
454.058	16411.06
454.264	15821.24
454.47	16366
454.676	15735.23
454.882	16331.19
455.088	15014.34
455.294	15436.22
455.5	15337.92
455.705	15444.41
455.911	14930.37
456.117	14817.74
456.323	14408.14
456.529	13844.95
456.735	14234.07
456.941	14313.94
457.147	13685.21
457.352	13277.66
457.558	13230.56
457.764	13212.13
457.97	12964.32
458.176	12587.5
458.381	12536.3
458.587	12177.9
458.793	12157.43
458.999	11497.98
459.204	12327.41
459.41	12200.43
459.616	11151.87
459.821	11215.36
460.027	11012.61
460.233	10717.7
460.438	10480.14
460.644	10400.27
460.85	10033.68
461.055	9851.41
461.261	9886.23
461.466	9372.19
461.672	8792.61
461.878	9470.49
462.083	8876.58
462.289	8686.12
462.494	8550.95
462.7	8352.3
462.905	7914.03
463.111	8442.41
463.316	8241.71
463.522	8059.44
463.727	8145.45
463.932	8014.38
464.138	7860.79
464.343	8331.82
464.549	7948.85
464.754	8075.82
464.959	8079.92
465.165	8032.82
465.37	7678.52
465.575	7565.88
465.781	7735.86
465.986	7846.45
466.191	7399.99
466.397	7193.15
466.602	7109.18
466.807	7209.53
467.012	7436.86
467.218	7213.63
467.423	7109.18
467.628	7311.93
467.833	7486.01
468.038	7154.24
468.244	7053.89
468.449	7408.19
468.654	7193.15
468.859	7088.7
469.064	7164.48
469.269	6681.16
469.474	6982.21
469.679	7035.46
469.885	6777.41
470.09	6738.5
470.295	6777.41
470.5	6705.73
470.705	6801.99
470.91	6492.74
471.115	6652.49
471.32	6666.82
471.525	6629.96
471.73	6345.29
471.935	6419.02
472.139	6128.21
472.344	6312.52
472.549	6152.78
472.754	6246.99
472.959	6128.21
473.164	5816.91
473.369	5786.19
473.574	6013.52
473.778	5929.55
473.983	5798.48
474.188	5724.76
474.393	5628.5
474.598	5706.32
474.802	5544.53
475.007	5753.43
475.212	5476.95
475.417	5311.07
475.621	5448.28
475.826	5315.16
476.031	5286.49
476.235	5206.62
476.44	5294.68
476.645	5175.9
476.849	5126.75
477.054	5151.32
477.259	5096.03
477.463	5278.3
477.668	4964.96
477.872	4856.42
478.077	4934.24
478.282	4770.4
478.486	4745.83
478.691	4684.39
478.895	4733.54
479.1	4682.34
479.304	4649.57
479.509	4461.16
479.713	4694.63
479.918	4508.26
480.122	4332.14
480.326	4467.3
480.531	4635.24
480.735	4285.03
480.94	4352.62
481.144	4508.26
481.348	4489.83
481.553	4381.29
481.757	4381.29
481.961	4346.47
482.166	4381.29
482.37	4475.49
482.574	4358.76
482.778	4397.67
482.983	4502.12
483.187	4346.47
483.391	4414.06
483.595	4446.82
483.8	4381.29
484.004	4250.22
484.208	4407.91
484.412	4264.55
484.616	4471.4
484.821	4405.86
485.025	4381.29
485.229	4350.57
485.433	4369
485.637	4473.45
485.841	4514.41
486.045	4323.94
486.249	4397.67
486.453	4418.15
486.657	4530.79
486.861	4278.89
487.065	4313.7
487.269	4469.35
487.473	4244.07
487.677	4516.45
487.881	4463.21
488.085	4364.9
488.289	4510.31
488.493	4416.1
488.697	4477.54
488.901	4481.64
489.105	4463.21
489.309	4242.03
489.512	4479.59
489.716	4383.34
489.92	4563.56
490.124	4369
490.328	4618.85
490.531	4614.76
490.735	4635.24
490.939	4602.47
491.143	4455.01
491.346	4541.03
491.55	4735.59
491.754	4555.37
491.958	4813.41
492.161	4608.61
492.365	4553.32
492.569	4674.15
492.772	4713.06
492.976	4680.29
493.18	4797.03
493.383	4698.72
493.587	4876.9
493.79	4901.47
493.994	4901.47
494.197	4930.14
494.401	4983.39
494.605	5001.82
494.808	5098.08
495.012	4962.91
495.215	5120.6
495.419	5229.15
495.622	5169.76
495.825	5132.89
496.029	5268.06
496.232	5468.76
496.436	5368.41
496.639	5530.2
496.843	5337.69
497.046	5655.12
497.249	5565.01
497.453	5691.99
497.656	5872.21
497.859	5864.02
498.063	5765.71
498.266	5904.98
498.469	5827.15
498.673	6064.72
498.876	6095.44
499.079	6005.33
499.282	6093.39
499.485	6320.71
499.689	6380.11
499.892	6500.94
500.095	6367.82
500.298	6718.02
500.501	6582.85
500.705	6787.65
500.908	6971.97
501.111	6984.26
501.314	6873.67
501.517	7043.65
501.72	7041.6
501.923	7258.68
502.126	7268.92
502.329	7502.39
502.532	7305.79
502.735	7574.07
502.938	7625.27
503.141	7987.76
503.344	8008.24
503.547	7868.98
503.75	8098.35
503.953	8116.78
504.156	8282.67
504.359	8344.11
504.562	8233.52
504.765	8559.14
504.968	8632.87
505.17	8745.51
505.373	8622.63
505.576	9036.32
505.779	8948.26
505.982	9148.96
506.185	9351.71
506.387	9476.63
506.59	9482.78
506.793	9634.33
506.996	9726.49
507.198	10023.44
507.401	9685.53
507.604	10084.88
507.807	10185.23
508.009	10261.01
508.212	10586.63
508.415	10484.23
508.617	10578.44
508.82	10795.53
509.022	10775.05
509.225	10985.99
509.428	11037.19
509.63	11334.14
509.833	11440.64
510.035	11678.2
510.238	11547.13
510.44	11414.01
510.643	11901.43
510.845	11864.57
511.048	11911.67
511.25	12165.62
511.453	12337.65
511.655	12634.6
511.858	12581.35
512.06	12677.61
512.262	12890.6
512.465	12941.8
512.667	12978.66
512.87	13343.2
513.072	13330.91
513.274	13560.28
513.477	13892.05
513.679	13722.07
513.881	14008.79
514.084	14012.88
514.286	14330.32
514.488	14363.09
514.69	14758.35
514.893	14737.87
515.095	14739.91
515.297	14936.52
515.499	15014.34
515.701	15354.3
515.904	15542.72
516.106	15835.58
516.308	15911.35
516.51	15946.17
516.712	16071.09
516.914	16124.34
517.116	16538.03
517.318	16497.07
517.52	16660.91
517.722	16869.8
517.925	16927.14
518.127	17230.24
518.329	17299.87
518.531	17291.68
518.733	17715.61
518.935	17873.31
519.136	17824.15
519.338	18061.72
519.54	17992.09
519.742	18280.85
519.944	18721.17
520.146	18844.04
520.348	19362.18
520.55	19177.86
520.752	19091.85
520.954	19243.4
521.155	19386.75
521.357	19786.11
521.559	19712.38
521.761	20167.03
521.963	20078.97
522.164	20033.91
522.366	20513.14
522.568	20629.87
522.77	20611.44
522.971	21162.34
523.173	21021.03
523.375	20998.51
523.576	21326.18
523.778	21317.99
523.98	21557.6
524.181	21662.05
524.383	21698.91
524.584	21789.02
524.786	21868.89
524.988	21942.62
525.189	22497.62
525.391	22262.1
525.592	22497.62
525.794	22430.04
525.995	22436.18
526.197	22620.5
526.398	22776.14
526.6	23177.54
526.801	22612.31
527.003	23359.81
527.204	23161.16
527.406	23177.54
527.607	23402.82
527.808	23578.95
528.01	23105.87
528.211	23738.69
528.412	23976.25
528.614	23836.99
528.815	23744.83
529.016	24240.44
529.218	23814.46
529.419	23968.06
529.62	24267.06
529.822	23931.2
530.023	24244.54
530.224	24179
530.425	24125.75
530.626	24215.87
530.828	24236.34
531.029	24707.38
531.23	24242.49
531.431	24539.44
531.632	24385.85
531.833	25071.92
532.035	24828.21
532.236	24256.82
532.437	24871.22
532.638	24541.49
532.839	24707.38
533.04	24930.61
533.241	24652.08
533.442	25045.29
533.643	24758.58
533.844	24803.63
534.045	24850.74
534.246	24881.46
534.447	25047.34
534.648	24686.9
534.849	24707.38
535.05	24750.39
535.251	25245.99
535.451	24774.96
535.652	25200.94
535.853	24906.03
536.054	24971.57
536.255	24734
536.456	24693.04
536.657	25366.82
536.857	25139.5
537.058	24985.9
537.259	25293.1
537.46	25342.25
537.66	25063.72
537.861	24975.66
538.062	25035.05
538.263	24955.18
538.463	25166.12
538.664	25026.86
538.865	25125.16
539.065	25055.53
539.266	24951.09
539.466	25145.64
539.667	24627.51
539.868	25393.45
540.068	25127.21
540.269	24742.19
540.469	25291.05
540.67	24809.78
540.87	25233.71
541.071	24863.02
541.271	25221.42
541.472	24578.36
541.672	24906.03
541.873	25035.05
542.073	24539.44
542.274	25305.38
542.474	24713.52
542.675	24750.39
542.875	25354.54
543.075	25020.72
543.276	24260.92
543.476	25004.33
543.676	24895.79
543.877	25315.62
544.077	24875.31
544.277	24865.07
544.478	24768.82
544.678	24637.75
544.878	24893.74
545.078	25010.48
545.279	24828.21
545.479	24860.98
545.679	24965.42
545.879	24891.69
546.079	24809.78
546.28	24817.97
546.48	24752.43
546.68	24955.18
546.88	24996.14
547.08	24955.18
547.28	24869.17
547.48	24584.5
547.68	24717.62
547.88	24799.54
548.081	24717.62
548.281	24672.56
548.481	24541.49
548.681	25202.99
548.881	24987.95
549.081	24801.58
549.28	24746.29
549.48	24920.37
549.68	24367.41
549.88	25080.11
550.08	24924.46
550.28	24762.67
550.48	24832.3
550.68	25127.21
550.88	24676.66
551.08	24832.3
551.279	24803.63
551.479	24580.4
551.679	24860.98
551.879	24441.14
552.079	24996.14
552.278	24647.99
552.478	24719.67
552.678	24502.58
552.878	24742.19
553.077	24705.33
553.277	24535.35
553.477	25061.68
553.676	24365.37
553.876	24576.31
554.076	24641.84
554.275	24678.71
554.475	24279.35
554.674	24801.58
554.874	24660.27
555.074	24647.99
555.273	24580.4
555.473	24398.13
555.672	24209.72
555.872	24555.83
556.071	24406.33
556.271	24539.44
556.47	24185.15
556.67	23884.09
556.869	24109.37
557.068	24488.24
557.268	24146.23
557.467	24355.13
557.667	24418.61
557.866	24361.27
558.065	24332.6
558.265	23998.78
558.464	23771.46
558.663	24305.98
558.863	24006.97
559.062	24144.19
559.261	23939.39
559.461	24555.83
559.66	24107.32
559.859	23992.64
560.058	23908.67
560.258	24035.64
560.457	23576.9
560.656	23939.39
560.855	23859.52
561.054	23818.56
561.253	23609.67
561.453	23945.53
561.652	23718.21
561.851	23548.23
562.05	23693.63
562.249	23474.5
562.448	23679.3
562.647	23648.58
562.846	23333.19
563.045	23488.84
563.244	23304.52
563.443	23646.53
563.642	23253.32
563.841	23476.55
564.04	23183.69
564.239	23431.49
564.438	23241.03
564.637	23343.43
564.836	23345.48
565.035	23015.76
565.234	23167.31
565.432	22909.26
565.631	22890.83
565.83	22903.12
566.029	22606.16
566.228	22612.31
566.427	22397.27
566.625	22909.26
566.824	22636.88
567.023	22874.45
567.222	22081.88
567.42	22595.92
567.619	22301.01
567.818	22798.67
568.016	22251.86
568.215	22606.16
568.414	22636.88
568.612	22669.65
568.811	22419.8
569.01	22274.39
569.208	22118.75
569.407	22186.33
569.605	22028.63
569.804	22315.35
570.002	21696.86
570.201	21946.72
570.4	21680.48
570.598	21713.25
570.797	21592.42
570.995	21776.73
571.193	21342.57
571.392	21868.89
571.59	21451.11
571.789	21705.06
571.987	21522.79
572.186	21590.37
572.384	21207.4
572.582	21289.32
572.781	21461.35
572.979	20984.17
573.177	21100.9
573.376	21252.45
573.574	20957.55
573.772	21170.54
573.971	20752.75
574.169	20951.4
574.367	20771.18
574.565	20736.37
574.763	20670.83
574.962	20597.1
575.16	20324.72
575.358	20631.92
575.556	20449.65
575.754	20492.66
575.952	20410.74
576.151	20404.6
576.349	20187.51
576.547	20152.7
576.745	20425.07
576.943	20074.87
577.141	20527.47
577.339	20332.92
577.537	19847.55
577.735	19874.17
577.933	19851.64
578.131	20152.7
578.329	19831.16
578.527	19519.87
578.725	19739.01
578.923	19904.89
579.121	19956.09
579.319	19642.75
579.516	19507.58
579.714	19558.78
579.912	19771.77
580.11	19415.43
580.308	19415.43
580.506	19564.93
580.704	18915.72
580.901	19485.06
581.099	19061.13
581.297	19257.73
581.495	19126.66
581.692	19229.06
581.89	18942.35
582.088	19036.55
582.285	18749.84
582.483	18979.21
582.681	18811.28
582.878	18715.02
583.076	18497.94
583.274	18882.95
583.471	18389.39
583.669	18358.67
583.866	18299.28
584.064	18637.2
584.262	18219.41
584.459	18422.16
584.657	18229.65
584.854	18373.01
585.052	17893.79
585.249	18205.08
585.447	18098.58
585.644	17908.12
585.841	18178.45
586.039	17990.04
586.236	17928.6
586.434	18037.14
586.631	17686.94
586.828	17811.87
587.026	17901.98
587.223	17850.78
587.42	17496.48
587.618	17598.88
587.815	17473.95
588.012	17285.54
588.21	17301.92
588.407	17457.57
588.604	17445.28
588.801	17209.76
588.999	17058.21
589.196	17166.76
589.393	17115.56
589.59	17123.75
589.787	16837.03
589.984	16759.21
590.182	16638.38
590.379	16945.58
590.576	16857.51
590.773	17009.06
590.97	16683.44
591.167	16642.48
591.364	16495.02
591.561	16736.68
591.758	16333.23
591.955	16714.16
592.152	16558.51
592.349	16419.25
592.546	16431.54
592.743	16343.47
592.94	16320.95
593.137	16243.12
593.334	16484.78
593.531	16067
593.727	16351.67
593.924	16273.84
594.121	16173.49
594.318	16026.04
594.515	15935.93
594.712	16019.89
594.908	15722.94
595.105	15679.93
595.302	15833.53
595.499	16019.89
595.696	15724.99
595.892	15567.29
596.089	15628.73
596.286	15493.57
596.482	15526.33
596.679	15163.84
596.876	15428.03
597.072	15354.3
597.269	15382.98
597.466	15094.21
597.662	15264.19
597.859	15362.5
598.055	15272.39
598.252	15118.79
598.448	14807.5
598.645	14817.74
598.841	14922.18
599.038	14975.43
599.234	14850.5
599.431	14780.87
599.627	14733.77
599.824	14893.51
600.02	14668.23
600.217	14651.85
600.413	14428.62
600.609	14612.94
600.806	14445.01
601.002	14690.76
601.198	14315.98
601.395	14483.92
601.591	14270.93
601.787	14234.07
601.984	14150.1
602.18	14399.95
602.376	14358.99
602.572	14127.57
602.769	13957.59
602.965	14125.52
603.161	14350.8
603.357	14025.17
603.553	13760.98
603.75	14117.33
603.946	13769.18
604.142	13779.42
604.338	13685.21
604.534	13812.18
604.73	13423.07
604.926	13392.35
605.122	13556.19
605.318	13488.6
605.514	13525.47
605.71	13453.79
605.906	13670.87
606.102	13316.58
606.298	13412.83
606.494	13255.14
606.69	13160.93
606.886	13224.42
607.082	12929.51
607.278	13267.42
607.474	13007.33
607.67	13201.89
607.866	12941.8
608.062	13124.07
608.257	12968.42
608.453	12855.78
608.649	12986.85
608.845	12966.37
609.041	13027.81
609.236	12990.95
609.432	12806.63
609.628	12868.07
609.824	12792.3
610.019	12741.1
610.215	12679.66
610.411	12693.99
610.606	12681.71
610.802	12648.94
610.998	12700.14
611.193	12737
611.389	12722.66
611.584	12450.28
611.78	12427.76
611.976	12495.34
612.171	12368.37
612.367	12521.96
612.562	12315.12
612.758	12515.82
612.953	12288.5
613.149	12276.21
613.344	12227.06
613.539	12327.41
613.735	12382.7
613.93	12401.13
614.126	12100.08
614.321	12323.31
614.517	12022.26
614.712	12208.62
614.907	12118.51
615.103	12229.1
615.298	11966.96
615.493	12165.62
615.688	11870.71
615.884	12130.8
616.079	11960.82
616.274	11928.05
616.47	11729.4
616.665	11942.39
616.86	11794.93
617.055	11856.37
617.25	11604.47
617.445	11923.96
617.641	11731.45
617.836	11733.5
618.031	11543.03
618.226	11782.65
618.421	11692.54
618.616	11561.47
618.811	11352.57
619.006	11559.42
619.201	11303.42
619.396	11610.62
619.591	11000.32
619.786	11356.67
619.981	11045.38
620.176	11452.92
620.371	11000.32
620.566	11198.98
620.761	11123.2
620.956	11024.9
621.151	10824.2
621.346	10863.11
621.541	10603.02
621.735	10961.41
621.93	10775.05
622.125	10865.16
622.32	10592.78
622.515	10603.02
622.709	10553.87
622.904	10349.07
623.099	10342.92
623.294	10689.03
623.488	10242.57
623.683	10404.36
623.878	10127.89
624.072	10301.97
624.267	9988.63
624.462	9912.85
624.656	9990.67
624.851	9908.76
625.046	9837.08
625.24	9982.48
625.435	9730.58
625.629	9857.56
625.824	9624.09
626.018	9652.76
626.213	9407
626.407	9593.37
626.602	9423.39
626.796	9411.1
626.991	9466.39
627.185	9368.09
627.38	9343.52
627.574	9300.51
627.768	9073.18
627.963	9120.29
628.157	9298.46
628.352	9036.32
628.546	8778.28
628.74	8956.45
628.935	8841.76
629.129	8882.72
629.323	8790.56
629.517	8753.7
629.712	8700.45
629.906	8763.94
630.1	8649.25
630.294	8686.12
630.489	8589.86
630.683	8423.98
630.877	8532.52
631.071	8202.8
631.265	8524.33
631.459	8360.49
631.653	8256.04
631.848	8208.94
632.042	8170.03
632.236	8192.56
632.43	8165.93
632.624	7987.76
632.818	8141.36
633.012	7954.99
633.206	7836.21
633.4	8004.14
633.594	7731.76
633.788	7911.99
633.982	7875.12
634.176	7944.75
634.369	7760.44
634.563	7586.36
634.757	7653.94
634.951	7729.72
635.145	7592.5
635.339	7578.17
635.533	7526.97
635.726	7463.48
635.92	7367.23
636.114	7391.8
636.308	7295.55
636.501	7232.06
636.695	7295.55
636.889	7014.98
637.083	7334.46
637.276	7211.58
637.47	7168.57
637.664	7041.6
637.857	6943.3
638.051	7031.36
638.244	7010.88
638.438	6826.56
638.632	6971.97
638.825	6836.8
639.019	6842.95
639.212	6777.41
639.406	6629.96
639.599	6615.62
639.793	6675.01
639.986	6347.34
640.18	6533.7
640.373	6707.78
640.567	6615.62
640.76	6541.89
640.954	6427.21
641.147	6312.52
641.34	6431.3
641.534	6261.32
641.727	6255.18
641.92	6220.36
642.114	6064.72
642.307	6214.22
642.5	6126.16
642.694	6009.42
642.887	6027.85
643.08	6079.05
643.273	6027.85
643.467	5884.5
643.66	5966.42
643.853	5806.67
644.046	5818.96
644.239	5765.71
644.432	5874.26
644.626	5872.21
644.819	5835.35
645.012	5575.25
645.205	5646.93
645.398	5589.59
645.591	5501.53
645.784	5601.88
645.977	5522.01
646.17	5618.26
646.363	5522.01
646.556	5505.62
646.749	5376.6
646.942	5452.38
647.135	5419.61
647.328	5423.7
647.521	5337.69
647.714	5282.39
647.907	5282.39
648.099	5188.19
648.292	5286.49
648.485	5180
648.678	5071.45
648.871	5190.24
649.064	5057.12
649.256	5089.88
649.449	5081.69
649.642	5046.88
649.835	5110.36
650.027	4942.43
650.22	4821.6
650.413	4868.7
650.605	4823.65
650.798	4909.66
650.991	4805.22
651.183	4856.42
651.376	4721.25
651.568	4770.4
651.761	4655.72
651.954	4682.34
652.146	4733.54
652.339	4518.5
652.531	4545.13
652.724	4553.32
652.916	4522.6
653.109	4586.08
653.301	4481.64
653.494	4500.07
653.686	4412.01
653.879	4577.89
654.071	4371.05
654.263	4280.94
654.456	4536.93
654.648	4369
654.84	4231.79
655.033	4205.16
655.225	4205.16
655.417	4215.4
655.61	4143.72
655.802	4190.83
655.994	4145.77
656.186	4176.49
656.379	4190.83
656.571	4049.52
656.763	4002.41
656.955	3992.17
657.148	3971.69
657.34	3963.5
657.532	4045.42
657.724	3895.92
657.916	3781.23
658.108	3951.21
658.3	3893.87
658.492	3906.16
658.684	3775.09
658.876	3957.36
659.068	3816.05
659.26	3742.32
659.452	3779.18
659.644	3707.51
659.836	3662.45
660.028	3709.55
660.22	3613.3
660.412	3678.83
660.604	3517.05
660.796	3648.11
660.988	3484.28
661.18	3453.56
661.372	3508.85
661.563	3502.71
661.755	3502.71
661.947	3480.18
662.139	3439.22
662.331	3476.09
662.522	3351.16
662.714	3437.17
662.906	3328.63
663.097	3285.62
663.289	3277.43
663.481	3320.44
663.673	3267.19
663.864	3222.14
664.056	3250.81
664.247	3187.32
664.439	3132.03
664.631	3123.84
664.822	3283.58
665.014	3220.09
665.205	3129.98
665.397	3052.16
665.588	3140.22
665.78	3193.47
665.971	3148.41
666.163	3168.89
666.354	2990.72
666.546	2962.05
666.737	2943.61
666.929	2970.24
667.12	2953.85
667.311	2933.37
667.503	2912.89
667.694	2882.17
667.885	2828.93
668.077	2941.57
668.268	2859.65
668.459	2781.82
668.651	2886.27
668.842	2830.98
669.033	2839.17
669.224	2771.58
669.416	2771.58
669.607	2693.76
669.798	2681.47
669.989	2853.5
670.18	2816.64
670.371	2724.48
670.563	2624.13
670.754	2787.97
670.945	2757.25
671.136	2734.72
671.327	2796.16
671.518	2679.43
671.709	2714.24
671.9	2597.51
672.091	2599.56
672.282	2613.89
672.473	2632.32
672.664	2521.73
672.855	2716.29
673.046	2654.85
673.237	2660.99
673.428	2511.49
673.619	2560.64
673.809	2511.49
674	2558.6
674.191	2531.97
674.382	2558.6
674.573	2589.32
674.764	2517.64
674.954	2505.35
675.145	2476.68
675.336	2468.48
675.527	2468.48
675.717	2497.16
675.908	2355.85
676.099	2468.48
676.289	2452.1
676.48	2394.76
676.671	2343.56
676.861	2390.66
677.052	2341.51
677.243	2304.65
677.433	2372.23
677.624	2407.05
677.814	2366.09
678.005	2327.18
678.195	2372.23
678.386	2327.18
678.576	2343.56
678.767	2241.16
678.957	2372.23
679.148	2284.17
679.338	2312.84
679.529	2337.41
679.719	2169.48
679.909	2228.87
680.1	2304.65
680.29	2302.6
680.481	2220.68
680.671	2216.58
680.861	2253.45
681.052	2306.7
681.242	2359.94
681.432	2222.73
681.622	2278.02
681.813	2179.72
682.003	2220.68
682.193	2165.39
682.383	2351.75
682.573	2194.06
682.764	2232.97
682.954	2189.96
683.144	2267.78
683.334	2300.55
683.524	2255.5
683.714	2275.98
683.904	2208.39
684.094	2224.78
684.284	2194.06
684.474	2275.98
684.664	2218.63
684.854	2179.72
685.044	2151.05
685.234	2149
685.424	2116.23
685.614	2165.39
685.804	2187.91
685.994	2165.39
686.184	2235.02
686.374	2042.51
686.564	2275.98
686.753	2198.15
686.943	2038.41
687.133	2071.18
687.323	2054.8
687.513	2220.68
687.702	2075.28
687.892	2181.77
688.082	2005.64
688.272	2116.23
688.461	2058.89
688.651	2118.28
688.841	2114.19
689.03	2071.18
689.22	1987.21
689.41	1993.36
689.599	2042.51
689.789	2054.8
689.979	2038.41
690.168	2065.04
690.358	1989.26
690.547	2077.32
690.737	2142.86
690.926	1974.92
691.116	2001.55
691.305	2050.7
691.495	1972.88
691.684	1968.78
691.874	2124.43
692.063	1995.4
692.252	2044.56
692.442	2034.32
692.631	1968.78
692.82	1974.92
693.01	1893.01
693.199	1962.64
693.388	1903.25
693.578	1915.53
693.767	1872.53
693.956	1960.59
694.146	1944.2
694.335	1958.54
694.524	1927.82
694.713	2052.75
694.902	1899.15
695.092	1997.45
695.281	1946.25
695.47	1989.26
695.659	1866.38
695.848	1792.66
696.037	1899.15
696.226	1755.79
696.415	1854.09
696.604	1882.77
696.793	1876.62
696.982	1876.62
697.171	1976.97
697.36	1782.42
697.549	1878.67
697.738	1835.66
697.927	1946.25
698.116	1882.77
698.305	1821.33
698.494	1804.94
698.683	1913.49
698.872	1856.14
699.061	1888.91
699.25	1890.96
699.438	1872.53
699.627	1845.9
699.816	1829.52
700.005	1798.8
700.193	1835.66
700.382	1850
700.571	1903.25
700.76	1843.85
700.948	1868.43
701.137	1890.96
701.326	1827.47
701.514	1792.66
701.703	1804.94
701.892	1712.78
702.08	1790.61
702.269	1727.12
702.457	1718.93
702.646	1747.6
702.834	1798.8
703.023	1757.84
703.212	1735.31
703.4	1784.46
703.589	1772.18
703.777	1809.04
703.965	1737.36
704.154	1792.66
704.342	1784.46
704.531	1731.22
704.719	1788.56
704.907	1782.42
705.096	1667.73
705.284	1712.78
705.472	1772.18
705.661	1741.46
705.849	1766.03
706.037	1682.07
706.226	1729.17
706.414	1620.63
706.602	1663.63
706.79	1718.93
706.979	1677.97
707.167	1682.07
707.355	1581.71
707.543	1643.15
707.731	1594
707.919	1665.68
708.107	1702.54
708.296	1612.43
708.484	1669.78
708.672	1575.57
708.86	1634.96
709.048	1598.1
709.236	1604.24
709.424	1604.24
709.612	1692.3
709.8	1575.57
709.988	1583.76
710.176	1634.96
710.364	1675.92
710.551	1630.87
710.739	1475.22
710.927	1630.87
711.115	1587.86
711.303	1530.52
711.491	1507.99
711.679	1534.61
711.866	1499.8
712.054	1555.09
712.242	1475.22
712.43	1528.47
712.617	1561.23
712.805	1370.77
712.993	1561.23
713.181	1467.03
713.368	1550.99
713.556	1538.71
713.744	1555.09
713.931	1460.88
714.119	1464.98
714.306	1512.08
714.494	1563.28
714.682	1481.36
714.869	1608.34
715.057	1362.58
715.244	1393.3
715.432	1452.69
715.619	1505.94
715.807	1436.31
715.994	1481.36
716.182	1405.59
716.369	1460.88
716.556	1436.31
716.744	1460.88
716.931	1512.08
717.119	1540.76
717.306	1409.69
717.493	1432.21
717.681	1573.52
717.868	1354.39
718.055	1430.16
718.242	1405.59
718.43	1346.2
718.617	1356.44
718.804	1389.21
718.991	1381.01
719.179	1442.45
719.366	1370.77
719.553	1442.45
719.74	1354.39
719.927	1372.82
720.114	1372.82
720.301	1354.39
720.488	1354.39
720.676	1417.88
720.863	1274.52
721.05	1278.62
721.237	1362.58
721.424	1317.53
721.611	1362.58
721.798	1297.05
721.985	1346.2
722.172	1448.6
722.358	1354.39
722.545	1374.87
722.732	1325.72
722.919	1315.48
723.106	1301.14
723.293	1313.43
723.48	1274.52
723.667	1348.25
723.853	1282.71
724.04	1342.1
724.227	1360.53
724.414	1313.43
724.6	1264.28
724.787	1256.09
724.974	1223.32
725.161	1249.94
725.347	1266.33
725.534	1295
725.72	1247.9
725.907	1235.61
726.094	1239.7
726.28	1180.31
726.467	1282.71
726.653	1247.9
726.84	1231.51
727.027	1360.53
727.213	1200.79
727.4	1303.19
727.586	1225.37
727.773	1106.59
727.959	1256.09
728.145	1305.24
728.332	1276.57
728.518	1186.46
728.705	1196.7
728.891	1204.89
729.077	1276.57
729.264	1295
729.45	1254.04
729.636	1241.75
729.823	1225.37
730.009	1309.33
730.195	1268.38
730.382	1284.76
730.568	1276.57
730.754	1176.22
730.94	1182.36
731.126	1168.02
731.313	1290.9
731.499	1170.07
731.685	1192.6
731.871	1122.97
732.057	1188.5
732.243	1176.22
732.429	1217.18
732.615	1161.88
732.801	1208.98
732.987	1206.94
733.173	1165.98
733.359	1186.46
733.545	1180.31
733.731	1141.4
733.917	1127.07
734.103	1092.25
734.289	1188.5
734.475	1211.03
734.661	1184.41
734.847	1145.5
735.033	1190.55
735.219	1153.69
735.404	1116.83
735.59	1233.56
735.776	1135.26
735.962	1129.11
736.148	1200.79
736.333	1147.55
736.519	1147.55
736.705	1204.89
736.89	1118.87
737.076	1165.98
737.262	1090.2
737.447	1149.59
737.633	1071.77
737.819	1077.91
738.004	1125.02
738.19	1057.43
738.375	1163.93
738.561	1176.22
738.747	1180.31
738.932	1028.76
739.118	1118.87
739.303	1010.33
739.489	1108.63
739.674	1071.77
739.859	1112.73
740.045	1043.1
740.23	1063.58
740.416	1104.54
740.601	1082.01
740.786	1082.01
740.972	1090.2
741.157	1010.33
741.342	1026.72
741.528	1079.96
741.713	998.04
741.898	1088.15
742.084	1065.63
742.269	1155.74
742.454	1079.96
742.639	1061.53
742.824	1100.44
743.01	1045.15
743.195	1043.1
743.38	1116.83
743.565	1043.1
743.75	936.6
743.935	987.8
744.12	1020.57
744.305	940.7
744.49	969.37
744.675	993.95
744.86	1010.33
745.045	979.61
745.23	926.36
745.415	895.64
745.6	983.71
745.785	969.37
745.97	979.61
746.155	1008.28
746.34	985.76
746.525	905.88
746.71	922.27
746.895	918.17
747.079	955.04
747.264	914.08
747.449	938.65
747.634	959.13
747.819	830.11
748.003	905.88
748.188	838.3
748.373	875.17
748.557	940.7
748.742	866.97
748.927	877.21
749.111	848.54
749.296	901.79
749.481	885.41
749.665	791.2
749.85	850.59
750.034	864.93
750.219	776.86
750.404	826.01
750.588	944.8
750.773	797.34
750.957	871.07
751.141	897.69
751.326	848.54
751.51	727.71
751.695	746.14
751.879	836.25
752.064	817.82
752.248	770.72
752.432	842.4
752.617	807.58
752.801	791.2
752.985	740
753.17	823.97
753.354	748.19
753.538	813.73
753.722	750.24
753.907	748.19
754.091	731.81
754.275	748.19
754.459	715.42
754.643	633.51
754.828	793.25
755.012	717.47
755.196	760.48
755.38	760.48
755.564	617.12
755.748	653.98
755.932	649.89
756.116	653.98
756.3	686.75
756.484	688.8
756.668	658.08
756.852	582.31
757.036	707.23
757.22	617.12
757.404	651.94
757.588	582.31
757.772	688.8
757.956	637.6
758.14	672.42
758.323	645.79
758.507	582.31
758.691	613.03
758.875	619.17
759.059	580.26
759.242	649.89
759.426	588.45
759.61	541.35
759.794	617.12
759.977	543.39
760.161	649.89
760.345	625.31
760.528	653.98
760.712	547.49
760.895	576.16
761.079	602.79
761.263	510.63
761.446	588.45
761.63	518.82
761.813	559.78
761.997	543.39
762.18	594.59
762.364	584.35
762.547	576.16
762.731	504.48
762.914	537.25
763.098	584.35
763.281	498.34
763.464	578.21
763.648	576.16
763.831	553.63
764.015	594.59
764.198	488.1
764.381	543.39
764.564	613.03
764.748	563.87
764.931	561.83
765.114	561.83
765.297	512.67
765.481	502.43
765.664	461.48
765.847	467.62
766.03	617.12
766.213	516.77
766.397	570.02
766.58	498.34
766.763	434.85
766.946	486.05
767.129	445.09
767.312	504.48
767.495	461.48
767.678	428.71
767.861	541.35
768.044	475.81
768.227	445.09
768.41	445.09
768.593	463.52
768.776	486.05
768.959	432.8
769.142	494.24
769.324	354.98
769.507	504.48
769.69	549.54
769.873	510.63
770.056	510.63
770.239	449.19
770.421	434.85
770.604	438.95
770.787	438.95
770.97	414.37
771.152	424.61
771.335	473.76
771.518	395.94
771.7	395.94
771.883	504.48
772.066	393.89
772.248	445.09
772.431	428.71
772.613	455.33
772.796	447.14
772.978	441
773.161	387.75
773.343	367.27
773.526	445.09
773.708	391.84
773.891	395.94
774.073	416.42
774.256	350.89
774.438	397.99
774.621	379.56
774.803	408.23
774.985	436.9
775.168	397.99
775.35	299.69
775.532	412.32
775.715	416.42
775.897	387.75
776.079	322.21
776.261	451.24
776.444	367.27
776.626	387.75
776.808	307.88
776.99	402.08
777.173	402.08
777.355	338.6
777.537	338.6
777.719	342.69
777.901	289.45
778.083	354.98
778.265	332.45
778.447	322.21
778.629	385.7
778.811	359.08
778.993	359.08
779.175	367.27
779.357	322.21
779.539	381.6
779.721	264.87
779.903	309.93
780.085	354.98
780.267	371.37
780.449	295.59
780.631	283.3
780.812	291.49
780.994	275.11
781.176	164.52
781.358	318.12
781.54	258.73
781.721	260.77
781.903	287.4
782.085	219.82
782.267	232.1
782.448	334.5
782.63	250.53
782.812	242.34
782.993	225.96
783.175	350.89
783.357	238.25
783.538	277.16
783.72	248.49
783.901	262.82
784.083	340.65
784.264	289.45
784.446	289.45
784.627	332.45
784.809	244.39
784.99	232.1
785.172	230.06
785.353	309.93
785.535	234.15
785.716	273.06
785.897	250.53
786.079	178.86
786.26	217.77
786.441	268.97
786.623	182.95
786.804	170.66
786.985	262.82
787.167	176.81
787.348	240.3
787.529	205.48
787.71	291.49
787.891	240.3
788.073	283.3
788.254	232.1
788.435	178.86
788.616	135.85
788.797	191.14
788.978	199.34
789.159	172.71
789.34	160.42
789.522	225.96
789.703	191.14
789.884	217.77
790.065	240.3
790.246	201.38
790.427	207.53
790.607	182.95
790.788	211.62
790.969	182.95
791.15	193.19
791.331	150.18
791.512	182.95
791.693	96.94
791.874	182.95
792.054	195.24
792.235	178.86
792.416	115.37
792.597	211.62
792.778	135.85
792.958	168.62
793.139	109.22
793.32	156.33
793.5	141.99
793.681	158.38
793.862	115.37
794.042	96.94
794.223	172.71
794.404	131.75
794.584	154.28
794.765	178.86
794.945	115.37
795.126	207.53
795.306	137.9
795.487	187.05
795.667	129.7
795.848	137.9
796.028	144.04
796.209	150.18
796.389	207.53
796.57	166.57
796.75	105.13
796.93	168.62
797.111	109.22
797.291	146.09
797.471	158.38
797.652	150.18
797.832	144.04
798.012	178.86
798.192	180.9
798.373	158.38
798.553	113.32
798.733	150.18
798.913	113.32
799.093	158.38
799.274	94.89
799.454	90.79
799.634	92.84
799.814	107.18
799.994	123.56
800.174	160.42
800.354	125.61
800.534	103.08
800.714	103.08
800.894	158.38
801.074	103.08
801.254	51.88
801.434	96.94
801.614	64.17
801.794	101.03
801.974	342.69
802.154	185
802.334	111.27
802.514	113.32
802.693	135.85
802.873	43.69
803.053	221.86
803.233	113.32
803.413	98.99
803.592	103.08
803.772	96.94
803.952	92.84
804.131	74.41
804.311	117.42
804.491	109.22
804.67	86.7
804.85	84.65
805.03	115.37
805.209	121.51
805.389	96.94
805.568	117.42
805.748	94.89
805.928	62.12
806.107	154.28
806.287	90.79
806.466	101.03
806.646	96.94
806.825	98.99
807.004	37.55
807.184	119.46
807.363	150.18
807.543	64.17
807.722	76.46
807.901	101.03
808.081	127.66
808.26	25.26
808.439	111.27
808.619	133.8
808.798	160.42
808.977	60.07
809.156	182.95
809.336	141.99
809.515	101.03
809.694	94.89
809.873	125.61
810.052	51.88
810.231	101.03
810.411	121.51
810.59	53.93
810.769	78.51
810.948	94.89
811.127	53.93
811.306	74.41
811.485	43.69
811.664	68.27
811.843	23.21
812.022	47.79
812.201	23.21
812.38	45.74
812.559	76.46
812.737	58.03
812.916	35.5
813.095	119.46
813.274	76.46
813.453	125.61
813.632	74.41
813.811	115.37
813.989	154.28
814.168	131.75
814.347	68.27
814.526	107.18
814.704	58.03
814.883	25.26
815.062	82.6
815.24	74.41
815.419	19.11
815.598	113.32
815.776	51.88
815.955	109.22
816.133	53.93
816.312	156.33
816.49	-56.66
816.669	41.64
816.847	72.36
817.026	6.83
817.204	41.64
817.383	27.31
817.561	45.74
817.74	101.03
817.918	33.45
818.097	76.46
818.275	105.13
818.453	64.17
818.632	86.7
818.81	94.89
818.988	12.97
819.167	127.66
819.345	37.55
819.523	115.37
819.701	53.93
819.879	86.7
820.058	84.65
820.236	105.13
820.414	74.41
820.592	68.27
820.77	115.37
820.948	-40.28
821.127	90.79
821.305	60.07
821.483	19.11
821.661	125.61
821.839	72.36
822.017	53.93
822.195	39.59
822.373	70.31
822.551	92.84
822.729	60.07
822.907	4.78
823.085	25.26
823.262	12.97
823.44	35.5
823.618	4.78
823.796	60.07
823.974	86.7
824.152	-5.46
824.329	43.69
824.507	29.35
824.685	64.17
824.863	39.59
825.04	-44.37
825.218	84.65
825.396	29.35
825.574	64.17
825.751	-42.32
825.929	78.51
826.107	62.12
826.284	-9.56
826.462	41.64
826.639	25.26
826.817	-9.56
826.994	37.55
827.172	33.45
827.349	135.85
827.527	37.55
827.704	84.65
827.882	70.31
828.059	72.36
828.237	31.4
828.414	45.74
828.591	-7.51
828.769	43.69
828.946	90.79
829.124	55.98
829.301	66.22
829.478	78.51
829.655	103.08
829.833	43.69
830.01	2.73
830.187	53.93
830.364	25.26
830.542	86.7
830.719	43.69
830.896	31.4
831.073	82.6
831.25	15.02
831.427	31.4
831.604	64.17
831.782	78.51
831.959	45.74
832.136	19.11
832.313	70.31
832.49	-5.46
832.667	68.27
832.844	60.07
833.021	43.69
833.198	-3.41
833.374	6.83
833.551	39.59
833.728	-17.75
833.905	39.59
834.082	53.93
834.259	96.94
834.436	-44.37
834.612	-15.7
834.789	8.87
834.966	-71
835.143	74.41
835.319	-7.51
835.496	68.27
835.673	76.46
835.85	82.6
836.026	8.87
836.203	55.98
836.38	47.79
836.556	101.03
836.733	72.36
836.909	23.21
837.086	55.98
837.262	31.4
837.439	8.87
837.616	27.31
837.792	49.83
837.968	98.99
838.145	4.78
838.321	64.17
838.498	2.73
838.674	6.83
838.851	-15.7
839.027	58.03
839.203	-11.61
839.38	12.97
839.556	-9.56
839.732	51.88
839.909	68.27
840.085	-25.94
840.261	45.74
840.437	47.79
840.614	82.6
840.79	-19.8
840.966	55.98
841.142	29.35
841.318	-89.43
841.494	70.31
841.671	25.26
841.847	76.46
842.023	29.35
842.199	76.46
842.375	37.55
842.551	64.17
842.727	64.17
842.903	78.51
843.079	-19.8
843.255	-36.18
843.431	-15.7
843.607	49.83
843.783	-1.37
843.959	60.07
844.134	-13.65
844.31	19.11
844.486	58.03
844.662	78.51
844.838	76.46
845.013	17.07
845.189	66.22
845.365	27.31
845.541	58.03
845.716	-17.75
845.892	2.73
846.068	10.92
846.244	-27.99
846.419	92.84
846.595	4.78
846.77	17.07
846.946	12.97
847.122	21.16
847.297	43.69
847.473	19.11
847.648	-50.52
847.824	82.6
847.999	-3.41
848.175	62.12
848.35	15.02
848.526	12.97
848.701	-13.65
848.876	15.02
849.052	58.03
849.227	74.41
849.403	47.79
849.578	-13.65
849.753	-40.28
849.929	37.55
850.104	19.11
850.279	33.45
850.454	-21.85
850.63	17.07
850.805	29.35
850.98	10.92
851.155	-73.04
851.33	-21.85
851.505	-40.28
851.681	10.92
851.856	-40.28
852.031	-19.8
852.206	-13.65
852.381	70.31
852.556	78.51
852.731	-34.13
852.906	-21.85
853.081	-34.13
853.256	15.02
853.431	35.5
853.606	51.88
853.781	6.83
853.956	19.11
854.131	78.51
854.305	49.83
854.48	-11.61
854.655	6.83
854.83	21.16
855.005	6.83
855.18	21.16
855.354	-64.85
855.529	27.31
855.704	2.73
855.879	45.74
856.053	90.79
856.228	27.31
856.403	-54.61
856.577	49.83
856.752	41.64
856.926	66.22
857.101	-40.28
857.276	43.69
857.45	-23.89
857.625	12.97
857.799	-23.89
857.974	82.6
858.148	-3.41
858.323	8.87
858.497	-27.99
858.672	17.07
858.846	12.97
859.02	47.79
859.195	-5.46
859.369	51.88
859.543	-32.08
859.718	27.31
859.892	80.55
860.066	68.27
860.241	2.73
860.415	15.02
860.589	-15.7
860.763	39.59
860.938	-23.89
861.112	-5.46
861.286	-44.37
861.46	-27.99
861.634	84.65
861.808	37.55
861.982	12.97
862.157	6.83
862.331	31.4
862.505	-30.04
862.679	6.83
862.853	10.92
863.027	33.45
863.201	27.31
863.375	23.21
863.549	-21.85
863.722	45.74
863.896	49.83
864.07	17.07
864.244	-68.95
864.418	-7.51
864.592	17.07
864.766	51.88
864.939	27.31
865.113	-103.76
865.287	-13.65
865.461	-25.94
865.634	43.69
865.808	-17.75
865.982	29.35
866.156	-71
866.329	70.31
866.503	-21.85
866.676	-52.56
866.85	-42.32
867.024	31.4
867.197	-44.37
867.371	23.21
867.544	76.46
867.718	21.16
867.891	47.79
868.065	15.02
868.238	29.35
868.412	-27.99
868.585	74.41
868.759	-42.32
868.932	-32.08
869.105	15.02
869.279	4.78
869.452	4.78
869.625	47.79
869.799	45.74
869.972	-34.13
870.145	-40.28
870.319	-38.23
870.492	35.5
870.665	74.41
870.838	19.11
871.011	-44.37
871.185	-11.61
871.358	-27.99
871.531	-44.37
871.704	-23.89
871.877	6.83
872.05	0.68
872.223	109.22
872.396	92.84
872.569	27.31
872.742	-42.32
872.915	-9.56
873.088	-11.61
873.261	21.16
873.434	12.97
873.607	101.03
873.78	33.45
873.953	-48.47
874.126	17.07
874.299	-46.42
874.471	-73.04
874.644	-60.76
874.817	29.35
874.99	62.12
875.163	49.83
875.335	29.35
875.508	-21.85
875.681	35.5
875.853	12.97
876.026	-46.42
876.199	29.35
876.371	-25.94
876.544	-46.42
876.717	39.59
876.889	-38.23
877.062	25.26
877.234	-5.46
877.407	-21.85
877.579	8.87
877.752	29.35
877.924	6.83
878.097	41.64
878.269	-32.08
878.442	8.87
878.614	4.78
878.786	6.83
878.959	21.16
879.131	53.93
879.303	-27.99
879.476	37.55
879.648	51.88
879.82	60.07
879.993	-1.37
880.165	35.5
880.337	-46.42
880.509	-23.89
880.681	-27.99
880.854	21.16
881.026	-5.46
881.198	23.21
881.37	-13.65
881.542	-19.8
881.714	41.64
881.886	23.21
882.058	-13.65
882.23	19.11
882.402	4.78
882.574	-7.51
882.746	-15.7
882.918	68.27
883.09	-25.94
883.262	-64.85
883.434	-36.18
883.606	-23.89
883.778	43.69
883.95	55.98
884.122	19.11
884.293	0.68
884.465	23.21
884.637	23.21
884.809	25.26
884.98	29.35
885.152	-38.23
885.324	2.73
885.496	-27.99
885.667	-81.24
885.839	39.59
886.011	12.97
886.182	0.68
886.354	-44.37
886.525	-27.99
886.697	-38.23
886.869	6.83
887.04	-40.28
887.212	-5.46
887.383	15.02
887.555	47.79
887.726	27.31
887.897	-34.13
888.069	27.31
888.24	33.45
888.412	17.07
888.583	-9.56
888.754	-44.37
888.926	-27.99
889.097	-30.04
889.268	-19.8
889.44	-13.65
889.611	-54.61
889.782	21.16
889.953	-23.89
890.125	19.11
890.296	23.21
890.467	17.07
890.638	41.64
890.809	6.83
890.98	-34.13
891.151	-11.61
891.323	0.68
891.494	10.92
891.665	-30.04
891.836	39.59
892.007	0.68
892.178	6.83
892.349	113.32
892.52	6.83
892.691	-19.8
892.862	-19.8
893.032	0.68
893.203	-7.51
893.374	-3.41
893.545	12.97
893.716	12.97
893.887	12.97
894.057	-30.04
894.228	-13.65
894.399	-13.65
894.57	27.31
894.74	-27.99
894.911	0.68
895.082	19.11
895.253	35.5
895.423	31.4
895.594	25.26
895.764	-60.76
895.935	4.78
896.106	-50.52
896.276	-21.85
896.447	86.7
896.617	31.4
896.788	15.02
896.958	10.92
897.129	-40.28
897.299	43.69
897.47	21.16
897.64	10.92
897.81	10.92
897.981	-9.56
898.151	10.92
898.322	-19.8
898.492	39.59
898.662	-50.52
898.832	-34.13
899.003	-68.95
899.173	49.83
899.343	-19.8
899.513	19.11
