Data from USB4F104151__69__12-59-36-262.txt Node

Date: Fri Mar 14 12:59:36 EDT 2025
User: louis
Spectrometer: USB4F10415
Trigger mode: 4
Integration Time (sec): 1.000000E-2
Scans to average: 1
Electric dark correction enabled: true
Nonlinearity correction enabled: false
Boxcar width: 0
XAxis mode: Wavelengths
Number of Pixels in Spectrum: 3648
>>>>>Begin Spectral Data<<<<<
178.204	-51.2
178.424	-51.2
178.644	-51.2
178.864	-30.72
179.084	-4.1
179.304	-47.1
179.524	12.29
179.744	-4.1
179.964	-40.96
180.184	-8.19
180.404	20.48
180.624	-18.43
180.844	61.44
181.064	-0
181.283	16.38
181.503	16.38
181.723	-8.19
181.943	-40.96
182.163	43.01
182.383	-2.05
182.602	49.15
182.822	-24.58
183.042	24.58
183.262	-30.72
183.482	22.53
183.701	-8.19
183.921	2.05
184.141	61.44
184.361	16.38
184.58	49.15
184.8	12.29
185.02	-30.72
185.239	16.38
185.459	16.38
185.679	12.29
185.898	-10.24
186.118	38.91
186.338	-20.48
186.557	65.53
186.777	24.58
186.997	22.53
187.216	-59.39
187.436	75.77
187.655	-63.49
187.875	-20.48
188.095	18.43
188.314	18.43
188.534	14.34
188.753	6.14
188.973	4.1
189.192	-34.82
189.412	-14.34
189.631	81.92
189.851	-20.48
190.07	57.34
190.29	-6.14
190.509	-38.91
190.729	-14.34
190.948	43.01
191.168	28.67
191.387	102.4
191.607	90.11
191.826	45.06
192.045	-4.1
192.265	24.58
192.484	36.86
192.704	12.29
192.923	-0
193.142	-20.48
193.362	18.43
193.581	57.34
193.8	53.25
194.02	-24.58
194.239	18.43
194.458	34.82
194.678	-24.58
194.897	61.44
195.116	8.19
195.335	6.14
195.555	-12.29
195.774	45.06
195.993	20.48
196.212	40.96
196.432	-55.3
196.651	-34.82
196.87	57.34
197.089	-8.19
197.308	57.34
197.528	43.01
197.747	-8.19
197.966	12.29
198.185	12.29
198.404	-40.96
198.623	-20.48
198.842	24.58
199.062	67.58
199.281	-24.58
199.5	-8.19
199.719	24.58
199.938	-26.62
200.157	24.58
200.376	-45.06
200.595	65.53
200.814	-8.19
201.033	6.14
201.252	26.62
201.471	2.05
201.69	-24.58
201.909	26.62
202.128	61.44
202.347	-6.14
202.566	-2.05
202.785	20.48
203.004	-45.06
203.223	75.77
203.442	-0
203.661	18.43
203.879	2.05
204.098	-8.19
204.317	-12.29
204.536	59.39
204.755	14.34
204.974	51.2
205.193	28.67
205.411	12.29
205.63	-20.48
205.849	43.01
206.068	-18.43
206.287	65.53
206.505	-30.72
206.724	-8.19
206.943	12.29
207.162	47.1
207.381	112.64
207.599	16.38
207.818	18.43
208.037	40.96
208.255	-6.14
208.474	57.34
208.693	-22.53
208.911	16.38
209.13	-12.29
209.349	-8.19
209.567	47.1
209.786	-6.14
210.005	30.72
210.223	40.96
210.442	-30.72
210.661	22.53
210.879	40.96
211.098	4.1
211.316	51.2
211.535	8.19
211.753	-45.06
211.972	8.19
212.191	-14.34
212.409	-20.48
212.628	28.67
212.846	-28.67
213.065	8.19
213.283	53.25
213.502	-83.97
213.72	71.68
213.938	22.53
214.157	-36.86
214.375	14.34
214.594	22.53
214.812	6.14
215.031	49.15
215.249	36.86
215.467	32.77
215.686	36.86
215.904	-2.05
216.122	16.38
216.341	6.14
216.559	57.34
216.778	10.24
216.996	79.87
217.214	-24.58
217.432	28.67
217.651	-30.72
217.869	10.24
218.087	-18.43
218.306	-57.34
218.524	43.01
218.742	-32.77
218.96	2.05
219.179	43.01
219.397	81.92
219.615	96.25
219.833	40.96
220.051	12.29
220.27	32.77
220.488	30.72
220.706	10.24
220.924	22.53
221.142	65.53
221.36	-6.14
221.578	12.29
221.796	73.73
222.015	-6.14
222.233	16.38
222.451	63.49
222.669	28.67
222.887	28.67
223.105	-38.91
223.323	-20.48
223.541	36.86
223.759	22.53
223.977	-28.67
224.195	22.53
224.413	2.05
224.631	139.26
224.849	10.24
225.067	69.63
225.285	90.11
225.503	-24.58
225.721	-6.14
225.939	51.2
226.157	6.14
226.375	18.43
226.592	-26.62
226.81	34.82
227.028	22.53
227.246	38.91
227.464	18.43
227.682	49.15
227.9	-2.05
228.117	6.14
228.335	79.87
228.553	28.67
228.771	-40.96
228.989	49.15
229.206	131.07
229.424	4.1
229.642	49.15
229.86	2.05
230.077	-112.64
230.295	59.39
230.513	-73.73
230.731	34.82
230.948	16.38
231.166	-18.43
231.384	-26.62
231.601	-18.43
231.819	51.2
232.037	55.3
232.254	-2.05
232.472	34.82
232.689	-10.24
232.907	57.34
233.125	24.58
233.342	14.34
233.56	22.53
233.777	-20.48
233.995	-16.38
234.213	18.43
234.43	16.38
234.648	14.34
234.865	16.38
235.083	30.72
235.3	86.01
235.518	-16.38
235.735	12.29
235.953	45.06
236.17	43.01
236.388	-61.44
236.605	59.39
236.822	36.86
237.04	57.34
237.257	32.77
237.475	18.43
237.692	-6.14
237.909	-57.34
238.127	20.48
238.344	-40.96
238.562	20.48
238.779	32.77
238.996	4.1
239.214	32.77
239.431	40.96
239.648	8.19
239.865	2.05
240.083	-49.15
240.3	-24.58
240.517	28.67
240.735	-10.24
240.952	6.14
241.169	81.92
241.386	-8.19
241.603	55.3
241.821	-43.01
242.038	28.67
242.255	-22.53
242.472	18.43
242.689	-8.19
242.907	-65.54
243.124	-16.38
243.341	-38.91
243.558	2.05
243.775	-16.38
243.992	73.73
244.209	30.72
244.426	45.06
244.643	-18.43
244.86	18.43
245.078	-12.29
245.295	30.72
245.512	43.01
245.729	16.38
245.946	16.38
246.163	40.96
246.38	-16.38
246.597	2.05
246.814	26.62
247.031	26.62
247.248	36.86
247.464	90.11
247.681	53.25
247.898	28.67
248.115	59.39
248.332	69.63
248.549	69.63
248.766	38.91
248.983	32.77
249.2	-0
249.417	16.38
249.633	16.38
249.85	-28.67
250.067	10.24
250.284	-36.86
250.501	-36.86
250.717	43.01
250.934	-34.82
251.151	79.87
251.368	73.73
251.585	-0
251.801	-2.05
252.018	49.15
252.235	30.72
252.451	-8.19
252.668	-73.73
252.885	-38.91
253.102	57.34
253.318	26.62
253.535	-16.38
253.752	-16.38
253.968	26.62
254.185	4.1
254.401	10.24
254.618	12.29
254.835	26.62
255.051	57.34
255.268	-43.01
255.484	24.58
255.701	-22.53
255.917	139.26
256.134	40.96
256.351	81.92
256.567	28.67
256.784	57.34
257	-49.15
257.217	-16.38
257.433	-18.43
257.65	94.21
257.866	-49.15
258.082	-34.82
258.299	-20.48
258.515	45.06
258.732	40.96
258.948	-14.34
259.165	55.3
259.381	20.48
259.597	40.96
259.814	51.2
260.03	-51.2
260.246	73.73
260.463	88.06
260.679	40.96
260.895	30.72
261.112	16.38
261.328	-79.87
261.544	26.62
261.761	18.43
261.977	-12.29
262.193	-18.43
262.409	40.96
262.626	14.34
262.842	-8.19
263.058	57.34
263.274	92.16
263.49	-8.19
263.707	24.58
263.923	26.62
264.139	-24.58
264.355	40.96
264.571	14.34
264.787	-26.62
265.004	57.34
265.22	2.05
265.436	45.06
265.652	28.67
265.868	-0
266.084	-16.38
266.3	-24.58
266.516	24.58
266.732	-16.38
266.948	-2.05
267.164	22.53
267.38	63.49
267.596	2.05
267.812	61.44
268.028	59.39
268.244	-22.53
268.46	-2.05
268.676	-16.38
268.892	36.86
269.108	2.05
269.324	16.38
269.54	20.48
269.756	14.34
269.972	81.92
270.188	-20.48
270.403	34.82
270.619	67.58
270.835	38.91
271.051	34.82
271.267	-0
271.483	20.48
271.698	-8.19
271.914	-53.25
272.13	-32.77
272.346	45.06
272.562	-16.38
272.777	-2.05
272.993	55.3
273.209	47.1
273.425	28.67
273.64	106.49
273.856	10.24
274.072	-20.48
274.287	-0
274.503	43.01
274.719	18.43
274.934	40.96
275.15	-4.1
275.366	47.1
275.581	30.72
275.797	14.34
276.012	-0
276.228	-26.62
276.444	98.3
276.659	-22.53
276.875	2.05
277.09	-53.25
277.306	-55.3
277.521	90.11
277.737	-16.38
277.952	18.43
278.168	-0
278.383	-24.58
278.599	-4.1
278.814	-2.05
279.03	118.78
279.245	16.38
279.461	-36.86
279.676	-2.05
279.892	-36.86
280.107	-8.19
280.322	-22.53
280.538	135.17
280.753	2.05
280.969	-4.1
281.184	10.24
281.399	2.05
281.615	81.92
281.83	10.24
282.045	12.29
282.26	-2.05
282.476	6.14
282.691	20.48
282.906	-18.43
283.122	126.97
283.337	-45.06
283.552	45.06
283.767	71.68
283.983	6.14
284.198	22.53
284.413	55.3
284.628	57.34
284.843	-8.19
285.058	77.82
285.274	-8.19
285.489	24.58
285.704	28.67
285.919	63.49
286.134	45.06
286.349	43.01
286.564	-43.01
286.779	40.96
286.995	-4.1
287.21	-8.19
287.425	-14.34
287.64	-0
287.855	40.96
288.07	-34.82
288.285	47.1
288.5	10.24
288.715	47.1
288.93	6.14
289.145	6.14
289.36	-8.19
289.575	30.72
289.79	-16.38
290.004	10.24
290.219	4.1
290.434	-28.67
290.649	10.24
290.864	-24.58
291.079	-47.1
291.294	-22.53
291.509	28.67
291.724	36.86
291.938	-22.53
292.153	47.1
292.368	-4.1
292.583	4.1
292.798	77.82
293.012	-4.1
293.227	-45.06
293.442	-51.2
293.657	2.05
293.871	-40.96
294.086	18.43
294.301	45.06
294.516	14.34
294.73	36.86
294.945	18.43
295.16	-71.68
295.374	-28.67
295.589	36.86
295.804	40.96
296.018	10.24
296.233	24.58
296.447	32.77
296.662	-36.86
296.877	26.62
297.091	28.67
297.306	-10.24
297.52	12.29
297.735	51.2
297.949	2.05
298.164	-14.34
298.378	30.72
298.593	12.29
298.807	-14.34
299.022	-16.38
299.236	-4.1
299.451	-18.43
299.665	61.44
299.88	14.34
300.094	-8.19
300.309	24.58
300.523	34.82
300.737	110.59
300.952	10.24
301.166	8.19
301.381	32.77
301.595	24.58
301.809	8.19
302.024	10.24
302.238	-16.38
302.452	24.58
302.667	43.01
302.881	28.67
303.095	8.19
303.309	40.96
303.524	22.53
303.738	8.19
303.952	-14.34
304.166	22.53
304.381	-4.1
304.595	28.67
304.809	20.48
305.023	6.14
305.237	-38.91
305.452	10.24
305.666	34.82
305.88	22.53
306.094	67.58
306.308	-2.05
306.522	-38.91
306.736	-30.72
306.95	10.24
307.164	18.43
307.379	36.86
307.593	47.1
307.807	73.73
308.021	8.19
308.235	38.91
308.449	8.19
308.663	-28.67
308.877	18.43
309.091	124.93
309.305	10.24
309.519	-18.43
309.733	12.29
309.947	32.77
310.161	69.63
310.374	88.06
310.588	94.21
310.802	12.29
311.016	43.01
311.23	22.53
311.444	-2.05
311.658	16.38
311.872	47.1
312.085	-24.58
312.299	38.91
312.513	61.44
312.727	-16.38
312.941	24.58
313.154	-10.24
313.368	57.34
313.582	55.3
313.796	-24.58
314.009	2.05
314.223	24.58
314.437	-2.05
314.651	22.53
314.864	45.06
315.078	-36.86
315.292	51.2
315.505	-36.86
315.719	-12.29
315.933	14.34
316.146	40.96
316.36	38.91
316.573	61.44
316.787	26.62
317.001	24.58
317.214	34.82
317.428	24.58
317.641	-14.34
317.855	2.05
318.068	-16.38
318.282	10.24
318.495	61.44
318.709	-26.62
318.922	55.3
319.136	34.82
319.349	14.34
319.563	-12.29
319.776	-40.96
319.99	30.72
320.203	24.58
320.417	-24.58
320.63	51.2
320.843	38.91
321.057	8.19
321.27	-12.29
321.483	-16.38
321.697	47.1
321.91	-14.34
322.124	-43.01
322.337	-28.67
322.55	43.01
322.763	32.77
322.977	47.1
323.19	38.91
323.403	26.62
323.617	6.14
323.83	-16.38
324.043	4.1
324.256	71.68
324.469	16.38
324.683	36.86
324.896	-0
325.109	20.48
325.322	34.82
325.535	45.06
325.748	45.06
325.962	-24.58
326.175	-20.48
326.388	-24.58
326.601	34.82
326.814	-38.91
327.027	-10.24
327.24	38.91
327.453	34.82
327.666	-6.14
327.879	12.29
328.092	-30.72
328.305	-26.62
328.518	-10.24
328.731	59.39
328.944	16.38
329.157	47.1
329.37	-4.1
329.583	-63.49
329.796	94.21
330.009	32.77
330.222	36.86
330.435	-28.67
330.648	47.1
330.861	-24.58
331.073	69.63
331.286	20.48
331.499	55.3
331.712	49.15
331.925	-43.01
332.138	63.49
332.35	43.01
332.563	14.34
332.776	-4.1
332.989	-28.67
333.202	20.48
333.414	30.72
333.627	-36.86
333.84	6.14
334.053	32.77
334.265	32.77
334.478	34.82
334.691	96.25
334.903	16.38
335.116	12.29
335.329	-22.53
335.541	32.77
335.754	106.49
335.966	20.48
336.179	22.53
336.392	100.35
336.604	-10.24
336.817	12.29
337.029	-30.72
337.242	-51.2
337.454	38.91
337.667	36.86
337.88	8.19
338.092	-4.1
338.305	24.58
338.517	49.15
338.729	90.11
338.942	-36.86
339.154	-45.06
339.367	24.58
339.579	63.49
339.792	32.77
340.004	34.82
340.217	-36.86
340.429	38.91
340.641	2.05
340.854	-18.43
341.066	30.72
341.278	49.15
341.491	24.58
341.703	77.82
341.915	22.53
342.128	-6.14
342.34	-8.19
342.552	-30.72
342.764	28.67
342.977	-43.01
343.189	8.19
343.401	51.2
343.613	-61.44
343.826	-0
344.038	2.05
344.25	57.34
344.462	-8.19
344.674	45.06
344.886	28.67
345.099	-40.96
345.311	-10.24
345.523	24.58
345.735	-8.19
345.947	38.91
346.159	-47.1
346.371	-0
346.583	4.1
346.795	104.45
347.007	73.73
347.219	6.14
347.431	34.82
347.643	51.2
347.855	10.24
348.067	114.69
348.279	-4.1
348.491	69.63
348.703	-6.14
348.915	32.77
349.127	-40.96
349.339	10.24
349.551	-2.05
349.763	-36.86
349.975	-26.62
350.187	2.05
350.399	45.06
350.61	16.38
350.822	-30.72
351.034	69.63
351.246	40.96
351.458	65.53
351.669	65.53
351.881	67.58
352.093	-22.53
352.305	81.92
352.517	-18.43
352.728	8.19
352.94	-4.1
353.152	4.1
353.363	57.34
353.575	53.25
353.787	92.16
353.999	47.1
354.21	-49.15
354.422	34.82
354.633	112.64
354.845	-0
355.057	55.3
355.268	108.54
355.48	83.97
355.692	4.1
355.903	18.43
356.115	36.86
356.326	14.34
356.538	86.01
356.749	20.48
356.961	49.15
357.172	-92.16
357.384	-49.15
357.595	22.53
357.807	-4.1
358.018	-28.67
358.23	-65.54
358.441	32.77
358.653	16.38
358.864	53.25
359.075	4.1
359.287	69.63
359.498	34.82
359.709	75.77
359.921	12.29
360.132	36.86
360.344	-20.48
360.555	40.96
360.766	16.38
360.977	34.82
361.189	28.67
361.4	6.14
361.611	65.53
361.823	63.49
362.034	26.62
362.245	24.58
362.456	8.19
362.667	4.1
362.879	22.53
363.09	-22.53
363.301	-26.62
363.512	10.24
363.723	24.58
363.935	-43.01
364.146	98.3
364.357	18.43
364.568	-16.38
364.779	22.53
364.99	34.82
365.201	26.62
365.412	12.29
365.623	14.34
365.834	-4.1
366.045	34.82
366.256	-26.62
366.467	28.67
366.678	73.73
366.889	-4.1
367.1	12.29
367.311	-4.1
367.522	-2.05
367.733	-22.53
367.944	57.34
368.155	24.58
368.366	59.39
368.577	10.24
368.788	51.2
368.999	20.48
369.209	16.38
369.42	108.54
369.631	53.25
369.842	38.91
370.053	-36.86
370.264	-2.05
370.474	-55.3
370.685	86.01
370.896	49.15
371.107	38.91
371.317	-20.48
371.528	6.14
371.739	16.38
371.95	59.39
372.16	20.48
372.371	14.34
372.582	16.38
372.792	59.39
373.003	12.29
373.214	55.3
373.424	43.01
373.635	-2.05
373.846	24.58
374.056	-20.48
374.267	18.43
374.477	-2.05
374.688	8.19
374.898	-14.34
375.109	59.39
375.319	38.91
375.53	73.73
375.74	-2.05
375.951	6.14
376.161	2.05
376.372	106.49
376.582	61.44
376.793	137.21
377.003	-4.1
377.214	8.19
377.424	8.19
377.635	-28.67
377.845	-32.77
378.055	26.62
378.266	-30.72
378.476	-57.34
378.686	-45.06
378.897	12.29
379.107	51.2
379.317	18.43
379.528	77.82
379.738	-20.48
379.948	-16.38
380.158	4.1
380.369	-10.24
380.579	14.34
380.789	-32.77
380.999	59.39
381.21	118.78
381.42	45.06
381.63	8.19
381.84	40.96
382.05	2.05
382.261	73.73
382.471	-30.72
382.681	34.82
382.891	-53.25
383.101	57.34
383.311	57.34
383.521	12.29
383.731	14.34
383.941	-8.19
384.151	-4.1
384.361	4.1
384.571	38.91
384.781	49.15
384.991	28.67
385.201	-8.19
385.411	28.67
385.621	-12.29
385.831	-40.96
386.041	-20.48
386.251	32.77
386.461	8.19
386.671	71.68
386.881	8.19
387.091	28.67
387.301	16.38
387.511	12.29
387.72	24.58
387.93	-6.14
388.14	24.58
388.35	30.72
388.56	75.77
388.769	57.34
388.979	45.06
389.189	73.73
389.399	-75.77
389.609	12.29
389.818	57.34
390.028	24.58
390.238	16.38
390.447	-14.34
390.657	16.38
390.867	-2.05
391.076	-30.72
391.286	28.67
391.496	45.06
391.705	30.72
391.915	24.58
392.125	-10.24
392.334	61.44
392.544	34.82
392.753	30.72
392.963	-22.53
393.172	22.53
393.382	-6.14
393.591	65.53
393.801	-71.68
394.01	34.82
394.22	81.92
394.429	71.68
394.639	-22.53
394.848	47.1
395.058	4.1
395.267	57.34
395.477	88.06
395.686	53.25
395.895	71.68
396.105	10.24
396.314	65.53
396.524	79.87
396.733	-4.1
396.942	51.2
397.152	26.62
397.361	24.58
397.57	43.01
397.78	2.05
397.989	-4.1
398.198	16.38
398.407	67.58
398.617	59.39
398.826	26.62
399.035	38.91
399.244	16.38
399.453	16.38
399.663	-10.24
399.872	28.67
400.081	10.24
400.29	-24.58
400.499	-32.77
400.708	90.11
400.917	47.1
401.127	32.77
401.336	20.48
401.545	77.82
401.754	2.05
401.963	8.19
402.172	20.48
402.381	24.58
402.59	30.72
402.799	155.65
403.008	75.77
403.217	30.72
403.426	-6.14
403.635	16.38
403.844	59.39
404.053	53.25
404.262	-16.38
404.471	57.34
404.68	-14.34
404.888	8.19
405.097	24.58
405.306	18.43
405.515	12.29
405.724	57.34
405.933	32.77
406.142	22.53
406.35	131.07
406.559	61.44
406.768	67.58
406.977	120.83
407.185	75.77
407.394	57.34
407.603	88.06
407.812	133.12
408.02	40.96
408.229	59.39
408.438	16.38
408.646	73.73
408.855	77.82
409.064	114.69
409.272	153.6
409.481	129.02
409.69	49.15
409.898	36.86
410.107	81.92
410.315	81.92
410.524	63.49
410.733	110.59
410.941	77.82
411.15	59.39
411.358	108.54
411.567	145.41
411.775	137.21
411.984	96.25
412.192	71.68
412.401	73.73
412.609	59.39
412.818	133.12
413.026	71.68
413.234	92.16
413.443	122.88
413.651	184.32
413.86	139.26
414.068	165.89
414.276	167.93
414.485	198.65
414.693	182.27
414.901	219.13
415.11	180.22
415.318	221.18
415.526	180.22
415.734	223.23
415.943	188.41
416.151	182.27
416.359	249.85
416.567	184.32
416.776	229.37
416.984	270.33
417.192	215.04
417.4	178.17
417.608	251.9
417.817	200.7
418.025	288.76
418.233	309.24
418.441	354.3
418.649	323.58
418.857	296.96
419.065	346.11
419.273	280.57
419.481	323.58
419.689	299
419.897	342.01
420.105	282.62
420.313	385.02
420.521	360.44
420.729	475.13
420.937	385.02
421.145	413.69
421.353	524.28
421.561	477.18
421.769	473.08
421.977	528.38
422.185	497.66
422.393	540.66
422.601	516.09
422.809	555
423.017	550.9
423.224	610.29
423.432	669.69
423.64	602.1
423.848	583.67
424.056	581.62
424.263	714.74
424.471	673.78
424.679	755.7
424.887	706.55
425.094	788.47
425.302	892.91
425.51	786.42
425.718	782.32
425.925	772.08
426.133	823.28
426.341	983.02
426.548	892.91
426.756	966.64
426.964	999.41
427.171	985.07
427.379	1089.52
427.586	1044.46
427.794	1056.75
428.001	1114.09
428.209	1148.91
428.417	1073.14
428.624	1220.59
428.832	1206.25
429.039	1257.45
429.247	1255.4
429.454	1366
429.662	1476.59
429.869	1370.09
430.076	1486.83
430.284	1425.39
430.491	1466.35
430.699	1427.43
430.906	1509.35
431.114	1544.17
431.321	1558.5
431.528	1730.53
431.736	1722.34
431.943	1804.26
432.15	1736.68
432.358	1818.6
432.565	1929.19
432.772	1781.73
432.979	1990.63
433.187	2035.68
433.394	1998.82
433.601	2162.65
433.808	2189.28
434.016	2250.72
434.223	2220
434.43	2367.45
434.637	2338.78
434.844	2553.82
435.052	2416.6
435.259	2500.57
435.466	2600.92
435.673	2492.38
435.88	2662.36
436.087	2793.43
436.294	2861.01
436.501	2758.61
436.708	2760.66
436.915	3092.43
437.122	3051.47
437.329	2953.17
437.537	3067.86
437.743	3200.98
437.95	3071.95
438.157	3352.52
438.364	3481.55
438.571	3262.41
438.778	3354.57
438.985	3751.88
439.192	3612.62
439.399	3760.07
439.606	3649.48
439.813	3733.45
440.02	3966.92
440.227	3989.44
440.433	3858.37
440.64	4079.55
440.847	4188.1
441.054	4161.47
441.261	4491.2
441.467	4495.29
441.674	4362.17
441.881	4736.95
442.088	4546.49
442.294	4585.4
442.501	4810.68
442.708	4982.71
442.914	5101.49
443.121	5302.19
443.328	4937.65
443.534	5531.56
443.741	5371.82
443.948	5099.44
444.154	5525.42
444.361	5611.43
444.568	5556.14
444.774	5474.22
444.981	5730.22
445.187	5828.52
445.394	6086.56
445.6	5851.05
445.807	6563.74
446.013	6356.89
446.22	6502.3
446.426	6721.43
446.633	6893.46
446.839	6991.77
447.046	6561.69
447.252	7196.56
447.459	6936.47
447.665	7102.36
447.871	7448.46
448.078	7729.03
448.284	7356.3
448.491	7589.77
448.697	7837.58
448.903	7890.82
449.11	8028.04
449.316	7982.98
449.522	8095.62
449.728	8419.2
449.935	8253.31
450.141	8447.87
450.347	8574.85
450.553	8269.7
450.76	8241.03
450.966	8523.65
451.172	8611.71
451.378	8927.1
451.584	8519.55
451.791	9035.64
451.997	8863.61
452.203	9035.64
452.409	9068.41
452.615	8724.35
452.821	8619.9
453.027	8564.61
453.233	8912.76
453.44	8644.48
453.646	8759.16
453.852	8802.17
454.058	9017.21
454.264	8570.75
454.47	8863.61
454.676	8808.31
454.882	8785.79
455.088	8263.55
455.294	8277.89
455.5	8570.75
455.705	8574.85
455.911	8212.35
456.117	8107.91
456.323	7966.6
456.529	7507.85
456.735	7837.58
456.941	7636.88
457.147	7489.42
457.352	7370.64
457.558	7294.86
457.764	7249.81
457.97	7128.98
458.176	6989.72
458.381	7014.29
458.587	6549.4
458.793	6586.27
458.999	6277.02
459.204	6571.93
459.41	6457.25
459.616	6158.24
459.821	6078.37
460.027	6113.19
460.233	5994.4
460.438	5773.22
460.644	5793.7
460.85	5582.76
461.055	5513.13
461.261	5353.39
461.466	4982.71
461.672	4812.73
461.878	5142.45
462.083	4913.08
462.289	4753.34
462.494	4614.07
462.7	4554.68
462.905	4407.23
463.111	4454.33
463.316	4464.57
463.522	4517.82
463.727	4581.31
463.932	4489.15
464.138	4417.47
464.343	4437.95
464.549	4401.08
464.754	4548.54
464.959	4480.96
465.165	4308.93
465.37	4198.34
465.575	4087.75
465.781	4403.13
465.986	4224.96
466.191	4241.34
466.397	4100.03
466.602	3917.76
466.807	4100.03
467.012	3919.81
467.218	3872.71
467.423	3921.86
467.628	3962.82
467.833	4087.75
468.038	3825.61
468.244	3897.28
468.449	4036.55
468.654	3950.53
468.859	3841.99
469.064	3975.11
469.269	3612.62
469.474	3737.54
469.679	3858.37
469.885	3581.9
470.09	3864.52
470.295	3747.78
470.5	3528.65
470.705	3702.73
470.91	3506.12
471.115	3635.14
471.32	3653.58
471.525	3577.8
471.73	3635.14
471.935	3467.21
472.139	3286.99
472.344	3497.93
472.549	3403.72
472.754	3358.67
472.959	3246.03
473.164	3205.07
473.369	3291.09
473.574	3196.88
473.778	3264.46
473.983	3180.5
474.188	3268.56
474.393	3055.57
474.598	3078.1
474.802	3082.19
475.007	2940.88
475.212	3049.43
475.417	2899.92
475.621	2990.03
475.826	2920.4
476.031	2844.63
476.235	2789.33
476.44	2873.3
476.645	2897.88
476.849	2783.19
477.054	2670.55
477.259	2803.67
477.463	2691.03
477.668	2707.41
477.872	2686.93
478.077	2656.22
478.282	2541.53
478.486	2592.73
478.691	2621.4
478.895	2578.39
479.1	2617.3
479.304	2535.39
479.509	2547.67
479.713	2551.77
479.918	2562.01
480.122	2416.6
480.326	2586.58
480.531	2578.39
480.735	2457.56
480.94	2451.42
481.144	2441.18
481.348	2387.93
481.553	2400.22
481.757	2359.26
481.961	2519
482.166	2392.03
482.37	2443.23
482.574	2361.31
482.778	2201.57
482.983	2424.79
483.187	2514.91
483.391	2432.99
483.595	2389.98
483.8	2426.84
484.004	2494.43
484.208	2432.99
484.412	2357.21
484.616	2451.42
484.821	2306.01
485.025	2414.56
485.229	2547.67
485.433	2422.75
485.637	2412.51
485.841	2367.45
486.045	2369.5
486.249	2539.48
486.453	2502.62
486.657	2478.04
486.861	2463.71
487.065	2330.59
487.269	2426.84
487.473	2482.14
487.677	2457.56
487.881	2531.29
488.085	2424.79
488.289	2383.84
488.493	2484.19
488.697	2510.81
488.901	2545.63
489.105	2471.9
489.309	2516.95
489.512	2439.13
489.716	2471.9
489.92	2508.76
490.124	2492.38
490.328	2662.36
490.531	2514.91
490.735	2451.42
490.939	2576.34
491.143	2572.25
491.346	2578.39
491.55	2545.63
491.754	2652.12
491.958	2572.25
492.161	2670.55
492.365	2441.18
492.569	2516.95
492.772	2596.82
492.976	2678.74
493.18	2750.42
493.383	2682.84
493.587	2797.53
493.79	2656.22
493.994	2670.55
494.197	2766.81
494.401	2766.81
494.605	2828.24
494.808	2756.57
495.012	2920.4
495.215	2824.15
495.419	2983.89
495.622	2998.23
495.825	2901.97
496.029	2912.21
496.232	3055.57
496.436	2914.26
496.639	3063.76
496.843	3059.67
497.046	3000.27
497.249	3270.61
497.453	3299.28
497.656	3309.52
497.859	3334.09
498.063	3164.11
498.266	3379.15
498.469	3305.42
498.673	3381.2
498.876	3354.57
499.079	3499.98
499.282	3497.93
499.485	3442.64
499.689	3559.37
499.892	3639.24
500.095	3639.24
500.298	3637.19
500.501	3770.31
500.705	3706.82
500.908	3798.98
501.111	3946.44
501.314	3987.4
501.517	4075.46
501.72	4057.03
501.923	4050.88
502.126	4132.8
502.329	4184
502.532	4130.75
502.735	4435.9
502.938	4480.96
503.141	4448.19
503.344	4526.01
503.547	4378.56
503.75	4609.98
503.953	4687.8
504.156	4716.47
504.359	4786.1
504.562	4810.68
504.765	4786.1
504.968	4976.56
505.17	5119.92
505.373	4915.12
505.576	5216.18
505.779	5203.89
505.982	5226.42
506.185	5244.85
506.387	5281.71
506.59	5427.12
506.793	5658.54
506.996	5547.95
507.198	5724.07
507.401	5814.18
507.604	5779.37
507.807	5875.62
508.009	5867.43
508.212	6096.8
508.415	6141.86
508.617	6272.93
508.82	6178.72
509.022	6193.06
509.225	6244.26
509.428	6391.71
509.63	6307.74
509.833	6537.12
510.035	6705.05
510.238	6477.73
510.44	6840.22
510.643	6784.92
510.845	6913.94
511.048	6995.86
511.25	7049.11
511.453	7268.24
511.655	7442.32
511.858	7399.31
512.06	7284.62
512.262	7554.96
512.465	7724.94
512.667	7565.2
512.87	7833.48
513.072	7749.51
513.274	7929.73
513.477	8062.85
513.679	8187.78
513.881	8335.23
514.084	8341.38
514.286	8275.84
514.488	8439.68
514.69	8605.56
514.893	8505.21
515.095	8748.92
515.297	8945.53
515.499	8988.53
515.701	8947.58
515.904	9207.67
516.106	9234.29
516.308	9387.89
516.51	9518.96
516.712	9332.59
516.914	9639.79
517.116	9854.83
517.318	9936.74
517.52	9811.82
517.722	10133.35
517.925	10067.81
518.127	10145.64
518.329	10268.52
518.531	10237.8
518.733	10606.43
518.935	10563.42
519.136	10624.86
519.338	10766.17
519.54	10993.5
519.742	11013.98
519.944	10993.5
520.146	11177.81
520.348	11233.11
520.55	11398.99
520.752	11534.16
520.954	11558.74
521.155	11618.13
521.357	12013.38
521.559	11853.64
521.761	12001.1
521.963	12212.04
522.164	12230.47
522.366	12271.43
522.568	12418.88
522.77	12658.49
522.971	12881.72
523.173	12400.45
523.375	12726.08
523.576	12764.99
523.778	12904.25
523.98	13127.48
524.181	13090.62
524.383	13139.77
524.584	13274.93
524.786	13379.38
524.988	13453.11
525.189	13332.28
525.391	13791.02
525.592	13846.32
525.794	13735.73
525.995	13545.27
526.197	13825.84
526.398	14042.92
526.6	14067.5
526.801	13938.48
527.003	14112.55
527.204	14055.21
527.406	14305.06
527.607	14497.57
527.808	14272.29
528.01	14280.49
528.211	14378.79
528.412	14741.28
528.614	14778.14
528.815	14620.45
529.016	14772
529.218	14753.57
529.419	14786.33
529.62	14565.15
529.822	14901.02
530.023	14673.7
530.224	14870.3
530.425	15036.19
530.626	14757.66
530.828	14929.69
531.029	15169.3
531.23	14984.99
531.431	15128.35
531.632	15009.56
531.833	14810.91
532.035	15038.23
532.236	15271.7
532.437	15382.29
532.638	14972.7
532.839	15206.17
533.04	15238.94
533.241	15091.48
533.442	15572.75
533.643	15251.22
533.844	15337.24
534.045	15402.77
534.246	15140.63
534.447	15257.37
534.648	15230.74
534.849	15324.95
535.05	15232.79
535.251	15283.99
535.451	15263.51
535.652	15279.89
535.853	15392.53
536.054	15357.72
536.255	15200.02
536.456	15165.21
536.657	15542.03
536.857	15380.25
537.058	15394.58
537.259	15552.27
537.46	15353.62
537.66	15552.27
537.861	15720.21
538.062	15370.01
538.263	15445.78
538.463	15343.38
538.664	15245.08
538.865	15691.54
539.065	15476.5
539.266	15367.96
539.466	15738.64
539.667	15349.53
539.868	15472.4
540.068	15712.02
540.269	15638.29
540.469	15568.66
540.67	15318.81
540.87	15748.88
541.071	15451.92
541.271	15408.92
541.472	15333.14
541.672	15496.98
541.873	15396.63
542.073	15085.34
542.274	15494.93
542.474	15595.28
542.675	15257.37
542.875	15703.82
543.075	15398.68
543.276	15589.14
543.476	15525.65
543.676	15337.24
543.877	15302.42
544.077	15345.43
544.277	14946.08
544.478	15337.24
544.678	15404.82
544.878	15443.73
545.078	15521.56
545.279	15150.87
545.479	15392.53
545.679	15370.01
545.879	15269.65
546.079	15558.42
546.28	15515.41
546.48	15290.13
546.68	15529.75
546.88	15478.55
547.08	15597.33
547.28	15511.32
547.48	15413.01
547.68	15144.73
547.88	15273.75
548.081	15394.58
548.281	15501.08
548.481	15460.12
548.681	15206.17
548.881	15759.12
549.081	15492.88
549.28	15089.43
549.48	15154.97
549.68	15560.47
549.88	15312.66
550.08	15200.02
550.28	15417.11
550.48	15443.73
550.68	15443.73
550.88	15175.45
551.08	15281.94
551.279	15404.82
551.479	15320.85
551.679	15456.02
551.879	15230.74
552.079	15613.71
552.278	15251.22
552.478	15310.61
552.678	15222.55
552.878	15118.11
553.077	15263.51
553.277	15142.68
553.477	15286.04
553.676	15134.49
553.876	15185.69
554.076	15365.91
554.275	15138.58
554.475	14898.97
554.674	15347.48
554.874	15347.48
555.074	14964.51
555.273	14976.8
555.473	15204.12
555.672	15157.02
555.872	15181.59
556.071	15394.58
556.271	15132.44
556.47	15097.63
556.67	14860.06
556.869	14970.65
557.068	15021.85
557.268	14886.68
557.467	14769.95
557.667	14917.4
557.866	14898.97
558.065	14964.51
558.265	14642.98
558.464	14892.83
558.663	14933.79
558.863	14878.49
559.062	14950.17
559.261	14837.53
559.461	15036.19
559.66	14774.05
559.859	14667.55
560.058	14706.46
560.258	14602.02
560.457	14606.11
560.656	14835.49
560.855	14696.22
561.054	14503.71
561.253	14538.53
561.453	14454.56
561.652	14681.89
561.851	14524.19
562.05	14448.42
562.249	14325.54
562.448	14470.95
562.647	14425.89
562.846	14614.31
563.045	14231.33
563.244	14135.08
563.443	14352.17
563.642	14178.09
563.841	14255.91
564.04	14106.41
564.239	14235.43
564.438	14262.05
564.637	14214.95
564.836	14198.57
565.035	14163.75
565.234	13821.74
565.432	14135.08
565.631	14047.02
565.83	13885.23
566.029	14012.2
566.228	13831.98
566.427	13969.19
566.625	13813.55
566.824	13770.54
567.023	13938.48
567.222	13584.18
567.42	13731.63
567.619	13741.87
567.818	13606.7
568.016	13682.48
568.215	13627.18
568.414	13590.32
568.612	13764.4
568.811	13492.02
569.01	13317.94
569.208	13301.56
569.407	13354.8
569.605	13336.37
569.804	13504.31
570.002	13229.88
570.201	13360.95
570.4	13223.73
570.598	13182.77
570.797	12758.85
570.995	13076.28
571.193	12959.55
571.392	13229.88
571.59	12916.54
571.789	13072.18
571.987	12980.03
572.186	12588.86
572.384	12764.99
572.582	12799.8
572.781	13053.75
572.979	12562.24
573.177	12728.13
573.376	12709.69
573.574	12603.2
573.772	12599.1
573.971	12449.6
574.169	12388.16
574.367	12351.3
574.565	12586.82
574.763	12445.51
574.962	12230.47
575.16	11972.43
575.358	12365.64
575.556	12212.04
575.754	12267.33
575.952	12062.54
576.151	12404.55
576.349	12080.97
576.547	11880.27
576.745	11970.38
576.943	11900.75
577.141	11949.9
577.339	12019.53
577.537	11997
577.735	11749.2
577.933	11806.54
578.131	11788.11
578.329	11839.31
578.527	11757.39
578.725	11650.89
578.923	11687.76
579.121	11747.15
579.319	11505.49
579.516	11804.49
579.714	11528.02
579.912	11575.12
580.11	11272.02
580.308	11429.71
580.506	11501.39
580.704	11085.65
580.901	11407.19
581.099	11470.67
581.297	11257.68
581.495	11218.77
581.692	11411.28
581.89	11149.14
582.088	11405.14
582.285	11061.08
582.483	11171.67
582.681	11095.89
582.878	10864.47
583.076	11046.74
583.274	11063.13
583.471	10921.82
583.669	11001.69
583.866	10745.69
584.064	10905.43
584.262	10696.54
584.459	10856.28
584.657	10772.32
584.854	10760.03
585.052	10714.97
585.249	10688.35
585.447	10553.18
585.644	10465.12
585.841	10467.17
586.039	10620.77
586.236	10497.89
586.434	10284.9
586.631	10567.52
586.828	10544.99
587.026	10325.86
587.223	10352.48
587.42	10399.59
587.618	10119.01
587.815	9879.4
588.012	10200.93
588.21	9998.18
588.407	10323.81
588.604	9897.83
588.801	10223.46
588.999	10178.4
589.196	9985.9
589.393	9983.85
589.59	10071.91
589.787	9949.03
589.984	9944.94
590.182	9783.15
590.379	9805.67
590.576	9842.54
590.773	9699.18
590.97	9717.61
591.167	9858.92
591.364	9471.86
591.561	9813.87
591.758	9535.34
591.955	9504.62
592.152	9627.5
592.349	9531.25
592.546	9578.35
592.743	9543.53
592.94	9320.31
593.137	9359.22
593.334	9265.01
593.531	9381.74
593.727	9492.34
593.924	9355.12
594.121	9357.17
594.318	9201.52
594.515	9113.46
594.712	9420.66
594.908	9213.81
595.105	9301.87
595.302	9125.75
595.499	9029.49
595.696	8935.29
595.892	8904.57
596.089	9015.16
596.286	8978.29
596.482	9004.92
596.679	8976.25
596.876	8898.42
597.072	8896.38
597.269	8861.56
597.466	8834.94
597.662	8716.15
597.859	8697.72
598.055	8660.86
598.252	8859.51
598.448	8765.31
598.645	8503.17
598.841	8613.76
599.038	8527.74
599.234	8703.87
599.431	8388.48
599.627	8595.32
599.824	8648.57
600.02	8537.98
600.217	8603.52
600.413	8431.49
600.609	8265.6
600.806	8324.99
601.002	8490.88
601.198	8255.36
601.395	8306.56
601.591	8134.53
601.787	8118.15
601.984	8265.6
602.18	8159.11
602.376	8118.15
602.572	8155.01
602.769	8218.5
602.965	7968.65
603.161	8001.41
603.357	7974.79
603.553	8019.85
603.75	7958.41
603.946	7872.39
604.142	7839.62
604.338	7729.03
604.534	7970.69
604.73	7962.5
604.926	7790.47
605.122	7915.4
605.318	7755.66
605.514	7731.08
605.71	7735.18
605.906	7806.86
606.102	7661.45
606.298	7595.92
606.494	7636.88
606.69	7647.12
606.886	7577.48
607.082	7548.81
607.278	7657.36
607.474	7446.41
607.67	7534.48
607.866	7436.17
608.062	7415.69
608.257	7481.23
608.453	7536.52
608.649	7403.41
608.845	7251.86
609.041	7350.16
609.236	7249.81
609.432	7309.2
609.628	7360.4
609.824	7161.75
610.019	7276.43
610.215	7249.81
610.411	7241.62
610.606	7192.47
610.802	7272.34
610.998	7290.77
611.193	7120.79
611.389	6999.96
611.584	6913.94
611.78	7024.53
611.976	7047.06
612.171	7255.95
612.367	7026.58
612.562	7038.87
612.758	6752.15
612.953	6987.67
613.149	7051.16
613.344	6879.13
613.539	7143.31
613.735	7026.58
613.93	7057.3
614.126	6956.95
614.321	6997.91
614.517	6956.95
614.712	6907.8
614.907	6815.64
615.103	6727.58
615.298	6680.47
615.493	6729.63
615.688	6752.15
615.884	6856.6
616.079	6653.85
616.274	6776.73
616.47	6688.67
616.665	6737.82
616.86	6684.57
617.055	6711.19
617.25	6600.6
617.445	6725.53
617.641	6496.16
617.836	6586.27
618.031	6430.62
618.226	6555.55
618.421	6436.77
618.616	6631.32
618.811	6274.98
619.006	6346.66
619.201	6428.57
619.396	6455.2
619.591	6266.78
619.786	6272.93
619.981	6274.98
620.176	6277.02
620.371	6061.99
620.566	6244.26
620.761	6129.57
620.956	6285.22
621.151	5937.06
621.346	6053.8
621.541	5826.47
621.735	6104.99
621.93	5916.58
622.125	5947.3
622.32	5998.5
622.515	6057.89
622.709	5863.33
622.904	5908.39
623.099	5832.61
623.294	5795.75
623.488	5851.05
623.683	5816.23
623.878	5388.21
624.072	5795.75
624.267	5668.78
624.462	5652.39
624.656	5537.71
624.851	5679.02
625.046	5404.59
625.24	5484.46
625.435	5504.94
625.629	5466.03
625.824	5369.77
626.018	5453.74
626.213	5253.04
626.407	5457.84
626.602	5250.99
626.796	5148.59
626.991	5216.18
627.185	5310.38
627.38	5296.05
627.574	5119.92
627.768	5035.96
627.963	5160.88
628.157	4825.01
628.352	4960.18
628.546	5040.05
628.74	4982.71
628.935	4882.36
629.129	4958.13
629.323	4915.12
629.517	4970.42
629.712	4628.41
629.906	4825.01
630.1	4681.66
630.294	4915.12
630.489	4693.94
630.683	4736.95
630.877	4614.07
631.071	4657.08
631.265	4566.97
631.459	4581.31
631.653	4609.98
631.848	4575.16
632.042	4454.33
632.236	4538.3
632.43	4419.52
632.624	4566.97
632.818	4456.38
633.012	4468.67
633.206	4366.27
633.4	4233.15
633.594	4298.69
633.788	4229.06
633.982	4298.69
634.176	4483
634.369	4347.84
634.563	4171.71
634.757	4284.35
634.951	4184
635.145	4179.9
635.339	4235.2
635.533	4214.72
635.726	4231.1
635.92	4077.51
636.114	4229.06
636.308	4020.16
636.501	4169.66
636.695	4163.52
636.889	4024.26
637.083	3989.44
637.276	3909.57
637.47	3948.48
637.664	3858.37
637.857	3966.92
638.051	3880.9
638.244	3786.69
638.438	3915.72
638.632	3833.8
638.825	3762.12
639.019	3688.39
639.212	3743.69
639.406	3649.48
639.599	3786.69
639.793	3745.73
639.986	3616.71
640.18	3600.33
640.373	3508.17
640.567	3614.66
640.76	3493.83
640.954	3428.3
641.147	3379.15
641.34	3391.44
641.534	3540.94
641.727	3520.46
641.92	3352.52
642.114	3440.59
642.307	3289.04
642.5	3260.37
642.694	3436.49
642.887	3278.8
643.08	3301.33
643.273	3362.76
643.467	3278.8
643.66	3284.94
643.853	3260.37
644.046	3157.97
644.239	3246.03
644.432	3104.72
644.626	3102.67
644.819	3209.17
645.012	3012.56
645.205	3143.63
645.398	3055.57
645.591	3028.95
645.784	3028.95
645.977	3180.5
646.17	2897.88
646.363	2881.49
646.556	2899.92
646.749	2889.68
646.942	2891.73
647.135	2959.31
647.328	3018.71
647.521	2777.05
647.714	2787.29
647.907	2865.11
648.099	2748.37
648.292	2711.51
648.485	2711.51
648.678	2795.48
648.871	2742.23
649.064	2836.44
649.256	2717.65
649.449	2699.22
649.642	2641.88
649.835	2613.21
650.027	2586.58
650.22	2555.86
650.413	2516.95
650.605	2746.33
650.798	2564.06
650.991	2420.7
651.183	2664.41
651.376	2592.73
651.568	2541.53
651.761	2607.06
651.954	2463.71
652.146	2615.26
652.339	2422.75
652.531	2439.13
652.724	2353.12
652.916	2416.6
653.109	2375.64
653.301	2555.86
653.494	2363.36
653.686	2439.13
653.879	2308.06
654.071	2437.08
654.263	2367.45
654.456	2273.25
654.648	2353.12
654.84	2246.62
655.033	2213.85
655.225	2232.29
655.417	2136.03
655.61	2234.33
655.802	2252.77
655.994	2164.7
656.186	2240.48
656.379	2174.94
656.571	2142.18
656.763	2205.66
656.955	2103.26
657.148	2103.26
657.34	1994.72
657.532	2138.08
657.724	2160.61
657.916	2107.36
658.108	2150.37
658.3	1966.05
658.492	2013.15
658.684	1974.24
658.876	2019.3
659.068	1984.48
659.26	1978.34
659.452	1992.67
659.644	1863.65
659.836	1961.95
660.028	1982.43
660.22	1871.84
660.412	1804.26
660.604	1886.18
660.796	1904.61
660.988	1894.37
661.18	1933.28
661.372	1810.4
661.563	1892.32
661.755	1896.42
661.947	1781.73
662.139	1871.84
662.331	1843.17
662.522	1742.82
662.714	1814.5
662.906	1791.97
663.097	1802.21
663.289	1785.83
663.481	1816.55
663.673	1720.29
663.864	1650.66
664.056	1646.57
664.247	1687.53
664.439	1642.47
664.631	1677.29
664.822	1607.66
665.014	1712.1
665.205	1542.12
665.397	1710.05
665.588	1601.51
665.78	1710.05
665.971	1630.18
666.163	1585.13
666.354	1701.86
666.546	1599.46
666.737	1554.41
666.929	1665
667.12	1497.07
667.311	1581.03
667.503	1556.46
667.694	1564.65
667.885	1605.61
668.077	1540.07
668.268	1474.54
668.459	1513.45
668.651	1517.54
668.842	1460.2
669.033	1535.98
669.224	1558.5
669.416	1550.31
669.607	1400.81
669.798	1404.91
669.989	1478.63
670.18	1456.11
670.371	1437.67
670.563	1515.5
670.754	1388.52
670.945	1417.19
671.136	1421.29
671.327	1509.35
671.518	1339.37
671.709	1433.58
671.9	1464.3
672.091	1413.1
672.282	1394.67
672.473	1347.56
672.664	1366
672.855	1329.13
673.046	1396.71
673.237	1447.91
673.428	1386.47
673.619	1277.93
673.809	1353.71
674	1411.05
674.191	1368.04
674.382	1370.09
674.573	1284.08
674.764	1361.9
674.954	1296.36
675.145	1286.12
675.336	1331.18
675.527	1290.22
675.717	1370.09
675.908	1366
676.099	1392.62
676.289	1296.36
676.48	1312.75
676.671	1218.54
676.861	1220.59
677.052	1288.17
677.243	1271.79
677.433	1277.93
677.624	1318.89
677.814	1310.7
678.005	1282.03
678.195	1351.66
678.386	1161.2
678.576	1322.99
678.767	1286.12
678.957	1368.04
679.148	1286.12
679.338	1359.85
679.529	1265.64
679.719	1306.6
679.909	1368.04
680.1	1249.26
680.29	1202.16
680.481	1318.89
680.671	1263.6
680.861	1284.08
681.052	1243.12
681.242	1282.03
681.432	1327.08
681.622	1247.21
681.813	1259.5
682.003	1284.08
682.193	1257.45
682.383	1380.33
682.573	1312.75
682.764	1271.79
682.954	1208.3
683.144	1296.36
683.334	1277.93
683.524	1359.85
683.714	1304.56
683.904	1132.53
684.094	1288.17
684.284	1302.51
684.474	1310.7
684.664	1206.25
684.854	1230.83
685.044	1310.7
685.234	1279.98
685.424	1236.97
685.614	1241.07
685.804	1204.21
685.994	1150.96
686.184	1263.6
686.374	1366
686.564	1300.46
686.753	1271.79
686.943	1277.93
687.133	1230.83
687.323	1216.49
687.513	1251.31
687.702	1273.84
687.892	1312.75
688.082	1282.03
688.272	1243.12
688.461	1155.05
688.651	1308.65
688.841	1110
689.03	1163.25
689.22	1206.25
689.41	1189.87
689.599	1253.36
689.789	1214.45
689.979	1314.8
690.168	1259.5
690.358	1175.53
690.547	1220.59
690.737	1368.04
690.926	1196.01
691.116	1263.6
691.305	1257.45
691.495	1216.49
691.684	1097.71
691.874	1165.29
692.063	1206.25
692.252	1269.74
692.442	1212.4
692.631	1234.93
692.82	1142.77
693.01	1200.11
693.199	1112.05
693.388	1146.86
693.578	1198.06
693.767	1251.31
693.956	1222.64
694.146	1175.53
694.335	1165.29
694.524	1312.75
694.713	1208.3
694.902	1185.77
695.092	1177.58
695.281	1220.59
695.47	1226.73
695.659	1181.68
695.848	1097.71
696.037	1279.98
696.226	1187.82
696.415	1179.63
696.604	1187.82
696.793	1181.68
696.982	1261.55
697.171	1171.44
697.36	1130.48
697.549	1187.82
697.738	1167.34
697.927	1173.49
698.116	1161.2
698.305	1142.77
698.494	1110
698.683	1193.97
698.872	1232.88
699.061	1075.18
699.25	1046.51
699.438	1218.54
699.627	1077.23
699.816	1216.49
700.005	1142.77
700.193	1120.24
700.382	1181.68
700.571	1185.77
700.76	1165.29
700.948	1163.25
701.137	1128.43
701.326	1191.92
701.514	1122.29
701.703	1179.63
701.892	1124.33
702.08	1142.77
702.269	1132.53
702.457	1126.38
702.646	1064.94
702.834	1056.75
703.023	1175.53
703.212	1277.93
703.4	1114.09
703.589	1099.76
703.777	1132.53
703.965	1011.7
704.154	1083.38
704.342	1064.94
704.531	1079.28
704.719	1056.75
704.907	1171.44
705.096	1138.67
705.284	1112.05
705.472	1116.14
705.661	1081.33
705.849	1204.21
706.037	1144.81
706.226	1142.77
706.414	1079.28
706.602	1060.85
706.79	1210.35
706.979	1099.76
707.167	1110
707.355	978.93
707.543	1189.87
707.731	1122.29
707.919	1062.9
708.107	1107.95
708.296	1140.72
708.484	1023.98
708.672	1056.75
708.86	1003.5
709.048	1081.33
709.236	1056.75
709.424	1071.09
709.612	1083.38
709.8	1073.14
709.988	983.02
710.176	958.45
710.364	1069.04
710.551	999.41
710.739	1103.86
710.927	1093.62
711.115	1036.27
711.303	960.5
711.491	1089.52
711.679	962.55
711.866	1146.86
712.054	1148.91
712.242	1017.84
712.43	1099.76
712.617	1015.79
712.805	933.87
712.993	1040.37
713.181	950.26
713.368	985.07
713.556	1007.6
713.744	978.93
713.931	985.07
714.119	1073.14
714.306	997.36
714.494	987.12
714.682	985.07
714.869	946.16
715.057	1044.46
715.244	964.59
715.432	901.11
715.619	1028.08
715.807	972.79
715.994	1034.22
716.182	991.22
716.369	1021.94
716.556	976.88
716.744	983.02
716.931	858.1
717.119	966.64
717.306	978.93
717.493	946.16
717.681	980.98
717.868	1019.89
718.055	872.43
718.242	983.02
718.43	919.54
718.617	909.3
718.804	862.19
718.991	995.31
719.179	952.31
719.366	1028.08
719.553	1050.61
719.74	1007.6
719.927	1009.65
720.114	917.49
720.301	890.87
720.488	841.72
720.676	903.15
720.863	1015.79
721.05	956.4
721.237	892.91
721.424	1011.7
721.611	950.26
721.798	917.49
721.985	837.62
722.172	974.83
722.358	874.48
722.545	1011.7
722.732	958.45
722.919	958.45
723.106	841.72
723.293	876.53
723.48	872.43
723.667	905.2
723.853	950.26
724.04	860.15
724.227	892.91
724.414	919.54
724.6	950.26
724.787	868.34
724.974	890.87
725.161	854
725.347	905.2
725.534	847.86
725.72	860.15
725.907	931.83
726.094	917.49
726.28	903.15
726.467	913.39
726.653	866.29
726.84	909.3
727.027	847.86
727.213	817.14
727.4	851.95
727.586	866.29
727.773	825.33
727.959	929.78
728.145	804.85
728.332	882.67
728.518	880.63
728.705	876.53
728.891	878.58
729.077	835.57
729.264	942.07
729.45	919.54
729.636	876.53
729.823	851.95
730.009	815.09
730.195	919.54
730.382	856.05
730.568	995.31
730.754	872.43
730.94	864.24
731.126	786.42
731.313	851.95
731.499	802.8
731.685	782.32
731.871	831.48
732.057	802.8
732.243	790.52
732.429	835.57
732.615	929.78
732.801	815.09
732.987	960.5
733.173	901.11
733.359	864.24
733.545	878.58
733.731	821.24
733.917	839.67
734.103	837.62
734.289	886.77
734.475	782.32
734.661	802.8
734.847	864.24
735.033	892.91
735.219	761.84
735.404	854
735.59	784.37
735.776	870.39
735.962	759.8
736.148	833.52
736.333	845.81
736.519	782.32
736.705	733.17
736.89	720.88
737.076	804.85
737.262	788.47
737.447	778.23
737.633	868.34
737.819	778.23
738.004	745.46
738.19	739.32
738.375	802.8
738.561	782.32
738.747	802.8
738.932	782.32
739.118	737.27
739.303	784.37
739.489	784.37
739.674	743.41
739.859	802.8
740.045	735.22
740.23	788.47
740.416	776.18
740.601	712.69
740.786	815.09
740.972	745.46
741.157	737.27
741.342	741.36
741.528	731.12
741.713	737.27
741.898	860.15
742.084	718.84
742.269	747.51
742.454	737.27
742.639	724.98
742.824	698.36
743.01	808.95
743.195	753.65
743.38	673.78
743.565	780.28
743.75	770.04
743.935	749.56
744.12	681.97
744.305	692.21
744.49	692.21
744.675	714.74
744.86	688.12
745.045	706.55
745.23	712.69
745.415	634.87
745.6	761.84
745.785	671.73
745.97	688.12
746.155	712.69
746.34	675.83
746.525	663.54
746.71	675.83
746.895	767.99
747.079	665.59
747.264	747.51
747.449	692.21
747.634	571.38
747.819	636.92
748.003	684.02
748.188	651.25
748.373	616.44
748.557	591.86
748.742	659.45
748.927	563.19
749.111	647.16
749.296	608.25
749.481	661.49
749.665	641.01
749.85	647.16
750.034	624.63
750.219	608.25
750.404	583.67
750.588	591.86
750.773	573.43
750.957	532.47
751.141	571.38
751.326	591.86
751.51	575.48
751.695	630.77
751.879	559.1
752.064	561.14
752.248	604.15
752.432	520.18
752.617	622.58
752.801	538.62
752.985	612.34
753.17	503.8
753.354	487.42
753.538	608.25
753.722	462.84
753.907	561.14
754.091	471.03
754.275	583.67
754.459	571.38
754.643	460.79
754.828	516.09
755.012	509.94
755.196	526.33
755.38	507.9
755.564	495.61
755.748	438.27
755.932	491.51
756.116	557.05
756.3	464.89
756.484	497.66
756.668	436.22
756.852	509.94
757.036	499.7
757.22	448.51
757.404	438.27
757.588	458.74
757.772	483.32
757.956	436.22
758.14	495.61
758.323	425.98
758.507	497.66
758.691	458.74
758.875	401.4
759.059	405.5
759.242	481.27
759.426	354.3
759.61	370.68
759.794	477.18
759.977	417.79
760.161	462.84
760.345	450.55
760.528	464.89
760.712	393.21
760.895	483.32
761.079	415.74
761.263	372.73
761.446	401.4
761.63	411.64
761.813	344.06
761.997	499.7
762.18	348.15
762.364	362.49
762.547	372.73
762.731	342.01
762.914	342.01
763.098	389.11
763.281	374.78
763.464	385.02
763.648	374.78
763.831	442.36
764.015	339.96
764.198	425.98
764.381	432.12
764.564	378.87
764.748	393.21
764.931	364.54
765.114	376.83
765.297	303.1
765.481	323.58
765.664	360.44
765.847	438.27
766.03	305.15
766.213	360.44
766.397	417.79
766.58	364.54
766.763	335.87
766.946	311.29
767.129	344.06
767.312	323.58
767.495	360.44
767.678	376.83
767.861	419.83
768.044	323.58
768.227	327.67
768.41	374.78
768.593	372.73
768.776	350.2
768.959	348.15
769.142	317.44
769.324	344.06
769.507	333.82
769.69	380.92
769.873	290.81
770.056	364.54
770.239	278.52
770.421	399.35
770.604	370.68
770.787	337.91
770.97	292.86
771.152	325.63
771.335	276.48
771.518	262.14
771.7	372.73
771.883	305.15
772.066	225.28
772.248	321.53
772.431	352.25
772.613	260.09
772.796	258.04
772.978	339.96
773.161	358.39
773.343	292.86
773.526	335.87
773.708	296.96
773.891	268.28
774.073	266.24
774.256	313.34
774.438	354.3
774.621	294.91
774.803	352.25
774.985	317.44
775.168	282.62
775.35	223.23
775.532	221.18
775.715	188.41
775.897	276.48
776.079	354.3
776.261	296.96
776.444	253.95
776.626	231.42
776.808	282.62
776.99	212.99
777.173	237.56
777.355	225.28
777.537	307.2
777.719	227.32
777.901	237.56
778.083	303.1
778.265	204.8
778.447	200.7
778.629	274.43
778.811	231.42
778.993	274.43
779.175	274.43
779.357	223.23
779.539	210.94
779.721	194.56
779.903	223.23
780.085	268.28
780.267	208.89
780.449	233.47
780.631	190.46
780.812	266.24
780.994	270.33
781.176	243.71
781.358	198.65
781.54	233.47
781.721	264.19
781.903	147.45
782.085	169.98
782.267	194.56
782.448	169.98
782.63	235.52
782.812	174.08
782.993	120.83
783.175	198.65
783.357	190.46
783.538	90.11
783.72	96.25
783.901	145.41
784.083	116.73
784.264	233.47
784.446	122.88
784.627	71.68
784.809	188.41
784.99	217.08
785.172	180.22
785.353	270.33
785.535	157.69
785.716	182.27
785.897	157.69
786.079	182.27
786.26	223.23
786.441	208.89
786.623	133.12
786.804	135.17
786.985	143.36
787.167	153.6
787.348	32.77
787.529	116.73
787.71	151.55
787.891	178.17
788.073	124.93
788.254	172.03
788.435	202.75
788.616	141.31
788.797	176.13
788.978	96.25
789.159	159.74
789.34	114.69
789.522	114.69
789.703	116.73
789.884	190.46
790.065	172.03
790.246	122.88
790.427	208.89
790.607	137.21
790.788	196.6
790.969	96.25
791.15	98.3
791.331	155.65
791.512	110.59
791.693	200.7
791.874	159.74
792.054	149.5
792.235	155.65
792.416	149.5
792.597	145.41
792.778	186.37
792.958	163.84
793.139	159.74
793.32	155.65
793.5	102.4
793.681	131.07
793.862	172.03
794.042	104.45
794.223	139.26
794.404	182.27
794.584	94.21
794.765	102.4
794.945	151.55
795.126	92.16
795.306	165.89
795.487	137.21
795.667	106.49
795.848	65.53
796.028	86.01
796.209	98.3
796.389	43.01
796.57	53.25
796.75	100.35
796.93	124.93
797.111	86.01
797.291	157.69
797.471	131.07
797.652	102.4
797.832	77.82
798.012	155.65
798.192	67.58
798.373	77.82
798.553	153.6
798.733	83.97
798.913	118.78
799.093	172.03
799.274	-10.24
799.454	188.41
799.634	157.69
799.814	108.54
799.994	86.01
800.174	106.49
800.354	182.27
800.534	116.73
800.714	90.11
800.894	116.73
801.074	75.77
801.254	90.11
801.434	118.78
801.614	73.73
801.794	57.34
801.974	286.72
802.154	190.46
802.334	12.29
802.514	81.92
802.693	108.54
802.873	20.48
803.053	118.78
803.233	8.19
803.413	81.92
803.592	65.53
803.772	94.21
803.952	96.25
804.131	106.49
804.311	81.92
804.491	61.44
804.67	92.16
804.85	-12.29
805.03	90.11
805.209	145.41
805.389	12.29
805.568	92.16
805.748	106.49
805.928	59.39
806.107	90.11
806.287	20.48
806.466	53.25
806.646	139.26
806.825	45.06
807.004	40.96
807.184	77.82
807.363	71.68
807.543	96.25
807.722	16.38
807.901	69.63
808.081	55.3
808.26	26.62
808.439	94.21
808.619	49.15
808.798	65.53
808.977	51.2
809.156	102.4
809.336	65.53
809.515	67.58
809.694	124.93
809.873	83.97
810.052	75.77
810.231	30.72
810.411	112.64
810.59	88.06
810.769	2.05
810.948	75.77
811.127	14.34
811.306	67.58
811.485	75.77
811.664	67.58
811.843	88.06
812.022	45.06
812.201	26.62
812.38	86.01
812.559	28.67
812.737	43.01
812.916	96.25
813.095	100.35
813.274	98.3
813.453	61.44
813.632	47.1
813.811	32.77
813.989	12.29
814.168	81.92
814.347	45.06
814.526	83.97
814.704	51.2
814.883	8.19
815.062	69.63
815.24	120.83
815.419	28.67
815.598	131.07
815.776	-26.62
815.955	45.06
816.133	38.91
816.312	67.58
816.49	96.25
816.669	61.44
816.847	71.68
817.026	69.63
817.204	-36.86
817.383	59.39
817.561	38.91
817.74	110.59
817.918	26.62
818.097	57.34
818.275	81.92
818.453	81.92
818.632	114.69
818.81	94.21
818.988	14.34
819.167	114.69
819.345	55.3
819.523	81.92
819.701	14.34
819.879	32.77
820.058	-12.29
820.236	77.82
820.414	24.58
820.592	77.82
820.77	45.06
820.948	81.92
821.127	38.91
821.305	92.16
821.483	20.48
821.661	106.49
821.839	71.68
822.017	-22.53
822.195	30.72
822.373	47.1
822.551	36.86
822.729	57.34
822.907	24.58
823.085	43.01
823.262	-55.3
823.44	26.62
823.618	22.53
823.796	-10.24
823.974	59.39
824.152	8.19
824.329	28.67
824.507	116.73
824.685	10.24
824.863	92.16
825.04	77.82
825.218	51.2
825.396	59.39
825.574	-14.34
825.751	63.49
825.929	40.96
826.107	77.82
826.284	77.82
826.462	-8.19
826.639	49.15
826.817	-22.53
826.994	61.44
827.172	-16.38
827.349	14.34
827.527	55.3
827.704	40.96
827.882	81.92
828.059	43.01
828.237	90.11
828.414	75.77
828.591	-18.43
828.769	57.34
828.946	51.2
829.124	-4.1
829.301	22.53
829.478	26.62
829.655	100.35
829.833	18.43
830.01	20.48
830.187	65.53
830.364	43.01
830.542	45.06
830.719	-10.24
830.896	73.73
831.073	81.92
831.25	69.63
831.427	51.2
831.604	30.72
831.782	18.43
831.959	38.91
832.136	40.96
832.313	36.86
832.49	-51.2
832.667	8.19
832.844	59.39
833.021	4.1
833.198	-22.53
833.374	55.3
833.551	-8.19
833.728	53.25
833.905	63.49
834.082	-24.58
834.259	32.77
834.436	32.77
834.612	-12.29
834.789	20.48
834.966	34.82
835.143	-4.1
835.319	-4.1
835.496	71.68
835.673	36.86
835.85	77.82
836.026	71.68
836.203	-12.29
836.38	69.63
836.556	55.3
836.733	-12.29
836.909	51.2
837.086	30.72
837.262	51.2
837.439	12.29
837.616	61.44
837.792	-14.34
837.968	65.53
838.145	-18.43
838.321	81.92
838.498	40.96
838.674	18.43
838.851	40.96
839.027	18.43
839.203	49.15
839.38	57.34
839.556	6.14
839.732	-0
839.909	-22.53
840.085	100.35
840.261	-14.34
840.437	-38.91
840.614	-43.01
840.79	-4.1
840.966	40.96
841.142	-20.48
841.318	40.96
841.494	-8.19
841.671	34.82
841.847	20.48
842.023	-8.19
842.199	-14.34
842.375	36.86
842.551	2.05
842.727	16.38
842.903	40.96
843.079	45.06
843.255	100.35
843.431	-20.48
843.607	131.07
843.783	47.1
843.959	36.86
844.134	45.06
844.31	55.3
844.486	4.1
844.662	43.01
844.838	32.77
845.013	53.25
845.189	-32.77
845.365	-2.05
845.541	61.44
845.716	22.53
845.892	-16.38
846.068	8.19
846.244	-30.72
846.419	63.49
846.595	-0
846.77	43.01
846.946	43.01
847.122	-40.96
847.297	40.96
847.473	59.39
847.648	12.29
847.824	100.35
847.999	-18.43
848.175	18.43
848.35	65.53
848.526	26.62
848.701	-10.24
848.876	4.1
849.052	40.96
849.227	-14.34
849.403	45.06
849.578	16.38
849.753	-16.38
849.929	67.58
850.104	34.82
850.279	-16.38
850.454	10.24
850.63	59.39
850.805	75.77
850.98	32.77
851.155	22.53
851.33	-2.05
851.505	36.86
851.681	67.58
851.856	69.63
852.031	28.67
852.206	-38.91
852.381	18.43
852.556	45.06
852.731	-12.29
852.906	90.11
853.081	-28.67
853.256	-0
853.431	20.48
853.606	14.34
853.781	-10.24
853.956	-0
854.131	-20.48
854.305	34.82
854.48	51.2
854.655	-49.15
854.83	-6.14
855.005	6.14
855.18	22.53
855.354	16.38
855.529	-4.1
855.704	-22.53
855.879	-6.14
856.053	57.34
856.228	61.44
856.403	-51.2
856.577	53.25
856.752	-69.63
856.926	-20.48
857.101	32.77
857.276	-10.24
857.45	40.96
857.625	24.58
857.799	30.72
857.974	12.29
858.148	10.24
858.323	-38.91
858.497	34.82
858.672	2.05
858.846	26.62
859.02	18.43
859.195	-61.44
859.369	38.91
859.543	69.63
859.718	59.39
859.892	36.86
860.066	90.11
860.241	-8.19
860.415	16.38
860.589	-36.86
860.763	26.62
860.938	-43.01
861.112	34.82
861.286	-86.01
861.46	-4.1
861.634	8.19
861.808	20.48
861.982	14.34
862.157	12.29
862.331	32.77
862.505	-28.67
862.679	16.38
862.853	34.82
863.027	16.38
863.201	30.72
863.375	16.38
863.549	30.72
863.722	12.29
863.896	40.96
864.07	8.19
864.244	10.24
864.418	63.49
864.592	32.77
864.766	22.53
864.939	-55.3
865.113	32.77
865.287	81.92
865.461	-0
865.634	-8.19
865.808	-104.45
865.982	51.2
866.156	-4.1
866.329	92.16
866.503	2.05
866.676	26.62
866.85	-43.01
867.024	32.77
867.197	57.34
867.371	51.2
867.544	18.43
867.718	-38.91
867.891	45.06
868.065	10.24
868.238	-43.01
868.412	90.11
868.585	67.58
868.759	30.72
868.932	14.34
869.105	-59.39
869.279	-49.15
869.452	12.29
869.625	24.58
869.799	26.62
869.972	38.91
870.145	18.43
870.319	-24.58
870.492	73.73
870.665	36.86
870.838	47.1
871.011	-24.58
871.185	38.91
871.358	118.78
871.531	45.06
871.704	34.82
871.877	14.34
872.05	-6.14
872.223	20.48
872.396	53.25
872.569	57.34
872.742	24.58
872.915	-24.58
873.088	32.77
873.261	-12.29
873.434	43.01
873.607	24.58
873.78	24.58
873.953	-0
874.126	88.06
874.299	6.14
874.471	8.19
874.644	-10.24
874.817	-0
874.99	61.44
875.163	-24.58
875.335	-12.29
875.508	14.34
875.681	22.53
875.853	8.19
876.026	43.01
876.199	63.49
876.371	20.48
876.544	-32.77
876.717	-14.34
876.889	57.34
877.062	-32.77
877.234	-4.1
877.407	71.68
877.579	-18.43
877.752	-12.29
877.924	67.58
878.097	55.3
878.269	-10.24
878.442	-16.38
878.614	26.62
878.786	-36.86
878.959	47.1
879.131	40.96
879.303	-10.24
879.476	-8.19
879.648	8.19
879.82	-4.1
879.993	77.82
880.165	-14.34
880.337	-24.58
880.509	-8.19
880.681	-2.05
880.854	-32.77
881.026	28.67
881.198	40.96
881.37	6.14
881.542	24.58
881.714	18.43
881.886	14.34
882.058	65.53
882.23	-22.53
882.402	-32.77
882.574	-57.34
882.746	16.38
882.918	-12.29
883.09	81.92
883.262	12.29
883.434	18.43
883.606	65.53
883.778	-26.62
883.95	16.38
884.122	-40.96
884.293	6.14
884.465	6.14
884.637	32.77
884.809	-24.58
884.98	38.91
885.152	-26.62
885.324	-53.25
885.496	-24.58
885.667	-4.1
885.839	2.05
886.011	79.87
886.182	-6.14
886.354	34.82
886.525	-75.77
886.697	-6.14
886.869	-10.24
887.04	2.05
887.212	30.72
887.383	2.05
887.555	26.62
887.726	28.67
887.897	-38.91
888.069	-32.77
888.24	-45.06
888.412	22.53
888.583	32.77
888.754	77.82
888.926	24.58
889.097	-12.29
889.268	71.68
889.44	-18.43
889.611	45.06
889.782	-73.73
889.953	-26.62
890.125	8.19
890.296	51.2
890.467	-26.62
890.638	-30.72
890.809	12.29
890.98	8.19
891.151	-110.59
891.323	45.06
891.494	57.34
891.665	-43.01
891.836	-20.48
892.007	-20.48
892.178	-12.29
892.349	18.43
892.52	12.29
892.691	-18.43
892.862	-20.48
893.032	-6.14
893.203	34.82
893.374	-18.43
893.545	51.2
893.716	-14.34
893.887	-28.67
894.057	55.3
894.228	-10.24
894.399	-49.15
894.57	49.15
894.74	34.82
894.911	30.72
895.082	-16.38
895.253	-0
895.423	-32.77
895.594	36.86
895.764	-59.39
895.935	28.67
896.106	-36.86
896.276	12.29
896.447	73.73
896.617	22.53
896.788	-8.19
896.958	6.14
897.129	28.67
897.299	-8.19
897.47	30.72
897.64	-2.05
897.81	-4.1
897.981	55.3
898.151	61.44
898.322	10.24
898.492	-24.58
898.662	43.01
898.832	-22.53
899.003	18.43
899.173	-10.24
899.343	12.29
899.513	26.62
