Data from USB4F104151__83__11-31-48-804.txt Node

Date: Fri Mar 14 11:31:48 EDT 2025
User: louis
Spectrometer: USB4F10415
Trigger mode: 4
Integration Time (sec): 5.000000E-2
Scans to average: 1
Electric dark correction enabled: true
Nonlinearity correction enabled: false
Boxcar width: 0
XAxis mode: Wavelengths
Number of Pixels in Spectrum: 3648
>>>>>Begin Spectral Data<<<<<
178.204	-132.44
178.424	-132.44
178.644	-132.44
178.864	-150.87
179.084	-165.2
179.304	-52.56
179.524	55.98
179.744	-50.52
179.964	15.02
180.184	64.17
180.404	2.73
180.624	12.97
180.844	-27.99
181.064	-15.7
181.283	4.78
181.503	-56.66
181.723	47.79
181.943	-77.14
182.163	29.35
182.383	-19.8
182.602	23.21
182.822	68.27
183.042	6.83
183.262	-32.08
183.482	-30.04
183.701	-5.46
183.921	43.69
184.141	-25.94
184.361	55.98
184.58	19.11
184.8	-58.71
185.02	74.41
185.239	39.59
185.459	6.83
185.679	58.03
185.898	-38.23
186.118	-42.32
186.338	-3.41
186.557	90.79
186.777	2.73
186.997	-25.94
187.216	21.16
187.436	80.55
187.655	90.79
187.875	8.87
188.095	4.78
188.314	31.4
188.534	74.41
188.753	21.16
188.973	82.6
189.192	47.79
189.412	19.11
189.631	-71
189.851	86.7
190.07	78.51
190.29	6.83
190.509	31.4
190.729	-19.8
190.948	33.45
191.168	207.53
191.387	76.46
191.607	-44.37
191.826	39.59
192.045	64.17
192.265	25.26
192.484	8.87
192.704	-17.75
192.923	-25.94
193.142	158.38
193.362	23.21
193.581	70.31
193.8	80.55
194.02	68.27
194.239	35.5
194.458	15.02
194.678	-27.99
194.897	53.93
195.116	27.31
195.335	-42.32
195.555	-25.94
195.774	66.22
195.993	127.66
196.212	-25.94
196.432	-25.94
196.651	41.64
196.87	0.68
197.089	80.55
197.308	92.84
197.528	70.31
197.747	35.5
197.966	49.83
198.185	119.46
198.404	80.55
198.623	-7.51
198.842	23.21
199.062	-1.37
199.281	35.5
199.5	-21.85
199.719	10.92
199.938	103.08
200.157	35.5
200.376	-11.61
200.595	60.07
200.814	-9.56
201.033	-9.56
201.252	84.65
201.471	12.97
201.69	19.11
201.909	78.51
202.128	-11.61
202.347	2.73
202.566	55.98
202.785	-32.08
203.004	-1.37
203.223	39.59
203.442	47.79
203.661	-17.75
203.879	-9.56
204.098	-38.23
204.317	23.21
204.536	-3.41
204.755	-62.8
204.974	35.5
205.193	47.79
205.411	88.75
205.63	-9.56
205.849	2.73
206.068	35.5
206.287	12.97
206.505	60.07
206.724	29.35
206.943	39.59
207.162	12.97
207.381	-9.56
207.599	64.17
207.818	25.26
208.037	12.97
208.255	21.16
208.474	60.07
208.693	49.83
208.911	68.27
209.13	4.78
209.349	-19.8
209.567	45.74
209.786	49.83
210.005	35.5
210.223	6.83
210.442	-50.52
210.661	62.12
210.879	10.92
211.098	8.87
211.316	-21.85
211.535	55.98
211.753	-68.95
211.972	-13.65
212.191	19.11
212.409	29.35
212.628	109.22
212.846	21.16
213.065	-36.18
213.283	55.98
213.502	4.78
213.72	84.65
213.938	82.6
214.157	-17.75
214.375	-46.42
214.594	31.4
214.812	15.02
215.031	-5.46
215.249	10.92
215.467	43.69
215.686	25.26
215.904	60.07
216.122	49.83
216.341	64.17
216.559	45.74
216.778	51.88
216.996	37.55
217.214	-9.56
217.432	-1.37
217.651	12.97
217.869	6.83
218.087	-17.75
218.306	-25.94
218.524	60.07
218.742	6.83
218.96	64.17
219.179	0.68
219.397	-30.04
219.615	90.79
219.833	47.79
220.051	39.59
220.27	92.84
220.488	49.83
220.706	25.26
220.924	-11.61
221.142	6.83
221.36	45.74
221.578	62.12
221.796	47.79
222.015	53.93
222.233	39.59
222.451	62.12
222.669	10.92
222.887	51.88
223.105	-40.28
223.323	21.16
223.541	10.92
223.759	37.55
223.977	-60.76
224.195	12.97
224.413	25.26
224.631	47.79
224.849	6.83
225.067	39.59
225.285	-3.41
225.503	23.21
225.721	-75.09
225.939	27.31
226.157	43.69
226.375	94.89
226.592	10.92
226.81	47.79
227.028	64.17
227.246	144.04
227.464	-40.28
227.682	64.17
227.9	70.31
228.117	-34.13
228.335	15.02
228.553	-23.89
228.771	51.88
228.989	0.68
229.206	-5.46
229.424	-3.41
229.642	-17.75
229.86	-21.85
230.077	53.93
230.295	53.93
230.513	55.98
230.731	88.75
230.948	8.87
231.166	101.03
231.384	19.11
231.601	29.35
231.819	92.84
232.037	21.16
232.254	-42.32
232.472	-34.13
232.689	-71
232.907	51.88
233.125	-97.62
233.342	-9.56
233.56	23.21
233.777	-21.85
233.995	-38.23
234.213	35.5
234.43	96.94
234.648	68.27
234.865	-32.08
235.083	-23.89
235.3	47.79
235.518	15.02
235.735	72.36
235.953	101.03
236.17	39.59
236.388	-50.52
236.605	94.89
236.822	-9.56
237.04	64.17
237.257	6.83
237.475	-1.37
237.692	-5.46
237.909	45.74
238.127	47.79
238.344	53.93
238.562	-17.75
238.779	-11.61
238.996	55.98
239.214	6.83
239.431	43.69
239.648	15.02
239.865	90.79
240.083	27.31
240.3	-9.56
240.517	-15.7
240.735	12.97
240.952	76.46
241.169	47.79
241.386	35.5
241.603	37.55
241.821	-1.37
242.038	96.94
242.255	-1.37
242.472	35.5
242.689	-17.75
242.907	70.31
243.124	84.65
243.341	39.59
243.558	6.83
243.775	21.16
243.992	72.36
244.209	-21.85
244.426	29.35
244.643	53.93
244.86	-19.8
245.078	-1.37
245.295	39.59
245.512	10.92
245.729	-15.7
245.946	-5.46
246.163	43.69
246.38	10.92
246.597	33.45
246.814	60.07
247.031	49.83
247.248	55.98
247.464	45.74
247.681	25.26
247.898	2.73
248.115	17.07
248.332	41.64
248.549	12.97
248.766	49.83
248.983	41.64
249.2	-15.7
249.417	-56.66
249.633	64.17
249.85	-46.42
250.067	21.16
250.284	70.31
250.501	25.26
250.717	49.83
250.934	-58.71
251.151	-25.94
251.368	-27.99
251.585	-3.41
251.801	31.4
252.018	-52.56
252.235	60.07
252.451	-44.37
252.668	2.73
252.885	51.88
253.102	53.93
253.318	94.89
253.535	-19.8
253.752	-3.41
253.968	2.73
254.185	2.73
254.401	60.07
254.618	78.51
254.835	-38.23
255.051	133.8
255.268	-25.94
255.484	37.55
255.701	-46.42
255.917	43.69
256.134	37.55
256.351	-3.41
256.567	29.35
256.784	17.07
257	-79.19
257.217	31.4
257.433	12.97
257.65	125.61
257.866	29.35
258.082	-52.56
258.299	39.59
258.515	68.27
258.732	78.51
258.948	58.03
259.165	43.69
259.381	-17.75
259.597	6.83
259.814	-7.51
260.03	12.97
260.246	4.78
260.463	39.59
260.679	70.31
260.895	35.5
261.112	53.93
261.328	-30.04
261.544	6.83
261.761	84.65
261.977	10.92
262.193	-25.94
262.409	135.85
262.626	35.5
262.842	-38.23
263.058	37.55
263.274	80.55
263.49	-9.56
263.707	-3.41
263.923	78.51
264.139	-46.42
264.355	6.83
264.571	78.51
264.787	33.45
265.004	86.7
265.22	27.31
265.436	-58.71
265.652	-58.71
265.868	98.99
266.084	-5.46
266.3	17.07
266.516	17.07
266.732	139.94
266.948	2.73
267.164	2.73
267.38	0.68
267.596	103.08
267.812	115.37
268.028	23.21
268.244	6.83
268.46	19.11
268.676	62.12
268.892	74.41
269.108	-34.13
269.324	31.4
269.54	6.83
269.756	72.36
269.972	-50.52
270.188	-7.51
270.403	53.93
270.619	31.4
270.835	37.55
271.051	0.68
271.267	23.21
271.483	0.68
271.698	45.74
271.914	21.16
272.13	19.11
272.346	29.35
272.562	-13.65
272.777	105.13
272.993	-58.71
273.209	27.31
273.425	37.55
273.64	-3.41
273.856	15.02
274.072	2.73
274.287	-34.13
274.503	25.26
274.719	31.4
274.934	35.5
275.15	6.83
275.366	-5.46
275.581	94.89
275.797	47.79
276.012	-34.13
276.228	64.17
276.444	25.26
276.659	84.65
276.875	-58.71
277.09	-27.99
277.306	43.69
277.521	17.07
277.737	-1.37
277.952	41.64
278.168	2.73
278.383	27.31
278.599	-19.8
278.814	35.5
279.03	-11.61
279.245	53.93
279.461	23.21
279.676	12.97
279.892	-17.75
280.107	8.87
280.322	-40.28
280.538	35.5
280.753	-13.65
280.969	53.93
281.184	27.31
281.399	47.79
281.615	47.79
281.83	60.07
282.045	76.46
282.26	-3.41
282.476	10.92
282.691	76.46
282.906	70.31
283.122	45.74
283.337	37.55
283.552	43.69
283.767	55.98
283.983	39.59
284.198	-9.56
284.413	47.79
284.628	0.68
284.843	-11.61
285.058	-27.99
285.274	19.11
285.489	10.92
285.704	35.5
285.919	-36.18
286.134	60.07
286.349	39.59
286.564	-66.9
286.779	2.73
286.995	55.98
287.21	-15.7
287.425	39.59
287.64	-27.99
287.855	53.93
288.07	-42.32
288.285	-19.8
288.5	8.87
288.715	-30.04
288.93	-30.04
289.145	-15.7
289.36	27.31
289.575	-9.56
289.79	94.89
290.004	-21.85
290.219	119.46
290.434	80.55
290.649	-23.89
290.864	23.21
291.079	35.5
291.294	55.98
291.509	51.88
291.724	47.79
291.938	17.07
292.153	41.64
292.368	-50.52
292.583	12.97
292.798	53.93
293.012	78.51
293.227	2.73
293.442	74.41
293.657	51.88
293.871	23.21
294.086	53.93
294.301	150.18
294.516	103.08
294.73	47.79
294.945	10.92
295.16	0.68
295.374	23.21
295.589	35.5
295.804	41.64
296.018	2.73
296.233	96.94
296.447	31.4
296.662	0.68
296.877	29.35
297.091	96.94
297.306	37.55
297.52	-3.41
297.735	35.5
297.949	12.97
298.164	53.93
298.378	-1.37
298.593	15.02
298.807	55.98
299.022	21.16
299.236	84.65
299.451	23.21
299.665	33.45
299.88	68.27
300.094	88.75
300.309	-42.32
300.523	17.07
300.737	-25.94
300.952	31.4
301.166	6.83
301.381	17.07
301.595	-17.75
301.809	101.03
302.024	70.31
302.238	-68.95
302.452	72.36
302.667	-36.18
302.881	-17.75
303.095	105.13
303.309	-38.23
303.524	6.83
303.738	-60.76
303.952	49.83
304.166	4.78
304.381	-99.67
304.595	45.74
304.809	-3.41
305.023	41.64
305.237	4.78
305.452	-7.51
305.666	2.73
305.88	45.74
306.094	45.74
306.308	-34.13
306.522	-44.37
306.736	4.78
306.95	-17.75
307.164	78.51
307.379	27.31
307.593	107.18
307.807	55.98
308.021	27.31
308.235	35.5
308.449	-25.94
308.663	-9.56
308.877	94.89
309.091	-36.18
309.305	55.98
309.519	-42.32
309.733	37.55
309.947	-27.99
310.161	60.07
310.374	23.21
310.588	115.37
310.802	-68.95
311.016	-73.04
311.23	58.03
311.444	-5.46
311.658	23.21
311.872	35.5
312.085	8.87
312.299	19.11
312.513	82.6
312.727	27.31
312.941	58.03
313.154	76.46
313.368	90.79
313.582	45.74
313.796	47.79
314.009	29.35
314.223	45.74
314.437	88.75
314.651	-1.37
314.864	0.68
315.078	47.79
315.292	6.83
315.505	15.02
315.719	-17.75
315.933	33.45
316.146	35.5
316.36	-34.13
316.573	55.98
316.787	31.4
317.001	78.51
317.214	2.73
317.428	29.35
317.641	2.73
317.855	35.5
318.068	51.88
318.282	-13.65
318.495	111.27
318.709	-9.56
318.922	-5.46
319.136	43.69
319.349	27.31
319.563	-30.04
319.776	15.02
319.99	-105.81
320.203	72.36
320.417	10.92
320.63	55.98
320.843	39.59
321.057	98.99
321.27	-25.94
321.483	82.6
321.697	27.31
321.91	88.75
322.124	45.74
322.337	27.31
322.55	-11.61
322.763	21.16
322.977	10.92
323.19	6.83
323.403	-50.52
323.617	-17.75
323.83	-5.46
324.043	-3.41
324.256	107.18
324.469	-9.56
324.683	80.55
324.896	-5.46
325.109	12.97
325.322	15.02
325.535	43.69
325.748	4.78
325.962	19.11
326.175	-9.56
326.388	98.99
326.601	49.83
326.814	-5.46
327.027	-66.9
327.24	64.17
327.453	-30.04
327.666	41.64
327.879	53.93
328.092	4.78
328.305	25.26
328.518	27.31
328.731	-44.37
328.944	84.65
329.157	35.5
329.37	4.78
329.583	55.98
329.796	74.41
330.009	-52.56
330.222	31.4
330.435	37.55
330.648	66.22
330.861	31.4
331.073	64.17
331.286	39.59
331.499	8.87
331.712	-5.46
331.925	51.88
332.138	51.88
332.35	47.79
332.563	-1.37
332.776	51.88
332.989	37.55
333.202	64.17
333.414	-30.04
333.627	68.27
333.84	51.88
334.053	2.73
334.265	-38.23
334.478	-38.23
334.691	27.31
334.903	29.35
335.116	17.07
335.329	-36.18
335.541	43.69
335.754	31.4
335.966	-27.99
336.179	-52.56
336.392	-23.89
336.604	27.31
336.817	70.31
337.029	43.69
337.242	8.87
337.454	-34.13
337.667	-1.37
337.88	84.65
338.092	-50.52
338.305	-3.41
338.517	-32.08
338.729	111.27
338.942	53.93
339.154	15.02
339.367	-25.94
339.579	33.45
339.792	31.4
340.004	23.21
340.217	12.97
340.429	39.59
340.641	-54.61
340.854	19.11
341.066	2.73
341.278	51.88
341.491	15.02
341.703	10.92
341.915	-15.7
342.128	70.31
342.34	19.11
342.552	27.31
342.764	60.07
342.977	25.26
343.189	27.31
343.401	-1.37
343.613	-17.75
343.826	-32.08
344.038	2.73
344.25	94.89
344.462	39.59
344.674	70.31
344.886	68.27
345.099	53.93
345.311	60.07
345.523	-23.89
345.735	17.07
345.947	88.75
346.159	-9.56
346.371	55.98
346.583	45.74
346.795	39.59
347.007	37.55
347.219	35.5
347.431	-13.65
347.643	125.61
347.855	35.5
348.067	45.74
348.279	-91.48
348.491	31.4
348.703	47.79
348.915	-42.32
349.127	-32.08
349.339	33.45
349.551	-21.85
349.763	37.55
349.975	-68.95
350.187	74.41
350.399	107.18
350.61	45.74
350.822	62.12
351.034	58.03
351.246	-9.56
351.458	35.5
351.669	29.35
351.881	129.7
352.093	43.69
352.305	6.83
352.517	78.51
352.728	129.7
352.94	60.07
353.152	4.78
353.363	-3.41
353.575	23.21
353.787	55.98
353.999	31.4
354.21	94.89
354.422	25.26
354.633	15.02
354.845	6.83
355.057	45.74
355.268	-13.65
355.48	78.51
355.692	-11.61
355.903	4.78
356.115	60.07
356.326	-27.99
356.538	-3.41
356.749	39.59
356.961	146.09
357.172	68.27
357.384	27.31
357.595	43.69
357.807	62.12
358.018	49.83
358.23	-19.8
358.441	51.88
358.653	37.55
358.864	10.92
359.075	19.11
359.287	68.27
359.498	-3.41
359.709	43.69
359.921	80.55
360.132	53.93
360.344	23.21
360.555	-52.56
360.766	39.59
360.977	-36.18
361.189	23.21
361.4	51.88
361.611	53.93
361.823	21.16
362.034	80.55
362.245	-34.13
362.456	55.98
362.667	137.9
362.879	-25.94
363.09	6.83
363.301	51.88
363.512	-75.09
363.723	12.97
363.935	-21.85
364.146	70.31
364.357	101.03
364.568	27.31
364.779	-83.28
364.99	78.51
365.201	21.16
365.412	27.31
365.623	-71
365.834	45.74
366.045	6.83
366.256	23.21
366.467	80.55
366.678	6.83
366.889	39.59
367.1	4.78
367.311	-44.37
367.522	43.69
367.733	15.02
367.944	-21.85
368.155	47.79
368.366	31.4
368.577	39.59
368.788	78.51
368.999	-17.75
369.209	27.31
369.42	53.93
369.631	92.84
369.842	19.11
370.053	39.59
370.264	45.74
370.474	2.73
370.685	19.11
370.896	76.46
371.107	31.4
371.317	66.22
371.528	23.21
371.739	62.12
371.95	2.73
372.16	55.98
372.371	-40.28
372.582	23.21
372.792	111.27
373.003	12.97
373.214	33.45
373.424	113.32
373.635	51.88
373.846	2.73
374.056	-1.37
374.267	39.59
374.477	94.89
374.688	72.36
374.898	80.55
375.109	-5.46
375.319	43.69
375.53	90.79
375.74	45.74
375.951	-9.56
376.161	45.74
376.372	109.22
376.582	47.79
376.793	111.27
377.003	-21.85
377.214	-34.13
377.424	94.89
377.635	82.6
377.845	21.16
378.055	86.7
378.266	35.5
378.476	-9.56
378.686	-9.56
378.897	86.7
379.107	43.69
379.317	76.46
379.528	21.16
379.738	51.88
379.948	-83.28
380.158	64.17
380.369	55.98
380.579	60.07
380.789	78.51
380.999	58.03
381.21	109.22
381.42	84.65
381.63	84.65
381.84	86.7
382.05	35.5
382.261	117.42
382.471	80.55
382.681	-99.67
382.891	113.32
383.101	-21.85
383.311	76.46
383.521	49.83
383.731	105.13
383.941	43.69
384.151	76.46
384.361	25.26
384.571	144.04
384.781	64.17
384.991	72.36
385.201	84.65
385.411	68.27
385.621	70.31
385.831	-19.8
386.041	66.22
386.251	72.36
386.461	131.75
386.671	-15.7
386.881	-3.41
387.091	66.22
387.301	105.13
387.511	47.79
387.72	84.65
387.93	64.17
388.14	21.16
388.35	51.88
388.56	27.31
388.769	103.08
388.979	58.03
389.189	43.69
389.399	37.55
389.609	21.16
389.818	78.51
390.028	115.37
390.238	29.35
390.447	78.51
390.657	72.36
390.867	53.93
391.076	64.17
391.286	31.4
391.496	37.55
391.705	125.61
391.915	60.07
392.125	68.27
392.334	15.02
392.544	137.9
392.753	23.21
392.963	58.03
393.172	74.41
393.382	-21.85
393.591	55.98
393.801	25.26
394.01	88.75
394.22	111.27
394.429	23.21
394.639	78.51
394.848	60.07
395.058	72.36
395.267	127.66
395.477	70.31
395.686	31.4
395.895	164.52
396.105	176.81
396.314	60.07
396.524	88.75
396.733	62.12
396.942	92.84
397.152	70.31
397.361	217.77
397.57	53.93
397.78	101.03
397.989	49.83
398.198	121.51
398.407	98.99
398.617	62.12
398.826	105.13
399.035	51.88
399.244	137.9
399.453	51.88
399.663	135.85
399.872	146.09
400.081	70.31
400.29	193.19
400.499	74.41
400.708	82.6
400.917	45.74
401.127	121.51
401.336	107.18
401.545	158.38
401.754	127.66
401.963	133.8
402.172	121.51
402.381	105.13
402.59	107.18
402.799	76.46
403.008	133.8
403.217	162.47
403.426	103.08
403.635	193.19
403.844	133.8
404.053	191.14
404.262	141.99
404.471	156.33
404.68	105.13
404.888	101.03
405.097	113.32
405.306	168.62
405.515	197.29
405.724	70.31
405.933	125.61
406.142	146.09
406.35	129.7
406.559	178.86
406.768	156.33
406.977	262.82
407.185	164.52
407.394	205.48
407.603	92.84
407.812	115.37
408.02	223.91
408.229	148.14
408.438	203.43
408.646	172.71
408.855	162.47
409.064	236.2
409.272	178.86
409.481	240.29
409.69	238.25
409.898	223.91
410.107	248.49
410.315	268.97
410.524	217.77
410.733	256.68
410.941	316.07
411.15	289.45
411.358	344.74
411.567	369.32
411.775	365.22
411.984	387.75
412.192	389.8
412.401	379.56
412.609	357.03
412.818	502.43
413.026	402.08
413.234	387.75
413.443	467.62
413.651	496.29
413.86	475.81
414.068	508.58
414.276	527.01
414.485	457.38
414.693	555.68
414.901	631.46
415.11	567.97
415.318	578.21
415.526	578.21
415.734	696.99
415.943	711.33
416.151	703.14
416.359	613.03
416.567	742.05
416.776	744.1
416.984	875.17
417.192	836.25
417.4	846.49
417.608	852.64
417.817	981.66
418.025	932.51
418.233	1030.81
418.441	973.47
418.649	1034.91
418.857	1129.11
419.065	1079.96
419.273	1188.5
419.481	1254.04
419.689	1211.03
419.897	1170.07
420.105	1315.48
420.313	1282.71
420.521	1381.01
420.729	1432.21
420.937	1411.73
421.145	1444.5
421.353	1464.98
421.561	1677.97
421.769	1692.3
421.977	1686.16
422.185	1669.78
422.393	1729.17
422.601	1923.73
422.809	1989.26
423.017	1952.4
423.224	2040.46
423.432	2112.14
423.64	2075.27
423.848	2370.18
424.056	2194.06
424.263	2398.85
424.471	2419.33
424.679	2497.16
424.887	2566.79
425.094	2671.23
425.302	2632.32
425.51	2751.1
425.718	2972.29
425.925	2923.13
426.133	2919.04
426.341	3005.05
426.548	3338.87
426.756	3353.21
426.964	3365.5
427.171	3500.66
427.379	3779.19
427.586	3621.49
427.794	3791.47
428.001	3920.49
428.209	4303.47
428.417	3988.08
428.624	4225.64
428.832	4393.58
429.039	4438.63
429.247	4532.84
429.454	4758.11
429.662	5165.66
429.869	4717.15
430.076	5132.89
430.284	4962.91
430.491	5204.57
430.699	5648.98
430.906	5448.28
431.114	5552.73
431.321	5945.94
431.528	5853.78
431.736	6173.26
431.943	6490.7
432.15	6201.93
432.358	6496.84
432.565	6580.81
432.772	6767.17
432.979	7014.98
433.187	7117.37
433.394	7270.97
433.601	7815.73
433.808	7760.44
434.016	7639.61
434.223	8016.43
434.43	8264.24
434.637	8170.03
434.844	8671.78
435.052	9122.34
435.259	8950.31
435.466	9021.98
435.673	8903.2
435.88	9583.13
436.087	9962
436.294	10086.93
436.501	9632.28
436.708	9908.76
436.915	10328.59
437.122	10934.79
437.329	10744.33
437.537	11225.6
437.743	11170.3
437.95	11141.63
438.157	11827.7
438.364	12153.33
438.571	12325.36
438.778	12220.91
438.985	13509.08
439.192	12712.42
439.399	13504.99
439.606	12823.01
439.813	13699.55
440.02	14557.64
440.227	14158.29
440.433	14109.14
440.64	14805.45
440.847	14389.71
441.054	14733.77
441.261	15722.94
441.467	15483.33
441.674	15929.78
441.881	16585.13
442.088	16214.45
442.294	16304.56
442.501	16705.96
442.708	16910.76
442.914	17783.2
443.121	18561.42
443.328	17887.64
443.534	19366.28
443.741	18874.76
443.948	18385.3
444.154	19888.51
444.361	19818.88
444.568	19982.71
444.774	20085.11
444.981	20027.77
445.187	20593.01
445.394	21522.79
445.6	21424.48
445.807	23329.09
446.013	22425.94
446.22	22776.14
446.426	23808.32
446.633	23925.05
446.839	24557.88
447.046	23349.57
447.252	24992.05
447.459	24817.97
447.665	24820.02
447.871	26020.13
448.078	27162.89
448.284	25893.15
448.491	26773.78
448.697	27808
448.903	27853.06
449.11	28107.01
449.316	27769.09
449.522	28360.95
449.728	28991.73
449.935	29223.15
450.141	29227.24
450.347	30284
450.553	28635.38
450.76	29157.61
450.966	30200.03
451.172	29731.04
451.378	30626.01
451.584	29837.54
451.791	30480.6
451.997	30505.18
452.203	31045.84
452.409	30791.89
452.615	30830.8
452.821	29692.13
453.027	29645.03
453.233	30998.74
453.44	29462.76
453.646	29980.9
453.852	30195.93
454.058	30464.22
454.264	29776.1
454.47	29997.28
454.676	29608.17
454.882	30576.86
455.088	27889.92
455.294	27998.46
455.5	28688.63
455.705	28944.62
455.911	27875.59
456.117	27142.41
456.323	26880.27
456.529	25323.82
456.735	26538.26
456.941	25770.27
457.147	25332.01
457.352	24590.64
457.558	24217.91
457.764	24480.05
457.97	23832.9
458.176	23277.9
458.381	23421.25
458.587	22190.42
458.793	22249.82
458.999	21008.75
459.204	22585.68
459.41	21614.94
459.616	20330.87
459.821	20566.38
460.027	20371.83
460.233	20017.53
460.438	19085.7
460.644	19270.02
460.85	18551.18
461.055	18139.54
461.261	18000.28
461.466	16699.82
461.672	16513.45
461.878	17220
462.083	16300.47
462.289	16005.56
462.494	15610.3
462.7	15208.9
462.905	14621.13
463.111	15088.07
463.316	15016.39
463.522	14897.61
463.727	14905.8
463.932	15012.29
464.138	14588.36
464.343	14653.9
464.549	14213.59
464.754	14881.22
464.959	14473.68
465.165	14440.91
465.37	13830.62
465.575	13511.13
465.781	14162.39
465.986	14076.37
466.191	13642.2
466.397	13267.42
466.602	12644.84
466.807	13044.2
467.012	13242.85
467.218	13203.94
467.423	12902.89
467.628	13257.18
467.833	13478.36
468.038	12882.41
468.244	12796.39
468.449	13095.39
468.654	12917.22
468.859	12610.03
469.064	12562.92
469.269	12126.71
469.474	12024.31
469.679	12216.82
469.885	12114.42
470.09	12294.64
470.295	12175.86
470.5	12040.69
470.705	12042.74
470.91	11686.39
471.115	11696.63
471.32	11688.44
471.525	11678.2
471.73	11389.44
471.935	11368.96
472.139	11039.23
472.344	10949.12
472.549	10985.99
472.754	10975.75
472.959	10533.39
473.164	10609.16
473.369	10279.44
473.574	10547.72
473.778	10588.68
473.983	10512.91
474.188	10441.23
474.393	9875.99
474.598	10050.07
474.802	9898.52
475.007	9828.88
475.212	9929.24
475.417	9476.63
475.621	9622.04
475.826	9517.59
476.031	9198.11
476.235	9028.13
476.44	9364
476.645	9069.09
476.849	9140.77
477.054	9048.61
477.259	8987.17
477.463	8983.07
477.668	8679.97
477.872	8696.36
478.077	8591.91
478.282	8383.02
478.486	8383.02
478.691	8348.2
478.895	8426.03
479.1	8235.56
479.304	8356.4
479.509	8034.86
479.713	8167.98
479.918	7918.13
480.122	8059.44
480.326	7991.86
480.531	7887.41
480.735	7774.77
480.94	7727.67
481.144	8157.74
481.348	7682.61
481.553	7733.81
481.757	7596.6
481.961	7739.96
482.166	7830.07
482.37	7615.03
482.574	7590.45
482.778	7580.21
482.983	7785.01
483.187	7666.23
483.391	7617.08
483.595	7590.45
483.8	7453.24
484.004	7658.04
484.208	7780.92
484.412	7612.98
484.616	7641.65
484.821	7623.22
485.025	7592.5
485.229	7707.19
485.433	7543.35
485.637	7668.28
485.841	7535.16
486.045	7647.8
486.249	7672.37
486.453	7506.49
486.657	7399.99
486.861	7529.02
487.065	7379.51
487.269	7649.85
487.473	7410.23
487.677	7756.34
487.881	7791.16
488.085	7639.61
488.289	7483.96
488.493	7699
488.697	7742
488.901	7582.26
489.105	7647.8
489.309	7629.37
489.512	7701.05
489.716	7707.19
489.92	7625.27
490.124	7668.28
490.328	7785.01
490.531	7746.1
490.735	7873.07
490.939	7862.83
491.143	7600.69
491.346	7795.25
491.55	8135.21
491.754	7834.16
491.958	8032.82
492.161	7975.47
492.365	7891.51
492.569	8034.86
492.772	8213.04
492.976	7993.9
493.18	8116.78
493.383	8149.55
493.587	8239.66
493.79	8452.65
493.994	8446.51
494.197	8393.26
494.401	8313.39
494.605	8337.96
494.808	8636.97
495.012	8546.86
495.215	8618.54
495.419	8686.12
495.622	8653.35
495.825	8806.95
496.029	8829.48
496.232	9140.77
496.436	9032.22
496.639	9218.59
496.843	9079.33
497.046	9540.12
497.249	9415.19
497.453	9445.91
497.656	9693.72
497.859	9474.59
498.063	9613.85
498.266	9941.52
498.469	9943.57
498.673	9828.88
498.876	10054.16
499.079	10095.12
499.282	10312.21
499.485	10721.8
499.689	10428.94
499.892	10979.84
500.095	10707.46
500.298	10902.02
500.501	10818.05
500.705	11164.16
500.908	11078.15
501.111	11409.92
501.314	11540.99
501.517	11500.03
501.72	11645.43
501.923	11919.86
502.126	12093.94
502.329	12229.1
502.532	12405.23
502.735	12534.25
502.938	12771.82
503.141	12849.64
503.344	12739.05
503.547	13111.78
503.75	12956.13
503.953	13269.47
504.156	13496.8
504.359	13619.67
504.562	13644.25
504.765	13990.36
504.968	14010.84
505.17	14348.75
505.373	14088.66
505.576	14588.36
505.779	14768.59
505.982	14848.46
506.185	15079.88
506.387	15030.73
506.59	15342.02
506.793	15456.7
506.996	15784.38
507.198	15772.09
507.401	15978.93
507.604	16103.86
507.807	16400.82
508.009	16714.16
508.212	16404.91
508.415	16953.77
508.617	16843.18
508.82	17191.33
509.022	17222.05
509.225	17815.96
509.428	17715.61
509.63	17699.23
509.833	18065.81
510.035	18436.5
510.238	18239.89
510.44	18493.84
510.643	18960.78
510.845	19247.49
511.048	19184.01
511.25	19741.05
511.453	19622.27
511.655	20216.18
511.858	20185.46
512.06	20435.31
512.262	20650.35
512.465	20410.74
512.667	20945.26
512.87	21246.31
513.072	21215.59
513.274	21651.81
513.477	21727.58
513.679	22204.76
513.881	22514
514.084	22323.54
514.286	22522.19
514.488	23077.19
514.69	23492.93
514.893	23750.98
515.095	23699.78
515.297	24236.34
515.499	24187.19
515.701	24748.34
515.904	24867.12
516.106	24944.94
516.308	25524.52
516.51	25831.71
516.712	25809.18
516.914	26063.13
517.116	26763.54
517.318	26761.49
517.52	26618.13
517.722	27273.48
517.925	27435.27
518.127	28303.61
518.329	28240.12
518.531	27969.79
518.733	28506.36
518.935	29157.61
519.136	29276.4
519.338	29382.89
519.54	29958.37
519.742	29782.24
519.944	30548.18
520.146	31025.36
520.348	31008.98
520.55	31324.36
520.752	31514.83
520.954	32239.81
521.155	32342.21
521.357	32491.71
521.559	33181.87
521.761	33591.47
521.963	33853.61
522.164	34130.08
522.366	33933.48
522.568	34484.38
522.77	34744.47
522.971	35377.29
523.173	34885.78
523.375	35946.63
523.576	35621
523.778	36208.77
523.98	36814.97
524.181	36796.54
524.383	37286
524.584	37359.73
524.786	37640.3
524.988	37648.49
525.189	38097
525.391	38406.24
525.592	38627.42
525.794	39288.92
525.995	39096.41
526.197	39368.79
526.398	39620.69
526.6	39931.98
526.801	40521.79
527.003	40585.28
527.204	40915
527.406	41295.92
527.607	41183.29
527.808	41478.19
528.01	41160.76
528.211	41877.55
528.412	42422.31
528.614	42278.95
528.815	42502.18
529.016	43241.49
529.218	42745.89
529.419	43044.89
529.62	43077.66
529.822	43173.91
530.023	43577.36
530.224	43567.12
530.425	43759.63
530.626	44001.29
530.828	43737.1
531.029	44873.73
531.23	44556.29
531.431	44425.22
531.632	44589.06
531.833	45174.78
532.035	44861.44
532.236	45158.39
532.437	45121.53
532.638	44986.36
532.839	45393.91
533.04	45508.6
533.241	44974.08
533.442	46321.64
533.643	45735.92
533.844	45563.89
534.045	46190.57
534.246	45477.88
534.447	46690.27
534.648	46145.51
534.849	46409.7
535.05	46256.1
535.251	46272.49
535.451	46077.93
535.652	46516.2
535.853	46362.6
536.054	46714.85
536.255	46653.41
536.456	46329.83
536.657	47255.51
536.857	46786.53
537.058	46479.33
537.259	47249.37
537.46	47116.25
537.66	46860.26
537.861	47239.13
538.062	46741.47
538.263	47251.42
538.463	46589.92
538.664	47017.95
538.865	47251.42
539.065	47521.75
539.266	46766.05
539.466	47646.68
539.667	46532.58
539.868	47695.83
540.068	47411.16
540.269	47083.48
540.469	47386.58
540.67	47099.87
540.87	47220.7
541.071	47103.96
541.271	47572.95
541.472	47525.85
541.672	46770.14
541.873	47335.38
542.073	46895.07
542.274	47308.76
542.474	47198.17
542.675	47073.24
542.875	47925.2
543.075	47273.95
543.276	46915.55
543.476	47767.51
543.676	47161.31
543.877	47063
544.077	47198.17
544.277	47599.57
544.478	47013.85
544.678	47267.8
544.878	47030.24
545.078	47478.74
545.279	47151.07
545.479	47130.59
545.679	47640.53
545.879	47249.37
546.079	47550.42
546.28	47390.68
546.48	46915.55
546.68	47048.67
546.88	47327.19
547.08	47452.12
547.28	47284.19
547.48	47439.83
547.68	47316.95
547.88	46716.9
548.081	47230.94
548.281	47515.61
548.481	47067.1
548.681	47669.2
548.881	47089.63
549.081	47497.17
549.28	46948.32
549.48	47550.42
549.68	47187.93
549.88	47785.94
550.08	47103.96
550.28	47374.3
550.48	46981.09
550.68	47513.56
550.88	46735.33
551.08	46931.93
551.279	47376.34
551.479	46903.26
551.679	47325.14
551.879	47570.9
552.079	47122.4
552.278	47054.81
552.478	47017.95
552.678	47046.62
552.878	47120.35
553.077	47275.99
553.277	46616.55
553.477	47382.49
553.676	46772.19
553.876	46565.35
554.076	47007.71
554.275	47054.81
554.475	46301.16
554.674	47038.43
554.874	46442.47
555.074	46338.02
555.273	46677.99
555.473	46452.71
555.672	46424.04
555.872	46630.88
556.071	46467.05
556.271	46776.29
556.47	45989.87
556.67	45588.47
556.869	45615.09
557.068	46088.17
557.268	45610.99
557.467	45778.93
557.667	45748.21
557.866	45336.57
558.065	45473.78
558.265	45187.07
558.464	45379.57
558.663	45719.54
558.863	44744.7
559.062	45457.4
559.261	45082.62
559.461	45393.91
559.66	44466.18
559.859	44558.34
560.058	44333.06
560.258	44271.62
560.457	44081.16
560.656	44298.25
560.855	44077.07
561.054	44537.86
561.253	43952.14
561.453	44019.72
561.652	43991.05
561.851	44027.91
562.05	43581.46
562.249	42926.11
562.448	43728.91
562.647	42893.34
562.846	43024.41
563.045	43235.35
563.244	42778.65
563.443	43235.35
563.642	41773.1
563.841	42469.41
564.04	42410.02
564.239	42788.89
564.438	41666.61
564.637	42242.09
564.836	42008.62
565.035	41398.32
565.234	41189.43
565.432	41359.41
565.631	41515.06
565.83	41295.92
566.029	40964.15
566.228	40607.81
566.427	40800.32
566.625	40149.06
566.824	39610.45
567.023	40222.79
567.222	39641.17
567.42	40153.16
567.619	39643.21
567.818	39168.08
568.016	39268.44
568.215	39260.24
568.414	39247.96
568.612	39247.96
568.811	38439.01
569.01	38611.04
569.208	37957.74
569.407	38570.08
569.605	37705.84
569.804	37820.52
570.002	37544.05
570.201	37752.94
570.4	37144.69
570.598	37419.12
570.797	36956.28
570.995	37124.21
571.193	36614.27
571.392	36761.72
571.59	36475.01
571.789	36388.99
571.987	36032.64
572.186	36266.11
572.384	35838.09
572.582	35829.9
572.781	35651.72
572.979	35225.75
573.177	35326.1
573.376	35448.97
573.574	34881.69
573.772	34928.79
573.971	34760.86
574.169	34531.48
574.367	34197.66
574.565	34803.86
574.763	34156.71
574.962	34015.4
575.16	33525.93
575.358	33837.22
575.556	33472.68
575.754	33704.1
575.952	33145.01
576.151	33581.23
576.349	32901.3
576.547	32649.4
576.745	32776.37
576.943	33415.34
577.141	32608.44
577.339	32757.94
577.537	32465.08
577.735	32041.15
577.933	31770.82
578.131	32018.63
578.329	31729.86
578.527	31426.76
578.725	31408.33
578.923	31490.25
579.121	31596.74
579.319	31236.3
579.516	31713.48
579.714	31324.36
579.912	30957.78
580.11	30904.53
580.308	30703.83
580.506	30632.15
580.704	29841.64
580.901	30425.31
581.099	30712.02
581.297	30038.24
581.495	29962.47
581.692	29851.88
581.89	29815.01
582.088	29929.7
582.285	29624.55
582.483	29827.3
582.681	29513.96
582.878	29409.51
583.076	28977.39
583.274	29247.72
583.471	29143.28
583.669	28860.66
583.866	28532.98
584.064	28887.28
584.262	28279.04
584.459	28467.45
584.657	28283.13
584.854	28705.01
585.052	27851.01
585.249	28281.08
585.447	28123.39
585.644	27656.45
585.841	27584.77
586.039	27814.15
586.236	27439.37
586.434	27617.54
586.631	27166.99
586.828	27443.46
587.026	27332.87
587.223	26777.87
587.42	26824.98
587.618	27066.64
587.815	26759.44
588.012	26663.19
588.21	26515.73
588.407	26657.04
588.604	26153.24
588.801	26112.28
588.999	26104.09
589.196	26298.65
589.393	26042.65
589.59	26040.61
589.787	25919.78
589.984	25876.77
590.182	25614.63
590.379	25860.38
590.576	25409.83
590.773	25407.78
590.97	25059.63
591.167	25489.7
591.364	25059.63
591.561	25045.29
591.758	24940.85
591.955	24955.18
592.152	24914.22
592.349	24561.97
592.546	24787.25
592.743	24895.79
592.94	24162.62
593.137	24664.37
593.334	24412.47
593.531	24088.89
593.727	24478.01
593.924	24158.52
594.121	23828.8
594.318	24070.46
594.515	23509.32
594.712	24084.8
594.908	23443.78
595.105	23765.31
595.302	23576.9
595.499	23611.71
595.696	23380.29
595.892	23214.41
596.089	23628.1
596.286	23439.69
596.482	23152.97
596.679	23189.83
596.876	22866.25
597.072	22770
597.269	22616.4
597.466	22604.11
597.662	22784.33
597.859	22380.89
598.055	22436.18
598.252	22444.37
598.448	22495.57
598.645	22374.74
598.841	22045.02
599.038	22233.43
599.234	22208.86
599.431	21778.78
599.627	22008.15
599.824	21547.36
600.02	21643.62
600.217	21610.85
600.413	21547.36
600.609	21281.13
600.806	21330.28
601.002	21461.35
601.198	21096.81
601.395	21164.39
601.591	21225.83
601.787	21117.29
601.984	21059.95
602.18	21076.33
602.376	20701.55
602.572	20703.6
602.769	20861.29
602.965	20418.93
603.161	20683.12
603.357	20418.93
603.553	20146.55
603.75	20369.78
603.946	20185.46
604.142	20287.86
604.338	20242.81
604.534	20054.39
604.73	19585.41
604.926	20060.54
605.122	20146.55
605.318	19710.33
605.514	19863.93
605.71	19493.25
605.906	19382.66
606.102	19722.62
606.298	19487.11
606.494	19577.22
606.69	19351.94
606.886	19413.38
607.082	19181.96
607.278	19229.06
607.474	18907.53
607.67	19134.85
607.866	18712.97
608.062	18966.92
608.257	18825.61
608.453	18944.39
608.649	18610.57
608.845	18463.12
609.041	18737.55
609.236	18735.5
609.432	18600.33
609.628	18649.49
609.824	18383.25
610.019	18233.75
610.215	18469.26
610.411	18434.45
610.606	18174.36
610.802	18477.46
610.998	18311.57
611.193	18229.65
611.389	17955.22
611.584	17815.96
611.78	17994.14
611.976	18033.05
612.171	17762.72
612.367	17947.03
612.562	17684.89
612.758	17484.19
612.953	17580.45
613.149	17801.63
613.344	17480.1
613.539	17781.15
613.735	17537.44
613.93	17389.99
614.126	17144.23
614.321	17457.57
614.517	17553.82
614.712	17447.33
614.907	17316.26
615.103	17029.54
615.298	17002.92
615.493	17316.26
615.688	16906.66
615.884	17101.22
616.079	16898.47
616.274	16773.55
616.47	16867.75
616.665	17047.97
616.86	16834.99
617.055	16761.26
617.25	16525.74
617.445	16918.95
617.641	16284.08
617.836	16497.07
618.031	16370.1
618.226	16675.24
618.421	16263.6
618.616	16482.74
618.811	15874.49
619.006	16427.44
619.201	15956.41
619.396	16140.72
619.591	15806.91
619.786	16019.89
619.981	15641.02
620.176	15880.63
620.371	15741.37
620.566	15524.29
620.761	15399.36
620.956	15335.87
621.151	15274.43
621.346	15460.8
621.541	15057.35
621.735	15358.4
621.93	14860.74
622.125	15036.87
622.32	14657.99
622.515	14725.58
622.709	14584.27
622.904	14889.42
623.099	14735.82
623.294	14528.97
623.488	14383.57
623.683	14440.91
623.878	14180.82
624.072	14055.89
624.267	14254.55
624.462	14209.49
624.656	13941.21
624.851	13947.35
625.046	13894.1
625.24	13699.55
625.435	13593.05
625.629	13638.11
625.824	13580.76
626.018	13404.64
626.213	13308.38
626.407	13392.35
626.602	13128.16
626.796	13119.97
626.991	13210.08
627.185	12874.21
627.38	13103.59
627.574	13029.86
627.768	12919.27
627.963	12513.77
628.157	12612.07
628.352	12728.81
628.546	12425.71
628.74	12536.3
628.935	12364.27
629.129	12218.86
629.323	12005.88
629.517	12351.98
629.712	12108.27
629.906	12153.33
630.1	12042.74
630.294	11796.98
630.489	11786.74
630.683	12055.03
630.877	11788.79
631.071	11696.63
631.265	11647.48
631.459	11545.08
631.653	11489.79
631.848	11598.33
632.042	11293.18
632.236	11328
632.43	11450.88
632.624	11293.18
632.818	11203.07
633.012	11063.81
633.206	10867.2
633.4	11131.39
633.594	10973.7
633.788	10926.6
633.982	10637.83
634.176	10953.22
634.369	10488.33
634.563	10660.36
634.757	10482.19
634.951	10666.5
635.145	10437.13
635.339	10478.09
635.533	10363.4
635.726	10328.59
635.92	10152.46
636.114	10121.74
636.308	10146.32
636.501	10162.7
636.695	9990.67
636.889	9763.35
637.083	9959.95
637.276	9593.37
637.47	9763.35
637.664	9648.66
637.857	9644.57
638.051	9472.54
638.244	9445.91
638.438	9493.02
638.632	9304.6
638.825	9398.81
639.019	9310.75
639.212	9093.66
639.406	9220.64
639.599	9247.26
639.793	9140.77
639.986	8892.96
640.18	8991.27
640.373	8927.78
640.567	8606.25
640.76	8718.89
640.954	8903.2
641.147	8677.93
641.34	8665.64
641.534	8630.82
641.727	8649.25
641.92	8417.83
642.114	8387.11
642.307	8446.51
642.5	8303.15
642.694	8159.79
642.887	8280.62
643.08	8321.58
643.273	8260.14
643.467	7975.47
643.66	8129.07
643.853	7907.89
644.046	7942.71
644.239	7875.12
644.432	7723.57
644.626	7823.92
644.819	7768.63
645.012	7901.75
645.205	7758.39
645.398	7680.57
645.591	7567.93
645.784	7377.47
645.977	7432.76
646.17	7498.3
646.363	7549.5
646.556	7328.31
646.749	7338.55
646.942	7328.31
647.135	7303.74
647.328	7361.08
647.521	7264.83
647.714	7180.86
647.907	7244.35
648.099	6912.58
648.292	6908.48
648.485	7064.13
648.678	6920.77
648.871	7002.69
649.064	6693.44
649.256	7004.74
649.449	6781.51
649.642	6765.12
649.835	6699.59
650.027	6769.22
650.22	6672.96
650.413	6474.31
650.605	6638.15
650.798	6470.22
650.991	6371.91
651.183	6580.81
651.376	6294.09
651.568	6554.18
651.761	6265.42
651.954	6367.82
652.146	6339.15
652.339	6199.88
652.531	6310.47
652.724	6255.18
652.916	6353.48
653.109	6181.45
653.301	6345.29
653.494	6183.5
653.686	6328.91
653.879	6214.22
654.071	6068.81
654.263	6134.35
654.456	5935.7
654.648	5939.79
654.84	5937.74
655.033	5952.08
655.225	5943.89
655.417	5984.85
655.61	5735
655.802	5843.54
655.994	5810.77
656.186	5851.73
656.379	5786.19
656.571	5855.83
656.763	5522.01
656.955	5773.91
657.148	5790.29
657.34	5538.39
657.532	5581.4
657.724	5659.22
657.916	5567.06
658.108	5501.53
658.3	5464.66
658.492	5528.15
658.684	5454.42
658.876	5575.25
659.068	5417.56
659.26	5253.72
659.452	5249.63
659.644	5380.7
659.836	5339.74
660.028	5446.23
660.22	5290.59
660.412	5216.86
660.604	5200.48
660.796	5139.04
660.988	5233.24
661.18	5089.89
661.372	5149.28
661.563	5147.23
661.755	5110.36
661.947	5261.91
662.139	5069.41
662.331	5175.9
662.522	5188.19
662.714	5153.37
662.906	5016.16
663.097	4999.77
663.289	4854.37
663.481	4764.26
663.673	5003.87
663.864	5061.21
664.056	4934.24
664.247	5143.13
664.439	4911.71
664.631	5036.64
664.822	4706.91
665.014	4831.84
665.205	4811.36
665.397	4866.66
665.588	4794.98
665.78	4815.46
665.971	5003.87
666.163	4817.51
666.354	4868.7
666.546	4821.6
666.737	4797.03
666.929	4897.38
667.12	4643.43
667.311	4909.66
667.503	4801.12
667.694	4784.74
667.885	4704.87
668.077	4698.72
668.268	4485.73
668.459	4954.72
668.651	4768.35
668.842	4711.01
669.033	4846.18
669.224	4670.05
669.416	4917.86
669.607	4688.48
669.798	4780.64
669.989	4733.54
670.18	4670.05
670.371	4756.07
670.563	4760.16
670.754	4741.73
670.945	4661.86
671.136	4774.5
671.327	4686.44
671.518	4659.81
671.709	4807.27
671.9	4919.9
672.091	4786.79
672.282	4627.04
672.473	4708.96
672.664	4692.58
672.855	4721.25
673.046	4889.18
673.237	4745.83
673.428	4903.52
673.619	4905.57
673.809	4868.7
674	4774.5
674.191	4739.68
674.382	4805.22
674.573	4782.69
674.764	4831.84
674.954	4952.67
675.145	4807.27
675.336	4797.03
675.527	4938.34
675.717	4995.68
675.908	4956.77
676.099	4930.14
676.289	4967.01
676.48	5036.64
676.671	5007.97
676.861	4950.62
677.052	4942.43
677.243	5114.46
677.433	4975.2
677.624	5212.76
677.814	5059.17
678.005	5149.28
678.195	5124.7
678.386	5249.63
678.576	5190.24
678.767	5069.41
678.957	5251.67
679.148	5333.59
679.338	5233.24
679.529	5282.39
679.719	5331.55
679.909	5440.09
680.1	5210.72
680.29	5399.13
680.481	5448.28
680.671	5274.2
680.861	5347.93
681.052	5663.32
681.242	5413.46
681.432	5540.44
681.622	5530.2
681.813	5657.17
682.003	5544.53
682.193	5364.31
682.383	5700.18
682.573	5526.1
682.764	5630.55
682.954	5593.69
683.144	5743.19
683.334	5651.03
683.524	5577.3
683.714	5610.07
683.904	5720.66
684.094	5851.73
684.284	5685.84
684.474	5728.85
684.664	5769.81
684.854	5735
685.044	5646.93
685.234	5769.81
685.424	5640.79
685.614	5724.76
685.804	5685.84
685.994	5730.9
686.184	5687.89
686.374	5702.23
686.564	5759.57
686.753	5552.73
686.943	5534.29
687.133	5659.22
687.323	5610.07
687.513	5530.2
687.702	5485.14
687.892	5364.31
688.082	5448.28
688.272	5479
688.461	5472.86
688.651	5466.71
688.841	5356.12
689.03	5522.01
689.22	5442.14
689.41	5335.64
689.599	5206.62
689.789	5300.83
689.979	5345.88
690.168	5268.06
690.358	5100.12
690.547	5143.13
690.737	5255.77
690.926	5194.33
691.116	5093.98
691.305	5114.46
691.495	5126.75
691.684	5216.86
691.874	4883.04
692.063	5012.06
692.252	5241.43
692.442	5046.88
692.631	4932.19
692.82	4969.05
693.01	4999.77
693.199	4905.57
693.388	4983.39
693.578	4864.61
693.767	4868.7
693.956	4905.57
694.146	4842.08
694.335	4995.68
694.524	4754.02
694.713	4909.66
694.902	4844.13
695.092	4907.62
695.281	4782.69
695.47	4846.18
695.659	4715.11
695.848	4739.68
696.037	4721.25
696.226	4766.31
696.415	4745.83
696.604	4936.29
696.793	4790.88
696.982	4758.11
697.171	4827.74
697.36	4840.03
697.549	4827.74
697.738	4725.35
697.927	4819.55
698.116	4768.35
698.305	5040.73
698.494	4811.36
698.683	4926.05
698.872	4856.42
699.061	4903.52
699.25	4762.21
699.438	4821.6
699.627	5026.4
699.816	5020.25
700.005	4862.56
700.193	4971.1
700.382	4813.41
700.571	4893.28
700.76	5063.26
700.948	5003.87
701.137	4856.42
701.326	4897.38
701.514	4866.66
701.703	4993.63
701.892	4969.05
702.08	4938.34
702.269	5147.23
702.457	4930.14
702.646	4975.2
702.834	4999.77
703.023	5057.12
703.212	5106.27
703.4	5249.63
703.589	5075.55
703.777	5012.06
703.965	4962.91
704.154	5153.37
704.342	4952.67
704.531	5118.56
704.719	5087.84
704.907	5167.71
705.096	5139.04
705.284	5282.39
705.472	5296.73
705.661	5235.29
705.849	5184.09
706.037	5370.46
706.226	5313.11
706.414	5401.18
706.602	5290.59
706.79	5139.04
706.979	5397.08
707.167	5309.02
707.355	5180
707.543	5417.56
707.731	5405.27
707.919	5446.23
708.107	5270.11
708.296	5360.22
708.484	5417.56
708.672	5470.81
708.86	5476.95
709.048	5415.51
709.236	5343.83
709.424	5550.68
709.612	5605.97
709.8	5470.81
709.988	5546.58
710.176	5669.46
710.364	5642.84
710.551	5499.48
710.739	5577.3
710.927	5724.76
711.115	5630.55
711.303	5560.92
711.491	5683.8
711.679	5696.08
711.866	5667.41
712.054	5722.71
712.242	5741.14
712.43	5866.07
712.617	5743.19
712.805	5722.71
712.993	5937.74
713.181	5761.62
713.368	5929.55
713.556	5986.9
713.744	5741.14
713.931	5935.7
714.119	5866.07
714.306	5984.85
714.494	5767.76
714.682	5995.09
714.869	5845.59
715.057	6052.43
715.244	5966.42
715.432	6089.29
715.619	6060.62
715.807	6099.53
715.994	6099.53
716.182	6130.25
716.369	6115.92
716.556	6298.19
716.744	6134.35
716.931	6115.92
717.119	6314.57
717.306	6191.69
717.493	6314.57
717.681	6269.51
717.868	6257.23
718.055	6421.06
718.242	6382.15
718.43	6283.85
718.617	6240.84
718.804	6396.49
718.991	6513.22
719.179	6466.12
719.366	6371.91
719.553	6550.09
719.74	6462.02
719.927	6404.68
720.114	6347.34
720.301	6543.94
720.488	6384.2
720.676	6410.82
720.863	6609.48
721.05	6697.54
721.237	6515.27
721.424	6533.7
721.611	6652.49
721.798	6373.96
721.985	6482.5
722.172	6545.99
722.358	6556.23
722.545	6521.42
722.732	6711.88
722.919	6720.07
723.106	6539.85
723.293	6634.05
723.48	6820.42
723.667	6863.43
723.853	6562.37
724.04	6820.42
724.227	6722.12
724.414	6691.4
724.6	6705.73
724.787	6705.73
724.974	6677.06
725.161	6785.6
725.347	6687.3
725.534	6804.03
725.72	6951.49
725.907	6728.26
726.094	6926.91
726.28	6951.49
726.467	6824.51
726.653	6869.57
726.84	6619.72
727.027	7109.18
727.213	6967.87
727.4	6974.02
727.586	6978.11
727.773	6890.05
727.959	6937.15
728.145	7113.28
728.332	6928.96
728.518	6894.15
728.705	6947.39
728.891	6969.92
729.077	6885.95
729.264	7100.99
729.45	7213.63
729.636	7264.83
729.823	6879.81
730.009	7105.09
730.195	6906.43
730.382	7098.94
730.568	7062.08
730.754	7090.75
730.94	6976.06
731.126	7193.15
731.313	6986.3
731.499	7076.41
731.685	7051.84
731.871	7062.08
732.057	7178.81
732.243	7090.75
732.429	7119.42
732.615	7096.89
732.801	7041.6
732.987	7148.09
733.173	7225.92
733.359	7176.77
733.545	7187.01
733.731	7082.56
733.917	7139.9
734.103	7248.44
734.289	7168.57
734.475	7017.02
734.661	7064.13
734.847	7076.41
735.033	7096.89
735.219	7217.72
735.404	7207.48
735.59	7014.98
735.776	7043.65
735.962	7275.07
736.148	7254.59
736.333	7146.05
736.519	7060.03
736.705	7230.01
736.89	7014.98
737.076	7139.9
737.262	7023.17
737.447	7133.76
737.633	7055.94
737.819	7107.13
738.004	7017.02
738.19	6943.3
738.375	7096.89
738.561	7178.81
738.747	6933.06
738.932	6994.5
739.118	6888
739.303	7043.65
739.489	6951.49
739.674	6777.41
739.859	6959.68
740.045	6931.01
740.23	6986.3
740.416	6830.66
740.601	6744.64
740.786	6801.99
740.972	6752.84
741.157	6847.04
741.342	6771.27
741.528	6797.89
741.713	6793.79
741.898	6812.23
742.084	6777.41
742.269	6777.41
742.454	6490.7
742.639	6715.97
742.824	6599.24
743.01	6681.16
743.195	6687.3
743.38	6419.02
743.565	6523.46
743.75	6570.57
743.935	6367.82
744.12	6545.99
744.305	6396.49
744.49	6300.23
744.675	6298.19
744.86	6273.61
745.045	6445.64
745.23	6242.89
745.415	6240.84
745.6	6341.19
745.785	6238.8
745.97	6064.72
746.155	6103.63
746.34	6068.81
746.525	6034
746.71	6126.16
746.895	5941.84
747.079	6093.39
747.264	5909.07
747.449	5823.06
747.634	5755.47
747.819	5890.64
748.003	5560.92
748.188	5706.32
748.373	5732.95
748.557	5624.4
748.742	5622.36
748.927	5646.93
749.111	5544.53
749.296	5581.4
749.481	5601.88
749.665	5415.51
749.85	5384.79
750.034	5466.71
750.219	5372.5
750.404	5249.63
750.588	5358.17
750.773	5171.8
750.957	5167.71
751.141	5044.83
751.326	5190.24
751.51	5007.97
751.695	5028.45
751.879	5112.41
752.064	4936.29
752.248	5106.27
752.432	5083.74
752.617	5087.84
752.801	4981.34
752.985	4749.92
753.17	4721.25
753.354	4751.97
753.538	4602.47
753.722	4825.7
753.907	4649.57
754.091	4444.77
754.275	4588.13
754.459	4602.47
754.643	4430.44
754.828	4444.77
755.012	4282.99
755.196	4338.28
755.38	4258.41
755.564	4258.41
755.748	4268.65
755.932	4303.47
756.116	4293.23
756.3	4225.64
756.484	4295.27
756.668	4117.1
756.852	3998.32
757.036	4022.89
757.22	3940.97
757.404	3986.03
757.588	3897.97
757.772	3981.93
757.956	3897.97
758.14	3897.97
758.323	3725.94
758.507	3764.85
758.691	3703.41
758.875	3910.26
759.059	3730.03
759.242	3766.9
759.426	3684.98
759.61	3562.1
759.794	3512.95
759.977	3629.68
760.161	3627.64
760.345	3576.44
760.528	3488.37
760.712	3590.77
760.895	3480.18
761.079	3611.25
761.263	3551.86
761.446	3381.88
761.63	3396.21
761.813	3355.26
761.997	3388.02
762.18	3244.67
762.364	3302.01
762.547	3226.23
762.731	3144.31
762.914	3285.62
763.098	3246.71
763.281	3142.27
763.464	3160.7
763.648	3140.22
763.831	3259
764.015	3205.75
764.198	3066.49
764.381	3162.75
764.564	3170.94
764.748	3060.35
764.931	3048.06
765.114	3025.53
765.297	3150.46
765.481	2857.6
765.664	3003
765.847	2955.9
766.03	3054.2
766.213	2951.81
766.397	2902.65
766.58	2863.74
766.763	2888.32
766.946	2886.27
767.129	2775.68
767.312	2814.59
767.495	2820.74
767.678	2681.47
767.861	2851.46
768.044	2775.68
768.227	2775.68
768.41	2771.58
768.593	2583.17
768.776	2726.53
768.959	2620.03
769.142	2742.91
769.324	2771.58
769.507	2628.23
769.69	2697.86
769.873	2570.88
770.056	2740.86
770.239	2615.94
770.421	2452.1
770.604	2622.08
770.787	2497.16
770.97	2529.92
771.152	2411.14
771.335	2544.26
771.518	2370.18
771.7	2513.54
771.883	2415.24
772.066	2425.48
772.248	2327.18
772.431	2448.01
772.613	2366.09
772.796	2353.8
772.978	2251.4
773.161	2423.43
773.343	2267.78
773.526	2267.78
773.708	2294.41
773.891	2120.33
774.073	2284.17
774.256	2177.67
774.438	2230.92
774.621	2175.63
774.803	2255.5
774.985	2161.29
775.168	2095.75
775.35	2140.81
775.532	2052.75
775.715	2046.6
775.897	2060.94
776.079	1987.21
776.261	2026.12
776.444	1919.63
776.626	2007.69
776.808	1905.29
776.99	1936.01
777.173	2007.69
777.355	1927.82
777.537	1966.73
777.719	1823.37
777.901	1850
778.083	1833.61
778.265	1897.1
778.447	1854.09
778.629	1813.13
778.811	1817.23
778.993	1768.08
779.175	1823.37
779.357	1829.52
779.539	1727.12
779.721	1680.02
779.903	1749.65
780.085	1690.26
780.267	1675.92
780.449	1538.71
780.631	1698.45
780.812	1694.35
780.994	1587.86
781.176	1546.9
781.358	1624.72
781.54	1557.14
781.721	1579.67
781.903	1514.13
782.085	1475.22
782.267	1487.51
782.448	1563.28
782.63	1440.4
782.812	1518.23
782.993	1483.41
783.175	1460.88
783.357	1415.83
783.538	1381.01
783.72	1370.77
783.901	1307.29
784.083	1378.97
784.264	1448.6
784.446	1325.72
784.627	1247.9
784.809	1270.42
784.99	1290.9
785.172	1335.96
785.353	1364.63
785.535	1350.29
785.716	1233.56
785.897	1239.7
786.079	1268.38
786.26	1249.94
786.441	1127.07
786.623	1182.36
786.804	1131.16
786.985	1133.21
787.167	1137.31
787.348	1194.65
787.529	1118.87
787.71	1272.47
787.891	1165.98
788.073	1086.11
788.254	1141.4
788.435	1176.22
788.616	1030.81
788.797	1073.82
788.978	1012.38
789.159	1073.82
789.34	1077.91
789.522	1088.15
789.703	1120.92
789.884	1075.87
790.065	1110.68
790.246	1022.62
790.427	912.03
790.607	1020.57
790.788	1028.76
790.969	928.41
791.15	946.84
791.331	993.95
791.512	991.9
791.693	1026.71
791.874	989.85
792.054	981.66
792.235	950.94
792.416	873.12
792.597	826.01
792.778	899.74
792.958	891.55
793.139	924.32
793.32	920.22
793.5	842.4
793.681	942.75
793.862	848.54
794.042	871.07
794.223	801.44
794.404	875.17
794.584	852.64
794.765	858.78
794.945	858.78
795.126	785.05
795.306	834.21
795.487	815.77
795.667	823.97
795.848	830.11
796.028	774.81
796.209	789.15
796.389	809.63
796.57	715.42
796.75	819.87
796.93	785.05
797.111	744.1
797.291	740
797.471	842.4
797.652	727.71
797.832	645.79
798.012	733.86
798.192	674.46
798.373	711.33
798.553	719.52
798.733	768.67
798.913	666.27
799.093	684.7
799.274	821.92
799.454	813.73
799.634	686.75
799.814	731.81
799.994	645.79
800.174	750.24
800.354	653.98
800.534	696.99
800.714	629.41
800.894	711.33
801.074	653.98
801.254	754.34
801.434	711.33
801.614	615.07
801.794	653.98
801.974	1329.81
802.154	641.7
802.334	596.64
802.514	629.41
802.693	610.98
802.873	621.22
803.053	549.54
803.233	617.12
803.413	561.83
803.592	639.65
803.772	563.87
803.952	553.63
804.131	615.07
804.311	703.14
804.491	645.79
804.67	537.25
804.85	582.31
805.03	586.4
805.209	608.93
805.389	629.41
805.568	537.25
805.748	561.83
805.928	619.17
806.107	602.79
806.287	490.15
806.466	567.97
806.646	561.83
806.825	570.02
807.004	547.49
807.184	522.91
807.363	586.4
807.543	447.14
807.722	524.96
807.901	662.18
808.081	555.68
808.26	520.87
808.439	529.06
808.619	514.72
808.798	441
808.977	502.43
809.156	477.86
809.336	512.67
809.515	488.1
809.694	488.1
809.873	445.09
810.052	490.15
810.231	553.63
810.411	481.96
810.59	541.35
810.769	486.05
810.948	447.14
811.127	414.37
811.306	457.38
811.485	430.76
811.664	496.29
811.843	348.84
812.022	506.53
812.201	408.23
812.38	414.37
812.559	342.69
812.737	457.38
812.916	320.17
813.095	424.61
813.274	383.65
813.453	381.6
813.632	348.84
813.811	479.91
813.989	273.06
814.168	369.32
814.347	326.31
814.526	434.85
814.704	424.61
814.883	404.13
815.062	330.41
815.24	463.52
815.419	350.89
815.598	295.59
815.776	346.79
815.955	316.07
816.133	385.7
816.312	375.46
816.49	400.04
816.669	393.89
816.847	424.61
817.026	295.59
817.204	369.32
817.383	314.02
817.561	297.64
817.74	422.56
817.918	342.69
818.097	373.41
818.275	338.6
818.453	354.98
818.632	330.41
818.81	314.02
818.988	352.93
819.167	240.29
819.345	381.6
819.523	346.79
819.701	311.97
819.879	422.56
820.058	389.8
820.236	260.77
820.414	334.5
820.592	299.69
820.77	273.06
820.948	268.97
821.127	322.21
821.305	344.74
821.483	230.06
821.661	373.41
821.839	381.6
822.017	307.88
822.195	318.12
822.373	350.89
822.551	252.58
822.729	338.6
822.907	207.53
823.085	318.12
823.262	346.79
823.44	215.72
823.618	240.29
823.796	203.43
823.974	338.6
824.152	281.25
824.329	221.86
824.507	330.41
824.685	223.91
824.863	193.19
825.04	228.01
825.218	301.73
825.396	305.83
825.574	293.54
825.751	230.06
825.929	264.87
826.107	252.58
826.284	268.97
826.462	291.49
826.639	236.2
826.817	301.73
826.994	258.73
827.172	264.87
827.349	250.53
827.527	289.45
827.704	281.25
827.882	244.39
828.059	244.39
828.237	283.3
828.414	375.46
828.591	152.23
828.769	240.29
828.946	217.77
829.124	207.53
829.301	305.83
829.478	197.29
829.655	244.39
829.833	301.73
830.01	268.97
830.187	189.1
830.364	281.25
830.542	158.38
830.719	264.87
830.896	262.82
831.073	260.77
831.25	287.4
831.427	283.3
831.604	230.06
831.782	185
831.959	223.91
832.136	250.53
832.313	170.66
832.49	215.72
832.667	166.57
832.844	262.82
833.021	178.86
833.198	189.1
833.374	211.62
833.551	219.82
833.728	246.44
833.905	225.96
834.082	170.66
834.259	176.81
834.436	301.73
834.612	146.09
834.789	211.62
834.966	172.71
835.143	146.09
835.319	139.94
835.496	223.91
835.673	211.62
835.85	189.1
836.026	217.77
836.203	213.67
836.38	234.15
836.556	115.37
836.733	182.95
836.909	197.29
837.086	133.8
837.262	223.91
837.439	238.25
837.616	176.81
837.792	219.82
837.968	148.14
838.145	146.09
838.321	109.22
838.498	121.51
838.674	158.38
838.851	115.37
839.027	76.46
839.203	170.66
839.38	209.58
839.556	53.93
839.732	170.66
839.909	168.62
840.085	84.65
840.261	205.48
840.437	158.38
840.614	72.36
840.79	199.34
840.966	144.04
841.142	219.82
841.318	150.18
841.494	252.58
841.671	144.04
841.847	146.09
842.023	64.17
842.199	170.66
842.375	158.38
842.551	152.23
842.727	55.98
842.903	113.32
843.079	109.22
843.255	156.33
843.431	152.23
843.607	113.32
843.783	43.69
843.959	133.8
844.134	92.84
844.31	199.34
844.486	68.27
844.662	119.46
844.838	60.07
845.013	123.56
845.189	203.43
845.365	70.31
845.541	176.81
845.716	127.66
845.892	170.66
846.068	-13.65
846.244	129.7
846.419	109.22
846.595	29.35
846.77	103.08
846.946	121.51
847.122	133.8
847.297	86.7
847.473	166.57
847.648	103.08
847.824	101.03
847.999	64.17
848.175	146.09
848.35	146.09
848.526	244.39
848.701	135.85
848.876	207.53
849.052	129.7
849.227	101.03
849.403	101.03
849.578	92.84
849.753	70.31
849.929	131.75
850.104	6.83
850.279	162.47
850.454	141.99
850.63	135.85
850.805	162.47
850.98	113.32
851.155	76.46
851.33	29.35
851.505	55.98
851.681	105.13
851.856	76.46
852.031	113.32
852.206	60.07
852.381	15.02
852.556	109.22
852.731	29.35
852.906	148.14
853.081	86.7
853.256	55.98
853.431	84.65
853.606	86.7
853.781	15.02
853.956	72.36
854.131	70.31
854.305	-1.37
854.48	92.84
854.655	88.75
854.83	27.31
855.005	76.46
855.18	35.5
855.354	90.79
855.529	144.04
855.704	103.08
855.879	55.98
856.053	47.79
856.228	39.59
856.403	154.28
856.577	31.4
856.752	68.27
856.926	72.36
857.101	86.7
857.276	35.5
857.45	55.98
857.625	4.78
857.799	96.94
857.974	86.7
858.148	-3.41
858.323	43.69
858.497	15.02
858.672	127.66
858.846	19.11
859.02	62.12
859.195	62.12
859.369	78.51
859.543	135.85
859.718	139.94
859.892	6.83
860.066	127.66
860.241	64.17
860.415	70.31
860.589	72.36
860.763	35.5
860.938	45.74
861.112	-7.51
861.286	31.4
861.46	47.79
861.634	111.27
861.808	103.08
861.982	55.98
862.157	-13.65
862.331	29.35
862.505	-9.56
862.679	6.83
862.853	43.69
863.027	12.97
863.201	88.75
863.375	4.78
863.549	101.03
863.722	146.09
863.896	55.98
864.07	27.31
864.244	41.64
864.418	23.21
864.592	70.31
864.766	45.74
864.939	47.79
865.113	88.75
865.287	80.55
865.461	-44.37
865.634	47.79
865.808	-36.18
865.982	23.21
866.156	29.35
866.329	10.92
866.503	51.88
866.676	123.56
866.85	-30.04
867.024	45.74
867.197	74.41
867.371	51.88
867.544	0.68
867.718	35.5
867.891	53.93
868.065	31.4
868.238	25.26
868.412	68.27
868.585	6.83
868.759	-17.75
868.932	4.78
869.105	0.68
869.279	98.99
869.452	47.79
869.625	45.74
869.799	37.55
869.972	21.16
870.145	35.5
870.319	70.31
870.492	45.74
870.665	15.02
870.838	35.5
871.011	-48.47
871.185	-48.47
871.358	80.55
871.531	88.75
871.704	-30.04
871.877	94.89
872.05	21.16
872.223	47.79
872.396	19.11
872.569	121.51
872.742	-25.94
872.915	-38.23
873.088	-9.56
873.261	8.87
873.434	76.46
873.607	-1.37
873.78	15.02
873.953	31.4
874.126	31.4
874.299	49.83
874.471	10.92
874.644	64.17
874.817	-9.56
874.99	119.46
875.163	17.07
875.335	-3.41
875.508	-38.23
875.681	-9.56
875.853	-5.46
876.026	43.69
876.199	43.69
876.371	2.73
876.544	-32.08
876.717	6.83
876.889	-44.37
877.062	12.97
877.234	-27.99
877.407	-3.41
877.579	109.22
877.752	-15.7
877.924	53.93
878.097	76.46
878.269	70.31
878.442	8.87
878.614	10.92
878.786	-36.18
878.959	-3.41
879.131	74.41
879.303	-38.23
879.476	-46.42
879.648	12.97
879.82	64.17
879.993	49.83
880.165	-50.52
880.337	-62.8
880.509	-38.23
880.681	-1.37
880.854	-11.61
881.026	55.98
881.198	88.75
881.37	66.22
881.542	-5.46
881.714	-3.41
881.886	-11.61
882.058	-21.85
882.23	29.35
882.402	33.45
882.574	-25.94
882.746	60.07
882.918	12.97
883.09	-17.75
883.262	-58.71
883.434	-23.89
883.606	4.78
883.778	-15.7
883.95	47.79
884.122	55.98
884.293	31.4
884.465	6.83
884.637	82.6
884.809	-77.14
884.98	23.21
885.152	-38.23
885.324	-58.71
885.496	-19.8
885.667	47.79
885.839	-40.28
886.011	39.59
886.182	19.11
886.354	39.59
886.525	23.21
886.697	8.87
886.869	-5.46
887.04	-17.75
887.212	23.21
887.383	37.55
887.555	6.83
887.726	17.07
887.897	21.16
888.069	-3.41
888.24	-5.46
888.412	-58.71
888.583	-23.89
888.754	15.02
888.926	-66.9
889.097	27.31
889.268	-3.41
889.44	58.03
889.611	-79.19
889.782	88.75
889.953	-60.76
890.125	58.03
890.296	-42.32
890.467	-21.85
890.638	-17.75
890.809	35.5
890.98	-7.51
891.151	39.59
891.323	92.84
891.494	12.97
891.665	-34.13
891.836	-1.37
892.007	47.79
892.178	47.79
892.349	80.55
892.52	-25.94
892.691	-66.9
892.862	19.11
893.032	-36.18
893.203	-66.9
893.374	33.45
893.545	64.17
893.716	4.78
893.887	80.55
894.057	-5.46
894.228	2.73
894.399	-11.61
894.57	82.6
894.74	66.22
894.911	64.17
895.082	47.79
895.253	0.68
895.423	10.92
895.594	64.17
895.764	-17.75
895.935	33.45
896.106	12.97
896.276	6.83
896.447	12.97
896.617	-46.42
896.788	-21.85
896.958	-30.04
897.129	-19.8
897.299	-50.52
897.47	31.4
897.64	53.93
897.81	21.16
897.981	10.92
898.151	31.4
898.322	58.03
898.492	31.4
898.662	29.35
898.832	-1.37
899.003	2.73
899.173	21.16
899.343	-21.85
899.513	41.64
