Data from USB4F104151__39__11-30-19-564.txt Node

Date: Fri Mar 14 11:30:19 EDT 2025
User: louis
Spectrometer: USB4F10415
Trigger mode: 4
Integration Time (sec): 5.000000E-2
Scans to average: 1
Electric dark correction enabled: true
Nonlinearity correction enabled: false
Boxcar width: 0
XAxis mode: Wavelengths
Number of Pixels in Spectrum: 3648
>>>>>Begin Spectral Data<<<<<
178.204	-113.15
178.424	-113.15
178.644	-113.15
178.864	-145.92
179.084	-158.21
179.304	-29.18
179.524	-53.76
179.744	28.16
179.964	65.02
180.184	-8.7
180.404	69.12
180.624	-37.38
180.844	34.3
181.064	-43.52
181.283	36.35
181.503	-41.47
181.723	-18.94
181.943	11.78
182.163	110.08
182.383	-41.47
182.602	24.06
182.822	52.74
183.042	7.68
183.262	-37.38
183.482	34.3
183.701	1.54
183.921	73.21
184.141	9.73
184.361	110.08
184.58	34.3
184.8	50.69
185.02	120.32
185.239	36.35
185.459	13.82
185.679	132.61
185.898	-6.66
186.118	-14.85
186.338	-12.8
186.557	62.98
186.777	-8.7
186.997	44.54
187.216	-0.51
187.436	56.83
187.655	58.88
187.875	138.75
188.095	105.98
188.314	34.3
188.534	167.42
188.753	-23.04
188.973	87.55
189.192	138.75
189.412	26.11
189.631	-12.8
189.851	36.35
190.07	75.26
190.29	17.92
190.509	38.4
190.729	97.79
190.948	73.21
191.168	232.96
191.387	52.74
191.607	79.36
191.826	85.5
192.045	42.5
192.265	-12.8
192.484	81.41
192.704	-16.9
192.923	-27.14
193.142	124.41
193.362	19.97
193.581	155.13
193.8	44.54
194.02	77.31
194.239	110.08
194.458	112.13
194.678	-20.99
194.897	85.5
195.116	65.02
195.335	36.35
195.555	36.35
195.774	34.3
195.993	105.98
196.212	7.68
196.432	-27.14
196.651	19.97
196.87	-25.09
197.089	163.33
197.308	36.35
197.528	77.31
197.747	-82.43
197.966	17.92
198.185	-0.51
198.404	22.02
198.623	26.11
198.842	22.02
199.062	146.94
199.281	69.12
199.5	-20.99
199.719	97.79
199.938	77.31
200.157	-12.8
200.376	17.92
200.595	142.85
200.814	138.75
201.033	24.06
201.252	157.18
201.471	48.64
201.69	83.45
201.909	52.74
202.128	110.08
202.347	151.04
202.566	-6.66
202.785	3.58
203.004	-45.57
203.223	142.85
203.442	13.82
203.661	67.07
203.879	11.78
204.098	77.31
204.317	50.69
204.536	58.88
204.755	56.83
204.974	42.5
205.193	54.78
205.411	110.08
205.63	69.12
205.849	19.97
206.068	28.16
206.287	85.5
206.505	52.74
206.724	99.84
206.943	36.35
207.162	81.41
207.381	-4.61
207.599	-20.99
207.818	13.82
208.037	17.92
208.255	5.63
208.474	52.74
208.693	69.12
208.911	56.83
209.13	44.54
209.349	67.07
209.567	7.68
209.786	44.54
210.005	73.21
210.223	3.58
210.442	15.87
210.661	11.78
210.879	91.65
211.098	11.78
211.316	56.83
211.535	-14.85
211.753	85.5
211.972	52.74
212.191	87.55
212.409	19.97
212.628	48.64
212.846	3.58
213.065	75.26
213.283	101.89
213.502	26.11
213.72	7.68
213.938	36.35
214.157	56.83
214.375	83.45
214.594	11.78
214.812	89.6
215.031	50.69
215.249	3.58
215.467	69.12
215.686	58.88
215.904	65.02
216.122	-20.99
216.341	81.41
216.559	28.16
216.778	60.93
216.996	48.64
217.214	48.64
217.432	44.54
217.651	56.83
217.869	108.03
218.087	40.45
218.306	48.64
218.524	15.87
218.742	-53.76
218.96	71.17
219.179	-47.62
219.397	24.06
219.615	95.74
219.833	130.56
220.051	34.3
220.27	116.22
220.488	30.21
220.706	1.54
220.924	60.93
221.142	81.41
221.36	34.3
221.578	116.22
221.796	56.83
222.015	65.02
222.233	62.98
222.451	60.93
222.669	38.4
222.887	77.31
223.105	85.5
223.323	17.92
223.541	65.02
223.759	105.98
223.977	17.92
224.195	48.64
224.413	60.93
224.631	17.92
224.849	-37.38
225.067	77.31
225.285	34.3
225.503	19.97
225.721	-2.56
225.939	77.31
226.157	146.94
226.375	105.98
226.592	7.68
226.81	15.87
227.028	28.16
227.246	116.22
227.464	26.11
227.682	28.16
227.9	15.87
228.117	17.92
228.335	-6.66
228.553	67.07
228.771	40.45
228.989	99.84
229.206	40.45
229.424	32.26
229.642	93.69
229.86	1.54
230.077	67.07
230.295	5.63
230.513	93.69
230.731	118.27
230.948	116.22
231.166	69.12
231.384	19.97
231.601	36.35
231.819	163.33
232.037	52.74
232.254	9.73
232.472	-4.61
232.689	36.35
232.907	17.92
233.125	38.4
233.342	-23.04
233.56	13.82
233.777	81.41
233.995	42.5
234.213	151.04
234.43	58.88
234.648	181.76
234.865	85.5
235.083	93.69
235.3	77.31
235.518	67.07
235.735	60.93
235.953	81.41
236.17	-57.86
236.388	48.64
236.605	52.74
236.822	60.93
237.04	67.07
237.257	-10.75
237.475	26.11
237.692	30.21
237.909	13.82
238.127	-14.85
238.344	44.54
238.562	75.26
238.779	85.5
238.996	34.3
239.214	105.98
239.431	81.41
239.648	32.26
239.865	42.5
240.083	36.35
240.3	44.54
240.517	69.12
240.735	28.16
240.952	-0.51
241.169	56.83
241.386	93.69
241.603	99.84
241.821	58.88
242.038	110.08
242.255	114.17
242.472	36.35
242.689	81.41
242.907	112.13
243.124	52.74
243.341	-2.56
243.558	-18.94
243.775	3.58
243.992	36.35
244.209	75.26
244.426	89.6
244.643	99.84
244.86	44.54
245.078	34.3
245.295	28.16
245.512	48.64
245.729	-35.33
245.946	48.64
246.163	36.35
246.38	17.92
246.597	34.3
246.814	114.17
247.031	11.78
247.248	79.36
247.464	69.12
247.681	48.64
247.898	75.26
248.115	48.64
248.332	30.21
248.549	56.83
248.766	105.98
248.983	69.12
249.2	93.69
249.417	83.45
249.633	36.35
249.85	118.27
250.067	40.45
250.284	110.08
250.501	85.5
250.717	3.58
250.934	28.16
251.151	101.89
251.368	3.58
251.585	97.79
251.801	28.16
252.018	40.45
252.235	89.6
252.451	30.21
252.668	1.54
252.885	126.46
253.102	81.41
253.318	36.35
253.535	36.35
253.752	7.68
253.968	11.78
254.185	-0.51
254.401	9.73
254.618	36.35
254.835	-4.61
255.051	50.69
255.268	17.92
255.484	7.68
255.701	28.16
255.917	105.98
256.134	77.31
256.351	101.89
256.567	52.74
256.784	-37.38
257	24.06
257.217	73.21
257.433	28.16
257.65	36.35
257.866	130.56
258.082	40.45
258.299	15.87
258.515	91.65
258.732	91.65
258.948	24.06
259.165	-43.52
259.381	48.64
259.597	97.79
259.814	26.11
260.03	44.54
260.246	77.31
260.463	42.5
260.679	85.5
260.895	67.07
261.112	9.73
261.328	71.17
261.544	13.82
261.761	101.89
261.977	71.17
262.193	-43.52
262.409	30.21
262.626	40.45
262.842	71.17
263.058	56.83
263.274	69.12
263.49	-4.61
263.707	85.5
263.923	65.02
264.139	7.68
264.355	62.98
264.571	110.08
264.787	50.69
265.004	89.6
265.22	32.26
265.436	69.12
265.652	28.16
265.868	69.12
266.084	26.11
266.3	15.87
266.516	-57.86
266.732	75.26
266.948	44.54
267.164	60.93
267.38	95.74
267.596	52.74
267.812	60.93
268.028	48.64
268.244	89.6
268.46	40.45
268.676	5.63
268.892	3.58
269.108	9.73
269.324	22.02
269.54	19.97
269.756	81.41
269.972	54.78
270.188	-4.61
270.403	17.92
270.619	11.78
270.835	65.02
271.051	28.16
271.267	44.54
271.483	-61.95
271.698	65.02
271.914	114.17
272.13	-18.94
272.346	60.93
272.562	75.26
272.777	69.12
272.993	110.08
273.209	54.78
273.425	69.12
273.64	-12.8
273.856	101.89
274.072	52.74
274.287	3.58
274.503	75.26
274.719	118.27
274.934	36.35
275.15	69.12
275.366	11.78
275.581	28.16
275.797	81.41
276.012	19.97
276.228	36.35
276.444	95.74
276.659	110.08
276.875	44.54
277.09	65.02
277.306	34.3
277.521	89.6
277.737	44.54
277.952	110.08
278.168	26.11
278.383	91.65
278.599	3.58
278.814	60.93
279.03	110.08
279.245	87.55
279.461	-20.99
279.676	26.11
279.892	-14.85
280.107	44.54
280.322	19.97
280.538	105.98
280.753	-6.66
280.969	91.65
281.184	50.69
281.399	77.31
281.615	60.93
281.83	52.74
282.045	-6.66
282.26	11.78
282.476	83.45
282.691	58.88
282.906	32.26
283.122	5.63
283.337	48.64
283.552	-4.61
283.767	-0.51
283.983	177.66
284.198	26.11
284.413	54.78
284.628	-33.28
284.843	69.12
285.058	81.41
285.274	85.5
285.489	1.54
285.704	5.63
285.919	89.6
286.134	108.03
286.349	26.11
286.564	50.69
286.779	112.13
286.995	89.6
287.21	-92.67
287.425	144.89
287.64	36.35
287.855	75.26
288.07	-68.09
288.285	87.55
288.5	85.5
288.715	85.5
288.93	69.12
289.145	-29.18
289.36	134.65
289.575	7.68
289.79	91.65
290.004	-25.09
290.219	46.59
290.434	-20.99
290.649	34.3
290.864	-57.86
291.079	22.02
291.294	44.54
291.509	42.5
291.724	-8.7
291.938	77.31
292.153	83.45
292.368	-66.05
292.583	3.58
292.798	85.5
293.012	-33.28
293.227	50.69
293.442	11.78
293.657	134.65
293.871	36.35
294.086	87.55
294.301	44.54
294.516	122.37
294.73	38.4
294.945	17.92
295.16	40.45
295.374	159.23
295.589	48.64
295.804	-0.51
296.018	3.58
296.233	124.41
296.447	34.3
296.662	42.5
296.877	24.06
297.091	67.07
297.306	9.73
297.52	19.97
297.735	24.06
297.949	110.08
298.164	75.26
298.378	50.69
298.593	34.3
298.807	83.45
299.022	42.5
299.236	7.68
299.451	15.87
299.665	69.12
299.88	-29.18
300.094	52.74
300.309	69.12
300.523	30.21
300.737	89.6
300.952	60.93
301.166	95.74
301.381	-14.85
301.595	69.12
301.809	11.78
302.024	9.73
302.238	15.87
302.452	99.84
302.667	32.26
302.881	69.12
303.095	40.45
303.309	28.16
303.524	-51.71
303.738	93.69
303.952	-2.56
304.166	46.59
304.381	-0.51
304.595	105.98
304.809	-27.14
305.023	48.64
305.237	3.58
305.452	52.74
305.666	40.45
305.88	93.69
306.094	77.31
306.308	85.5
306.522	48.64
306.736	56.83
306.95	118.27
307.164	38.4
307.379	58.88
307.593	105.98
307.807	73.21
308.021	28.16
308.235	11.78
308.449	85.5
308.663	15.87
308.877	142.85
309.091	50.69
309.305	77.31
309.519	-33.28
309.733	114.17
309.947	15.87
310.161	56.83
310.374	56.83
310.588	89.6
310.802	5.63
311.016	-4.61
311.23	-20.99
311.444	34.3
311.658	-8.7
311.872	93.69
312.085	56.83
312.299	122.37
312.513	132.61
312.727	79.36
312.941	58.88
313.154	99.84
313.368	56.83
313.582	24.06
313.796	-49.66
314.009	75.26
314.223	19.97
314.437	26.11
314.651	93.69
314.864	36.35
315.078	40.45
315.292	-47.62
315.505	-53.76
315.719	24.06
315.933	73.21
316.146	40.45
316.36	60.93
316.573	60.93
316.787	-43.52
317.001	-18.94
317.214	19.97
317.428	69.12
317.641	-12.8
317.855	71.17
318.068	71.17
318.282	112.13
318.495	75.26
318.709	67.07
318.922	52.74
319.136	95.74
319.349	1.54
319.563	-20.99
319.776	73.21
319.99	-20.99
320.203	42.5
320.417	71.17
320.63	65.02
320.843	-43.52
321.057	19.97
321.27	36.35
321.483	101.89
321.697	87.55
321.91	52.74
322.124	83.45
322.337	30.21
322.55	54.78
322.763	44.54
322.977	93.69
323.19	-2.56
323.403	44.54
323.617	67.07
323.83	97.79
324.043	50.69
324.256	-8.7
324.469	19.97
324.683	54.78
324.896	9.73
325.109	79.36
325.322	7.68
325.535	52.74
325.748	28.16
325.962	40.45
326.175	28.16
326.388	58.88
326.601	77.31
326.814	50.69
327.027	48.64
327.24	108.03
327.453	-33.28
327.666	97.79
327.879	91.65
328.092	93.69
328.305	-12.8
328.518	81.41
328.731	30.21
328.944	67.07
329.157	-27.14
329.37	15.87
329.583	120.32
329.796	60.93
330.009	34.3
330.222	1.54
330.435	56.83
330.648	48.64
330.861	114.17
331.073	56.83
331.286	11.78
331.499	67.07
331.712	11.78
331.925	52.74
332.138	13.82
332.35	77.31
332.563	56.83
332.776	97.79
332.989	-20.99
333.202	75.26
333.414	-2.56
333.627	40.45
333.84	77.31
334.053	56.83
334.265	62.98
334.478	52.74
334.691	44.54
334.903	120.32
335.116	-0.51
335.329	9.73
335.541	124.41
335.754	36.35
335.966	-6.66
336.179	19.97
336.392	28.16
336.604	54.78
336.817	73.21
337.029	60.93
337.242	99.84
337.454	99.84
337.667	48.64
337.88	42.5
338.092	77.31
338.305	42.5
338.517	101.89
338.729	81.41
338.942	54.78
339.154	9.73
339.367	56.83
339.579	89.6
339.792	46.59
340.004	93.69
340.217	85.5
340.429	-0.51
340.641	7.68
340.854	40.45
341.066	46.59
341.278	60.93
341.491	99.84
341.703	101.89
341.915	-20.99
342.128	134.65
342.34	75.26
342.552	89.6
342.764	89.6
342.977	67.07
343.189	56.83
343.401	30.21
343.613	-29.18
343.826	15.87
344.038	71.17
344.25	19.97
344.462	58.88
344.674	24.06
344.886	19.97
345.099	60.93
345.311	22.02
345.523	34.3
345.735	-37.38
345.947	81.41
346.159	114.17
346.371	58.88
346.583	19.97
346.795	142.85
347.007	52.74
347.219	50.69
347.431	50.69
347.643	114.17
347.855	56.83
348.067	36.35
348.279	58.88
348.491	93.69
348.703	60.93
348.915	-2.56
349.127	-29.18
349.339	146.94
349.551	71.17
349.763	105.98
349.975	24.06
350.187	167.42
350.399	65.02
350.61	89.6
350.822	34.3
351.034	65.02
351.246	48.64
351.458	-12.8
351.669	-20.99
351.881	17.92
352.093	44.54
352.305	73.21
352.517	58.88
352.728	67.07
352.94	81.41
353.152	44.54
353.363	73.21
353.575	65.02
353.787	128.51
353.999	67.07
354.21	60.93
354.422	17.92
354.633	9.73
354.845	-6.66
355.057	75.26
355.268	126.46
355.48	48.64
355.692	9.73
355.903	44.54
356.115	50.69
356.326	42.5
356.538	128.51
356.749	-10.75
356.961	13.82
357.172	44.54
357.384	28.16
357.595	116.22
357.807	34.3
358.018	36.35
358.23	54.78
358.441	140.8
358.653	144.89
358.864	69.12
359.075	28.16
359.287	11.78
359.498	11.78
359.709	69.12
359.921	28.16
360.132	52.74
360.344	65.02
360.555	58.88
360.766	75.26
360.977	34.3
361.189	54.78
361.4	75.26
361.611	192
361.823	40.45
362.034	73.21
362.245	34.3
362.456	5.63
362.667	-39.42
362.879	58.88
363.09	67.07
363.301	15.87
363.512	-12.8
363.723	58.88
363.935	83.45
364.146	132.61
364.357	52.74
364.568	30.21
364.779	71.17
364.99	105.98
365.201	26.11
365.412	42.5
365.623	17.92
365.834	-10.75
366.045	101.89
366.256	50.69
366.467	81.41
366.678	50.69
366.889	73.21
367.1	26.11
367.311	67.07
367.522	95.74
367.733	77.31
367.944	48.64
368.155	91.65
368.366	67.07
368.577	67.07
368.788	58.88
368.999	-4.61
369.209	-12.8
369.42	155.13
369.631	122.37
369.842	32.26
370.053	56.83
370.264	87.55
370.474	-18.94
370.685	85.5
370.896	13.82
371.107	36.35
371.317	91.65
371.528	32.26
371.739	97.79
371.95	-0.51
372.16	77.31
372.371	-37.38
372.582	40.45
372.792	46.59
373.003	-12.8
373.214	-39.42
373.424	58.88
373.635	56.83
373.846	163.33
374.056	60.93
374.267	99.84
374.477	67.07
374.688	65.02
374.898	-4.61
375.109	26.11
375.319	93.69
375.53	140.8
375.74	7.68
375.951	60.93
376.161	85.5
376.372	75.26
376.582	42.5
376.793	85.5
377.003	42.5
377.214	17.92
377.424	85.5
377.635	24.06
377.845	-4.61
378.055	110.08
378.266	-47.62
378.476	81.41
378.686	48.64
378.897	118.27
379.107	157.18
379.317	91.65
379.528	65.02
379.738	85.5
379.948	22.02
380.158	77.31
380.369	54.78
380.579	17.92
380.789	97.79
380.999	11.78
381.21	93.69
381.42	138.75
381.63	1.54
381.84	85.5
382.05	73.21
382.261	17.92
382.471	114.17
382.681	58.88
382.891	146.94
383.101	-37.38
383.311	67.07
383.521	116.22
383.731	99.84
383.941	148.99
384.151	50.69
384.361	58.88
384.571	54.78
384.781	58.88
384.991	112.13
385.201	101.89
385.411	69.12
385.621	58.88
385.831	93.69
386.041	67.07
386.251	101.89
386.461	75.26
386.671	75.26
386.881	91.65
387.091	40.45
387.301	105.98
387.511	140.8
387.72	118.27
387.93	11.78
388.14	-10.75
388.35	126.46
388.56	24.06
388.769	116.22
388.979	89.6
389.189	71.17
389.399	26.11
389.609	44.54
389.818	142.85
390.028	60.93
390.238	116.22
390.447	40.45
390.657	30.21
390.867	9.73
391.076	-10.75
391.286	130.56
391.496	157.18
391.705	24.06
391.915	116.22
392.125	50.69
392.334	67.07
392.544	69.12
392.753	-12.8
392.963	91.65
393.172	134.65
393.382	91.65
393.591	165.37
393.801	30.21
394.01	130.56
394.22	38.4
394.429	112.13
394.639	118.27
394.848	101.89
395.058	101.89
395.267	26.11
395.477	67.07
395.686	44.54
395.895	165.37
396.105	142.85
396.314	85.5
396.524	110.08
396.733	93.69
396.942	130.56
397.152	89.6
397.361	118.27
397.57	9.73
397.78	22.02
397.989	30.21
398.198	167.42
398.407	112.13
398.617	69.12
398.826	17.92
399.035	148.99
399.244	36.35
399.453	62.98
399.663	122.37
399.872	122.37
400.081	69.12
400.29	167.42
400.499	124.41
400.708	91.65
400.917	118.27
401.127	151.04
401.336	36.35
401.545	146.94
401.754	155.13
401.963	146.94
402.172	69.12
402.381	56.83
402.59	134.65
402.799	126.46
403.008	134.65
403.217	124.41
403.426	132.61
403.635	32.26
403.844	155.13
404.053	114.17
404.262	110.08
404.471	140.8
404.68	134.65
404.888	175.61
405.097	138.75
405.306	189.95
405.515	169.47
405.724	93.69
405.933	208.38
406.142	202.24
406.35	189.95
406.559	110.08
406.768	153.09
406.977	224.76
407.185	136.7
407.394	192
407.603	179.71
407.812	214.52
408.02	271.87
408.229	196.09
408.438	165.37
408.646	122.37
408.855	198.14
409.064	183.81
409.272	151.04
409.481	228.86
409.69	210.43
409.898	282.11
410.107	241.15
410.315	247.29
410.524	271.87
410.733	224.76
410.941	251.39
411.15	284.16
411.358	265.72
411.567	366.07
411.775	298.49
411.984	294.4
412.192	347.64
412.401	355.83
412.609	378.36
412.818	400.89
413.026	384.51
413.234	308.73
413.443	392.7
413.651	380.41
413.86	331.26
414.068	454.14
414.276	488.95
414.485	415.23
414.693	515.58
414.901	523.77
415.11	531.96
415.318	495.1
415.526	527.86
415.734	558.58
415.943	542.2
416.151	536.06
416.359	544.25
416.567	613.88
416.776	622.07
416.984	648.69
417.192	724.47
417.4	683.51
417.608	769.52
417.817	740.85
418.025	765.43
418.233	869.87
418.441	691.7
418.649	839.16
418.857	859.63
419.065	919.03
419.273	845.3
419.481	933.36
419.689	984.56
419.897	1023.47
420.105	1072.62
420.313	1134.06
420.521	1232.37
420.729	1181.17
420.937	1146.35
421.145	1263.08
421.353	1275.37
421.561	1369.58
421.769	1277.42
421.977	1394.15
422.185	1379.82
422.393	1377.77
422.601	1545.7
422.809	1514.98
423.017	1666.53
423.224	1656.29
423.432	1682.92
423.64	1740.26
423.848	1830.37
424.056	1746.41
424.263	1928.67
424.471	1994.21
424.679	1934.82
424.887	2133.47
425.094	2125.28
425.302	2172.38
425.51	2268.64
425.718	2272.73
425.925	2215.39
426.133	2448.86
426.341	2715.09
426.548	2670.04
426.756	2663.9
426.964	2788.82
427.171	2936.28
427.379	2932.18
427.586	2837.97
427.794	3034.58
428.001	3177.94
428.209	3245.52
428.417	3227.09
428.624	3489.23
428.832	3567.05
429.039	3395.02
429.247	3417.55
429.454	3960.26
429.662	3972.55
429.869	3804.61
430.076	4023.75
430.284	3919.3
430.491	4203.97
430.699	4337.09
430.906	4345.28
431.114	4394.43
431.321	4631.99
431.528	4697.53
431.736	4883.89
431.943	5160.37
432.15	5041.59
432.358	5131.7
432.565	5412.27
432.772	5340.59
432.979	5647.79
433.187	5662.12
433.394	5711.27
433.601	6120.87
433.808	6057.38
434.016	6108.58
434.223	6376.86
434.43	6860.18
434.637	6815.13
434.844	7024.02
435.052	7249.3
435.259	7067.03
435.466	7294.35
435.673	7259.54
435.88	7564.68
436.087	8158.6
436.294	8168.84
436.501	7845.26
436.708	8015.24
436.915	8340.86
437.122	8646.01
437.329	8574.33
437.537	8955.26
437.743	8981.88
437.95	8916.34
438.157	9313.65
438.364	9524.59
438.571	9596.27
438.778	9745.77
438.985	10710.36
439.192	10112.36
439.399	10845.53
439.606	10239.33
439.813	10816.86
440.02	11552.08
440.227	11451.73
440.433	11291.99
440.64	11677.01
440.847	11609.42
441.054	11898.19
441.261	12475.71
441.467	12451.14
441.674	12602.69
441.881	13196.6
442.088	12922.17
442.294	13331.76
442.501	13614.38
442.708	13911.34
442.914	14142.76
443.121	14787.87
443.328	14484.77
443.534	15529.24
443.741	15101.21
443.948	14841.12
444.154	16033.04
444.361	15852.81
444.568	15944.97
444.774	15887.63
444.981	15920.4
445.187	16745.73
445.394	17167.61
445.6	17003.77
445.807	18384.1
446.013	17876.21
446.22	18099.44
446.426	18777.31
446.633	19023.07
446.839	19547.35
447.046	18951.39
447.252	19836.11
447.459	19997.9
447.665	19655.89
447.871	20614.34
448.078	21519.54
448.284	20520.13
448.491	21046.46
448.697	21941.43
448.903	22158.51
449.11	22273.2
449.316	21884.08
449.522	22097.07
449.728	22844.58
449.935	23364.76
450.141	23180.45
450.347	23438.49
450.553	22875.3
450.76	23397.53
450.966	23913.62
451.172	23823.51
451.378	24179.86
451.584	23710.87
451.791	24278.16
451.997	24315.02
452.203	24413.32
452.409	24847.49
452.615	24661.13
452.821	23366.81
453.027	23157.92
453.233	24927.36
453.44	23305.37
453.646	23788.69
453.852	23841.94
454.058	24419.47
454.264	23551.13
454.47	23979.15
454.676	23444.63
454.882	24233.1
455.088	21927.09
455.294	22340.78
455.5	22908.07
455.705	22516.9
455.911	22250.67
456.117	21630.13
456.323	21232.83
456.529	20153.55
456.735	21007.55
456.941	20452.55
457.147	20075.73
457.352	19602.64
457.558	19229.91
457.764	19326.17
457.97	18816.22
458.176	18445.54
458.381	18349.29
458.587	17464.57
458.793	17343.74
458.999	16542.98
459.204	18052.33
459.41	17196.28
459.616	16225.54
459.821	15944.97
460.027	16213.26
460.233	15760.66
460.438	15144.22
460.644	15191.32
460.85	14728.48
461.055	14249.25
461.261	14265.64
461.466	13184.31
461.672	12746.05
461.878	13618.48
462.083	12954.94
462.289	12342.6
462.494	12473.67
462.7	11863.37
462.905	11631.95
463.111	12133.7
463.316	11824.46
463.522	11570.51
463.727	11808.08
463.932	11910.47
464.138	11593.04
464.343	11726.16
464.549	11271.51
464.754	11644.24
464.959	11541.84
465.165	11478.35
465.37	10868.06
465.575	10646.88
465.781	11171.16
465.986	11144.53
466.191	10691.93
466.397	10603.87
466.602	9854.31
466.807	10513.76
467.012	10345.83
467.218	10270.05
467.423	10079.59
467.628	10243.43
467.833	10892.63
468.038	10403.17
468.244	10042.73
468.449	10620.25
468.654	9934.18
468.859	10165.6
469.064	10095.97
469.269	9487.73
469.474	9616.75
469.679	9870.7
469.885	9612.65
470.09	9637.23
470.295	9659.76
470.5	9342.32
470.705	9481.58
470.91	9334.13
471.115	9176.44
471.32	9237.88
471.525	9327.99
471.73	9022.84
471.935	9102.71
472.139	8639.87
472.344	8820.09
472.549	8594.81
472.754	8527.23
472.959	8394.11
473.164	8152.45
473.369	8076.68
473.574	8523.13
473.778	8201.6
473.983	8226.18
474.188	8197.51
474.393	7882.12
474.598	7974.28
474.802	7695.75
475.007	7740.81
475.212	7724.43
475.417	7454.09
475.621	7523.73
475.826	7429.52
476.031	7439.76
476.235	7097.75
476.44	7411.09
476.645	7214.48
476.849	7110.04
477.054	7011.73
477.259	6858.14
477.463	6966.68
477.668	6903.19
477.872	7122.32
478.077	6716.83
478.282	6616.48
478.486	6737.31
478.691	6469.02
478.895	6389.15
479.1	6573.47
479.304	6581.66
479.509	6270.37
479.713	6475.17
479.918	6063.52
480.122	6317.47
480.326	6251.94
480.531	6174.11
480.735	6045.09
480.94	6143.39
481.144	6253.98
481.348	6112.67
481.553	6067.62
481.757	5858.73
481.961	6030.76
482.166	6104.48
482.37	6043.04
482.574	5903.78
482.778	5858.73
482.983	6098.34
483.187	6041
483.391	6012.32
483.595	6041
483.8	5932.45
484.004	5981.6
484.208	6014.37
484.412	5928.36
484.616	6114.72
484.821	6067.62
485.025	5768.62
485.229	5848.49
485.433	6041
485.637	5967.27
485.841	5983.65
486.045	5950.89
486.249	5846.44
486.453	5787.05
486.657	5877.16
486.861	5850.53
487.065	6079.91
487.269	5965.22
487.473	5957.03
487.677	5932.45
487.881	6143.39
488.085	6049.19
488.289	5926.31
488.493	5983.65
488.697	6038.95
488.901	6016.42
489.105	6147.49
489.309	5848.49
489.512	6061.48
489.716	5987.75
489.92	6120.87
490.124	6157.73
490.328	6245.79
490.531	6000.04
490.735	6159.78
490.939	6104.48
491.143	6114.72
491.346	6131.11
491.55	6307.23
491.754	6344.1
491.958	6206.88
492.161	6245.79
492.365	6303.14
492.569	6440.35
492.772	6391.2
492.976	6256.03
493.18	6475.17
493.383	6362.53
493.587	6471.07
493.79	6702.49
493.994	6477.21
494.197	6552.99
494.401	6532.51
494.605	6671.77
494.808	6804.89
495.012	6548.89
495.215	6872.47
495.419	6729.11
495.622	6747.55
495.825	6925.72
496.029	6929.81
496.232	7245.2
496.436	7019.92
496.639	7150.99
496.843	7204.24
497.046	7452.05
497.249	7409.04
497.453	7464.33
497.656	7568.78
497.859	7507.34
498.063	7538.06
498.266	7777.67
498.469	7683.47
498.673	7779.72
498.876	7736.71
499.079	7855.5
499.282	7783.82
499.485	8201.6
499.689	8019.33
499.892	8316.29
500.095	8326.53
500.298	8533.37
500.501	8514.94
500.705	8637.82
500.908	8813.95
501.111	9026.93
501.314	8953.21
501.517	9031.03
501.72	9051.51
501.923	9076.09
502.126	9295.22
502.329	9381.23
502.532	9540.97
502.735	9545.07
502.938	9676.14
503.141	9768.3
503.344	9913.7
503.547	10077.54
503.75	10095.97
503.953	10274.15
504.156	10493.28
504.359	10319.2
504.562	10278.24
504.765	10650.97
504.968	10880.35
505.17	10872.15
505.373	11111.77
505.576	11126.1
505.779	11320.66
505.982	11203.93
506.185	11412.82
506.387	11517.26
506.59	11679.05
506.793	11765.07
506.996	11844.94
507.198	12279.11
507.401	12043.59
507.604	12516.67
507.807	12395.84
508.009	12698.94
508.212	12610.88
508.415	12938.55
508.617	12995.9
508.82	12938.55
509.022	13063.48
509.225	13413.68
509.428	13571.38
509.63	13581.62
509.833	13815.09
510.035	14019.88
510.238	13647.15
510.44	13903.15
510.643	14183.72
510.845	14269.73
511.048	14398.76
511.25	14601.51
511.453	14564.64
511.655	15201.56
511.858	14945.56
512.06	15179.03
512.262	15078.68
512.465	15355.16
512.667	15551.76
512.87	15564.05
513.072	15625.49
513.274	16047.37
513.477	16260.36
513.679	16286.98
513.881	16321.8
514.084	16452.87
514.286	16770.3
514.488	16835.84
514.69	17067.26
514.893	17220.86
515.095	17122.55
515.297	17343.74
515.499	17480.95
515.701	17571.06
515.904	17880.3
516.106	18089.2
516.308	18275.56
516.51	18300.14
516.712	18691.3
516.914	18795.75
517.116	18978.01
517.318	19039.45
517.52	18943.2
517.722	19410.14
517.925	19684.56
518.127	19573.97
518.329	19875.02
518.531	19881.17
518.733	20225.23
518.935	20550.85
519.136	20370.63
519.338	20888.77
519.54	20743.36
519.742	21030.08
519.944	21380.28
520.146	21628.09
520.348	21548.22
520.55	21738.68
520.752	21769.4
520.954	22324.4
521.155	22258.86
521.357	22674.6
521.559	22740.13
521.761	22910.11
521.963	23254.17
522.164	23239.84
522.366	23225.5
522.568	23465.11
522.77	23823.51
522.971	24046.74
523.173	23887
523.375	24116.37
523.576	24089.74
523.778	24355.98
523.98	24507.53
524.181	24597.64
524.383	25048.19
524.584	24870.02
524.786	25300.09
524.988	25138.3
525.189	25848.95
525.391	26180.72
525.592	25863.29
525.794	26016.88
525.995	26233.97
526.197	26254.45
526.398	26311.79
526.6	26600.55
526.801	26823.78
527.003	26713.19
527.204	26850.41
527.406	27393.12
527.607	27212.9
527.808	27677.79
528.01	27278.43
528.211	27288.67
528.412	27950.17
528.614	28042.32
528.815	27909.21
529.016	28238.93
529.218	28060.76
529.419	28349.52
529.62	28599.37
529.822	28361.81
530.023	28462.16
530.224	28689.48
530.425	28413.01
530.626	28380.24
530.828	28345.42
531.029	29359.17
531.23	29027.4
531.431	28838.98
531.632	29115.46
531.833	29103.17
532.035	28970.05
532.236	29260.87
532.437	29602.88
532.638	29357.12
532.839	29492.29
533.04	29787.19
533.241	29236.29
533.442	30032.95
533.643	29959.22
533.844	29688.89
534.045	29760.57
534.246	29684.8
534.447	30041.14
534.648	29905.98
534.849	30065.72
535.05	29826.1
535.251	29641.79
535.451	30080.05
535.652	30293.04
535.853	30182.45
536.054	30366.77
536.255	29989.94
536.456	29535.29
536.657	30565.42
536.857	29760.57
537.058	29983.8
537.259	30362.67
537.46	29991.99
537.66	30364.72
537.861	30379.06
538.062	30436.4
538.263	30403.63
538.463	30026.81
538.664	30522.41
538.865	30065.72
539.065	30356.53
539.266	30028.85
539.466	30430.26
539.667	30051.38
539.868	30245.94
540.068	29977.65
540.269	30487.6
540.469	30116.92
540.67	30501.93
540.87	30659.63
541.071	30325.81
541.271	30581.81
541.472	30329.91
541.672	30028.85
541.873	30139.44
542.073	30381.1
542.274	30360.62
542.474	30209.08
542.675	30358.58
542.875	30286.9
543.075	30379.06
543.276	30102.58
543.476	30381.1
543.676	29803.58
543.877	30250.03
544.077	30444.59
544.277	30047.29
544.478	30174.26
544.678	30542.89
544.878	30213.17
545.078	30280.75
545.279	30010.42
545.479	30241.84
545.679	30628.91
545.879	29957.17
546.079	30270.51
546.28	30278.71
546.48	29991.99
546.68	30446.64
546.88	30166.07
547.08	30073.91
547.28	30143.54
547.48	29881.4
547.68	30305.33
547.88	30053.43
548.081	30426.16
548.281	30434.35
548.481	29891.64
548.681	30204.98
548.881	30051.38
549.081	30168.12
549.28	30098.48
549.48	30354.48
549.68	30010.42
549.88	30751.79
550.08	30192.69
550.28	30159.92
550.48	30147.64
550.68	30340.15
550.88	30229.55
551.08	29852.73
551.279	30239.79
551.479	29811.77
551.679	30360.62
551.879	30209.08
552.079	29822.01
552.278	29908.02
552.478	30127.16
552.678	30080.05
552.878	29889.59
553.077	29873.21
553.277	29803.58
553.477	30098.48
553.676	29275.2
553.876	29951.03
554.076	29772.86
554.275	29602.88
554.475	29094.98
554.674	29817.91
554.874	29649.98
555.074	29635.64
555.273	29903.93
555.473	29684.8
555.672	29844.54
555.872	29396.03
556.071	29473.85
556.271	29477.95
556.47	29432.89
556.67	29056.07
556.869	29002.82
557.068	29168.71
557.268	28683.34
557.467	29054.02
557.667	29178.95
557.866	28884.04
558.065	28925
558.265	28757.07
558.464	28834.89
558.663	29211.71
558.863	28462.16
559.062	29045.83
559.261	28499.02
559.461	28765.26
559.66	28656.71
559.859	28464.21
560.058	28337.23
560.258	28339.28
560.457	28187.73
560.656	28324.94
560.855	27909.21
561.054	28097.62
561.253	27685.98
561.453	27939.93
561.652	28122.19
561.851	27984.98
562.05	27706.46
562.249	27782.23
562.448	27780.18
562.647	27481.18
562.846	27567.2
563.045	27321.44
563.244	27235.42
563.443	27546.72
563.642	26860.65
563.841	27366.49
564.04	27014.24
564.239	27098.21
564.438	26985.57
564.637	26924.13
564.836	26926.18
565.035	26328.17
565.234	26795.11
565.432	26549.35
565.631	26049.65
565.83	26578.03
566.029	26250.35
566.228	26254.45
566.427	25994.36
566.625	25726.07
566.824	25701.5
567.023	26227.82
567.222	25615.48
567.42	25658.49
567.619	25226.37
567.818	25390.2
568.016	25181.31
568.215	25285.76
568.414	25150.59
568.612	25539.71
568.811	25046.15
569.01	25021.57
569.208	24777.86
569.407	24904.84
569.605	24468.62
569.804	24833.16
570.002	24521.87
570.201	24759.43
570.4	24272.01
570.598	24159.38
570.797	24261.77
570.995	24476.81
571.193	23927.95
571.392	23946.39
571.59	23819.41
571.789	23868.56
571.987	23618.71
572.186	23493.79
572.384	23405.72
572.582	23456.92
572.781	23405.72
572.979	22883.49
573.177	23172.25
573.376	23231.65
573.574	23067.81
573.772	23166.11
573.971	22768.8
574.169	22920.35
574.367	22709.41
574.565	22897.83
574.763	22355.11
574.962	22396.07
575.16	22629.54
575.358	22512.81
575.556	22082.74
575.754	22422.7
575.952	22004.91
576.151	22406.31
576.349	21902.51
576.547	21847.22
576.745	21781.68
576.943	22004.91
577.141	21662.9
577.339	21671.09
577.537	21540.02
577.735	21499.06
577.933	21406.91
578.131	21177.53
578.329	21349.56
578.527	21126.33
578.725	21001.41
578.923	21259.45
579.121	21077.18
579.319	20905.15
579.516	20964.54
579.714	21097.66
579.912	20812.99
580.11	20841.67
580.308	20688.07
580.506	20823.23
580.704	20591.81
580.901	20329.67
581.099	20602.05
581.297	20499.66
581.495	20028.62
581.692	20321.48
581.89	20178.12
582.088	20479.18
582.285	19907.79
582.483	20430.02
582.681	19840.21
582.878	19854.55
583.076	19766.48
583.274	19789.01
583.471	19500.25
583.669	19786.96
583.866	19447
584.064	19614.93
584.262	19244.25
584.459	19449.05
584.657	19352.79
584.854	19311.83
585.052	19148
585.249	19246.3
585.447	19299.55
585.644	18992.35
585.841	18887.9
586.039	19121.37
586.236	18773.22
586.434	18865.38
586.631	18730.21
586.828	18812.13
587.026	18461.93
587.223	18357.48
587.42	18455.78
587.618	18593
587.815	18539.75
588.012	18394.34
588.21	18318.57
588.407	18400.49
588.604	18187.5
588.801	18152.68
588.999	18265.32
589.196	18126.06
589.393	18402.54
589.59	17857.78
589.787	17820.91
589.984	17706.23
590.182	17751.28
590.379	17732.85
590.576	17577.2
590.773	17628.4
590.97	17419.51
591.167	17571.06
591.364	17157.37
591.561	17741.04
591.758	17237.24
591.955	17341.69
592.152	17564.92
592.349	17353.98
592.546	17233.15
592.743	17183.99
592.94	16776.45
593.137	16989.44
593.334	17011.96
593.531	16727.3
593.727	16641.28
593.924	16993.53
594.121	16719.1
594.318	16708.87
594.515	16329.99
594.712	16946.43
594.908	16397.57
595.105	16614.66
595.302	16403.72
595.499	16502.02
595.696	16155.91
595.892	16137.48
596.089	16090.38
596.286	16098.57
596.482	16157.96
596.679	16164.11
596.876	16008.46
597.072	15938.83
597.269	15926.54
597.466	15680.78
597.662	15881.49
597.859	15629.59
598.055	15645.97
598.252	15449.36
598.448	15611.15
598.645	15555.86
598.841	15418.64
599.038	15547.67
599.234	15607.06
599.431	15205.66
599.627	15187.22
599.824	15322.39
600.02	15113.5
600.217	15244.57
600.413	15088.92
600.609	14939.42
600.806	14945.56
601.002	15133.98
601.198	14945.56
601.395	15027.48
601.591	14822.69
601.787	14935.32
601.984	14873.89
602.18	14748.96
602.376	14693.66
602.572	14501.15
602.769	14470.44
602.965	14472.48
603.161	14378.28
603.357	14325.03
603.553	14318.89
603.75	14282.02
603.946	14392.61
604.142	14443.81
604.338	14193.96
604.534	14075.18
604.73	13884.72
604.926	14036.27
605.122	13868.33
605.318	13985.07
605.514	13862.19
605.71	13765.93
605.906	13886.76
606.102	13663.54
606.298	13677.87
606.494	13733.17
606.69	13348.15
606.886	14028.07
607.082	13532.47
607.278	13716.78
607.474	13450.55
607.67	13485.36
607.866	13296.95
608.062	13724.97
608.257	13198.65
608.453	13315.38
608.649	13286.71
608.845	13047.1
609.041	13069.62
609.236	13499.7
609.432	13049.14
609.628	13184.31
609.824	12954.94
610.019	13040.95
610.215	12920.12
610.411	13161.78
610.606	12913.98
610.802	12750.14
610.998	12905.79
611.193	12993.85
611.389	12776.77
611.584	12711.23
611.78	12852.54
611.976	12758.33
612.171	12821.82
612.367	12772.67
612.562	12649.79
612.758	12797.24
612.953	12404.03
613.149	12653.89
613.344	12586.3
613.539	12731.71
613.735	12361.03
613.93	12580.16
614.126	12361.03
614.321	12737.85
614.517	12424.51
614.712	12416.32
614.907	12209.48
615.103	12184.9
615.298	12117.32
615.493	12451.14
615.688	12240.2
615.884	12256.58
616.079	12027.21
616.274	12008.78
616.47	12014.92
616.665	12074.31
616.86	12029.26
617.055	12090.7
617.25	11945.29
617.445	12139.85
617.641	11660.62
617.836	11916.62
618.031	11773.26
618.226	11849.04
618.421	11851.08
618.616	11877.71
618.811	11662.67
619.006	11799.88
619.201	11464.02
619.396	11623.76
619.591	11449.68
619.786	11789.64
619.981	11560.27
620.176	11547.98
620.371	11392.34
620.566	11476.3
620.761	11183.45
620.956	11259.22
621.151	10898.78
621.346	11326.8
621.541	10966.36
621.735	11150.68
621.93	10853.72
622.125	10886.49
622.32	10562.91
622.515	10593.63
622.709	10696.03
622.904	10796.38
623.099	10536.29
623.294	10579.29
623.488	10446.18
623.683	10505.57
623.878	10276.2
624.072	10296.67
624.267	10360.16
624.462	10196.32
624.656	10124.65
624.851	10292.58
625.046	10093.93
625.24	10110.31
625.435	10095.97
625.629	10126.69
625.824	9866.6
626.018	9989.48
626.213	9645.42
626.407	9862.51
626.602	9698.67
626.796	9543.02
626.991	9751.92
627.185	9430.38
627.38	9485.68
627.574	9454.96
627.768	9364.85
627.963	9227.64
628.157	9278.83
628.352	9104.76
628.546	9078.13
628.74	9258.35
628.935	8965.5
629.129	9108.85
629.323	8949.11
629.517	8930.68
629.712	8910.2
629.906	8777.08
630.1	8820.09
630.294	8865.14
630.489	8578.43
630.683	8629.63
630.877	8578.43
631.071	8570.24
631.265	8633.72
631.459	8383.87
631.653	8330.62
631.848	8506.75
632.042	8326.53
632.236	8404.35
632.43	8258.95
632.624	8312.19
632.818	8031.62
633.012	7900.55
633.206	7998.85
633.4	8168.84
633.594	7974.28
633.788	8039.81
633.982	7966.09
634.176	7982.47
634.369	7984.52
634.563	7859.59
634.757	7767.43
634.951	7753.1
635.145	7777.67
635.339	7781.77
635.533	7632.27
635.726	7542.16
635.92	7433.61
636.114	7503.25
636.308	7366.03
636.501	7597.45
636.695	7370.13
636.889	7417.23
637.083	7345.55
637.276	7292.3
637.47	7265.68
637.664	7314.83
637.857	7114.13
638.051	6997.4
638.244	6954.39
638.438	7019.92
638.632	7071.12
638.825	6935.96
639.019	6964.63
639.212	6915.48
639.406	6921.62
639.599	6589.85
639.793	6794.65
639.986	6647.19
640.18	6798.74
640.373	6708.63
640.567	6573.47
640.76	6677.91
640.954	6753.69
641.147	6596
641.34	6327.71
641.534	6469.02
641.727	6563.23
641.92	6448.54
642.114	6507.93
642.307	6401.44
642.5	6292.9
642.694	6307.23
642.887	6258.08
643.08	6327.71
643.273	6233.5
643.467	6215.07
643.66	5991.84
643.853	5907.88
644.046	5834.15
644.239	6139.3
644.432	5922.21
644.626	5975.46
644.819	5877.16
645.012	5883.3
645.205	6043.04
645.398	5811.62
645.591	5733.8
645.784	5801.38
645.977	5686.7
646.17	5840.29
646.363	5780.9
646.556	5639.59
646.749	5516.72
646.942	5635.5
647.135	5492.14
647.328	5418.41
647.521	5414.32
647.714	5475.76
647.907	5572.01
648.099	5529
648.292	5486
648.485	5610.92
648.678	5371.31
648.871	5238.19
649.064	5266.86
649.256	5383.6
649.449	5180.85
649.642	5096.88
649.835	5299.63
650.027	5332.4
650.22	5158.32
650.413	5078.45
650.605	5211.57
650.798	5156.27
650.991	5088.69
651.183	5117.36
651.376	4959.67
651.568	4924.85
651.761	4875.7
651.954	5078.45
652.146	4955.57
652.339	4869.56
652.531	4883.89
652.724	4955.57
652.916	4681.14
653.109	4804.02
653.301	4869.56
653.494	4683.19
653.686	4775.35
653.879	4730.3
654.071	4799.93
654.263	4548.03
654.456	4707.77
654.648	4566.46
654.84	4627.9
655.033	4492.73
655.225	4611.51
655.417	4574.65
655.61	4545.98
655.802	4488.64
655.994	4388.29
656.186	4414.91
656.379	4562.36
656.571	4353.47
656.763	4351.42
656.955	4380.09
657.148	4287.93
657.34	4494.78
657.532	4388.29
657.724	4246.98
657.916	4435.39
658.108	4318.65
658.3	4165.06
658.492	4271.55
658.684	4189.63
658.876	4140.48
659.068	4187.58
659.26	4095.43
659.452	4222.4
659.644	4113.86
659.836	4066.75
660.028	4099.52
660.22	4027.84
660.412	4021.7
660.604	3966.4
660.796	4115.91
660.988	4095.43
661.18	3937.73
661.372	3911.11
661.563	4036.03
661.755	4007.36
661.947	3950.02
662.139	4093.38
662.331	3853.77
662.522	3814.85
662.714	3857.86
662.906	3874.24
663.097	3884.48
663.289	3800.52
663.481	3689.93
663.673	3810.76
663.864	3831.24
664.056	3786.18
664.247	3734.98
664.439	3741.13
664.631	3796.42
664.822	3870.15
665.014	3724.74
665.205	3751.37
665.397	3644.87
665.588	3745.22
665.78	3636.68
665.971	3640.78
666.163	3708.36
666.354	3788.23
666.546	3608.01
666.737	3648.97
666.929	3579.34
667.12	3710.41
667.311	3558.86
667.503	3550.67
667.694	3550.67
667.885	3581.39
668.077	3624.39
668.268	3603.91
668.459	3562.95
668.651	3575.24
668.842	3603.91
669.033	3638.73
669.224	3435.98
669.416	3759.56
669.607	3626.44
669.798	3526.09
669.989	3605.96
670.18	3546.57
670.371	3562.95
670.563	3464.65
670.754	3714.5
670.945	3605.96
671.136	3474.89
671.327	3675.59
671.518	3694.02
671.709	3657.16
671.9	3515.85
672.091	3708.36
672.282	3530.19
672.473	3542.47
672.664	3513.8
672.855	3450.32
673.046	3657.16
673.237	3644.87
673.428	3628.49
673.619	3591.63
673.809	3562.95
674	3595.72
674.191	3624.39
674.382	3532.23
674.573	3556.81
674.764	3620.3
674.954	3603.91
675.145	3616.2
675.336	3661.26
675.527	3616.2
675.717	3739.08
675.908	3694.02
676.099	3597.77
676.289	3694.02
676.48	3753.41
676.671	3673.54
676.861	3771.85
677.052	3665.35
677.243	3767.75
677.433	3716.55
677.624	3769.8
677.814	3816.9
678.005	3728.84
678.195	3763.65
678.386	3812.81
678.576	3691.98
678.767	3724.74
678.957	3714.5
679.148	3839.43
679.338	3814.85
679.529	3859.91
679.719	3837.38
679.909	3931.59
680.1	3755.46
680.29	3902.92
680.481	4044.23
680.671	3909.06
680.861	3894.72
681.052	3988.93
681.242	3943.88
681.432	4138.43
681.622	4081.09
681.813	3984.84
682.003	3986.88
682.193	4001.22
682.383	4033.99
682.573	3904.96
682.764	4150.72
682.954	4036.03
683.144	3927.49
683.334	3993.03
683.524	3950.02
683.714	4300.22
683.904	4062.66
684.094	4029.89
684.284	3884.48
684.474	4036.03
684.664	4036.03
684.854	4001.22
685.044	3892.68
685.234	3966.4
685.424	4072.9
685.614	4089.28
685.804	4056.51
685.994	4060.61
686.184	4001.22
686.374	3896.77
686.564	3972.55
686.753	3937.73
686.943	3923.4
687.133	3870.15
687.323	3984.84
687.513	4042.18
687.702	4103.62
687.892	3786.18
688.082	3845.57
688.272	4029.89
688.461	3950.02
688.651	3874.24
688.841	3892.68
689.03	3976.64
689.22	3714.5
689.41	3784.13
689.599	3642.82
689.789	3771.85
689.979	3728.84
690.168	3745.22
690.358	3624.39
690.547	3673.54
690.737	3597.77
690.926	3517.9
691.116	3585.48
691.305	3519.95
691.495	3585.48
691.684	3544.52
691.874	3542.47
692.063	3386.83
692.252	3585.48
692.442	3311.05
692.631	3382.73
692.82	3304.91
693.01	3255.76
693.199	3317.2
693.388	3266
693.578	3227.09
693.767	3317.2
693.956	3231.18
694.146	3182.03
694.335	3157.46
694.524	3141.07
694.713	3216.85
694.902	3079.63
695.092	3124.69
695.281	3182.03
695.47	3200.46
695.659	3010
695.848	3042.77
696.037	3022.29
696.226	3149.26
696.415	3057.11
696.604	3085.78
696.793	3010
696.982	3018.19
697.171	2981.33
697.36	2913.75
697.549	2977.23
697.738	2944.47
697.927	3001.81
698.116	2969.04
698.305	2930.13
698.494	2803.16
698.683	2940.37
698.872	3108.3
699.061	2973.14
699.25	3087.82
699.438	2852.31
699.627	2846.16
699.816	2911.7
700.005	2909.65
700.193	2903.51
700.382	2950.61
700.571	2938.32
700.76	2907.6
700.948	2919.89
701.137	2950.61
701.326	2977.23
701.514	2858.45
701.703	2942.42
701.892	2956.75
702.08	2956.75
702.269	2782.68
702.457	2913.75
702.646	2911.7
702.834	2883.03
703.023	2883.03
703.212	2971.09
703.4	2950.61
703.589	2958.8
703.777	2987.47
703.965	2993.62
704.154	2917.84
704.342	2950.61
704.531	2932.18
704.719	2911.7
704.907	3030.48
705.096	2786.77
705.284	2901.46
705.472	3050.96
705.661	2964.95
705.849	2981.33
706.037	3038.67
706.226	3071.44
706.414	3018.19
706.602	2948.56
706.79	2973.14
706.979	3059.15
707.167	3071.44
707.355	3116.5
707.543	3059.15
707.731	3016.15
707.919	3005.91
708.107	3034.58
708.296	3161.55
708.484	3034.58
708.672	3155.41
708.86	3141.07
709.048	3202.51
709.236	3089.87
709.424	3255.76
709.612	3108.3
709.8	3175.89
709.988	3065.3
710.176	3177.94
710.364	3229.13
710.551	3266
710.739	3241.42
710.927	3169.74
711.115	3313.1
711.303	3288.53
711.491	3296.72
711.679	3358.16
711.866	3253.71
712.054	3462.6
712.242	3403.21
712.43	3517.9
712.617	3415.5
712.805	3515.85
712.993	3444.17
713.181	3485.13
713.368	3419.6
713.556	3456.46
713.744	3431.88
713.931	3601.87
714.119	3542.47
714.306	3485.13
714.494	3530.19
714.682	3605.96
714.869	3608.01
715.057	3558.86
715.244	3575.24
715.432	3661.26
715.619	3603.91
715.807	3792.33
715.994	3724.74
716.182	3624.39
716.369	3831.24
716.556	3706.31
716.744	3605.96
716.931	3849.67
717.119	3952.07
717.306	3818.95
717.493	3669.45
717.681	3907.01
717.868	3722.7
718.055	3993.03
718.242	3986.88
718.43	3851.72
718.617	3919.3
718.804	4001.22
718.991	3943.88
719.179	3958.21
719.366	3866.05
719.553	4097.47
719.74	4029.89
719.927	3972.55
720.114	3915.2
720.301	4011.46
720.488	3964.36
720.676	4058.56
720.863	4120
721.05	4195.78
721.237	4095.43
721.424	4197.82
721.611	4337.09
721.798	4212.16
721.985	4130.24
722.172	4093.38
722.358	4177.34
722.545	4298.17
722.732	4173.25
722.919	4345.28
723.106	4244.93
723.293	4226.5
723.48	4171.2
723.667	4304.32
723.853	4357.57
724.04	4476.35
724.227	4406.72
724.414	4443.58
724.6	4500.92
724.787	4298.17
724.974	4574.65
725.161	4537.79
725.347	4414.91
725.534	4406.72
725.72	4582.84
725.907	4654.52
726.094	4550.07
726.28	4541.88
726.467	4603.32
726.653	4580.79
726.84	4582.84
727.027	4728.25
727.213	4564.41
727.4	4709.82
727.586	4711.86
727.773	4613.56
727.959	4685.24
728.145	4709.82
728.332	4705.72
728.518	4773.3
728.705	4722.1
728.891	4664.76
729.077	4857.27
729.264	4750.78
729.45	4750.78
729.636	4994.48
729.823	4754.87
730.009	4935.09
730.195	4828.6
730.382	4910.52
730.568	4883.89
730.754	4865.46
730.94	4804.02
731.126	4771.26
731.313	4912.57
731.499	4900.28
731.685	4887.99
731.871	5119.41
732.057	4842.93
732.243	4976.05
732.429	5072.31
732.615	5004.72
732.801	5035.44
732.987	4820.41
733.173	5113.27
733.359	5008.82
733.545	4982.2
733.731	5090.74
733.917	5049.78
734.103	4998.58
734.289	5070.26
734.475	5230
734.661	5193.14
734.847	5090.74
735.033	5078.45
735.219	5090.74
735.404	5098.93
735.59	5082.55
735.776	5039.54
735.962	5064.11
736.148	5139.89
736.333	5078.45
736.519	5078.45
736.705	4926.9
736.89	5152.18
737.076	5152.18
737.262	5062.07
737.447	5158.32
737.633	5154.23
737.819	5152.18
738.004	4902.33
738.19	5137.84
738.375	5178.8
738.561	5246.38
738.747	5133.75
738.932	5131.7
739.118	5082.55
739.303	5105.07
739.489	5088.69
739.674	5160.37
739.859	4851.13
740.045	5027.25
740.23	5105.07
740.416	5047.73
740.601	5139.89
740.786	5031.35
740.972	5025.2
741.157	5049.78
741.342	4877.75
741.528	4896.18
741.713	5045.68
741.898	4980.15
742.084	4916.66
742.269	4965.81
742.454	4967.86
742.639	4906.42
742.824	4808.12
743.01	4912.57
743.195	5055.92
743.38	4937.14
743.565	4806.07
743.75	4976.05
743.935	4836.79
744.12	4869.56
744.305	4738.49
744.49	4662.71
744.675	4742.58
744.86	4736.44
745.045	4836.79
745.23	4644.28
745.415	4711.86
745.6	4832.69
745.785	4691.38
745.97	4566.46
746.155	4482.49
746.34	4603.32
746.525	4425.15
746.71	4541.88
746.895	4539.83
747.079	4484.54
747.264	4644.28
747.449	4367.81
747.634	4378.05
747.819	4423.1
748.003	4367.81
748.188	4240.83
748.373	4435.39
748.557	4386.24
748.742	4279.74
748.927	4171.2
749.111	4171.2
749.296	4140.48
749.481	4066.75
749.665	4124.1
749.85	4124.1
750.034	4191.68
750.219	4048.32
750.404	4128.19
750.588	3988.93
750.773	3909.06
750.957	3935.68
751.141	4023.75
751.326	3917.25
751.51	3739.08
751.695	3790.28
751.879	3702.22
752.064	3816.9
752.248	3775.94
752.432	3730.89
752.617	3812.81
752.801	3720.65
752.985	3689.93
753.17	3605.96
753.354	3538.38
753.538	3591.63
753.722	3517.9
753.907	3528.14
754.091	3491.27
754.275	3478.99
754.459	3354.06
754.643	3458.51
754.828	3493.32
755.012	3327.44
755.196	3384.78
755.38	3257.81
755.564	3272.14
755.748	3143.12
755.932	3251.66
756.116	3179.98
756.3	3282.38
756.484	3186.13
756.668	3222.99
756.852	3071.44
757.036	3194.32
757.22	2991.57
757.404	3096.02
757.588	2952.66
757.772	3069.39
757.956	3114.45
758.14	2999.76
758.323	3012.05
758.507	2985.43
758.691	2964.95
758.875	2969.04
759.059	3016.15
759.242	2829.78
759.426	2829.78
759.61	2870.74
759.794	2919.89
759.977	2794.97
760.161	2917.84
760.345	2756.05
760.528	2801.11
760.712	2778.58
760.895	2661.85
761.079	2715.09
761.263	2559.45
761.446	2637.27
761.63	2727.38
761.813	2579.93
761.997	2624.98
762.18	2581.98
762.364	2596.31
762.547	2606.55
762.731	2608.6
762.914	2524.63
763.098	2543.07
763.281	2506.2
763.464	2518.49
763.648	2403.8
763.831	2477.53
764.015	2436.57
764.198	2412
764.381	2508.25
764.564	2393.56
764.748	2457.05
764.931	2438.62
765.114	2426.33
765.297	2409.95
765.481	2311.64
765.664	2313.69
765.847	2319.84
766.03	2307.55
766.213	2346.46
766.397	2264.54
766.58	2194.91
766.763	2375.13
766.946	2207.2
767.129	2149.86
767.312	2231.77
767.495	2123.23
767.678	2223.58
767.861	2256.35
768.044	2133.47
768.227	2125.28
768.41	2211.29
768.593	2276.83
768.776	2088.42
768.959	2051.55
769.142	2141.66
769.324	1981.92
769.507	2020.83
769.69	1981.92
769.873	2053.6
770.056	2092.51
770.239	2008.55
770.421	2037.22
770.604	1943.01
770.787	1951.2
770.97	1910.24
771.152	2031.07
771.335	1875.43
771.518	1965.54
771.7	1975.78
771.883	2022.88
772.066	1916.39
772.248	2047.46
772.431	1973.73
772.613	1904.1
772.796	1791.46
772.978	1826.28
773.161	1852.9
773.343	1852.9
773.526	1662.44
773.708	1750.5
773.891	1687.01
774.073	1781.22
774.256	1721.83
774.438	1875.43
774.621	1701.35
774.803	1607.14
774.985	1658.34
775.168	1732.07
775.35	1732.07
775.532	1668.58
775.715	1664.49
775.897	1709.54
776.079	1584.62
776.261	1629.67
776.444	1588.71
776.626	1576.42
776.808	1560.04
776.99	1557.99
777.173	1617.38
777.355	1465.83
777.537	1486.31
777.719	1437.16
777.901	1500.65
778.083	1465.83
778.265	1379.82
778.447	1437.16
778.629	1437.16
778.811	1435.11
778.993	1435.11
779.175	1459.69
779.357	1379.82
779.539	1441.26
779.721	1431.02
779.903	1334.76
780.085	1371.63
780.267	1338.86
780.449	1342.96
780.631	1291.76
780.812	1345
780.994	1273.32
781.176	1213.93
781.358	1248.75
781.54	1424.87
781.721	1199.6
781.903	1277.42
782.085	1168.88
782.267	1193.45
782.448	1134.06
782.63	1191.41
782.812	1258.99
782.993	1093.1
783.175	1207.79
783.357	1076.72
783.538	1183.21
783.72	1039.86
783.901	1113.58
784.083	1166.83
784.264	1224.17
784.446	1058.29
784.627	1062.38
784.809	1138.16
784.99	1125.87
785.172	1084.91
785.353	1109.49
785.535	1080.82
785.716	904.69
785.897	1009.14
786.079	986.61
786.26	966.13
786.441	957.94
786.623	951.79
786.804	888.31
786.985	1021.42
787.167	986.61
787.348	941.55
787.529	966.13
787.71	970.23
787.891	884.21
788.073	1015.28
788.254	847.35
788.435	962.03
788.616	925.17
788.797	984.56
788.978	833.01
789.159	880.11
789.34	826.87
789.522	851.44
789.703	943.6
789.884	896.5
790.065	910.83
790.246	853.49
790.427	822.77
790.607	873.97
790.788	847.35
790.969	798.2
791.15	794.1
791.331	798.2
791.512	679.41
791.693	830.96
791.874	673.27
792.054	822.77
792.235	728.56
792.416	697.85
792.597	724.47
792.778	790
792.958	726.52
793.139	755.19
793.32	730.61
793.5	683.51
793.681	761.33
793.862	706.04
794.042	736.76
794.223	609.78
794.404	642.55
794.584	626.17
794.765	673.27
794.945	648.69
795.126	724.47
795.306	738.8
795.487	663.03
795.667	599.54
795.848	628.21
796.028	650.74
796.209	681.46
796.389	650.74
796.57	675.32
796.75	556.54
796.93	556.54
797.111	626.17
797.291	626.17
797.471	624.12
797.652	568.82
797.832	622.07
798.012	644.6
798.192	615.93
798.373	634.36
798.553	589.3
798.733	579.06
798.913	552.44
799.093	638.45
799.274	572.92
799.454	550.39
799.634	585.21
799.814	607.73
799.994	544.25
800.174	609.78
800.354	495.1
800.534	540.15
800.714	574.97
800.894	509.43
801.074	495.1
801.254	560.63
801.434	587.26
801.614	509.43
801.794	511.48
801.974	1334.76
802.154	429.56
802.334	544.25
802.514	491
802.693	527.86
802.873	503.29
803.053	544.25
803.233	515.58
803.413	474.62
803.592	513.53
803.772	497.14
803.952	491
804.131	445.95
804.311	519.67
804.491	519.67
804.67	462.33
804.85	460.28
805.03	447.99
805.209	396.79
805.389	521.72
805.568	435.71
805.748	413.18
805.928	419.32
806.107	478.71
806.287	462.33
806.466	493.05
806.646	343.55
806.825	425.47
807.004	421.37
807.184	433.66
807.363	484.86
807.543	460.28
807.722	372.22
807.901	480.76
808.081	458.23
808.26	407.03
808.439	378.36
808.619	351.74
808.798	398.84
808.977	439.8
809.156	343.55
809.336	493.05
809.515	482.81
809.694	339.45
809.873	388.6
810.052	421.37
810.231	460.28
810.411	337.4
810.59	445.95
810.769	335.35
810.948	361.98
811.127	392.7
811.306	372.22
811.485	347.64
811.664	429.56
811.843	286.2
812.022	294.4
812.201	368.12
812.38	345.59
812.559	368.12
812.737	325.12
812.916	321.02
813.095	402.94
813.274	351.74
813.453	396.79
813.632	382.46
813.811	323.07
813.989	273.92
814.168	269.82
814.347	323.07
814.526	380.41
814.704	341.5
814.883	394.75
815.062	359.93
815.24	329.21
815.419	259.58
815.598	378.36
815.776	372.22
815.955	366.07
816.133	282.11
816.312	372.22
816.49	323.07
816.669	378.36
816.847	321.02
817.026	323.07
817.204	355.83
817.383	253.44
817.561	269.82
817.74	402.94
817.918	312.83
818.097	290.3
818.275	288.25
818.453	345.59
818.632	327.16
818.81	288.25
818.988	282.11
819.167	275.96
819.345	355.83
819.523	278.01
819.701	312.83
819.879	243.2
820.058	329.21
820.236	249.34
820.414	286.2
820.592	280.06
820.77	271.87
820.948	265.72
821.127	364.03
821.305	321.02
821.483	249.34
821.661	316.92
821.839	282.11
822.017	208.38
822.195	241.15
822.373	280.06
822.551	265.72
822.729	286.2
822.907	179.71
823.085	314.88
823.262	235
823.44	220.67
823.618	208.38
823.796	214.52
823.974	245.24
824.152	269.82
824.329	249.34
824.507	261.63
824.685	261.63
824.863	275.96
825.04	282.11
825.218	282.11
825.396	265.72
825.574	273.92
825.751	130.56
825.929	222.72
826.107	163.33
826.284	179.71
826.462	302.59
826.639	212.48
826.817	212.48
826.994	196.09
827.172	134.65
827.349	237.05
827.527	161.28
827.704	200.19
827.882	216.57
828.059	232.96
828.237	228.86
828.414	257.53
828.591	155.13
828.769	275.96
828.946	220.67
829.124	273.92
829.301	294.4
829.478	187.9
829.655	290.3
829.833	192
830.01	124.41
830.187	93.69
830.364	228.86
830.542	148.99
830.719	151.04
830.896	212.48
831.073	265.72
831.25	204.28
831.427	224.76
831.604	200.19
831.782	136.7
831.959	198.14
832.136	192
832.313	257.53
832.49	110.08
832.667	192
832.844	148.99
833.021	148.99
833.198	245.24
833.374	153.09
833.551	151.04
833.728	83.45
833.905	200.19
834.082	114.17
834.259	157.18
834.436	208.38
834.612	175.61
834.789	208.38
834.966	134.65
835.143	181.76
835.319	114.17
835.496	224.76
835.673	101.89
835.85	232.96
836.026	224.76
836.203	128.51
836.38	95.74
836.556	140.8
836.733	120.32
836.909	179.71
837.086	116.22
837.262	161.28
837.439	95.74
837.616	140.8
837.792	124.41
837.968	159.23
838.145	69.12
838.321	140.8
838.498	173.57
838.674	187.9
838.851	192
839.027	134.65
839.203	77.31
839.38	122.37
839.556	110.08
839.732	179.71
839.909	101.89
840.085	146.94
840.261	185.85
840.437	171.52
840.614	87.55
840.79	194.05
840.966	132.61
841.142	114.17
841.318	69.12
841.494	216.57
841.671	171.52
841.847	126.46
842.023	167.42
842.199	165.37
842.375	218.62
842.551	69.12
842.727	75.26
842.903	87.55
843.079	132.61
843.255	200.19
843.431	159.23
843.607	155.13
843.783	110.08
843.959	171.52
844.134	126.46
844.31	183.81
844.486	175.61
844.662	79.36
844.838	110.08
845.013	142.85
845.189	194.05
845.365	175.61
845.541	159.23
845.716	91.65
845.892	171.52
846.068	110.08
846.244	112.13
846.419	120.32
846.595	-25.09
846.77	140.8
846.946	118.27
847.122	97.79
847.297	73.21
847.473	206.33
847.648	83.45
847.824	148.99
847.999	67.07
848.175	110.08
848.35	118.27
848.526	118.27
848.701	142.85
848.876	189.95
849.052	124.41
849.227	110.08
849.403	118.27
849.578	122.37
849.753	101.89
849.929	118.27
850.104	81.41
850.279	140.8
850.454	132.61
850.63	181.76
850.805	126.46
850.98	73.21
851.155	46.59
851.33	122.37
851.505	13.82
851.681	159.23
851.856	93.69
852.031	95.74
852.206	48.64
852.381	105.98
852.556	114.17
852.731	67.07
852.906	83.45
853.081	114.17
853.256	171.52
853.431	108.03
853.606	79.36
853.781	89.6
853.956	-45.57
854.131	112.13
854.305	38.4
854.48	60.93
854.655	69.12
854.83	105.98
855.005	140.8
855.18	77.31
855.354	73.21
855.529	108.03
855.704	62.98
855.879	101.89
856.053	19.97
856.228	103.93
856.403	99.84
856.577	77.31
856.752	99.84
856.926	36.35
857.101	69.12
857.276	77.31
857.45	11.78
857.625	54.78
857.799	19.97
857.974	91.65
858.148	15.87
858.323	99.84
858.497	69.12
858.672	91.65
858.846	-25.09
859.02	122.37
859.195	46.59
859.369	120.32
859.543	99.84
859.718	60.93
859.892	67.07
860.066	114.17
860.241	122.37
860.415	36.35
860.589	171.52
860.763	50.69
860.938	34.3
861.112	93.69
861.286	101.89
861.46	28.16
861.634	105.98
861.808	91.65
861.982	73.21
862.157	77.31
862.331	62.98
862.505	-25.09
862.679	28.16
862.853	73.21
863.027	69.12
863.201	44.54
863.375	-8.7
863.549	19.97
863.722	73.21
863.896	116.22
864.07	52.74
864.244	83.45
864.418	105.98
864.592	50.69
864.766	24.06
864.939	67.07
865.113	5.63
865.287	60.93
865.461	77.31
865.634	60.93
865.808	50.69
865.982	17.92
866.156	-10.75
866.329	-25.09
866.503	60.93
866.676	19.97
866.85	69.12
867.024	32.26
867.197	77.31
867.371	73.21
867.544	22.02
867.718	9.73
867.891	159.23
868.065	44.54
868.238	50.69
868.412	28.16
868.585	101.89
868.759	56.83
868.932	108.03
869.105	-4.61
869.279	36.35
869.452	-4.61
869.625	69.12
869.799	85.5
869.972	48.64
870.145	-16.9
870.319	50.69
870.492	65.02
870.665	77.31
870.838	60.93
871.011	-6.66
871.185	-12.8
871.358	38.4
871.531	36.35
871.704	89.6
871.877	34.3
872.05	19.97
872.223	-4.61
872.396	56.83
872.569	103.93
872.742	19.97
872.915	110.08
873.088	71.17
873.261	77.31
873.434	15.87
873.607	60.93
873.78	77.31
873.953	50.69
874.126	34.3
874.299	9.73
874.471	32.26
874.644	42.5
874.817	73.21
874.99	132.61
875.163	-31.23
875.335	85.5
875.508	19.97
875.681	65.02
875.853	52.74
876.026	11.78
876.199	130.56
876.371	97.79
876.544	101.89
876.717	69.12
876.889	126.46
877.062	44.54
877.234	5.63
877.407	36.35
877.579	99.84
877.752	103.93
877.924	165.37
878.097	60.93
878.269	83.45
878.442	60.93
878.614	9.73
878.786	93.69
878.959	44.54
879.131	85.5
879.303	-23.04
879.476	83.45
879.648	89.6
879.82	24.06
879.993	-45.57
880.165	11.78
880.337	1.54
880.509	77.31
880.681	-27.14
880.854	19.97
881.026	77.31
881.198	69.12
881.37	-45.57
881.542	75.26
881.714	-14.85
881.886	46.59
882.058	87.55
882.23	22.02
882.402	75.26
882.574	56.83
882.746	87.55
882.918	50.69
883.09	32.26
883.262	13.82
883.434	-14.85
883.606	-2.56
883.778	71.17
883.95	38.4
884.122	30.21
884.293	42.5
884.465	3.58
884.637	85.5
884.809	9.73
884.98	17.92
885.152	103.93
885.324	22.02
885.496	19.97
885.667	-33.28
885.839	73.21
886.011	73.21
886.182	54.78
886.354	67.07
886.525	93.69
886.697	56.83
886.869	85.5
887.04	1.54
887.212	11.78
887.383	97.79
887.555	42.5
887.726	11.78
887.897	28.16
888.069	108.03
888.24	81.41
888.412	19.97
888.583	-14.85
888.754	87.55
888.926	7.68
889.097	-8.7
889.268	-18.94
889.44	-43.52
889.611	-45.57
889.782	-31.23
889.953	11.78
890.125	-14.85
890.296	-39.42
890.467	38.4
890.638	48.64
890.809	52.74
890.98	11.78
891.151	44.54
891.323	19.97
891.494	5.63
891.665	101.89
891.836	-2.56
892.007	17.92
892.178	81.41
892.349	17.92
892.52	30.21
892.691	93.69
892.862	17.92
893.032	32.26
893.203	-33.28
893.374	22.02
893.545	65.02
893.716	42.5
893.887	48.64
894.057	32.26
894.228	-35.33
894.399	50.69
894.57	71.17
894.74	67.07
894.911	48.64
895.082	15.87
895.253	11.78
895.423	9.73
895.594	13.82
895.764	-2.56
895.935	-88.57
896.106	36.35
896.276	60.93
896.447	-0.51
896.617	56.83
896.788	-12.8
896.958	114.17
897.129	32.26
897.299	62.98
897.47	58.88
897.64	93.69
897.81	85.5
897.981	103.93
898.151	-31.23
898.322	19.97
898.492	124.41
898.662	-25.09
898.832	-20.99
899.003	9.73
899.173	3.58
899.343	-6.66
899.513	40.45
