Data from USB4F104151__100__11-32-21-549.txt Node

Date: Fri Mar 14 11:32:21 EDT 2025
User: louis
Spectrometer: USB4F10415
Trigger mode: 4
Integration Time (sec): 5.000000E-2
Scans to average: 1
Electric dark correction enabled: true
Nonlinearity correction enabled: false
Boxcar width: 0
XAxis mode: Wavelengths
Number of Pixels in Spectrum: 3648
>>>>>Begin Spectral Data<<<<<
178.204	-139.26
178.424	-139.26
178.644	-139.26
178.864	-202.75
179.084	-163.84
179.304	34.82
179.524	-34.82
179.744	-16.38
179.964	49.15
180.184	-10.24
180.404	24.58
180.624	8.19
180.844	-6.14
181.064	-57.34
181.283	6.14
181.503	-24.58
181.723	26.62
181.943	28.67
182.163	49.15
182.383	65.54
182.602	43.01
182.822	36.86
183.042	-30.72
183.262	-24.58
183.482	6.14
183.701	26.62
183.921	8.19
184.141	34.82
184.361	49.15
184.58	2.05
184.8	38.91
185.02	-6.14
185.239	26.62
185.459	14.34
185.679	53.25
185.898	-49.15
186.118	6.14
186.338	24.58
186.557	36.86
186.777	-16.38
186.997	24.58
187.216	10.24
187.436	10.24
187.655	102.4
187.875	65.54
188.095	43.01
188.314	34.82
188.534	18.43
188.753	20.48
188.973	30.72
189.192	43.01
189.412	16.38
189.631	-10.24
189.851	18.43
190.07	51.2
190.29	-10.24
190.509	16.38
190.729	8.19
190.948	-55.3
191.168	196.61
191.387	133.12
191.607	-90.11
191.826	28.67
192.045	98.3
192.265	55.3
192.484	45.06
192.704	26.62
192.923	-4.1
193.142	92.16
193.362	43.01
193.581	83.97
193.8	79.87
194.02	69.63
194.239	-26.62
194.458	14.34
194.678	-8.19
194.897	-6.14
195.116	49.15
195.335	0
195.555	38.91
195.774	2.05
195.993	34.82
196.212	-26.62
196.432	-38.91
196.651	55.3
196.87	-88.06
197.089	59.39
197.308	8.19
197.528	94.21
197.747	20.48
197.966	2.05
198.185	120.83
198.404	-16.38
198.623	79.87
198.842	24.58
199.062	24.58
199.281	77.82
199.5	40.96
199.719	67.58
199.938	-10.24
200.157	47.1
200.376	71.68
200.595	43.01
200.814	40.96
201.033	28.67
201.252	73.73
201.471	47.1
201.69	32.77
201.909	26.62
202.128	28.67
202.347	88.06
202.566	4.1
202.785	-55.3
203.004	-14.34
203.223	30.72
203.442	-4.1
203.661	49.15
203.879	-40.96
204.098	10.24
204.317	-14.34
204.536	38.91
204.755	38.91
204.974	22.53
205.193	88.06
205.411	161.79
205.63	28.67
205.849	90.11
206.068	16.38
206.287	51.2
206.505	92.16
206.724	-6.14
206.943	24.58
207.162	-14.34
207.381	12.29
207.599	16.38
207.818	57.34
208.037	49.15
208.255	-6.14
208.474	-10.24
208.693	18.43
208.911	-10.24
209.13	-24.58
209.349	-18.43
209.567	10.24
209.786	-38.91
210.005	59.39
210.223	-61.44
210.442	-55.3
210.661	12.29
210.879	49.15
211.098	12.29
211.316	-16.38
211.535	55.3
211.753	61.44
211.972	45.06
212.191	-38.91
212.409	30.72
212.628	38.91
212.846	-10.24
213.065	38.91
213.283	51.2
213.502	-16.38
213.72	-14.34
213.938	57.34
214.157	-8.19
214.375	-20.48
214.594	-32.77
214.812	16.38
215.031	-34.82
215.249	-20.48
215.467	75.77
215.686	69.63
215.904	57.34
216.122	-59.39
216.341	30.72
216.559	14.34
216.778	18.43
216.996	51.2
217.214	51.2
217.432	49.15
217.651	43.01
217.869	65.54
218.087	49.15
218.306	57.34
218.524	40.96
218.742	-14.34
218.96	36.86
219.179	-26.62
219.397	-24.58
219.615	75.77
219.833	81.92
220.051	2.05
220.27	6.14
220.488	71.68
220.706	16.38
220.924	69.63
221.142	-106.49
221.36	8.19
221.578	18.43
221.796	30.72
222.015	-14.34
222.233	83.97
222.451	96.25
222.669	-71.68
222.887	53.25
223.105	-59.39
223.323	20.48
223.541	-71.68
223.759	120.83
223.977	-10.24
224.195	88.06
224.413	2.05
224.631	-24.58
224.849	8.19
225.067	100.35
225.285	10.24
225.503	36.86
225.721	-63.49
225.939	18.43
226.157	12.29
226.375	108.54
226.592	57.34
226.81	32.77
227.028	6.14
227.246	71.68
227.464	22.53
227.682	40.96
227.9	26.62
228.117	34.82
228.335	53.25
228.553	53.25
228.771	34.82
228.989	-34.82
229.206	0
229.424	-51.2
229.642	24.58
229.86	-4.1
230.077	129.02
230.295	-49.15
230.513	-2.05
230.731	63.49
230.948	92.16
231.166	77.82
231.384	40.96
231.601	-22.53
231.819	47.1
232.037	-30.72
232.254	-38.91
232.472	22.53
232.689	2.05
232.907	94.21
233.125	-20.48
233.342	-36.86
233.56	-6.14
233.777	-28.67
233.995	51.2
234.213	34.82
234.43	43.01
234.648	-6.14
234.865	34.82
235.083	51.2
235.3	63.49
235.518	53.25
235.735	43.01
235.953	34.82
236.17	26.62
236.388	59.39
236.605	22.53
236.822	55.3
237.04	55.3
237.257	65.54
237.475	-96.25
237.692	122.88
237.909	6.14
238.127	-40.96
238.344	28.67
238.562	26.62
238.779	12.29
238.996	16.38
239.214	-36.86
239.431	22.53
239.648	71.68
239.865	43.01
240.083	32.77
240.3	-94.21
240.517	30.72
240.735	30.72
240.952	-6.14
241.169	-2.05
241.386	-59.39
241.603	-36.86
241.821	2.05
242.038	100.35
242.255	8.19
242.472	-51.2
242.689	-38.91
242.907	116.73
243.124	-2.05
243.341	38.91
243.558	36.86
243.775	-55.3
243.992	-18.43
244.209	63.49
244.426	139.26
244.643	90.11
244.86	-6.14
245.078	49.15
245.295	34.82
245.512	28.67
245.729	-34.82
245.946	75.77
246.163	40.96
246.38	26.62
246.597	92.16
246.814	-8.19
247.031	34.82
247.248	4.1
247.464	24.58
247.681	36.86
247.898	51.2
248.115	51.2
248.332	-10.24
248.549	69.63
248.766	51.2
248.983	83.97
249.2	16.38
249.417	57.34
249.633	26.62
249.85	26.62
250.067	-14.34
250.284	6.14
250.501	67.58
250.717	-24.58
250.934	51.2
251.151	0
251.368	63.49
251.585	63.49
251.801	30.72
252.018	-10.24
252.235	0
252.451	-20.48
252.668	10.24
252.885	-22.53
253.102	26.62
253.318	34.82
253.535	4.1
253.752	-55.3
253.968	100.35
254.185	-16.38
254.401	34.82
254.618	129.02
254.835	57.34
255.051	61.44
255.268	16.38
255.484	10.24
255.701	-8.19
255.917	10.24
256.134	8.19
256.351	67.58
256.567	-22.53
256.784	2.05
257	-49.15
257.217	34.82
257.433	34.82
257.65	-32.77
257.866	73.73
258.082	38.91
258.299	12.29
258.515	-22.53
258.732	-6.14
258.948	8.19
259.165	-73.73
259.381	6.14
259.597	47.1
259.814	-51.2
260.03	-32.77
260.246	100.35
260.463	98.3
260.679	24.58
260.895	-14.34
261.112	79.87
261.328	45.06
261.544	-14.34
261.761	61.44
261.977	4.1
262.193	-59.39
262.409	14.34
262.626	98.3
262.842	30.72
263.058	8.19
263.274	16.38
263.49	67.58
263.707	55.3
263.923	26.62
264.139	-30.72
264.355	26.62
264.571	122.88
264.787	-16.38
265.004	16.38
265.22	26.62
265.436	63.49
265.652	-6.14
265.868	47.1
266.084	-28.67
266.3	43.01
266.516	-55.3
266.732	-26.62
266.948	-63.49
267.164	79.87
267.38	43.01
267.596	43.01
267.812	61.44
268.028	75.77
268.244	75.77
268.46	22.53
268.676	43.01
268.892	34.82
269.108	-14.34
269.324	71.68
269.54	-51.2
269.756	92.16
269.972	-22.53
270.188	73.73
270.403	-22.53
270.619	-30.72
270.835	65.54
271.051	20.48
271.267	24.58
271.483	12.29
271.698	-34.82
271.914	36.86
272.13	-8.19
272.346	30.72
272.562	10.24
272.777	12.29
272.993	10.24
273.209	10.24
273.425	57.34
273.64	-2.05
273.856	30.72
274.072	-2.05
274.287	43.01
274.503	79.87
274.719	51.2
274.934	8.19
275.15	-16.38
275.366	-26.62
275.581	34.82
275.797	67.58
276.012	59.39
276.228	-8.19
276.444	-38.91
276.659	75.77
276.875	26.62
277.09	-4.1
277.306	-16.38
277.521	20.48
277.737	-51.2
277.952	73.73
278.168	-8.19
278.383	28.67
278.599	28.67
278.814	22.53
279.03	22.53
279.245	88.06
279.461	43.01
279.676	10.24
279.892	-34.82
280.107	4.1
280.322	0
280.538	-14.34
280.753	22.53
280.969	135.17
281.184	-38.91
281.399	114.69
281.615	67.58
281.83	10.24
282.045	-34.82
282.26	59.39
282.476	30.72
282.691	30.72
282.906	18.43
283.122	-36.86
283.337	8.19
283.552	32.77
283.767	-6.14
283.983	49.15
284.198	-18.43
284.413	18.43
284.628	20.48
284.843	-22.53
285.058	26.62
285.274	-22.53
285.489	-40.96
285.704	139.26
285.919	-22.53
286.134	6.14
286.349	-6.14
286.564	18.43
286.779	-26.62
286.995	47.1
287.21	-34.82
287.425	51.2
287.64	-6.14
287.855	2.05
288.07	-88.06
288.285	57.34
288.5	59.39
288.715	67.58
288.93	47.1
289.145	34.82
289.36	73.73
289.575	71.68
289.79	14.34
290.004	-18.43
290.219	32.77
290.434	-2.05
290.649	53.25
290.864	71.68
291.079	-18.43
291.294	10.24
291.509	43.01
291.724	-28.67
291.938	8.19
292.153	-6.14
292.368	2.05
292.583	53.25
292.798	2.05
293.012	20.48
293.227	18.43
293.442	2.05
293.657	36.86
293.871	79.87
294.086	83.97
294.301	63.49
294.516	30.72
294.73	12.29
294.945	-32.77
295.16	-16.38
295.374	59.39
295.589	61.44
295.804	-28.67
296.018	137.21
296.233	34.82
296.447	51.2
296.662	-2.05
296.877	55.3
297.091	90.11
297.306	55.3
297.52	-6.14
297.735	147.45
297.949	-2.05
298.164	63.49
298.378	0
298.593	-6.14
298.807	-14.34
299.022	24.58
299.236	98.3
299.451	-10.24
299.665	-47.1
299.88	92.16
300.094	-8.19
300.309	24.58
300.523	59.39
300.737	2.05
300.952	-32.77
301.166	-22.53
301.381	-12.29
301.595	22.53
301.809	-8.19
302.024	-14.34
302.238	-36.86
302.452	0
302.667	-43.01
302.881	51.2
303.095	47.1
303.309	26.62
303.524	-14.34
303.738	18.43
303.952	-12.29
304.166	67.58
304.381	-28.67
304.595	98.3
304.809	34.82
305.023	30.72
305.237	-10.24
305.452	2.05
305.666	18.43
305.88	43.01
306.094	55.3
306.308	2.05
306.522	81.92
306.736	32.77
306.95	2.05
307.164	18.43
307.379	51.2
307.593	75.77
307.807	-6.14
308.021	34.82
308.235	34.82
308.449	-14.34
308.663	-40.96
308.877	124.93
309.091	83.97
309.305	67.58
309.519	10.24
309.733	47.1
309.947	-30.72
310.161	118.78
310.374	30.72
310.588	59.39
310.802	22.53
311.016	36.86
311.23	30.72
311.444	40.96
311.658	8.19
311.872	131.07
312.085	92.16
312.299	88.06
312.513	108.54
312.727	2.05
312.941	73.73
313.154	77.82
313.368	65.54
313.582	30.72
313.796	18.43
314.009	30.72
314.223	-6.14
314.437	100.35
314.651	71.68
314.864	-4.1
315.078	-10.24
315.292	-45.06
315.505	18.43
315.719	40.96
315.933	20.48
316.146	59.39
316.36	-18.43
316.573	106.49
316.787	47.1
317.001	-49.15
317.214	24.58
317.428	8.19
317.641	32.77
317.855	38.91
318.068	79.87
318.282	43.01
318.495	47.1
318.709	18.43
318.922	20.48
319.136	75.77
319.349	61.44
319.563	71.68
319.776	51.2
319.99	6.14
320.203	24.58
320.417	59.39
320.63	51.2
320.843	106.49
321.057	-2.05
321.27	40.96
321.483	16.38
321.697	34.82
321.91	49.15
322.124	102.4
322.337	4.1
322.55	-4.1
322.763	18.43
322.977	-40.96
323.19	-38.91
323.403	10.24
323.617	77.82
323.83	43.01
324.043	18.43
324.256	120.83
324.469	-32.77
324.683	51.2
324.896	67.58
325.109	34.82
325.322	26.62
325.535	10.24
325.748	65.54
325.962	4.1
326.175	26.62
326.388	20.48
326.601	22.53
326.814	-28.67
327.027	92.16
327.24	116.73
327.453	34.82
327.666	55.3
327.879	143.36
328.092	96.25
328.305	-8.19
328.518	-6.14
328.731	49.15
328.944	22.53
329.157	-24.58
329.37	-6.14
329.583	81.92
329.796	102.4
330.009	-14.34
330.222	0
330.435	8.19
330.648	38.91
330.861	2.05
331.073	100.35
331.286	47.1
331.499	-47.1
331.712	2.05
331.925	34.82
332.138	73.73
332.35	26.62
332.563	-22.53
332.776	98.3
332.989	6.14
333.202	4.1
333.414	79.87
333.627	-10.24
333.84	24.58
334.053	61.44
334.265	-16.38
334.478	34.82
334.691	-24.58
334.903	34.82
335.116	57.34
335.329	24.58
335.541	18.43
335.754	83.97
335.966	-59.39
336.179	51.2
336.392	28.67
336.604	59.39
336.817	-10.24
337.029	4.1
337.242	38.91
337.454	67.58
337.667	10.24
337.88	51.2
338.092	18.43
338.305	57.34
338.517	0
338.729	16.38
338.942	14.34
339.154	-16.38
339.367	55.3
339.579	22.53
339.792	-6.14
340.004	106.49
340.217	30.72
340.429	2.05
340.641	-65.53
340.854	-20.48
341.066	-8.19
341.278	88.06
341.491	96.25
341.703	38.91
341.915	-43.01
342.128	90.11
342.34	43.01
342.552	-14.34
342.764	2.05
342.977	16.38
343.189	24.58
343.401	-10.24
343.613	8.19
343.826	69.63
344.038	10.24
344.25	120.83
344.462	-65.53
344.674	57.34
344.886	83.97
345.099	20.48
345.311	24.58
345.523	57.34
345.735	12.29
345.947	28.67
346.159	18.43
346.371	34.82
346.583	0
346.795	34.82
347.007	18.43
347.219	-22.53
347.431	32.77
347.643	90.11
347.855	0
348.067	14.34
348.279	10.24
348.491	49.15
348.703	10.24
348.915	10.24
349.127	-57.34
349.339	8.19
349.551	2.05
349.763	32.77
349.975	26.62
350.187	129.02
350.399	102.4
350.61	63.49
350.822	-92.16
351.034	81.92
351.246	10.24
351.458	108.54
351.669	43.01
351.881	96.25
352.093	49.15
352.305	-12.29
352.517	-14.34
352.728	18.43
352.94	38.91
353.152	38.91
353.363	20.48
353.575	67.58
353.787	-18.43
353.999	65.54
354.21	92.16
354.422	24.58
354.633	45.06
354.845	20.48
355.057	51.2
355.268	10.24
355.48	73.73
355.692	-2.05
355.903	30.72
356.115	20.48
356.326	18.43
356.538	63.49
356.749	73.73
356.961	124.93
357.172	-14.34
357.384	36.86
357.595	104.45
357.807	-10.24
358.018	-38.91
358.23	24.58
358.441	69.63
358.653	8.19
358.864	24.58
359.075	51.2
359.287	-18.43
359.498	114.69
359.709	49.15
359.921	20.48
360.132	10.24
360.344	-8.19
360.555	40.96
360.766	55.3
360.977	-12.29
361.189	83.97
361.4	18.43
361.611	10.24
361.823	38.91
362.034	14.34
362.245	0
362.456	-30.72
362.667	24.58
362.879	36.86
363.09	147.45
363.301	79.87
363.512	108.54
363.723	2.05
363.935	32.77
364.146	88.06
364.357	-14.34
364.568	112.64
364.779	28.67
364.99	86.01
365.201	108.54
365.412	102.4
365.623	-8.19
365.834	-20.48
366.045	24.58
366.256	96.25
366.467	47.1
366.678	135.17
366.889	10.24
367.1	18.43
367.311	49.15
367.522	6.14
367.733	73.73
367.944	88.06
368.155	65.54
368.366	94.21
368.577	71.68
368.788	75.77
368.999	51.2
369.209	104.45
369.42	100.35
369.631	118.78
369.842	55.3
370.053	71.68
370.264	77.82
370.474	-12.29
370.685	43.01
370.896	22.53
371.107	75.77
371.317	75.77
371.528	8.19
371.739	79.87
371.95	65.54
372.16	26.62
372.371	-53.25
372.582	-28.67
372.792	65.54
373.003	88.06
373.214	75.77
373.424	34.82
373.635	83.97
373.846	43.01
374.056	34.82
374.267	51.2
374.477	34.82
374.688	-24.58
374.898	47.1
375.109	65.54
375.319	49.15
375.53	112.64
375.74	45.06
375.951	-53.25
376.161	55.3
376.372	36.86
376.582	22.53
376.793	-24.58
377.003	2.05
377.214	2.05
377.424	32.77
377.635	63.49
377.845	79.87
378.055	-8.19
378.266	10.24
378.476	129.02
378.686	-2.05
378.897	-57.34
379.107	100.35
379.317	106.49
379.528	10.24
379.738	116.73
379.948	-79.87
380.158	49.15
380.369	65.54
380.579	83.97
380.789	38.91
380.999	38.91
381.21	24.58
381.42	133.12
381.63	-49.15
381.84	49.15
382.05	57.34
382.261	92.16
382.471	8.19
382.681	6.14
382.891	63.49
383.101	104.45
383.311	-55.3
383.521	32.77
383.731	38.91
383.941	38.91
384.151	92.16
384.361	49.15
384.571	22.53
384.781	24.58
384.991	112.64
385.201	67.58
385.411	133.12
385.621	22.53
385.831	71.68
386.041	96.25
386.251	12.29
386.461	32.77
386.671	0
386.881	73.73
387.091	57.34
387.301	147.45
387.511	65.54
387.72	36.86
387.93	22.53
388.14	-26.62
388.35	-10.24
388.56	100.35
388.769	16.38
388.979	90.11
389.189	-6.14
389.399	-14.34
389.609	-4.1
389.818	120.83
390.028	26.62
390.238	65.54
390.447	51.2
390.657	137.21
390.867	40.96
391.076	10.24
391.286	22.53
391.496	108.54
391.705	59.39
391.915	20.48
392.125	133.12
392.334	-2.05
392.544	59.39
392.753	75.77
392.963	10.24
393.172	120.83
393.382	51.2
393.591	108.54
393.801	59.39
394.01	90.11
394.22	-16.38
394.429	18.43
394.639	18.43
394.848	79.87
395.058	198.65
395.267	83.97
395.477	83.97
395.686	81.92
395.895	169.98
396.105	73.73
396.314	149.5
396.524	108.54
396.733	8.19
396.942	92.16
397.152	73.73
397.361	43.01
397.57	96.25
397.78	79.87
397.989	59.39
398.198	143.36
398.407	92.16
398.617	61.44
398.826	110.59
399.035	47.1
399.244	83.97
399.453	116.73
399.663	53.25
399.872	231.42
400.081	36.86
400.29	174.08
400.499	73.73
400.708	104.45
400.917	47.1
401.127	83.97
401.336	147.45
401.545	137.21
401.754	147.45
401.963	90.11
402.172	116.73
402.381	90.11
402.59	194.56
402.799	98.3
403.008	202.75
403.217	106.49
403.426	116.73
403.635	18.43
403.844	122.88
404.053	34.82
404.262	100.35
404.471	188.41
404.68	149.5
404.888	122.88
405.097	122.88
405.306	149.5
405.515	182.27
405.724	75.77
405.933	157.69
406.142	204.8
406.35	172.03
406.559	135.17
406.768	157.69
406.977	196.61
407.185	145.41
407.394	96.25
407.603	163.84
407.812	221.18
408.02	264.19
408.229	202.75
408.438	186.37
408.646	190.46
408.855	198.65
409.064	219.13
409.272	221.18
409.481	286.72
409.69	212.99
409.898	237.56
410.107	364.54
410.315	337.91
410.524	321.53
410.733	270.33
410.941	368.63
411.15	337.91
411.358	323.58
411.567	356.35
411.775	333.82
411.984	335.87
412.192	348.15
412.401	442.36
412.609	507.9
412.818	456.7
413.026	464.89
413.234	526.33
413.443	450.55
413.651	509.94
413.86	581.62
414.068	663.54
414.276	608.25
414.485	473.08
414.693	636.92
414.901	688.12
415.11	616.44
415.318	671.73
415.526	657.4
415.734	698.36
415.943	692.21
416.151	872.43
416.359	786.42
416.567	751.6
416.776	856.05
416.984	845.81
417.192	1015.79
417.4	847.86
417.608	933.87
417.817	1007.6
418.025	1007.6
418.233	1193.97
418.441	1034.22
418.649	970.74
418.857	1163.25
419.065	1312.75
419.273	1304.56
419.481	1292.27
419.689	1322.99
419.897	1316.84
420.105	1415.15
420.313	1476.59
420.521	1521.64
420.729	1529.83
420.937	1486.83
421.145	1593.32
421.353	1705.96
421.561	1779.68
421.769	1828.84
421.977	1910.75
422.185	1906.66
422.393	2004.96
422.601	2084.83
422.809	2076.64
423.017	2113.5
423.224	2283.49
423.432	2410.46
423.64	2359.26
423.848	2449.37
424.056	2541.53
424.263	2590.68
424.471	2695.13
424.679	2775
424.887	2850.77
425.094	2940.88
425.302	2967.51
425.51	2985.94
425.718	3340.24
425.925	3164.11
426.133	3223.5
426.341	3426.25
426.548	3667.91
426.756	3651.53
426.964	3719.11
427.171	4079.55
427.379	4036.55
427.586	4032.45
427.794	4202.43
428.001	4450.24
428.209	4534.2
428.417	4556.73
428.624	4769.72
428.832	4874.17
429.039	4763.58
429.247	4818.87
429.454	5226.42
429.662	5744.55
429.869	5236.66
430.076	5656.49
430.284	5343.15
430.491	5666.73
430.699	6102.95
430.906	5955.49
431.114	6244.26
431.321	6383.52
431.528	6420.38
431.736	6924.18
431.943	7174.03
432.15	6940.57
432.358	7102.36
432.565	7526.29
432.772	7440.27
432.979	7982.98
433.187	7935.88
433.394	7890.82
433.601	8329.09
433.808	8707.96
434.016	8587.13
434.223	9025.4
434.43	9348.98
434.637	9142.13
434.844	9820.01
435.052	10084.2
435.259	9756.52
435.466	10045.29
435.673	9928.55
435.88	10639.2
436.087	11106.13
436.294	10839.9
436.501	10848.09
436.708	11198.29
436.915	11632.46
437.122	12126.02
437.329	11882.31
437.537	12205.89
437.743	12730.17
437.95	12474.18
438.157	13131.58
438.364	13561.65
438.571	13518.64
438.778	13694.77
438.985	14890.78
439.192	14223.14
439.399	14786.33
439.606	14257.96
439.813	15144.73
440.02	16070.41
440.227	15673.1
440.433	15574.8
440.64	16211.72
440.847	16125.71
441.054	16627.46
441.261	17723.12
441.467	17657.59
441.674	17970.93
441.881	18253.55
442.088	18388.71
442.294	18226.92
442.501	18714.34
442.708	18949.85
442.914	19859.15
443.121	20543.17
443.328	20190.92
443.534	21892.79
443.741	20686.53
443.948	20639.43
444.154	21935.79
444.361	21876.4
444.568	22349.48
444.774	22195.89
444.981	22417.07
445.187	23383.71
445.394	24049.3
445.6	23987.86
445.807	26203.76
446.013	24968.83
446.22	25357.95
446.426	25949.81
446.633	26476.14
446.839	27524.7
447.046	26033.78
447.252	27766.36
447.459	28366.42
447.665	27510.36
447.871	28823.11
448.078	29967.93
448.284	28517.96
448.491	29169.22
448.697	30871.08
448.903	31034.92
449.11	31297.06
449.316	30387.76
449.522	31616.54
449.728	32226.84
449.935	32628.24
450.141	32394.77
450.347	32890.38
450.553	32083.48
450.76	32290.32
450.966	33656.32
451.172	33146.37
451.378	33875.45
451.584	32941.58
451.791	33930.75
451.997	34225.65
452.203	34002.43
452.409	34321.91
452.615	34524.66
452.821	32822.8
453.027	32478.74
453.233	34762.22
453.44	32890.38
453.646	33783.29
453.852	33486.34
454.058	33871.36
454.264	32808.46
454.47	33680.89
454.676	32802.32
454.882	33981.95
455.088	31061.54
455.294	31370.79
455.5	32067.09
455.705	32298.52
455.911	31002.15
456.117	30535.21
456.323	30047.8
456.529	28567.12
456.735	29443.65
456.941	28876.36
457.147	28485.2
457.352	27727.45
457.558	27037.28
457.764	27430.49
457.97	26617.45
458.176	26111.6
458.381	26207.86
458.587	24927.88
458.793	24632.97
458.999	23465.63
459.204	25060.99
459.41	24385.16
459.616	22847.14
459.821	23148.19
460.027	22924.96
460.233	22537.9
460.438	21345.98
460.644	21411.51
460.85	20594.37
461.055	20299.47
461.261	20217.55
461.466	18808.54
461.672	17921.77
461.878	19365.59
462.083	18165.48
462.289	17864.43
462.494	17579.76
462.7	17043.2
462.905	16523.01
463.111	16834.3
463.316	17053.44
463.522	16695.04
463.727	16617.22
463.932	16639.75
464.138	16453.38
464.343	16490.24
464.549	15898.38
464.754	16365.32
464.959	16181
465.165	16119.56
465.37	15509.27
465.575	15181.59
465.781	15705.87
465.986	15808.27
466.191	15261.46
466.397	15191.83
466.602	14411.56
466.807	14737.18
467.012	14884.64
467.218	14712.61
467.423	14737.18
467.628	14737.18
467.833	15107.87
468.038	14786.33
468.244	14360.36
468.449	14794.53
468.654	14100.26
468.859	14124.84
469.064	14378.79
469.269	13737.77
469.474	13858.6
469.679	14296.87
469.885	13696.81
470.09	13645.62
470.295	13618.99
470.5	13164.34
470.705	13373.24
470.91	13301.56
471.115	13088.57
471.32	13043.51
471.525	13082.42
471.73	13160.25
471.935	12838.72
472.139	12392.26
472.344	12314.44
472.549	12396.35
472.754	12296
472.959	11851.6
473.164	11753.29
473.369	11669.33
473.574	12113.74
473.778	12003.14
473.983	11751.24
474.188	11716.43
474.393	11161.43
474.598	11186.01
474.802	11253.59
475.007	11200.34
475.212	11116.37
475.417	10717.02
475.621	10610.53
475.826	10583.9
476.031	10428.26
476.235	10514.27
476.44	10446.69
476.645	10250.08
476.849	10237.8
477.054	10168.16
477.259	10061.67
477.463	10209.12
477.668	9680.75
477.872	9793.39
478.077	9736.04
478.282	9426.8
478.486	9332.59
478.691	9185.14
478.895	9400.18
479.1	9291.63
479.304	9328.5
479.509	8810.36
479.713	9054.07
479.918	9072.5
480.122	8882.04
480.326	8904.57
480.531	9056.12
480.735	8783.74
480.94	8759.16
481.144	9197.43
481.348	8763.26
481.553	8748.92
481.757	8419.2
481.961	8710.01
482.166	8796.03
482.37	8769.4
482.574	8456.06
482.778	8464.25
482.983	8714.11
483.187	8755.07
483.391	8652.67
483.595	8347.52
483.8	8359.81
484.004	8548.22
484.208	8509.31
484.412	8529.79
484.616	8593.28
484.821	8703.87
485.025	8626.04
485.229	8730.49
485.433	8570.75
485.637	8585.08
485.841	8630.14
486.045	8333.18
486.249	8626.04
486.453	8433.54
486.657	8492.93
486.861	8519.55
487.065	8357.76
487.269	8537.98
487.473	8316.8
487.677	8580.99
487.881	8507.26
488.085	8578.94
488.289	8626.04
488.493	8525.69
488.697	8660.86
488.901	8642.43
489.105	8589.18
489.309	8601.47
489.512	8548.22
489.716	8660.86
489.92	8755.07
490.124	8572.8
490.328	8888.18
490.531	8728.44
490.735	8816.51
490.939	8890.23
491.143	8789.88
491.346	8789.88
491.55	8832.89
491.754	8972.15
491.958	8955.77
492.161	9037.69
492.365	9119.6
492.569	8808.31
492.772	9009.01
492.976	8873.85
493.18	9129.84
493.383	9119.6
493.587	9340.79
493.79	9428.85
493.994	9410.42
494.197	9336.69
494.401	9396.08
494.605	9400.18
494.808	9576.3
495.012	9660.27
495.215	9783.15
495.419	9742.19
495.622	9770.86
495.825	9871.21
496.029	10076.01
496.232	10243.94
496.436	10159.97
496.639	10387.3
496.843	10258.28
497.046	10424.16
497.249	10542.94
497.453	10585.95
497.656	10835.8
497.859	10768.22
498.063	10872.67
498.266	11229.01
498.469	11321.17
498.673	11249.49
498.876	11413.33
499.079	11249.49
499.282	11595.6
499.485	11736.91
499.689	11894.6
499.892	12085.06
500.095	11972.43
500.298	12150.6
500.501	12064.58
500.705	12576.58
500.908	12816.19
501.111	12934.97
501.314	12896.06
501.517	12992.31
501.72	13395.76
501.923	13174.58
502.126	13410.1
502.329	13743.92
502.532	13631.28
502.735	13850.41
502.938	14208.81
503.141	14257.96
503.344	14362.4
503.547	14507.81
503.75	14450.47
503.953	14810.91
504.156	15161.11
504.359	15265.56
504.562	15001.37
504.765	15496.98
504.968	15669.01
505.17	15869.71
505.373	15916.81
505.576	16039.69
505.779	16293.64
505.982	16340.74
506.185	16819.97
506.387	16803.58
506.59	16961.28
506.793	16936.7
506.996	17041.15
507.198	17645.3
507.401	17381.11
507.604	17626.87
507.807	18095.85
508.009	18282.22
508.212	18271.98
508.415	18710.24
508.617	18806.5
508.82	19195.61
509.022	19021.53
509.225	19351.26
509.428	19637.97
509.63	19947.22
509.833	19840.72
510.035	20504.26
510.238	20027.09
510.44	20582.09
510.643	20674.24
510.845	21132.99
511.048	20862.66
511.25	21272.25
511.453	21589.69
511.655	21954.22
511.858	21935.79
512.06	22066.86
512.262	22308.52
512.465	22525.61
512.667	22726.31
512.87	22918.82
513.072	22904.48
513.274	23531.16
513.477	23723.67
513.679	23914.13
513.881	24176.27
514.084	24395.4
514.286	24639.11
514.488	24704.65
514.69	25611.9
514.893	25325.18
515.095	25841.27
515.297	26068.59
515.499	25882.23
515.701	26580.59
515.904	26869.35
516.106	26818.15
516.308	27315.81
516.51	27637.34
516.712	27557.47
516.914	28036.69
517.116	28429.9
517.318	28110.42
517.52	28855.88
517.722	28769.86
517.925	29396.54
518.127	29656.64
518.329	30182.96
518.531	29890.1
518.733	30447.15
518.935	30617.13
519.136	30686.76
519.338	31202.85
519.54	31381.03
519.742	31919.64
519.944	32075.29
520.146	32458.26
520.348	32529.94
520.55	33070.6
520.752	33003.02
520.954	33875.45
521.155	33766.91
521.357	33809.92
521.559	34237.94
521.761	35016.17
521.963	35116.52
522.164	35345.89
522.366	35880.41
522.568	36005.34
522.77	36457.94
522.971	36797.9
523.173	36535.76
523.375	36969.93
523.576	37053.9
523.778	37270.98
523.98	37696.96
524.181	38006.2
524.383	38106.55
524.584	38890.93
524.786	38770.1
524.988	38761.9
525.189	39153.07
525.391	39718.31
525.592	40410.52
525.794	40138.14
525.995	40701.33
526.197	40670.61
526.398	40781.2
526.6	41362.82
526.801	41360.78
527.003	41635.2
527.204	41508.23
527.406	42317.18
527.607	41954.69
527.808	42724.72
528.01	41719.17
528.211	42765.68
528.412	43437.42
528.614	43208.04
528.815	43601.25
529.016	43824.48
529.218	43658.6
529.419	43754.85
529.62	44072.29
529.822	44139.87
530.023	44303.71
530.224	44502.36
530.425	44322.14
530.626	44547.42
530.828	44369.24
531.029	45821.25
531.23	44719.45
531.431	44713.3
531.632	45354.32
531.833	45677.9
532.035	45591.88
532.236	45743.43
532.437	46165.31
532.638	45718.85
532.839	46280
533.04	46327.1
533.241	45708.61
533.442	46828.85
533.643	46105.92
533.844	46210.37
534.045	46845.24
534.246	46292.29
534.447	46873.91
534.648	46525.75
534.849	46708.02
535.05	46298.43
535.251	46976.31
535.451	46961.97
535.652	47033.65
535.853	46787.89
536.054	47244.59
536.255	47396.14
536.456	46619.96
536.657	47815.97
536.857	47574.31
537.058	47121.71
537.259	47322.41
537.46	47689
537.66	47273.26
537.861	47295.79
538.062	47256.88
538.263	47252.78
538.463	47068.47
538.664	47291.69
538.865	47617.32
539.065	47617.32
539.266	47234.35
539.466	47938.85
539.667	46918.96
539.868	47869.22
540.068	47631.66
540.269	47611.18
540.469	47779.11
540.67	47627.56
540.87	47170.86
541.071	47613.23
541.271	47811.88
541.472	47559.98
541.672	47410.48
541.873	47621.42
542.073	47021.36
542.274	48237.86
542.474	47353.13
542.675	47090.99
542.875	48123.17
543.075	47600.94
543.276	47334.7
543.476	47639.85
543.676	47306.03
543.877	47684.9
544.077	47246.64
544.277	47365.42
544.478	47363.37
544.678	47682.86
544.878	47648.04
545.078	47461.68
545.279	47394.09
545.479	47402.28
545.679	47627.56
545.879	47557.93
546.079	47553.83
546.28	47279.41
546.48	47254.83
546.68	47312.17
546.88	47627.56
547.08	47396.14
547.28	47230.26
547.48	47070.51
547.68	47729.96
547.88	47404.33
548.081	47377.71
548.281	47222.06
548.481	47127.86
548.681	47805.73
548.881	47189.3
549.081	47680.81
549.28	47598.89
549.48	48104.74
549.68	47416.62
549.88	47811.88
550.08	47494.44
550.28	47639.85
550.48	47277.36
550.68	47742.25
550.88	46970.16
551.08	46947.64
551.279	47357.23
551.479	47183.15
551.679	47723.82
551.879	46972.21
552.079	47533.35
552.278	47252.78
552.478	47312.17
552.678	47357.23
552.878	47875.37
553.077	47002.93
553.277	46740.79
553.477	47918.37
553.676	46992.69
553.876	46955.83
554.076	46775.61
554.275	46853.43
554.475	46378.3
554.674	47172.91
554.874	46730.55
555.074	46617.91
555.273	46882.1
555.473	47043.89
555.672	46681.4
555.872	46630.2
556.071	46990.64
556.271	46179.65
556.47	46806.33
556.67	46028.1
556.869	46034.24
557.068	46421.31
557.268	45980.99
557.467	45696.33
557.667	45815.11
557.866	45808.97
558.065	45772.1
558.265	45575.5
558.464	45395.28
558.663	45854.02
558.863	45190.48
559.062	45872.45
559.261	44952.91
559.461	45466.95
559.66	44692.82
559.859	45215.05
560.058	44615
560.258	44658.01
560.457	44477.79
560.656	44658.01
560.855	43955.55
561.054	44789.08
561.253	44053.86
561.453	44135.77
561.652	44385.63
561.851	44113.25
562.05	43863.39
562.249	43634.02
562.448	44051.81
562.647	43564.39
562.846	43457.9
563.045	43726.18
563.244	42954.1
563.443	43136.37
563.642	42458.49
563.841	42577.27
564.04	42415.48
564.239	43085.17
564.438	42427.77
564.637	42536.31
564.836	42487.16
565.035	41928.06
565.234	42036.61
565.432	41606.53
565.631	41436.55
565.83	41637.25
566.029	41328.01
566.228	41475.46
566.427	41207.18
566.625	40916.37
566.824	40639.89
567.023	41438.6
567.222	39822.75
567.42	40705.43
567.619	40410.52
567.818	40457.62
568.016	39998.88
568.215	40474.01
568.414	39980.45
568.612	39949.73
568.811	39337.38
569.01	39441.83
569.208	39042.48
569.407	39153.07
569.605	38518.2
569.804	39026.09
570.002	38532.53
570.201	38614.45
570.4	38391.22
570.598	38321.59
570.797	38069.69
570.995	38362.55
571.193	37666.24
571.392	37938.62
571.59	37121.48
571.789	37637.57
571.987	37162.44
572.186	37187.02
572.384	37021.13
572.582	36959.69
572.781	36961.74
572.979	36363.73
573.177	36486.61
573.376	36756.94
573.574	35978.72
573.772	35999.19
573.971	35788.25
574.169	35732.96
574.367	35583.46
574.565	35571.17
574.763	35374.56
574.962	35454.43
575.16	35010.03
575.358	35358.18
575.556	34446.83
575.754	35358.18
575.952	34545.14
576.151	34485.75
576.349	34147.83
576.547	34119.16
576.745	34506.23
576.943	34248.18
577.141	34160.12
577.339	33992.19
577.537	33633.79
577.735	33873.4
577.933	33324.55
578.131	33461.76
578.329	33246.72
578.527	33164.81
578.725	33541.63
578.923	33179.14
579.121	32804.36
579.319	32650.77
579.516	33021.45
579.714	32837.13
579.912	32042.52
580.11	32355.86
580.308	32493.07
580.506	31940.12
580.704	31770.14
580.901	31954.46
581.099	32275.99
581.297	31813.15
581.495	31596.06
581.692	31485.47
581.89	31438.37
582.088	31831.58
582.285	31116.84
582.483	31225.38
582.681	31307.3
582.878	30936.62
583.076	30641.71
583.274	31067.69
583.471	30610.99
583.669	30963.24
583.866	29957.69
584.064	30500.4
584.262	30199.35
584.459	30490.16
584.657	30264.88
584.854	30150.2
585.052	29621.82
585.249	30008.89
585.447	29812.28
585.644	29312.58
585.841	29431.36
586.039	29849.14
586.236	29251.14
586.434	29335.1
586.631	29025.86
586.828	28888.65
587.026	29222.47
587.223	28950.09
587.42	28640.84
587.618	28694.09
587.815	28554.83
588.012	28644.94
588.21	28194.39
588.407	28554.83
588.604	28167.76
588.801	27844.18
588.999	28048.98
589.196	27973.21
589.393	27989.59
589.59	27973.21
589.787	27766.36
589.984	27647.58
590.182	27344.48
590.379	27899.48
590.576	27160.16
590.773	27174.5
590.97	27190.88
591.167	26936.93
591.364	26838.63
591.561	26938.98
591.758	26918.5
591.955	26891.88
592.152	27096.67
592.349	26621.55
592.546	26549.87
592.743	26504.81
592.94	26064.5
593.137	26347.12
593.334	26097.27
593.531	25958
593.727	26222.19
593.924	25933.43
594.121	25720.44
594.318	26175.09
594.515	25536.12
594.712	25955.96
594.908	25558.65
595.105	25839.22
595.302	25157.25
595.499	25407.1
595.696	25110.14
595.892	24893.06
596.089	25118.34
596.286	25239.17
596.482	24974.98
596.679	25097.86
596.876	25056.9
597.072	25017.99
597.269	24987.27
597.466	24577.67
597.662	24383.12
597.859	24473.23
598.055	24714.89
598.252	24503.95
598.448	24323.72
598.645	24051.34
598.841	23903.89
599.038	23985.81
599.234	23875.22
599.431	23793.3
599.627	23733.91
599.824	23750.29
600.02	23541.4
600.217	23377.56
600.413	23207.58
600.609	23479.96
600.806	23215.77
601.002	23473.82
601.198	23017.12
601.395	22935.2
601.591	23029.41
601.787	22953.63
601.984	22722.21
602.18	23053.98
602.376	22621.86
602.572	22576.81
602.769	22740.64
602.965	22081.2
603.161	22558.38
603.357	22193.84
603.553	22240.94
603.75	22042.29
603.946	22220.46
604.142	22326.96
604.338	21974.7
604.534	21919.41
604.73	21464.76
604.926	21796.53
605.122	21728.95
605.318	21528.25
605.514	21204.67
605.71	21427.9
605.906	21663.41
606.102	21198.52
606.298	21427.9
606.494	21534.39
606.69	21362.36
606.886	21055.17
607.082	20858.56
607.278	21077.69
607.474	20502.22
607.67	20999.87
607.866	20575.94
608.062	21106.37
608.257	20719.3
608.453	20770.5
608.649	20776.64
608.845	20133.58
609.041	20590.28
609.236	20362.95
609.432	20278.99
609.628	20301.51
609.824	20217.55
610.019	19977.94
610.215	20379.34
610.411	20256.46
610.606	20033.23
610.802	19861.2
610.998	19928.78
611.193	20049.61
611.389	19930.83
611.584	19891.92
611.78	19496.66
611.976	19652.31
612.171	19674.84
612.367	19578.58
612.562	19437.27
612.758	19175.13
612.953	19156.7
613.149	19554.01
613.344	19449.56
613.539	19562.2
613.735	19599.06
613.93	19525.33
614.126	18976.48
614.321	19310.3
614.517	19191.52
614.712	19105.5
614.907	18917.09
615.103	19285.72
615.298	19199.71
615.493	19097.31
615.688	18700
615.884	19070.68
616.079	18652.9
616.274	18679.52
616.47	18792.16
616.665	18708.19
616.86	18333.42
617.055	18341.61
617.25	18437.86
617.445	18689.76
617.641	18306.79
617.836	18679.52
618.031	18204.39
618.226	18192.11
618.421	18071.28
618.616	18122.48
618.811	18009.84
619.006	18278.12
619.201	17813.23
619.396	17895.15
619.591	17520.37
619.786	17688.31
619.981	17483.51
620.176	17770.22
620.371	17475.32
620.566	17440.5
620.761	17364.73
620.956	17391.35
621.151	16981.76
621.346	17254.14
621.541	16914.17
621.735	17178.36
621.93	16750.34
622.125	16834.3
622.32	16678.66
622.515	16518.92
622.709	16518.92
622.904	16629.51
623.099	16365.32
623.294	16326.41
623.488	15998.73
623.683	16133.9
623.878	16023.31
624.072	16183.05
624.267	15980.3
624.462	15943.44
624.656	15669.01
624.851	15728.4
625.046	15533.84
625.24	15443.73
625.435	15181.59
625.629	15509.27
625.824	15286.04
626.018	15345.43
626.213	14911.26
626.407	14894.88
626.602	14688.03
626.796	14872.35
626.991	15017.75
627.185	14728.99
627.38	14718.75
627.574	14497.57
627.768	14395.17
627.963	14317.35
628.157	14352.16
628.352	14356.26
628.546	13887.28
628.74	14133.03
628.935	13717.29
629.129	13721.39
629.323	13846.32
629.517	13766.45
629.712	13766.45
629.906	13571.89
630.1	13426.48
630.294	13444.91
630.489	13391.67
630.683	13469.49
630.877	13082.42
631.071	13084.47
631.265	13373.24
631.459	13080.38
631.653	13117.24
631.848	12851
632.042	12728.13
632.236	12873.53
632.43	12603.2
632.624	12621.63
632.818	12621.63
633.012	12341.06
633.206	12451.65
633.4	12416.83
633.594	12253
633.788	12257.09
633.982	12334.92
634.176	12371.78
634.369	12136.26
634.563	11974.47
634.757	11806.54
634.951	11902.79
635.145	11691.85
635.339	11757.39
635.533	11495.25
635.726	11652.94
635.92	11487.06
636.114	11640.65
636.308	11353.94
636.501	11513.68
636.695	11427.67
636.889	11093.85
637.083	11276.12
637.276	11048.79
637.47	10944.34
637.664	11020.12
637.857	11186.01
638.051	10880.86
638.244	10696.54
638.438	10983.26
638.632	10614.62
638.825	10567.52
639.019	10696.54
639.212	10526.56
639.406	10577.76
639.599	10493.79
639.793	10553.18
639.986	10233.7
640.18	10209.12
640.373	10131.3
640.567	10002.28
640.76	10045.29
640.954	10053.48
641.147	9822.06
641.34	9928.55
641.534	9856.87
641.727	9869.16
641.92	9944.94
642.114	9568.11
642.307	9660.27
642.5	9742.19
642.694	9592.69
642.887	9549.68
643.08	9559.92
643.273	9559.92
643.467	9357.17
643.66	9348.98
643.853	9287.54
644.046	9160.56
644.239	9070.45
644.432	8988.53
644.626	9135.99
644.819	8882.04
645.012	8906.62
645.205	8984.44
645.398	8968.06
645.591	9039.73
645.784	8810.36
645.977	8664.96
646.17	8775.55
646.363	8652.67
646.556	8345.47
646.749	8490.88
646.942	8654.72
647.135	8462.21
647.328	8316.8
647.521	8394.62
647.714	8077.19
647.907	8384.38
648.099	8347.52
648.292	8394.62
648.485	8187.78
648.678	8103.81
648.871	8130.44
649.064	8052.61
649.256	8058.76
649.449	7798.66
649.642	7905.16
649.835	7901.06
650.027	7827.34
650.22	7843.72
650.413	7763.85
650.605	7858.06
650.798	7593.87
650.991	7409.55
651.183	7612.3
651.376	7585.68
651.568	7653.26
651.761	7372.69
651.954	7544.72
652.146	7344.02
652.339	7423.89
652.531	7425.93
652.724	7237.52
652.916	7276.43
653.109	7245.71
653.301	7389.07
653.494	7225.23
653.686	7161.75
653.879	7325.58
654.071	7100.31
654.263	6967.19
654.456	7126.93
654.648	7126.93
654.84	6932.37
655.033	6703
655.225	6850.46
655.417	6735.77
655.61	6924.18
655.802	6840.22
655.994	6721.43
656.186	6707.1
656.379	6887.32
656.571	6676.38
656.763	6633.37
656.955	6492.06
657.148	6547.36
657.34	6772.63
657.532	6426.53
657.724	6533.02
657.916	6487.97
658.108	6360.99
658.3	6289.31
658.492	6406.05
658.684	6301.6
658.876	6428.57
659.068	6350.75
659.26	6178.72
659.452	6164.39
659.644	6096.8
659.836	6086.56
660.028	6256.54
660.22	6084.52
660.412	6096.8
660.604	6041.51
660.796	6225.82
660.988	6123.43
661.18	6074.28
661.372	5957.54
661.563	6008.74
661.755	5851.05
661.947	5953.45
662.139	5941.16
662.331	5961.64
662.522	5797.8
662.714	5699.5
662.906	5699.5
663.097	5779.37
663.289	5711.78
663.481	5824.42
663.673	5711.78
663.864	5529.52
664.056	5623.72
664.247	5670.83
664.439	5617.58
664.631	5765.03
664.822	5648.3
665.014	5572.52
665.205	5638.06
665.397	5521.32
665.588	5560.24
665.78	5562.28
665.971	5435.31
666.163	5466.03
666.354	5531.56
666.546	5332.91
666.737	5418.93
666.929	5271.47
667.12	5394.35
667.311	5472.17
667.503	5466.03
667.694	5302.19
667.885	5574.57
668.077	5441.45
668.268	5470.12
668.459	5367.73
668.651	5285.81
668.842	5359.53
669.033	5312.43
669.224	5269.42
669.416	5402.54
669.607	5310.38
669.798	5267.38
669.989	5361.58
670.18	5255.09
670.371	5281.71
670.563	5142.45
670.754	5281.71
670.945	5236.66
671.136	5298.1
671.327	5324.72
671.518	5212.08
671.709	5220.27
671.9	5238.7
672.091	5345.2
672.282	5281.71
672.473	5289.9
672.664	5314.48
672.855	5167.03
673.046	5167.03
673.237	5334.96
673.428	5314.48
673.619	5351.34
673.809	5248.94
674	5291.95
674.191	5089.2
674.382	5287.86
674.573	5195.7
674.764	5126.07
674.954	5343.15
675.145	5361.58
675.336	5269.42
675.527	5160.88
675.717	5236.66
675.908	5273.52
676.099	5451.69
676.289	5255.09
676.48	5369.77
676.671	5320.62
676.861	5289.9
677.052	5320.62
677.243	5179.31
677.433	5535.66
677.624	5418.93
677.814	5355.44
678.005	5502.89
678.195	5511.08
678.386	5466.03
678.576	5556.14
678.767	5302.19
678.957	5433.26
679.148	5529.52
679.338	5531.56
679.529	5474.22
679.719	5466.03
679.909	5646.25
680.1	5527.47
680.29	5676.97
680.481	5463.98
680.671	5631.91
680.861	5597.1
681.052	5636.01
681.242	5494.7
681.432	5797.8
681.622	5621.67
681.813	5625.77
682.003	5683.11
682.193	5541.8
682.383	5670.83
682.573	5799.85
682.764	5646.25
682.954	5855.14
683.144	5711.78
683.334	5871.53
683.524	5781.42
683.714	5664.68
683.904	5554.09
684.094	5742.5
684.284	5679.02
684.474	5881.77
684.664	5660.59
684.854	5660.59
685.044	5748.65
685.234	5601.19
685.424	5726.12
685.614	5814.18
685.804	5896.1
685.994	5742.5
686.184	5699.5
686.374	5799.85
686.564	5816.23
686.753	5719.98
686.943	5656.49
687.133	5746.6
687.323	5570.48
687.513	5701.55
687.702	5646.25
687.892	5515.18
688.082	5494.7
688.272	5654.44
688.461	5435.31
688.651	5760.94
688.841	5519.28
689.03	5478.32
689.22	5367.73
689.41	5341.1
689.599	5398.45
689.789	5543.85
689.979	5291.95
690.168	5308.34
690.358	5207.98
690.547	5275.57
690.737	5314.48
690.926	5148.59
691.116	5152.69
691.305	5212.08
691.495	5121.97
691.684	5089.2
691.874	5109.68
692.063	5175.22
692.252	4958.13
692.442	5003.19
692.631	4825.01
692.82	5070.77
693.01	4859.83
693.199	4685.75
693.388	4911.03
693.578	4892.6
693.767	4831.16
693.956	4779.96
694.146	4792.25
694.335	4679.61
694.524	4851.64
694.713	4794.29
694.902	4825.01
695.092	4868.02
695.281	4669.37
695.47	4710.33
695.659	4782.01
695.848	4822.97
696.037	4829.11
696.226	4722.62
696.415	4802.49
696.604	4745.14
696.793	4521.91
696.982	4579.26
697.171	4710.33
697.36	4687.8
697.549	4579.26
697.738	4700.09
697.927	4605.88
698.116	4714.42
698.305	4622.27
698.494	4638.65
698.683	4517.82
698.872	4685.75
699.061	4667.32
699.25	4583.35
699.438	4624.31
699.627	4526.01
699.816	4847.54
700.005	4544.44
700.193	4765.62
700.382	4734.9
700.571	4767.67
700.76	4595.64
700.948	4730.81
701.137	4657.08
701.326	4765.62
701.514	4605.88
701.703	4552.63
701.892	4652.99
702.08	4659.13
702.269	4708.28
702.457	4636.6
702.646	4880.31
702.834	4706.23
703.023	4540.35
703.212	4792.25
703.4	4683.7
703.589	4745.14
703.777	4765.62
703.965	4720.57
704.154	4833.21
704.342	4759.48
704.531	4751.29
704.719	4808.63
704.907	4992.95
705.096	4759.48
705.284	4790.2
705.472	4970.42
705.661	4884.41
705.849	4892.6
706.037	4880.31
706.226	4755.38
706.414	4904.89
706.602	4861.88
706.79	4976.56
706.979	4947.89
707.167	4995
707.355	4976.56
707.543	5040.05
707.731	4982.71
707.919	5017.52
708.107	5005.24
708.296	4958.13
708.484	4956.08
708.672	4964.28
708.86	4939.7
709.048	5214.13
709.236	5027.76
709.424	5171.12
709.612	5296.05
709.8	5203.89
709.988	5011.38
710.176	5136.31
710.364	5218.22
710.551	5083.06
710.739	5187.5
710.927	5171.12
711.115	5138.35
711.303	5162.93
711.491	5185.46
711.679	5220.27
711.866	5304.24
712.054	5353.39
712.242	5302.19
712.43	5455.79
712.617	5552.04
712.805	5384.11
712.993	5406.64
713.181	5365.68
713.368	5423.02
713.556	5613.48
713.744	5531.56
713.931	5615.53
714.119	5451.69
714.306	5478.32
714.494	5619.63
714.682	5654.44
714.869	5537.71
715.057	5576.62
715.244	5545.9
715.432	5625.77
715.619	5527.47
715.807	5728.17
715.994	5760.94
716.182	5623.72
716.369	5820.33
716.556	5912.49
716.744	5666.73
716.931	5744.55
717.119	5801.9
717.306	5750.7
717.493	5842.85
717.681	5861.29
717.868	5797.8
718.055	5894.05
718.242	5932.97
718.43	5918.63
718.617	5973.92
718.804	6014.88
718.991	5994.4
719.179	6047.65
719.366	6039.46
719.553	6145.95
719.74	5947.3
719.927	5957.54
720.114	5982.12
720.301	6055.84
720.488	6123.43
720.676	6064.04
720.863	6193.06
721.05	6178.72
721.237	6096.8
721.424	6205.35
721.611	6135.71
721.798	6322.08
721.985	6143.91
722.172	6229.92
722.358	6250.4
722.545	6244.26
722.732	6143.91
722.919	6404
723.106	6250.4
723.293	6277.02
723.48	6293.41
723.667	6096.8
723.853	6184.87
724.04	6457.25
724.227	6340.51
724.414	6469.53
724.6	6438.81
724.787	6465.44
724.974	6563.74
725.161	6475.68
725.347	6379.42
725.534	6438.81
725.72	6430.62
725.907	6383.52
726.094	6662.04
726.28	6559.64
726.467	6641.56
726.653	6608.8
726.84	6522.78
727.027	6580.12
727.213	6412.19
727.4	6647.71
727.586	6621.08
727.773	6524.83
727.959	6655.9
728.145	6703
728.332	6750.11
728.518	6530.97
728.705	6608.8
728.891	6762.39
729.077	6784.92
729.264	6676.38
729.45	6539.16
729.636	6805.4
729.823	6727.58
730.009	6643.61
730.195	6827.93
730.382	6668.19
730.568	6717.34
730.754	6881.18
730.94	6631.32
731.126	6866.84
731.313	6768.54
731.499	6879.13
731.685	6866.84
731.871	7047.06
732.057	6842.26
732.243	6817.69
732.429	6862.74
732.615	6741.91
732.801	7053.2
732.987	6793.11
733.173	6832.02
733.359	6815.64
733.545	6850.46
733.731	6842.26
733.917	6723.48
734.103	6903.7
734.289	6911.89
734.475	6875.03
734.661	6819.74
734.847	6825.88
735.033	6936.47
735.219	6887.32
735.404	6840.22
735.59	6930.33
735.776	6985.62
735.962	6959
736.148	6879.13
736.333	6735.77
736.519	6930.33
736.705	6903.7
736.89	6942.61
737.076	6686.62
737.262	6840.22
737.447	6746.01
737.633	6780.82
737.819	6807.45
738.004	6793.11
738.19	6866.84
738.375	6680.47
738.561	6905.75
738.747	6657.95
738.932	6733.72
739.118	6741.91
739.303	6764.44
739.489	6698.91
739.674	6729.63
739.859	6637.47
740.045	6717.34
740.23	6662.04
740.416	6727.58
740.601	6668.19
740.786	6600.6
740.972	6627.23
741.157	6502.3
741.342	6547.36
741.528	6420.38
741.713	6563.74
741.898	6610.84
742.084	6639.51
742.269	6567.84
742.454	6414.24
742.639	6596.51
742.824	6408.09
743.01	6510.49
743.195	6461.34
743.38	6365.09
743.565	6291.36
743.75	6395.81
743.935	6297.5
744.12	6457.25
744.305	6221.73
744.49	6217.63
744.675	6186.91
744.86	6078.37
745.045	6100.9
745.23	6055.84
745.415	5932.97
745.6	5992.36
745.785	5957.54
745.97	5980.07
746.155	5916.58
746.34	6127.52
746.525	5756.84
746.71	5916.58
746.895	5840.81
747.079	5785.51
747.264	5750.7
747.449	5715.88
747.634	5603.24
747.819	5629.87
748.003	5552.04
748.188	5533.61
748.373	5574.57
748.557	5572.52
748.742	5531.56
748.927	5314.48
749.111	5496.75
749.296	5308.34
749.481	5386.16
749.665	5308.34
749.85	5273.52
750.034	5316.53
750.219	5234.61
750.404	5119.92
750.588	5070.77
750.773	4997.04
750.957	5134.26
751.141	4960.18
751.326	4923.32
751.51	4990.9
751.695	4986.8
751.879	4855.73
752.064	4898.74
752.248	4831.16
752.432	4937.65
752.617	4845.49
752.801	4732.86
752.985	4736.95
753.17	4706.23
753.354	4632.51
753.538	4532.15
753.722	4507.58
753.907	4405.18
754.091	4495.29
754.275	4323.26
754.459	4462.52
754.643	4276.16
754.828	4370.37
755.012	4261.82
755.196	4339.65
755.38	4087.75
755.564	4106.18
755.748	4204.48
755.932	4241.34
756.116	4231.1
756.3	4077.51
756.484	4032.45
756.668	4104.13
756.852	4040.64
757.036	4014.02
757.22	4001.73
757.404	3885
757.588	3956.68
757.772	3921.86
757.956	3753.93
758.14	3794.89
758.323	3807.17
758.507	3540.94
758.691	3618.76
758.875	3690.44
759.059	3760.07
759.242	3737.54
759.426	3698.63
759.61	3700.68
759.794	3561.42
759.977	3532.75
760.161	3549.13
760.345	3637.19
760.528	3399.63
760.712	3532.75
760.895	3434.44
761.079	3465.16
761.263	3491.79
761.446	3184.59
761.63	3356.62
761.813	3442.64
761.997	3200.98
762.18	3153.87
762.364	3039.19
762.547	3188.69
762.731	3223.5
762.914	3194.83
763.098	3157.97
763.281	3180.5
763.464	3160.02
763.648	3200.98
763.831	3112.91
764.015	3080.15
764.198	3086.29
764.381	3084.24
764.564	3147.73
764.748	3014.61
764.931	3055.57
765.114	2996.18
765.297	2901.97
765.481	3026.9
765.664	3098.58
765.847	2840.53
766.03	2942.93
766.213	2983.89
766.397	2926.55
766.58	2826.2
766.763	2793.43
766.946	2824.15
767.129	2760.66
767.312	2901.97
767.495	2828.24
767.678	2729.94
767.861	2676.7
768.044	2772.95
768.227	2697.17
768.41	2668.5
768.593	2801.62
768.776	2709.46
768.959	2621.4
769.142	2764.76
769.324	2594.78
769.507	2688.98
769.69	2566.1
769.873	2594.78
770.056	2598.87
770.239	2525.15
770.421	2664.41
770.604	2596.82
770.787	2473.95
770.97	2545.63
771.152	2394.08
771.335	2539.48
771.518	2404.32
771.7	2539.48
771.883	2463.71
772.066	2408.41
772.248	2467.8
772.431	2402.27
772.613	2324.44
772.796	2324.44
772.978	2336.73
773.161	2359.26
773.343	2217.95
773.526	2361.31
773.708	2211.81
773.891	2234.33
774.073	2181.09
774.256	2197.47
774.438	2238.43
774.621	2172.89
774.803	2181.09
774.985	2215.9
775.168	2232.29
775.35	2023.39
775.532	2045.92
775.715	2127.84
775.897	2064.35
776.079	1978.34
776.261	2041.82
776.444	1974.24
776.626	1961.95
776.808	1951.71
776.99	1871.84
777.173	2047.97
777.355	1837.03
777.537	1859.56
777.719	1968.1
777.901	1818.6
778.083	1961.95
778.265	1935.33
778.447	1753.06
778.629	1773.54
778.811	1787.88
778.993	1777.64
779.175	1837.03
779.357	1796.07
779.539	1791.97
779.721	1769.44
779.903	1693.67
780.085	1671.14
780.267	1685.48
780.449	1599.46
780.631	1648.61
780.812	1595.37
780.994	1654.76
781.176	1556.46
781.358	1587.18
781.54	1542.12
781.721	1554.41
781.903	1552.36
782.085	1552.36
782.267	1509.35
782.448	1464.3
782.63	1603.56
782.812	1513.45
782.993	1423.34
783.175	1486.83
783.357	1509.35
783.538	1392.62
783.72	1449.96
783.901	1411.05
784.083	1415.15
784.264	1366
784.446	1306.6
784.627	1419.24
784.809	1372.14
784.99	1368.04
785.172	1417.19
785.353	1261.55
785.535	1288.17
785.716	1288.17
785.897	1171.44
786.079	1191.92
786.26	1222.64
786.441	1288.17
786.623	1146.86
786.804	1083.38
786.985	1236.97
787.167	1228.78
787.348	1157.1
787.529	1064.94
787.71	1241.07
787.891	1144.81
788.073	1015.79
788.254	1034.22
788.435	1097.71
788.616	1120.24
788.797	1083.38
788.978	1112.05
789.159	1073.14
789.34	1214.45
789.522	1038.32
789.703	993.26
789.884	976.88
790.065	989.17
790.246	1046.51
790.427	1040.37
790.607	1116.14
790.788	1032.18
790.969	970.74
791.15	1017.84
791.331	1001.46
791.512	921.59
791.693	899.06
791.874	860.15
792.054	970.74
792.235	991.22
792.416	911.35
792.597	968.69
792.778	915.44
792.958	864.24
793.139	919.54
793.32	903.15
793.5	811
793.681	882.67
793.862	878.58
794.042	876.53
794.223	782.32
794.404	835.57
794.584	815.09
794.765	854
794.945	854
795.126	825.33
795.306	788.47
795.487	882.67
795.667	745.46
795.848	763.89
796.028	757.75
796.209	813.04
796.389	784.37
796.57	796.66
796.75	788.47
796.93	811
797.111	780.28
797.291	817.14
797.471	753.65
797.652	817.14
797.832	665.59
798.012	845.81
798.192	675.83
798.373	681.97
798.553	645.11
798.733	673.78
798.913	604.15
799.093	739.32
799.274	780.28
799.454	673.78
799.634	681.97
799.814	690.17
799.994	751.6
800.174	714.74
800.354	729.08
800.534	692.21
800.714	700.41
800.894	598.01
801.074	636.92
801.254	755.7
801.434	692.21
801.614	598.01
801.794	600.05
801.974	1306.6
802.154	655.35
802.334	589.82
802.514	655.35
802.693	675.83
802.873	649.21
803.053	630.77
803.233	563.19
803.413	655.35
803.592	557.05
803.772	641.01
803.952	483.32
804.131	550.9
804.311	606.2
804.491	638.97
804.67	546.81
804.85	567.29
805.03	632.82
805.209	571.38
805.389	516.09
805.568	579.58
805.748	550.9
805.928	540.66
806.107	542.71
806.287	507.9
806.466	565.24
806.646	583.67
806.825	561.14
807.004	530.42
807.184	583.67
807.363	524.28
807.543	489.46
807.722	468.98
807.901	610.29
808.081	532.47
808.26	417.79
808.439	511.99
808.619	458.75
808.798	499.7
808.977	485.37
809.156	563.19
809.336	524.28
809.515	477.18
809.694	481.27
809.873	518.14
810.052	514.04
810.231	550.9
810.411	458.75
810.59	491.51
810.769	452.6
810.948	538.62
811.127	354.3
811.306	438.27
811.485	399.35
811.664	505.85
811.843	417.79
812.022	389.11
812.201	458.75
812.38	464.89
812.559	450.55
812.737	483.32
812.916	372.73
813.095	352.25
813.274	442.36
813.453	432.12
813.632	411.64
813.811	473.08
813.989	440.31
814.168	452.6
814.347	350.2
814.526	462.84
814.704	473.08
814.883	432.12
815.062	393.21
815.24	376.83
815.419	458.75
815.598	399.35
815.776	356.35
815.955	387.07
816.133	288.76
816.312	415.74
816.49	417.79
816.669	317.44
816.847	434.17
817.026	419.83
817.204	292.86
817.383	417.79
817.561	335.87
817.74	319.48
817.918	387.07
818.097	342.01
818.275	299
818.453	378.87
818.632	360.44
818.81	301.05
818.988	350.2
819.167	321.53
819.345	348.15
819.523	419.83
819.701	337.91
819.879	374.78
820.058	272.38
820.236	358.39
820.414	401.4
820.592	376.83
820.77	325.63
820.948	311.29
821.127	294.91
821.305	329.72
821.483	215.04
821.661	329.72
821.839	272.38
822.017	278.52
822.195	315.39
822.373	356.35
822.551	249.85
822.729	374.78
822.907	337.91
823.085	323.58
823.262	346.11
823.44	311.29
823.618	290.81
823.796	272.38
823.974	247.8
824.152	294.91
824.329	235.52
824.507	239.61
824.685	256
824.863	264.19
825.04	260.09
825.218	303.1
825.396	303.1
825.574	231.42
825.751	268.28
825.929	311.29
826.107	212.99
826.284	159.74
826.462	212.99
826.639	253.95
826.817	282.62
826.994	305.15
827.172	221.18
827.349	241.66
827.527	184.32
827.704	231.42
827.882	346.11
828.059	237.56
828.237	190.46
828.414	270.33
828.591	161.79
828.769	301.05
828.946	278.52
829.124	288.76
829.301	313.34
829.478	260.09
829.655	256
829.833	239.61
830.01	139.26
830.187	215.04
830.364	198.65
830.542	206.84
830.719	247.8
830.896	313.34
831.073	178.17
831.25	231.42
831.427	276.48
831.604	221.18
831.782	229.37
831.959	141.31
832.136	202.75
832.313	202.75
832.49	116.73
832.667	219.13
832.844	116.73
833.021	198.65
833.198	223.23
833.374	151.55
833.551	124.93
833.728	198.65
833.905	114.69
834.082	182.27
834.259	190.46
834.436	221.18
834.612	243.71
834.789	112.64
834.966	112.64
835.143	204.8
835.319	169.98
835.496	149.5
835.673	149.5
835.85	233.47
836.026	163.84
836.203	186.37
836.38	180.22
836.556	235.52
836.733	206.84
836.909	233.47
837.086	178.17
837.262	145.41
837.439	172.03
837.616	184.32
837.792	129.02
837.968	204.8
838.145	145.41
838.321	157.69
838.498	188.41
838.674	143.36
838.851	182.27
839.027	86.01
839.203	104.45
839.38	139.26
839.556	167.93
839.732	206.84
839.909	186.37
840.085	210.94
840.261	55.3
840.437	116.73
840.614	169.98
840.79	137.21
840.966	215.04
841.142	124.93
841.318	75.77
841.494	215.04
841.671	120.83
841.847	112.64
842.023	178.17
842.199	131.07
842.375	104.45
842.551	88.06
842.727	94.21
842.903	186.37
843.079	81.92
843.255	194.56
843.431	163.84
843.607	200.7
843.783	57.34
843.959	133.12
844.134	67.58
844.31	100.35
844.486	40.96
844.662	24.58
844.838	122.88
845.013	83.97
845.189	124.93
845.365	155.65
845.541	96.25
845.716	108.54
845.892	145.41
846.068	43.01
846.244	67.58
846.419	188.41
846.595	114.69
846.77	100.35
846.946	194.56
847.122	65.54
847.297	124.93
847.473	102.4
847.648	53.25
847.824	110.59
847.999	108.54
848.175	100.35
848.35	124.93
848.526	133.12
848.701	59.39
848.876	77.82
849.052	172.03
849.227	61.44
849.403	108.54
849.578	63.49
849.753	81.92
849.929	188.41
850.104	61.44
850.279	81.92
850.454	108.54
850.63	172.03
850.805	141.31
850.98	100.35
851.155	110.59
851.33	147.45
851.505	53.25
851.681	174.08
851.856	59.39
852.031	116.73
852.206	143.36
852.381	-4.1
852.556	75.77
852.731	43.01
852.906	145.41
853.081	71.68
853.256	112.64
853.431	104.45
853.606	18.43
853.781	16.38
853.956	24.58
854.131	49.15
854.305	34.82
854.48	77.82
854.655	90.11
854.83	34.82
855.005	45.06
855.18	18.43
855.354	34.82
855.529	51.2
855.704	6.14
855.879	49.15
856.053	40.96
856.228	75.77
856.403	-4.1
856.577	18.43
856.752	-18.43
856.926	116.73
857.101	14.34
857.276	0
857.45	102.4
857.625	34.82
857.799	83.97
857.974	-10.24
858.148	71.68
858.323	51.2
858.497	63.49
858.672	71.68
858.846	57.34
859.02	59.39
859.195	106.49
859.369	75.77
859.543	57.34
859.718	55.3
859.892	98.3
860.066	32.77
860.241	112.64
860.415	102.4
860.589	26.62
860.763	63.49
860.938	4.1
861.112	61.44
861.286	36.86
861.46	4.1
861.634	26.62
861.808	24.58
861.982	43.01
862.157	-10.24
862.331	73.73
862.505	34.82
862.679	24.58
862.853	8.19
863.027	38.91
863.201	83.97
863.375	-8.19
863.549	8.19
863.722	69.63
863.896	124.93
864.07	4.1
864.244	116.73
864.418	75.77
864.592	75.77
864.766	22.53
864.939	18.43
865.113	28.67
865.287	116.73
865.461	-2.05
865.634	63.49
865.808	32.77
865.982	34.82
866.156	-43.01
866.329	-8.19
866.503	38.91
866.676	16.38
866.85	49.15
867.024	40.96
867.197	45.06
867.371	63.49
867.544	22.53
867.718	10.24
867.891	65.54
868.065	-8.19
868.238	77.82
868.412	79.87
868.585	-2.05
868.759	10.24
868.932	-18.43
869.105	-22.53
869.279	-20.48
869.452	-53.25
869.625	6.14
869.799	8.19
869.972	-36.86
870.145	10.24
870.319	81.92
870.492	-32.77
870.665	47.1
870.838	-6.14
871.011	6.14
871.185	-12.29
871.358	61.44
871.531	38.91
871.704	-49.15
871.877	43.01
872.05	8.19
872.223	-122.88
872.396	49.15
872.569	81.92
872.742	-14.34
872.915	16.38
873.088	-28.67
873.261	-57.34
873.434	75.77
873.607	73.73
873.78	10.24
873.953	10.24
874.126	-22.53
874.299	110.59
874.471	-40.96
874.644	14.34
874.817	-8.19
874.99	55.3
875.163	-12.29
875.335	16.38
875.508	34.82
875.681	110.59
875.853	-22.53
876.026	22.53
876.199	34.82
876.371	20.48
876.544	8.19
876.717	14.34
876.889	-10.24
877.062	71.68
877.234	-71.68
877.407	10.24
877.579	2.05
877.752	14.34
877.924	75.77
878.097	14.34
878.269	10.24
878.442	45.06
878.614	-6.14
878.786	45.06
878.959	-55.3
879.131	73.73
879.303	-30.72
879.476	34.82
879.648	53.25
879.82	24.58
879.993	-8.19
880.165	-2.05
880.337	-26.62
880.509	114.69
880.681	-49.15
880.854	-65.53
881.026	75.77
881.198	-36.86
881.37	-38.91
881.542	43.01
881.714	-12.29
881.886	-18.43
882.058	-32.77
882.23	2.05
882.402	-59.39
882.574	26.62
882.746	30.72
882.918	59.39
883.09	86.01
883.262	2.05
883.434	-63.49
883.606	-30.72
883.778	53.25
883.95	83.97
884.122	-8.19
884.293	-30.72
884.465	-34.82
884.637	61.44
884.809	34.82
884.98	16.38
885.152	10.24
885.324	28.67
885.496	0
885.667	-22.53
885.839	81.92
886.011	12.29
886.182	-32.77
886.354	59.39
886.525	73.73
886.697	-59.39
886.869	6.14
887.04	-12.29
887.212	26.62
887.383	116.73
887.555	-14.34
887.726	32.77
887.897	-34.82
888.069	30.72
888.24	26.62
888.412	16.38
888.583	-38.91
888.754	-2.05
888.926	-28.67
889.097	-2.05
889.268	-155.65
889.44	-45.06
889.611	-45.06
889.782	26.62
889.953	73.73
890.125	8.19
890.296	-49.15
890.467	34.82
890.638	-16.38
890.809	79.87
890.98	-40.96
891.151	-22.53
891.323	55.3
891.494	-6.14
891.665	-14.34
891.836	-34.82
892.007	2.05
892.178	14.34
892.349	75.77
892.52	16.38
892.691	-6.14
892.862	4.1
893.032	-47.1
893.203	-4.1
893.374	-6.14
893.545	49.15
893.716	-2.05
893.887	-34.82
894.057	18.43
894.228	10.24
894.399	-40.96
894.57	-4.1
894.74	-30.72
894.911	4.1
895.082	-20.48
895.253	-90.11
895.423	-14.34
895.594	16.38
895.764	67.58
895.935	22.53
896.106	-32.77
896.276	79.87
896.447	-30.72
896.617	-28.67
896.788	-2.05
896.958	-4.1
897.129	30.72
897.299	6.14
897.47	88.06
897.64	53.25
897.81	-26.62
897.981	-26.62
898.151	-10.24
898.322	57.34
898.492	-49.15
898.662	32.77
898.832	10.24
899.003	26.62
899.173	-4.1
899.343	-4.1
899.513	-30.72
