Data from USB4F104151__4__11-29-30-669.txt Node

Date: Fri Mar 14 11:29:30 EDT 2025
User: louis
Spectrometer: USB4F10415
Trigger mode: 4
Integration Time (sec): 5.000000E-2
Scans to average: 1
Electric dark correction enabled: true
Nonlinearity correction enabled: false
Boxcar width: 0
XAxis mode: Wavelengths
Number of Pixels in Spectrum: 3648
>>>>>Begin Spectral Data<<<<<
178.204	-128
178.424	-128
178.644	-128
178.864	-189.44
179.084	-140.29
179.304	-7.17
179.524	-41.98
179.744	15.36
179.964	13.31
180.184	31.74
180.404	39.94
180.624	7.17
180.844	-35.84
181.064	-54.27
181.283	33.79
181.503	-58.37
181.723	56.32
181.943	-29.7
182.163	89.09
182.383	70.65
182.602	50.18
182.822	41.98
183.042	19.46
183.262	44.03
183.482	105.47
183.701	-13.31
183.921	52.22
184.141	58.37
184.361	37.89
184.58	27.65
184.8	-48.13
185.02	-15.36
185.239	17.41
185.459	1.02
185.679	27.65
185.898	-21.5
186.118	130.05
186.338	93.18
186.557	52.22
186.777	-5.12
186.997	35.84
187.216	-31.74
187.436	58.37
187.655	-13.31
187.875	84.99
188.095	50.18
188.314	99.33
188.534	89.09
188.753	-5.12
188.973	109.57
189.192	41.98
189.412	17.41
189.631	9.22
189.851	72.7
190.07	80.89
190.29	11.26
190.509	-29.7
190.729	15.36
190.948	-3.07
191.168	232.44
191.387	99.33
191.607	44.03
191.826	93.18
192.045	23.55
192.265	-29.7
192.484	35.84
192.704	35.84
192.923	-5.12
193.142	64.51
193.362	58.37
193.581	72.7
193.8	74.75
194.02	3.07
194.239	48.13
194.458	74.75
194.678	33.79
194.897	35.84
195.116	23.55
195.335	68.61
195.555	-25.6
195.774	115.71
195.993	44.03
196.212	27.65
196.432	132.09
196.651	-35.84
196.87	-31.74
197.089	166.91
197.308	52.22
197.528	27.65
197.747	-50.18
197.966	72.7
198.185	107.52
198.404	27.65
198.623	87.04
198.842	99.33
199.062	52.22
199.281	19.46
199.5	-39.94
199.719	9.22
199.938	-1.02
200.157	84.99
200.376	19.46
200.595	113.66
200.814	15.36
201.033	17.41
201.252	191.49
201.471	7.17
201.69	91.13
201.909	39.94
202.128	66.56
202.347	-25.6
202.566	23.55
202.785	-25.6
203.004	74.75
203.223	72.7
203.442	52.22
203.661	23.55
203.879	1.02
204.098	117.76
204.317	-7.17
204.536	101.37
204.755	52.22
204.974	70.65
205.193	19.46
205.411	113.66
205.63	17.41
205.849	41.98
206.068	84.99
206.287	48.13
206.505	76.8
206.724	80.89
206.943	76.8
207.162	1.02
207.381	19.46
207.599	1.02
207.818	105.47
208.037	76.8
208.255	19.46
208.474	113.66
208.693	50.18
208.911	125.95
209.13	70.65
209.349	23.55
209.567	82.94
209.786	68.61
210.005	17.41
210.223	27.65
210.442	39.94
210.661	46.08
210.879	31.74
211.098	84.99
211.316	48.13
211.535	164.86
211.753	72.7
211.972	9.22
212.191	-7.17
212.409	52.22
212.628	68.61
212.846	44.03
213.065	109.57
213.283	117.76
213.502	27.65
213.72	58.37
213.938	1.02
214.157	60.42
214.375	80.89
214.594	17.41
214.812	70.65
215.031	48.13
215.249	66.56
215.467	11.26
215.686	23.55
215.904	52.22
216.122	52.22
216.341	62.46
216.559	13.31
216.778	119.81
216.996	3.07
217.214	35.84
217.432	17.41
217.651	84.99
217.869	93.18
218.087	-13.31
218.306	80.89
218.524	72.7
218.742	66.56
218.96	101.37
219.179	-1.02
219.397	66.56
219.615	125.95
219.833	39.94
220.051	-46.08
220.27	35.84
220.488	23.55
220.706	107.52
220.924	31.74
221.142	35.84
221.36	93.18
221.578	91.13
221.796	48.13
222.015	-9.22
222.233	-5.12
222.451	99.33
222.669	-9.22
222.887	48.13
223.105	-15.36
223.323	50.18
223.541	1.02
223.759	60.42
223.977	76.8
224.195	89.09
224.413	109.57
224.631	35.84
224.849	52.22
225.067	105.47
225.285	52.22
225.503	54.27
225.721	-33.79
225.939	3.07
226.157	105.47
226.375	166.91
226.592	93.18
226.81	37.89
227.028	68.61
227.246	84.99
227.464	-29.7
227.682	46.08
227.9	84.99
228.117	52.22
228.335	115.71
228.553	44.03
228.771	-9.22
228.989	-5.12
229.206	15.36
229.424	1.02
229.642	31.74
229.86	60.42
230.077	101.37
230.295	87.04
230.513	117.76
230.731	179.2
230.948	97.28
231.166	84.99
231.384	25.6
231.601	-13.31
231.819	101.37
232.037	11.26
232.254	19.46
232.472	44.03
232.689	-1.02
232.907	64.51
233.125	27.65
233.342	78.85
233.56	25.6
233.777	35.84
233.995	-13.31
234.213	82.94
234.43	128
234.648	-1.02
234.865	76.8
235.083	15.36
235.3	39.94
235.518	138.24
235.735	101.37
235.953	66.56
236.17	27.65
236.388	78.85
236.605	21.5
236.822	89.09
237.04	130.05
237.257	3.07
237.475	25.6
237.692	17.41
237.909	64.51
238.127	50.18
238.344	5.12
238.562	-9.22
238.779	7.17
238.996	-54.27
239.214	3.07
239.431	37.89
239.648	-7.17
239.865	89.09
240.083	89.09
240.3	44.03
240.517	15.36
240.735	76.8
240.952	54.27
241.169	82.94
241.386	11.26
241.603	25.6
241.821	15.36
242.038	105.47
242.255	23.55
242.472	84.99
242.689	44.03
242.907	121.85
243.124	3.07
243.341	9.22
243.558	11.26
243.775	68.61
243.992	-11.26
244.209	35.84
244.426	138.24
244.643	48.13
244.86	17.41
245.078	60.42
245.295	76.8
245.512	99.33
245.729	60.42
245.946	87.04
246.163	35.84
246.38	37.89
246.597	7.17
246.814	50.18
247.031	48.13
247.248	64.51
247.464	35.84
247.681	7.17
247.898	150.53
248.115	93.18
248.332	-48.13
248.549	11.26
248.766	60.42
248.983	82.94
249.2	17.41
249.417	72.7
249.633	50.18
249.85	68.61
250.067	23.55
250.284	84.99
250.501	7.17
250.717	78.85
250.934	7.17
251.151	41.98
251.368	-17.41
251.585	101.37
251.801	82.94
252.018	72.7
252.235	41.98
252.451	68.61
252.668	121.85
252.885	89.09
253.102	74.75
253.318	58.37
253.535	44.03
253.752	35.84
253.968	9.22
254.185	41.98
254.401	107.52
254.618	39.94
254.835	11.26
255.051	99.33
255.268	37.89
255.484	31.74
255.701	48.13
255.917	109.57
256.134	39.94
256.351	-5.12
256.567	60.42
256.784	89.09
257	52.22
257.217	35.84
257.433	84.99
257.65	60.42
257.866	125.95
258.082	19.46
258.299	76.8
258.515	35.84
258.732	23.55
258.948	17.41
259.165	105.47
259.381	31.74
259.597	60.42
259.814	44.03
260.03	41.98
260.246	39.94
260.463	41.98
260.679	115.71
260.895	39.94
261.112	31.74
261.328	41.98
261.544	21.5
261.761	60.42
261.977	48.13
262.193	29.7
262.409	140.29
262.626	62.46
262.842	-1.02
263.058	-21.5
263.274	99.33
263.49	44.03
263.707	48.13
263.923	-29.7
264.139	35.84
264.355	23.55
264.571	101.37
264.787	56.32
265.004	89.09
265.22	95.23
265.436	-3.07
265.652	-58.37
265.868	68.61
266.084	9.22
266.3	76.8
266.516	37.89
266.732	19.46
266.948	74.75
267.164	1.02
267.38	72.7
267.596	80.89
267.812	101.37
268.028	37.89
268.244	52.22
268.46	56.32
268.676	76.8
268.892	35.84
269.108	-1.02
269.324	17.41
269.54	35.84
269.756	66.56
269.972	-3.07
270.188	60.42
270.403	39.94
270.619	107.52
270.835	72.7
271.051	87.04
271.267	31.74
271.483	27.65
271.698	-17.41
271.914	76.8
272.13	5.12
272.346	66.56
272.562	-25.6
272.777	78.85
272.993	35.84
273.209	48.13
273.425	9.22
273.64	15.36
273.856	62.46
274.072	-15.36
274.287	84.99
274.503	72.7
274.719	27.65
274.934	44.03
275.15	46.08
275.366	44.03
275.581	17.41
275.797	27.65
276.012	95.23
276.228	60.42
276.444	68.61
276.659	105.47
276.875	60.42
277.09	54.27
277.306	-31.74
277.521	101.37
277.737	25.6
277.952	44.03
278.168	39.94
278.383	68.61
278.599	37.89
278.814	-1.02
279.03	17.41
279.245	68.61
279.461	-17.41
279.676	50.18
279.892	1.02
280.107	3.07
280.322	3.07
280.538	76.8
280.753	60.42
280.969	101.37
281.184	9.22
281.399	74.75
281.615	58.37
281.83	1.02
282.045	58.37
282.26	17.41
282.476	82.94
282.691	93.18
282.906	78.85
283.122	52.22
283.337	11.26
283.552	125.95
283.767	44.03
283.983	140.29
284.198	27.65
284.413	62.46
284.628	27.65
284.843	113.66
285.058	52.22
285.274	25.6
285.489	3.07
285.704	19.46
285.919	44.03
286.134	31.74
286.349	25.6
286.564	97.28
286.779	56.32
286.995	130.05
287.21	11.26
287.425	89.09
287.64	9.22
287.855	76.8
288.07	19.46
288.285	78.85
288.5	41.98
288.715	35.84
288.93	19.46
289.145	19.46
289.36	15.36
289.575	52.22
289.79	74.75
290.004	60.42
290.219	111.61
290.434	13.31
290.649	-13.31
290.864	121.85
291.079	-13.31
291.294	3.07
291.509	-13.31
291.724	-25.6
291.938	15.36
292.153	54.27
292.368	44.03
292.583	56.32
292.798	97.28
293.012	29.7
293.227	52.22
293.442	-11.26
293.657	103.42
293.871	64.51
294.086	84.99
294.301	93.18
294.516	44.03
294.73	-31.74
294.945	74.75
295.16	80.89
295.374	150.53
295.589	89.09
295.804	44.03
296.018	48.13
296.233	140.29
296.447	29.7
296.662	23.55
296.877	9.22
297.091	52.22
297.306	76.8
297.52	70.65
297.735	64.51
297.949	72.7
298.164	11.26
298.378	31.74
298.593	56.32
298.807	11.26
299.022	68.61
299.236	76.8
299.451	50.18
299.665	89.09
299.88	66.56
300.094	150.53
300.309	-13.31
300.523	44.03
300.737	64.51
300.952	95.23
301.166	68.61
301.381	-5.12
301.595	-5.12
301.809	91.13
302.024	13.31
302.238	60.42
302.452	130.05
302.667	27.65
302.881	74.75
303.095	142.33
303.309	76.8
303.524	80.89
303.738	11.26
303.952	84.99
304.166	52.22
304.381	-33.79
304.595	101.37
304.809	66.56
305.023	11.26
305.237	39.94
305.452	17.41
305.666	58.37
305.88	11.26
306.094	72.7
306.308	56.32
306.522	125.95
306.736	76.8
306.95	50.18
307.164	156.67
307.379	33.79
307.593	76.8
307.807	41.98
308.021	64.51
308.235	-31.74
308.449	-13.31
308.663	58.37
308.877	117.76
309.091	41.98
309.305	107.52
309.519	-46.08
309.733	-41.98
309.947	19.46
310.161	15.36
310.374	103.42
310.588	101.37
310.802	-48.13
311.016	-19.46
311.23	76.8
311.444	-1.02
311.658	76.8
311.872	54.27
312.085	134.14
312.299	48.13
312.513	101.37
312.727	93.18
312.941	23.55
313.154	5.12
313.368	13.31
313.582	115.71
313.796	76.8
314.009	-13.31
314.223	125.95
314.437	48.13
314.651	109.57
314.864	52.22
315.078	27.65
315.292	-11.26
315.505	74.75
315.719	1.02
315.933	78.85
316.146	-21.5
316.36	19.46
316.573	105.47
316.787	62.46
317.001	70.65
317.214	64.51
317.428	9.22
317.641	11.26
317.855	84.99
318.068	46.08
318.282	50.18
318.495	93.18
318.709	25.6
318.922	35.84
319.136	50.18
319.349	52.22
319.563	23.55
319.776	-21.5
319.99	-19.46
320.203	60.42
320.417	35.84
320.63	25.6
320.843	105.47
321.057	107.52
321.27	66.56
321.483	113.66
321.697	89.09
321.91	58.37
322.124	89.09
322.337	44.03
322.55	50.18
322.763	-21.5
322.977	17.41
323.19	35.84
323.403	60.42
323.617	60.42
323.83	97.28
324.043	80.89
324.256	115.71
324.469	35.84
324.683	68.61
324.896	17.41
325.109	60.42
325.322	-27.65
325.535	103.42
325.748	60.42
325.962	84.99
326.175	-17.41
326.388	89.09
326.601	64.51
326.814	91.13
327.027	3.07
327.24	68.61
327.453	-29.7
327.666	56.32
327.879	9.22
328.092	52.22
328.305	93.18
328.518	-7.17
328.731	68.61
328.944	62.46
329.157	44.03
329.37	72.7
329.583	107.52
329.796	91.13
330.009	19.46
330.222	37.89
330.435	134.14
330.648	97.28
330.861	76.8
331.073	84.99
331.286	19.46
331.499	138.24
331.712	-1.02
331.925	52.22
332.138	109.57
332.35	44.03
332.563	66.56
332.776	44.03
332.989	107.52
333.202	70.65
333.414	60.42
333.627	17.41
333.84	-46.08
334.053	33.79
334.265	11.26
334.478	-11.26
334.691	-5.12
334.903	17.41
335.116	15.36
335.329	99.33
335.541	58.37
335.754	125.95
335.966	41.98
336.179	17.41
336.392	-19.46
336.604	50.18
336.817	91.13
337.029	58.37
337.242	27.65
337.454	103.42
337.667	58.37
337.88	62.46
338.092	9.22
338.305	93.18
338.517	-17.41
338.729	107.52
338.942	91.13
339.154	31.74
339.367	-44.03
339.579	48.13
339.792	35.84
340.004	9.22
340.217	37.89
340.429	76.8
340.641	80.89
340.854	-7.17
341.066	27.65
341.278	62.46
341.491	84.99
341.703	123.9
341.915	19.46
342.128	78.85
342.34	76.8
342.552	44.03
342.764	107.52
342.977	50.18
343.189	52.22
343.401	58.37
343.613	-54.27
343.826	25.6
344.038	11.26
344.25	121.85
344.462	72.7
344.674	89.09
344.886	109.57
345.099	44.03
345.311	44.03
345.523	52.22
345.735	-13.31
345.947	52.22
346.159	76.8
346.371	91.13
346.583	27.65
346.795	93.18
347.007	80.89
347.219	44.03
347.431	80.89
347.643	74.75
347.855	3.07
348.067	93.18
348.279	35.84
348.491	13.31
348.703	52.22
348.915	-29.7
349.127	-25.6
349.339	13.31
349.551	-17.41
349.763	91.13
349.975	13.31
350.187	91.13
350.399	101.37
350.61	37.89
350.822	27.65
351.034	103.42
351.246	54.27
351.458	17.41
351.669	44.03
351.881	60.42
352.093	21.5
352.305	50.18
352.517	89.09
352.728	11.26
352.94	62.46
353.152	56.32
353.363	27.65
353.575	58.37
353.787	74.75
353.999	89.09
354.21	68.61
354.422	93.18
354.633	142.33
354.845	37.89
355.057	74.75
355.268	101.37
355.48	82.94
355.692	21.5
355.903	-31.74
356.115	50.18
356.326	48.13
356.538	97.28
356.749	41.98
356.961	158.72
357.172	3.07
357.384	68.61
357.595	148.48
357.807	82.94
358.018	48.13
358.23	105.47
358.441	128
358.653	80.89
358.864	70.65
359.075	-15.36
359.287	11.26
359.498	37.89
359.709	121.85
359.921	121.85
360.132	103.42
360.344	84.99
360.555	74.75
360.766	134.14
360.977	52.22
361.189	27.65
361.4	9.22
361.611	84.99
361.823	74.75
362.034	35.84
362.245	72.7
362.456	3.07
362.667	132.09
362.879	-48.13
363.09	64.51
363.301	44.03
363.512	84.99
363.723	44.03
363.935	-54.27
364.146	74.75
364.357	-15.36
364.568	68.61
364.779	-5.12
364.99	91.13
365.201	11.26
365.412	134.14
365.623	1.02
365.834	72.7
366.045	72.7
366.256	84.99
366.467	66.56
366.678	-13.31
366.889	44.03
367.1	-19.46
367.311	140.29
367.522	-5.12
367.733	142.33
367.944	60.42
368.155	25.6
368.366	93.18
368.577	91.13
368.788	48.13
368.999	84.99
369.209	76.8
369.42	93.18
369.631	152.57
369.842	150.53
370.053	68.61
370.264	91.13
370.474	68.61
370.685	109.57
370.896	84.99
371.107	134.14
371.317	99.33
371.528	31.74
371.739	27.65
371.95	84.99
372.16	48.13
372.371	1.02
372.582	87.04
372.792	97.28
373.003	41.98
373.214	82.94
373.424	50.18
373.635	80.89
373.846	56.32
374.056	52.22
374.267	101.37
374.477	58.37
374.688	-33.79
374.898	72.7
375.109	68.61
375.319	31.74
375.53	171.01
375.74	58.37
375.951	109.57
376.161	33.79
376.372	121.85
376.582	-21.5
376.793	74.75
377.003	99.33
377.214	66.56
377.424	74.75
377.635	46.08
377.845	19.46
378.055	125.95
378.266	23.55
378.476	15.36
378.686	60.42
378.897	134.14
379.107	115.71
379.317	91.13
379.528	52.22
379.738	11.26
379.948	-9.22
380.158	68.61
380.369	41.98
380.579	113.66
380.789	3.07
380.999	76.8
381.21	70.65
381.42	189.44
381.63	72.7
381.84	84.99
382.05	82.94
382.261	76.8
382.471	76.8
382.681	27.65
382.891	117.76
383.101	35.84
383.311	5.12
383.521	97.28
383.731	103.42
383.941	146.43
384.151	60.42
384.361	72.7
384.571	58.37
384.781	58.37
384.991	134.14
385.201	93.18
385.411	150.53
385.621	41.98
385.831	21.5
386.041	17.41
386.251	-5.12
386.461	132.09
386.671	33.79
386.881	60.42
387.091	9.22
387.301	152.57
387.511	-5.12
387.72	27.65
387.93	68.61
388.14	19.46
388.35	125.95
388.56	87.04
388.769	89.09
388.979	35.84
389.189	44.03
389.399	66.56
389.609	52.22
389.818	64.51
390.028	70.65
390.238	44.03
390.447	58.37
390.657	166.91
390.867	19.46
391.076	19.46
391.286	5.12
391.496	89.09
391.705	72.7
391.915	117.76
392.125	113.66
392.334	60.42
392.544	68.61
392.753	27.65
392.963	58.37
393.172	84.99
393.382	68.61
393.591	99.33
393.801	93.18
394.01	168.96
394.22	25.6
394.429	109.57
394.639	74.75
394.848	150.53
395.058	29.7
395.267	121.85
395.477	93.18
395.686	91.13
395.895	89.09
396.105	128
396.314	101.37
396.524	113.66
396.733	160.77
396.942	144.38
397.152	101.37
397.361	91.13
397.57	52.22
397.78	148.48
397.989	84.99
398.198	183.29
398.407	109.57
398.617	60.42
398.826	113.66
399.035	171.01
399.244	173.05
399.453	72.7
399.663	87.04
399.872	166.91
400.081	99.33
400.29	140.29
400.499	33.79
400.708	109.57
400.917	101.37
401.127	87.04
401.336	162.81
401.545	154.62
401.754	144.38
401.963	105.47
402.172	103.42
402.381	60.42
402.59	134.14
402.799	109.57
403.008	158.72
403.217	136.19
403.426	150.53
403.635	95.23
403.844	166.91
404.053	179.2
404.262	125.95
404.471	158.72
404.68	158.72
404.888	93.18
405.097	134.14
405.306	183.29
405.515	142.33
405.724	179.2
405.933	166.91
406.142	189.44
406.35	166.91
406.559	164.86
406.768	201.72
406.977	181.25
407.185	179.2
407.394	244.73
407.603	128
407.812	257.02
408.02	279.55
408.229	232.44
408.438	277.5
408.646	222.2
408.855	224.25
409.064	297.98
409.272	250.88
409.481	287.74
409.69	267.26
409.898	236.54
410.107	322.56
410.315	351.23
410.524	283.64
410.733	328.7
410.941	295.93
411.15	318.46
411.358	365.56
411.567	400.38
411.775	353.27
411.984	379.9
412.192	412.67
412.401	416.76
412.609	488.44
412.818	461.82
413.026	486.39
413.234	453.63
413.443	459.77
413.651	484.34
413.86	553.98
414.068	648.18
414.276	576.5
414.485	527.35
414.693	654.33
414.901	584.7
415.11	599.03
415.318	678.9
415.526	717.81
415.734	715.77
415.943	691.19
416.151	691.19
416.359	689.14
416.567	777.2
416.776	822.26
416.984	928.75
417.192	955.38
417.4	982
417.608	920.56
417.817	945.14
418.025	943.09
418.233	1100.78
418.441	965.62
418.649	1031.15
418.857	1197.04
419.065	1174.51
419.273	1133.55
419.481	1336.3
419.689	1281
419.897	1354.73
420.105	1270.76
420.313	1555.43
420.521	1459.18
420.729	1565.67
420.937	1631.21
421.145	1584.1
421.353	1682.41
421.561	1706.98
421.769	1649.64
421.977	1897.44
422.185	1754.09
422.393	1985.51
422.601	2153.44
422.809	2161.63
423.017	2048.99
423.224	2157.54
423.432	2253.79
423.64	2186.21
423.848	2474.97
424.056	2366.43
424.263	2659.29
424.471	2702.29
424.679	2722.77
424.887	2808.79
425.094	2876.37
425.302	2972.63
425.51	2976.72
425.718	3140.56
425.925	3130.32
426.133	3341.26
426.341	3609.54
426.548	3498.95
426.756	3529.67
426.964	3521.48
427.171	3951.56
427.379	4029.38
427.586	4033.47
427.794	4074.43
428.001	4352.96
428.209	4504.51
428.417	4340.67
428.624	4721.59
428.832	4828.09
429.039	4897.72
429.247	4744.12
429.454	5155.76
429.662	5456.81
429.869	5129.14
430.076	5585.83
430.284	5399.47
430.491	5751.72
430.699	5921.7
430.906	5868.45
431.114	6024.1
431.321	6427.55
431.528	6392.73
431.736	6744.99
431.943	6929.3
432.15	6837.14
432.358	6790.04
432.565	7381.9
432.772	7275.41
432.979	7889.8
433.187	7660.43
433.394	7768.97
433.601	8330.11
433.808	8405.89
434.016	8252.29
434.223	8772.47
434.43	9347.95
434.637	9012.09
434.844	9657.2
435.052	9888.62
435.259	10017.64
435.466	9700.2
435.673	9669.48
435.88	10503.01
436.087	10814.3
436.294	10863.45
436.501	10634.08
436.708	11023.19
436.915	11242.32
437.122	11782.99
437.329	11539.28
437.537	12223.3
437.743	12159.81
437.95	12268.36
438.157	12813.12
438.364	13296.44
438.571	13259.57
438.778	13497.14
438.985	14605.09
439.192	14029.61
439.399	14570.27
439.606	14031.66
439.813	15092.51
440.02	16147.21
440.227	15676.18
440.433	15362.84
440.64	15948.56
440.847	16059.15
441.054	16179.98
441.261	17580.79
441.467	17275.64
441.674	17576.69
441.881	18123.5
442.088	17984.24
442.294	17842.93
442.501	18191.08
442.708	18834.14
442.914	19327.71
443.121	20314.83
443.328	19661.52
443.534	21177.02
443.741	20742.85
443.948	20294.35
444.154	21858.99
444.361	21703.35
444.568	21988.02
444.774	22031.02
444.981	22174.38
445.187	22776.48
445.394	23808.66
445.6	23356.06
445.807	25748.09
446.013	24263.31
446.22	25078.4
446.426	26026.61
446.633	26014.32
446.839	27017.83
447.046	26038.9
447.252	27292.26
447.459	27294.3
447.665	27353.69
447.871	28715.59
448.078	30018.1
448.284	28346.96
448.491	29334.08
448.697	30431.79
448.903	30964.26
449.11	30716.46
449.316	30300.72
449.522	30526
449.728	31715.87
449.935	32039.45
450.141	31529.5
450.347	32655.89
450.553	31388.19
450.76	31601.18
450.966	32889.35
451.172	32397.84
451.378	33337.86
451.584	32383.51
451.791	33688.06
451.997	33165.83
452.203	33751.55
452.409	33483.27
452.615	33673.73
452.821	32219.67
453.027	31918.62
453.233	33825.28
453.44	32848.39
453.646	32625.17
453.852	32674.32
454.058	33079.82
454.264	31810.07
454.47	32789
454.676	31654.43
454.882	33108.49
455.088	30423.6
455.294	30911.02
455.5	31277.6
455.705	31314.47
455.911	29966.9
456.117	29301.31
456.323	28838.47
456.529	27656.79
456.735	28385.87
456.941	27560.54
457.147	27349.6
457.352	26600.04
457.558	26120.82
457.764	26253.94
457.97	25479.8
458.176	25123.46
458.381	24945.28
458.587	23792.28
458.793	23931.54
458.999	22710.95
459.204	24380.04
459.41	23657.11
459.616	21981.87
459.821	22037.17
460.027	21951.15
460.233	21310.14
460.438	20200.14
460.644	20591.3
460.85	19512.02
461.055	19206.87
461.261	19428.06
461.466	17974
461.672	17541.88
461.878	18649.83
462.083	17298.17
462.289	17124.09
462.494	16775.94
462.7	16190.22
462.905	15579.92
463.111	16370.44
463.316	16173.83
463.522	15938.32
463.727	15934.22
463.932	16091.91
464.138	15655.7
464.343	15760.14
464.549	15121.18
464.754	15799.05
464.959	15702.8
465.165	15702.8
465.37	15123.23
465.575	14605.09
465.781	15340.31
465.986	15307.54
466.191	14631.71
466.397	14369.57
466.602	13628.21
466.807	14365.48
467.012	14140.2
467.218	14002.99
467.423	14000.94
467.628	14031.66
467.833	14646.05
468.038	14064.43
468.244	13773.61
468.449	14205.74
468.654	13695.79
468.859	13781.81
469.064	13722.41
469.269	12925.75
469.474	13310.77
469.679	13691.7
469.885	12970.81
470.09	13165.37
470.295	13122.36
470.5	12593.98
470.705	12884.8
470.91	12401.47
471.115	12323.65
471.32	12811.07
471.525	12811.07
471.73	12397.38
471.935	12184.39
472.139	11735.88
472.344	11924.3
472.549	11737.93
472.754	11965.26
472.959	11447.12
473.164	11205.46
473.369	11199.32
473.574	11559.76
473.778	11148.12
473.983	11260.76
474.188	11150.17
474.393	10582.88
474.598	10707.8
474.802	10519.39
475.007	10488.67
475.212	10611.55
475.417	9925.48
475.621	10117.99
475.826	10287.97
476.031	10066.79
476.235	9894.76
476.44	9771.88
476.645	9939.82
476.849	9769.83
477.054	9507.69
477.259	9474.93
477.463	9591.66
477.668	9366.39
477.872	9562.99
478.077	9468.78
478.282	9005.94
478.486	9028.47
478.691	8887.16
478.895	8801.15
479.1	8715.13
479.304	8764.28
479.509	8317.83
479.713	8723.32
479.918	8573.82
480.122	8309.63
480.326	8727.42
480.531	8483.71
480.735	8502.14
480.94	8432.51
481.144	8508.29
481.348	8135.56
481.553	8358.78
481.757	8063.88
481.961	8289.15
482.166	8223.62
482.37	8219.52
482.574	8201.09
482.778	8184.71
482.983	8162.18
483.187	8409.98
483.391	8377.22
483.595	8178.56
483.8	8172.42
484.004	8260.48
484.208	8151.94
484.412	8299.39
484.616	8129.41
484.821	8061.83
485.025	7965.57
485.229	8174.47
485.433	8336.26
485.637	8211.33
485.841	8094.6
486.045	8170.37
486.249	8301.44
486.453	7908.23
486.657	8096.64
486.861	8272.77
487.065	8074.12
487.269	8143.75
487.473	8113.03
487.677	8153.99
487.881	8424.32
488.085	8080.26
488.289	8268.67
488.493	8237.95
488.697	8233.86
488.901	8162.18
489.105	8106.88
489.309	8149.89
489.512	8084.36
489.716	8338.3
489.92	8350.59
490.124	8178.56
490.328	8381.31
490.531	8227.71
490.735	8260.48
490.939	8346.5
491.143	8309.63
491.346	8334.21
491.55	8725.37
491.754	8520.57
491.958	8481.66
492.161	8618.88
492.365	8700.8
492.569	8506.24
492.772	8504.19
492.976	8694.65
493.18	8813.43
493.383	8743.8
493.587	8768.38
493.79	9022.33
493.994	8862.58
494.197	8938.36
494.401	9139.06
494.605	8913.78
494.808	9038.71
495.012	9182.07
495.215	9188.21
495.419	9227.12
495.622	9663.34
495.825	9300.85
496.029	9333.62
496.232	9702.25
496.436	9603.95
496.639	9788.27
496.843	9864.04
497.046	10066.79
497.249	10226.53
497.453	10414.95
497.656	10480.48
497.859	10505.06
498.063	10464.1
498.266	10773.34
498.469	10460
498.673	10552.16
498.876	10607.45
499.079	11129.69
499.282	11019.1
499.485	11262.8
499.689	11068.25
499.892	11535.18
500.095	11375.44
500.298	11920.2
500.501	11604.81
500.705	12061.51
500.908	12096.33
501.111	12059.46
501.314	12184.39
501.517	12428.1
501.72	12583.74
501.923	12501.83
502.126	12907.32
502.329	13003.58
502.532	13134.65
502.735	13222.71
502.938	13361.97
503.141	13581.1
503.344	13857.58
503.547	13716.27
503.75	13896.49
503.953	14043.95
504.156	14361.38
504.359	14334.76
504.562	14476.07
504.765	14920.48
504.968	14813.98
505.17	15119.13
505.373	14992.16
505.576	15612.69
505.779	15602.45
505.982	15682.32
506.185	16069.39
506.387	16085.77
506.59	16247.56
506.793	16558.85
506.996	16343.81
507.198	17156.86
507.401	16675.59
507.604	16972.54
507.807	17371.89
508.009	17124.09
508.212	17324.79
508.415	17736.43
508.617	18031.34
508.82	18156.27
509.022	18197.23
509.225	18399.98
509.428	18465.51
509.63	18569.96
509.833	18819.81
510.035	19147.48
510.238	19014.37
510.44	19436.25
510.643	19706.58
510.845	19682
511.048	19704.53
511.25	20239.05
511.453	20099.79
511.655	20873.92
511.858	20681.41
512.06	20779.71
512.262	21217.98
512.465	21168.83
512.667	21672.63
512.87	21840.56
513.072	21949.11
513.274	22383.27
513.477	22594.22
513.679	22440.62
513.881	22715.05
514.084	23081.63
514.286	22932.13
514.488	23302.81
514.69	24097.42
514.893	23743.13
515.095	24044.18
515.297	24341.13
515.499	24504.97
515.701	24578.7
515.904	24906.37
516.106	24965.76
516.308	25252.48
516.51	25819.77
516.712	25406.08
516.914	26104.43
517.116	26307.18
517.318	26485.36
517.52	26540.65
517.722	26630.76
517.925	26913.38
518.127	27478.62
518.329	27667.03
518.531	27345.5
518.733	28136.02
518.935	28623.44
519.136	28480.08
519.338	28482.13
519.54	29045.32
519.742	29020.74
519.944	29405.76
520.146	29962.81
520.348	29981.24
520.55	30278.19
520.752	30403.12
520.954	30906.92
521.155	30622.25
521.357	31183.4
521.559	31375.91
521.761	31693.34
521.963	31752.73
522.164	31932.95
522.366	32401.94
522.568	32643.6
522.77	32743.95
522.971	33219.08
523.173	33106.44
523.375	33581.57
523.576	33661.44
523.778	33772.03
523.98	34107.9
524.181	34488.82
524.383	34646.51
524.584	35027.43
524.786	34933.23
524.988	34769.39
525.189	35477.99
525.391	35738.08
525.592	35723.74
525.794	36356.57
525.995	35920.35
526.197	36340.18
526.398	36205.02
526.6	36786.64
526.801	36958.67
527.003	37388.74
527.204	37272.01
527.406	37618.11
527.607	37808.58
527.808	37851.58
528.01	37380.55
528.211	37939.65
528.412	38769.07
528.614	38384.05
528.815	38412.73
529.016	38941.1
529.218	38369.72
529.419	38881.71
529.62	39068.08
529.822	38832.56
530.023	39313.83
530.224	39588.26
530.425	39485.86
530.626	39170.47
530.828	39072.17
531.029	39950.75
531.23	39668.13
531.431	39842.21
531.632	40147.36
531.833	40165.79
532.035	40397.21
532.236	40292.76
532.437	40823.19
532.638	40180.12
532.839	40544.66
533.04	40796.56
533.241	40327.58
533.442	41179.53
533.643	40595.86
533.844	40470.93
534.045	41091.47
534.246	40624.53
534.447	41058.7
534.648	40939.92
534.849	40995.21
535.05	40460.69
535.251	41058.7
535.451	41001.36
535.652	41359.75
535.853	40980.88
536.054	41128.33
536.255	41283.98
536.456	40878.48
536.657	41857.41
536.857	41118.09
537.058	40886.67
537.259	41431.43
537.46	41251.21
537.66	41148.81
537.861	41456.01
538.062	41480.58
538.263	41687.43
538.463	41251.21
538.664	41103.76
538.865	41400.71
539.065	41537.93
539.266	41163.15
539.466	41603.46
539.667	40970.64
539.868	42004.86
540.068	41351.56
540.269	41511.3
540.469	41652.61
540.67	41359.75
540.87	40933.78
541.071	41183.63
541.271	41574.79
541.472	41120.14
541.672	41326.99
541.873	41017.74
542.073	41050.51
542.274	41777.54
542.474	41245.07
542.675	40890.77
542.875	41773.44
543.075	41513.35
543.276	40493.46
543.476	41650.56
543.676	40989.07
543.877	41466.25
544.077	40835.47
544.277	41437.58
544.478	41081.23
544.678	41419.14
544.878	40880.53
545.078	41169.29
545.279	41214.35
545.479	41056.65
545.679	41496.97
545.879	41369.99
546.079	41224.59
546.28	41292.17
546.48	41015.69
546.68	41124.24
546.88	41402.76
547.08	41187.72
547.28	41044.37
547.48	40661.4
547.68	40907.15
547.88	40935.82
548.081	41296.27
548.281	41042.32
548.481	41271.69
548.681	41519.49
548.881	41456.01
549.081	41114
549.28	40771.99
549.48	40862.1
549.68	41013.65
549.88	41447.82
550.08	40808.85
550.28	41157
550.48	41013.65
550.68	41349.51
550.88	40964.49
551.08	41015.69
551.279	40841.62
551.479	40632.72
551.679	40894.86
551.879	40960.4
552.079	41005.45
552.278	40685.97
552.478	40849.81
552.678	40923.54
552.878	41390.47
553.077	40923.54
553.277	40329.62
553.477	40944.02
553.676	40833.42
553.876	40878.48
554.076	40401.3
554.275	40849.81
554.475	40290.71
554.674	40941.97
554.874	40626.58
555.074	40235.42
555.273	40401.3
555.473	40657.3
555.672	40167.84
555.872	40288.67
556.071	40145.31
556.271	40251.8
556.47	39784.86
556.67	39709.09
556.869	39649.7
557.068	39799.2
557.268	39979.42
557.467	39821.73
557.667	39358.89
557.866	39631.27
558.065	39606.69
558.265	39680.42
558.464	39037.36
558.663	39381.42
558.863	39219.63
559.062	39555.49
559.261	39096.75
559.461	39322.02
559.66	38564.28
559.859	38967.73
560.058	38664.63
560.258	38416.82
560.457	38359.48
560.656	38810.03
560.855	38537.65
561.054	38625.71
561.253	38148.54
561.453	38138.3
561.652	38136.25
561.851	38130.11
562.05	37884.35
562.249	37767.62
562.448	37904.83
562.647	37753.28
562.846	37685.7
563.045	37523.91
563.244	37009.87
563.443	37601.73
563.642	36932.04
563.841	37138.89
564.04	36930
564.239	37366.21
564.438	36452.82
564.637	36880.85
564.836	36983.24
565.035	36258.26
565.234	36766.16
565.432	36291.03
565.631	36207.06
565.83	36577.75
566.029	36129.24
566.228	35516.9
566.427	35514.85
566.625	35727.84
566.824	35402.21
567.023	35385.83
567.222	35072.49
567.42	35441.12
567.619	35201.51
567.818	34994.67
568.016	35211.75
568.215	35056.11
568.414	34931.18
568.612	34712.05
568.811	34501.11
569.01	34832.88
569.208	33749.5
569.407	34255.35
569.605	33683.97
569.804	34324.98
570.002	33821.18
570.201	33909.24
570.4	33415.68
570.598	33477.12
570.797	33098.25
570.995	33489.41
571.193	33253.89
571.392	33415.68
571.59	32827.92
571.789	32913.93
571.987	33034.76
572.186	32692.75
572.384	32506.38
572.582	32627.21
572.781	32518.67
572.979	32178.71
573.177	31636
573.376	32164.37
573.574	31701.53
573.772	32068.12
573.971	31822.36
574.169	31621.66
574.367	31347.23
574.565	31693.34
574.763	31013.41
574.962	30962.22
575.16	30970.41
575.358	30845.48
575.556	30636.59
575.754	31250.98
575.952	30435.89
576.151	30835.24
576.349	30245.43
576.547	30181.94
576.745	30427.7
576.943	30249.52
577.141	30151.22
577.339	30106.16
577.537	29850.17
577.735	29712.95
577.933	29557.31
578.131	29358.66
578.329	29661.76
578.527	29409.86
578.725	29571.64
578.923	29395.52
579.121	29188.67
579.319	28863.05
579.516	28906.05
579.714	29114.95
579.912	28869.19
580.11	28850.76
580.308	29006.41
580.506	28639.82
580.704	28379.73
580.901	28529.23
581.099	28406.35
581.297	28090.96
581.495	28205.65
581.692	28271.18
581.89	27925.08
582.088	28494.41
582.285	27822.68
582.483	28156.5
582.681	27646.55
582.878	27531.87
583.076	27439.71
583.274	27589.21
583.471	27548.25
583.669	27435.61
583.866	26995.3
584.064	27624.03
584.262	26983.01
584.459	27163.23
584.657	26833.51
584.854	27142.75
585.052	26327.66
585.249	26970.72
585.447	26430.06
585.644	26286.7
585.841	26215.02
586.039	26591.85
586.236	26255.98
586.434	25909.88
586.631	25889.4
586.828	26286.7
587.026	26124.91
587.223	25934.45
587.42	25698.94
587.618	25815.67
587.815	25207.42
588.012	25574.01
588.21	25494.14
588.407	25488
588.604	25387.64
588.801	25156.22
588.999	25180.8
589.196	25166.46
589.393	25186.94
589.59	25324.16
589.787	24855.17
589.984	24857.22
590.182	24769.16
590.379	24799.88
590.576	24406.67
590.773	24398.48
590.97	24228.49
591.167	24623.75
591.364	23863.96
591.561	24165.01
591.758	23917.2
591.955	24068.75
592.152	24300.17
592.349	23810.71
592.546	24031.89
592.743	24042.13
592.94	23552.66
593.137	24011.41
593.334	23714.45
593.531	23448.22
593.727	23558.81
593.924	23403.16
594.121	23114.4
594.318	23200.41
594.515	23026.34
594.712	23069.34
594.908	23161.5
595.105	22913.7
595.302	22637.22
595.499	22680.23
595.696	22770.34
595.892	22442.67
596.089	22547.11
596.286	22457
596.482	22293.16
596.679	22311.6
596.876	22403.75
597.072	22018.74
597.269	22076.08
597.466	22016.69
597.662	21899.95
597.859	21930.67
598.055	22121.13
598.252	21750.45
598.448	21879.47
598.645	21820.08
598.841	21553.85
599.038	21478.07
599.234	21537.46
599.431	21525.18
599.627	21392.06
599.824	21250.75
600.02	21234.36
600.217	21420.73
600.413	21023.42
600.609	21056.19
600.806	20886.21
601.002	20992.7
601.198	20951.74
601.395	20644.55
601.591	20732.61
601.787	20634.31
601.984	20554.44
602.18	20882.11
602.376	20384.46
602.572	20576.97
602.769	20454.09
602.965	20267.72
603.161	20421.32
603.357	20165.32
603.553	20423.37
603.75	19851.99
603.946	19946.19
604.142	20044.49
604.338	19413.72
604.534	19819.22
604.73	19620.56
604.926	19440.34
605.122	19645.14
605.318	19229.4
605.514	19032.8
605.71	19337.94
605.906	19178.2
606.102	19270.36
606.298	19407.58
606.494	19292.89
606.69	19198.68
606.886	18893.54
607.082	18680.55
607.278	19210.97
607.474	18504.42
607.67	19040.99
607.866	18565.86
608.062	18893.54
608.257	18535.14
608.453	18754.27
608.649	18584.29
608.845	18451.17
609.041	18422.5
609.236	18676.45
609.432	18465.51
609.628	18655.97
609.824	18217.71
610.019	18406.12
610.215	18174.7
610.411	18473.7
610.606	18242.28
610.802	18170.6
610.998	17988.33
611.193	18172.65
611.389	18193.13
611.584	17842.93
611.78	17687.28
611.976	17930.99
612.171	17937.13
612.367	17947.37
612.562	17900.27
612.758	17535.73
612.953	17283.83
613.149	17898.22
613.344	17576.69
613.539	17935.09
613.735	17476.34
613.93	17814.26
614.126	17681.14
614.321	17492.73
614.517	17529.59
614.712	17384.18
614.907	17152.76
615.103	17191.67
615.298	17203.96
615.493	17308.41
615.688	17001.21
615.884	17185.53
616.079	16726.78
616.274	17142.52
616.47	17076.99
616.665	17253.11
616.86	16882.43
617.055	16841.47
617.25	16390.92
617.445	17128.19
617.641	16341.77
617.836	16786.18
618.031	16423.69
618.226	16528.13
618.421	16669.44
618.616	16661.25
618.811	16288.52
619.006	16517.89
619.201	16218.89
619.396	16421.64
619.591	16134.92
619.786	16085.77
619.981	15911.69
620.176	16087.82
620.371	15823.63
620.566	15563.54
620.761	15840.01
620.956	15883.02
621.151	15455
621.346	15749.9
621.541	15231.77
621.735	15452.95
621.93	15301.4
622.125	15516.44
622.32	15000.35
622.515	15266.58
622.709	14967.58
622.904	15033.11
623.099	15006.49
623.294	14902.04
623.488	14736.16
623.683	14998.3
623.878	14377.76
624.072	14592.8
624.267	14553.89
624.462	14576.42
624.656	14093.1
624.851	14295.85
625.046	14183.21
625.24	14089
625.435	13978.41
625.629	13667.12
625.824	13871.92
626.018	13871.92
626.213	13517.62
626.407	13904.68
626.602	13550.39
626.796	13544.24
626.991	13372.21
627.185	13300.53
627.38	13288.25
627.574	13089.59
627.768	12897.08
627.963	13099.83
628.157	12833.6
628.352	12917.56
628.546	12911.42
628.74	12682.05
628.935	12491.59
629.129	12628.8
629.323	12505.92
629.517	12440.39
629.712	12395.33
629.906	12245.83
630.1	12356.42
630.294	12174.15
630.489	12141.38
630.683	12200.77
630.877	11995.98
631.071	11995.98
631.265	11961.16
631.459	11731.79
631.653	11799.37
631.848	11610.96
632.042	11643.73
632.236	11692.88
632.43	11434.83
632.624	11701.07
632.818	11363.15
633.012	11092.82
633.206	11424.59
633.4	11262.8
633.594	11164.5
633.788	11109.21
633.982	11123.54
634.176	11219.8
634.369	11043.67
634.563	10871.64
634.757	10830.68
634.951	10726.24
635.145	10873.69
635.339	10599.26
635.533	10601.31
635.726	10537.82
635.92	10472.29
636.114	10533.73
636.308	10390.37
636.501	10345.31
636.695	10253.16
636.889	10404.71
637.083	10134.37
637.276	10031.97
637.47	10077.03
637.664	10109.8
637.857	10105.7
638.051	9929.58
638.244	9816.94
638.438	9700.2
638.632	9718.64
638.825	9857.9
639.019	9788.27
639.212	9550.7
639.406	9503.6
639.599	9644.91
639.793	9595.76
639.986	9345.91
640.18	9296.75
640.373	9149.3
640.567	9313.14
640.76	9046.9
640.954	9147.25
641.147	8883.06
641.34	9194.36
641.534	8973.18
641.727	9007.99
641.92	8866.68
642.114	8772.47
642.307	8696.7
642.5	8717.18
642.694	8733.56
642.887	8586.11
643.08	8907.64
643.273	8553.34
643.467	8698.75
643.66	8553.34
643.853	8661.88
644.046	8362.88
644.239	8379.26
644.432	8272.77
644.626	8102.79
644.819	8313.73
645.012	8125.32
645.205	8129.41
645.398	8192.9
645.591	8211.33
645.784	8037.25
645.977	7945.09
646.17	7865.22
646.363	7965.57
646.556	7742.35
646.749	7840.65
646.942	7793.55
647.135	7846.79
647.328	7781.26
647.521	7693.19
647.714	7613.32
647.907	7498.64
648.099	7525.26
648.292	7539.6
648.485	7701.39
648.678	7306.13
648.871	7345.04
649.064	7494.54
649.256	7359.38
649.449	7359.38
649.642	7496.59
649.835	7025.56
650.027	7093.14
650.22	7228.31
650.413	7150.48
650.605	7089.04
650.798	7179.15
650.991	6898.58
651.183	7078.8
651.376	6765.46
651.568	6917.01
651.761	6804.38
651.954	6945.69
652.146	6706.07
652.339	6790.04
652.531	6771.61
652.724	6595.48
652.916	6572.96
653.109	6609.82
653.301	6656.92
653.494	6632.35
653.686	6689.69
653.879	6701.98
654.071	6376.35
654.263	6521.76
654.456	6398.88
654.648	6464.41
654.84	6294.43
655.033	6335.39
655.225	6308.77
655.417	6081.44
655.61	6357.92
655.802	6300.58
655.994	5999.52
656.186	6179.75
656.379	6114.21
656.571	6038.44
656.763	6013.86
656.955	5983.14
657.148	5950.37
657.34	5962.66
657.532	6079.4
657.724	5964.71
657.916	5862.31
658.108	5860.26
658.3	5739.43
658.492	5958.57
658.684	5856.17
658.876	5979.04
659.068	5759.91
659.26	5782.44
659.452	5825.45
659.644	5669.8
659.836	5602.22
660.028	5688.23
660.22	5598.12
660.412	5555.12
660.604	5467.05
660.796	5551.02
660.988	5477.29
661.18	5454.76
661.372	5438.38
661.563	5450.67
661.755	5434.29
661.947	5483.44
662.139	5508.01
662.331	5426.09
662.522	5415.85
662.714	5417.9
662.906	5430.19
663.097	5233.58
663.289	5303.22
663.481	5125.04
663.673	5209.01
663.864	5409.71
664.056	5151.67
664.247	5217.2
664.439	5387.18
664.631	5213.1
664.822	5237.68
665.014	5217.2
665.205	5145.52
665.397	5069.75
665.588	5104.56
665.78	5006.26
665.971	4942.77
666.163	5065.65
666.354	4981.68
666.546	5057.46
666.737	5071.79
666.929	4799.41
667.12	5153.71
667.311	4983.73
667.503	4981.68
667.694	4852.66
667.885	4754.36
668.077	5032.88
668.268	4672.44
668.459	4832.18
668.651	4830.13
668.842	5039.03
669.033	4684.73
669.224	4873.14
669.416	4678.58
669.607	4881.33
669.798	4823.99
669.989	4930.48
670.18	4842.42
670.371	4787.13
670.563	4750.26
670.754	4690.87
670.945	4774.84
671.136	4709.3
671.327	4809.65
671.518	4729.78
671.709	4750.26
671.9	4707.26
672.091	4649.91
672.282	4803.51
672.473	4641.72
672.664	4836.28
672.855	4619.19
673.046	4744.12
673.237	4844.47
673.428	4760.5
673.619	4678.58
673.809	4680.63
674	4844.47
674.191	4676.54
674.382	4672.44
674.573	4697.02
674.764	4678.58
674.954	4690.87
675.145	4733.88
675.336	4729.78
675.527	4901.81
675.717	4867
675.908	4735.93
676.099	4692.92
676.289	4789.17
676.48	4823.99
676.671	4697.02
676.861	4901.81
677.052	4838.33
677.243	4635.58
677.433	4737.98
677.624	4914.1
677.814	4885.43
678.005	4709.3
678.195	4686.78
678.386	4901.81
678.576	4897.72
678.767	4869.05
678.957	4783.03
679.148	4996.02
679.338	5016.5
679.529	4950.96
679.719	4953.01
679.909	4942.77
680.1	5036.98
680.29	4969.4
680.481	4897.72
680.671	5215.15
680.861	4903.86
681.052	5020.6
681.242	4846.52
681.432	5057.46
681.622	4912.05
681.813	5024.69
682.003	5192.62
682.193	5014.45
682.383	5237.68
682.573	5231.54
682.764	5047.22
682.954	5137.33
683.144	5176.24
683.334	4983.73
683.524	5188.53
683.714	5032.88
683.904	5098.42
684.094	5321.65
684.284	5125.04
684.474	5247.92
684.664	5071.79
684.854	5024.69
685.044	5172.15
685.234	5004.21
685.424	5094.32
685.614	5135.28
685.804	5249.97
685.994	5096.37
686.184	5114.8
686.374	5106.61
686.564	5053.36
686.753	5008.31
686.943	5034.93
687.133	4971.44
687.323	5041.08
687.513	5049.27
687.702	4905.91
687.892	4826.04
688.082	4850.61
688.272	5045.17
688.461	4854.71
688.651	4912.05
688.841	4869.05
689.03	4901.81
689.22	4871.09
689.41	4881.33
689.599	4758.46
689.789	4774.84
689.979	4760.5
690.168	4604.86
690.358	4635.58
690.547	4688.82
690.737	4551.61
690.926	4631.48
691.116	4467.64
691.305	4672.44
691.495	4586.43
691.684	4520.89
691.874	4459.45
692.063	4484.03
692.252	4453.31
692.442	4438.97
692.631	4258.75
692.82	4471.74
693.01	4438.97
693.199	4336.57
693.388	4330.43
693.578	4221.89
693.767	4328.38
693.956	4377.53
694.146	4096.96
694.335	4107.2
694.524	4236.22
694.713	4244.42
694.902	3988.42
695.092	4254.66
695.281	4109.25
695.47	4189.12
695.659	4058.05
695.848	4000.71
696.037	3955.65
696.226	3992.52
696.415	4031.43
696.604	4103.11
696.793	3902.4
696.982	3992.52
697.171	4111.3
697.36	4070.34
697.549	3992.52
697.738	3972.04
697.927	3771.33
698.116	4017.09
698.305	3853.25
698.494	3894.21
698.683	3939.27
698.872	3965.89
699.061	3945.41
699.25	3726.28
699.438	3834.82
699.627	3890.12
699.816	3988.42
700.005	3916.74
700.193	3957.7
700.382	3926.98
700.571	3838.92
700.76	3965.89
700.948	3851.21
701.137	4006.85
701.326	3843.01
701.514	3754.95
701.703	3918.79
701.892	3910.6
702.08	3775.43
702.269	3849.16
702.457	3918.79
702.646	3879.88
702.834	3769.29
703.023	3976.13
703.212	3939.27
703.4	3955.65
703.589	3836.87
703.777	4060.1
703.965	3894.21
704.154	3732.42
704.342	3865.54
704.531	3953.6
704.719	3859.4
704.907	4004.8
705.096	3902.4
705.284	3972.04
705.472	3996.61
705.661	4205.5
705.849	4017.09
706.037	3957.7
706.226	3916.74
706.414	3996.61
706.602	3943.36
706.79	4094.91
706.979	4131.78
707.167	4131.78
707.355	3980.23
707.543	4000.71
707.731	4012.99
707.919	3949.51
708.107	4205.5
708.296	4168.64
708.484	4053.95
708.672	4205.5
708.86	4152.26
709.048	4164.54
709.236	4117.44
709.424	4287.42
709.612	4225.98
709.8	4193.22
709.988	4268.99
710.176	4365.25
710.364	4307.9
710.551	4275.13
710.739	4365.25
710.927	4336.57
711.115	4262.85
711.303	4393.92
711.491	4383.68
711.679	4225.98
711.866	4443.07
712.054	4506.56
712.242	4398.01
712.43	4621.24
712.617	4426.68
712.805	4490.17
712.993	4422.59
713.181	4258.75
713.368	4639.67
713.556	4492.22
713.744	4488.12
713.931	4561.85
714.119	4496.32
714.306	4713.4
714.494	4611
714.682	4641.72
714.869	4664.25
715.057	4819.89
715.244	4662.2
715.432	4725.69
715.619	4758.46
715.807	4813.75
715.994	4598.71
716.182	4975.54
716.369	4836.28
716.556	4950.96
716.744	4848.57
716.931	4856.76
717.119	4975.54
717.306	4946.87
717.493	4936.63
717.681	5022.64
717.868	4926.39
718.055	5086.13
718.242	5041.08
718.43	4991.92
718.617	5098.42
718.804	5055.41
718.991	5043.12
719.179	5221.3
719.366	4899.77
719.553	5258.16
719.74	5106.61
719.927	5254.06
720.114	5161.91
720.301	5184.43
720.488	5262.26
720.676	5153.71
720.863	5268.4
721.05	5516.2
721.237	5495.72
721.424	5473.2
721.611	5424.05
721.798	5426.09
721.985	5385.13
722.172	5317.55
722.358	5456.81
722.545	5467.05
722.732	5432.24
722.919	5759.91
723.106	5417.9
723.293	5628.84
723.48	5571.5
723.667	5534.64
723.853	5645.23
724.04	5739.43
724.227	5667.75
724.414	5612.46
724.6	5555.12
724.787	5786.54
724.974	5766.06
725.161	5784.49
725.347	5634.99
725.534	5753.77
725.72	5766.06
725.907	5671.85
726.094	5792.68
726.28	5700.52
726.467	5974.95
726.653	5827.5
726.84	5888.93
727.027	5999.52
727.213	5880.74
727.4	5917.61
727.586	6138.79
727.773	5809.06
727.959	6007.72
728.145	6089.64
728.332	6058.92
728.518	5933.99
728.705	6085.54
728.891	6155.17
729.077	6089.64
729.264	5956.52
729.45	5993.38
729.636	6269.86
729.823	5884.84
730.009	6220.71
730.195	6151.07
730.382	6302.62
730.568	6243.23
730.754	6216.61
730.94	6237.09
731.126	6151.07
731.313	6362.01
731.499	6206.37
731.685	6333.34
731.871	6216.61
732.057	6421.41
732.243	6374.3
732.429	6280.1
732.615	6456.22
732.801	6392.73
732.987	6349.73
733.173	6321.06
733.359	6390.69
733.545	6310.82
733.731	6351.78
733.917	6450.08
734.103	6450.08
734.289	6466.46
734.475	6503.32
734.661	6509.47
734.847	6532
735.033	6550.43
735.219	6355.87
735.404	6515.61
735.59	6312.86
735.776	6482.85
735.962	6536.09
736.148	6441.89
736.333	6407.07
736.519	6445.98
736.705	6466.46
736.89	6353.82
737.076	6661.02
737.262	6364.06
737.447	6532
737.633	6458.27
737.819	6450.08
738.004	6448.03
738.19	6335.39
738.375	6376.35
738.561	6370.21
738.747	6153.12
738.932	6501.28
739.118	6437.79
739.303	6439.84
739.489	6466.46
739.674	6374.3
739.859	6329.25
740.045	6458.27
740.23	6433.69
740.416	6335.39
740.601	6618.01
740.786	6376.35
740.972	6316.96
741.157	6325.15
741.342	6232.99
741.528	6265.76
741.713	6304.67
741.898	6282.14
742.084	6312.86
742.269	6220.71
742.454	6194.08
742.639	6106.02
742.824	6292.38
743.01	6220.71
743.195	6204.32
743.38	6071.2
743.565	6093.73
743.75	6149.03
743.935	6065.06
744.12	6310.82
744.305	5772.2
744.49	5954.47
744.675	5966.76
744.86	5968.8
745.045	5876.65
745.23	6022.05
745.415	5770.15
745.6	5737.38
745.785	5807.02
745.97	5868.45
746.155	5743.53
746.34	5790.63
746.525	5741.48
746.71	5639.08
746.895	5612.46
747.079	5649.32
747.264	5542.83
747.449	5436.33
747.634	5534.64
747.819	5491.63
748.003	5391.28
748.188	5548.97
748.373	5374.89
748.557	5401.52
748.742	5309.36
748.927	5268.4
749.111	5372.85
749.296	5211.06
749.481	5403.57
749.665	5254.06
749.85	5041.08
750.034	5290.93
750.219	5155.76
750.404	5020.6
750.588	5057.46
750.773	4920.24
750.957	4981.68
751.141	5004.21
751.326	4811.7
751.51	4811.7
751.695	4830.13
751.879	4934.58
752.064	4770.74
752.248	4574.14
752.432	4551.61
752.617	4639.67
752.801	4543.42
752.985	4627.39
753.17	4651.96
753.354	4664.25
753.538	4651.96
753.722	4432.83
753.907	4445.12
754.091	4500.41
754.275	4295.61
754.459	4318.14
754.643	4324.29
754.828	4230.08
755.012	4346.81
755.196	4201.41
755.38	4127.68
755.564	4156.35
755.748	4064.19
755.932	4092.87
756.116	4144.06
756.3	3922.88
756.484	3890.12
756.668	3941.32
756.852	3840.97
757.036	3943.36
757.22	3861.45
757.404	3910.6
757.588	3883.97
757.772	3869.64
757.956	3705.8
758.14	3888.07
758.323	3673.03
758.507	3761.09
758.691	3568.59
758.875	3730.38
759.059	3687.37
759.242	3693.51
759.426	3652.55
759.61	3541.96
759.794	3515.34
759.977	3466.19
760.161	3566.54
760.345	3478.47
760.528	3466.19
760.712	3388.36
760.895	3533.77
761.079	3435.47
761.263	3382.22
761.446	3302.35
761.63	3179.47
761.813	3337.17
761.997	3210.19
762.18	3191.76
762.364	3394.51
762.547	3197.9
762.731	3081.17
762.914	3099.6
763.098	3146.7
763.281	3238.86
763.464	3038.16
763.648	3056.59
763.831	3105.74
764.015	3097.55
764.198	3075.03
764.381	3046.35
764.564	3070.93
764.748	3001.3
764.931	3009.49
765.114	2976.72
765.297	3029.97
765.481	2796.5
765.664	2878.42
765.847	3007.44
766.03	2837.46
766.213	2909.14
766.397	2741.21
766.58	2898.9
766.763	2864.08
766.946	2903
767.129	2903
767.312	2816.98
767.495	2759.64
767.678	2776.02
767.861	2804.69
768.044	2638.81
768.227	2796.5
768.41	2571.22
768.593	2765.78
768.776	2616.28
768.959	2728.92
769.142	2657.24
769.324	2624.47
769.507	2507.74
769.69	2669.53
769.873	2472.92
770.056	2614.23
770.239	2558.94
770.421	2608.09
770.604	2526.17
770.787	2460.63
770.97	2444.25
771.152	2464.73
771.335	2597.85
771.518	2419.68
771.7	2483.16
771.883	2477.02
772.066	2362.33
772.248	2376.67
772.431	2350.04
772.613	2468.83
772.796	2280.41
772.978	2288.61
773.161	2302.94
773.343	2223.07
773.526	2200.54
773.708	2188.25
773.891	2057.18
774.073	2235.36
774.256	2116.58
774.438	2178.01
774.621	2198.49
774.803	2132.96
774.985	1967.07
775.168	2022.37
775.35	1983.46
775.532	2180.06
775.715	1997.79
775.897	2141.15
776.079	2051.04
776.261	2065.38
776.444	1942.5
776.626	1962.98
776.808	1960.93
776.99	1911.78
777.173	1924.07
777.355	1903.59
777.537	1879.01
777.719	1909.73
777.901	1848.29
778.083	1860.58
778.265	1825.76
778.447	1786.85
778.629	1717.22
778.811	1819.62
778.993	1825.76
779.175	1817.57
779.357	1739.75
779.539	1565.67
779.721	1747.94
779.903	1702.89
780.085	1805.28
780.267	1594.34
780.449	1663.97
780.631	1698.79
780.812	1670.12
780.994	1608.68
781.176	1737.7
781.358	1547.24
781.54	1461.23
781.721	1530.86
781.903	1444.84
782.085	1506.28
782.267	1565.67
782.448	1471.47
782.63	1471.47
782.812	1526.76
782.993	1493.99
783.175	1430.51
783.357	1395.69
783.538	1418.22
783.72	1444.84
783.901	1371.12
784.083	1483.75
784.264	1297.39
784.446	1338.35
784.627	1326.06
784.809	1416.17
784.99	1201.13
785.172	1418.22
785.353	1356.78
785.535	1219.57
785.716	1297.39
785.897	1213.42
786.079	1235.95
786.26	1158.13
786.441	1170.41
786.623	1205.23
786.804	1162.22
786.985	1174.51
787.167	1125.36
787.348	1158.13
787.529	1182.7
787.71	1162.22
787.891	1154.03
788.073	1135.6
788.254	1174.51
788.435	1238
788.616	1166.32
788.797	1000.43
788.978	1123.31
789.159	1043.44
789.34	1057.78
789.522	1123.31
789.703	1059.82
789.884	1012.72
790.065	965.62
790.246	928.75
790.427	1047.54
790.607	1018.86
790.788	1016.82
790.969	893.94
791.15	1016.82
791.331	1053.68
791.512	1000.43
791.693	957.43
791.874	945.14
792.054	967.67
792.235	988.14
792.416	893.94
792.597	885.75
792.778	912.37
792.958	910.32
793.139	764.92
793.32	949.23
793.5	838.64
793.681	936.95
793.862	871.41
794.042	879.6
794.223	869.36
794.404	875.51
794.584	764.92
794.765	842.74
794.945	902.13
795.126	865.27
795.306	873.46
795.487	818.16
795.667	824.31
795.848	877.55
796.028	820.21
796.209	771.06
796.389	797.68
796.57	809.97
796.75	711.67
796.93	797.68
797.111	664.57
797.291	764.92
797.471	814.07
797.652	691.19
797.832	719.86
798.012	820.21
798.192	629.75
798.373	674.81
798.553	773.11
798.733	764.92
798.913	715.77
799.093	701.43
799.274	738.29
799.454	687.09
799.634	717.81
799.814	781.3
799.994	691.19
800.174	723.96
800.354	769.01
800.534	578.55
800.714	631.8
800.894	601.08
801.074	605.17
801.254	658.42
801.434	764.92
801.614	639.99
801.794	588.79
801.974	1340.4
802.154	623.61
802.334	648.18
802.514	695.29
802.693	625.65
802.873	556.02
803.053	676.85
803.233	658.42
803.413	625.65
803.592	623.61
803.772	599.03
803.952	549.88
804.131	580.6
804.311	543.74
804.491	601.08
804.67	572.41
804.85	556.02
805.03	588.79
805.209	607.22
805.389	603.13
805.568	527.35
805.748	607.22
805.928	562.17
806.107	576.5
806.287	539.64
806.466	510.97
806.646	576.5
806.825	496.63
807.004	533.5
807.184	609.27
807.363	551.93
807.543	539.64
807.722	527.35
807.901	517.11
808.081	523.26
808.26	474.1
808.439	494.58
808.619	521.21
808.798	519.16
808.977	463.86
809.156	523.26
809.336	502.78
809.515	502.78
809.694	490.49
809.873	445.43
810.052	371.71
810.231	539.64
810.411	502.78
810.59	484.34
810.769	447.48
810.948	478.2
811.127	412.67
811.306	459.77
811.485	388.09
811.664	386.04
811.843	461.82
812.022	465.91
812.201	445.43
812.38	478.2
812.559	441.34
812.737	502.78
812.916	386.04
813.095	388.09
813.274	433.15
813.453	445.43
813.632	412.67
813.811	513.02
813.989	379.9
814.168	414.71
814.347	375.8
814.526	433.15
814.704	445.43
814.883	435.19
815.062	336.89
815.24	416.76
815.419	404.47
815.598	486.39
815.776	302.08
815.955	418.81
816.133	396.28
816.312	408.57
816.49	365.56
816.669	297.98
816.847	420.86
817.026	383.99
817.204	355.32
817.383	347.13
817.561	351.23
817.74	379.9
817.918	365.56
818.097	277.5
818.275	375.8
818.453	347.13
818.632	254.97
818.81	300.03
818.988	328.7
819.167	281.6
819.345	392.19
819.523	312.32
819.701	406.52
819.879	359.42
820.058	273.4
820.236	297.98
820.414	322.56
820.592	250.88
820.77	343.03
820.948	345.08
821.127	400.38
821.305	261.12
821.483	334.84
821.661	394.23
821.839	379.9
822.017	312.32
822.195	330.75
822.373	336.89
822.551	304.12
822.729	373.75
822.907	289.79
823.085	402.43
823.262	394.23
823.44	297.98
823.618	271.36
823.796	345.08
823.974	330.75
824.152	273.4
824.329	326.65
824.507	232.44
824.685	375.8
824.863	302.08
825.04	277.5
825.218	238.59
825.396	353.27
825.574	304.12
825.751	191.49
825.929	330.75
826.107	361.47
826.284	220.16
826.462	285.69
826.639	193.53
826.817	236.54
826.994	287.74
827.172	187.39
827.349	281.6
827.527	318.46
827.704	306.17
827.882	330.75
828.059	236.54
828.237	230.4
828.414	271.36
828.591	224.25
828.769	261.12
828.946	187.39
829.124	226.3
829.301	240.64
829.478	209.92
829.655	273.4
829.833	207.87
830.01	181.25
830.187	287.74
830.364	279.55
830.542	209.92
830.719	351.23
830.896	271.36
831.073	285.69
831.25	289.79
831.427	347.13
831.604	257.02
831.782	207.87
831.959	338.94
832.136	269.31
832.313	271.36
832.49	164.86
832.667	306.17
832.844	254.97
833.021	199.68
833.198	187.39
833.374	240.64
833.551	259.07
833.728	228.35
833.905	183.29
834.082	101.37
834.259	220.16
834.436	246.78
834.612	150.53
834.789	183.29
834.966	273.4
835.143	267.26
835.319	173.05
835.496	183.29
835.673	205.82
835.85	193.53
836.026	171.01
836.203	175.1
836.38	136.19
836.556	158.72
836.733	222.2
836.909	265.21
837.086	177.15
837.262	60.42
837.439	164.86
837.616	193.53
837.792	166.91
837.968	164.86
838.145	175.1
838.321	238.59
838.498	179.2
838.674	209.92
838.851	160.77
839.027	128
839.203	162.81
839.38	175.1
839.556	154.62
839.732	259.07
839.909	171.01
840.085	109.57
840.261	185.34
840.437	175.1
840.614	107.52
840.79	181.25
840.966	199.68
841.142	162.81
841.318	140.29
841.494	156.67
841.671	224.25
841.847	80.89
842.023	117.76
842.199	193.53
842.375	187.39
842.551	93.18
842.727	166.91
842.903	228.35
843.079	207.87
843.255	189.44
843.431	179.2
843.607	171.01
843.783	44.03
843.959	134.14
844.134	113.66
844.31	205.82
844.486	175.1
844.662	125.95
844.838	121.85
845.013	156.67
845.189	175.1
845.365	138.24
845.541	148.48
845.716	150.53
845.892	191.49
846.068	101.37
846.244	101.37
846.419	125.95
846.595	101.37
846.77	109.57
846.946	107.52
847.122	101.37
847.297	175.1
847.473	121.85
847.648	117.76
847.824	140.29
847.999	125.95
848.175	191.49
848.35	166.91
848.526	111.61
848.701	191.49
848.876	105.47
849.052	177.15
849.227	82.94
849.403	144.38
849.578	125.95
849.753	158.72
849.929	117.76
850.104	33.79
850.279	93.18
850.454	101.37
850.63	99.33
850.805	74.75
850.98	56.32
851.155	142.33
851.33	68.61
851.505	19.46
851.681	52.22
851.856	66.56
852.031	150.53
852.206	125.95
852.381	93.18
852.556	123.9
852.731	89.09
852.906	175.1
853.081	111.61
853.256	80.89
853.431	158.72
853.606	50.18
853.781	82.94
853.956	117.76
854.131	119.81
854.305	72.7
854.48	60.42
854.655	89.09
854.83	19.46
855.005	68.61
855.18	166.91
855.354	17.41
855.529	130.05
855.704	89.09
855.879	148.48
856.053	41.98
856.228	97.28
856.403	68.61
856.577	115.71
856.752	50.18
856.926	58.37
857.101	58.37
857.276	3.07
857.45	68.61
857.625	197.63
857.799	84.99
857.974	70.65
858.148	15.36
858.323	146.43
858.497	64.51
858.672	68.61
858.846	68.61
859.02	121.85
859.195	27.65
859.369	80.89
859.543	123.9
859.718	101.37
859.892	138.24
860.066	142.33
860.241	56.32
860.415	46.08
860.589	39.94
860.763	138.24
860.938	-23.55
861.112	117.76
861.286	82.94
861.46	64.51
861.634	115.71
861.808	123.9
861.982	138.24
862.157	54.27
862.331	-3.07
862.505	117.76
862.679	-5.12
862.853	3.07
863.027	87.04
863.201	164.86
863.375	11.26
863.549	80.89
863.722	125.95
863.896	105.47
864.07	64.51
864.244	39.94
864.418	80.89
864.592	68.61
864.766	19.46
864.939	35.84
865.113	17.41
865.287	89.09
865.461	27.65
865.634	11.26
865.808	84.99
865.982	80.89
866.156	105.47
866.329	60.42
866.503	50.18
866.676	70.65
866.85	107.52
867.024	50.18
867.197	97.28
867.371	101.37
867.544	142.33
867.718	-15.36
867.891	23.55
868.065	64.51
868.238	39.94
868.412	31.74
868.585	60.42
868.759	-23.55
868.932	66.56
869.105	72.7
869.279	74.75
869.452	7.17
869.625	93.18
869.799	93.18
869.972	15.36
870.145	46.08
870.319	158.72
870.492	25.6
870.665	54.27
870.838	44.03
871.011	-7.17
871.185	-3.07
871.358	21.5
871.531	19.46
871.704	29.7
871.877	17.41
872.05	19.46
872.223	80.89
872.396	80.89
872.569	33.79
872.742	17.41
872.915	52.22
873.088	-13.31
873.261	62.46
873.434	66.56
873.607	74.75
873.78	-13.31
873.953	41.98
874.126	82.94
874.299	19.46
874.471	56.32
874.644	15.36
874.817	7.17
874.99	123.9
875.163	15.36
875.335	52.22
875.508	52.22
875.681	29.7
875.853	-11.26
876.026	48.13
876.199	39.94
876.371	-5.12
876.544	33.79
876.717	44.03
876.889	72.7
877.062	66.56
877.234	9.22
877.407	27.65
877.579	3.07
877.752	82.94
877.924	39.94
878.097	-9.22
878.269	39.94
878.442	33.79
878.614	-17.41
878.786	99.33
878.959	62.46
879.131	93.18
879.303	11.26
879.476	35.84
879.648	74.75
879.82	3.07
879.993	39.94
880.165	68.61
880.337	35.84
880.509	70.65
880.681	13.31
880.854	56.32
881.026	115.71
881.198	82.94
881.37	25.6
881.542	64.51
881.714	23.55
881.886	1.02
882.058	101.37
882.23	15.36
882.402	-70.65
882.574	101.37
882.746	3.07
882.918	11.26
883.09	29.7
883.262	80.89
883.434	23.55
883.606	3.07
883.778	11.26
883.95	84.99
884.122	66.56
884.293	72.7
884.465	-5.12
884.637	37.89
884.809	23.55
884.98	125.95
885.152	19.46
885.324	84.99
885.496	1.02
885.667	-31.74
885.839	44.03
886.011	17.41
886.182	107.52
886.354	109.57
886.525	134.14
886.697	89.09
886.869	-13.31
887.04	17.41
887.212	117.76
887.383	39.94
887.555	19.46
887.726	-17.41
887.897	-68.61
888.069	27.65
888.24	80.89
888.412	68.61
888.583	66.56
888.754	15.36
888.926	11.26
889.097	35.84
889.268	-5.12
889.44	25.6
889.611	-1.02
889.782	66.56
889.953	60.42
890.125	50.18
890.296	76.8
890.467	17.41
890.638	-13.31
890.809	27.65
890.98	-27.65
891.151	11.26
891.323	56.32
891.494	87.04
891.665	27.65
891.836	76.8
892.007	39.94
892.178	44.03
892.349	23.55
892.52	87.04
892.691	-5.12
892.862	31.74
893.032	-31.74
893.203	25.6
893.374	13.31
893.545	82.94
893.716	19.46
893.887	76.8
894.057	-13.31
894.228	39.94
894.399	-35.84
894.57	-13.31
894.74	1.02
894.911	52.22
895.082	41.98
895.253	-39.94
895.423	27.65
895.594	89.09
895.764	33.79
895.935	-48.13
896.106	25.6
896.276	-33.79
896.447	27.65
896.617	-5.12
896.788	21.5
896.958	44.03
897.129	25.6
897.299	9.22
897.47	46.08
897.64	44.03
897.81	1.02
897.981	68.61
898.151	-21.5
898.322	7.17
898.492	31.74
898.662	9.22
898.832	31.74
899.003	-23.55
899.173	70.65
899.343	-25.6
899.513	80.89
