Data from USB4F104151__59__11-30-45-961.txt Node

Date: Fri Mar 14 11:30:45 EDT 2025
User: louis
Spectrometer: USB4F10415
Trigger mode: 4
Integration Time (sec): 5.000000E-2
Scans to average: 1
Electric dark correction enabled: true
Nonlinearity correction enabled: false
Boxcar width: 0
XAxis mode: Wavelengths
Number of Pixels in Spectrum: 3648
>>>>>Begin Spectral Data<<<<<
178.204	-162.81
178.424	-162.81
178.644	-162.81
178.864	-181.25
179.084	-87.04
179.304	-31.74
179.524	-58.37
179.744	5.12
179.964	66.56
180.184	-62.46
180.404	-58.37
180.624	41.98
180.844	11.26
181.064	-82.94
181.283	15.36
181.503	44.03
181.723	109.57
181.943	-27.65
182.163	84.99
182.383	-7.17
182.602	37.89
182.822	48.13
183.042	89.09
183.262	15.36
183.482	-19.46
183.701	29.7
183.921	13.31
184.141	15.36
184.361	33.79
184.58	-25.6
184.8	15.36
185.02	23.55
185.239	46.08
185.459	-3.07
185.679	80.89
185.898	31.74
186.118	56.32
186.338	-1.02
186.557	-7.17
186.777	-17.41
186.997	7.17
187.216	-31.74
187.436	68.61
187.655	93.18
187.875	60.42
188.095	21.5
188.314	41.98
188.534	35.84
188.753	52.22
188.973	7.17
189.192	11.26
189.412	56.32
189.631	56.32
189.851	15.36
190.07	74.75
190.29	-33.79
190.509	-17.41
190.729	7.17
190.948	35.84
191.168	209.92
191.387	72.7
191.607	7.17
191.826	19.46
192.045	1.02
192.265	48.13
192.484	64.51
192.704	48.13
192.923	70.65
193.142	132.09
193.362	48.13
193.581	80.89
193.8	105.47
194.02	-21.5
194.239	17.41
194.458	64.51
194.678	27.65
194.897	121.85
195.116	56.32
195.335	23.55
195.555	3.07
195.774	66.56
195.993	62.46
196.212	-17.41
196.432	23.55
196.651	19.46
196.87	-19.46
197.089	97.28
197.308	52.22
197.528	101.37
197.747	-1.02
197.966	117.76
198.185	113.66
198.404	54.27
198.623	23.55
198.842	13.31
199.062	113.66
199.281	58.37
199.5	23.55
199.719	66.56
199.938	56.32
200.157	15.36
200.376	113.66
200.595	21.5
200.814	7.17
201.033	7.17
201.252	128
201.471	17.41
201.69	56.32
201.909	-27.65
202.128	132.09
202.347	72.7
202.566	80.89
202.785	-74.75
203.004	46.08
203.223	99.33
203.442	9.22
203.661	70.65
203.879	68.61
204.098	64.51
204.317	15.36
204.536	21.5
204.755	39.94
204.974	64.51
205.193	46.08
205.411	62.46
205.63	33.79
205.849	70.65
206.068	89.09
206.287	11.26
206.505	60.42
206.724	29.7
206.943	-41.98
207.162	48.13
207.381	17.41
207.599	39.94
207.818	13.31
208.037	-15.36
208.255	-5.12
208.474	72.7
208.693	72.7
208.911	66.56
209.13	31.74
209.349	13.31
209.567	64.51
209.786	128
210.005	23.55
210.223	23.55
210.442	-11.26
210.661	48.13
210.879	11.26
211.098	48.13
211.316	3.07
211.535	54.27
211.753	-25.6
211.972	72.7
212.191	27.65
212.409	-11.26
212.628	52.22
212.846	7.17
213.065	17.41
213.283	101.37
213.502	21.5
213.72	50.18
213.938	-9.22
214.157	78.85
214.375	15.36
214.594	-9.22
214.812	56.32
215.031	39.94
215.249	11.26
215.467	54.27
215.686	-1.02
215.904	140.29
216.122	35.84
216.341	46.08
216.559	66.56
216.778	31.74
216.996	50.18
217.214	15.36
217.432	13.31
217.651	7.17
217.869	80.89
218.087	44.03
218.306	3.07
218.524	105.47
218.742	115.71
218.96	89.09
219.179	11.26
219.397	33.79
219.615	113.66
219.833	39.94
220.051	82.94
220.27	80.89
220.488	31.74
220.706	-3.07
220.924	-39.94
221.142	-3.07
221.36	29.7
221.578	29.7
221.796	125.95
222.015	3.07
222.233	50.18
222.451	78.85
222.669	15.36
222.887	-13.31
223.105	-9.22
223.323	-7.17
223.541	15.36
223.759	-23.55
223.977	89.09
224.195	113.66
224.413	60.42
224.631	31.74
224.849	-46.08
225.067	82.94
225.285	5.12
225.503	1.02
225.721	-9.22
225.939	15.36
226.157	46.08
226.375	138.24
226.592	5.12
226.81	84.99
227.028	130.05
227.246	103.42
227.464	56.32
227.682	105.47
227.9	70.65
228.117	48.13
228.335	23.55
228.553	105.47
228.771	-17.41
228.989	-17.41
229.206	5.12
229.424	-21.5
229.642	3.07
229.86	-19.46
230.077	48.13
230.295	3.07
230.513	35.84
230.731	35.84
230.948	21.5
231.166	146.43
231.384	-7.17
231.601	3.07
231.819	97.28
232.037	-1.02
232.254	-37.89
232.472	64.51
232.689	-5.12
232.907	87.04
233.125	-37.89
233.342	23.55
233.56	41.98
233.777	-9.22
233.995	103.42
234.213	31.74
234.43	46.08
234.648	-21.5
234.865	62.46
235.083	31.74
235.3	50.18
235.518	-50.18
235.735	152.57
235.953	117.76
236.17	1.02
236.388	56.32
236.605	31.74
236.822	25.6
237.04	68.61
237.257	44.03
237.475	-15.36
237.692	84.99
237.909	1.02
238.127	80.89
238.344	-11.26
238.562	68.61
238.779	31.74
238.996	99.33
239.214	-21.5
239.431	52.22
239.648	-35.84
239.865	89.09
240.083	64.51
240.3	1.02
240.517	52.22
240.735	7.17
240.952	60.42
241.169	93.18
241.386	-21.5
241.603	27.65
241.821	29.7
242.038	84.99
242.255	29.7
242.472	-9.22
242.689	105.47
242.907	41.98
243.124	56.32
243.341	-1.02
243.558	48.13
243.775	66.56
243.992	-13.31
244.209	41.98
244.426	19.46
244.643	64.51
244.86	29.7
245.078	7.17
245.295	56.32
245.512	134.14
245.729	31.74
245.946	-46.08
246.163	60.42
246.38	-46.08
246.597	23.55
246.814	-1.02
247.031	21.5
247.248	-60.42
247.464	41.98
247.681	-50.18
247.898	142.33
248.115	105.47
248.332	44.03
248.549	31.74
248.766	93.18
248.983	80.89
249.2	54.27
249.417	78.85
249.633	60.42
249.85	105.47
250.067	48.13
250.284	44.03
250.501	-54.27
250.717	39.94
250.934	39.94
251.151	33.79
251.368	-17.41
251.585	97.28
251.801	64.51
252.018	5.12
252.235	89.09
252.451	-50.18
252.668	11.26
252.885	128
253.102	25.6
253.318	27.65
253.535	64.51
253.752	-3.07
253.968	109.57
254.185	-44.03
254.401	39.94
254.618	21.5
254.835	64.51
255.051	46.08
255.268	46.08
255.484	128
255.701	48.13
255.917	-17.41
256.134	-15.36
256.351	89.09
256.567	-25.6
256.784	-25.6
257	-35.84
257.217	60.42
257.433	52.22
257.65	7.17
257.866	89.09
258.082	-58.37
258.299	46.08
258.515	109.57
258.732	-15.36
258.948	3.07
259.165	93.18
259.381	29.7
259.597	95.23
259.814	66.56
260.03	29.7
260.246	39.94
260.463	93.18
260.679	3.07
260.895	23.55
261.112	146.43
261.328	54.27
261.544	64.51
261.761	138.24
261.977	35.84
262.193	29.7
262.409	84.99
262.626	91.13
262.842	74.75
263.058	19.46
263.274	70.65
263.49	15.36
263.707	48.13
263.923	78.85
264.139	-3.07
264.355	7.17
264.571	109.57
264.787	9.22
265.004	62.46
265.22	50.18
265.436	54.27
265.652	7.17
265.868	-1.02
266.084	-3.07
266.3	9.22
266.516	44.03
266.732	1.02
266.948	27.65
267.164	80.89
267.38	56.32
267.596	37.89
267.812	95.23
268.028	68.61
268.244	-21.5
268.46	-1.02
268.676	27.65
268.892	37.89
269.108	-1.02
269.324	19.46
269.54	-25.6
269.756	64.51
269.972	19.46
270.188	130.05
270.403	21.5
270.619	56.32
270.835	89.09
271.051	144.38
271.267	37.89
271.483	109.57
271.698	70.65
271.914	56.32
272.13	97.28
272.346	7.17
272.562	80.89
272.777	58.37
272.993	31.74
273.209	-70.65
273.425	78.85
273.64	-9.22
273.856	31.74
274.072	3.07
274.287	37.89
274.503	113.66
274.719	37.89
274.934	97.28
275.15	-25.6
275.366	7.17
275.581	29.7
275.797	19.46
276.012	62.46
276.228	-29.7
276.444	82.94
276.659	105.47
276.875	11.26
277.09	41.98
277.306	105.47
277.521	39.94
277.737	48.13
277.952	52.22
278.168	87.04
278.383	39.94
278.599	11.26
278.814	87.04
279.03	78.85
279.245	29.7
279.461	64.51
279.676	89.09
279.892	5.12
280.107	74.75
280.322	52.22
280.538	5.12
280.753	56.32
280.969	72.7
281.184	19.46
281.399	87.04
281.615	19.46
281.83	56.32
282.045	33.79
282.26	31.74
282.476	15.36
282.691	99.33
282.906	27.65
283.122	48.13
283.337	-21.5
283.552	27.65
283.767	54.27
283.983	56.32
284.198	89.09
284.413	48.13
284.628	39.94
284.843	35.84
285.058	76.8
285.274	37.89
285.489	15.36
285.704	19.46
285.919	33.79
286.134	23.55
286.349	37.89
286.564	-29.7
286.779	31.74
286.995	76.8
287.21	-9.22
287.425	117.76
287.64	27.65
287.855	68.61
288.07	3.07
288.285	31.74
288.5	121.85
288.715	74.75
288.93	-19.46
289.145	44.03
289.36	89.09
289.575	56.32
289.79	64.51
290.004	23.55
290.219	107.52
290.434	-7.17
290.649	3.07
290.864	17.41
291.079	27.65
291.294	56.32
291.509	66.56
291.724	-11.26
291.938	76.8
292.153	54.27
292.368	-29.7
292.583	35.84
292.798	68.61
293.012	11.26
293.227	117.76
293.442	-50.18
293.657	31.74
293.871	78.85
294.086	97.28
294.301	130.05
294.516	105.47
294.73	19.46
294.945	7.17
295.16	80.89
295.374	25.6
295.589	80.89
295.804	68.61
296.018	66.56
296.233	113.66
296.447	35.84
296.662	15.36
296.877	97.28
297.091	117.76
297.306	37.89
297.52	82.94
297.735	-9.22
297.949	35.84
298.164	31.74
298.378	31.74
298.593	60.42
298.807	-25.6
299.022	21.5
299.236	87.04
299.451	48.13
299.665	-25.6
299.88	19.46
300.094	54.27
300.309	23.55
300.523	60.42
300.737	68.61
300.952	46.08
301.166	117.76
301.381	54.27
301.595	-3.07
301.809	121.85
302.024	72.7
302.238	58.37
302.452	62.46
302.667	-5.12
302.881	66.56
303.095	15.36
303.309	50.18
303.524	5.12
303.738	105.47
303.952	-5.12
304.166	84.99
304.381	52.22
304.595	60.42
304.809	23.55
305.023	27.65
305.237	97.28
305.452	7.17
305.666	41.98
305.88	148.48
306.094	44.03
306.308	62.46
306.522	93.18
306.736	58.37
306.95	128
307.164	29.7
307.379	60.42
307.593	60.42
307.807	121.85
308.021	-21.5
308.235	54.27
308.449	19.46
308.663	68.61
308.877	82.94
309.091	27.65
309.305	-5.12
309.519	44.03
309.733	84.99
309.947	50.18
310.161	78.85
310.374	56.32
310.588	113.66
310.802	-23.55
311.016	-3.07
311.23	84.99
311.444	87.04
311.658	-19.46
311.872	93.18
312.085	56.32
312.299	39.94
312.513	95.23
312.727	84.99
312.941	76.8
313.154	113.66
313.368	82.94
313.582	89.09
313.796	62.46
314.009	21.5
314.223	70.65
314.437	56.32
314.651	78.85
314.864	15.36
315.078	-15.36
315.292	1.02
315.505	64.51
315.719	60.42
315.933	113.66
316.146	23.55
316.36	31.74
316.573	66.56
316.787	3.07
317.001	136.19
317.214	17.41
317.428	-3.07
317.641	48.13
317.855	111.61
318.068	15.36
318.282	52.22
318.495	93.18
318.709	121.85
318.922	78.85
319.136	113.66
319.349	52.22
319.563	3.07
319.776	80.89
319.99	-1.02
320.203	84.99
320.417	27.65
320.63	3.07
320.843	72.7
321.057	54.27
321.27	78.85
321.483	48.13
321.697	72.7
321.91	29.7
322.124	82.94
322.337	44.03
322.55	48.13
322.763	148.48
322.977	113.66
323.19	-70.65
323.403	105.47
323.617	21.5
323.83	39.94
324.043	37.89
324.256	-9.22
324.469	11.26
324.683	74.75
324.896	66.56
325.109	41.98
325.322	-15.36
325.535	48.13
325.748	37.89
325.962	39.94
326.175	39.94
326.388	54.27
326.601	117.76
326.814	87.04
327.027	19.46
327.24	134.14
327.453	7.17
327.666	62.46
327.879	109.57
328.092	72.7
328.305	21.5
328.518	87.04
328.731	76.8
328.944	23.55
329.157	56.32
329.37	-41.98
329.583	125.95
329.796	80.89
330.009	48.13
330.222	72.7
330.435	87.04
330.648	13.31
330.861	66.56
331.073	52.22
331.286	31.74
331.499	31.74
331.712	44.03
331.925	29.7
332.138	64.51
332.35	132.09
332.563	3.07
332.776	62.46
332.989	15.36
333.202	95.23
333.414	107.52
333.627	64.51
333.84	84.99
334.053	125.95
334.265	39.94
334.478	23.55
334.691	50.18
334.903	48.13
335.116	52.22
335.329	23.55
335.541	41.98
335.754	89.09
335.966	19.46
336.179	70.65
336.392	5.12
336.604	72.7
336.817	156.67
337.029	72.7
337.242	7.17
337.454	80.89
337.667	31.74
337.88	84.99
338.092	76.8
338.305	113.66
338.517	72.7
338.729	76.8
338.942	17.41
339.154	56.32
339.367	-52.22
339.579	19.46
339.792	-13.31
340.004	-1.02
340.217	9.22
340.429	60.42
340.641	60.42
340.854	15.36
341.066	76.8
341.278	89.09
341.491	54.27
341.703	3.07
341.915	-15.36
342.128	35.84
342.34	29.7
342.552	-3.07
342.764	39.94
342.977	31.74
343.189	33.79
343.401	93.18
343.613	-87.04
343.826	39.94
344.038	19.46
344.25	93.18
344.462	89.09
344.674	103.42
344.886	-21.5
345.099	56.32
345.311	70.65
345.523	23.55
345.735	-17.41
345.947	39.94
346.159	23.55
346.371	121.85
346.583	103.42
346.795	203.77
347.007	15.36
347.219	54.27
347.431	52.22
347.643	80.89
347.855	52.22
348.067	113.66
348.279	19.46
348.491	93.18
348.703	72.7
348.915	25.6
349.127	13.31
349.339	109.57
349.551	-21.5
349.763	64.51
349.975	35.84
350.187	95.23
350.399	97.28
350.61	95.23
350.822	39.94
351.034	119.81
351.246	-5.12
351.458	72.7
351.669	39.94
351.881	89.09
352.093	121.85
352.305	87.04
352.517	105.47
352.728	35.84
352.94	-11.26
353.152	72.7
353.363	9.22
353.575	60.42
353.787	37.89
353.999	72.7
354.21	52.22
354.422	56.32
354.633	29.7
354.845	56.32
355.057	78.85
355.268	37.89
355.48	101.37
355.692	-9.22
355.903	82.94
356.115	39.94
356.326	13.31
356.538	113.66
356.749	58.37
356.961	140.29
357.172	15.36
357.384	82.94
357.595	119.81
357.807	54.27
358.018	54.27
358.23	46.08
358.441	152.57
358.653	66.56
358.864	56.32
359.075	1.02
359.287	44.03
359.498	113.66
359.709	105.47
359.921	39.94
360.132	29.7
360.344	54.27
360.555	72.7
360.766	23.55
360.977	76.8
361.189	146.43
361.4	91.13
361.611	64.51
361.823	154.62
362.034	52.22
362.245	15.36
362.456	31.74
362.667	39.94
362.879	44.03
363.09	21.5
363.301	-11.26
363.512	93.18
363.723	103.42
363.935	82.94
364.146	7.17
364.357	15.36
364.568	84.99
364.779	39.94
364.99	113.66
365.201	39.94
365.412	130.05
365.623	33.79
365.834	27.65
366.045	7.17
366.256	89.09
366.467	54.27
366.678	19.46
366.889	93.18
367.1	89.09
367.311	78.85
367.522	-17.41
367.733	121.85
367.944	168.96
368.155	37.89
368.366	87.04
368.577	46.08
368.788	136.19
368.999	-31.74
369.209	82.94
369.42	17.41
369.631	152.57
369.842	54.27
370.053	76.8
370.264	64.51
370.474	-3.07
370.685	48.13
370.896	68.61
371.107	93.18
371.317	54.27
371.528	-25.6
371.739	74.75
371.95	46.08
372.16	3.07
372.371	48.13
372.582	93.18
372.792	39.94
373.003	60.42
373.214	39.94
373.424	54.27
373.635	87.04
373.846	66.56
374.056	68.61
374.267	-11.26
374.477	48.13
374.688	23.55
374.898	105.47
375.109	64.51
375.319	130.05
375.53	97.28
375.74	58.37
375.951	13.31
376.161	21.5
376.372	150.53
376.582	-29.7
376.793	33.79
377.003	5.12
377.214	52.22
377.424	76.8
377.635	91.13
377.845	-9.22
378.055	93.18
378.266	41.98
378.476	103.42
378.686	82.94
378.897	39.94
379.107	101.37
379.317	9.22
379.528	64.51
379.738	62.46
379.948	41.98
380.158	70.65
380.369	-5.12
380.579	33.79
380.789	68.61
380.999	105.47
381.21	52.22
381.42	111.61
381.63	11.26
381.84	113.66
382.05	87.04
382.261	3.07
382.471	39.94
382.681	64.51
382.891	117.76
383.101	89.09
383.311	13.31
383.521	7.17
383.731	78.85
383.941	58.37
384.151	74.75
384.361	87.04
384.571	62.46
384.781	31.74
384.991	168.96
385.201	177.15
385.411	134.14
385.621	128
385.831	95.23
386.041	78.85
386.251	68.61
386.461	105.47
386.671	11.26
386.881	23.55
387.091	70.65
387.301	70.65
387.511	41.98
387.72	136.19
387.93	80.89
388.14	31.74
388.35	64.51
388.56	89.09
388.769	89.09
388.979	115.71
389.189	35.84
389.399	60.42
389.609	68.61
389.818	66.56
390.028	99.33
390.238	113.66
390.447	9.22
390.657	156.67
390.867	70.65
391.076	-23.55
391.286	95.23
391.496	-1.02
391.705	74.75
391.915	138.24
392.125	130.05
392.334	64.51
392.544	146.43
392.753	105.47
392.963	-5.12
393.172	68.61
393.382	52.22
393.591	142.33
393.801	101.37
394.01	130.05
394.22	89.09
394.429	101.37
394.639	99.33
394.848	78.85
395.058	103.42
395.267	48.13
395.477	154.62
395.686	105.47
395.895	267.26
396.105	185.34
396.314	111.61
396.524	-21.5
396.733	111.61
396.942	195.58
397.152	97.28
397.361	214.01
397.57	138.24
397.78	99.33
397.989	142.33
398.198	117.76
398.407	134.14
398.617	144.38
398.826	168.96
399.035	191.49
399.244	156.67
399.453	113.66
399.663	111.61
399.872	203.77
400.081	52.22
400.29	97.28
400.499	21.5
400.708	134.14
400.917	84.99
401.127	70.65
401.336	138.24
401.545	203.77
401.754	162.81
401.963	72.7
402.172	109.57
402.381	150.53
402.59	160.77
402.799	89.09
403.008	148.48
403.217	70.65
403.426	101.37
403.635	138.24
403.844	158.72
404.053	171.01
404.262	199.68
404.471	252.92
404.68	216.06
404.888	146.43
405.097	185.34
405.306	203.77
405.515	91.13
405.724	205.82
405.933	234.49
406.142	252.92
406.35	218.11
406.559	211.96
406.768	273.4
406.977	285.69
407.185	218.11
407.394	259.07
407.603	193.53
407.812	181.25
408.02	310.27
408.229	261.12
408.438	295.93
408.646	265.21
408.855	261.12
409.064	306.17
409.272	265.21
409.481	312.32
409.69	336.89
409.898	265.21
410.107	330.75
410.315	359.42
410.524	326.65
410.733	414.71
410.941	316.41
411.15	441.34
411.358	474.1
411.567	494.58
411.775	455.67
411.984	502.78
412.192	486.39
412.401	445.43
412.609	480.25
412.818	580.6
413.026	531.45
413.234	547.83
413.443	547.83
413.651	568.31
413.86	697.33
414.068	676.85
414.276	795.64
414.485	652.28
414.693	830.45
414.901	762.87
415.11	769.01
415.318	750.58
415.526	822.26
415.734	848.88
415.943	748.53
416.151	838.64
416.359	900.08
416.567	908.27
416.776	936.95
416.984	1010.67
417.192	1100.78
417.4	1039.34
417.608	1000.43
417.817	1219.57
418.025	1145.84
418.233	1346.54
418.441	1203.18
418.649	1252.33
418.857	1321.96
419.065	1383.4
419.273	1438.7
419.481	1532.9
419.689	1461.23
419.897	1565.67
420.105	1661.93
420.313	1645.54
420.521	1727.46
420.729	1784.8
420.937	1743.85
421.145	1891.3
421.353	1942.5
421.561	2182.11
421.769	2237.41
421.977	2243.55
422.185	2223.07
422.393	2321.37
422.601	2446.3
422.809	2423.77
423.017	2487.26
423.224	2610.14
423.432	2780.12
423.64	2792.41
423.848	3064.79
424.056	2751.45
424.263	3048.4
424.471	3101.65
424.679	3300.3
424.887	3288.01
425.094	3410.89
425.302	3433.42
425.51	3599.31
425.718	3693.51
425.925	3759.05
426.133	3668.94
426.341	4060.1
426.548	4232.13
426.756	4185.02
426.964	4281.28
427.171	4649.91
427.379	4598.71
427.586	4678.58
427.794	4983.73
428.001	5014.45
428.209	5313.45
428.417	5174.19
428.624	5651.37
428.832	5542.83
429.039	5575.59
429.247	5706.66
429.454	6087.59
429.662	6509.47
429.869	6075.3
430.076	6591.39
430.284	6368.16
430.491	6572.96
430.699	7027.6
430.906	7109.52
431.114	7033.75
431.321	7275.41
431.528	7271.31
431.736	7932.81
431.943	8276.87
432.15	8090.5
432.358	8033.16
432.565	8428.42
432.772	8592.25
432.979	8977.27
433.187	9065.33
433.394	9143.16
433.601	9784.17
433.808	9894.76
434.016	9634.67
434.223	10146.66
434.43	10687.32
434.637	10711.9
434.844	11240.28
435.052	11342.67
435.259	11549.52
435.466	11512.66
435.673	11205.46
435.88	12161.86
436.087	12747.58
436.294	12821.31
436.501	12415.81
436.708	12776.25
436.915	13153.08
437.122	13740.85
437.329	13511.47
437.537	14123.82
437.743	14388
437.95	14353.19
438.157	15135.51
438.364	15518.48
438.571	15559.44
438.778	15686.42
438.985	17179.39
439.192	16390.92
439.399	16941.82
439.606	16382.73
439.813	17722.1
440.02	18741.99
440.227	18496.23
440.433	17959.66
440.64	18723.55
440.847	18371.3
441.054	19264.22
441.261	20368.07
441.467	20024.01
441.674	20495.05
441.881	20974.27
442.088	21297.85
442.294	20980.42
442.501	21424.83
442.708	21985.97
442.914	22733.48
443.121	24132.24
443.328	23149.21
443.534	24834.69
443.741	24283.79
443.948	23669.4
444.154	25383.55
444.361	25348.73
444.568	25453.18
444.774	25922.16
444.981	25377.4
445.187	26497.64
445.394	27724.38
445.6	27038.31
445.807	30054.97
446.013	28641.87
446.22	29319.74
446.426	30036.53
446.633	30833.19
446.839	31398.43
447.046	30577.2
447.252	31875.61
447.459	32082.45
447.665	31736.35
447.871	33255.94
448.078	34697.71
448.284	33114.63
448.491	33976.83
448.697	35293.67
448.903	35531.23
449.11	36051.42
449.316	35336.68
449.522	35922.4
449.728	36790.73
449.935	37173.7
450.141	36856.27
450.347	38181.31
450.553	36704.72
450.76	37441.99
450.966	38402.49
451.172	37925.31
451.378	39035.31
451.584	37913.02
451.791	39129.51
451.997	39004.59
452.203	39721.38
452.409	39207.34
452.615	39326.12
452.821	37380.55
453.027	37515.72
453.233	39510.44
453.44	38027.71
453.646	38078.91
453.852	38537.65
454.058	38793.65
454.264	37876.16
454.47	38613.43
454.676	37835.2
454.882	38646.19
455.088	35318.25
455.294	36225.5
455.5	36434.39
455.705	37245.38
455.911	35432.93
456.117	34863.6
456.323	34224.63
456.529	32619.02
456.735	33892.86
456.941	32905.74
457.147	32469.52
457.352	31504.93
457.558	30808.62
457.764	31066.66
457.97	30286.39
458.176	29923.9
458.381	29700.67
458.587	28609.1
458.793	28641.87
458.999	26651.24
459.204	28588.62
459.41	27861.59
459.616	26260.08
459.821	26473.07
460.027	26440.3
460.233	25592.44
460.438	24091.28
460.644	24590.98
460.85	23460.51
461.055	23089.82
461.261	22780.58
461.466	21324.47
461.672	20734.66
461.878	22248.11
462.083	20474.57
462.289	20382.41
462.494	20179.66
462.7	19090.14
462.905	18891.49
463.111	19364.57
463.316	19374.81
463.522	19030.75
463.727	18723.55
463.932	18885.34
464.138	18596.58
464.343	18598.63
464.549	17939.18
464.754	18776.8
464.959	18789.09
465.165	18510.57
465.37	17595.12
465.575	17040.12
465.781	18008.81
465.986	17961.71
466.191	17375.99
466.397	17040.12
466.602	16417.54
466.807	17015.55
467.012	17044.22
467.218	16870.14
467.423	16708.35
467.628	16853.76
467.833	17312.5
468.038	16769.79
468.244	16204.55
468.449	16988.92
468.654	16386.82
468.859	16366.34
469.064	16372.49
469.269	15614.74
469.474	15708.94
469.679	16118.54
469.885	15551.25
470.09	15629.07
470.295	15731.47
470.5	15112.99
470.705	15221.53
470.91	14877.47
471.115	14680.86
471.32	15012.63
471.525	14871.33
471.73	14697.25
471.935	14691.1
472.139	13986.6
472.344	14285.61
472.549	14062.38
472.754	13988.65
472.959	13658.93
473.164	13361.97
473.369	13159.22
473.574	13640.5
473.778	13349.68
473.983	13206.33
474.188	13445.94
474.393	12847.93
474.598	12890.94
474.802	12481.35
475.007	12598.08
475.212	12673.85
475.417	12102.47
475.621	12157.77
475.826	12303.17
476.031	12038.98
476.235	11686.73
476.44	11854.67
476.645	11467.6
476.849	11758.41
477.054	11610.96
477.259	11250.52
477.463	11299.67
477.668	10799.96
477.872	11164.5
478.077	11031.38
478.282	10662.75
478.486	10574.69
478.691	10709.85
478.895	10511.2
479.1	10648.41
479.304	10554.21
479.509	10263.4
479.713	10455.9
479.918	10113.89
480.122	9886.57
480.326	10373.99
480.531	10261.35
480.735	10046.31
480.94	9915.24
481.144	10255.2
481.348	9692.01
481.553	9960.3
481.757	9667.44
481.961	9681.77
482.166	9855.85
482.37	9818.99
482.574	9552.75
482.778	9763.69
482.983	9829.23
483.187	9522.03
483.391	9796.46
483.595	9407.34
483.8	9675.63
484.004	9802.6
484.208	9794.41
484.412	9517.93
484.616	9567.09
484.821	9843.56
485.025	9624.43
485.229	9698.16
485.433	9599.85
485.637	9761.64
485.841	9751.4
486.045	9562.99
486.249	9665.39
486.453	9599.85
486.657	9649
486.861	9747.31
487.065	9325.43
487.269	9657.2
487.473	9540.46
487.677	9646.96
487.881	9526.13
488.085	9640.81
488.289	9628.53
488.493	9571.18
488.697	9837.42
488.901	9864.04
489.105	9599.85
489.309	9888.62
489.512	9976.68
489.716	9757.55
489.92	9702.25
490.124	9745.26
490.328	10005.35
490.531	9761.64
490.735	9907.05
490.939	9978.73
491.143	9945.96
491.346	9894.76
491.55	9784.17
491.754	9964.39
491.958	10171.24
492.161	10091.37
492.365	10339.17
492.569	10167.14
492.772	10218.34
492.976	10355.55
493.18	10359.65
493.383	10546.02
493.587	10629.98
493.79	10589.02
493.994	10460
494.197	10689.37
494.401	10648.41
494.605	10593.12
494.808	11078.49
495.012	10992.47
495.215	11103.06
495.419	11105.11
495.622	11025.24
495.825	11316.05
496.029	11170.65
496.232	11635.53
496.436	11483.98
496.639	11729.74
496.843	11604.81
497.046	12028.74
497.249	12120.9
497.453	12157.77
497.656	12292.93
497.859	12378.95
498.063	12321.6
498.266	12770.11
498.469	12471.11
498.673	12694.33
498.876	13046.58
499.079	13134.65
499.282	12899.13
499.485	13419.32
499.689	13329.2
499.892	13593.39
500.095	13863.72
500.298	13916.97
500.501	13816.62
500.705	14158.63
500.908	14424.87
501.111	14533.41
501.314	14656.29
501.517	14932.76
501.72	15338.26
501.923	15237.91
502.126	15379.22
502.329	15684.37
502.532	15620.88
502.735	15604.5
502.938	16065.29
503.141	16257.8
503.344	16542.47
503.547	16927.49
503.75	16667.39
503.953	17062.65
504.156	17306.36
504.359	17588.98
504.562	17304.31
504.765	17869.55
504.968	17994.48
505.17	18133.74
505.373	18320.1
505.576	18698.98
505.779	18922.21
505.982	19055.33
506.185	19503.83
506.387	19436.25
506.59	19911.38
506.793	20212.43
506.996	19874.51
507.198	20499.14
507.401	20849.35
507.604	21084.86
507.807	21336.76
508.009	21596.85
508.212	21465.78
508.415	21918.39
508.617	22000.3
508.82	22438.57
509.022	22182.57
509.225	23071.39
509.428	23046.82
509.63	23454.36
509.833	23702.17
510.035	24009.36
510.238	23904.92
510.44	24525.45
510.643	24894.08
510.845	25084.55
511.048	24783.49
511.25	25293.44
511.453	25662.07
511.655	26514.03
511.858	26430.06
512.06	26327.66
512.262	27040.36
512.465	27128.42
512.667	27593.31
512.87	28121.68
513.072	27796.06
513.274	28625.48
513.477	29024.84
513.679	29604.41
513.881	29481.53
514.084	29999.67
514.286	30319.15
514.488	30601.77
514.69	31302.18
514.893	31199.78
515.095	31351.33
515.297	32373.27
515.499	32385.55
515.701	32862.73
515.904	33280.52
516.106	33731.07
516.308	34234.87
516.51	34492.91
516.712	34884.08
516.914	34910.7
517.116	35733.98
517.318	35879.39
517.52	36153.82
517.722	36299.22
517.925	37093.83
518.127	38087.1
518.329	37984.7
518.531	38062.52
518.733	38812.08
518.935	39125.42
519.136	39137.71
519.338	40366.49
519.54	40515.99
519.742	41222.54
519.944	41431.43
520.146	42154.36
520.348	42353.02
520.55	42451.32
520.752	43487.59
520.954	43975.01
521.155	43802.98
521.357	44573.02
521.559	44925.27
521.761	45723.97
521.963	45883.72
522.164	46444.86
522.366	46522.68
522.568	47120.69
522.77	47237.42
522.971	48359.71
523.173	48326.94
523.375	48961.81
523.576	49232.14
523.778	49418.51
523.98	50155.78
524.181	50551.04
524.383	50782.46
524.584	51323.12
524.786	51642.6
524.988	51544.3
525.189	52662.49
525.391	52842.71
525.592	53145.81
525.794	53895.37
525.995	53612.75
526.197	54249.67
526.398	54722.75
526.6	55087.29
526.801	55398.58
527.003	55591.09
527.204	56461.47
527.406	56221.86
527.607	56420.52
527.808	57008.28
528.01	56139.94
528.211	57292.95
528.412	58515.59
528.614	58024.07
528.815	58206.34
529.016	58880.13
529.218	58208.39
529.419	58867.84
529.62	59275.38
529.822	59461.75
530.023	59259
530.224	59854.96
530.425	60115.05
530.626	59650.16
530.828	59904.11
531.029	61354.07
531.23	60121.19
531.431	60520.55
531.632	60997.73
531.833	61247.58
532.035	61085.79
532.236	61573.2
532.437	61825.1
532.638	61915.22
532.839	62048.33
533.04	62410.82
533.241	61988.94
533.442	62922.82
533.643	62275.66
533.844	62701.64
534.045	62863.42
534.246	62599.24
534.447	62984.25
534.648	63064.13
534.849	63240.25
535.05	63123.52
535.251	63158.33
535.451	63094.85
535.652	63668.28
535.853	63350.84
536.054	63701.04
536.255	63897.65
536.456	63152.19
536.657	63905.84
536.857	63537.21
537.058	63422.52
537.259	63954.99
537.46	63907.89
537.66	63709.24
537.861	63932.46
538.062	64041.01
538.263	63903.79
538.463	63844.4
538.664	63934.51
538.865	63991.86
539.065	64139.31
539.266	63705.14
539.466	64139.31
539.667	63354.94
539.868	64139.31
540.068	64139.31
540.269	64139.31
540.469	64139.31
540.67	63871.03
540.87	64135.21
541.071	64018.48
541.271	64139.31
541.472	64139.31
541.672	64139.31
541.873	63922.22
542.073	63615.03
542.274	64139.31
542.474	63834.16
542.675	64020.53
542.875	64139.31
543.075	64139.31
543.276	63914.03
543.476	64139.31
543.676	64139.31
543.877	64139.31
544.077	64139.31
544.277	64139.31
544.478	64110.64
544.678	64139.31
544.878	64049.2
545.078	64139.31
545.279	64061.49
545.479	64139.31
545.679	64139.31
545.879	64139.31
546.079	64139.31
546.28	64139.31
546.48	64081.97
546.68	64139.31
546.88	64139.31
547.08	64114.73
547.28	64139.31
547.48	64012.34
547.68	64139.31
547.88	64053.29
548.081	64139.31
548.281	63815.73
548.481	63959.09
548.681	64139.31
548.881	64139.31
549.081	64139.31
549.28	64098.35
549.48	64139.31
549.68	64139.31
549.88	64139.31
550.08	64131.12
550.28	64139.31
550.48	64139.31
550.68	64139.31
550.88	64086.06
551.08	63848.5
551.279	64139.31
551.479	63787.06
551.679	63930.42
551.879	63774.77
552.079	64139.31
552.278	64024.62
552.478	64139.31
552.678	63959.09
552.878	64139.31
553.077	63670.32
553.277	63359.03
553.477	64139.31
553.676	63832.11
553.876	63844.4
554.076	63604.79
554.275	63797.3
554.475	63070.27
554.674	63443
554.874	63307.83
555.074	63580.21
555.273	63713.33
555.473	63621.17
555.672	62894.14
555.872	63209.53
556.071	63037.5
556.271	63172.67
556.47	62730.31
556.67	62623.81
556.869	62697.54
557.068	62883.9
557.268	62439.5
557.467	62582.85
557.667	62558.28
557.866	62105.68
558.065	62056.53
558.265	61841.49
558.464	61835.34
558.663	62120.01
558.863	61243.48
559.062	62083.15
559.261	61210.71
559.461	61857.87
559.66	60743.78
559.859	61235.29
560.058	60698.72
560.258	60924
560.457	60350.57
560.656	60606.56
560.855	59910.25
561.054	60432.49
561.253	59934.83
561.453	59902.06
561.652	59801.71
561.851	59963.5
562.05	59377.78
562.249	59420.79
562.448	59551.86
562.647	58937.47
562.846	58835.07
563.045	58960
563.244	58044.55
563.443	58892.41
563.642	57585.81
563.841	58335.37
564.04	57804.94
564.239	58400.9
564.438	57393.3
564.637	57409.68
564.836	57311.38
565.035	56629.41
565.234	57051.29
565.432	56664.22
565.631	56213.67
565.83	56303.78
566.029	55904.43
566.228	55509.17
566.427	55656.62
566.625	55132.34
566.824	54823.1
567.023	55247.03
567.222	54304.96
567.42	54657.21
567.619	54259.91
567.818	54403.27
568.016	54108.36
568.215	54319.3
568.414	53412.05
568.612	54003.91
568.811	53053.65
569.01	53059.8
569.208	52510.94
569.407	52932.82
569.605	52066.53
569.804	52633.82
570.002	51835.11
570.201	52457.7
570.4	51280.11
570.598	51185.91
570.797	50921.72
570.995	50733.31
571.193	50143.49
571.392	50727.16
571.59	49905.93
571.789	50020.61
571.987	49729.8
572.186	49408.27
572.384	49056.02
572.582	49430.8
572.781	49377.55
572.979	48556.32
573.177	48771.35
573.376	48316.7
573.574	48072.99
573.772	47909.16
573.971	47728.94
574.169	47466.8
574.367	47104.31
574.565	47022.39
574.763	46825.78
574.962	47055.15
575.16	46262.59
575.358	46809.4
575.556	45701.45
575.754	46285.12
575.952	45922.63
576.151	46215.49
576.349	45261.13
576.547	45443.4
576.745	45386.06
576.943	45244.75
577.141	44794.2
577.339	44714.33
577.537	43944.29
577.735	44411.23
577.933	43854.18
578.131	44036.45
578.329	43897.19
578.527	43153.77
578.725	43207.02
578.923	42905.97
579.121	42991.98
579.319	42735.99
579.516	43002.22
579.714	43049.33
579.912	42574.2
580.11	42619.25
580.308	42166.65
580.506	42316.15
580.704	41183.63
580.901	41763.2
581.099	41986.43
581.297	41515.4
581.495	41089.42
581.692	41269.64
581.89	40692.12
582.088	41206.16
582.285	40288.67
582.483	40477.08
582.681	40290.71
582.878	40094.11
583.076	39956.89
583.274	39805.34
583.471	39176.62
583.669	39764.39
583.866	39227.82
584.064	39444.9
584.262	38670.77
584.459	38969.77
584.657	38656.43
584.854	38912.43
585.052	38306.23
585.249	38588.85
585.447	38375.86
585.644	38148.54
585.841	38093.24
586.039	38097.34
586.236	37532.1
586.434	37257.67
586.631	36993.48
586.828	37396.93
587.026	37530.05
587.223	36884.94
587.42	37196.23
587.618	37274.06
587.815	36721.1
588.012	36491.73
588.21	36327.89
588.407	36831.69
588.604	36162.01
588.801	35760.61
588.999	35889.63
589.196	35746.27
589.393	35910.11
589.59	35799.52
589.787	35011.05
589.984	35668.45
590.182	35209.7
590.379	35238.37
590.576	34873.84
590.773	34955.75
590.97	34658.8
591.167	34947.56
591.364	34370.04
591.561	34400.76
591.758	33815.04
591.955	34011.64
592.152	34206.2
592.349	33722.88
592.546	33731.07
592.743	33894.91
592.94	32911.88
593.137	33554.94
593.334	33593.86
593.531	33012.23
593.727	33370.63
593.924	32918.03
594.121	32227.86
594.318	32973.32
594.515	32616.97
594.712	32856.59
594.908	32125.46
595.105	32655.89
595.302	31765.02
595.499	32064.02
595.696	31687.2
595.892	31611.42
596.089	31920.66
596.286	31883.8
596.482	31562.27
596.679	31629.85
596.876	31324.71
597.072	31306.27
597.269	31023.65
597.466	30712.36
597.662	30827.05
597.859	30812.71
598.055	30939.69
598.252	30575.15
598.448	30548.53
598.645	30583.34
598.841	29985.33
599.038	30392.88
599.234	30442.03
599.431	29651.52
599.627	29837.88
599.824	30026.29
600.02	29610.56
600.217	29465.15
600.413	29372.99
600.609	29389.38
600.806	29223.49
601.002	29303.36
601.198	28906.05
601.395	28734.03
601.591	28938.82
601.787	29102.66
601.984	28781.13
602.18	28979.78
602.376	28242.51
602.572	28256.85
602.769	28365.39
602.965	27806.3
603.161	28084.82
603.357	27720.28
603.553	27865.69
603.75	28078.68
603.946	27519.58
604.142	27968.09
604.338	27251.3
604.534	27347.55
604.73	27159.14
604.926	27165.28
605.122	27204.19
605.318	26856.04
605.514	27089.51
605.71	26671.72
605.906	26829.41
606.102	26749.54
606.298	26612.33
606.494	26563.18
606.69	26593.9
606.886	26727.02
607.082	26014.32
607.278	26169.97
607.474	26163.82
607.67	26219.12
607.866	25688.7
608.062	25999.99
608.257	25868.92
608.453	25649.78
608.649	25698.94
608.845	25221.76
609.041	25385.6
609.236	25346.69
609.432	25377.4
609.628	24967.81
609.824	25105.02
610.019	24840.84
610.215	24785.54
610.411	25238.14
610.606	24408.72
610.802	24875.65
610.998	24683.14
611.193	24775.3
611.389	24523.4
611.584	24257.17
611.78	24085.14
611.976	24322.7
612.171	24244.88
612.367	24283.79
612.562	24201.87
612.758	23909.01
612.953	23755.41
613.149	23892.63
613.344	23364.25
613.539	24078.99
613.735	23696.02
613.93	23687.83
614.126	23523.99
614.321	23415.45
614.517	23431.83
614.712	23300.76
614.907	23343.77
615.103	23214.75
615.298	22930.08
615.493	23153.31
615.688	22626.98
615.884	23265.95
616.079	22928.03
616.274	23048.86
616.47	22608.55
616.665	22438.57
616.86	22651.56
617.055	22715.05
617.25	22131.37
617.445	22528.68
617.641	22235.82
617.836	22280.88
618.031	22139.57
618.226	22452.91
618.421	21840.56
618.616	22018.74
618.811	21463.74
619.006	22076.08
619.201	21547.7
619.396	21510.84
619.591	21150.4
619.786	21277.37
619.981	20900.55
620.176	21404.35
620.371	20738.76
620.566	21142.21
620.761	20896.45
620.956	20904.64
621.151	20464.33
621.346	20671.17
621.541	20359.88
621.735	20490.95
621.93	19933.9
622.125	20345.55
622.32	19698.39
622.515	19899.09
622.709	19831.51
622.904	19641.04
623.099	19692.24
623.294	19768.02
623.488	19436.25
623.683	19274.46
623.878	19229.4
624.072	18897.63
624.267	19210.97
624.462	18770.66
624.656	18690.79
624.851	18727.65
625.046	18526.95
625.24	18500.33
625.435	18338.54
625.629	18242.28
625.824	18324.2
626.018	17924.85
626.213	17898.22
626.407	18105.07
626.602	17677.04
626.796	17701.62
626.991	17720.05
627.185	17709.81
627.38	17412.85
627.574	17302.26
627.768	17169.15
627.963	17113.85
628.157	16777.98
628.352	16986.88
628.546	16841.47
628.74	16972.54
628.935	16565
629.129	16386.82
629.323	16419.59
629.517	16583.43
629.712	16263.94
629.906	16225.03
630.1	16055.05
630.294	16067.34
630.489	16147.21
630.683	16300.81
630.877	15719.18
631.071	15825.68
631.265	15809.29
631.459	15786.77
631.653	15272.73
631.848	15469.33
632.042	15199
632.236	15538.96
632.43	15074.07
632.624	15153.94
632.818	14883.61
633.012	14848.8
633.206	14770.97
633.4	14756.64
633.594	14603.04
633.788	14748.45
633.982	14463.78
634.176	14471.97
634.369	14400.29
634.563	14625.57
634.757	14252.84
634.951	14244.65
635.145	14029.61
635.339	14185.26
635.533	13970.22
635.726	14064.43
635.92	13744.94
636.114	13679.41
636.308	13611.82
636.501	13574.96
636.695	13540.15
636.889	13318.96
637.083	13312.82
637.276	13216.57
637.47	13226.81
637.664	13091.64
637.857	12880.7
638.051	12962.62
638.244	12870.46
638.438	12786.49
638.632	12528.45
638.825	12538.69
639.019	12436.29
639.212	12505.92
639.406	12131.14
639.599	12356.42
639.793	12309.32
639.986	12104.52
640.18	11840.33
640.373	11998.02
640.567	11690.83
640.76	11940.68
640.954	11709.26
641.147	11703.12
641.34	11617.1
641.534	11541.33
641.727	11477.84
641.92	11336.53
642.114	11383.63
642.307	11174.74
642.5	11205.46
642.694	10890.07
642.887	10912.6
643.08	10924.89
643.273	10697.56
643.467	10779.48
643.66	10560.35
643.853	10593.12
644.046	10519.39
644.239	10488.67
644.432	10384.23
644.626	10320.74
644.819	10304.35
645.012	10328.93
645.205	10197.86
645.398	10189.67
645.591	10003.3
645.784	9933.67
645.977	9849.71
646.17	10034.02
646.363	9829.23
646.556	9532.27
646.749	9857.9
646.942	9773.93
647.135	9573.23
647.328	9775.98
647.521	9601.9
647.714	9397.1
647.907	9456.5
648.099	9468.78
648.292	9507.69
648.485	9239.41
648.678	9362.29
648.871	9108.34
649.064	9190.26
649.256	9036.66
649.449	8883.06
649.642	8895.35
649.835	8797.05
650.027	8760.19
650.22	8811.39
650.413	8735.61
650.605	8823.67
650.798	8655.74
650.991	8575.87
651.183	8743.8
651.376	8338.3
651.568	8436.61
651.761	8504.19
651.954	8584.06
652.146	8383.36
652.339	8375.17
652.531	8422.27
652.724	8240
652.916	8100.74
653.109	8147.84
653.301	8061.83
653.494	8088.45
653.686	7785.35
653.879	8006.53
654.071	7961.48
654.263	7840.65
654.456	8072.07
654.648	7981.96
654.84	7598.99
655.033	7754.63
655.225	7797.64
655.417	7535.5
655.61	7748.49
655.802	7527.31
655.994	7605.13
656.186	7699.34
656.379	7437.2
656.571	7566.22
656.763	7351.18
656.955	7433.1
657.148	7486.35
657.34	7375.76
657.532	7060.37
657.724	7080.85
657.916	7207.83
658.108	7177.11
658.3	6951.83
658.492	7273.36
658.684	6974.36
658.876	6970.26
659.068	7056.28
659.26	6759.32
659.452	7050.13
659.644	6798.23
659.836	6933.4
660.028	6949.78
660.22	6656.92
660.412	6658.97
660.604	6869.91
660.796	6708.12
660.988	6708.12
661.18	6755.22
661.372	6642.59
661.563	6689.69
661.755	6421.41
661.947	6456.22
662.139	6529.95
662.331	6482.85
662.522	6409.12
662.714	6554.52
662.906	6269.86
663.097	6468.51
663.289	6159.27
663.481	6286.24
663.673	6249.38
663.864	6265.76
664.056	6198.18
664.247	6271.9
664.439	6056.87
664.631	6235.04
664.822	6169.51
665.014	6153.12
665.205	6222.75
665.397	6224.8
665.588	6138.79
665.78	5925.8
665.971	6028.2
666.163	5813.16
666.354	6056.87
666.546	5868.45
666.737	5821.35
666.929	5872.55
667.12	6022.05
667.311	6067.11
667.503	5729.19
667.694	5886.89
667.885	5766.06
668.077	5858.21
668.268	5708.71
668.459	5903.27
668.651	5634.99
668.842	5723.05
669.033	5712.81
669.224	5684.14
669.416	5764.01
669.607	5759.91
669.798	5663.66
669.989	5733.29
670.18	5643.18
670.371	5667.75
670.563	5618.6
670.754	5655.47
670.945	5567.4
671.136	5624.75
671.327	5657.51
671.518	5733.29
671.709	5731.24
671.9	5819.3
672.091	5553.07
672.282	5602.22
672.473	5485.48
672.664	5639.08
672.855	5743.53
673.046	5440.43
673.237	5663.66
673.428	5520.3
673.619	5667.75
673.809	5696.43
674	5643.18
674.191	5774.25
674.382	5684.14
674.573	5643.18
674.764	5622.7
674.954	5663.66
675.145	5479.34
675.336	5512.11
675.527	5503.92
675.717	5600.17
675.908	5585.83
676.099	5657.51
676.289	5735.34
676.48	5610.41
676.671	5692.33
676.861	5569.45
677.052	5594.03
677.243	5626.79
677.433	5622.7
677.624	5817.26
677.814	5706.66
678.005	5821.35
678.195	5821.35
678.386	5673.9
678.576	5618.6
678.767	5489.58
678.957	5589.93
679.148	5886.89
679.338	5839.78
679.529	5768.1
679.719	5764.01
679.909	5706.66
680.1	5872.55
680.29	5909.41
680.481	5839.78
680.671	5827.5
680.861	5893.03
681.052	6118.31
681.242	6040.48
681.432	5995.43
681.622	5872.55
681.813	5989.28
682.003	5952.42
682.193	5813.16
682.383	5952.42
682.573	6122.4
682.764	5911.46
682.954	5893.03
683.144	5909.41
683.334	6110.11
683.524	6026.15
683.714	5940.13
683.904	5931.94
684.094	6069.16
684.284	5929.89
684.474	6085.54
684.664	5981.09
684.854	5919.65
685.044	6015.91
685.234	5884.84
685.424	5911.46
685.614	5950.37
685.804	5815.21
685.994	5798.82
686.184	5913.51
686.374	5919.65
686.564	5876.65
686.753	5839.78
686.943	5917.61
687.133	5807.02
687.323	6040.48
687.513	5979.04
687.702	5684.14
687.892	5815.21
688.082	5987.24
688.272	5733.29
688.461	5845.93
688.651	5815.21
688.841	5794.73
689.03	5770.15
689.22	5753.77
689.41	5780.39
689.599	5524.4
689.789	5694.38
689.979	5585.83
690.168	5757.86
690.358	5551.02
690.547	5575.59
690.737	5692.33
690.926	5661.61
691.116	5428.14
691.305	5532.59
691.495	5643.18
691.684	5448.62
691.874	5458.86
692.063	5618.6
692.252	5424.05
692.442	5495.72
692.631	5397.42
692.82	5530.54
693.01	5551.02
693.199	5399.47
693.388	5309.36
693.578	5364.65
693.767	5335.98
693.956	5436.33
694.146	5405.61
694.335	5374.89
694.524	5434.29
694.713	5479.34
694.902	5428.14
695.092	5432.24
695.281	5387.18
695.47	5487.53
695.659	5389.23
695.848	5567.4
696.037	5419.95
696.226	5462.96
696.415	5536.68
696.604	5565.36
696.793	5280.69
696.982	5520.3
697.171	5401.52
697.36	5356.46
697.549	5600.17
697.738	5544.88
697.927	5446.57
698.116	5526.44
698.305	5514.16
698.494	5450.67
698.683	5495.72
698.872	5630.89
699.061	5626.79
699.25	5651.37
699.438	5721
699.627	5559.21
699.816	5673.9
700.005	5598.12
700.193	5743.53
700.382	5835.69
700.571	5698.47
700.76	5946.28
700.948	5907.37
701.137	5684.14
701.326	5610.41
701.514	5847.97
701.703	5747.62
701.892	5798.82
702.08	5788.58
702.269	5864.36
702.457	5782.44
702.646	5817.26
702.834	5946.28
703.023	6040.48
703.212	5827.5
703.4	5856.17
703.589	5815.21
703.777	6028.2
703.965	5911.46
704.154	5946.28
704.342	6044.58
704.531	5948.33
704.719	5819.3
704.907	6206.37
705.096	5860.26
705.284	5995.43
705.472	5962.66
705.661	5878.69
705.849	6036.39
706.037	6030.24
706.226	6003.62
706.414	6146.98
706.602	6069.16
706.79	6144.93
706.979	5936.04
707.167	5921.7
707.355	5919.65
707.543	6210.47
707.731	6093.73
707.919	6099.87
708.107	6212.51
708.296	6097.83
708.484	6140.83
708.672	6155.17
708.86	6149.03
709.048	6108.07
709.236	6327.2
709.424	6218.66
709.612	6228.9
709.8	6378.4
709.988	6296.48
710.176	6421.41
710.364	6253.47
710.551	6495.13
710.739	6093.73
710.927	6292.38
711.115	6327.2
711.303	6421.41
711.491	6427.55
711.679	6306.72
711.866	6232.99
712.054	6466.46
712.242	6409.12
712.43	6343.58
712.617	6325.15
712.805	6544.28
712.993	6454.17
713.181	6425.5
713.368	6558.62
713.556	6394.78
713.744	6183.84
713.931	6560.67
714.119	6613.92
714.306	6437.79
714.494	6593.44
714.682	6517.66
714.869	6362.01
715.057	6507.42
715.244	6319.01
715.432	6568.86
715.619	6609.82
715.807	6527.9
715.994	6609.82
716.182	6577.05
716.369	6624.15
716.556	6546.33
716.744	6495.13
716.931	6585.24
717.119	6730.65
717.306	6837.14
717.493	6525.85
717.681	6650.78
717.868	6603.68
718.055	6581.15
718.242	6587.29
718.43	6630.3
718.617	6601.63
718.804	6511.52
718.991	6544.28
719.179	6685.59
719.366	6572.96
719.553	6839.19
719.74	6525.85
719.927	6663.07
720.114	6534.04
720.301	6548.38
720.488	6581.15
720.676	6622.11
720.863	6712.22
721.05	6638.49
721.237	6644.63
721.424	6706.07
721.611	6585.24
721.798	6650.78
721.985	6620.06
722.172	6495.13
722.358	6579.1
722.545	6638.49
722.732	6642.59
722.919	6618.01
723.106	6654.87
723.293	6724.51
723.48	6773.66
723.667	6597.53
723.853	6589.34
724.04	6609.82
724.227	6575
724.414	6663.07
724.6	6620.06
724.787	6779.8
724.974	6601.63
725.161	6501.28
725.347	6464.41
725.534	6513.56
725.72	6591.39
725.907	6613.92
726.094	6667.16
726.28	6728.6
726.467	6429.6
726.653	6583.2
726.84	6640.54
727.027	6790.04
727.213	6499.23
727.4	6585.24
727.586	6575
727.773	6615.96
727.959	6445.98
728.145	6585.24
728.332	6593.44
728.518	6443.93
728.705	6501.28
728.891	6699.93
729.077	6638.49
729.264	6640.54
729.45	6542.24
729.636	6665.11
729.823	6613.92
730.009	6556.57
730.195	6527.9
730.382	6577.05
730.568	6503.32
730.754	6626.2
730.94	6421.41
731.126	6618.01
731.313	6495.13
731.499	6372.25
731.685	6323.1
731.871	6575
732.057	6712.22
732.243	6708.12
732.429	6448.03
732.615	6501.28
732.801	6484.89
732.987	6597.53
733.173	6544.28
733.359	6413.21
733.545	6548.38
733.731	6450.08
733.917	6445.98
734.103	6517.66
734.289	6355.87
734.475	6552.48
734.661	6405.02
734.847	6294.43
735.033	6579.1
735.219	6421.41
735.404	6443.93
735.59	6214.56
735.776	6306.72
735.962	6405.02
736.148	6534.04
736.333	6380.45
736.519	6329.25
736.705	6435.74
736.89	6376.35
737.076	6347.68
737.262	6306.72
737.447	6296.48
737.633	6179.75
737.819	6232.99
738.004	6120.35
738.19	6073.25
738.375	6196.13
738.561	6263.71
738.747	6036.39
738.932	6126.5
739.118	6347.68
739.303	6058.92
739.489	6022.05
739.674	5991.33
739.859	6245.28
740.045	6032.29
740.23	6024.1
740.416	6011.81
740.601	6126.5
740.786	5915.56
740.972	6017.96
741.157	5903.27
741.342	5831.59
741.528	5921.7
741.713	5839.78
741.898	5884.84
742.084	5792.68
742.269	5827.5
742.454	5739.43
742.639	5794.73
742.824	5690.28
743.01	5778.34
743.195	5798.82
743.38	5743.53
743.565	5665.71
743.75	5675.95
743.935	5450.67
744.12	5544.88
744.305	5551.02
744.49	5553.07
744.675	5548.97
744.86	5333.93
745.045	5469.1
745.23	5561.26
745.415	5313.45
745.6	5370.8
745.785	5325.74
745.97	5249.97
746.155	5247.92
746.34	5395.37
746.525	5288.88
746.71	5266.35
746.895	5120.95
747.079	5108.66
747.264	5041.08
747.449	5178.29
747.634	4955.06
747.819	5034.93
748.003	5026.74
748.188	4946.87
748.373	4963.25
748.557	5002.16
748.742	4832.18
748.927	4680.63
749.111	4711.35
749.296	4721.59
749.481	4869.05
749.665	4764.6
749.85	4707.26
750.034	4778.94
750.219	4748.22
750.404	4574.14
750.588	4387.77
750.773	4594.62
750.957	4570.04
751.141	4486.08
751.326	4406.2
751.51	4303.81
751.695	4426.68
751.879	4348.86
752.064	4307.9
752.248	4262.85
752.432	4277.18
752.617	4170.69
752.801	4144.06
752.985	4066.24
753.17	4029.38
753.354	4029.38
753.538	4037.57
753.722	3890.12
753.907	4019.14
754.091	3840.97
754.275	3892.16
754.459	3918.79
754.643	3734.47
754.828	3810.25
755.012	3888.07
755.196	3695.56
755.38	3636.17
755.564	3623.88
755.748	3587.02
755.932	3795.91
756.116	3632.07
756.3	3640.26
756.484	3597.26
756.668	3615.69
756.852	3371.98
757.036	3331.02
757.22	3546.06
757.404	3558.35
757.588	3443.66
757.772	3292.11
757.956	3427.28
758.14	3386.32
758.323	3322.83
758.507	3386.32
758.691	3161.04
758.875	3222.48
759.059	3171.28
759.242	3136.46
759.426	3208.14
759.61	3109.84
759.794	3070.93
759.977	3146.7
760.161	3124.18
760.345	3177.42
760.528	3095.5
760.712	2954.19
760.895	2952.15
761.079	3011.54
761.263	3038.16
761.446	2903
761.63	2886.61
761.813	3062.74
761.997	2878.42
762.18	2878.42
762.364	2931.67
762.547	2814.93
762.731	2874.32
762.914	2816.98
763.098	2829.27
763.281	2644.95
763.464	2702.29
763.648	2726.87
763.831	2632.66
764.015	2585.56
764.198	2681.82
764.381	2757.59
764.564	2579.42
764.748	2741.21
764.931	2618.33
765.114	2601.94
765.297	2679.77
765.481	2595.8
765.664	2669.53
765.847	2587.61
766.03	2655.19
766.213	2544.6
766.397	2507.74
766.58	2536.41
766.763	2565.08
766.946	2565.08
767.129	2382.81
767.312	2401.24
767.495	2468.83
767.678	2477.02
767.861	2409.44
768.044	2362.33
768.227	2460.63
768.41	2382.81
768.593	2429.91
768.776	2358.24
768.959	2360.28
769.142	2350.04
769.324	2325.47
769.507	2315.23
769.69	2198.49
769.873	2243.55
770.056	2296.8
770.239	2345.95
770.421	2208.73
770.604	2315.23
770.787	2280.41
770.97	2190.3
771.152	2153.44
771.335	2145.25
771.518	2065.38
771.7	2155.49
771.883	2268.13
772.066	2071.52
772.248	2157.54
772.431	2071.52
772.613	2173.92
772.796	1971.17
772.978	2061.28
773.161	2120.67
773.343	2030.56
773.526	1952.74
773.708	1989.6
773.891	1942.5
774.073	1977.31
774.256	1942.5
774.438	2010.08
774.621	1881.06
774.803	1922.02
774.985	1809.38
775.168	1924.07
775.35	1856.48
775.532	1860.58
775.715	1969.12
775.897	1772.52
776.079	1756.13
776.261	1733.61
776.444	1827.81
776.626	1704.93
776.808	1760.23
776.99	1670.12
777.173	1825.76
777.355	1641.45
777.537	1788.9
777.719	1678.31
777.901	1604.58
778.083	1635.3
778.265	1590.25
778.447	1627.11
778.629	1592.3
778.811	1612.78
778.993	1588.2
779.175	1537
779.357	1666.02
779.539	1553.38
779.721	1545.19
779.903	1590.25
780.085	1522.66
780.267	1539.05
780.449	1475.56
780.631	1477.61
780.812	1487.85
780.994	1428.46
781.176	1403.88
781.358	1442.79
781.54	1393.64
781.721	1412.07
781.903	1399.79
782.085	1430.51
782.267	1358.83
782.448	1201.13
782.63	1281
782.812	1338.35
782.993	1377.26
783.175	1334.25
783.357	1295.34
783.538	1217.52
783.72	1313.77
783.901	1244.14
784.083	1307.63
784.264	1283.05
784.446	1260.52
784.627	1096.69
784.809	1178.61
784.99	1192.94
785.172	1250.28
785.353	1180.65
785.535	1192.94
785.716	1151.98
785.897	1078.26
786.079	1149.93
786.26	1209.33
786.441	998.38
786.623	1127.41
786.804	1059.82
786.985	1072.11
787.167	1092.59
787.348	1059.82
787.529	1055.73
787.71	1063.92
787.891	1070.06
788.073	1002.48
788.254	973.81
788.435	1090.54
788.616	949.23
788.797	986.1
788.978	924.66
789.159	900.08
789.34	949.23
789.522	957.43
789.703	982
789.884	924.66
790.065	914.42
790.246	951.28
790.427	822.26
790.607	891.89
790.788	910.32
790.969	881.65
791.15	881.65
791.331	822.26
791.512	777.2
791.693	783.35
791.874	855.03
792.054	865.27
792.235	883.7
792.416	852.98
792.597	758.77
792.778	910.32
792.958	773.11
793.139	828.4
793.32	863.22
793.5	764.92
793.681	873.46
793.862	793.59
794.042	760.82
794.223	793.59
794.404	715.77
794.584	685.05
794.765	797.68
794.945	719.86
795.126	760.82
795.306	736.24
795.487	754.68
795.667	674.81
795.848	719.86
796.028	734.2
796.209	785.4
796.389	797.68
796.57	769.01
796.75	689.14
796.93	693.24
797.111	756.72
797.291	644.09
797.471	687.09
797.652	629.75
797.832	676.85
798.012	695.29
798.192	613.37
798.373	568.31
798.553	611.32
798.733	707.57
798.913	633.85
799.093	635.89
799.274	635.89
799.454	715.77
799.634	613.37
799.814	758.77
799.994	683
800.174	670.71
800.354	676.85
800.534	652.28
800.714	609.27
800.894	570.36
801.074	510.97
801.254	578.55
801.434	621.56
801.614	529.4
801.794	523.26
801.974	1262.57
802.154	572.41
802.334	674.81
802.514	531.45
802.693	576.5
802.873	570.36
803.053	568.31
803.233	547.83
803.413	609.27
803.592	517.11
803.772	545.78
803.952	480.25
804.131	470.01
804.311	545.78
804.491	556.02
804.67	529.4
804.85	517.11
805.03	537.59
805.209	541.69
805.389	474.1
805.568	506.87
805.748	513.02
805.928	465.91
806.107	424.95
806.287	478.2
806.466	517.11
806.646	457.72
806.825	470.01
807.004	527.35
807.184	482.3
807.363	529.4
807.543	506.87
807.722	431.1
807.901	515.06
808.081	510.97
808.26	467.96
808.439	541.69
808.619	490.49
808.798	433.15
808.977	429.05
809.156	504.82
809.336	441.34
809.515	457.72
809.694	383.99
809.873	410.62
810.052	390.14
810.231	467.96
810.411	390.14
810.59	392.19
810.769	461.82
810.948	443.39
811.127	375.8
811.306	480.25
811.485	398.33
811.664	470.01
811.843	443.39
812.022	420.86
812.201	353.27
812.38	472.06
812.559	416.76
812.737	392.19
812.916	318.46
813.095	293.88
813.274	383.99
813.453	363.51
813.632	365.56
813.811	502.78
813.989	316.41
814.168	357.37
814.347	359.42
814.526	383.99
814.704	375.8
814.883	437.24
815.062	431.1
815.24	371.71
815.419	310.27
815.598	390.14
815.776	261.12
815.955	377.85
816.133	300.03
816.312	293.88
816.49	322.56
816.669	449.53
816.847	367.61
817.026	367.61
817.204	322.56
817.383	316.41
817.561	324.6
817.74	365.56
817.918	334.84
818.097	314.36
818.275	375.8
818.453	398.33
818.632	398.33
818.81	244.73
818.988	340.99
819.167	334.84
819.345	336.89
819.523	277.5
819.701	304.12
819.879	371.71
820.058	338.94
820.236	302.08
820.414	267.26
820.592	355.32
820.77	343.03
820.948	257.02
821.127	283.64
821.305	330.75
821.483	248.83
821.661	347.13
821.839	289.79
822.017	283.64
822.195	279.55
822.373	334.84
822.551	289.79
822.729	367.61
822.907	162.81
823.085	312.32
823.262	246.78
823.44	238.59
823.618	191.49
823.796	269.31
823.974	175.1
824.152	185.34
824.329	283.64
824.507	250.88
824.685	252.92
824.863	236.54
825.04	273.4
825.218	218.11
825.396	195.58
825.574	211.96
825.751	297.98
825.929	302.08
826.107	205.82
826.284	326.65
826.462	205.82
826.639	226.3
826.817	209.92
826.994	226.3
827.172	218.11
827.349	359.42
827.527	234.49
827.704	191.49
827.882	277.5
828.059	211.96
828.237	232.44
828.414	306.17
828.591	201.72
828.769	207.87
828.946	214.01
829.124	267.26
829.301	236.54
829.478	242.68
829.655	316.41
829.833	232.44
830.01	168.96
830.187	224.25
830.364	191.49
830.542	203.77
830.719	199.68
830.896	152.57
831.073	273.4
831.25	252.92
831.427	173.05
831.604	218.11
831.782	205.82
831.959	168.96
832.136	238.59
832.313	218.11
832.49	226.3
832.667	250.88
832.844	164.86
833.021	291.84
833.198	218.11
833.374	197.63
833.551	234.49
833.728	189.44
833.905	261.12
834.082	152.57
834.259	171.01
834.436	236.54
834.612	121.85
834.789	203.77
834.966	216.06
835.143	226.3
835.319	162.81
835.496	214.01
835.673	207.87
835.85	224.25
836.026	171.01
836.203	216.06
836.38	119.81
836.556	160.77
836.733	72.7
836.909	185.34
837.086	117.76
837.262	146.43
837.439	207.87
837.616	171.01
837.792	146.43
837.968	142.33
838.145	119.81
838.321	89.09
838.498	158.72
838.674	113.66
838.851	140.29
839.027	138.24
839.203	160.77
839.38	183.29
839.556	130.05
839.732	132.09
839.909	160.77
840.085	103.42
840.261	105.47
840.437	136.19
840.614	103.42
840.79	226.3
840.966	134.14
841.142	181.25
841.318	111.61
841.494	150.53
841.671	226.3
841.847	76.8
842.023	125.95
842.199	150.53
842.375	209.92
842.551	97.28
842.727	166.91
842.903	175.1
843.079	29.7
843.255	234.49
843.431	76.8
843.607	111.61
843.783	72.7
843.959	121.85
844.134	76.8
844.31	125.95
844.486	48.13
844.662	97.28
844.838	89.09
845.013	91.13
845.189	156.67
845.365	103.42
845.541	89.09
845.716	103.42
845.892	115.71
846.068	76.8
846.244	125.95
846.419	138.24
846.595	117.76
846.77	72.7
846.946	189.44
847.122	101.37
847.297	62.46
847.473	185.34
847.648	119.81
847.824	99.33
847.999	37.89
848.175	115.71
848.35	134.14
848.526	76.8
848.701	134.14
848.876	23.55
849.052	101.37
849.227	25.6
849.403	156.67
849.578	64.51
849.753	201.72
849.929	121.85
850.104	46.08
850.279	97.28
850.454	113.66
850.63	138.24
850.805	72.7
850.98	138.24
851.155	62.46
851.33	54.27
851.505	54.27
851.681	117.76
851.856	37.89
852.031	84.99
852.206	80.89
852.381	7.17
852.556	82.94
852.731	138.24
852.906	121.85
853.081	64.51
853.256	154.62
853.431	107.52
853.606	72.7
853.781	-23.55
853.956	56.32
854.131	27.65
854.305	39.94
854.48	31.74
854.655	23.55
854.83	74.75
855.005	41.98
855.18	72.7
855.354	31.74
855.529	105.47
855.704	35.84
855.879	117.76
856.053	-5.12
856.228	87.04
856.403	117.76
856.577	78.85
856.752	80.89
856.926	97.28
857.101	48.13
857.276	21.5
857.45	29.7
857.625	142.33
857.799	68.61
857.974	54.27
858.148	-31.74
858.323	101.37
858.497	78.85
858.672	78.85
858.846	56.32
859.02	56.32
859.195	23.55
859.369	84.99
859.543	-3.07
859.718	3.07
859.892	11.26
860.066	109.57
860.241	62.46
860.415	7.17
860.589	37.89
860.763	97.28
860.938	31.74
861.112	105.47
861.286	-9.22
861.46	23.55
861.634	27.65
861.808	95.23
861.982	89.09
862.157	-41.98
862.331	35.84
862.505	48.13
862.679	48.13
862.853	44.03
863.027	72.7
863.201	95.23
863.375	29.7
863.549	56.32
863.722	89.09
863.896	39.94
864.07	23.55
864.244	-1.02
864.418	82.94
864.592	66.56
864.766	50.18
864.939	31.74
865.113	-17.41
865.287	89.09
865.461	29.7
865.634	23.55
865.808	29.7
865.982	62.46
866.156	52.22
866.329	1.02
866.503	97.28
866.676	76.8
866.85	37.89
867.024	27.65
867.197	60.42
867.371	68.61
867.544	29.7
867.718	27.65
867.891	152.57
868.065	19.46
868.238	21.5
868.412	62.46
868.585	37.89
868.759	-21.5
868.932	35.84
869.105	7.17
869.279	27.65
869.452	15.36
869.625	23.55
869.799	87.04
869.972	-17.41
870.145	7.17
870.319	15.36
870.492	27.65
870.665	7.17
870.838	46.08
871.011	-62.46
871.185	117.76
871.358	15.36
871.531	33.79
871.704	-5.12
871.877	64.51
872.05	93.18
872.223	7.17
872.396	52.22
872.569	3.07
872.742	13.31
872.915	91.13
873.088	39.94
873.261	-7.17
873.434	23.55
873.607	60.42
873.78	54.27
873.953	1.02
874.126	11.26
874.299	39.94
874.471	-17.41
874.644	29.7
874.817	39.94
874.99	60.42
875.163	37.89
875.335	31.74
875.508	23.55
875.681	93.18
875.853	115.71
876.026	-23.55
876.199	48.13
876.371	-11.26
876.544	-13.31
876.717	-21.5
876.889	44.03
877.062	37.89
877.234	-46.08
877.407	-46.08
877.579	-13.31
877.752	80.89
877.924	35.84
878.097	60.42
878.269	-1.02
878.442	35.84
878.614	119.81
878.786	31.74
878.959	31.74
879.131	80.89
879.303	-21.5
879.476	-9.22
879.648	117.76
879.82	25.6
879.993	19.46
880.165	11.26
880.337	23.55
880.509	87.04
880.681	-68.61
880.854	130.05
881.026	48.13
881.198	105.47
881.37	56.32
881.542	-5.12
881.714	-9.22
881.886	52.22
882.058	97.28
882.23	-1.02
882.402	11.26
882.574	48.13
882.746	11.26
882.918	84.99
883.09	-11.26
883.262	21.5
883.434	54.27
883.606	-68.61
883.778	5.12
883.95	95.23
884.122	64.51
884.293	-9.22
884.465	97.28
884.637	35.84
884.809	-5.12
884.98	82.94
885.152	23.55
885.324	89.09
885.496	27.65
885.667	39.94
885.839	-21.5
886.011	56.32
886.182	11.26
886.354	-7.17
886.525	70.65
886.697	21.5
886.869	7.17
887.04	-1.02
887.212	29.7
887.383	-11.26
887.555	91.13
887.726	31.74
887.897	-27.65
888.069	78.85
888.24	62.46
888.412	11.26
888.583	15.36
888.754	-25.6
888.926	-33.79
889.097	21.5
889.268	-13.31
889.44	70.65
889.611	-41.98
889.782	-25.6
889.953	-5.12
890.125	7.17
890.296	37.89
890.467	-39.94
890.638	19.46
890.809	7.17
890.98	56.32
891.151	50.18
891.323	5.12
891.494	-48.13
891.665	-9.22
891.836	-5.12
892.007	35.84
892.178	-17.41
892.349	39.94
892.52	-9.22
892.691	35.84
892.862	56.32
893.032	-50.18
893.203	39.94
893.374	119.81
893.545	82.94
893.716	-52.22
893.887	27.65
894.057	-25.6
894.228	56.32
894.399	-41.98
894.57	46.08
894.74	29.7
894.911	70.65
895.082	35.84
895.253	-9.22
895.423	-46.08
895.594	54.27
895.764	-17.41
895.935	-58.37
896.106	62.46
896.276	-33.79
896.447	23.55
896.617	-5.12
896.788	-21.5
896.958	3.07
897.129	-78.85
897.299	-41.98
897.47	64.51
897.64	35.84
897.81	-5.12
897.981	-29.7
898.151	-33.79
898.322	25.6
898.492	54.27
898.662	-64.51
898.832	-33.79
899.003	31.74
899.173	-7.17
899.343	-23.55
899.513	-74.75
