Data from USB4F104151__52__11-30-35-361.txt Node

Date: Fri Mar 14 11:30:35 EDT 2025
User: louis
Spectrometer: USB4F10415
Trigger mode: 4
Integration Time (sec): 5.000000E-2
Scans to average: 1
Electric dark correction enabled: true
Nonlinearity correction enabled: false
Boxcar width: 0
XAxis mode: Wavelengths
Number of Pixels in Spectrum: 3648
>>>>>Begin Spectral Data<<<<<
178.204	-160.94
178.424	-160.94
178.644	-160.94
178.864	-218.28
179.084	-146.6
179.304	-3.24
179.524	2.9
179.744	25.43
179.964	50
180.184	-31.91
180.404	68.44
180.624	-122.02
180.844	35.67
181.064	-7.34
181.283	9.05
181.503	-9.39
181.723	-17.58
181.943	-48.3
182.163	27.48
182.383	-31.91
182.602	58.2
182.822	-7.34
183.042	47.96
183.262	-58.54
183.482	29.52
183.701	-46.25
183.921	-9.39
184.141	33.62
184.361	78.68
184.58	2.9
184.8	-17.58
185.02	58.2
185.239	82.77
185.459	88.92
185.679	54.1
185.898	29.52
186.118	31.57
186.338	9.05
186.557	70.48
186.777	-36.01
186.997	58.2
187.216	50
187.436	107.35
187.655	80.72
187.875	33.62
188.095	39.76
188.314	-9.39
188.534	82.77
188.753	97.11
188.973	-52.39
189.192	111.44
189.412	9.05
189.631	29.52
189.851	-23.72
190.07	115.54
190.29	23.38
190.509	58.2
190.729	64.34
190.948	33.62
191.168	205.65
191.387	41.81
191.607	15.19
191.826	-33.96
192.045	33.62
192.265	-23.72
192.484	58.2
192.704	41.81
192.923	-66.73
193.142	144.21
193.362	45.91
193.581	23.38
193.8	74.58
194.02	115.54
194.239	-70.83
194.458	-1.19
194.678	74.58
194.897	60.24
195.116	-9.39
195.335	-38.06
195.555	-9.39
195.774	88.92
195.993	41.81
196.212	7
196.432	-11.43
196.651	35.67
196.87	23.38
197.089	78.68
197.308	-17.58
197.528	-23.72
197.747	41.81
197.966	-17.58
198.185	43.86
198.404	25.43
198.623	82.77
198.842	13.14
199.062	43.86
199.281	82.77
199.5	-23.72
199.719	43.86
199.938	0.85
200.157	66.39
200.376	27.48
200.595	66.39
200.814	-17.58
201.033	37.72
201.252	74.58
201.471	88.92
201.69	21.33
201.909	0.85
202.128	64.34
202.347	50
202.566	-5.29
202.785	-44.2
203.004	-58.54
203.223	78.68
203.442	29.52
203.661	76.63
203.879	31.57
204.098	66.39
204.317	84.82
204.536	105.3
204.755	82.77
204.974	37.72
205.193	17.24
205.411	50
205.63	-25.77
205.849	54.1
206.068	86.87
206.287	-58.54
206.505	2.9
206.724	39.76
206.943	29.52
207.162	-9.39
207.381	62.29
207.599	21.33
207.818	64.34
208.037	25.43
208.255	33.62
208.474	17.24
208.693	41.81
208.911	-9.39
209.13	39.76
209.349	66.39
209.567	64.34
209.786	78.68
210.005	80.72
210.223	50
210.442	29.52
210.661	115.54
210.879	-31.91
211.098	15.19
211.316	0.85
211.535	90.96
211.753	-83.11
211.972	-31.91
212.191	-13.48
212.409	9.05
212.628	95.06
212.846	-7.34
213.065	80.72
213.283	17.24
213.502	17.24
213.72	-1.19
213.938	43.86
214.157	4.95
214.375	37.72
214.594	17.24
214.812	39.76
215.031	29.52
215.249	-25.77
215.467	25.43
215.686	-3.24
215.904	13.14
216.122	-9.39
216.341	68.44
216.559	9.05
216.778	50
216.996	27.48
217.214	25.43
217.432	-42.15
217.651	80.72
217.869	70.48
218.087	-3.24
218.306	9.05
218.524	25.43
218.742	-1.19
218.96	60.24
219.179	37.72
219.397	0.85
219.615	82.77
219.833	-42.15
220.051	33.62
220.27	54.1
220.488	50
220.706	78.68
220.924	41.81
221.142	35.67
221.36	25.43
221.578	66.39
221.796	56.15
222.015	-13.48
222.233	50
222.451	43.86
222.669	33.62
222.887	4.95
223.105	-25.77
223.323	47.96
223.541	33.62
223.759	-17.58
223.977	58.2
224.195	21.33
224.413	-9.39
224.631	43.86
224.849	-17.58
225.067	54.1
225.285	0.85
225.503	11.09
225.721	-23.72
225.939	-42.15
226.157	41.81
226.375	107.35
226.592	-23.72
226.81	29.52
227.028	31.57
227.246	144.21
227.464	68.44
227.682	58.2
227.9	31.57
228.117	80.72
228.335	70.48
228.553	25.43
228.771	2.9
228.989	58.2
229.206	17.24
229.424	-42.15
229.642	37.72
229.86	52.05
230.077	15.19
230.295	9.05
230.513	64.34
230.731	97.11
230.948	74.58
231.166	86.87
231.384	-1.19
231.601	80.72
231.819	99.16
232.037	9.05
232.254	-50.35
232.472	80.72
232.689	64.34
232.907	41.81
233.125	-23.72
233.342	-23.72
233.56	-7.34
233.777	-9.39
233.995	21.33
234.213	90.96
234.43	95.06
234.648	64.34
234.865	17.24
235.083	7
235.3	9.05
235.518	-7.34
235.735	82.77
235.953	52.05
236.17	25.43
236.388	0.85
236.605	70.48
236.822	62.29
237.04	84.82
237.257	50
237.475	45.91
237.692	-15.53
237.909	33.62
238.127	19.29
238.344	62.29
238.562	11.09
238.779	9.05
238.996	9.05
239.214	0.85
239.431	41.81
239.648	-31.91
239.865	62.29
240.083	21.33
240.3	2.9
240.517	-15.53
240.735	-40.11
240.952	-31.91
241.169	-3.24
241.386	70.48
241.603	-56.49
241.821	25.43
242.038	82.77
242.255	25.43
242.472	13.14
242.689	66.39
242.907	17.24
243.124	27.48
243.341	23.38
243.558	78.68
243.775	-19.63
243.992	39.76
244.209	52.05
244.426	25.43
244.643	95.06
244.86	-40.11
245.078	64.34
245.295	-64.68
245.512	90.96
245.729	-31.91
245.946	45.91
246.163	29.52
246.38	45.91
246.597	9.05
246.814	21.33
247.031	-52.39
247.248	31.57
247.464	-19.63
247.681	43.86
247.898	50
248.115	64.34
248.332	41.81
248.549	27.48
248.766	123.73
248.983	-3.24
249.2	140.12
249.417	37.72
249.633	25.43
249.85	-1.19
250.067	52.05
250.284	47.96
250.501	0.85
250.717	27.48
250.934	37.72
251.151	31.57
251.368	50
251.585	84.82
251.801	-25.77
252.018	-64.68
252.235	0.85
252.451	-15.53
252.668	17.24
252.885	17.24
253.102	25.43
253.318	29.52
253.535	82.77
253.752	4.95
253.968	25.43
254.185	-29.87
254.401	54.1
254.618	58.2
254.835	-7.34
255.051	133.97
255.268	115.54
255.484	13.14
255.701	4.95
255.917	7
256.134	-56.49
256.351	-23.72
256.567	9.05
256.784	4.95
257	-79.02
257.217	19.29
257.433	-11.43
257.65	45.91
257.866	56.15
258.082	-48.3
258.299	-17.58
258.515	0.85
258.732	39.76
258.948	-13.48
259.165	11.09
259.381	-11.43
259.597	0.85
259.814	-7.34
260.03	9.05
260.246	9.05
260.463	41.81
260.679	62.29
260.895	56.15
261.112	82.77
261.328	-23.72
261.544	43.86
261.761	105.3
261.977	41.81
262.193	-81.07
262.409	47.96
262.626	80.72
262.842	39.76
263.058	13.14
263.274	9.05
263.49	33.62
263.707	0.85
263.923	-9.39
264.139	23.38
264.355	27.48
264.571	138.07
264.787	9.05
265.004	80.72
265.22	47.96
265.436	-89.26
265.652	72.53
265.868	-19.63
266.084	-7.34
266.3	15.19
266.516	-60.59
266.732	-1.19
266.948	-7.34
267.164	37.72
267.38	76.63
267.596	43.86
267.812	72.53
268.028	54.1
268.244	23.38
268.46	-44.2
268.676	-11.43
268.892	31.57
269.108	-19.63
269.324	-81.07
269.54	7
269.756	25.43
269.972	76.63
270.188	43.86
270.403	-27.82
270.619	-25.77
270.835	62.29
271.051	74.58
271.267	-17.58
271.483	43.86
271.698	58.2
271.914	9.05
272.13	138.07
272.346	39.76
272.562	-25.77
272.777	90.96
272.993	2.9
273.209	-11.43
273.425	-1.19
273.64	-54.44
273.856	66.39
274.072	-19.63
274.287	-1.19
274.503	37.72
274.719	82.77
274.934	-5.29
275.15	-64.68
275.366	25.43
275.581	25.43
275.797	9.05
276.012	50
276.228	58.2
276.444	66.39
276.659	41.81
276.875	-5.29
277.09	-56.49
277.306	47.96
277.521	27.48
277.737	-48.3
277.952	197.46
278.168	56.15
278.383	76.63
278.599	-44.2
278.814	66.39
279.03	21.33
279.245	103.25
279.461	15.19
279.676	123.73
279.892	-31.91
280.107	-68.78
280.322	-19.63
280.538	45.91
280.753	35.67
280.969	60.24
281.184	25.43
281.399	66.39
281.615	86.87
281.83	66.39
282.045	31.57
282.26	-42.15
282.476	9.05
282.691	-7.34
282.906	41.81
283.122	70.48
283.337	39.76
283.552	19.29
283.767	90.96
283.983	103.25
284.198	-15.53
284.413	115.54
284.628	7
284.843	0.85
285.058	31.57
285.274	82.77
285.489	58.2
285.704	99.16
285.919	2.9
286.134	95.06
286.349	58.2
286.564	-23.72
286.779	88.92
286.995	-15.53
287.21	-17.58
287.425	82.77
287.64	17.24
287.855	11.09
288.07	-72.87
288.285	33.62
288.5	45.91
288.715	29.52
288.93	-44.2
289.145	13.14
289.36	62.29
289.575	39.76
289.79	-7.34
290.004	21.33
290.219	-5.29
290.434	0.85
290.649	37.72
290.864	-31.91
291.079	25.43
291.294	74.58
291.509	23.38
291.724	-7.34
291.938	-52.39
292.153	-5.29
292.368	17.24
292.583	80.72
292.798	25.43
293.012	129.88
293.227	66.39
293.442	-58.54
293.657	66.39
293.871	62.29
294.086	-11.43
294.301	50
294.516	13.14
294.73	31.57
294.945	-1.19
295.16	66.39
295.374	33.62
295.589	33.62
295.804	-31.91
296.018	9.05
296.233	66.39
296.447	29.52
296.662	21.33
296.877	84.82
297.091	58.2
297.306	41.81
297.52	7
297.735	-21.67
297.949	64.34
298.164	78.68
298.378	21.33
298.593	54.1
298.807	-27.82
299.022	52.05
299.236	41.81
299.451	-11.43
299.665	23.38
299.88	99.16
300.094	13.14
300.309	-64.68
300.523	-7.34
300.737	90.96
300.952	7
301.166	39.76
301.381	99.16
301.595	23.38
301.809	41.81
302.024	-11.43
302.238	13.14
302.452	-7.34
302.667	90.96
302.881	66.39
303.095	-9.39
303.309	74.58
303.524	23.38
303.738	0.85
303.952	31.57
304.166	66.39
304.381	4.95
304.595	11.09
304.809	23.38
305.023	84.82
305.237	-11.43
305.452	-17.58
305.666	17.24
305.88	119.64
306.094	9.05
306.308	66.39
306.522	82.77
306.736	0.85
306.95	-19.63
307.164	35.67
307.379	7
307.593	47.96
307.807	0.85
308.021	11.09
308.235	-7.34
308.449	0.85
308.663	13.14
308.877	72.53
309.091	45.91
309.305	64.34
309.519	-7.34
309.733	7
309.947	15.19
310.161	129.88
310.374	15.19
310.588	70.48
310.802	-27.82
311.016	-11.43
311.23	21.33
311.444	17.24
311.658	7
311.872	21.33
312.085	58.2
312.299	64.34
312.513	31.57
312.727	103.25
312.941	-19.63
313.154	-3.24
313.368	-1.19
313.582	43.86
313.796	-33.96
314.009	-7.34
314.223	66.39
314.437	66.39
314.651	2.9
314.864	2.9
315.078	-48.3
315.292	0.85
315.505	25.43
315.719	107.35
315.933	-9.39
316.146	82.77
316.36	-7.34
316.573	99.16
316.787	58.2
317.001	9.05
317.214	-50.35
317.428	11.09
317.641	-38.06
317.855	52.05
318.068	25.43
318.282	-93.35
318.495	66.39
318.709	50
318.922	-3.24
319.136	25.43
319.349	68.44
319.563	31.57
319.776	15.19
319.99	4.95
320.203	0.85
320.417	74.58
320.63	136.02
320.843	66.39
321.057	21.33
321.27	-29.87
321.483	66.39
321.697	82.77
321.91	7
322.124	74.58
322.337	37.72
322.55	13.14
322.763	0.85
322.977	25.43
323.19	-11.43
323.403	17.24
323.617	9.05
323.83	50
324.043	37.72
324.256	-11.43
324.469	13.14
324.683	25.43
324.896	13.14
325.109	33.62
325.322	-40.11
325.535	45.91
325.748	99.16
325.962	-13.48
326.175	80.72
326.388	41.81
326.601	99.16
326.814	0.85
327.027	56.15
327.24	50
327.453	-33.96
327.666	21.33
327.879	19.29
328.092	-17.58
328.305	62.29
328.518	-11.43
328.731	19.29
328.944	31.57
329.157	82.77
329.37	29.52
329.583	111.44
329.796	70.48
330.009	-7.34
330.222	45.91
330.435	29.52
330.648	64.34
330.861	-27.82
331.073	64.34
331.286	56.15
331.499	54.1
331.712	11.09
331.925	11.09
332.138	66.39
332.35	86.87
332.563	0.85
332.776	93.01
332.989	-15.53
333.202	50
333.414	50
333.627	4.95
333.84	-33.96
334.053	-5.29
334.265	-44.2
334.478	9.05
334.691	31.57
334.903	86.87
335.116	62.29
335.329	-19.63
335.541	56.15
335.754	78.68
335.966	-36.01
336.179	90.96
336.392	29.52
336.604	17.24
336.817	115.54
337.029	52.05
337.242	-48.3
337.454	50
337.667	64.34
337.88	33.62
338.092	68.44
338.305	19.29
338.517	9.05
338.729	60.24
338.942	95.06
339.154	-105.64
339.367	-25.77
339.579	52.05
339.792	66.39
340.004	86.87
340.217	37.72
340.429	50
340.641	7
340.854	37.72
341.066	29.52
341.278	113.49
341.491	148.31
341.703	23.38
341.915	-11.43
342.128	19.29
342.34	11.09
342.552	39.76
342.764	-13.48
342.977	90.96
343.189	56.15
343.401	70.48
343.613	-23.72
343.826	45.91
344.038	-19.63
344.25	15.19
344.462	-29.87
344.674	9.05
344.886	-15.53
345.099	60.24
345.311	-29.87
345.523	41.81
345.735	-56.49
345.947	54.1
346.159	4.95
346.371	15.19
346.583	13.14
346.795	109.4
347.007	50
347.219	25.43
347.431	27.48
347.643	70.48
347.855	50
348.067	66.39
348.279	-15.53
348.491	50
348.703	115.54
348.915	-31.91
349.127	0.85
349.339	66.39
349.551	-52.39
349.763	66.39
349.975	-21.67
350.187	80.72
350.399	103.25
350.61	70.48
350.822	15.19
351.034	50
351.246	-7.34
351.458	33.62
351.669	74.58
351.881	11.09
352.093	74.58
352.305	99.16
352.517	33.62
352.728	9.05
352.94	-3.24
353.152	45.91
353.363	-31.91
353.575	50
353.787	50
353.999	-7.34
354.21	107.35
354.422	7
354.633	43.86
354.845	0.85
355.057	37.72
355.268	54.1
355.48	41.81
355.692	50
355.903	78.68
356.115	60.24
356.326	-21.67
356.538	95.06
356.749	17.24
356.961	76.63
357.172	23.38
357.384	54.1
357.595	129.88
357.807	35.67
358.018	-27.82
358.23	66.39
358.441	107.35
358.653	43.86
358.864	19.29
359.075	0.85
359.287	99.16
359.498	31.57
359.709	50
359.921	50
360.132	140.12
360.344	4.95
360.555	58.2
360.766	72.53
360.977	4.95
361.189	70.48
361.4	41.81
361.611	78.68
361.823	86.87
362.034	25.43
362.245	-23.72
362.456	31.57
362.667	29.52
362.879	37.72
363.09	17.24
363.301	17.24
363.512	109.4
363.723	7
363.935	-42.15
364.146	78.68
364.357	9.05
364.568	-19.63
364.779	33.62
364.99	105.3
365.201	7
365.412	90.96
365.623	-1.19
365.834	39.76
366.045	2.9
366.256	97.11
366.467	82.77
366.678	7
366.889	-3.24
367.1	74.58
367.311	37.72
367.522	39.76
367.733	39.76
367.944	60.24
368.155	-56.49
368.366	-9.39
368.577	41.81
368.788	95.06
368.999	13.14
369.209	11.09
369.42	148.31
369.631	95.06
369.842	29.52
370.053	31.57
370.264	68.44
370.474	50
370.685	-3.24
370.896	64.34
371.107	70.48
371.317	45.91
371.528	70.48
371.739	95.06
371.95	82.77
372.16	21.33
372.371	-7.34
372.582	62.29
372.792	62.29
373.003	80.72
373.214	-17.58
373.424	41.81
373.635	93.01
373.846	144.21
374.056	56.15
374.267	45.91
374.477	74.58
374.688	50
374.898	-13.48
375.109	78.68
375.319	17.24
375.53	37.72
375.74	13.14
375.951	35.67
376.161	-3.24
376.372	113.49
376.582	-23.72
376.793	17.24
377.003	-42.15
377.214	66.39
377.424	-3.24
377.635	2.9
377.845	0.85
378.055	84.82
378.266	17.24
378.476	7
378.686	56.15
378.897	62.29
379.107	-33.96
379.317	62.29
379.528	-56.49
379.738	95.06
379.948	0.85
380.158	105.3
380.369	0.85
380.579	50
380.789	-23.72
380.999	-15.53
381.21	119.64
381.42	150.36
381.63	-3.24
381.84	39.76
382.05	7
382.261	31.57
382.471	37.72
382.681	17.24
382.891	95.06
383.101	133.97
383.311	-9.39
383.521	70.48
383.731	50
383.941	58.2
384.151	0.85
384.361	-15.53
384.571	68.44
384.781	76.63
384.991	78.68
385.201	80.72
385.411	33.62
385.621	-33.96
385.831	70.48
386.041	2.9
386.251	50
386.461	97.11
386.671	-19.63
386.881	99.16
387.091	54.1
387.301	-29.87
387.511	41.81
387.72	50
387.93	58.2
388.14	25.43
388.35	-31.91
388.56	41.81
388.769	7
388.979	86.87
389.189	45.91
389.399	105.3
389.609	50
389.818	74.58
390.028	60.24
390.238	9.05
390.447	-36.01
390.657	107.35
390.867	33.62
391.076	15.19
391.286	47.96
391.496	4.95
391.705	7
391.915	97.11
392.125	70.48
392.334	60.24
392.544	50
392.753	105.3
392.963	37.72
393.172	54.1
393.382	-1.19
393.591	131.92
393.801	54.1
394.01	95.06
394.22	86.87
394.429	86.87
394.639	17.24
394.848	78.68
395.058	148.31
395.267	97.11
395.477	93.01
395.686	66.39
395.895	140.12
396.105	111.44
396.314	88.92
396.524	37.72
396.733	25.43
396.942	84.82
397.152	170.83
397.361	113.49
397.57	115.54
397.78	103.25
397.989	74.58
398.198	158.55
398.407	9.05
398.617	136.02
398.826	123.73
399.035	82.77
399.244	84.82
399.453	131.92
399.663	127.83
399.872	47.96
400.081	50
400.29	117.59
400.499	76.63
400.708	148.31
400.917	58.2
401.127	50
401.336	99.16
401.545	90.96
401.754	187.22
401.963	131.92
402.172	21.33
402.381	21.33
402.59	133.97
402.799	111.44
403.008	105.3
403.217	76.63
403.426	111.44
403.635	33.62
403.844	156.5
404.053	105.3
404.262	17.24
404.471	125.78
404.68	93.01
404.888	37.72
405.097	54.1
405.306	123.73
405.515	205.65
405.724	115.54
405.933	152.4
406.142	90.96
406.35	170.83
406.559	97.11
406.768	131.92
406.977	117.59
407.185	86.87
407.394	248.66
407.603	93.01
407.812	209.75
408.02	226.13
408.229	238.42
408.438	158.55
408.646	146.26
408.855	203.6
409.064	246.61
409.272	168.79
409.481	222.03
409.69	230.23
409.898	168.79
410.107	217.94
410.315	322.38
410.524	308.05
410.733	238.42
410.941	172.88
411.15	322.38
411.358	336.72
411.567	349.01
411.775	295.76
411.984	324.43
412.192	389.97
412.401	379.73
412.609	373.58
412.818	385.87
413.026	381.78
413.234	306
413.443	426.83
413.651	459.6
413.86	404.3
414.068	486.22
414.276	426.83
414.485	445.26
414.693	555.85
414.901	568.14
415.11	578.38
415.318	623.44
415.526	555.85
415.734	607.05
415.943	613.2
416.151	658.25
416.359	654.16
416.567	633.68
416.776	744.27
416.984	801.61
417.192	779.08
417.4	615.24
417.608	693.07
417.817	742.22
418.025	807.75
418.233	914.25
418.441	836.42
418.649	877.38
418.857	992.07
419.065	1012.55
419.273	983.88
419.481	1012.55
419.689	1006.41
419.897	1073.99
420.105	1073.99
420.313	1303.36
420.521	1196.87
420.729	1307.46
420.937	1270.59
421.145	1262.4
421.353	1540.93
421.561	1483.58
421.769	1469.25
421.977	1590.08
422.185	1442.62
422.393	1635.13
422.601	1712.96
422.809	1751.87
423.017	1755.96
423.224	1835.83
423.432	1856.31
423.64	1866.55
423.848	2079.54
424.056	1909.56
424.263	2118.45
424.471	2175.8
424.679	2118.45
424.887	2272.05
425.094	2351.92
425.302	2458.42
425.51	2476.85
425.718	2507.57
425.925	2564.91
426.133	2689.84
426.341	2880.3
426.548	3068.71
426.756	2997.03
426.964	3015.46
427.171	3171.11
427.379	3222.31
427.586	3234.6
427.794	3408.67
428.001	3472.16
428.209	3674.91
428.417	3693.34
428.624	3848.99
428.832	3922.71
429.039	3898.14
429.247	3834.65
429.454	4234
429.662	4535.06
429.869	4162.33
430.076	4629.26
430.284	4383.51
430.491	4733.71
430.699	4848.4
430.906	4883.21
431.114	4889.35
431.321	5122.82
431.528	5223.17
431.736	5481.22
431.943	5698.3
432.15	5460.74
432.358	5784.32
432.565	6128.38
432.772	5946.11
432.979	6402.8
433.187	6468.34
433.394	6492.91
433.601	6890.22
433.808	6767.34
434.016	6781.68
434.223	7123.69
434.43	7627.49
434.637	7480.04
434.844	7930.59
435.052	8110.81
435.259	7928.54
435.466	8168.15
435.673	8024.79
435.88	8549.07
436.087	9147.08
436.294	8975.05
436.501	8610.51
436.708	8899.28
436.915	9351.88
437.122	9736.9
437.329	9728.7
437.537	9794.24
437.743	9978.56
437.95	10107.58
438.157	10611.38
438.364	10906.29
438.571	10906.29
438.778	10947.25
438.985	11764.39
439.192	11489.96
439.399	11981.47
439.606	11588.26
439.813	12239.51
440.02	13130.38
440.227	12612.24
440.433	12618.39
440.64	13017.74
440.847	12866.19
441.054	13396.62
441.261	14338.68
441.467	14064.25
441.674	14363.26
441.881	15024.75
442.088	14844.53
442.294	14758.52
442.501	14905.97
442.708	15342.19
442.914	16032.35
443.121	16656.98
443.328	16423.51
443.534	17252.94
443.741	16765.53
443.948	16433.75
444.154	17785.41
444.361	17691.21
444.568	18143.81
444.774	17996.35
444.981	18129.47
445.187	18752.06
445.394	19345.97
445.6	19270.19
445.807	21045.78
446.013	20222.5
446.22	20593.18
446.426	21119.51
446.633	21441.04
446.839	22192.64
447.046	21258.77
447.252	22700.54
447.459	22456.83
447.665	22366.72
447.871	23241.2
448.078	24138.21
448.284	23525.87
448.491	23642.6
448.697	24869.34
448.903	25233.88
449.11	25362.9
449.316	24758.75
449.522	25145.81
449.728	25831.88
449.935	26288.58
450.141	26061.26
450.347	26663.36
450.553	25698.77
450.76	26497.47
450.966	26966.46
451.172	26786.24
451.378	27191.73
451.584	26935.74
451.791	27482.55
451.997	27523.51
452.203	27548.08
452.409	27797.93
452.615	27967.91
452.821	26819
453.027	26415.55
453.233	27912.62
453.44	26843.58
453.646	27077.05
453.852	27259.32
454.058	27244.98
454.264	26649.02
454.47	26937.79
454.676	26495.43
454.882	27144.63
455.088	24873.43
455.294	25227.73
455.5	25756.11
455.705	26106.31
455.911	25178.58
456.117	24261.09
456.323	24041.96
456.529	22862.33
456.735	23790.06
456.941	22925.82
457.147	22829.56
457.352	22022.66
457.558	21611.02
457.764	21889.54
457.97	21535.24
458.176	21029.4
458.381	20894.23
458.587	20064.8
458.793	19831.33
458.999	18750.01
459.204	20369.95
459.41	19659.31
459.616	18344.51
459.821	18416.19
460.027	18184.77
460.233	17982.02
460.438	17144.4
460.644	17009.23
460.85	16450.14
461.055	16400.99
461.261	15854.18
461.466	14774.9
461.672	14555.77
461.878	15293.04
462.083	14303.87
462.289	14097.02
462.494	14260.86
462.7	13539.97
462.905	12884.62
463.111	13580.93
463.316	13673.09
463.522	13261.45
463.727	13136.52
463.932	13232.78
464.138	12939.92
464.343	13314.7
464.549	12876.43
464.754	13384.33
464.959	13157
465.165	12780.18
465.37	12485.27
465.575	12055.2
465.781	12550.81
465.986	12769.94
466.191	12272.28
466.397	11979.42
466.602	11555.49
466.807	11926.18
467.012	11942.56
467.218	11872.93
467.423	11625.12
467.628	11850.4
467.833	12057.25
468.038	11672.23
468.244	11379.37
468.449	11948.7
468.654	11621.03
468.859	11438.76
469.064	11393.7
469.269	10822.32
469.474	10932.91
469.679	11184.81
469.885	10814.13
470.09	10898.1
470.295	10850.99
470.5	10519.22
470.705	10564.28
470.91	10304.18
471.115	10363.58
471.32	10449.59
471.525	10660.53
471.73	10295.99
471.935	9951.93
472.139	9960.13
472.344	10011.32
472.549	9773.76
472.754	9657.03
472.959	9640.64
473.164	9110.22
473.369	9294.54
473.574	9589.44
473.778	9542.34
473.983	9083.59
474.188	9300.68
474.393	8907.47
474.598	9026.25
474.802	8938.19
475.007	8901.33
475.212	8868.56
475.417	8305.37
475.621	8551.12
475.826	8432.34
476.031	8477.4
476.235	8319.7
476.44	8368.85
476.645	8256.22
476.849	8225.5
477.054	8192.73
477.259	8067.8
477.463	8059.61
477.668	7623.39
477.872	7946.97
478.077	7570.15
478.282	7531.23
478.486	7385.83
478.691	7451.36
478.895	7564
479.1	7332.58
479.304	7400.16
479.509	7156.46
479.713	7297.77
479.918	7269.09
480.122	7023.34
480.326	7144.17
480.531	7252.71
480.735	7070.44
480.94	7000.81
481.144	7000.81
481.348	6890.22
481.553	7017.19
481.757	6710
481.961	6939.37
482.166	7011.05
482.37	7054.06
482.574	6869.74
482.778	6816.49
482.983	6961.9
483.187	6695.66
483.391	6992.62
483.595	6861.55
483.8	6761.2
484.004	6890.22
484.208	6806.25
484.412	6984.43
484.616	6906.6
484.821	6857.45
485.025	6861.55
485.229	6746.86
485.433	6669.04
485.637	6834.93
485.841	6824.69
486.045	6699.76
486.249	6730.48
486.453	6646.51
486.657	6820.59
486.861	6761.2
487.065	6562.55
487.269	6918.89
487.473	6595.31
487.677	6789.87
487.881	6791.92
488.085	6925.04
488.289	6890.22
488.493	6744.81
488.697	7052.01
488.901	6839.02
489.105	6691.57
489.309	6910.7
489.512	6922.99
489.716	6941.42
489.92	6929.13
490.124	7027.43
490.328	7031.53
490.531	7021.29
490.735	6947.56
490.939	7103.21
491.143	6902.51
491.346	6972.14
491.55	6935.28
491.754	6988.52
491.958	7166.7
492.161	7027.43
492.365	7107.3
492.569	7142.12
492.772	7174.89
492.976	7267.05
493.18	7088.87
493.383	7348.97
493.587	7508.71
493.79	7512.8
493.994	7439.08
494.197	7484.13
494.401	7453.41
494.605	7473.89
494.808	7652.06
495.012	7705.31
495.215	7742.18
495.419	7836.38
495.622	7774.94
495.825	7926.49
496.029	7756.51
496.232	8110.81
496.436	8030.94
496.639	8288.98
496.843	8266.46
497.046	8331.99
497.249	8405.72
497.453	8405.72
497.656	8504.02
497.859	8717.01
498.063	8676.05
498.266	8911.57
498.469	8852.17
498.673	8876.75
498.876	9239.24
499.079	9153.23
499.282	9249.48
499.485	9585.35
499.689	9507.52
499.892	9614.02
500.095	9458.37
500.298	9777.86
500.501	9822.91
500.705	10042.04
500.908	10310.33
501.111	10105.53
501.314	10080.96
501.517	10584.76
501.72	10543.8
501.923	10617.52
502.126	10613.43
502.329	10896.05
502.532	10883.76
502.735	11068.08
502.938	11285.16
503.141	11487.91
503.344	11604.64
503.547	11627.17
503.75	11715.23
503.953	12001.95
504.156	12053.15
504.359	12114.59
504.562	12249.75
504.765	12436.12
504.968	12790.42
505.17	12620.44
505.373	12925.58
505.576	13296.27
505.779	13204.11
505.982	13111.95
506.185	13351.56
506.387	13689.48
506.59	13615.75
506.793	13918.85
506.996	13836.93
507.198	14473.85
507.401	14242.43
507.604	14596.73
507.807	14686.84
508.009	14746.23
508.212	14965.36
508.415	15237.74
508.617	15381.1
508.82	15391.34
509.022	15401.58
509.225	15993.44
509.428	15800.93
509.63	16220.77
509.833	16333.4
510.035	16773.72
510.238	16521.82
510.44	16960.08
510.643	17166.93
510.845	17521.23
511.048	17242.7
511.25	17355.34
511.453	17642.06
511.655	18496.06
511.858	18082.37
512.06	18182.72
512.262	18358.85
512.465	18647.61
512.667	19061.3
512.87	18977.33
513.072	19038.77
513.274	19354.16
513.477	19829.29
513.679	19724.84
513.881	20169.25
514.084	20378.14
514.286	20433.44
514.488	20427.29
514.69	21269.01
514.893	21293.58
515.095	21484.05
515.297	21760.52
515.499	21670.41
515.701	22194.69
515.904	22606.33
516.106	22594.04
516.308	22589.95
516.51	23380.46
516.712	23378.42
516.914	23243.25
517.116	23974.38
517.318	23970.28
517.52	24521.18
517.722	24431.07
517.925	24541.66
518.127	25031.13
518.329	25002.46
518.531	25522.64
518.733	25762.25
518.935	26161.61
519.136	26276.29
519.338	26380.74
519.54	26735.04
519.742	26929.59
519.944	27668.91
520.146	27867.56
520.348	28066.22
520.55	28109.22
520.752	28238.25
520.954	29053.34
521.155	28647.84
521.357	29254.04
521.559	29847.95
521.761	30101.9
521.963	30149
522.164	30419.33
522.366	30742.91
522.568	30855.55
522.77	31129.98
522.971	32020.84
523.173	31846.77
523.375	31713.65
523.576	32065.9
523.778	32508.26
523.98	32971.1
524.181	32909.66
524.383	33274.2
524.584	33769.81
524.786	33640.79
524.988	33696.08
525.189	34410.82
525.391	34586.95
525.592	35111.23
525.794	35203.39
525.995	35240.25
526.197	35182.91
526.398	35660.09
526.6	35666.23
526.801	36041.01
527.003	36677.93
527.204	36538.66
527.406	37073.18
527.607	36940.07
527.808	37220.64
528.01	36864.29
528.211	37302.56
528.412	38189.33
528.614	38033.68
528.815	38121.74
529.016	38658.31
529.218	38633.74
529.419	38695.17
529.62	37990.67
529.822	39022.85
530.023	38963.46
530.224	39043.33
530.425	39121.15
530.626	39512.31
530.828	39135.49
531.029	40249.58
531.23	39741.69
531.431	39835.89
531.632	39940.34
531.833	40438
532.035	40405.23
532.236	40433.9
532.437	40698.09
532.638	40546.54
532.839	40382.7
533.04	40863.97
533.241	40872.17
533.442	41556.19
533.643	40921.32
533.844	40829.16
534.045	41208.03
534.246	40921.32
534.447	41367.77
534.648	41294.05
534.849	41318.62
535.05	41556.19
535.251	42086.61
535.451	41521.37
535.652	41820.38
535.853	41740.5
536.054	41642.2
536.255	41986.26
536.456	41388.25
536.657	42381.52
536.857	41691.35
537.058	41562.33
537.259	42141.91
537.46	42062.04
537.66	41824.47
537.861	42004.69
538.062	41541.85
538.263	42371.28
538.463	42330.32
538.664	41978.07
538.865	42035.41
539.065	42436.81
539.266	41830.62
539.466	42330.32
539.667	41853.14
539.868	42494.16
540.068	42426.57
540.269	41894.1
540.469	42252.5
540.67	41713.88
540.87	42014.93
541.071	42158.29
541.271	42193.11
541.472	42211.54
541.672	42156.24
541.873	42043.6
542.073	42086.61
542.274	42625.23
542.474	42000.6
542.675	41920.73
542.875	42600.65
543.075	42262.74
543.276	41728.22
543.476	42772.68
543.676	42059.99
543.877	42416.33
544.077	42205.39
544.277	42121.43
544.478	42330.32
544.678	42547.4
544.878	41842.9
545.078	42375.37
545.279	42084.56
545.479	42010.84
545.679	42494.16
545.879	42674.38
546.079	42340.56
546.28	42084.56
546.48	41756.89
546.68	42254.54
546.88	42643.66
547.08	41916.63
547.28	42184.91
547.48	41752.79
547.68	42260.69
547.88	41949.4
548.081	41976.02
548.281	42285.26
548.481	42137.81
548.681	42100.95
548.881	42217.68
549.081	42070.23
549.28	42082.52
549.48	42363.09
549.68	41980.12
549.88	42688.71
550.08	41818.33
550.28	42156.24
550.48	42084.56
550.68	42516.68
550.88	42086.61
551.08	42121.43
551.279	42127.57
551.479	41760.98
551.679	42256.59
551.879	41963.73
552.079	42510.54
552.278	42014.93
552.478	41797.85
552.678	42066.13
552.878	42430.67
553.077	41515.23
553.277	41494.75
553.477	42467.53
553.676	42053.84
553.876	42010.84
554.076	41740.5
554.275	41500.89
554.475	41201.89
554.674	41785.56
554.874	41617.63
555.074	41777.37
555.273	41599.19
555.473	41603.29
555.672	40923.36
555.872	41171.17
556.071	41543.9
556.271	41548
556.47	41248.99
556.67	40702.18
556.869	41036
557.068	40921.32
557.268	40984.8
557.467	40691.94
557.667	40640.75
557.866	40945.89
558.065	40249.58
558.265	40356.08
558.464	40364.27
558.663	40474.86
558.863	39915.76
559.062	40069.36
559.261	40052.98
559.461	40515.82
559.66	39749.88
559.859	39682.3
560.058	39835.89
560.258	39956.72
560.457	39241.98
560.656	39936.24
560.855	39293.18
561.054	39426.3
561.253	38904.07
561.453	39469.31
561.652	39375.1
561.851	39356.67
562.05	38809.86
562.249	38641.93
562.448	38797.57
562.647	38594.82
562.846	38816.01
563.045	38910.21
563.244	38170.89
563.443	38504.71
563.642	37816.6
563.841	37767.45
564.04	37284.12
564.239	37894.42
564.438	37380.38
564.637	37292.32
564.836	37366.04
565.035	36628.77
565.234	37116.19
565.432	36876.58
565.631	36456.75
565.83	36663.59
566.029	36165.93
566.228	36385.07
566.427	36213.04
566.625	36067.63
566.824	35735.86
567.023	35983.66
567.222	35244.35
567.42	35699
567.619	35244.35
567.818	34758.98
568.016	34990.4
568.215	35260.73
568.414	34785.6
568.612	34785.6
568.811	34486.6
569.01	34343.24
569.208	34138.44
569.407	34390.34
569.605	33978.7
569.804	34097.49
570.002	33708.37
570.201	33831.25
570.4	33210.71
570.598	33442.14
570.797	32952.67
570.995	33091.93
571.193	32440.68
571.392	33048.93
571.59	32461.16
571.789	32483.69
571.987	32522.6
572.186	32024.94
572.384	31973.74
572.582	31717.75
572.781	32186.73
572.979	31381.88
573.177	31525.24
573.376	31517.04
573.574	31338.87
573.772	31517.04
573.971	30986.62
574.169	31046.01
574.367	30677.38
574.565	31056.25
574.763	30515.59
574.962	30452.1
575.16	29786.51
575.358	29983.12
575.556	29639.06
575.754	30642.56
575.952	29716.88
576.151	29960.59
576.349	29254.04
576.547	29598.1
576.745	29462.93
576.943	29424.02
577.141	29198.74
577.339	29055.39
577.537	29182.36
577.735	28756.38
577.933	28625.31
578.131	28805.53
578.329	28109.22
578.527	28277.16
578.725	28467.62
578.923	28424.61
579.121	27978.15
579.319	27707.82
579.516	28051.88
579.714	28123.56
579.912	27793.84
580.11	27695.53
580.308	27728.3
580.506	27560.37
580.704	26771.9
580.901	27257.27
581.099	27234.74
581.297	26831.29
581.495	26986.94
581.692	26784.19
581.89	26501.57
582.088	26757.57
582.285	26483.14
582.483	26466.75
582.681	26657.21
582.878	26188.23
583.076	26024.39
583.274	26360.26
583.471	25604.56
583.669	26169.8
583.866	25573.84
584.064	25809.36
584.262	25639.37
584.459	25496.02
584.657	25622.99
584.854	25586.13
585.052	24977.88
585.249	25164.25
585.447	25106.9
585.644	24889.82
585.841	24695.26
586.039	25129.43
586.236	24830.43
586.434	24512.99
586.631	24584.67
586.828	24486.37
587.026	24252.9
587.223	24334.82
587.42	24105.45
587.618	24093.16
587.815	23812.59
588.012	23980.52
588.21	24084.97
588.407	24005.1
588.604	23558.64
588.801	23579.12
588.999	23472.62
589.196	23415.28
589.393	23534.06
589.59	23564.78
589.787	23251.44
589.984	23257.59
590.182	22774.27
590.379	23099.89
590.576	22727.16
590.773	23103.99
590.97	22757.88
591.167	22999.54
591.364	22403.58
591.561	22657.53
591.758	22321.66
591.955	22206.98
592.152	22405.63
592.349	22295.04
592.546	22383.1
592.743	22204.93
592.94	21854.73
593.137	21910.02
593.334	22360.58
593.531	21774.86
593.727	21678.6
593.924	21838.34
594.121	21748.23
594.318	21660.17
594.515	21144.08
594.712	21453.33
594.908	21271.06
595.105	21326.35
595.302	21115.41
595.499	21047.83
595.696	21307.92
595.892	20714.01
596.089	20970.01
596.286	20793.88
596.482	20699.67
596.679	20791.83
596.876	20552.22
597.072	20433.44
597.269	20492.83
597.466	20126.24
597.662	20361.76
597.859	20257.31
598.055	20328.99
598.252	19935.78
598.448	20032.04
598.645	19790.38
598.841	20011.56
599.038	20001.32
599.234	20068.9
599.431	19583.53
599.627	19483.18
599.824	19810.86
600.02	19325.49
600.217	19380.78
600.413	19403.31
600.609	19337.77
600.806	19401.26
601.002	19239.47
601.198	19092.02
601.395	19284.53
601.591	18870.84
601.787	18860.6
601.984	18770.49
602.18	18940.47
602.376	18670.14
602.572	18635.32
602.769	18571.83
602.965	18668.09
603.161	18444.86
603.357	18514.49
603.553	18258.49
603.75	18537.02
603.946	18141.76
604.142	18147.9
604.338	18176.58
604.534	17973.83
604.73	17828.42
604.926	17730.12
605.122	17887.81
605.318	17836.61
605.514	17640.01
605.71	17500.75
605.906	17553.99
606.102	17568.33
606.298	17728.07
606.494	17164.88
606.69	17529.42
606.886	17373.77
607.082	17250.89
607.278	17556.04
607.474	17025.62
607.67	17085.01
607.866	16937.55
608.062	16910.93
608.257	17099.34
608.453	16855.64
608.649	16986.71
608.845	16624.22
609.041	16779.86
609.236	17019.47
609.432	16652.89
609.628	16822.87
609.824	16456.28
610.019	16525.91
610.215	16595.54
610.411	16505.43
610.606	16296.54
610.802	16198.24
610.998	16194.14
611.193	16523.87
611.389	16228.96
611.584	16144.99
611.78	15684.2
611.976	16001.63
612.171	16296.54
612.367	16130.66
612.562	15972.96
612.758	15745.64
612.953	15741.54
613.149	15905.38
613.344	15737.45
613.539	16020.06
613.735	15708.77
613.93	15680.1
614.126	15487.59
614.321	15727.21
614.517	15614.57
614.712	15649.38
614.907	15481.45
615.103	15432.3
615.298	15415.91
615.493	15696.49
615.688	14994.03
615.884	15161.97
616.079	15147.63
616.274	15471.21
616.47	15116.91
616.665	14998.13
616.86	15096.43
617.055	15098.48
617.25	15012.46
617.445	14697.08
617.641	14801.52
617.836	14901.87
618.031	14613.11
618.226	14754.42
618.421	14742.13
618.616	14662.26
618.811	14459.51
619.006	14500.47
619.201	14420.6
619.396	14441.08
619.591	14064.25
619.786	14285.44
619.981	13902.47
620.176	14361.21
620.371	13920.9
620.566	14045.82
620.761	13853.31
620.956	13984.38
621.151	13720.2
621.346	13859.46
621.541	13451.91
621.735	13693.57
621.93	13630.09
622.125	13433.48
622.32	13171.34
622.515	13292.17
622.709	13318.79
622.904	13032.08
623.099	13238.92
623.294	13032.08
623.488	13060.75
623.683	12950.16
623.878	12722.84
624.072	12792.47
624.267	12739.22
624.462	12548.76
624.656	12487.32
624.851	12372.63
625.046	12415.64
625.24	12249.75
625.435	12311.19
625.629	12313.24
625.824	12124.83
626.018	12075.68
626.213	11819.68
626.407	12018.33
626.602	12018.33
626.796	12020.38
626.991	11766.43
627.185	11690.66
627.38	11674.28
627.574	11383.46
627.768	11618.98
627.963	11475.62
628.157	11494.05
628.352	11283.11
628.546	10953.39
628.74	11221.67
628.935	11199.15
629.129	11209.39
629.323	10674.87
629.517	10969.77
629.712	10807.98
629.906	10801.84
630.1	10541.75
630.294	10779.31
630.489	10715.83
630.683	10756.79
630.877	10402.49
631.071	10513.08
631.265	10488.5
631.459	10416.82
631.653	10420.92
631.848	10453.69
632.042	10103.48
632.236	10304.18
632.43	10119.87
632.624	10111.68
632.818	9921.21
633.012	9935.55
633.206	9894.59
633.4	9958.08
633.594	9577.16
633.788	9675.46
633.982	9618.11
634.176	9640.64
634.369	9616.07
634.563	9415.37
634.757	9372.36
634.951	9573.06
635.145	9597.63
635.339	9532.1
635.533	9261.77
635.726	9142.99
635.92	9030.35
636.114	9269.96
636.308	9093.83
636.501	9052.88
636.695	9126.6
636.889	8772.3
637.083	8805.07
637.276	9016.01
637.47	8753.87
637.664	8708.82
637.857	8602.32
638.051	8514.26
638.244	8692.43
638.438	8479.44
638.632	8594.13
638.825	8344.28
639.019	8303.32
639.212	8092.38
639.406	8350.42
639.599	8137.43
639.793	8288.98
639.986	8061.66
640.18	8002.27
640.373	7961.31
640.567	8094.43
640.76	7932.64
640.954	7848.67
641.147	7789.28
641.34	7699.17
641.534	7922.4
641.727	7744.22
641.92	7684.83
642.114	7611.11
642.307	7647.97
642.5	7539.43
642.694	7510.75
642.887	7348.97
643.08	7688.93
643.273	7322.34
643.467	7291.62
643.66	7082.73
643.853	7221.99
644.046	7060.2
644.239	7221.99
644.432	7205.61
644.626	7041.77
644.819	7131.88
645.012	6988.52
645.205	6877.93
645.398	6992.62
645.591	6830.83
645.784	6816.49
645.977	6644.46
646.17	6767.34
646.363	6677.23
646.556	6564.59
646.749	6654.7
646.942	6662.9
647.135	6720.24
647.328	6562.55
647.521	6441.72
647.714	6292.21
647.907	6486.77
648.099	6345.46
648.292	6501.11
648.485	6339.32
648.678	6232.82
648.871	6234.87
649.064	6128.38
649.256	6077.18
649.449	6204.15
649.642	6157.05
649.835	6083.32
650.027	6259.45
650.22	5937.91
650.413	6050.55
650.605	5901.05
650.798	6011.64
650.991	5970.68
651.183	5755.65
651.376	5866.24
651.568	5784.32
651.761	5735.17
651.954	5849.85
652.146	5780.22
652.339	5655.3
652.531	5706.49
652.724	5679.87
652.916	5475.07
653.109	5505.79
653.301	5591.81
653.494	5710.59
653.686	5407.49
653.879	5653.25
654.071	5501.7
654.263	5313.28
654.456	5427.97
654.648	5323.52
654.84	5235.46
655.033	5241.61
655.225	5409.54
655.417	5346.05
655.61	5268.23
655.802	5268.23
655.994	5118.73
656.186	5202.69
656.379	5042.95
656.571	4963.08
656.763	5090.06
656.955	5001.99
657.148	5057.29
657.34	5014.28
657.532	4997.9
657.724	4977.42
657.916	4997.9
658.108	4854.54
658.3	4981.51
658.492	4918.03
658.684	4930.31
658.876	4907.79
659.068	4864.78
659.26	4815.63
659.452	4743.95
659.644	4813.58
659.836	4717.33
660.028	4743.95
660.22	4733.71
660.412	4711.18
660.604	4776.72
660.796	4743.95
660.988	4557.58
661.18	4563.73
661.372	4455.19
661.563	4715.28
661.755	4518.67
661.947	4420.37
662.139	4444.95
662.331	4465.43
662.522	4506.38
662.714	4383.51
662.906	4436.75
663.097	4375.31
663.289	4367.12
663.481	4338.45
663.673	4416.27
663.864	4446.99
664.056	4424.47
664.247	4326.16
664.439	4117.27
664.631	4389.65
664.822	4250.39
665.014	4322.07
665.205	4293.4
665.397	4184.85
665.588	4371.22
665.78	4252.44
665.971	4186.9
666.163	4434.71
666.354	4158.23
666.546	4223.76
666.737	4084.5
666.929	4195.09
667.12	4236.05
667.311	4170.52
667.503	4207.38
667.694	4160.28
667.885	4205.33
668.077	4070.17
668.268	4121.37
668.459	4129.56
668.651	4127.51
668.842	4129.56
669.033	4166.42
669.224	4039.45
669.416	4162.33
669.607	4014.87
669.798	4096.79
669.989	3996.44
670.18	3965.72
670.371	4043.54
670.563	3922.71
670.754	4037.4
670.945	4006.68
671.136	4094.74
671.327	4002.58
671.518	4006.68
671.709	4117.27
671.9	4086.55
672.091	4178.71
672.282	4045.59
672.473	3988.25
672.664	4047.64
672.855	4127.51
673.046	3891.99
673.237	4037.4
673.428	4078.36
673.619	4170.52
673.809	4197.14
674	3988.25
674.191	4111.13
674.382	4088.6
674.573	4143.89
674.764	4025.11
674.954	4129.56
675.145	4057.88
675.336	4162.33
675.527	4074.26
675.717	4199.19
675.908	4098.84
676.099	4203.29
676.289	4070.17
676.48	4113.17
676.671	4125.46
676.861	4152.09
677.052	4172.57
677.243	4334.36
677.433	4385.55
677.624	4373.27
677.814	4258.58
678.005	4195.09
678.195	4342.55
678.386	4207.38
678.576	4115.22
678.767	4381.46
678.957	4193.05
679.148	4293.4
679.338	4317.97
679.529	4420.37
679.719	4367.12
679.909	4494.1
680.1	4485.9
680.29	4326.16
680.481	4412.18
680.671	4383.51
680.861	4502.29
681.052	4580.11
681.242	4496.14
681.432	4588.3
681.622	4504.34
681.813	4348.69
682.003	4442.9
682.193	4487.95
682.383	4526.86
682.573	4641.55
682.764	4498.19
682.954	4510.48
683.144	4610.83
683.334	4594.45
683.524	4528.91
683.714	4766.48
683.904	4737.81
684.094	4659.98
684.284	4520.72
684.474	4784.91
684.664	4545.3
684.854	4657.93
685.044	4481.81
685.234	4604.69
685.424	4686.61
685.614	4604.69
685.804	4657.93
685.994	4510.48
686.184	4608.78
686.374	4748.04
686.564	4723.47
686.753	4686.61
686.943	4629.26
687.133	4555.54
687.323	4619.02
687.513	4723.47
687.702	4408.08
687.892	4438.8
688.082	4510.48
688.272	4494.1
688.461	4514.58
688.651	4522.77
688.841	4436.75
689.03	4354.83
689.22	4528.91
689.41	4469.52
689.599	4258.58
689.789	4242.2
689.979	4301.59
690.168	4299.54
690.358	4352.79
690.547	4277.01
690.737	4195.09
690.926	4234
691.116	4129.56
691.305	4260.63
691.495	4137.75
691.684	4100.89
691.874	4086.55
692.063	4088.6
692.252	4098.84
692.442	4010.78
692.631	3947.29
692.82	4078.36
693.01	4070.17
693.199	3996.44
693.388	4029.21
693.578	3924.76
693.767	3863.32
693.956	3832.6
694.146	3914.52
694.335	3891.99
694.524	3760.92
694.713	4000.54
694.902	3908.38
695.092	3828.51
695.281	3867.42
695.47	3801.88
695.659	3760.92
695.848	3762.97
696.037	3822.36
696.226	3926.81
696.415	3777.31
696.604	3871.51
696.793	3883.8
696.982	3814.17
697.171	3941.15
697.36	3797.79
697.549	3765.02
697.738	3824.41
697.927	3728.16
698.116	3805.98
698.305	3869.47
698.494	3908.38
698.683	3816.22
698.872	3887.9
699.061	3695.39
699.25	3830.55
699.438	3789.6
699.627	3742.49
699.816	3844.89
700.005	3679.01
700.193	3865.37
700.382	3853.08
700.571	3867.42
700.76	3793.69
700.948	3838.75
701.137	3808.03
701.326	3920.67
701.514	3853.08
701.703	3908.38
701.892	3885.85
702.08	4029.21
702.269	3973.91
702.457	3781.4
702.646	3879.71
702.834	3824.41
703.023	3914.52
703.212	3916.57
703.4	3971.86
703.589	3894.04
703.777	3980.06
703.965	4000.54
704.154	3906.33
704.342	3973.91
704.531	3943.19
704.719	3973.91
704.907	4016.92
705.096	3982.1
705.284	4094.74
705.472	3885.85
705.661	3988.25
705.849	4135.7
706.037	4053.78
706.226	4074.26
706.414	4047.64
706.602	4115.22
706.79	4053.78
706.979	4143.89
707.167	4051.74
707.355	4184.85
707.543	4084.5
707.731	4115.22
707.919	4186.9
708.107	4154.13
708.296	4186.9
708.484	4195.09
708.672	4223.76
708.86	4342.55
709.048	4258.58
709.236	4317.97
709.424	4250.39
709.612	4283.16
709.8	4389.65
709.988	4186.9
710.176	4324.12
710.364	4311.83
710.551	4422.42
710.739	4291.35
710.927	4551.44
711.115	4471.57
711.303	4535.06
711.491	4498.19
711.679	4490
711.866	4473.62
712.054	4473.62
712.242	4418.32
712.43	4449.04
712.617	4518.67
712.805	4625.17
712.993	4711.18
713.181	4436.75
713.368	4582.16
713.556	4580.11
713.744	4498.19
713.931	4707.09
714.119	4657.93
714.306	4711.18
714.494	4717.33
714.682	4827.92
714.869	4619.02
715.057	4692.75
715.244	4674.32
715.432	4733.71
715.619	4899.59
715.807	4735.76
715.994	4713.23
716.182	4721.42
716.369	4786.96
716.556	4825.87
716.744	4780.81
716.931	4784.91
717.119	4825.87
717.306	4842.25
717.493	4791.05
717.681	4944.65
717.868	4967.18
718.055	4948.75
718.242	4864.78
718.43	5014.28
718.617	5071.62
718.804	5014.28
718.991	5178.12
719.179	5192.45
719.366	5010.18
719.553	5004.04
719.74	4948.75
719.927	5079.82
720.114	5020.42
720.301	4973.32
720.488	5038.86
720.676	5233.41
720.863	5202.69
721.05	5176.07
721.237	5090.06
721.424	5133.06
721.611	5204.74
721.798	5153.54
721.985	5243.65
722.172	5167.88
722.358	5202.69
722.545	5247.75
722.732	5077.77
722.919	5354.24
723.106	5231.37
723.293	5348.1
723.48	5458.69
723.667	5350.15
723.853	5346.05
724.04	5387.01
724.227	5364.48
724.414	5452.55
724.6	5192.45
724.787	5399.3
724.974	5378.82
725.161	5448.45
725.347	5337.86
725.534	5522.18
725.72	5518.08
725.907	5239.56
726.094	5292.8
726.28	5331.72
726.467	5382.92
726.653	5337.86
726.84	5532.42
727.027	5618.43
727.213	5268.23
727.4	5468.93
727.586	5427.97
727.773	5421.83
727.959	5569.28
728.145	5567.23
728.332	5600
728.518	5567.23
728.705	5563.14
728.891	5442.31
729.077	5485.31
729.264	5462.79
729.45	5794.56
729.636	5640.96
729.823	5395.2
730.009	5620.48
730.195	5602.05
730.382	5479.17
730.568	5640.96
730.754	5438.21
730.94	5638.91
731.126	5612.29
731.313	5686.01
731.499	5696.25
731.685	5706.49
731.871	5690.11
732.057	5663.49
732.243	5733.12
732.429	5659.39
732.615	5575.42
732.801	5624.58
732.987	5581.57
733.173	5643.01
733.359	5604.1
733.545	5817.08
733.731	5657.34
733.917	5618.43
734.103	5784.32
734.289	5735.17
734.475	5565.18
734.661	5632.77
734.847	5767.93
735.033	5792.51
735.219	5747.45
735.404	5755.65
735.59	5747.45
735.776	5702.4
735.962	5870.33
736.148	5661.44
736.333	5681.92
736.519	5649.15
736.705	5604.1
736.89	5604.1
737.076	5651.2
737.262	5614.34
737.447	5567.23
737.633	5683.97
737.819	5649.15
738.004	5589.76
738.19	5563.14
738.375	5466.88
738.561	5718.78
738.747	5622.53
738.932	5415.68
739.118	5657.34
739.303	5561.09
739.489	5460.74
739.674	5556.99
739.859	5464.83
740.045	5600
740.23	5341.96
740.416	5620.48
740.601	5505.79
740.786	5536.51
740.972	5358.34
741.157	5423.87
741.342	5301
741.528	5366.53
741.713	5360.39
741.898	5397.25
742.084	5245.7
742.269	5239.56
742.454	5161.73
742.639	5362.44
742.824	5333.76
743.01	5444.35
743.195	5403.39
743.38	5313.28
743.565	5346.05
743.75	5348.1
743.935	5223.17
744.12	5235.46
744.305	5145.35
744.49	5112.58
744.675	5128.97
744.86	4991.75
745.045	5028.62
745.23	4997.9
745.415	4901.64
745.6	4922.12
745.785	4946.7
745.97	5020.42
746.155	4915.98
746.34	4825.87
746.525	4768.52
746.71	4850.44
746.895	4823.82
747.079	4784.91
747.264	4895.5
747.449	4719.37
747.634	4842.25
747.819	4834.06
748.003	4674.32
748.188	4625.17
748.373	4610.83
748.557	4496.14
748.742	4346.64
748.927	4479.76
749.111	4459.28
749.296	4449.04
749.481	4547.34
749.665	4367.12
749.85	4350.74
750.034	4317.97
750.219	4381.46
750.404	4223.76
750.588	4186.9
750.773	4250.39
750.957	4174.61
751.141	4145.94
751.326	4115.22
751.51	4039.45
751.695	4102.93
751.879	4113.17
752.064	4084.5
752.248	4018.97
752.432	3973.91
752.617	4102.93
752.801	3808.03
752.985	3826.46
753.17	3984.15
753.354	3971.86
753.538	3916.57
753.722	3853.08
753.907	3703.58
754.091	3658.53
754.275	3625.76
754.459	3638.05
754.643	3461.92
754.828	3636
755.012	3625.76
755.196	3498.78
755.38	3441.44
755.564	3523.36
755.748	3506.98
755.932	3396.39
756.116	3392.29
756.3	3474.21
756.484	3216.16
756.668	3363.62
756.852	3253.03
757.036	3289.89
757.22	3134.25
757.404	3201.83
757.588	3191.59
757.772	3257.12
757.956	3156.77
758.14	3277.6
758.323	2982.7
758.507	2982.7
758.691	3040.04
758.875	3044.13
759.059	3072.81
759.242	3048.23
759.426	2990.89
759.61	2970.41
759.794	2982.7
759.977	3035.94
760.161	3089.19
760.345	2958.12
760.528	2933.54
760.712	2896.68
760.895	2796.33
761.079	2906.92
761.263	2892.59
761.446	2671.4
761.63	2792.23
761.813	2734.89
761.997	2743.08
762.18	2730.8
762.364	2702.12
762.547	2661.16
762.731	2726.7
762.914	2796.33
763.098	2675.5
763.281	2579.25
763.464	2460.46
763.648	2601.77
763.831	2528.05
764.015	2591.53
764.198	2581.29
764.381	2573.1
764.564	2630.45
764.748	2468.66
764.931	2544.43
765.114	2384.69
765.297	2530.09
765.481	2405.17
765.664	2474.8
765.847	2437.94
766.03	2399.02
766.213	2368.31
766.397	2425.65
766.58	2360.11
766.763	2368.31
766.946	2376.5
767.129	2333.49
767.312	2308.91
767.495	2286.39
767.678	2358.07
767.861	2399.02
768.044	2308.91
768.227	2278.19
768.41	2198.32
768.593	2196.28
768.776	2229.04
768.959	2206.52
769.142	2196.28
769.324	2249.52
769.507	2159.41
769.69	2167.6
769.873	2057.01
770.056	2245.43
770.239	2212.66
770.421	2122.55
770.604	2194.23
770.787	2057.01
770.97	2065.21
771.152	1948.47
771.335	2138.93
771.518	1958.71
771.7	2089.78
771.883	2048.82
772.066	2007.86
772.248	1973.05
772.431	2011.96
772.613	2073.4
772.796	1944.38
772.978	1954.62
773.161	1925.94
773.343	1927.99
773.526	1981.24
773.708	1833.79
773.891	1790.78
774.073	1895.22
774.256	1835.83
774.438	1827.64
774.621	1739.58
774.803	1913.66
774.985	1737.53
775.168	1776.44
775.35	1819.45
775.532	1727.29
775.715	1708.86
775.897	1663.8
776.079	1622.84
776.261	1725.24
776.444	1692.48
776.626	1653.56
776.808	1669.95
776.99	1522.49
777.173	1581.89
777.355	1637.18
777.537	1604.41
777.719	1579.84
777.901	1581.89
778.083	1577.79
778.265	1579.84
778.447	1606.46
778.629	1514.3
778.811	1483.58
778.993	1555.26
779.175	1446.72
779.357	1383.23
779.539	1399.62
779.721	1483.58
779.903	1434.43
780.085	1299.27
780.267	1416
780.449	1348.42
780.631	1407.81
780.812	1401.66
780.994	1383.23
781.176	1323.84
781.358	1348.42
781.54	1336.13
781.721	1350.46
781.903	1262.4
782.085	1278.79
782.267	1303.36
782.448	1258.31
782.63	1233.73
782.812	1278.79
782.993	1221.44
783.175	1303.36
783.357	1178.44
783.538	1207.11
783.72	1176.39
783.901	1090.37
784.083	1153.86
784.264	1106.76
784.446	1090.37
784.627	1069.89
784.809	1131.33
784.99	1071.94
785.172	1098.56
785.353	1102.66
785.535	1135.43
785.716	1059.65
785.897	1065.8
786.079	1028.93
786.26	1059.65
786.441	951.11
786.623	1049.41
786.804	918.34
786.985	992.07
787.167	981.83
787.348	914.25
787.529	955.21
787.71	906.06
787.891	971.59
788.073	951.11
788.254	922.44
788.435	940.87
788.616	850.76
788.797	873.29
788.978	981.83
789.159	834.38
789.34	1022.79
789.522	883.53
789.703	822.09
789.884	949.06
790.065	803.66
790.246	885.58
790.427	916.3
790.607	922.44
790.788	809.8
790.969	813.9
791.15	836.42
791.331	824.14
791.512	873.29
791.693	734.03
791.874	844.62
792.054	832.33
792.235	852.81
792.416	746.31
792.597	729.93
792.778	809.8
792.958	752.46
793.139	766.79
793.32	789.32
793.5	738.12
793.681	774.99
793.862	678.73
794.042	777.03
794.223	736.07
794.404	727.88
794.584	656.2
794.765	703.31
794.945	668.49
795.126	717.64
795.306	670.54
795.487	713.55
795.667	664.4
795.848	691.02
796.028	688.97
796.209	680.78
796.389	779.08
796.57	598.86
796.75	615.24
796.93	621.39
797.111	639.82
797.291	668.49
797.471	672.59
797.652	574.28
797.832	623.44
798.012	658.25
798.192	609.1
798.373	578.38
798.553	547.66
798.733	582.48
798.913	559.95
799.093	516.94
799.274	668.49
799.454	654.16
799.634	627.53
799.814	586.57
799.994	648.01
800.174	541.52
800.354	611.15
800.534	527.18
800.714	566.09
800.894	492.37
801.074	443.21
801.254	549.71
801.434	508.75
801.614	482.13
801.794	525.13
801.974	1370.94
802.154	523.09
802.334	598.86
802.514	512.85
802.693	478.03
802.873	504.65
803.053	496.46
803.233	549.71
803.413	480.08
803.592	488.27
803.772	445.26
803.952	557.9
804.131	471.89
804.311	541.52
804.491	439.12
804.67	443.21
804.85	461.65
805.03	475.98
805.209	449.36
805.389	463.69
805.568	545.61
805.748	441.17
805.928	461.65
806.107	459.6
806.287	500.56
806.466	435.02
806.646	381.78
806.825	514.89
807.004	394.06
807.184	506.7
807.363	412.5
807.543	420.69
807.722	418.64
807.901	400.21
808.081	408.4
808.26	402.26
808.439	441.17
808.619	469.84
808.798	414.54
808.977	449.36
809.156	445.26
809.336	426.83
809.515	471.89
809.694	410.45
809.873	443.21
810.052	445.26
810.231	418.64
810.411	426.83
810.59	418.64
810.769	316.24
810.948	451.41
811.127	320.34
811.306	410.45
811.485	344.91
811.664	396.11
811.843	447.31
812.022	389.97
812.201	373.58
812.38	480.08
812.559	308.05
812.737	410.45
812.916	377.68
813.095	344.91
813.274	394.06
813.453	377.68
813.632	344.91
813.811	416.59
813.989	330.58
814.168	359.25
814.347	310.1
814.526	334.67
814.704	389.97
814.883	371.54
815.062	283.47
815.24	351.06
815.419	267.09
815.598	351.06
815.776	277.33
815.955	340.82
816.133	303.95
816.312	301.9
816.49	320.34
816.669	234.32
816.847	277.33
817.026	346.96
817.204	383.82
817.383	316.24
817.561	336.72
817.74	250.71
817.918	328.53
818.097	277.33
818.275	262.99
818.453	232.27
818.632	400.21
818.81	297.81
818.988	222.03
819.167	295.76
819.345	222.03
819.523	234.32
819.701	222.03
819.879	246.61
820.058	320.34
820.236	260.95
820.414	189.27
820.592	168.79
820.77	291.66
820.948	265.04
821.127	246.61
821.305	299.86
821.483	285.52
821.661	244.56
821.839	207.7
822.017	217.94
822.195	213.84
822.373	320.34
822.551	226.13
822.729	326.48
822.907	232.27
823.085	320.34
823.262	209.75
823.44	236.37
823.618	275.28
823.796	262.99
823.974	299.86
824.152	187.22
824.329	209.75
824.507	289.62
824.685	205.65
824.863	269.14
825.04	256.85
825.218	246.61
825.396	248.66
825.574	275.28
825.751	197.46
825.929	260.95
826.107	254.8
826.284	240.47
826.462	205.65
826.639	217.94
826.817	222.03
826.994	209.75
827.172	228.18
827.349	293.71
827.527	224.08
827.704	189.27
827.882	279.38
828.059	252.75
828.237	146.26
828.414	213.84
828.591	125.78
828.769	228.18
828.946	234.32
829.124	201.55
829.301	203.6
829.478	209.75
829.655	181.07
829.833	201.55
830.01	72.53
830.187	244.56
830.364	142.16
830.542	189.27
830.719	230.23
830.896	199.51
831.073	193.36
831.25	254.8
831.427	236.37
831.604	226.13
831.782	162.64
831.959	203.6
832.136	189.27
832.313	176.98
832.49	127.83
832.667	101.2
832.844	146.26
833.021	154.45
833.198	219.99
833.374	201.55
833.551	131.92
833.728	95.06
833.905	205.65
834.082	70.48
834.259	187.22
834.436	252.75
834.612	133.97
834.789	197.46
834.966	146.26
835.143	115.54
835.319	115.54
835.496	189.27
835.673	111.44
835.85	209.75
836.026	164.69
836.203	207.7
836.38	146.26
836.556	125.78
836.733	39.76
836.909	209.75
837.086	150.36
837.262	148.31
837.439	107.35
837.616	72.53
837.792	86.87
837.968	160.59
838.145	64.34
838.321	101.2
838.498	62.29
838.674	213.84
838.851	119.64
839.027	166.74
839.203	74.58
839.38	80.72
839.556	115.54
839.732	109.4
839.909	156.5
840.085	97.11
840.261	115.54
840.437	111.44
840.614	95.06
840.79	142.16
840.966	117.59
841.142	140.12
841.318	101.2
841.494	170.83
841.671	181.07
841.847	176.98
842.023	115.54
842.199	82.77
842.375	254.8
842.551	52.05
842.727	115.54
842.903	179.03
843.079	123.73
843.255	140.12
843.431	107.35
843.607	215.89
843.783	78.68
843.959	74.58
844.134	21.33
844.31	127.83
844.486	56.15
844.662	90.96
844.838	179.03
845.013	115.54
845.189	113.49
845.365	164.69
845.541	142.16
845.716	154.45
845.892	111.44
846.068	138.07
846.244	33.62
846.419	58.2
846.595	37.72
846.77	78.68
846.946	107.35
847.122	39.76
847.297	148.31
847.473	209.75
847.648	103.25
847.824	37.72
847.999	111.44
848.175	90.96
848.35	168.79
848.526	90.96
848.701	99.16
848.876	123.73
849.052	121.68
849.227	115.54
849.403	76.63
849.578	86.87
849.753	123.73
849.929	148.31
850.104	58.2
850.279	58.2
850.454	84.82
850.63	99.16
850.805	146.26
850.98	58.2
851.155	17.24
851.33	76.63
851.505	105.3
851.681	127.83
851.856	33.62
852.031	144.21
852.206	103.25
852.381	9.05
852.556	25.43
852.731	70.48
852.906	129.88
853.081	105.3
853.256	99.16
853.431	131.92
853.606	-1.19
853.781	140.12
853.956	0.85
854.131	56.15
854.305	23.38
854.48	70.48
854.655	56.15
854.83	93.01
855.005	39.76
855.18	37.72
855.354	33.62
855.529	72.53
855.704	107.35
855.879	107.35
856.053	39.76
856.228	103.25
856.403	-23.72
856.577	111.44
856.752	-13.48
856.926	0.85
857.101	25.43
857.276	-9.39
857.45	90.96
857.625	156.5
857.799	72.53
857.974	60.24
858.148	-1.19
858.323	62.29
858.497	54.1
858.672	50
858.846	0.85
859.02	23.38
859.195	-42.15
859.369	29.52
859.543	58.2
859.718	4.95
859.892	58.2
860.066	144.21
860.241	54.1
860.415	13.14
860.589	-42.15
860.763	-31.91
860.938	4.95
861.112	80.72
861.286	41.81
861.46	4.95
861.634	115.54
861.808	113.49
861.982	62.29
862.157	-11.43
862.331	56.15
862.505	7
862.679	39.76
862.853	35.67
863.027	56.15
863.201	76.63
863.375	15.19
863.549	-23.72
863.722	39.76
863.896	84.82
864.07	17.24
864.244	-25.77
864.418	13.14
864.592	9.05
864.766	25.43
864.939	78.68
865.113	-64.68
865.287	74.58
865.461	66.39
865.634	-44.2
865.808	33.62
865.982	-7.34
866.156	4.95
866.329	11.09
866.503	15.19
866.676	25.43
866.85	60.24
867.024	11.09
867.197	58.2
867.371	37.72
867.544	78.68
867.718	-29.87
867.891	41.81
868.065	25.43
868.238	7
868.412	58.2
868.585	-54.44
868.759	-19.63
868.932	25.43
869.105	58.2
869.279	17.24
869.452	-38.06
869.625	37.72
869.799	60.24
869.972	-3.24
870.145	-15.53
870.319	17.24
870.492	35.67
870.665	-79.02
870.838	-17.58
871.011	-7.34
871.185	2.9
871.358	15.19
871.531	-21.67
871.704	-1.19
871.877	-23.72
872.05	37.72
872.223	0.85
872.396	-7.34
872.569	58.2
872.742	9.05
872.915	31.57
873.088	-19.63
873.261	-21.67
873.434	66.39
873.607	50
873.78	111.44
873.953	19.29
874.126	-25.77
874.299	-50.35
874.471	7
874.644	64.34
874.817	39.76
874.99	99.16
875.163	0.85
875.335	-7.34
875.508	-9.39
875.681	103.25
875.853	31.57
876.026	72.53
876.199	-23.72
876.371	-31.91
876.544	35.67
876.717	13.14
876.889	97.11
877.062	52.05
877.234	7
877.407	-33.96
877.579	27.48
877.752	21.33
877.924	47.96
878.097	-1.19
878.269	4.95
878.442	0.85
878.614	23.38
878.786	56.15
878.959	37.72
879.131	-9.39
879.303	-17.58
879.476	95.06
879.648	103.25
879.82	9.05
879.993	17.24
880.165	0.85
880.337	-11.43
880.509	39.76
880.681	0.85
880.854	15.19
881.026	95.06
881.198	39.76
881.37	70.48
881.542	17.24
881.714	17.24
881.886	19.29
882.058	-17.58
882.23	62.29
882.402	9.05
882.574	23.38
882.746	-42.15
882.918	107.35
883.09	41.81
883.262	-91.31
883.434	27.48
883.606	7
883.778	-64.68
883.95	66.39
884.122	45.91
884.293	58.2
884.465	13.14
884.637	78.68
884.809	-48.3
884.98	11.09
885.152	74.58
885.324	17.24
885.496	23.38
885.667	-81.07
885.839	-1.19
886.011	95.06
886.182	62.29
886.354	9.05
886.525	41.81
886.697	-11.43
886.869	-11.43
887.04	-29.87
887.212	33.62
887.383	72.53
887.555	-15.53
887.726	66.39
887.897	0.85
888.069	37.72
888.24	29.52
888.412	47.96
888.583	-66.73
888.754	-7.34
888.926	43.86
889.097	39.76
889.268	-23.72
889.44	-19.63
889.611	82.77
889.782	41.81
889.953	-56.49
890.125	50
890.296	-44.2
890.467	-44.2
890.638	47.96
890.809	64.34
890.98	-1.19
891.151	11.09
891.323	33.62
891.494	58.2
891.665	-89.26
891.836	-23.72
892.007	4.95
892.178	-1.19
892.349	9.05
892.52	-66.73
892.691	-23.72
892.862	-40.11
893.032	-72.87
893.203	37.72
893.374	-27.82
893.545	45.91
893.716	-5.29
893.887	9.05
894.057	-29.87
894.228	31.57
894.399	33.62
894.57	-23.72
894.74	41.81
894.911	17.24
895.082	54.1
895.253	13.14
895.423	-21.67
895.594	43.86
895.764	47.96
895.935	47.96
896.106	47.96
896.276	31.57
896.447	41.81
896.617	50
896.788	-70.83
896.958	37.72
897.129	78.68
897.299	-31.91
897.47	56.15
897.64	41.81
897.81	90.96
897.981	33.62
898.151	-5.29
898.322	19.29
898.492	70.48
898.662	-62.63
898.832	41.81
899.003	-7.34
899.173	66.39
899.343	4.95
899.513	-38.06
