Data from USB4F104151__56__11-30-44-361.txt Node

Date: Fri Mar 14 11:30:44 EDT 2025
User: louis
Spectrometer: USB4F10415
Trigger mode: 4
Integration Time (sec): 5.000000E-2
Scans to average: 1
Electric dark correction enabled: true
Nonlinearity correction enabled: false
Boxcar width: 0
XAxis mode: Wavelengths
Number of Pixels in Spectrum: 3648
>>>>>Begin Spectral Data<<<<<
178.204	-196.95
178.424	-196.95
178.644	-196.95
178.864	-182.61
179.084	-221.52
179.304	-24.92
179.524	-49.49
179.744	36.52
179.964	20.14
180.184	-12.63
180.404	22.19
180.624	-18.77
180.844	18.09
181.064	3.75
181.283	28.33
181.503	-63.83
181.723	40.62
181.943	-20.82
182.163	69.29
182.383	-35.16
182.602	50.86
182.822	67.24
183.042	18.09
183.262	-35.16
183.482	-31.06
183.701	54.95
183.921	34.47
184.141	-39.25
184.361	54.95
184.58	38.57
184.8	-10.58
185.02	-26.96
185.239	9.9
185.459	-22.87
185.679	71.34
185.898	1.71
186.118	5.8
186.338	42.67
186.557	34.47
186.777	-63.83
186.997	-26.96
187.216	57
187.436	75.43
187.655	-0.34
187.875	9.9
188.095	28.33
188.314	81.58
188.534	42.67
188.753	-24.92
188.973	34.47
189.192	100.01
189.412	-51.54
189.631	-22.87
189.851	5.8
190.07	46.76
190.29	-14.68
190.509	48.81
190.729	42.67
190.948	34.47
191.168	190.12
191.387	30.38
191.607	50.86
191.826	46.76
192.045	5.8
192.265	50.86
192.484	48.81
192.704	97.96
192.923	-94.55
193.142	65.19
193.362	89.77
193.581	52.91
193.8	48.81
194.02	73.39
194.239	-4.44
194.458	59.05
194.678	44.71
194.897	54.95
195.116	5.8
195.335	-51.54
195.555	-24.92
195.774	26.28
195.993	28.33
196.212	57
196.432	11.95
196.651	-6.49
196.87	-35.16
197.089	122.54
197.308	-4.44
197.528	18.09
197.747	61.1
197.966	-0.34
198.185	81.58
198.404	7.85
198.623	85.67
198.842	57
199.062	48.81
199.281	40.62
199.5	7.85
199.719	42.67
199.938	42.67
200.157	-18.77
200.376	59.05
200.595	36.52
200.814	30.38
201.033	-14.68
201.252	26.28
201.471	-6.49
201.69	77.48
201.909	59.05
202.128	81.58
202.347	67.24
202.566	18.09
202.785	75.43
203.004	24.23
203.223	100.01
203.442	-14.68
203.661	-6.49
203.879	83.63
204.098	26.28
204.317	-26.96
204.536	75.43
204.755	120.49
204.974	89.77
205.193	5.8
205.411	75.43
205.63	-14.68
205.849	-39.25
206.068	-26.96
206.287	-26.96
206.505	26.28
206.724	46.76
206.943	34.47
207.162	20.14
207.381	-39.25
207.599	-14.68
207.818	1.71
208.037	-0.34
208.255	9.9
208.474	-29.01
208.693	22.19
208.911	-35.16
209.13	18.09
209.349	50.86
209.567	-6.49
209.786	20.14
210.005	-82.26
210.223	26.28
210.442	-37.2
210.661	85.67
210.879	40.62
211.098	-55.64
211.316	61.1
211.535	79.53
211.753	30.38
211.972	-10.58
212.191	13.99
212.409	54.95
212.628	52.91
212.846	-22.87
213.065	116.39
213.283	24.23
213.502	7.85
213.72	30.38
213.938	38.57
214.157	75.43
214.375	75.43
214.594	67.24
214.812	11.95
215.031	-14.68
215.249	65.19
215.467	5.8
215.686	-55.64
215.904	75.43
216.122	-20.82
216.341	38.57
216.559	5.8
216.778	91.82
216.996	50.86
217.214	9.9
217.432	-8.53
217.651	-137.56
217.869	30.38
218.087	-2.39
218.306	20.14
218.524	20.14
218.742	-22.87
218.96	89.77
219.179	-4.44
219.397	18.09
219.615	24.23
219.833	126.63
220.051	32.43
220.27	32.43
220.488	36.52
220.706	18.09
220.924	-55.64
221.142	18.09
221.36	59.05
221.578	18.09
221.796	40.62
222.015	7.85
222.233	3.75
222.451	-35.16
222.669	24.23
222.887	9.9
223.105	50.86
223.323	9.9
223.541	-61.78
223.759	108.2
223.977	-18.77
224.195	89.77
224.413	81.58
224.631	-14.68
224.849	79.53
225.067	81.58
225.285	-26.96
225.503	-4.44
225.721	18.09
225.939	85.67
226.157	11.95
226.375	50.86
226.592	59.05
226.81	30.38
227.028	112.3
227.246	65.19
227.464	59.05
227.682	81.58
227.9	59.05
228.117	61.1
228.335	-16.73
228.553	73.39
228.771	26.28
228.989	-2.39
229.206	48.81
229.424	-14.68
229.642	-2.39
229.86	-53.59
230.077	59.05
230.295	83.63
230.513	42.67
230.731	32.43
230.948	100.01
231.166	50.86
231.384	24.23
231.601	-26.96
231.819	132.78
232.037	36.52
232.254	40.62
232.472	3.75
232.689	-53.59
232.907	18.09
233.125	75.43
233.342	79.53
233.56	16.04
233.777	34.47
233.995	-55.64
234.213	97.96
234.43	3.75
234.648	-12.63
234.865	50.86
235.083	-18.77
235.3	83.63
235.518	38.57
235.735	-2.39
235.953	18.09
236.17	-0.34
236.388	-6.49
236.605	13.99
236.822	75.43
237.04	54.95
237.257	34.47
237.475	65.19
237.692	20.14
237.909	50.86
238.127	-14.68
238.344	57
238.562	34.47
238.779	-31.06
238.996	-61.78
239.214	32.43
239.431	18.09
239.648	-10.58
239.865	26.28
240.083	42.67
240.3	79.53
240.517	50.86
240.735	48.81
240.952	57
241.169	59.05
241.386	5.8
241.603	61.1
241.821	-72.02
242.038	9.9
242.255	40.62
242.472	-41.3
242.689	75.43
242.907	75.43
243.124	-35.16
243.341	7.85
243.558	22.19
243.775	1.71
243.992	-8.53
244.209	28.33
244.426	95.91
244.643	46.76
244.86	7.85
245.078	46.76
245.295	30.38
245.512	16.04
245.729	9.9
245.946	118.44
246.163	9.9
246.38	1.71
246.597	75.43
246.814	-51.54
247.031	46.76
247.248	-6.49
247.464	7.85
247.681	3.75
247.898	34.47
248.115	120.49
248.332	-14.68
248.549	79.53
248.766	54.95
248.983	46.76
249.2	57
249.417	18.09
249.633	-6.49
249.85	22.19
250.067	18.09
250.284	67.24
250.501	34.47
250.717	106.15
250.934	34.47
251.151	20.14
251.368	9.9
251.585	38.57
251.801	-26.96
252.018	-53.59
252.235	71.34
252.451	-26.96
252.668	22.19
252.885	-29.01
253.102	42.67
253.318	81.58
253.535	13.99
253.752	-18.77
253.968	-22.87
254.185	13.99
254.401	18.09
254.618	7.85
254.835	26.28
255.051	9.9
255.268	50.86
255.484	-47.44
255.701	-61.78
255.917	34.47
256.134	-0.34
256.351	-4.44
256.567	32.43
256.784	59.05
257	-2.39
257.217	-14.68
257.433	67.24
257.65	50.86
257.866	-10.58
258.082	18.09
258.299	11.95
258.515	32.43
258.732	-22.87
258.948	13.99
259.165	83.63
259.381	13.99
259.597	16.04
259.814	38.57
260.03	-22.87
260.246	61.1
260.463	26.28
260.679	57
260.895	-2.39
261.112	-33.11
261.328	-33.11
261.544	42.67
261.761	108.2
261.977	61.1
262.193	63.15
262.409	59.05
262.626	-26.96
262.842	-24.92
263.058	40.62
263.274	40.62
263.49	26.28
263.707	73.39
263.923	-6.49
264.139	-22.87
264.355	-20.82
264.571	75.43
264.787	69.29
265.004	79.53
265.22	24.23
265.436	30.38
265.652	9.9
265.868	69.29
266.084	-8.53
266.3	26.28
266.516	-12.63
266.732	-0.34
266.948	38.57
267.164	38.57
267.38	40.62
267.596	75.43
267.812	83.63
268.028	32.43
268.244	52.91
268.46	5.8
268.676	5.8
268.892	32.43
269.108	9.9
269.324	-57.68
269.54	-47.44
269.756	44.71
269.972	24.23
270.188	-26.96
270.403	50.86
270.619	18.09
270.835	30.38
271.051	42.67
271.267	-43.35
271.483	54.95
271.698	38.57
271.914	9.9
272.13	13.99
272.346	95.91
272.562	54.95
272.777	57
272.993	100.01
273.209	-10.58
273.425	38.57
273.64	28.33
273.856	57
274.072	-51.54
274.287	-8.53
274.503	24.23
274.719	1.71
274.934	50.86
275.15	59.05
275.366	30.38
275.581	-63.83
275.797	-8.53
276.012	36.52
276.228	65.19
276.444	50.86
276.659	18.09
276.875	-8.53
277.09	3.75
277.306	42.67
277.521	52.91
277.737	46.76
277.952	61.1
278.168	54.95
278.383	95.91
278.599	13.99
278.814	26.28
279.03	18.09
279.245	116.39
279.461	24.23
279.676	1.71
279.892	67.24
280.107	-18.77
280.322	-41.3
280.538	71.34
280.753	20.14
280.969	26.28
281.184	-35.16
281.399	104.11
281.615	1.71
281.83	30.38
282.045	-6.49
282.26	-59.73
282.476	114.34
282.691	67.24
282.906	67.24
283.122	-8.53
283.337	1.71
283.552	1.71
283.767	5.8
283.983	36.52
284.198	32.43
284.413	22.19
284.628	75.43
284.843	-18.77
285.058	34.47
285.274	26.28
285.489	83.63
285.704	91.82
285.919	40.62
286.134	-0.34
286.349	30.38
286.564	26.28
286.779	-29.01
286.995	24.23
287.21	34.47
287.425	16.04
287.64	-51.54
287.855	-55.64
288.07	18.09
288.285	13.99
288.5	59.05
288.715	112.3
288.93	-6.49
289.145	-43.35
289.36	16.04
289.575	54.95
289.79	102.06
290.004	1.71
290.219	73.39
290.434	18.09
290.649	-47.44
290.864	32.43
291.079	9.9
291.294	-16.73
291.509	59.05
291.724	-14.68
291.938	-29.01
292.153	18.09
292.368	-26.96
292.583	36.52
292.798	89.77
293.012	50.86
293.227	-14.68
293.442	59.05
293.657	38.57
293.871	46.76
294.086	50.86
294.301	57
294.516	83.63
294.73	30.38
294.945	38.57
295.16	50.86
295.374	73.39
295.589	71.34
295.804	-26.96
296.018	3.75
296.233	24.23
296.447	-6.49
296.662	-18.77
296.877	9.9
297.091	26.28
297.306	22.19
297.52	26.28
297.735	89.77
297.949	9.9
298.164	73.39
298.378	65.19
298.593	81.58
298.807	54.95
299.022	-6.49
299.236	42.67
299.451	-86.36
299.665	32.43
299.88	34.47
300.094	34.47
300.309	26.28
300.523	75.43
300.737	20.14
300.952	85.67
301.166	97.96
301.381	-53.59
301.595	-26.96
301.809	-39.25
302.024	46.76
302.238	-29.01
302.452	116.39
302.667	-33.11
302.881	120.49
303.095	106.15
303.309	36.52
303.524	67.24
303.738	83.63
303.952	-8.53
304.166	71.34
304.381	-82.26
304.595	134.82
304.809	-8.53
305.023	18.09
305.237	116.39
305.452	-8.53
305.666	46.76
305.88	104.11
306.094	83.63
306.308	42.67
306.522	85.67
306.736	24.23
306.95	73.39
307.164	24.23
307.379	54.95
307.593	52.91
307.807	79.53
308.021	18.09
308.235	13.99
308.449	-63.83
308.663	1.71
308.877	100.01
309.091	40.62
309.305	-22.87
309.519	34.47
309.733	118.44
309.947	-74.07
310.161	-12.63
310.374	83.63
310.588	63.15
310.802	-35.16
311.016	102.06
311.23	-0.34
311.444	-10.58
311.658	-12.63
311.872	18.09
312.085	32.43
312.299	73.39
312.513	93.87
312.727	9.9
312.941	69.29
313.154	79.53
313.368	89.77
313.582	75.43
313.796	46.76
314.009	22.19
314.223	132.78
314.437	46.76
314.651	95.91
314.864	32.43
315.078	20.14
315.292	-14.68
315.505	44.71
315.719	67.24
315.933	38.57
316.146	32.43
316.36	-6.49
316.573	40.62
316.787	52.91
317.001	54.95
317.214	-39.25
317.428	79.53
317.641	-31.06
317.855	-20.82
318.068	22.19
318.282	-37.2
318.495	42.67
318.709	30.38
318.922	32.43
319.136	114.34
319.349	57
319.563	-16.73
319.776	73.39
319.99	-0.34
320.203	54.95
320.417	36.52
320.63	32.43
320.843	93.87
321.057	59.05
321.27	26.28
321.483	75.43
321.697	140.97
321.91	-6.49
322.124	-24.92
322.337	30.38
322.55	50.86
322.763	26.28
322.977	24.23
323.19	81.58
323.403	57
323.617	-2.39
323.83	9.9
324.043	36.52
324.256	79.53
324.469	-47.44
324.683	32.43
324.896	18.09
325.109	28.33
325.322	-31.06
325.535	20.14
325.748	83.63
325.962	34.47
326.175	32.43
326.388	40.62
326.601	97.96
326.814	-16.73
327.027	24.23
327.24	106.15
327.453	32.43
327.666	83.63
327.879	57
328.092	42.67
328.305	67.24
328.518	40.62
328.731	-10.58
328.944	67.24
329.157	52.91
329.37	-16.73
329.583	100.01
329.796	97.96
330.009	-16.73
330.222	130.73
330.435	24.23
330.648	67.24
330.861	18.09
331.073	34.47
331.286	54.95
331.499	67.24
331.712	9.9
331.925	40.62
332.138	36.52
332.35	95.91
332.563	91.82
332.776	83.63
332.989	9.9
333.202	30.38
333.414	-45.4
333.627	13.99
333.84	26.28
334.053	34.47
334.265	48.81
334.478	-2.39
334.691	13.99
334.903	71.34
335.116	-16.73
335.329	-53.59
335.541	89.77
335.754	100.01
335.966	30.38
336.179	-16.73
336.392	67.24
336.604	87.72
336.817	38.57
337.029	-12.63
337.242	13.99
337.454	26.28
337.667	24.23
337.88	124.58
338.092	57
338.305	59.05
338.517	-26.96
338.729	57
338.942	61.1
339.154	7.85
339.367	63.15
339.579	91.82
339.792	-2.39
340.004	97.96
340.217	-14.68
340.429	-8.53
340.641	16.04
340.854	-4.44
341.066	13.99
341.278	85.67
341.491	50.86
341.703	87.72
341.915	-14.68
342.128	34.47
342.34	5.8
342.552	3.75
342.764	-39.25
342.977	-14.68
343.189	-14.68
343.401	93.87
343.613	9.9
343.826	67.24
344.038	48.81
344.25	145.06
344.462	67.24
344.674	87.72
344.886	-24.92
345.099	34.47
345.311	77.48
345.523	1.71
345.735	50.86
345.947	-4.44
346.159	-2.39
346.371	100.01
346.583	-72.02
346.795	26.28
347.007	9.9
347.219	67.24
347.431	30.38
347.643	7.85
347.855	-76.12
348.067	124.58
348.279	50.86
348.491	26.28
348.703	67.24
348.915	22.19
349.127	34.47
349.339	40.62
349.551	-4.44
349.763	87.72
349.975	9.9
350.187	69.29
350.399	38.57
350.61	65.19
350.822	7.85
351.034	44.71
351.246	54.95
351.458	67.24
351.669	59.05
351.881	140.97
352.093	71.34
352.305	100.01
352.517	38.57
352.728	67.24
352.94	-12.63
353.152	48.81
353.363	-6.49
353.575	100.01
353.787	83.63
353.999	40.62
354.21	59.05
354.422	-14.68
354.633	57
354.845	104.11
355.057	48.81
355.268	114.34
355.48	-55.64
355.692	-41.3
355.903	28.33
356.115	-4.44
356.326	-10.58
356.538	128.68
356.749	46.76
356.961	73.39
357.172	89.77
357.384	24.23
357.595	97.96
357.807	93.87
358.018	57
358.23	73.39
358.441	110.25
358.653	32.43
358.864	69.29
359.075	-39.25
359.287	67.24
359.498	-39.25
359.709	50.86
359.921	81.58
360.132	54.95
360.344	104.11
360.555	-22.87
360.766	42.67
360.977	59.05
361.189	54.95
361.4	-10.58
361.611	-16.73
361.823	69.29
362.034	50.86
362.245	-2.39
362.456	34.47
362.667	75.43
362.879	-0.34
363.09	26.28
363.301	42.67
363.512	-2.39
363.723	73.39
363.935	48.81
364.146	67.24
364.357	50.86
364.568	-35.16
364.779	42.67
364.99	75.43
365.201	-22.87
365.412	89.77
365.623	-49.49
365.834	18.09
366.045	75.43
366.256	124.58
366.467	24.23
366.678	-24.92
366.889	24.23
367.1	22.19
367.311	81.58
367.522	-8.53
367.733	75.43
367.944	120.49
368.155	59.05
368.366	59.05
368.577	73.39
368.788	9.9
368.999	9.9
369.209	30.38
369.42	130.73
369.631	50.86
369.842	91.82
370.053	79.53
370.264	106.15
370.474	69.29
370.685	1.71
370.896	26.28
371.107	140.97
371.317	75.43
371.528	63.15
371.739	104.11
371.95	32.43
372.16	18.09
372.371	13.99
372.582	71.34
372.792	67.24
373.003	145.06
373.214	34.47
373.424	26.28
373.635	1.71
373.846	63.15
374.056	22.19
374.267	79.53
374.477	50.86
374.688	54.95
374.898	81.58
375.109	13.99
375.319	3.75
375.53	46.76
375.74	1.71
375.951	-26.96
376.161	26.28
376.372	186.02
376.582	-35.16
376.793	3.75
377.003	83.63
377.214	18.09
377.424	42.67
377.635	132.78
377.845	-8.53
378.055	153.26
378.266	-18.77
378.476	32.43
378.686	34.47
378.897	5.8
379.107	18.09
379.317	91.82
379.528	26.28
379.738	108.2
379.948	-12.63
380.158	59.05
380.369	81.58
380.579	32.43
380.789	57
380.999	77.48
381.21	32.43
381.42	104.11
381.63	-2.39
381.84	63.15
382.05	108.2
382.261	79.53
382.471	46.76
382.681	89.77
382.891	59.05
383.101	108.2
383.311	-8.53
383.521	30.38
383.731	163.5
383.941	22.19
384.151	59.05
384.361	-8.53
384.571	18.09
384.781	32.43
384.991	46.76
385.201	104.11
385.411	89.77
385.621	75.43
385.831	118.44
386.041	48.81
386.251	106.15
386.461	81.58
386.671	42.67
386.881	63.15
387.091	81.58
387.301	50.86
387.511	22.19
387.72	67.24
387.93	130.73
388.14	65.19
388.35	22.19
388.56	65.19
388.769	108.2
388.979	75.43
389.189	69.29
389.399	38.57
389.609	114.34
389.818	63.15
390.028	20.14
390.238	26.28
390.447	-8.53
390.657	50.86
390.867	20.14
391.076	24.23
391.286	42.67
391.496	59.05
391.705	59.05
391.915	122.54
392.125	116.39
392.334	1.71
392.544	73.39
392.753	36.52
392.963	67.24
393.172	63.15
393.382	-16.73
393.591	116.39
393.801	32.43
394.01	132.78
394.22	28.33
394.429	100.01
394.639	1.71
394.848	132.78
395.058	67.24
395.267	124.58
395.477	91.82
395.686	67.24
395.895	157.35
396.105	138.92
396.314	93.87
396.524	57
396.733	108.2
396.942	75.43
397.152	108.2
397.361	128.68
397.57	69.29
397.78	79.53
397.989	79.53
398.198	155.3
398.407	57
398.617	54.95
398.826	102.06
399.035	112.3
399.244	147.11
399.453	122.54
399.663	112.3
399.872	112.3
400.081	165.54
400.29	151.21
400.499	26.28
400.708	106.15
400.917	50.86
401.127	218.79
401.336	124.58
401.545	198.31
401.754	149.16
401.963	134.82
402.172	124.58
402.381	71.34
402.59	106.15
402.799	97.96
403.008	118.44
403.217	116.39
403.426	143.02
403.635	108.2
403.844	95.91
404.053	138.92
404.262	124.58
404.471	108.2
404.68	97.96
404.888	132.78
405.097	122.54
405.306	206.5
405.515	149.16
405.724	206.5
405.933	237.22
406.142	233.13
406.35	181.93
406.559	272.04
406.768	165.54
406.977	243.37
407.185	220.84
407.394	186.02
407.603	202.41
407.812	261.8
408.02	313
408.229	313
408.438	231.08
408.646	231.08
408.855	204.46
409.064	247.46
409.272	257.7
409.481	249.51
409.69	274.09
409.898	278.18
410.107	280.23
410.315	298.66
410.524	280.23
410.733	437.92
410.941	374.44
411.15	378.53
411.358	345.77
411.567	407.2
411.775	374.44
411.984	415.4
412.192	474.79
412.401	431.78
412.609	544.42
412.818	554.66
413.026	521.89
413.234	556.71
413.443	521.89
413.651	521.89
413.86	599.71
414.068	706.21
414.276	777.89
414.485	618.15
414.693	720.54
414.901	786.08
415.11	726.69
415.318	698.02
415.526	808.61
415.734	775.84
415.943	786.08
416.151	958.11
416.359	886.43
416.567	913.05
416.776	919.2
416.984	1089.18
417.192	1050.27
417.4	1040.03
417.608	1056.41
417.817	1058.46
418.025	1140.38
418.233	1226.39
418.441	1212.06
418.649	1341.08
418.857	1320.6
419.065	1320.6
419.273	1339.03
419.481	1345.17
419.689	1504.92
419.897	1652.37
420.105	1662.61
420.313	1722
420.521	1816.21
420.729	1654.42
420.937	1836.69
421.145	1867.41
421.353	1898.13
421.561	2080.39
421.769	2174.6
421.977	2164.36
422.185	2188.94
422.393	2309.77
422.601	2582.15
422.809	2399.88
423.017	2422.41
423.224	2549.38
423.432	2602.63
423.64	2727.55
423.848	3004.03
424.056	2852.48
424.263	3065.47
424.471	2973.31
424.679	3092.09
424.887	3184.25
425.094	3343.99
425.302	3350.14
425.51	3456.63
425.718	3487.35
425.925	3589.75
426.133	3884.66
426.341	4007.53
426.548	4249.19
426.756	4251.24
426.964	4290.15
427.171	4408.94
427.379	4681.32
427.586	4752.99
427.794	4849.25
428.001	5045.85
428.209	5252.7
428.417	5228.12
428.624	5609.05
428.832	5580.37
429.039	5494.36
429.247	5645.91
429.454	6094.41
429.662	6356.55
429.869	6037.07
430.076	6473.29
430.284	6280.78
430.491	6473.29
430.699	6921.79
430.906	7011.9
431.114	6850.11
431.321	7308.86
431.528	7462.46
431.736	7816.76
431.943	8214.06
432.15	7894.58
432.358	8312.36
432.565	8619.56
432.772	8635.94
432.979	9119.26
433.187	9174.56
433.394	9244.19
433.601	9739.8
433.808	10118.67
434.016	9745.94
434.223	10155.54
434.43	10763.78
434.637	10561.03
434.844	11109.89
435.052	11429.37
435.259	11236.86
435.466	11599.35
435.673	11183.62
435.88	12178.93
436.087	12838.37
436.294	12819.94
436.501	12535.28
436.708	12754.41
436.915	13155.81
437.122	13868.5
437.329	13669.85
437.537	14124.5
437.743	14519.76
437.95	14394.83
438.157	15058.37
438.364	15365.57
438.571	15523.26
438.778	15515.07
438.985	16942.5
439.192	16432.56
439.399	17106.34
439.606	16526.77
439.813	17468.83
440.02	18740.62
440.227	18179.48
440.433	18015.64
440.64	18673.04
440.847	18482.58
441.054	19135.88
441.261	20315.51
441.467	19981.69
441.674	20239.73
441.881	20905.32
442.088	20952.43
442.294	20788.59
442.501	21491.04
442.708	21691.74
442.914	22746.45
443.121	23586.11
443.328	22891.85
443.534	24472.89
443.741	23997.76
443.948	23756.1
444.154	25437.48
444.361	25206.06
444.568	25384.23
444.774	25339.18
444.981	25785.63
445.187	26381.59
445.394	27600.13
445.6	27172.11
445.807	30092.51
446.013	28286.2
446.22	29005.04
446.426	30504.15
446.633	30377.18
446.839	31472.84
447.046	30162.14
447.252	32091.33
447.459	32167.1
447.665	31562.95
447.871	33426.6
448.078	34772.12
448.284	33115.31
448.491	33959.08
448.697	34890.9
448.903	35628.17
449.11	35875.98
449.316	35284.11
449.522	35861.64
449.728	37065.85
449.935	37354.61
450.141	37039.22
450.347	37563.5
450.553	36680.83
450.76	37235.83
450.966	38446.18
451.172	37727.34
451.378	39232.6
451.584	37915.75
451.791	38825.05
451.997	39050.33
452.203	39375.95
452.409	39308.37
452.615	39296.08
452.821	37893.22
453.027	37473.39
453.233	39122.01
453.44	37667.95
453.646	38036.58
453.852	38173.8
454.058	39048.28
454.264	37510.25
454.47	38483.04
454.676	37637.23
454.882	38788.19
455.088	35517.58
455.294	36240.51
455.5	36422.78
455.705	36879.48
455.911	35153.04
456.117	34890.9
456.323	34266.27
456.529	32201.92
456.735	33961.12
456.941	32851.13
457.147	32191.68
457.352	31177.93
457.558	30950.61
457.764	31122.64
457.97	30510.3
458.176	29641.96
458.381	29791.46
458.587	28269.82
458.793	27847.94
458.999	26725.65
459.204	28871.92
459.41	27905.28
459.616	26144.03
459.821	25963.81
460.027	26039.58
460.233	25562.4
460.438	24333.62
460.644	24603.96
460.85	23268.68
461.055	22992.2
461.261	23012.68
461.466	21192.04
461.672	20458.87
461.878	22031.71
462.083	20235.64
462.289	20155.77
462.494	20104.57
462.7	18914.7
462.905	18826.64
463.111	19006.86
463.316	19281.28
463.522	19035.53
463.727	18965.9
463.932	18820.49
464.138	18562.45
464.343	18769.29
464.549	18115.99
464.754	18877.83
464.959	19002.76
465.165	18879.88
465.37	17573.28
465.575	17354.15
465.781	17888.67
465.986	18038.17
466.191	17335.71
466.397	16866.73
466.602	16238
466.807	16721.32
467.012	16868.78
467.218	16555.44
467.423	16426.42
467.628	16836.01
467.833	17477.02
468.038	16836.01
468.244	16418.22
468.449	16786.86
468.654	16090.55
468.859	16184.76
469.064	16385.46
469.269	15660.48
469.474	15484.35
469.679	15867.32
469.885	15482.3
470.09	15549.89
470.295	15551.93
470.5	14978.5
470.705	15297.99
470.91	14915.02
471.115	14790.09
471.32	15007.17
471.525	14894.54
471.73	14560.72
471.935	14407.12
472.139	13888.98
472.344	14310.86
472.549	13940.18
472.754	14081.49
472.959	13639.13
473.164	13342.18
473.369	13112.8
473.574	13688.28
473.778	13432.29
473.983	13544.92
474.188	13317.6
474.393	12541.42
474.598	12748.26
474.802	12604.91
475.007	12418.54
475.212	12695.02
475.417	12148.21
475.621	12094.96
475.826	12166.64
476.031	11900.41
476.235	11695.61
476.44	11660.79
476.645	11519.48
476.849	11677.18
477.054	11466.24
477.259	11277.82
477.463	11363.84
477.668	11122.18
477.872	11232.77
478.077	11171.33
478.282	10626.57
478.486	10655.24
478.691	10634.76
478.895	10524.17
479.1	10429.96
479.304	10483.21
479.509	10266.13
479.713	10415.63
479.918	10190.35
480.122	9905.68
480.326	9870.87
480.531	10083.86
480.735	9879.06
480.94	9842.2
481.144	10243.6
481.348	9623.06
481.553	9864.72
481.757	9791
481.961	9917.97
482.166	9920.02
482.37	9735.7
482.574	9485.85
482.778	9551.38
482.983	10034.71
483.187	9653.78
483.391	9834
483.595	9688.6
483.8	9578.01
484.004	9641.5
484.208	9825.81
484.412	9463.32
484.616	9532.95
484.821	9807.38
485.025	9657.88
485.229	9473.56
485.433	9467.42
485.637	9766.42
485.841	9631.26
486.045	9692.69
486.249	9647.64
486.453	9438.75
486.657	9573.91
486.861	9686.55
487.065	9295.39
487.269	9606.68
487.473	9330.2
487.677	9606.68
487.881	9551.38
488.085	9545.24
488.289	9719.32
488.493	9629.21
488.697	9864.72
488.901	9641.5
489.105	9672.22
489.309	9817.62
489.512	9711.13
489.716	9784.85
489.92	9879.06
490.124	9897.49
490.328	10055.19
490.531	9762.33
490.735	9874.96
490.939	9803.29
491.143	9780.76
491.346	9887.25
491.55	10016.27
491.754	9954.83
491.958	10190.35
492.161	10292.75
492.365	10331.66
492.569	10216.97
492.772	10255.89
492.976	10499.59
493.18	10374.67
493.383	10346
493.587	10139.15
493.79	10565.13
493.994	10415.63
494.197	10771.97
494.401	10688.01
494.605	10831.37
494.808	11005.44
495.012	10999.3
495.215	11122.18
495.419	10892.8
495.622	10952.2
495.825	11322.88
496.029	11222.53
496.232	11603.45
496.436	11476.48
496.639	11867.64
496.843	11800.05
497.046	12037.62
497.249	12008.95
497.453	12189.17
497.656	12148.21
497.859	12215.79
498.063	12428.78
498.266	12768.74
498.469	12572.14
498.673	12658.15
498.876	12942.82
499.079	12946.92
499.282	13184.48
499.485	13376.99
499.689	13493.72
499.892	13657.56
500.095	13686.23
500.298	14040.53
500.501	13960.66
500.705	14194.13
500.908	14437.84
501.111	14411.21
501.314	14753.23
501.517	14964.17
501.72	15191.49
501.923	15048.13
502.126	15308.23
502.329	15637.95
502.532	15685.05
502.735	15932.86
502.938	16055.73
503.141	16131.51
503.344	16442.8
503.547	16690.6
503.75	16463.28
503.953	17112.49
504.156	17257.89
504.359	17356.19
504.562	17474.98
504.765	18015.64
504.968	17929.63
505.17	18306.45
505.373	18218.39
505.576	18881.93
505.779	18582.93
505.982	19266.95
506.185	19389.83
506.387	19572.1
506.59	19742.08
506.793	19953.02
506.996	19867
507.198	20669.81
507.401	20485.49
507.604	20882.8
507.807	21187.94
508.009	21431.65
508.212	21470.56
508.415	21734.75
508.617	22148.44
508.82	22177.11
509.022	21982.56
509.225	22592.85
509.428	23086.41
509.63	23430.47
509.833	23395.65
510.035	24139.07
510.238	24008
510.44	24270.14
510.643	24882.48
510.845	25042.22
511.048	24890.67
511.25	25302.31
511.453	25685.28
511.655	26385.69
511.858	26336.54
512.06	26379.54
512.262	26967.31
512.465	26789.14
512.667	27225.36
512.87	28032.25
513.072	27989.25
513.274	28531.96
513.477	28951.79
513.679	29277.42
513.881	29238.51
514.084	30069.98
514.286	30104.8
514.488	30143.71
514.69	31345.87
514.893	31515.85
515.095	31366.35
515.297	31915.2
515.499	32154.82
515.701	32634.04
515.904	33178.8
516.106	33426.6
516.308	33819.81
516.51	34276.51
516.712	34655.39
516.914	34776.22
517.116	35830.92
517.318	35845.26
517.52	36152.45
517.722	36203.65
517.925	37022.84
518.127	37424.24
518.329	38009.96
518.531	38292.58
518.733	38677.6
518.935	38841.43
519.136	39154.77
519.338	40164.42
519.54	40744
519.742	40801.34
519.944	41129.02
520.146	42116.14
520.348	42441.76
520.55	42486.82
520.752	43031.58
520.954	43846.67
521.155	43492.37
521.357	44153.86
521.559	44925.95
521.761	45411.32
521.963	45771.76
522.164	46068.72
522.366	46101.48
522.568	46969.82
522.77	47623.12
522.971	48122.83
523.173	48161.74
523.375	48524.23
523.576	49007.55
523.778	49204.16
523.98	50191.28
524.181	50492.33
524.383	50547.62
524.584	51366.81
524.786	51514.26
524.988	51604.38
525.189	52652.94
525.391	52644.74
525.592	53283.71
525.794	53468.03
525.995	53455.74
526.197	53848.95
526.398	54465.39
526.6	54500.2
526.801	55194.46
527.003	55683.93
527.204	55462.75
527.406	56478.54
527.607	56441.68
527.808	56961.86
528.01	56269.65
528.211	56925
528.412	58473.26
528.614	57895.74
528.815	58053.43
529.016	58968.87
529.218	58272.56
529.419	58907.43
529.62	59067.17
529.822	59648.8
530.023	59435.81
530.224	59927.32
530.425	60353.3
530.626	60099.35
530.828	59910.94
531.029	60955.4
531.23	60664.59
531.431	60762.89
531.632	61180.68
531.833	61438.72
532.035	61192.96
532.236	61133.57
532.437	61524.74
532.638	61696.77
532.839	62126.84
533.04	62536.43
533.241	61831.93
533.442	62833.39
533.643	62204.66
533.844	62976.75
534.045	62624.5
534.246	62348.02
534.447	62948.07
534.648	62778.09
534.849	63417.06
535.05	62614.26
535.251	63195.88
535.451	62958.31
535.652	63369.96
535.853	63298.28
536.054	63490.79
536.255	63640.29
536.456	63388.39
536.657	64125.66
536.857	63476.45
537.058	63548.13
537.259	63884
537.46	63654.62
537.66	63722.21
537.861	64094.94
538.062	63601.38
538.263	64013.02
538.463	63378.15
538.664	64072.41
538.865	63777.5
539.065	64125.66
539.266	63777.5
539.466	64125.66
539.667	63679.2
539.868	64125.66
540.068	63912.67
540.269	64125.66
540.469	64125.66
540.67	64125.66
540.87	64125.66
541.071	64025.31
541.271	64125.66
541.472	64125.66
541.672	63974.11
541.873	64125.66
542.073	63625.95
542.274	64088.79
542.474	63927
542.675	63716.06
542.875	64125.66
543.075	63914.72
543.276	63630.05
543.476	64125.66
543.676	64010.97
543.877	63988.44
544.077	64125.66
544.277	64088.79
544.478	64125.66
544.678	64125.66
544.878	64056.03
545.078	64125.66
545.279	64113.37
545.479	64125.66
545.679	64125.66
545.879	64125.66
546.079	64125.66
546.28	64125.66
546.48	63740.64
546.68	64125.66
546.88	63949.53
547.08	64125.66
547.28	63834.84
547.48	63908.57
547.68	64125.66
547.88	64105.18
548.081	64125.66
548.281	64125.66
548.481	63918.81
548.681	64125.66
548.881	64010.97
549.081	64125.66
549.28	63793.89
549.48	64125.66
549.68	64125.66
549.88	64125.66
550.08	63781.6
550.28	64125.66
550.48	63687.39
550.68	64125.66
550.88	63843.04
551.08	64125.66
551.279	64031.45
551.479	63773.41
551.679	64125.66
551.879	63744.73
552.079	64125.66
552.278	63687.39
552.478	64125.66
552.678	63769.31
552.878	64080.6
553.077	63671.01
553.277	63564.51
553.477	64125.66
553.676	63435.49
553.876	63564.51
554.076	63361.76
554.275	63507.17
554.475	63163.11
554.674	63728.35
554.874	63261.41
555.074	63482.59
555.273	63351.52
555.473	63843.04
555.672	63351.52
555.872	63040.23
556.071	63388.39
556.271	63378.15
556.47	62780.14
556.67	62345.97
556.869	62700.27
557.068	62802.67
557.268	62495.47
557.467	62491.38
557.667	62444.27
557.866	62450.42
558.065	62212.85
558.265	61944.57
558.464	61616.89
558.663	62253.81
558.863	61405.95
559.062	62171.89
559.261	61274.88
559.461	61655.81
559.66	60556.05
559.859	61377.28
560.058	60138.26
560.258	60975.88
560.457	59906.84
560.656	60672.78
560.855	60463.89
561.054	60287.76
561.253	59863.83
561.453	60218.13
561.652	60066.58
561.851	60033.81
562.05	59497.25
562.249	59048.74
562.448	59274.02
562.647	58919.72
562.846	59173.67
563.045	58911.53
563.244	57989.94
563.443	58579.76
563.642	57727.8
563.841	58239.79
564.04	57707.32
564.239	58366.77
564.438	57432.89
564.637	57719.61
564.836	56957.77
565.035	56847.18
565.234	56894.28
565.432	56255.31
565.631	56161.11
565.83	56259.41
566.029	55726.94
566.228	56054.61
566.427	55423.84
566.625	55315.29
566.824	54762.34
567.023	55516
567.222	54217.58
567.42	54881.13
567.619	54805.35
567.818	54127.47
568.016	53523.32
568.215	54381.42
568.414	53392.25
568.612	53592.95
568.811	53009.28
569.01	53203.84
569.208	52681.61
569.407	52579.21
569.605	52114.32
569.804	52853.64
570.002	51714.97
570.201	51702.68
570.4	51426.2
570.598	51194.78
570.797	50574.25
570.995	50875.3
571.193	50334.63
571.392	50697.13
571.59	49804.21
571.789	49359.8
571.987	49312.7
572.186	49720.24
572.384	49116.09
572.582	49380.28
572.781	48976.83
572.979	48655.3
573.177	48583.62
573.376	48499.65
573.574	48008.14
573.772	48188.36
573.971	47823.82
574.169	47498.2
574.367	46875.62
574.565	47377.37
574.763	47035.36
574.962	46654.43
575.16	46128.11
575.358	46687.2
575.556	45902.83
575.754	46210.03
575.952	45419.51
576.151	45935.6
576.349	45364.21
576.547	45466.61
576.745	45272.06
576.943	44889.09
577.141	44481.54
577.339	44504.07
577.537	44473.35
577.735	44321.8
577.933	44086.28
578.131	44026.89
578.329	43740.18
578.527	43185.18
578.725	43643.92
578.923	43166.74
579.121	42570.79
579.319	42525.73
579.516	42839.07
579.714	42767.39
579.912	42456.1
580.11	42501.15
580.308	42263.59
580.506	42087.46
580.704	41294.9
580.901	41598
581.099	41538.61
581.297	41270.32
581.495	41274.42
581.692	41129.02
581.89	40598.59
582.088	41104.44
582.285	40401.99
582.483	40848.44
582.681	40694.85
582.878	40006.73
583.076	39681.1
583.274	39713.87
583.471	39660.62
583.669	39738.44
583.866	39019.61
584.064	39566.41
584.262	38683.74
584.459	39242.84
584.657	38900.83
584.854	38997.08
585.052	37919.85
585.249	38620.25
585.447	38702.17
585.644	37885.03
585.841	37600.36
586.039	37745.77
586.236	37407.86
586.434	37565.55
586.631	37311.6
586.828	37641.32
587.026	37452.91
587.223	37149.81
587.42	36805.75
587.618	36877.43
587.815	36875.38
588.012	36371.58
588.21	36449.41
588.407	36777.08
588.604	36097.16
588.801	35839.11
588.999	35794.06
589.196	35558.54
589.393	35749
589.59	35544.2
589.787	35318.93
589.984	35155.09
590.182	34993.3
590.379	35409.04
590.576	34671.77
590.773	34804.89
590.97	34772.12
591.167	34595.99
591.364	34284.7
591.561	34743.45
591.758	34084
591.955	33948.84
592.152	34264.22
592.349	33615.02
592.546	34114.72
592.743	34053.28
592.94	33021.11
593.137	33193.14
593.334	33475.76
593.531	32773.3
593.727	33361.07
593.924	32928.95
594.121	32785.59
594.318	32797.88
594.515	32535.74
594.712	32900.28
594.908	32179.39
595.105	32259.26
595.302	32105.66
595.499	32369.85
595.696	32208.06
595.892	31673.54
596.089	31675.59
596.286	31724.74
596.482	31440.07
596.679	31423.69
596.876	31698.12
597.072	31169.74
597.269	31141.07
597.466	31012.05
597.662	30850.26
597.859	30639.32
598.055	31020.24
598.252	30575.83
598.448	30682.33
598.645	30684.37
598.841	30125.28
599.038	30293.21
599.234	30037.22
599.431	29701.35
599.627	30072.03
599.824	30178.53
600.02	29525.22
600.217	30147.81
600.413	29437.16
600.609	29400.3
600.806	29355.24
601.002	29443.31
601.198	28925.17
601.395	29021.42
601.591	28486.9
601.787	28626.17
601.984	29000.94
602.18	28849.39
602.376	28329.21
602.572	28067.07
602.769	28019.97
602.965	27987.2
603.161	28085.5
603.357	27639.04
603.553	27632.9
603.75	27970.82
603.946	27745.54
604.142	27497.74
604.338	27364.62
604.534	27596.04
604.73	27004.17
604.926	27473.16
605.122	27041.04
605.318	26973.46
605.514	26811.67
605.71	26774.8
605.906	26817.81
606.102	26778.9
606.298	26567.96
606.494	26443.03
606.69	26488.09
606.886	26537.24
607.082	25928.99
607.278	26402.07
607.474	25836.83
607.67	25972
607.866	25279.78
608.062	25992.48
608.257	25589.03
608.453	25453.86
608.649	25660.71
608.845	25349.42
609.041	25478.44
609.236	25351.46
609.432	25040.17
609.628	25369.9
609.824	25128.24
610.019	25064.75
610.215	25044.27
610.411	24982.83
610.606	24374.58
610.802	24753.46
610.998	24501.56
611.193	24636.72
611.389	24503.6
611.584	24458.55
611.78	24292.66
611.976	24247.61
612.171	23989.56
612.367	24374.58
612.562	24096.06
612.758	23645.51
612.953	23674.18
613.149	24051
613.344	23453
613.539	24053.05
613.735	23420.23
613.93	23672.13
614.126	23291.21
614.321	23891.26
614.517	23328.07
614.712	23299.4
614.907	23190.86
615.103	23453
615.298	23125.32
615.493	23350.6
615.688	22900.05
615.884	23381.32
616.079	22818.13
616.274	22601.04
616.47	22787.41
616.665	22644.05
616.86	22394.2
617.055	22404.44
617.25	22289.75
617.445	22652.24
617.641	21976.41
617.836	22254.94
618.031	21773.66
618.226	22105.43
618.421	21939.55
618.616	22134.1
618.811	21837.15
619.006	21931.36
619.201	21026.15
619.396	21826.91
619.591	21255.53
619.786	21443.94
619.981	21134.7
620.176	21513.57
620.371	20766.06
620.566	21050.73
620.761	20872.56
620.956	21095.78
621.151	20465.01
621.346	20669.81
621.541	20297.08
621.735	20395.38
621.93	19989.88
622.125	19836.28
622.32	19703.17
622.515	20163.96
622.709	19838.33
622.904	19707.26
623.099	19717.5
623.294	19756.41
623.488	19613.06
623.683	19225.99
623.878	18998.66
624.072	19182.98
624.267	18666.89
624.462	18634.13
624.656	18783.63
624.851	18734.48
625.046	18455.95
625.24	18464.14
625.435	18173.33
625.629	18130.33
625.824	18128.28
626.018	18089.37
626.213	17943.96
626.407	17821.08
626.602	17776.03
626.796	17769.88
626.991	17878.43
627.185	17335.71
627.38	17583.52
627.574	17612.19
627.768	17159.59
627.963	17182.12
628.157	16950.7
628.352	16965.03
628.546	16895.4
628.74	16899.5
628.935	16534.96
629.129	16518.57
629.323	16551.34
629.517	16272.82
629.712	16256.43
629.906	16248.24
630.1	15975.86
630.294	16426.42
630.489	15922.62
630.683	16211.38
630.877	15537.6
631.071	15721.91
631.265	15728.06
631.459	15558.08
631.653	15357.38
631.848	15488.45
632.042	15154.63
632.236	15181.25
632.43	15029.7
632.624	15173.06
632.818	14925.25
633.012	14845.38
633.206	14802.38
633.4	14736.84
633.594	14622.16
633.788	14638.54
633.982	14562.76
634.176	14687.69
634.369	14245.33
634.563	14163.41
634.757	14114.26
634.951	14177.75
635.145	14032.34
635.339	14175.7
635.533	13792.73
635.726	13743.58
635.92	13559.26
636.114	13729.24
636.308	13514.2
636.501	13618.65
636.695	13374.94
636.889	13282.78
637.083	13164
637.276	13428.19
637.47	12987.88
637.664	13086.18
637.857	12903.91
638.051	13057.51
638.244	12789.22
638.438	12871.14
638.632	12565.99
638.825	12518.89
639.019	12387.82
639.212	12506.6
639.406	12490.22
639.599	12361.2
639.793	12336.62
639.986	12006.9
640.18	12037.62
640.373	12060.15
640.567	11947.51
640.76	11773.43
640.954	11679.22
641.147	11453.95
641.34	11400.7
641.534	11685.37
641.727	11550.2
641.92	11142.66
642.114	11456
642.307	11019.78
642.5	11132.42
642.694	10958.34
642.887	11081.22
643.08	11052.55
643.273	10814.98
643.467	10833.41
643.66	10690.06
643.853	10792.45
644.046	10505.74
644.239	10681.86
644.432	10415.63
644.626	10268.17
644.819	10268.17
645.012	10302.99
645.205	10389
645.398	10243.6
645.591	10083.86
645.784	10067.47
645.977	10073.62
646.17	9766.42
646.363	9903.64
646.556	9731.61
646.749	9666.07
646.942	9696.79
647.135	9768.47
647.328	9491.99
647.521	9678.36
647.714	9473.56
647.907	9414.17
648.099	9408.03
648.292	9299.48
648.485	9387.55
648.678	9233.95
648.871	9254.43
649.064	9098.78
649.256	9035.3
649.449	8926.75
649.642	8863.27
649.835	8934.95
650.027	8799.78
650.22	8760.87
650.413	8478.25
650.605	8584.74
650.798	8566.31
650.991	8535.59
651.183	8709.67
651.376	8414.76
651.568	8644.13
651.761	8431.15
651.954	8490.54
652.146	8353.32
652.339	8222.25
652.531	8377.9
652.724	8263.21
652.916	8015.41
653.109	8236.59
653.301	8236.59
653.494	8212.01
653.686	7935.54
653.879	8177.2
654.071	7890.48
654.263	7712.31
654.456	7861.81
654.648	7861.81
654.84	7818.8
655.033	7749.17
655.225	7743.03
655.417	7593.53
655.61	7749.17
655.802	7743.03
655.994	7542.33
656.186	7603.77
656.379	7591.48
656.571	7544.38
656.763	7280.19
656.955	7190.08
657.148	7472.7
657.34	7349.82
657.532	7026.24
657.724	7157.31
657.916	7173.69
658.108	7192.12
658.3	7136.83
658.492	7167.55
658.684	7099.97
658.876	7134.78
659.068	6901.31
659.26	6932.03
659.452	6897.22
659.644	6936.13
659.836	6723.14
660.028	6977.09
660.22	6800.96
660.412	6999.62
660.604	6805.06
660.796	6766.15
660.988	6624.84
661.18	6618.69
661.372	6635.08
661.563	6684.23
661.755	6739.52
661.947	6391.37
662.139	6600.26
662.331	6606.41
662.522	6415.94
662.714	6334.03
662.906	6280.78
663.097	6501.96
663.289	6239.82
663.481	6374.99
663.673	6235.72
663.864	6274.63
664.056	6104.65
664.247	6303.31
664.439	6006.35
664.631	6288.97
664.822	6202.96
665.014	6131.28
665.205	6104.65
665.397	6000.21
665.588	6096.46
665.78	5918.29
665.971	6047.31
666.163	6184.52
666.354	5969.49
666.546	6063.69
666.737	5787.22
666.929	5946.96
667.12	5985.87
667.311	5899.86
667.503	5850.71
667.694	5811.79
667.885	5758.55
668.077	5817.94
668.268	5744.21
668.459	5809.75
668.651	5989.97
668.842	5774.93
669.033	5690.96
669.224	5797.46
669.416	5750.35
669.607	5701.2
669.798	5596.76
669.989	5834.32
670.18	5807.7
670.371	5697.11
670.563	5600.85
670.754	5592.66
670.945	5588.57
671.136	5815.89
671.327	5709.4
671.518	5848.66
671.709	5588.57
671.9	5611.09
672.091	5711.44
672.282	5627.48
672.473	5645.91
672.664	5580.37
672.855	5631.57
673.046	5822.03
673.237	5676.63
673.428	5633.62
673.619	5701.2
673.809	5502.55
674	5783.12
674.191	5740.12
674.382	5506.65
674.573	5652.05
674.764	5596.76
674.954	5588.57
675.145	5719.64
675.336	5506.65
675.527	5742.16
675.717	5781.07
675.908	5609.05
676.099	5563.99
676.289	5545.56
676.48	5641.81
676.671	5418.58
676.861	5684.82
677.052	5647.96
677.243	5527.13
677.433	5770.83
677.624	5858.9
677.814	5699.16
678.005	5844.56
678.195	5676.63
678.386	5744.21
678.576	5928.53
678.767	5805.65
678.957	5668.44
679.148	5989.97
679.338	5815.89
679.529	5799.51
679.719	5850.71
679.909	5906
680.1	5811.79
680.29	5850.71
680.481	5946.96
680.671	5957.2
680.861	5940.82
681.052	5985.87
681.242	5895.76
681.432	6053.45
681.622	5963.34
681.813	6045.26
682.003	5951.06
682.193	5906
682.383	5949.01
682.573	6059.6
682.764	6110.8
682.954	5994.06
683.144	6096.46
683.334	5977.68
683.524	6051.41
683.714	5973.58
683.904	6041.17
684.094	6145.61
684.284	5996.11
684.474	6198.86
684.664	5930.58
684.854	6082.13
685.044	6004.3
685.234	5910.1
685.424	6030.93
685.614	6106.7
685.804	6055.5
685.994	5957.2
686.184	6088.27
686.374	5873.23
686.564	6028.88
686.753	6039.12
686.943	5852.75
687.133	6078.03
687.323	5924.43
687.513	6020.69
687.702	6039.12
687.892	5834.32
688.082	5871.19
688.272	5977.68
688.461	5957.2
688.651	5916.24
688.841	5865.04
689.03	5844.56
689.22	5811.79
689.41	5731.92
689.599	5662.29
689.789	5836.37
689.979	5625.43
690.168	5748.31
690.358	5672.53
690.547	5594.71
690.737	5785.17
690.926	5715.54
691.116	5652.05
691.305	5717.59
691.495	5625.43
691.684	5631.57
691.874	5514.84
692.063	5514.84
692.252	5408.34
692.442	5588.57
692.631	5490.26
692.82	5422.68
693.01	5367.38
693.199	5563.99
693.388	5527.13
693.578	5584.47
693.767	5527.13
693.956	5549.65
694.146	5588.57
694.335	5555.8
694.524	5324.38
694.713	5592.66
694.902	5588.57
695.092	5520.98
695.281	5379.67
695.47	5314.14
695.659	5486.17
695.848	5553.75
696.037	5570.13
696.226	5592.66
696.415	5437.02
696.604	5545.56
696.793	5531.22
696.982	5602.9
697.171	5678.68
697.36	5613.14
697.549	5658.2
697.738	5471.83
697.927	5453.4
698.116	5633.62
698.305	5670.48
698.494	5711.44
698.683	5604.95
698.872	5602.9
699.061	5781.07
699.25	5613.14
699.438	5711.44
699.627	5535.32
699.816	5697.11
700.005	5776.98
700.193	5793.36
700.382	5787.22
700.571	5701.2
700.76	5639.76
700.948	5858.9
701.137	5744.21
701.326	5793.36
701.514	5678.68
701.703	5774.93
701.892	5912.14
702.08	5967.44
702.269	5981.78
702.457	5807.7
702.646	5989.97
702.834	5746.26
703.023	5908.05
703.212	5891.66
703.4	5971.54
703.589	5989.97
703.777	5989.97
703.965	5885.52
704.154	6006.35
704.342	5928.53
704.531	5949.01
704.719	6123.09
704.907	6071.89
705.096	5955.15
705.284	5879.38
705.472	6080.08
705.661	6045.26
705.849	6039.12
706.037	5971.54
706.226	5940.82
706.414	5998.16
706.602	6108.75
706.79	6178.38
706.979	5989.97
707.167	6205
707.355	6116.94
707.543	6237.77
707.731	6405.7
707.919	6227.53
708.107	6268.49
708.296	6227.53
708.484	6276.68
708.672	6215.24
708.86	6344.27
709.048	6278.73
709.236	6254.16
709.424	6217.29
709.612	6112.85
709.8	6352.46
709.988	6250.06
710.176	6346.31
710.364	6512.2
710.551	6342.22
710.739	6239.82
710.927	6243.92
711.115	6264.4
711.303	6481.48
711.491	6391.37
711.679	6428.23
711.866	6329.93
712.054	6547.01
712.242	6348.36
712.43	6602.31
712.617	6377.03
712.805	6530.63
712.993	6377.03
713.181	6565.45
713.368	6618.69
713.556	6544.97
713.744	6383.18
713.931	6506.06
714.119	6547.01
714.306	6479.43
714.494	6497.86
714.682	6563.4
714.869	6501.96
715.057	6633.03
715.244	6612.55
715.432	6614.6
715.619	6563.4
715.807	6600.26
715.994	6477.38
716.182	6637.13
716.369	6610.5
716.556	6651.46
716.744	6467.14
716.931	6563.4
717.119	6751.81
717.306	6528.58
717.493	6708.8
717.681	6768.2
717.868	6602.31
718.055	6682.18
718.242	6479.43
718.43	6852.16
718.617	6690.37
718.804	6690.37
718.991	6653.51
719.179	6790.72
719.366	6727.24
719.553	6729.28
719.74	6827.59
719.927	6739.52
720.114	6794.82
720.301	6680.13
720.488	6686.28
720.676	6727.24
720.863	6678.08
721.05	6901.31
721.237	6778.44
721.424	6768.2
721.611	6774.34
721.798	6641.22
721.985	6745.67
722.172	6522.44
722.358	6704.71
722.545	6692.42
722.732	6766.15
722.919	6809.15
723.106	6755.91
723.293	6637.13
723.48	6743.62
723.667	6555.21
723.853	6659.65
724.04	6719.04
724.227	6659.65
724.414	6686.28
724.6	6569.54
724.787	6962.75
724.974	6741.57
725.161	6780.48
725.347	6489.67
725.534	6739.52
725.72	6673.99
725.907	6620.74
726.094	6874.69
726.28	6587.97
726.467	6555.21
726.653	6827.59
726.84	6776.39
727.027	6841.92
727.213	6692.42
727.4	6870.59
727.586	6753.86
727.773	6702.66
727.959	6721.09
728.145	6710.85
728.332	6684.23
728.518	6653.51
728.705	6774.34
728.891	6637.13
729.077	6657.61
729.264	6626.89
729.45	6653.51
729.636	6676.04
729.823	6612.55
730.009	6618.69
730.195	6690.37
730.382	6719.04
730.568	6686.28
730.754	6739.52
730.94	6563.4
731.126	6766.15
731.313	6673.99
731.499	6587.97
731.685	6635.08
731.871	6788.68
732.057	6633.03
732.243	6530.63
732.429	6729.28
732.615	6717
732.801	6592.07
732.987	6536.77
733.173	6530.63
733.359	6661.7
733.545	6643.27
733.731	6557.25
733.917	6735.43
734.103	6608.45
734.289	6635.08
734.475	6614.6
734.661	6522.44
734.847	6694.47
735.033	6481.48
735.219	6579.78
735.404	6493.77
735.59	6514.25
735.776	6286.92
735.962	6628.93
736.148	6354.51
736.333	6522.44
736.519	6374.99
736.705	6506.06
736.89	6485.58
737.076	6381.13
737.262	6362.7
737.447	6360.65
737.633	6381.13
737.819	6243.92
738.004	6315.59
738.19	6250.06
738.375	6162
738.561	6334.03
738.747	6315.59
738.932	6317.64
739.118	6428.23
739.303	6272.59
739.489	6303.31
739.674	6383.18
739.859	6157.9
740.045	6225.48
740.23	6233.68
740.416	6104.65
740.601	6127.18
740.786	6030.93
740.972	5973.58
741.157	6026.83
741.342	5865.04
741.528	5973.58
741.713	5985.87
741.898	6004.3
742.084	5928.53
742.269	5942.86
742.454	6047.31
742.639	5824.08
742.824	5783.12
743.01	5901.9
743.195	5981.78
743.38	5801.55
743.565	5944.91
743.75	5787.22
743.935	5580.37
744.12	5559.89
744.305	5682.77
744.49	5613.14
744.675	5607
744.86	5621.33
745.045	5631.57
745.23	5572.18
745.415	5326.43
745.6	5471.83
745.785	5457.5
745.97	5387.86
746.155	5283.42
746.34	5404.25
746.525	5385.82
746.71	5260.89
746.895	5365.34
747.079	5252.7
747.264	5283.42
747.449	5238.36
747.634	5064.29
747.819	5267.03
748.003	4935.26
748.188	5074.53
748.373	4898.4
748.557	5035.61
748.742	4896.35
748.927	4963.93
749.111	4681.32
749.296	4802.15
749.481	4808.29
749.665	4767.33
749.85	4505.19
750.034	4828.77
750.219	4744.8
750.404	4611.68
750.588	4540.01
750.773	4724.32
750.957	4531.81
751.141	4650.6
751.326	4486.76
751.51	4400.74
751.695	4462.18
751.879	4396.65
752.064	4367.98
752.248	4406.89
752.432	4206.19
752.617	4310.63
752.801	4263.53
752.985	4083.31
753.17	3933.81
753.354	4105.84
753.538	4097.64
753.722	4109.93
753.907	4128.36
754.091	3933.81
754.275	4028.01
754.459	4001.39
754.643	3849.84
754.828	3864.18
755.012	3739.25
755.196	3757.68
755.38	3896.94
755.564	3720.82
755.748	3774.07
755.932	3741.3
756.116	3825.26
756.3	3649.14
756.484	3628.66
756.668	3565.17
756.852	3495.54
757.036	3524.21
757.22	3423.86
757.404	3511.93
757.588	3466.87
757.772	3483.25
757.956	3475.06
758.14	3417.72
758.323	3251.83
758.507	3343.99
758.691	3348.09
758.875	3319.42
759.059	3354.23
759.242	3350.14
759.426	3204.73
759.61	3239.55
759.794	3137.15
759.977	3266.17
760.161	3217.02
760.345	3102.33
760.528	3073.66
760.712	3161.72
760.895	3008.12
761.079	3104.38
761.263	3065.47
761.446	2965.12
761.63	2963.07
761.813	3090.04
761.997	3077.76
762.18	2956.93
762.364	2938.49
762.547	2956.93
762.731	2823.81
762.914	2967.17
763.098	2758.27
763.281	2819.71
763.464	2805.38
763.648	2926.21
763.831	2795.14
764.015	2840.19
764.198	2705.03
764.381	2760.32
764.564	2649.73
764.748	2702.98
764.931	2793.09
765.114	2727.55
765.297	2664.07
765.481	2596.48
765.664	2672.26
765.847	2571.91
766.03	2522.76
766.213	2533
766.397	2598.53
766.58	2487.94
766.763	2518.66
766.946	2596.48
767.129	2530.95
767.312	2492.04
767.495	2451.08
767.678	2369.16
767.861	2473.6
768.044	2453.13
768.227	2434.69
768.41	2494.08
768.593	2385.54
768.776	2307.72
768.959	2440.84
769.142	2459.27
769.324	2254.47
769.507	2399.88
769.69	2408.07
769.873	2375.3
770.056	2406.02
770.239	2305.67
770.421	2328.2
770.604	2342.53
770.787	2291.34
770.97	2272.9
771.152	2227.85
771.335	2193.03
771.518	2199.18
771.7	2160.27
771.883	2264.71
772.066	2213.51
772.248	2160.27
772.431	2070.16
772.613	2055.82
772.796	2066.06
772.978	2150.03
773.161	2037.39
773.343	2035.34
773.526	2018.96
773.708	1939.09
773.891	1951.37
774.073	1941.13
774.256	2008.72
774.438	1980.04
774.621	1891.98
774.803	1951.37
774.985	1877.65
775.168	2002.57
775.35	1805.97
775.532	1869.45
775.715	1828.49
775.897	1820.3
776.079	1902.22
776.261	1822.35
776.444	1808.02
776.626	1840.78
776.808	1685.14
776.99	1812.11
777.173	1711.76
777.355	1611.41
777.537	1728.14
777.719	1697.42
777.901	1640.08
778.083	1611.41
778.265	1607.31
778.447	1611.41
778.629	1640.08
778.811	1601.17
778.993	1648.27
779.175	1607.31
779.357	1623.7
779.539	1523.35
779.721	1595.03
779.903	1531.54
780.085	1535.64
780.267	1472.15
780.449	1445.52
780.631	1502.87
780.812	1549.97
780.994	1416.85
781.176	1547.92
781.358	1302.17
781.54	1420.95
781.721	1369.75
781.903	1369.75
782.085	1396.37
782.267	1365.65
782.448	1345.17
782.63	1367.7
782.812	1353.37
782.993	1314.45
783.175	1300.12
783.357	1250.97
783.538	1275.54
783.72	1279.64
783.901	1218.2
784.083	1230.49
784.264	1267.35
784.446	1230.49
784.627	1171.1
784.809	1263.26
784.99	1123.99
785.172	1177.24
785.353	1154.71
785.535	1197.72
785.716	1107.61
785.897	1111.71
786.079	1115.8
786.26	1140.38
786.441	1091.23
786.623	1068.7
786.804	1033.88
786.985	1058.46
787.167	1119.9
787.348	1080.99
787.529	999.07
787.71	1064.6
787.891	982.68
788.073	980.64
788.254	911
788.435	1029.79
788.616	1048.22
788.797	1009.31
788.978	956.06
789.159	931.48
789.34	990.88
789.522	980.64
789.703	935.58
789.884	958.11
790.065	878.24
790.246	960.16
790.427	894.62
790.607	931.48
790.788	827.04
790.969	868
791.15	835.23
791.331	859.81
791.512	874.14
791.693	898.72
791.874	812.7
792.054	933.53
792.235	941.72
792.416	874.14
792.597	741.02
792.778	806.56
792.958	827.04
793.139	730.78
793.32	788.13
793.5	890.53
793.681	812.7
793.862	777.89
794.042	728.74
794.223	734.88
794.404	747.17
794.584	681.63
794.765	657.06
794.945	763.55
795.126	708.26
795.306	855.71
795.487	730.78
795.667	677.54
795.848	804.51
796.028	726.69
796.209	685.73
796.389	714.4
796.57	734.88
796.75	642.72
796.93	734.88
797.111	648.86
797.291	763.55
797.471	673.44
797.652	655.01
797.832	704.16
798.012	708.26
798.192	722.59
798.373	636.58
798.553	669.34
798.733	552.61
798.913	548.51
799.093	659.1
799.274	599.71
799.454	706.21
799.634	618.15
799.814	728.74
799.994	566.95
800.174	601.76
800.354	687.78
800.534	485.03
800.714	607.91
800.894	560.8
801.074	501.41
801.254	525.99
801.434	548.51
801.614	562.85
801.794	566.95
801.974	1304.21
802.154	509.6
802.334	562.85
802.514	542.37
802.693	517.79
802.873	591.52
803.053	603.81
803.233	616.1
803.413	491.17
803.592	517.79
803.772	493.22
803.952	542.37
804.131	437.92
804.311	579.23
804.491	548.51
804.67	468.64
804.85	513.7
805.03	550.56
805.209	597.67
805.389	534.18
805.568	466.6
805.748	480.93
805.928	482.98
806.107	470.69
806.287	493.22
806.466	507.55
806.646	419.49
806.825	489.12
807.004	403.11
807.184	472.74
807.363	534.18
807.543	460.45
807.722	370.34
807.901	476.84
808.081	417.44
808.26	442.02
808.439	417.44
808.619	435.88
808.798	444.07
808.977	462.5
809.156	411.3
809.336	403.11
809.515	548.51
809.694	392.87
809.873	384.68
810.052	515.75
810.231	474.79
810.411	419.49
810.59	501.41
810.769	487.08
810.948	530.08
811.127	308.9
811.306	356.01
811.485	382.63
811.664	401.06
811.843	388.77
812.022	405.16
812.201	403.11
812.38	319.14
812.559	358.05
812.737	368.29
812.916	304.81
813.095	284.33
813.274	370.34
813.453	321.19
813.632	321.19
813.811	417.44
813.989	319.14
814.168	353.96
814.347	331.43
814.526	337.57
814.704	386.72
814.883	478.88
815.062	278.18
815.24	329.38
815.419	378.53
815.598	339.62
815.776	276.13
815.955	403.11
816.133	208.55
816.312	362.15
816.49	278.18
816.669	337.57
816.847	317.09
817.026	337.57
817.204	257.7
817.383	386.72
817.561	276.13
817.74	347.81
817.918	345.77
818.097	300.71
818.275	259.75
818.453	329.38
818.632	304.81
818.81	267.94
818.988	263.85
819.167	319.14
819.345	280.23
819.523	222.89
819.701	210.6
819.879	294.57
820.058	339.62
820.236	403.11
820.414	294.57
820.592	313
820.77	308.9
820.948	333.48
821.127	267.94
821.305	259.75
821.483	263.85
821.661	276.13
821.839	288.42
822.017	274.09
822.195	255.65
822.373	290.47
822.551	263.85
822.729	288.42
822.907	245.41
823.085	288.42
823.262	300.71
823.44	286.37
823.618	231.08
823.796	286.37
823.974	202.41
824.152	294.57
824.329	231.08
824.507	239.27
824.685	280.23
824.863	253.61
825.04	315.05
825.218	220.84
825.396	259.75
825.574	292.52
825.751	251.56
825.929	251.56
826.107	233.13
826.284	216.74
826.462	210.6
826.639	265.89
826.817	188.07
826.994	245.41
827.172	190.12
827.349	308.9
827.527	249.51
827.704	247.46
827.882	143.02
828.059	196.26
828.237	204.46
828.414	233.13
828.591	255.65
828.769	194.22
828.946	122.54
829.124	233.13
829.301	179.88
829.478	247.46
829.655	204.46
829.833	134.82
830.01	206.5
830.187	157.35
830.364	173.74
830.542	267.94
830.719	288.42
830.896	128.68
831.073	186.02
831.25	239.27
831.427	216.74
831.604	202.41
831.782	87.72
831.959	247.46
832.136	177.83
832.313	206.5
832.49	136.87
832.667	173.74
832.844	161.45
833.021	231.08
833.198	216.74
833.374	188.07
833.551	165.54
833.728	140.97
833.905	198.31
834.082	171.69
834.259	204.46
834.436	140.97
834.612	222.89
834.789	243.37
834.966	149.16
835.143	163.5
835.319	140.97
835.496	220.84
835.673	190.12
835.85	138.92
836.026	155.3
836.203	204.46
836.38	85.67
836.556	163.5
836.733	87.72
836.909	153.26
837.086	169.64
837.262	91.82
837.439	173.74
837.616	124.58
837.792	153.26
837.968	175.78
838.145	134.82
838.321	186.02
838.498	173.74
838.674	179.88
838.851	138.92
839.027	85.67
839.203	71.34
839.38	177.83
839.556	145.06
839.732	140.97
839.909	89.77
840.085	149.16
840.261	165.54
840.437	138.92
840.614	116.39
840.79	151.21
840.966	190.12
841.142	210.6
841.318	128.68
841.494	192.17
841.671	202.41
841.847	102.06
842.023	130.73
842.199	140.97
842.375	89.77
842.551	42.67
842.727	77.48
842.903	147.11
843.079	143.02
843.255	63.15
843.431	81.58
843.607	145.06
843.783	79.53
843.959	120.49
844.134	48.81
844.31	106.15
844.486	48.81
844.662	87.72
844.838	42.67
845.013	132.78
845.189	149.16
845.365	132.78
845.541	149.16
845.716	93.87
845.892	67.24
846.068	22.19
846.244	48.81
846.419	95.91
846.595	34.47
846.77	40.62
846.946	85.67
847.122	73.39
847.297	75.43
847.473	136.87
847.648	-10.58
847.824	147.11
847.999	140.97
848.175	73.39
848.35	173.74
848.526	130.73
848.701	124.58
848.876	61.1
849.052	110.25
849.227	26.28
849.403	30.38
849.578	79.53
849.753	87.72
849.929	165.54
850.104	22.19
850.279	100.01
850.454	13.99
850.63	116.39
850.805	136.87
850.98	149.16
851.155	71.34
851.33	89.77
851.505	106.15
851.681	204.46
851.856	26.28
852.031	136.87
852.206	65.19
852.381	89.77
852.556	-16.73
852.731	138.92
852.906	69.29
853.081	50.86
853.256	16.04
853.431	157.35
853.606	67.24
853.781	28.33
853.956	38.57
854.131	102.06
854.305	67.24
854.48	104.11
854.655	106.15
854.83	3.75
855.005	34.47
855.18	93.87
855.354	95.91
855.529	89.77
855.704	7.85
855.879	97.96
856.053	71.34
856.228	100.01
856.403	89.77
856.577	91.82
856.752	130.73
856.926	69.29
857.101	16.04
857.276	-0.34
857.45	79.53
857.625	50.86
857.799	48.81
857.974	38.57
858.148	26.28
858.323	40.62
858.497	-22.87
858.672	104.11
858.846	13.99
859.02	114.34
859.195	46.76
859.369	104.11
859.543	42.67
859.718	34.47
859.892	65.19
860.066	1.71
860.241	34.47
860.415	40.62
860.589	73.39
860.763	67.24
860.938	9.9
861.112	44.71
861.286	-0.34
861.46	100.01
861.634	-47.44
861.808	26.28
861.982	5.8
862.157	-26.96
862.331	5.8
862.505	1.71
862.679	1.71
862.853	75.43
863.027	50.86
863.201	73.39
863.375	-0.34
863.549	77.48
863.722	-6.49
863.896	46.76
864.07	-39.25
864.244	95.91
864.418	30.38
864.592	81.58
864.766	9.9
864.939	11.95
865.113	34.47
865.287	85.67
865.461	-22.87
865.634	59.05
865.808	-10.58
865.982	-39.25
866.156	13.99
866.329	-39.25
866.503	42.67
866.676	67.24
866.85	71.34
867.024	42.67
867.197	81.58
867.371	-0.34
867.544	106.15
867.718	67.24
867.891	-16.73
868.065	63.15
868.238	-47.44
868.412	-35.16
868.585	40.62
868.759	11.95
868.932	-74.07
869.105	46.76
869.279	26.28
869.452	-74.07
869.625	-0.34
869.799	16.04
869.972	24.23
870.145	-2.39
870.319	54.95
870.492	5.8
870.665	-10.58
870.838	44.71
871.011	22.19
871.185	20.14
871.358	112.3
871.531	81.58
871.704	16.04
871.877	-10.58
872.05	-22.87
872.223	40.62
872.396	59.05
872.569	7.85
872.742	38.57
872.915	34.47
873.088	67.24
873.261	24.23
873.434	59.05
873.607	34.47
873.78	73.39
873.953	32.43
874.126	54.95
874.299	54.95
874.471	9.9
874.644	30.38
874.817	13.99
874.99	83.63
875.163	59.05
875.335	16.04
875.508	63.15
875.681	89.77
875.853	-47.44
876.026	-6.49
876.199	63.15
876.371	67.24
876.544	-31.06
876.717	42.67
876.889	-39.25
877.062	-0.34
877.234	9.9
877.407	1.71
877.579	42.67
877.752	26.28
877.924	32.43
878.097	-24.92
878.269	-4.44
878.442	97.96
878.614	24.23
878.786	18.09
878.959	40.62
879.131	-14.68
879.303	48.81
879.476	-6.49
879.648	-29.01
879.82	36.52
879.993	1.71
880.165	59.05
880.337	-37.2
880.509	-0.34
880.681	-63.83
880.854	-51.54
881.026	73.39
881.198	1.71
881.37	16.04
881.542	-26.96
881.714	32.43
881.886	44.71
882.058	-18.77
882.23	52.91
882.402	-8.53
882.574	18.09
882.746	1.71
882.918	-14.68
883.09	9.9
883.262	106.15
883.434	18.09
883.606	1.71
883.778	-35.16
883.95	75.43
884.122	-14.68
884.293	46.76
884.465	32.43
884.637	61.1
884.809	-41.3
884.98	-31.06
885.152	-10.58
885.324	9.9
885.496	38.57
885.667	42.67
885.839	-59.73
886.011	71.34
886.182	67.24
886.354	-22.87
886.525	7.85
886.697	26.28
886.869	-31.06
887.04	-35.16
887.212	-22.87
887.383	57
887.555	13.99
887.726	-12.63
887.897	75.43
888.069	-6.49
888.24	20.14
888.412	26.28
888.583	5.8
888.754	9.9
888.926	-45.4
889.097	-2.39
889.268	-155.99
889.44	38.57
889.611	-10.58
889.782	-57.68
889.953	20.14
890.125	16.04
890.296	18.09
890.467	-31.06
890.638	-14.68
890.809	24.23
890.98	-112.98
891.151	7.85
891.323	-14.68
891.494	50.86
891.665	42.67
891.836	-51.54
892.007	-16.73
892.178	42.67
892.349	40.62
892.52	-14.68
892.691	32.43
892.862	11.95
893.032	-4.44
893.203	-2.39
893.374	-22.87
893.545	87.72
893.716	-12.63
893.887	34.47
894.057	-47.44
894.228	-49.49
894.399	-41.3
894.57	1.71
894.74	59.05
894.911	-49.49
895.082	-0.34
895.253	-2.39
895.423	-37.2
895.594	24.23
895.764	59.05
895.935	-26.96
896.106	-6.49
896.276	-49.49
896.447	59.05
896.617	26.28
896.788	-6.49
896.958	-16.73
897.129	-2.39
897.299	-10.58
897.47	9.9
897.64	104.11
897.81	-16.73
897.981	-2.39
898.151	-59.73
898.322	79.53
898.492	52.91
898.662	-78.16
898.832	5.8
899.003	30.38
899.173	104.11
899.343	-80.21
899.513	-22.87
