Data from USB4F104151__0__11-29-27-690.txt Node

Date: Fri Mar 14 11:29:27 EDT 2025
User: louis
Spectrometer: USB4F10415
Trigger mode: 4
Integration Time (sec): 5.000000E-2
Scans to average: 1
Electric dark correction enabled: true
Nonlinearity correction enabled: false
Boxcar width: 0
XAxis mode: Wavelengths
Number of Pixels in Spectrum: 3648
>>>>>Begin Spectral Data<<<<<
178.204	-97.45
178.424	-97.45
178.644	-97.45
178.864	-113.83
179.084	-144.55
179.304	-27.82
179.524	-19.63
179.744	39.76
179.964	60.24
180.184	-64.68
180.404	43.86
180.624	-17.58
180.844	37.72
181.064	-54.44
181.283	13.14
181.503	-36.01
181.723	25.43
181.943	-91.31
182.163	60.24
182.383	-36.01
182.602	23.38
182.822	41.81
183.042	31.57
183.262	23.38
183.482	-3.24
183.701	21.33
183.921	86.87
184.141	29.52
184.361	19.29
184.58	13.14
184.8	-5.29
185.02	-5.29
185.239	58.2
185.459	-1.19
185.679	113.49
185.898	-54.44
186.118	72.53
186.338	-50.35
186.557	21.33
186.777	-5.29
186.997	-33.96
187.216	9.05
187.436	43.86
187.655	50
187.875	29.52
188.095	-38.06
188.314	72.53
188.534	56.15
188.753	101.2
188.973	101.2
189.192	97.11
189.412	29.52
189.631	86.87
189.851	2.9
190.07	129.88
190.29	-25.77
190.509	-1.19
190.729	-11.43
190.948	76.63
191.168	133.97
191.387	95.06
191.607	80.72
191.826	23.38
192.045	-21.67
192.265	37.72
192.484	-1.19
192.704	-31.91
192.923	4.95
193.142	54.1
193.362	74.58
193.581	29.52
193.8	80.72
194.02	97.11
194.239	23.38
194.458	43.86
194.678	-21.67
194.897	37.72
195.116	-66.73
195.335	-33.96
195.555	39.76
195.774	54.1
195.993	-9.39
196.212	-3.24
196.432	62.29
196.651	-95.4
196.87	-19.63
197.089	101.2
197.308	76.63
197.528	95.06
197.747	-42.15
197.966	27.48
198.185	109.4
198.404	78.68
198.623	19.29
198.842	52.05
199.062	29.52
199.281	103.25
199.5	80.72
199.719	43.86
199.938	21.33
200.157	39.76
200.376	41.81
200.595	64.34
200.814	23.38
201.033	56.15
201.252	109.4
201.471	52.05
201.69	101.2
201.909	76.63
202.128	74.58
202.347	39.76
202.566	-9.39
202.785	13.14
203.004	37.72
203.223	97.11
203.442	15.19
203.661	-25.77
203.879	72.53
204.098	-13.48
204.317	-62.63
204.536	64.34
204.755	13.14
204.974	111.44
205.193	54.1
205.411	64.34
205.63	47.96
205.849	62.29
206.068	93.01
206.287	-48.3
206.505	66.39
206.724	-7.34
206.943	58.2
207.162	-13.48
207.381	56.15
207.599	47.96
207.818	-11.43
208.037	-1.19
208.255	60.24
208.474	47.96
208.693	15.19
208.911	7
209.13	-9.39
209.349	-1.19
209.567	9.05
209.786	93.01
210.005	58.2
210.223	23.38
210.442	-9.39
210.661	56.15
210.879	-9.39
211.098	60.24
211.316	11.09
211.535	70.48
211.753	-17.58
211.972	9.05
212.191	-50.35
212.409	-27.82
212.628	66.39
212.846	15.19
213.065	45.91
213.283	52.05
213.502	70.48
213.72	-33.96
213.938	25.43
214.157	74.58
214.375	-25.77
214.594	45.91
214.812	105.3
215.031	15.19
215.249	60.24
215.467	78.68
215.686	4.95
215.904	19.29
216.122	31.57
216.341	113.49
216.559	54.1
216.778	27.48
216.996	52.05
217.214	-36.01
217.432	45.91
217.651	-46.25
217.869	80.72
218.087	66.39
218.306	4.95
218.524	45.91
218.742	7
218.96	-9.39
219.179	62.29
219.397	21.33
219.615	117.59
219.833	-25.77
220.051	-31.91
220.27	33.62
220.488	129.88
220.706	105.3
220.924	23.38
221.142	-31.91
221.36	13.14
221.578	70.48
221.796	-23.72
222.015	-21.67
222.233	17.24
222.451	76.63
222.669	23.38
222.887	56.15
223.105	15.19
223.323	17.24
223.541	29.52
223.759	62.29
223.977	4.95
224.195	9.05
224.413	84.82
224.631	11.09
224.849	21.33
225.067	109.4
225.285	31.57
225.503	-60.59
225.721	-29.87
225.939	101.2
226.157	7
226.375	76.63
226.592	-1.19
226.81	45.91
227.028	21.33
227.246	56.15
227.464	9.05
227.682	25.43
227.9	29.52
228.117	25.43
228.335	31.57
228.553	121.68
228.771	93.01
228.989	31.57
229.206	-3.24
229.424	19.29
229.642	15.19
229.86	15.19
230.077	123.73
230.295	-5.29
230.513	25.43
230.731	80.72
230.948	60.24
231.166	41.81
231.384	19.29
231.601	39.76
231.819	90.96
232.037	0.85
232.254	-33.96
232.472	7
232.689	-21.67
232.907	72.53
233.125	-1.19
233.342	-17.58
233.56	68.44
233.777	15.19
233.995	23.38
234.213	56.15
234.43	37.72
234.648	15.19
234.865	17.24
235.083	39.76
235.3	-64.68
235.518	60.24
235.735	29.52
235.953	31.57
236.17	15.19
236.388	19.29
236.605	-52.39
236.822	86.87
237.04	-42.15
237.257	60.24
237.475	-21.67
237.692	64.34
237.909	7
238.127	7
238.344	-1.19
238.562	125.78
238.779	7
238.996	7
239.214	-23.72
239.431	72.53
239.648	31.57
239.865	23.38
240.083	66.39
240.3	21.33
240.517	47.96
240.735	7
240.952	-11.43
241.169	99.16
241.386	2.9
241.603	-25.77
241.821	-9.39
242.038	58.2
242.255	39.76
242.472	11.09
242.689	111.44
242.907	33.62
243.124	72.53
243.341	84.82
243.558	-3.24
243.775	-25.77
243.992	-17.58
244.209	52.05
244.426	68.44
244.643	27.48
244.86	-19.63
245.078	68.44
245.295	45.91
245.512	4.95
245.729	-9.39
245.946	121.68
246.163	39.76
246.38	21.33
246.597	13.14
246.814	47.96
247.031	11.09
247.248	70.48
247.464	39.76
247.681	31.57
247.898	23.38
248.115	19.29
248.332	-3.24
248.549	62.29
248.766	101.2
248.983	80.72
249.2	23.38
249.417	88.92
249.633	62.29
249.85	113.49
250.067	-27.82
250.284	-13.48
250.501	64.34
250.717	62.29
250.934	-5.29
251.151	15.19
251.368	13.14
251.585	-25.77
251.801	-13.48
252.018	70.48
252.235	133.97
252.451	-58.54
252.668	7
252.885	62.29
253.102	62.29
253.318	35.67
253.535	68.44
253.752	0.85
253.968	-27.82
254.185	2.9
254.401	7
254.618	70.48
254.835	-74.92
255.051	60.24
255.268	60.24
255.484	97.11
255.701	60.24
255.917	31.57
256.134	105.3
256.351	111.44
256.567	60.24
256.784	60.24
257	4.95
257.217	52.05
257.433	115.54
257.65	64.34
257.866	45.91
258.082	72.53
258.299	-58.54
258.515	76.63
258.732	-19.63
258.948	-11.43
259.165	107.35
259.381	17.24
259.597	13.14
259.814	47.96
260.03	-1.19
260.246	70.48
260.463	74.58
260.679	76.63
260.895	84.82
261.112	2.9
261.328	74.58
261.544	4.95
261.761	140.12
261.977	11.09
262.193	43.86
262.409	13.14
262.626	93.01
262.842	17.24
263.058	7
263.274	76.63
263.49	50
263.707	86.87
263.923	39.76
264.139	7
264.355	-33.96
264.571	37.72
264.787	54.1
265.004	23.38
265.22	2.9
265.436	-13.48
265.652	4.95
265.868	4.95
266.084	15.19
266.3	70.48
266.516	-5.29
266.732	23.38
266.948	23.38
267.164	7
267.38	60.24
267.596	35.67
267.812	86.87
268.028	84.82
268.244	-15.53
268.46	101.2
268.676	52.05
268.892	25.43
269.108	39.76
269.324	-17.58
269.54	-9.39
269.756	39.76
269.972	76.63
270.188	27.48
270.403	-74.92
270.619	45.91
270.835	43.86
271.051	13.14
271.267	4.95
271.483	15.19
271.698	-1.19
271.914	25.43
272.13	35.67
272.346	52.05
272.562	66.39
272.777	90.96
272.993	-50.35
273.209	-9.39
273.425	-3.24
273.64	-17.58
273.856	52.05
274.072	-3.24
274.287	15.19
274.503	54.1
274.719	201.55
274.934	-19.63
275.15	-42.15
275.366	-42.15
275.581	37.72
275.797	31.57
276.012	39.76
276.228	39.76
276.444	97.11
276.659	88.92
276.875	9.05
277.09	-17.58
277.306	60.24
277.521	47.96
277.737	0.85
277.952	52.05
278.168	99.16
278.383	86.87
278.599	47.96
278.814	58.2
279.03	17.24
279.245	76.63
279.461	-5.29
279.676	-19.63
279.892	35.67
280.107	43.86
280.322	-1.19
280.538	58.2
280.753	13.14
280.969	21.33
281.184	78.68
281.399	-5.29
281.615	21.33
281.83	23.38
282.045	23.38
282.26	0.85
282.476	-33.96
282.691	101.2
282.906	78.68
283.122	25.43
283.337	15.19
283.552	54.1
283.767	35.67
283.983	93.01
284.198	11.09
284.413	88.92
284.628	-5.29
284.843	-13.48
285.058	-66.73
285.274	47.96
285.489	4.95
285.704	164.69
285.919	2.9
286.134	31.57
286.349	31.57
286.564	31.57
286.779	43.86
286.995	-60.59
287.21	15.19
287.425	95.06
287.64	64.34
287.855	9.05
288.07	-15.53
288.285	19.29
288.5	113.49
288.715	39.76
288.93	11.09
289.145	-33.96
289.36	60.24
289.575	56.15
289.79	68.44
290.004	23.38
290.219	54.1
290.434	-52.39
290.649	39.76
290.864	-15.53
291.079	88.92
291.294	62.29
291.509	-52.39
291.724	62.29
291.938	-3.24
292.153	-1.19
292.368	72.53
292.583	2.9
292.798	101.2
293.012	2.9
293.227	-9.39
293.442	17.24
293.657	43.86
293.871	60.24
294.086	25.43
294.301	60.24
294.516	62.29
294.73	136.02
294.945	13.14
295.16	-33.96
295.374	72.53
295.589	9.05
295.804	47.96
296.018	27.48
296.233	52.05
296.447	43.86
296.662	54.1
296.877	117.59
297.091	45.91
297.306	37.72
297.52	7
297.735	29.52
297.949	-25.77
298.164	35.67
298.378	29.52
298.593	23.38
298.807	7
299.022	-15.53
299.236	127.83
299.451	-9.39
299.665	-1.19
299.88	-42.15
300.094	64.34
300.309	72.53
300.523	72.53
300.737	97.11
300.952	41.81
301.166	97.11
301.381	-19.63
301.595	66.39
301.809	58.2
302.024	19.29
302.238	68.44
302.452	27.48
302.667	27.48
302.881	62.29
303.095	17.24
303.309	-33.96
303.524	-3.24
303.738	17.24
303.952	-5.29
304.166	60.24
304.381	15.19
304.595	97.11
304.809	78.68
305.023	37.72
305.237	43.86
305.452	74.58
305.666	37.72
305.88	60.24
306.094	121.68
306.308	105.3
306.522	47.96
306.736	101.2
306.95	70.48
307.164	39.76
307.379	97.11
307.593	56.15
307.807	7
308.021	95.06
308.235	54.1
308.449	-25.77
308.663	39.76
308.877	21.33
309.091	62.29
309.305	80.72
309.519	-54.44
309.733	39.76
309.947	-29.87
310.161	105.3
310.374	31.57
310.588	86.87
310.802	-1.19
311.016	-5.29
311.23	39.76
311.444	66.39
311.658	15.19
311.872	56.15
312.085	-50.35
312.299	121.68
312.513	-21.67
312.727	19.29
312.941	-17.58
313.154	95.06
313.368	86.87
313.582	25.43
313.796	-7.34
314.009	-1.19
314.223	105.3
314.437	39.76
314.651	56.15
314.864	21.33
315.078	-5.29
315.292	64.34
315.505	21.33
315.719	45.91
315.933	-1.19
316.146	39.76
316.36	-36.01
316.573	11.09
316.787	74.58
317.001	86.87
317.214	93.01
317.428	13.14
317.641	9.05
317.855	33.62
318.068	29.52
318.282	90.96
318.495	121.68
318.709	37.72
318.922	74.58
319.136	56.15
319.349	144.21
319.563	64.34
319.776	45.91
319.99	78.68
320.203	47.96
320.417	72.53
320.63	62.29
320.843	97.11
321.057	15.19
321.27	-1.19
321.483	43.86
321.697	76.63
321.91	31.57
322.124	99.16
322.337	-9.39
322.55	43.86
322.763	74.58
322.977	21.33
323.19	-9.39
323.403	39.76
323.617	88.92
323.83	52.05
324.043	21.33
324.256	121.68
324.469	23.38
324.683	56.15
324.896	54.1
325.109	72.53
325.322	-3.24
325.535	45.91
325.748	121.68
325.962	-1.19
326.175	35.67
326.388	43.86
326.601	70.48
326.814	-42.15
327.027	62.29
327.24	95.06
327.453	-36.01
327.666	39.76
327.879	15.19
328.092	31.57
328.305	138.07
328.518	76.63
328.731	11.09
328.944	23.38
329.157	64.34
329.37	45.91
329.583	146.26
329.796	103.25
330.009	52.05
330.222	47.96
330.435	70.48
330.648	88.92
330.861	117.59
331.073	78.68
331.286	43.86
331.499	113.49
331.712	50
331.925	0.85
332.138	23.38
332.35	101.2
332.563	31.57
332.776	56.15
332.989	64.34
333.202	-50.35
333.414	66.39
333.627	11.09
333.84	-21.67
334.053	25.43
334.265	47.96
334.478	15.19
334.691	-9.39
334.903	7
335.116	54.1
335.329	37.72
335.541	19.29
335.754	90.96
335.966	56.15
336.179	47.96
336.392	31.57
336.604	-25.77
336.817	140.12
337.029	13.14
337.242	90.96
337.454	90.96
337.667	74.58
337.88	78.68
338.092	39.76
338.305	47.96
338.517	11.09
338.729	2.9
338.942	29.52
339.154	35.67
339.367	-27.82
339.579	58.2
339.792	56.15
340.004	76.63
340.217	54.1
340.429	13.14
340.641	-15.53
340.854	41.81
341.066	29.52
341.278	76.63
341.491	154.45
341.703	7
341.915	-9.39
342.128	66.39
342.34	-31.91
342.552	64.34
342.764	60.24
342.977	107.35
343.189	43.86
343.401	86.87
343.613	-25.77
343.826	80.72
344.038	9.05
344.25	45.91
344.462	43.86
344.674	54.1
344.886	35.67
345.099	15.19
345.311	27.48
345.523	-36.01
345.735	-42.15
345.947	47.96
346.159	97.11
346.371	43.86
346.583	4.95
346.795	84.82
347.007	13.14
347.219	-44.2
347.431	-9.39
347.643	27.48
347.855	64.34
348.067	86.87
348.279	-29.87
348.491	45.91
348.703	-1.19
348.915	123.73
349.127	35.67
349.339	31.57
349.551	88.92
349.763	31.57
349.975	-42.15
350.187	117.59
350.399	86.87
350.61	99.16
350.822	62.29
351.034	39.76
351.246	62.29
351.458	109.4
351.669	7
351.881	117.59
352.093	86.87
352.305	31.57
352.517	68.44
352.728	-3.24
352.94	23.38
353.152	23.38
353.363	-36.01
353.575	107.35
353.787	47.96
353.999	47.96
354.21	68.44
354.422	58.2
354.633	29.52
354.845	47.96
355.057	37.72
355.268	37.72
355.48	121.68
355.692	-19.63
355.903	2.9
356.115	-17.58
356.326	41.81
356.538	15.19
356.749	95.06
356.961	7
357.172	31.57
357.384	21.33
357.595	125.78
357.807	72.53
358.018	31.57
358.23	127.83
358.441	29.52
358.653	60.24
358.864	27.48
359.075	15.19
359.287	54.1
359.498	84.82
359.709	33.62
359.921	54.1
360.132	21.33
360.344	7
360.555	64.34
360.766	-9.39
360.977	45.91
361.189	60.24
361.4	47.96
361.611	103.25
361.823	64.34
362.034	45.91
362.245	29.52
362.456	117.59
362.667	54.1
362.879	29.52
363.09	56.15
363.301	4.95
363.512	13.14
363.723	-19.63
363.935	-11.43
364.146	72.53
364.357	121.68
364.568	21.33
364.779	-36.01
364.99	78.68
365.201	29.52
365.412	101.2
365.623	-25.77
365.834	64.34
366.045	23.38
366.256	105.3
366.467	150.36
366.678	105.3
366.889	43.86
367.1	19.29
367.311	74.58
367.522	35.67
367.733	138.07
367.944	80.72
368.155	31.57
368.366	70.48
368.577	72.53
368.788	-21.67
368.999	27.48
369.209	-46.25
369.42	86.87
369.631	74.58
369.842	97.11
370.053	107.35
370.264	27.48
370.474	19.29
370.685	72.53
370.896	15.19
371.107	80.72
371.317	64.34
371.528	56.15
371.739	56.15
371.95	80.72
372.16	7
372.371	29.52
372.582	56.15
372.792	47.96
373.003	56.15
373.214	45.91
373.424	72.53
373.635	31.57
373.846	80.72
374.056	72.53
374.267	150.36
374.477	-38.06
374.688	56.15
374.898	80.72
375.109	43.86
375.319	50
375.53	54.1
375.74	-5.29
375.951	19.29
376.161	15.19
376.372	25.43
376.582	52.05
376.793	19.29
377.003	-44.2
377.214	31.57
377.424	84.82
377.635	72.53
377.845	80.72
378.055	80.72
378.266	62.29
378.476	-1.19
378.686	-9.39
378.897	88.92
379.107	56.15
379.317	146.26
379.528	78.68
379.738	88.92
379.948	56.15
380.158	121.68
380.369	72.53
380.579	136.02
380.789	86.87
380.999	78.68
381.21	97.11
381.42	133.97
381.63	39.76
381.84	72.53
382.05	95.06
382.261	109.4
382.471	76.63
382.681	54.1
382.891	109.4
383.101	58.2
383.311	21.33
383.521	52.05
383.731	144.21
383.941	33.62
384.151	76.63
384.361	9.05
384.571	52.05
384.781	105.3
384.991	60.24
385.201	109.4
385.411	72.53
385.621	52.05
385.831	7
386.041	84.82
386.251	47.96
386.461	29.52
386.671	47.96
386.881	119.64
387.091	-3.24
387.301	60.24
387.511	56.15
387.72	31.57
387.93	0.85
388.14	29.52
388.35	56.15
388.56	97.11
388.769	84.82
388.979	47.96
389.189	72.53
389.399	31.57
389.609	146.26
389.818	136.02
390.028	43.86
390.238	60.24
390.447	72.53
390.657	27.48
390.867	-3.24
391.076	54.1
391.286	43.86
391.496	45.91
391.705	29.52
391.915	113.49
392.125	109.4
392.334	43.86
392.544	97.11
392.753	45.91
392.963	21.33
393.172	72.53
393.382	111.44
393.591	45.91
393.801	60.24
394.01	90.96
394.22	82.77
394.429	68.44
394.639	88.92
394.848	64.34
395.058	84.82
395.267	74.58
395.477	64.34
395.686	103.25
395.895	117.59
396.105	117.59
396.314	-11.43
396.524	113.49
396.733	-1.19
396.942	72.53
397.152	86.87
397.361	45.91
397.57	84.82
397.78	136.02
397.989	23.38
398.198	121.68
398.407	97.11
398.617	56.15
398.826	111.44
399.035	99.16
399.244	72.53
399.453	35.67
399.663	54.1
399.872	138.07
400.081	101.2
400.29	72.53
400.499	64.34
400.708	113.49
400.917	39.76
401.127	111.44
401.336	113.49
401.545	121.68
401.754	119.64
401.963	168.79
402.172	62.29
402.381	21.33
402.59	23.38
402.799	150.36
403.008	78.68
403.217	47.96
403.426	142.16
403.635	64.34
403.844	125.78
404.053	103.25
404.262	95.06
404.471	119.64
404.68	127.83
404.888	52.05
405.097	119.64
405.306	103.25
405.515	176.98
405.724	162.64
405.933	156.5
406.142	217.94
406.35	203.6
406.559	121.68
406.768	152.4
406.977	234.32
407.185	224.08
407.394	199.51
407.603	125.78
407.812	203.6
408.02	269.14
408.229	195.41
408.438	244.56
408.646	199.51
408.855	236.37
409.064	228.18
409.272	201.55
409.481	289.62
409.69	271.19
409.898	193.36
410.107	234.32
410.315	383.82
410.524	308.05
410.733	310.1
410.941	252.75
411.15	353.1
411.358	367.44
411.567	455.5
411.775	342.86
411.984	332.62
412.192	432.97
412.401	392.02
412.609	543.57
412.818	480.08
413.026	387.92
413.234	428.88
413.443	535.37
413.651	428.88
413.86	496.46
414.068	609.1
414.276	559.95
414.485	529.23
414.693	676.68
414.901	670.54
415.11	695.11
415.318	615.24
415.526	678.73
415.734	631.63
415.943	686.92
416.151	760.65
416.359	682.83
416.567	781.13
416.776	824.14
416.984	809.8
417.192	867.14
417.4	848.71
417.608	842.57
417.817	990.02
418.025	969.54
418.233	1135.43
418.441	1028.93
418.649	1059.65
418.857	1160
419.065	1235.78
419.273	1260.35
419.481	1198.92
419.689	1350.46
419.897	1456.96
420.105	1424.19
420.313	1387.33
420.521	1481.53
420.729	1487.68
420.937	1502.01
421.145	1641.28
421.353	1596.22
421.561	1741.63
421.769	1850.17
421.977	1805.11
422.185	1825.59
422.393	1966.9
422.601	2179.89
422.809	2126.64
423.017	2171.7
423.224	2153.27
423.432	2272.05
423.64	2265.91
423.848	2489.14
424.056	2390.83
424.263	2689.84
424.471	2603.82
424.679	2693.93
424.887	2810.67
425.094	2923.3
425.302	2870.06
425.51	3070.76
425.718	3093.29
425.925	3160.87
426.133	3226.4
426.341	3433.25
426.548	3451.68
426.756	3627.81
426.964	3646.24
427.171	3687.2
427.379	3891.99
427.586	3869.47
427.794	4113.17
428.001	4348.69
428.209	4537.1
428.417	4403.99
428.624	4770.57
428.832	4713.23
429.039	4614.93
429.247	4672.27
429.454	5233.41
429.662	5573.38
429.869	5260.04
430.076	5634.82
430.284	5372.68
430.491	5466.88
430.699	6116.09
430.906	6009.59
431.114	5976.83
431.321	6279.93
431.528	6331.12
431.736	6650.61
431.943	7043.82
432.15	7011.05
432.358	7090.92
432.565	7338.73
432.772	7197.42
432.979	7670.5
433.187	7879.39
433.394	7938.78
433.601	8184.54
433.808	8604.37
434.016	8469.2
434.223	8743.63
434.43	9253.58
434.637	9040.59
434.844	9964.22
435.052	9882.3
435.259	9657.03
435.466	9837.25
435.673	9927.36
435.88	10162.87
436.087	11184.81
436.294	10891.95
436.501	10756.79
436.708	10900.14
436.915	11428.52
437.122	11930.27
437.329	11881.12
437.537	11934.37
437.743	12440.22
437.95	12257.95
438.157	12835.47
438.364	13425.29
438.571	13271.69
438.778	13374.09
438.985	14621.3
439.192	13990.53
439.399	14432.89
439.606	14439.03
439.813	15012.46
440.02	16073.31
440.227	15432.3
440.433	15538.79
440.64	15825.51
440.847	15917.67
441.054	16341.6
441.261	17218.13
441.467	17142.35
441.674	17623.62
441.881	18137.66
442.088	18117.18
442.294	18201.15
442.501	18707
442.708	18592.31
442.914	19462.7
443.121	20347.42
443.328	20095.52
443.534	21076.5
443.741	20703.77
443.948	20347.42
444.154	22014.47
444.361	21793.29
444.568	21713.42
444.774	21867.02
444.981	22542.85
445.187	22903.29
445.394	24119.78
445.6	23736.81
445.807	25680.33
446.013	24760.8
446.22	25170.39
446.426	25889.23
446.633	25995.72
446.839	27003.32
447.046	25971.15
447.252	27314.61
447.459	27130.3
447.665	27351.48
447.871	28559.78
448.078	29514.13
448.284	28565.92
448.491	29374.87
448.697	30650.75
448.903	30779.78
449.11	31074.68
449.316	30359.94
449.522	30929.28
449.728	31668.59
449.935	31887.73
450.141	31736.18
450.347	32483.69
450.553	31506.8
450.76	32051.56
450.966	32688.48
451.172	32776.55
451.378	33255.77
451.584	32596.32
451.791	33579.35
451.997	33261.91
452.203	33929.55
452.409	33884.5
452.615	33745.23
452.821	32631.14
453.027	32039.28
453.233	33894.74
453.44	32145.77
453.646	32579.94
453.852	32692.58
454.058	33368.41
454.264	32178.54
454.47	32891.23
454.676	31871.34
454.882	33323.35
455.088	30114.19
455.294	30927.23
455.5	31170.94
455.705	31517.04
455.911	29917.58
456.117	29454.74
456.323	29153.69
456.529	27394.48
456.735	28744.09
456.941	27953.58
457.147	27599.28
457.352	26589.63
457.558	26116.55
457.764	26229.19
457.97	25885.13
458.176	25055.7
458.381	25178.58
458.587	23837.16
458.793	23802.35
458.999	22481.41
459.204	24306.15
459.41	23575.02
459.616	22147.59
459.821	22254.08
460.027	22010.37
460.233	21574.16
460.438	20118.05
460.644	20847.13
460.85	19608.11
461.055	19114.55
461.261	19216.94
461.466	17764.93
461.672	17398.35
461.878	18620.99
462.083	17367.63
462.289	16964.18
462.494	16808.53
462.7	16177.76
462.905	15759.97
463.111	16134.75
463.316	16259.68
463.522	15958.63
463.727	15880.8
463.932	15919.71
464.138	15882.85
464.343	15618.66
464.549	15276.65
464.754	15995.49
464.959	15759.97
465.165	15649.38
465.37	15237.74
465.575	14649.97
465.781	15096.43
465.986	15211.12
466.191	14735.99
466.397	14316.15
466.602	13912.71
466.807	14355.07
467.012	14267
467.218	14215.8
467.423	14056.06
467.628	14064.25
467.833	14627.45
468.038	14000.77
468.244	14060.16
468.449	14412.41
468.654	13679.24
468.859	13644.42
469.064	13767.3
469.269	12952.21
469.474	13103.76
469.679	13458.06
469.885	13263.5
470.09	13144.72
470.295	13281.93
470.5	12663.44
470.705	12993.17
470.91	12814.99
471.115	12391.06
471.32	12829.33
471.525	12726.93
471.73	12307.1
471.935	12102.3
472.139	11811.49
472.344	12036.77
472.549	12069.53
472.754	11655.84
472.959	11307.69
473.164	11137.71
473.369	11162.28
473.574	11471.53
473.778	11442.85
473.983	11225.77
474.188	10971.82
474.393	10676.91
474.598	10861.23
474.802	10545.84
475.007	10517.17
475.212	10599.09
475.417	10054.33
475.621	10295.99
475.826	10197.69
476.031	10142.39
476.235	9968.32
476.44	9837.25
476.645	9681.6
476.849	9990.84
477.054	9767.62
477.259	9609.92
477.463	9603.78
477.668	9392.84
477.872	9411.27
478.077	9339.59
478.282	9175.75
478.486	9169.61
478.691	8960.72
478.895	8921.81
479.1	8792.78
479.304	8762.06
479.509	8655.57
479.713	8782.54
479.918	8624.85
480.122	8413.91
480.326	8510.16
480.531	8530.64
480.735	8366.81
480.94	8413.91
481.144	8710.86
481.348	8311.51
481.553	8370.9
481.757	8043.23
481.961	8327.89
482.166	8553.17
482.37	8348.37
482.574	8014.56
482.778	8291.03
482.983	8190.68
483.187	8209.11
483.391	8360.66
483.595	8325.85
483.8	8219.35
484.004	8213.21
484.208	8057.56
484.412	8327.89
484.616	8041.18
484.821	8243.93
485.025	8141.53
485.229	8151.77
485.433	7938.78
485.637	8145.63
485.841	8067.8
486.045	8196.82
486.249	8073.95
486.453	8108.76
486.657	8116.95
486.861	8186.58
487.065	8059.61
487.269	8295.13
487.473	8252.12
487.677	8018.65
487.881	8354.52
488.085	8008.41
488.289	8381.14
488.493	8190.68
488.697	8305.37
488.901	8383.19
489.105	8080.09
489.309	8491.73
489.512	8297.17
489.716	8233.69
489.92	8231.64
490.124	8254.17
490.328	8272.6
490.531	8313.56
490.735	8428.24
490.939	8383.19
491.143	8495.83
491.346	8375
491.55	8485.59
491.754	8583.89
491.958	8680.14
492.161	8493.78
492.365	8772.3
492.569	8579.79
492.772	8536.79
492.976	8616.66
493.18	8782.54
493.383	8794.83
493.587	8901.33
493.79	9028.3
493.994	8843.98
494.197	8872.65
494.401	9157.32
494.605	9149.13
494.808	9214.66
495.012	9130.7
495.215	9274.06
495.419	9376.45
495.622	9288.39
495.825	9646.79
496.029	9718.47
496.232	9718.47
496.436	9677.51
496.639	10001.08
496.843	10029.76
497.046	10115.77
497.249	10058.43
497.453	10382.01
497.656	10400.44
497.859	10300.09
498.063	10357.43
498.266	10685.11
498.469	10769.07
498.673	10697.39
498.876	10914.48
499.079	10961.58
499.282	11000.49
499.485	11350.7
499.689	11258.54
499.892	11539.11
500.095	11535.01
500.298	11633.32
500.501	11684.52
500.705	12004
500.908	12114.59
501.111	12202.65
501.314	12440.22
501.517	12706.45
501.72	12532.37
501.923	12577.43
502.126	12999.31
502.329	13261.45
502.532	13111.95
502.735	13283.98
502.938	13415.05
503.141	13343.37
503.344	13720.2
503.547	13750.92
503.75	14217.85
503.953	14058.11
504.156	14465.66
504.359	14660.21
504.562	14637.69
504.765	14727.8
504.968	15010.42
505.17	15217.26
505.373	14951.03
505.576	15329.9
505.779	15637.09
505.982	15563.37
506.185	16013.92
506.387	16011.87
506.59	16210.53
506.793	16407.13
506.996	16366.17
507.198	17046.1
507.401	16636.5
507.604	16751.19
507.807	17560.14
508.009	17476.17
508.212	17420.88
508.415	17840.71
508.617	17979.97
508.82	18260.54
509.022	17998.4
509.225	18758.2
509.428	18696.76
509.63	18887.22
509.833	18731.58
510.035	19333.68
510.238	19454.51
510.44	19417.65
510.643	19728.94
510.845	19927.59
511.048	19845.67
511.25	20275.74
511.453	20288.03
511.655	20879.89
511.858	20795.93
512.06	20902.42
512.262	21113.36
512.465	21205.52
512.667	21592.59
512.87	21598.73
513.072	21963.27
513.274	22424.06
513.477	22454.78
513.679	22426.11
513.881	22661.63
514.084	23042.55
514.286	23323.12
514.488	23048.69
514.69	23982.57
514.893	24197.6
515.095	23972.33
515.297	24410.59
515.499	24437.22
515.701	24506.85
515.904	24977.88
516.106	25192.92
516.308	25561.55
516.51	25913.8
516.712	25620.94
516.914	26098.12
517.116	26569.15
517.318	26546.62
517.52	26612.16
517.722	26636.73
517.925	27179.45
518.127	27574.7
518.329	27451.83
518.531	27374
518.733	28127.66
518.935	28656.03
519.136	28363.17
519.338	28885.4
519.54	28973.47
519.742	29370.77
519.944	29671.82
520.146	30163.34
520.348	29780.37
520.55	30302.6
520.752	30638.47
520.954	30968.19
521.155	30763.39
521.357	31652.21
521.559	31471.99
521.761	31934.83
521.963	32194.92
522.164	32049.52
522.366	32432.49
522.568	32452.97
522.77	32633.19
522.971	33380.7
523.173	33233.24
523.375	33392.98
523.576	33638.74
523.778	33569.11
523.98	34251.08
524.181	34455.88
524.383	34537.8
524.584	34801.99
524.786	35182.91
524.988	34808.13
525.189	35096.89
525.391	35617.08
525.592	36071.73
525.794	35889.46
525.995	36587.82
526.197	36280.62
526.398	36614.44
526.6	36780.32
526.801	36790.56
527.003	37122.33
527.204	36882.72
527.406	37462.3
527.607	37560.6
527.808	38113.55
528.01	37382.43
528.211	37648.66
528.412	38703.37
528.614	38433.03
528.815	38535.43
529.016	39168.26
529.218	38867.2
529.419	38908.16
529.62	39051.52
529.822	38996.23
530.023	39356.67
530.224	39176.45
530.425	39510.27
530.626	39067.91
530.828	39225.6
531.029	40210.67
531.23	39796.98
531.431	39545.08
531.632	40130.8
531.833	40044.79
532.035	40122.61
532.236	40245.49
532.437	40665.32
532.638	40362.22
532.839	40806.63
533.04	40870.12
533.241	40087.79
533.442	40974.56
533.643	40593.64
533.844	41269.47
534.045	40782.06
534.246	40476.91
534.447	40861.93
534.648	40800.49
534.849	41156.83
535.05	41144.55
535.251	41330.91
535.451	41201.89
535.652	41459.93
535.853	41181.41
536.054	41109.73
536.255	41488.6
536.456	40782.06
536.657	41650.39
536.857	41617.63
537.058	41363.68
537.259	41386.21
537.46	41300.19
537.66	41165.03
537.861	41300.19
538.062	40761.58
538.263	41455.84
538.463	41093.35
538.664	41615.58
538.865	41443.55
539.065	41992.4
539.266	41550.04
539.466	41785.56
539.667	41433.31
539.868	41795.8
540.068	41271.52
540.269	41050.34
540.469	41582.81
540.67	41210.08
540.87	41468.12
541.071	41308.38
541.271	41472.22
541.472	41427.17
541.672	41414.88
541.873	41357.53
542.073	40839.4
542.274	41527.52
542.474	41246.94
542.675	41216.22
542.875	41631.96
543.075	41533.66
543.276	40997.09
543.476	41459.93
543.676	41185.5
543.877	41666.78
544.077	41140.45
544.277	41150.69
544.478	41085.15
544.678	41496.8
544.878	41177.31
545.078	41441.5
545.279	41136.35
545.479	40947.94
545.679	41574.62
545.879	41107.68
546.079	41070.82
546.28	41527.52
546.48	40605.93
546.68	41412.83
546.88	41664.73
547.08	41165.03
547.28	40743.14
547.48	40806.63
547.68	41134.31
547.88	40718.57
548.081	41103.59
548.281	41335.01
548.481	41199.84
548.681	41263.33
548.881	41070.82
549.081	41122.02
549.28	41287.9
549.48	41416.93
549.68	40874.21
549.88	41255.14
550.08	41146.59
550.28	41060.58
550.48	41173.22
550.68	41464.03
550.88	40947.94
551.08	40993
551.279	41132.26
551.479	41242.85
551.679	40995.04
551.879	40599.79
552.079	41140.45
552.278	40968.42
552.478	40878.31
552.678	40620.27
552.878	41269.47
553.077	41025.76
553.277	40597.74
553.477	41033.96
553.676	40894.69
553.876	40564.97
554.076	40341.74
554.275	40394.99
554.475	40290.54
554.674	40693.99
554.874	40616.17
555.074	40444.14
555.273	40255.73
555.473	40669.42
555.672	40251.63
555.872	40390.89
556.071	39948.53
556.271	40487.15
556.47	40075.51
556.67	40016.11
556.869	39739.64
557.068	40231.15
557.268	39987.44
557.467	39811.32
557.667	39993.59
557.866	39835.89
558.065	39510.27
558.265	39444.73
558.464	39598.33
558.663	39516.41
558.863	38979.84
559.062	39688.44
559.261	38957.31
559.461	39315.71
559.66	38904.07
559.859	39024.9
560.058	39108.86
560.258	38807.81
560.457	38455.56
560.656	39053.57
560.855	38615.3
561.054	38781.19
561.253	38101.26
561.453	38183.18
561.652	38562.06
561.851	38263.05
562.05	37992.72
562.249	37556.5
562.448	38531.34
562.647	37740.82
562.846	37769.49
563.045	37654.81
563.244	37445.91
563.443	37802.26
563.642	37290.27
563.841	37028.13
564.04	37069.09
564.239	37251.36
564.438	36813.09
564.637	37134.62
564.836	36905.25
565.035	36522.28
565.234	36466.98
565.432	36061.49
565.631	36280.62
565.83	36415.79
566.029	36305.2
566.228	35850.55
566.427	35811.63
566.625	35443
566.824	35273.02
567.023	36069.68
567.222	34928.96
567.42	35606.84
567.619	34965.82
567.818	34842.95
568.016	35031.36
568.215	35172.67
568.414	34894.14
568.612	34924.86
568.811	34433.35
569.01	34425.16
569.208	33880.4
569.407	34138.44
569.605	33851.73
569.804	34046.29
570.002	33671.51
570.201	33821.01
570.4	33810.77
570.598	33306.97
570.797	33180
570.995	33524.05
571.193	33153.37
571.392	33476.95
571.59	32725.35
571.789	32799.07
571.987	32833.89
572.186	32555.36
572.384	32625
572.582	32553.32
572.781	32876.9
572.979	31930.73
573.177	31965.55
573.376	32473.45
573.574	31865.2
573.772	32090.48
573.971	31648.11
574.169	31601.01
574.367	31484.28
574.565	31576.44
574.763	31244.66
574.962	31140.22
575.16	30777.73
575.358	31064.44
575.556	30851.45
575.754	31025.53
575.952	30501.25
576.151	30769.54
576.349	30495.11
576.547	30243.21
576.745	30325.13
576.943	30499.2
577.141	30353.8
577.339	30439.81
577.537	30079.37
577.735	29850
577.933	29813.13
578.131	29712.78
578.329	29464.98
578.527	29514.13
578.725	29604.24
578.923	29628.82
579.121	29323.67
579.319	29077.91
579.516	29323.67
579.714	29520.27
579.912	29088.15
580.11	28905.88
580.308	29071.77
580.506	28592.55
580.704	28223.91
580.901	28377.51
581.099	28408.23
581.297	28293.54
581.495	28158.38
581.692	28377.51
581.89	28152.23
582.088	27943.34
582.285	28051.88
582.483	28129.7
582.681	28090.79
582.878	27644.34
583.076	27476.4
583.274	27525.55
583.471	27574.7
583.669	27713.97
583.866	26970.55
584.064	27300.28
584.262	27036.09
584.459	27027.9
584.657	26945.98
584.854	27417.01
585.052	26585.54
585.249	26659.26
585.447	26657.21
585.644	26227.14
585.841	26560.96
586.039	26761.66
586.236	26153.41
586.434	26255.81
586.631	26083.78
586.828	26091.98
587.026	25874.89
587.223	26022.34
587.42	25903.56
587.618	25813.45
587.815	25438.67
588.012	25608.65
588.21	25453.01
588.407	26075.59
588.604	25256.4
588.801	25008.6
588.999	25512.4
589.196	25049.56
589.393	24852.95
589.59	24834.52
589.787	24879.58
589.984	24961.5
590.182	24519.14
590.379	24658.4
590.576	24484.32
590.773	24861.15
590.97	24355.3
591.167	24543.71
591.364	24168.93
591.561	24113.64
591.758	24242.66
591.955	23882.22
592.152	24252.9
592.349	23898.6
592.546	23892.46
592.743	24003.05
592.94	23562.73
593.137	23605.74
593.334	23890.41
593.531	23589.36
593.727	23374.32
593.924	23382.51
594.121	23521.77
594.318	23468.53
594.515	23020.02
594.712	23527.92
594.908	23202.29
595.105	23089.65
595.302	23017.97
595.499	22903.29
595.696	22901.24
595.892	22589.95
596.089	22479.36
596.286	22667.77
596.482	22647.29
596.679	22430.21
596.876	22475.26
597.072	22336
597.269	22327.81
597.466	22323.71
597.662	21959.17
597.859	22018.57
598.055	22120.96
598.252	21879.3
598.448	21752.33
598.645	21778.95
598.841	21539.34
599.038	21592.59
599.234	21576.2
599.431	21336.59
599.627	21328.4
599.824	21486.09
600.02	21170.71
600.217	21326.35
600.413	20853.27
600.609	21178.9
600.806	21305.87
601.002	20892.18
601.198	21111.32
601.395	20494.88
601.591	20843.03
601.787	20535.84
601.984	20546.08
602.18	20677.15
602.376	20394.53
602.572	20212.26
602.769	20513.31
602.965	19862.05
603.161	20439.58
603.357	20406.81
603.553	20052.52
603.75	20087.33
603.946	20048.42
604.142	20052.52
604.338	19833.38
604.534	19896.87
604.73	19483.18
604.926	19698.22
605.122	19833.38
605.318	19780.14
605.514	19569.19
605.71	19460.65
605.906	19421.74
606.102	19294.77
606.298	19452.46
606.494	19278.38
606.69	19292.72
606.886	19163.7
607.082	18932.28
607.278	18958.9
607.474	18854.45
607.67	18852.41
607.866	18948.66
608.062	19030.58
608.257	18598.46
608.453	18713.14
608.649	18993.72
608.845	18477.63
609.041	18553.4
609.236	18682.42
609.432	18455.1
609.628	18399.8
609.824	18233.92
610.019	18215.49
610.215	18291.26
610.411	18453.05
610.606	18440.76
610.802	18465.34
610.998	17955.4
611.193	18072.13
611.389	17865.28
611.584	17930.82
611.78	17705.54
611.976	17863.24
612.171	18076.23
612.367	17756.74
612.562	17922.63
612.758	17627.72
612.953	17361.48
613.149	17918.53
613.344	17820.23
613.539	17746.5
613.735	17793.61
613.93	17531.47
614.126	17408.59
614.321	17603.14
614.517	17488.46
614.712	17527.37
614.907	17082.96
615.103	17386.06
615.298	17361.48
615.493	17334.86
615.688	17138.26
615.884	17201.74
616.079	17046.1
616.274	17254.99
616.47	17273.42
616.665	17238.61
616.86	16685.65
617.055	16994.9
617.25	16933.46
617.445	16984.66
617.641	16560.73
617.836	16882.26
618.031	16636.5
618.226	16712.28
618.421	16413.27
618.616	16755.29
618.811	16503.39
619.006	16630.36
619.201	16302.68
619.396	16368.22
619.591	16071.26
619.786	16429.66
619.981	16091.74
620.176	16185.95
620.371	15948.39
620.566	15837.8
620.761	15841.89
620.956	16003.68
621.151	15526.5
621.346	15716.97
621.541	15495.78
621.735	15716.97
621.93	15497.83
622.125	15407.72
622.32	15000.18
622.515	15059.57
622.709	15012.46
622.904	15018.61
623.099	15131.25
623.294	14727.8
623.488	14805.62
623.683	14822
623.878	14615.16
624.072	14428.79
624.267	14598.77
624.462	14305.92
624.656	14039.68
624.851	14508.66
625.046	14260.86
625.24	13994.62
625.435	13808.26
625.629	14123.65
625.824	13957.76
626.018	13818.5
626.213	13617.8
626.407	13865.6
626.602	13318.79
626.796	13615.75
626.991	13625.99
627.185	13425.29
627.38	13269.64
627.574	13404.81
627.768	13077.13
627.963	13118.09
628.157	12989.07
628.352	12974.74
628.546	12595.86
628.74	12737.17
628.935	12673.68
629.129	12786.32
629.323	12614.29
629.517	12497.56
629.712	12313.24
629.906	12472.98
630.1	12462.74
630.294	12411.54
630.489	12163.74
630.683	12358.3
630.877	11967.13
631.071	11897.5
631.265	12124.83
631.459	11948.7
631.653	11801.25
631.848	11768.48
632.042	11774.63
632.236	11815.59
632.43	11676.32
632.624	11606.69
632.818	11485.86
633.012	11283.11
633.206	11315.88
633.4	11283.11
633.594	11283.11
633.788	11410.09
633.982	11418.28
634.176	11160.24
634.369	10836.66
634.563	11211.43
634.757	10853.04
634.951	10842.8
635.145	10834.61
635.339	10861.23
635.533	10812.08
635.726	10840.75
635.92	10435.25
636.114	10574.52
636.308	10238.65
636.501	10379.96
636.695	10396.34
636.889	10255.03
637.083	10265.27
637.276	10140.35
637.47	10136.25
637.664	10257.08
637.857	10119.87
638.051	10304.18
638.244	9884.35
638.438	10025.66
638.632	9976.51
638.825	9749.18
639.019	9673.41
639.212	9697.99
639.406	9689.79
639.599	9513.67
639.793	9495.24
639.986	9368.26
640.18	9468.61
640.373	9278.15
640.567	9190.09
640.76	9333.45
640.954	9251.53
641.147	8944.33
641.34	9056.97
641.534	9032.4
641.727	9007.82
641.92	9013.96
642.114	8944.33
642.307	9063.12
642.5	8702.67
642.694	8606.42
642.887	8702.67
643.08	8729.3
643.273	8669.91
643.467	8688.34
643.66	8608.47
643.853	8346.33
644.046	8340.18
644.239	8520.4
644.432	8311.51
644.626	8141.53
644.819	8182.49
645.012	8315.61
645.205	8159.96
645.398	8116.95
645.591	7971.55
645.784	8100.57
645.977	7916.25
646.17	8071.9
646.363	7992.03
646.556	7883.49
646.749	7715.55
646.942	7914.2
647.135	7676.64
647.328	7748.32
647.521	7820
647.714	7584.48
647.907	7813.85
648.099	7725.79
648.292	7531.23
648.485	7504.61
648.678	7500.51
648.871	7572.19
649.064	7543.52
649.256	7379.68
649.449	7404.26
649.642	7195.37
649.835	7148.26
650.027	7219.94
650.22	7314.15
650.413	7101.16
650.605	7127.78
650.798	7084.78
650.991	7054.06
651.183	7002.86
651.376	6992.62
651.568	6929.13
651.761	6968.04
651.954	6904.56
652.146	6884.08
652.339	6828.78
652.531	6730.48
652.724	6601.46
652.916	6572.79
653.109	6640.37
653.301	6718.19
653.494	6562.55
653.686	6550.26
653.879	6683.38
654.071	6447.86
654.263	6443.76
654.456	6550.26
654.648	6451.95
654.84	6443.76
655.033	6431.48
655.225	6308.6
655.417	6206.2
655.61	6556.4
655.802	6232.82
655.994	6099.7
656.186	6077.18
656.379	6220.53
656.571	6175.48
656.763	6081.27
656.955	6009.59
657.148	6001.4
657.34	6064.89
657.532	5948.15
657.724	6013.69
657.916	5903.1
658.108	5976.83
658.3	5946.11
658.492	5978.87
658.684	5741.31
658.876	5853.95
659.068	5729.02
659.26	5645.06
659.452	5800.7
659.644	5651.2
659.836	5616.38
660.028	5606.14
660.22	5628.67
660.412	5700.35
660.604	5542.66
660.796	5516.03
660.988	5620.48
661.18	5458.69
661.372	5489.41
661.563	5499.65
661.755	5495.55
661.947	5315.33
662.139	5350.15
662.331	5331.72
662.522	5352.2
662.714	5233.41
662.906	5321.48
663.097	5354.24
663.289	5358.34
663.481	5370.63
663.673	5188.36
663.864	5118.73
664.056	5208.84
664.247	5278.47
664.439	5075.72
664.631	5262.09
664.822	5108.49
665.014	5176.07
665.205	5120.78
665.397	5126.92
665.588	5026.57
665.78	5126.92
665.971	5036.81
666.163	5106.44
666.354	5167.88
666.546	4969.23
666.737	4958.99
666.929	4973.32
667.12	5069.58
667.311	4995.85
667.503	5114.63
667.694	4899.59
667.885	4938.51
668.077	4913.93
668.268	4680.46
668.459	4887.31
668.651	4934.41
668.842	4987.66
669.033	4870.92
669.224	4733.71
669.416	4797.2
669.607	4735.76
669.798	4838.16
669.989	4938.51
670.18	4868.88
670.371	4846.35
670.563	4713.23
670.754	4887.31
670.945	4795.15
671.136	4881.16
671.327	4741.9
671.518	4846.35
671.709	4768.52
671.9	4819.72
672.091	4786.96
672.282	4815.63
672.473	4911.88
672.664	4774.67
672.855	4676.37
673.046	4590.35
673.237	4918.03
673.428	4784.91
673.619	4709.13
673.809	4643.6
674	4840.2
674.191	4793.1
674.382	4795.15
674.573	4946.7
674.764	4868.88
674.954	4807.44
675.145	4899.59
675.336	4815.63
675.527	4860.68
675.717	4922.12
675.908	4752.14
676.099	4723.47
676.289	4893.45
676.48	4776.72
676.671	4834.06
676.861	4934.41
677.052	4893.45
677.243	4733.71
677.433	4709.13
677.624	4979.47
677.814	5036.81
678.005	4791.05
678.195	4856.59
678.386	4971.27
678.576	4852.49
678.767	4903.69
678.957	5034.76
679.148	5245.7
679.338	4961.03
679.529	5034.76
679.719	4952.84
679.909	5307.14
680.1	5081.86
680.29	5047.05
680.481	5178.12
680.671	5075.72
680.861	4975.37
681.052	5030.66
681.242	5020.42
681.432	5180.17
681.622	5059.34
681.813	5100.3
682.003	5131.02
682.193	5225.22
682.383	5356.29
682.573	5124.87
682.764	5206.79
682.954	5100.3
683.144	5165.83
683.334	5165.83
683.524	5090.06
683.714	5305.09
683.904	5206.79
684.094	5282.56
684.284	5182.21
684.474	5378.82
684.664	5325.57
684.854	5311.24
685.044	5163.78
685.234	5262.09
685.424	5206.79
685.614	5204.74
685.804	5235.46
685.994	5251.85
686.184	5227.27
686.374	5090.06
686.564	5124.87
686.753	5153.54
686.943	5059.34
687.133	5333.76
687.323	4938.51
687.513	5126.92
687.702	5141.25
687.892	4963.08
688.082	4961.03
688.272	5192.45
688.461	4995.85
688.651	5102.34
688.841	4987.66
689.03	4885.26
689.22	4862.73
689.41	4805.39
689.599	4875.02
689.789	4891.4
689.979	4860.68
690.168	4791.05
690.358	4772.62
690.547	4786.96
690.737	4752.14
690.926	4674.32
691.116	4678.41
691.305	4803.34
691.495	4576.02
691.684	4457.23
691.874	4614.93
692.063	4492.05
692.252	4569.87
692.442	4401.94
692.631	4455.19
692.82	4369.17
693.01	4389.65
693.199	4315.92
693.388	4313.88
693.578	4375.31
693.767	4262.68
693.956	4217.62
694.146	4356.88
694.335	4102.93
694.524	4102.93
694.713	4139.8
694.902	4156.18
695.092	4250.39
695.281	4178.71
695.47	4033.3
695.659	4123.41
695.848	4184.85
696.037	4076.31
696.226	4035.35
696.415	3928.86
696.604	4143.89
696.793	4145.94
696.982	3994.39
697.171	3859.23
697.36	4029.21
697.549	3963.67
697.738	4004.63
697.927	3984.15
698.116	3922.71
698.305	3924.76
698.494	3898.14
698.683	3965.72
698.872	3939.1
699.061	3959.58
699.25	3928.86
699.438	3898.14
699.627	3832.6
699.816	3973.91
700.005	3808.03
700.193	3865.37
700.382	3916.57
700.571	3836.7
700.76	3875.61
700.948	3951.39
701.137	3939.1
701.326	3840.79
701.514	3887.9
701.703	3877.66
701.892	3814.17
702.08	3971.86
702.269	3871.51
702.457	3947.29
702.646	3959.58
702.834	3775.26
703.023	3935
703.212	3941.15
703.4	3828.51
703.589	3877.66
703.777	3902.23
703.965	3951.39
704.154	3978.01
704.342	3996.44
704.531	3951.39
704.719	3781.4
704.907	4229.91
705.096	3910.43
705.284	4152.09
705.472	4074.26
705.661	3930.91
705.849	4012.82
706.037	4127.51
706.226	4125.46
706.414	3961.62
706.602	4086.55
706.79	4070.17
706.979	4059.93
707.167	3978.01
707.355	4041.5
707.543	4113.17
707.731	4094.74
707.919	4098.84
708.107	4166.42
708.296	4100.89
708.484	4117.27
708.672	4100.89
708.86	4166.42
709.048	4217.62
709.236	4295.44
709.424	4025.11
709.612	4369.17
709.8	4111.13
709.988	4305.68
710.176	4266.77
710.364	4258.58
710.551	4301.59
710.739	4225.81
710.927	4299.54
711.115	4492.05
711.303	4446.99
711.491	4449.04
711.679	4340.5
711.866	4381.46
712.054	4442.9
712.242	4311.83
712.43	4535.06
712.617	4619.02
712.805	4463.38
712.993	4354.83
713.181	4363.03
713.368	4684.56
713.556	4569.87
713.744	4406.03
713.931	4651.79
714.119	4643.6
714.306	4653.84
714.494	4614.93
714.682	4735.76
714.869	4627.21
715.057	4737.81
715.244	4551.44
715.432	4838.16
715.619	4879.11
715.807	4829.96
715.994	4823.82
716.182	4811.53
716.369	4954.89
716.556	5112.58
716.744	4717.33
716.931	4866.83
717.119	4954.89
717.306	4963.08
717.493	4762.38
717.681	4961.03
717.868	4922.12
718.055	5059.34
718.242	4958.99
718.43	4993.8
718.617	5079.82
718.804	4958.99
718.991	5251.85
719.179	5171.97
719.366	5126.92
719.553	5167.88
719.74	5163.78
719.927	5438.21
720.114	5223.17
720.301	5296.9
720.488	5323.52
720.676	5206.79
720.863	5339.91
721.05	5282.56
721.237	5403.39
721.424	5421.83
721.611	5440.26
721.798	5425.92
721.985	5315.33
722.172	5397.25
722.358	5425.92
722.545	5616.38
722.732	5563.14
722.919	5509.89
723.106	5556.99
723.293	5491.46
723.48	5614.34
723.667	5626.62
723.853	5800.7
724.04	5722.88
724.227	5636.86
724.414	5712.64
724.6	5821.18
724.787	5677.82
724.974	5733.12
725.161	5841.66
725.347	5663.49
725.534	6023.93
725.72	5772.03
725.907	5757.69
726.094	5853.95
726.28	5974.78
726.467	5741.31
726.653	5800.7
726.84	6030.07
727.027	5868.28
727.213	5747.45
727.4	6052.6
727.586	6050.55
727.773	6216.44
727.959	6148.86
728.145	6146.81
728.332	5919.48
728.518	6122.23
728.705	6077.18
728.891	6224.63
729.077	5964.54
729.264	6269.69
729.45	6062.84
729.636	6318.84
729.823	6263.54
730.009	6341.36
730.195	6243.06
730.382	6396.66
730.568	6318.84
730.754	6230.77
730.94	6355.7
731.126	6421.24
731.313	6345.46
731.499	6470.39
731.685	6298.36
731.871	6421.24
732.057	6345.46
732.243	6386.42
732.429	6413.04
732.615	6691.57
732.801	6318.84
732.987	6431.48
733.173	6306.55
733.359	6449.91
733.545	6419.19
733.731	6357.75
733.917	6454
734.103	6474.48
734.289	6433.52
734.475	6572.79
734.661	6605.55
734.847	6472.43
735.033	6732.53
735.219	6521.59
735.404	6636.27
735.59	6562.55
735.776	6572.79
735.962	6556.4
736.148	6699.76
736.333	6388.47
736.519	6585.07
736.705	6468.34
736.89	6666.99
737.076	6406.9
737.262	6476.53
737.447	6478.58
737.633	6494.96
737.819	6716.14
738.004	6443.76
738.19	6343.41
738.375	6662.9
738.561	6480.63
738.747	6396.66
738.932	6513.39
739.118	6722.29
739.303	6519.54
739.489	6527.73
739.674	6542.07
739.859	6671.09
740.045	6507.25
740.23	6558.45
740.416	6376.18
740.601	6554.35
740.786	6408.95
740.972	6394.61
741.157	6626.03
741.342	6316.79
741.528	6265.59
741.713	6411
741.898	6445.81
742.084	6265.59
742.269	6347.51
742.454	6568.69
742.639	6204.15
742.824	6198.01
743.01	6259.45
743.195	6134.52
743.38	6181.62
743.565	6329.08
743.75	6175.48
743.935	6136.57
744.12	6222.58
744.305	5972.73
744.49	6101.75
744.675	6011.64
744.86	5970.68
745.045	6091.51
745.23	6079.22
745.415	6005.5
745.6	5995.26
745.785	6005.5
745.97	5970.68
746.155	5792.51
746.34	5839.61
746.525	5860.09
746.71	5901.05
746.895	5679.87
747.079	5638.91
747.264	5552.9
747.449	5665.53
747.634	5628.67
747.819	5589.76
748.003	5645.06
748.188	5479.17
748.373	5518.08
748.557	5503.75
748.742	5624.58
748.927	5444.35
749.111	5473.03
749.296	5204.74
749.481	5280.52
749.665	5157.64
749.85	5184.26
750.034	5430.02
750.219	5102.34
750.404	5067.53
750.588	5004.04
750.773	4987.66
750.957	5081.86
751.141	4981.51
751.326	4946.7
751.51	4911.88
751.695	4944.65
751.879	4666.13
752.064	4909.83
752.248	4692.75
752.432	4877.07
752.617	4786.96
752.801	4748.04
752.985	4692.75
753.17	4725.52
753.354	4602.64
753.538	4612.88
753.722	4373.27
753.907	4535.06
754.091	4647.69
754.275	4348.69
754.459	4414.23
754.643	4254.48
754.828	4291.35
755.012	4387.6
755.196	4367.12
755.38	4158.23
755.564	4360.98
755.748	4201.24
755.932	4209.43
756.116	4135.7
756.3	4043.54
756.484	4092.69
756.668	3935
756.852	4016.92
757.036	4027.16
757.22	3816.22
757.404	3988.25
757.588	3926.81
757.772	3978.01
757.956	3767.07
758.14	3707.68
758.323	3734.3
758.507	3672.86
758.691	3740.44
758.875	3750.68
759.059	3687.2
759.242	3769.12
759.426	3611.42
759.61	3605.28
759.794	3570.46
759.977	3578.65
760.161	3603.23
760.345	3498.78
760.528	3408.67
760.712	3500.83
760.895	3410.72
761.079	3414.82
761.263	3322.66
761.446	3375.91
761.63	3380
761.813	3326.75
761.997	3435.3
762.18	3349.28
762.364	3285.8
762.547	3070.76
762.731	3234.6
762.914	3234.6
763.098	3173.16
763.281	3152.68
763.464	3124.01
763.648	3078.95
763.831	3099.43
764.015	3132.2
764.198	3124.01
764.381	2923.3
764.564	3185.44
764.748	3134.25
764.931	3025.7
765.114	3021.61
765.297	2970.41
765.481	2931.5
765.664	2945.83
765.847	2939.69
766.03	2978.6
766.213	2954.02
766.397	2984.74
766.58	2886.44
766.763	2972.46
766.946	2960.17
767.129	2794.28
767.312	2800.43
767.495	2857.77
767.678	2732.84
767.861	2880.3
768.044	2700.08
768.227	2738.99
768.41	2683.69
768.593	2698.03
768.776	2689.84
768.959	2712.36
769.142	2652.97
769.324	2601.77
769.507	2571.05
769.69	2571.05
769.873	2579.25
770.056	2652.97
770.239	2526
770.421	2677.55
770.604	2470.7
770.787	2485.04
770.97	2345.78
771.152	2487.09
771.335	2454.32
771.518	2456.37
771.7	2358.07
771.883	2431.79
772.066	2274.1
772.248	2374.45
772.431	2321.2
772.613	2362.16
772.796	2292.53
772.978	2349.87
773.161	2306.87
773.343	2272.05
773.526	2329.39
773.708	2212.66
773.891	2243.38
774.073	2183.99
774.256	2190.13
774.438	2249.52
774.621	2116.41
774.803	2235.19
774.985	2083.64
775.168	2063.16
775.35	2040.63
775.532	2126.64
775.715	2014.01
775.897	2042.68
776.079	2073.4
776.261	2059.06
776.444	1946.42
776.626	1942.33
776.808	1962.81
776.99	1903.42
777.173	1942.33
777.355	1946.42
777.537	1940.28
777.719	1878.84
777.901	1841.98
778.083	1725.24
778.265	1788.73
778.447	1897.27
778.629	1884.98
778.811	1837.88
778.993	1731.39
779.175	1897.27
779.357	1674.04
779.539	1665.85
779.721	1667.9
779.903	1657.66
780.085	1565.5
780.267	1614.65
780.449	1731.39
780.631	1633.08
780.812	1538.88
780.994	1590.08
781.176	1579.84
781.358	1547.07
781.54	1553.21
781.721	1526.59
781.903	1606.46
782.085	1411.9
782.267	1536.83
782.448	1542.97
782.63	1375.04
782.812	1514.3
782.993	1438.53
783.175	1463.1
783.357	1383.23
783.538	1461.06
783.72	1338.18
783.901	1366.85
784.083	1334.08
784.264	1358.66
784.446	1274.69
784.627	1243.97
784.809	1299.27
784.99	1209.15
785.172	1334.08
785.353	1270.59
785.535	1307.46
785.716	1297.22
785.897	1276.74
786.079	1209.15
786.26	1289.03
786.441	1088.32
786.623	1141.57
786.804	1153.86
786.985	1160
787.167	1286.98
787.348	1078.08
787.529	1237.83
787.71	1325.89
787.891	1145.67
788.073	1020.74
788.254	1096.52
788.435	1141.57
788.616	1065.8
788.797	1047.37
788.978	1078.08
789.159	1028.93
789.34	1094.47
789.522	1100.61
789.703	977.73
789.884	1022.79
790.065	1045.32
790.246	1137.48
790.427	967.49
790.607	1043.27
790.788	961.35
790.969	998.21
791.15	1026.89
791.331	998.21
791.512	981.83
791.693	1002.31
791.874	940.87
792.054	1084.23
792.235	936.78
792.416	893.77
792.597	863.05
792.778	914.25
792.958	949.06
793.139	977.73
793.32	957.25
793.5	897.86
793.681	904.01
793.862	867.14
794.042	850.76
794.223	846.66
794.404	840.52
794.584	793.42
794.765	768.84
794.945	912.2
795.126	867.14
795.306	867.14
795.487	793.42
795.667	852.81
795.848	826.18
796.028	654.16
796.209	809.8
796.389	744.27
796.57	842.57
796.75	701.26
796.93	768.84
797.111	764.75
797.291	641.87
797.471	731.98
797.652	731.98
797.832	713.55
798.012	727.88
798.192	727.88
798.373	719.69
798.553	717.64
798.733	725.83
798.913	678.73
799.093	670.54
799.274	752.46
799.454	670.54
799.634	740.17
799.814	740.17
799.994	719.69
800.174	709.45
800.354	635.72
800.534	594.76
800.714	635.72
800.894	676.68
801.074	643.92
801.254	670.54
801.434	731.98
801.614	678.73
801.794	594.76
801.974	1362.75
802.154	639.82
802.334	611.15
802.514	572.24
802.693	678.73
802.873	670.54
803.053	600.91
803.233	619.34
803.413	715.59
803.592	609.1
803.772	570.19
803.952	580.43
804.131	566.09
804.311	609.1
804.491	541.52
804.67	609.1
804.85	588.62
805.03	633.68
805.209	602.96
805.389	523.09
805.568	559.95
805.748	580.43
805.928	521.04
806.107	605
806.287	475.98
806.466	523.09
806.646	498.51
806.825	537.42
807.004	523.09
807.184	473.93
807.363	527.18
807.543	533.33
807.722	478.03
807.901	555.85
808.081	592.72
808.26	420.69
808.439	535.37
808.619	504.65
808.798	430.93
808.977	514.89
809.156	523.09
809.336	518.99
809.515	449.36
809.694	406.35
809.873	449.36
810.052	486.22
810.231	451.41
810.411	504.65
810.59	502.61
810.769	553.8
810.948	545.61
811.127	398.16
811.306	435.02
811.485	465.74
811.664	482.13
811.843	455.5
812.022	473.93
812.201	383.82
812.38	432.97
812.559	469.84
812.737	482.13
812.916	357.2
813.095	334.67
813.274	392.02
813.453	375.63
813.632	482.13
813.811	379.73
813.989	375.63
814.168	437.07
814.347	422.73
814.526	394.06
814.704	514.89
814.883	379.73
815.062	432.97
815.24	432.97
815.419	414.54
815.598	396.11
815.776	318.29
815.955	361.3
816.133	301.9
816.312	385.87
816.49	359.25
816.669	473.93
816.847	408.4
817.026	349.01
817.204	420.69
817.383	334.67
817.561	375.63
817.74	441.17
817.918	330.58
818.097	404.3
818.275	312.14
818.453	351.06
818.632	367.44
818.81	437.07
818.988	342.86
819.167	318.29
819.345	277.33
819.523	281.43
819.701	328.53
819.879	351.06
820.058	365.39
820.236	314.19
820.414	359.25
820.592	326.48
820.77	346.96
820.948	314.19
821.127	355.15
821.305	301.9
821.483	301.9
821.661	256.85
821.839	324.43
822.017	293.71
822.195	293.71
822.373	392.02
822.551	277.33
822.729	279.38
822.907	217.94
823.085	351.06
823.262	279.38
823.44	306
823.618	273.23
823.796	240.47
823.974	297.81
824.152	269.14
824.329	211.79
824.507	228.18
824.685	277.33
824.863	328.53
825.04	244.56
825.218	291.66
825.396	283.47
825.574	252.75
825.751	291.66
825.929	318.29
826.107	187.22
826.284	230.23
826.462	267.09
826.639	252.75
826.817	260.95
826.994	285.52
827.172	228.18
827.349	269.14
827.527	318.29
827.704	269.14
827.882	246.61
828.059	201.55
828.237	232.27
828.414	244.56
828.591	207.7
828.769	289.62
828.946	269.14
829.124	248.66
829.301	285.52
829.478	252.75
829.655	310.1
829.833	211.79
830.01	211.79
830.187	219.99
830.364	211.79
830.542	244.56
830.719	219.99
830.896	248.66
831.073	299.86
831.25	222.03
831.427	281.43
831.604	236.37
831.782	234.32
831.959	273.23
832.136	201.55
832.313	217.94
832.49	152.4
832.667	219.99
832.844	191.31
833.021	201.55
833.198	129.88
833.374	133.97
833.551	219.99
833.728	140.12
833.905	334.67
834.082	170.83
834.259	209.75
834.436	219.99
834.612	195.41
834.789	236.37
834.966	150.36
835.143	232.27
835.319	115.54
835.496	189.27
835.673	236.37
835.85	203.6
836.026	211.79
836.203	160.59
836.38	95.06
836.556	162.64
836.733	105.3
836.909	330.58
837.086	154.45
837.262	191.31
837.439	185.17
837.616	146.26
837.792	187.22
837.968	199.51
838.145	113.49
838.321	82.77
838.498	162.64
838.674	148.31
838.851	230.23
839.027	158.55
839.203	156.5
839.38	219.99
839.556	113.49
839.732	217.94
839.909	113.49
840.085	232.27
840.261	162.64
840.437	125.78
840.614	219.99
840.79	138.07
840.966	189.27
841.142	117.59
841.318	238.42
841.494	152.4
841.671	160.59
841.847	119.64
842.023	93.01
842.199	193.36
842.375	205.65
842.551	105.3
842.727	56.15
842.903	205.65
843.079	60.24
843.255	203.6
843.431	144.21
843.607	129.88
843.783	43.86
843.959	144.21
844.134	76.63
844.31	211.79
844.486	152.4
844.662	138.07
844.838	160.59
845.013	129.88
845.189	191.31
845.365	109.4
845.541	154.45
845.716	187.22
845.892	109.4
846.068	148.31
846.244	60.24
846.419	121.68
846.595	54.1
846.77	154.45
846.946	144.21
847.122	90.96
847.297	58.2
847.473	185.17
847.648	138.07
847.824	80.72
847.999	80.72
848.175	121.68
848.35	43.86
848.526	193.36
848.701	129.88
848.876	172.88
849.052	179.03
849.227	138.07
849.403	95.06
849.578	101.2
849.753	131.92
849.929	160.59
850.104	39.76
850.279	113.49
850.454	60.24
850.63	125.78
850.805	103.25
850.98	-7.34
851.155	117.59
851.33	82.77
851.505	78.68
851.681	133.97
851.856	45.91
852.031	138.07
852.206	117.59
852.381	103.25
852.556	109.4
852.731	113.49
852.906	113.49
853.081	103.25
853.256	123.73
853.431	97.11
853.606	80.72
853.781	39.76
853.956	13.14
854.131	45.91
854.305	-17.58
854.48	39.76
854.655	52.05
854.83	52.05
855.005	64.34
855.18	50
855.354	78.68
855.529	90.96
855.704	125.78
855.879	144.21
856.053	45.91
856.228	117.59
856.403	93.01
856.577	68.44
856.752	72.53
856.926	-1.19
857.101	88.92
857.276	68.44
857.45	138.07
857.625	78.68
857.799	60.24
857.974	123.73
858.148	21.33
858.323	97.11
858.497	-33.96
858.672	47.96
858.846	-3.24
859.02	64.34
859.195	39.76
859.369	17.24
859.543	54.1
859.718	119.64
859.892	88.92
860.066	64.34
860.241	74.58
860.415	31.57
860.589	29.52
860.763	-1.19
860.938	23.38
861.112	99.16
861.286	72.53
861.46	70.48
861.634	43.86
861.808	29.52
861.982	21.33
862.157	72.53
862.331	35.67
862.505	58.2
862.679	58.2
862.853	58.2
863.027	-11.43
863.201	105.3
863.375	74.58
863.549	21.33
863.722	60.24
863.896	97.11
864.07	80.72
864.244	64.34
864.418	47.96
864.592	56.15
864.766	11.09
864.939	56.15
865.113	33.62
865.287	60.24
865.461	86.87
865.634	45.91
865.808	-19.63
865.982	31.57
866.156	56.15
866.329	52.05
866.503	64.34
866.676	37.72
866.85	66.39
867.024	146.26
867.197	31.57
867.371	105.3
867.544	27.48
867.718	-115.88
867.891	88.92
868.065	62.29
868.238	17.24
868.412	97.11
868.585	64.34
868.759	97.11
868.932	88.92
869.105	-13.48
869.279	-5.29
869.452	31.57
869.625	54.1
869.799	39.76
869.972	47.96
870.145	31.57
870.319	74.58
870.492	97.11
870.665	56.15
870.838	31.57
871.011	-29.87
871.185	-50.35
871.358	23.38
871.531	66.39
871.704	29.52
871.877	62.29
872.05	62.29
872.223	43.86
872.396	80.72
872.569	23.38
872.742	-36.01
872.915	88.92
873.088	-11.43
873.261	-31.91
873.434	50
873.607	43.86
873.78	140.12
873.953	-44.2
874.126	50
874.299	7
874.471	-5.29
874.644	23.38
874.817	21.33
874.99	86.87
875.163	-29.87
875.335	52.05
875.508	15.19
875.681	154.45
875.853	31.57
876.026	-1.19
876.199	76.63
876.371	68.44
876.544	33.62
876.717	97.11
876.889	-17.58
877.062	95.06
877.234	33.62
877.407	-9.39
877.579	-9.39
877.752	54.1
877.924	86.87
878.097	109.4
878.269	-50.35
878.442	88.92
878.614	11.09
878.786	19.29
878.959	-1.19
879.131	54.1
879.303	-44.2
879.476	4.95
879.648	9.05
879.82	47.96
879.993	39.76
880.165	64.34
880.337	11.09
880.509	31.57
880.681	-9.39
880.854	-50.35
881.026	56.15
881.198	97.11
881.37	-1.19
881.542	-27.82
881.714	25.43
881.886	23.38
882.058	39.76
882.23	11.09
882.402	-3.24
882.574	56.15
882.746	99.16
882.918	88.92
883.09	-1.19
883.262	-40.11
883.434	-25.77
883.606	-48.3
883.778	43.86
883.95	80.72
884.122	29.52
884.293	62.29
884.465	78.68
884.637	127.83
884.809	25.43
884.98	62.29
885.152	80.72
885.324	68.44
885.496	25.43
885.667	54.1
885.839	-11.43
886.011	35.67
886.182	15.19
886.354	95.06
886.525	45.91
886.697	43.86
886.869	-50.35
887.04	78.68
887.212	7
887.383	88.92
887.555	-36.01
887.726	29.52
887.897	35.67
888.069	84.82
888.24	97.11
888.412	-3.24
888.583	21.33
888.754	56.15
888.926	-29.87
889.097	45.91
889.268	-9.39
889.44	19.29
889.611	-31.91
889.782	35.67
889.953	-33.96
890.125	95.06
890.296	-33.96
890.467	86.87
890.638	4.95
890.809	31.57
890.98	-9.39
891.151	29.52
891.323	29.52
891.494	-7.34
891.665	19.29
891.836	60.24
892.007	-9.39
892.178	64.34
892.349	13.14
892.52	-91.31
892.691	45.91
892.862	4.95
893.032	-40.11
893.203	56.15
893.374	-9.39
893.545	-3.24
893.716	72.53
893.887	72.53
894.057	23.38
894.228	-31.91
894.399	62.29
894.57	64.34
894.74	31.57
894.911	78.68
895.082	43.86
895.253	7
895.423	11.09
895.594	105.3
895.764	-66.73
895.935	-95.4
896.106	-5.29
896.276	19.29
896.447	19.29
896.617	21.33
896.788	-50.35
896.958	52.05
897.129	-1.19
897.299	13.14
897.47	-19.63
897.64	146.26
897.81	-62.63
897.981	-21.67
898.151	-25.77
898.322	37.72
898.492	76.63
898.662	-17.58
898.832	7
899.003	-25.77
899.173	15.19
899.343	-33.96
899.513	-95.4
