Data from USB4F104151__29__11-30-05-614.txt Node

Date: Fri Mar 14 11:30:05 EDT 2025
User: louis
Spectrometer: USB4F10415
Trigger mode: 4
Integration Time (sec): 5.000000E-2
Scans to average: 1
Electric dark correction enabled: true
Nonlinearity correction enabled: false
Boxcar width: 0
XAxis mode: Wavelengths
Number of Pixels in Spectrum: 3648
>>>>>Begin Spectral Data<<<<<
178.204	-202.92
178.424	-202.92
178.644	-202.92
178.864	-196.78
179.084	-104.62
179.304	-80.04
179.524	18.26
179.744	16.21
179.964	30.55
180.184	18.26
180.404	32.6
180.624	-2.22
180.844	-51.37
181.064	-34.99
181.283	-8.36
181.503	14.17
181.723	46.93
181.943	-6.31
182.163	34.64
182.383	-43.18
182.602	81.75
182.822	14.17
183.042	12.12
183.262	63.32
183.482	32.6
183.701	32.6
183.921	34.64
184.141	8.02
184.361	16.21
184.58	16.21
184.8	30.55
185.02	-30.89
185.239	40.79
185.459	87.89
185.679	79.7
185.898	-51.37
186.118	-16.55
186.338	26.45
186.557	-24.75
186.777	40.79
186.997	-39.08
187.216	67.41
187.436	137.04
187.655	89.94
187.875	57.17
188.095	-69.8
188.314	46.93
188.534	139.09
188.753	-22.7
188.973	40.79
189.192	18.26
189.412	3.93
189.631	-30.89
189.851	-24.75
190.07	28.5
190.29	26.45
190.509	10.07
190.729	59.22
190.948	18.26
191.168	208.72
191.387	91.99
191.607	40.79
191.826	20.31
192.045	20.31
192.265	10.07
192.484	65.36
192.704	-4.27
192.923	-0.17
193.142	120.66
193.362	87.89
193.581	75.6
193.8	124.76
194.02	55.12
194.239	-2.22
194.458	51.03
194.678	18.26
194.897	20.31
195.116	42.84
195.335	5.97
195.555	59.22
195.774	14.17
195.993	34.64
196.212	-14.51
196.432	16.21
196.651	38.74
196.87	24.4
197.089	79.7
197.308	59.22
197.528	30.55
197.747	-10.41
197.966	67.41
198.185	137.04
198.404	38.74
198.623	51.03
198.842	124.76
199.062	57.17
199.281	100.18
199.5	-39.08
199.719	42.84
199.938	-24.75
200.157	55.12
200.376	16.21
200.595	122.71
200.814	69.46
201.033	-20.65
201.252	85.84
201.471	34.64
201.69	75.6
201.909	24.4
202.128	51.03
202.347	116.56
202.566	-32.94
202.785	-39.08
203.004	-10.41
203.223	145.24
203.442	87.89
203.661	-26.79
203.879	12.12
204.098	75.6
204.317	-0.17
204.536	126.8
204.755	5.97
204.974	16.21
205.193	-0.17
205.411	71.51
205.63	67.41
205.849	42.84
206.068	73.56
206.287	-24.75
206.505	83.8
206.724	28.5
206.943	100.18
207.162	24.4
207.381	57.17
207.599	30.55
207.818	1.88
208.037	18.26
208.255	-16.55
208.474	30.55
208.693	65.36
208.911	20.31
209.13	100.18
209.349	51.03
209.567	57.17
209.786	51.03
210.005	61.27
210.223	3.93
210.442	22.36
210.661	12.12
210.879	42.84
211.098	75.6
211.316	24.4
211.535	3.93
211.753	24.4
211.972	30.55
212.191	8.02
212.409	-22.7
212.628	18.26
212.846	44.88
213.065	40.79
213.283	67.41
213.502	14.17
213.72	34.64
213.938	22.36
214.157	46.93
214.375	48.98
214.594	55.12
214.812	71.51
215.031	55.12
215.249	98.13
215.467	59.22
215.686	-49.32
215.904	48.98
216.122	53.08
216.341	75.6
216.559	46.93
216.778	26.45
216.996	102.23
217.214	53.08
217.432	40.79
217.651	3.93
217.869	-8.36
218.087	22.36
218.306	57.17
218.524	12.12
218.742	-30.89
218.96	20.31
219.179	91.99
219.397	-12.46
219.615	96.08
219.833	46.93
220.051	30.55
220.27	96.08
220.488	130.9
220.706	42.84
220.924	-8.36
221.142	24.4
221.36	14.17
221.578	63.32
221.796	116.56
222.015	102.23
222.233	1.88
222.451	57.17
222.669	51.03
222.887	55.12
223.105	16.21
223.323	48.98
223.541	14.17
223.759	42.84
223.977	34.64
224.195	98.13
224.413	46.93
224.631	53.08
224.849	81.75
225.067	110.42
225.285	51.03
225.503	40.79
225.721	-75.95
225.939	12.12
226.157	20.31
226.375	59.22
226.592	-22.7
226.81	24.4
227.028	100.18
227.246	18.26
227.464	59.22
227.682	55.12
227.9	24.4
228.117	16.21
228.335	-8.36
228.553	26.45
228.771	34.64
228.989	24.4
229.206	63.32
229.424	48.98
229.642	38.74
229.86	18.26
230.077	73.56
230.295	-8.36
230.513	106.32
230.731	55.12
230.948	108.37
231.166	81.75
231.384	34.64
231.601	-22.7
231.819	26.45
232.037	-51.37
232.254	-32.94
232.472	26.45
232.689	96.08
232.907	34.64
233.125	34.64
233.342	46.93
233.56	-28.84
233.777	18.26
233.995	-47.27
234.213	79.7
234.43	34.64
234.648	42.84
234.865	-24.75
235.083	59.22
235.3	59.22
235.518	22.36
235.735	98.13
235.953	96.08
236.17	53.08
236.388	38.74
236.605	20.31
236.822	141.14
237.04	73.56
237.257	75.6
237.475	-4.27
237.692	38.74
237.909	8.02
238.127	77.65
238.344	73.56
238.562	65.36
238.779	-2.22
238.996	14.17
239.214	73.56
239.431	65.36
239.648	-55.47
239.865	61.27
240.083	34.64
240.3	-86.19
240.517	-34.99
240.735	-6.31
240.952	51.03
241.169	51.03
241.386	-8.36
241.603	-14.51
241.821	-59.56
242.038	51.03
242.255	57.17
242.472	24.4
242.689	-12.46
242.907	28.5
243.124	104.28
243.341	32.6
243.558	42.84
243.775	26.45
243.992	26.45
244.209	100.18
244.426	20.31
244.643	18.26
244.86	38.74
245.078	130.9
245.295	59.22
245.512	-2.22
245.729	32.6
245.946	26.45
246.163	51.03
246.38	147.28
246.597	83.8
246.814	-73.9
247.031	-43.18
247.248	57.17
247.464	100.18
247.681	34.64
247.898	5.97
248.115	104.28
248.332	30.55
248.549	137.04
248.766	42.84
248.983	57.17
249.2	38.74
249.417	57.17
249.633	-2.22
249.85	30.55
250.067	57.17
250.284	59.22
250.501	98.13
250.717	61.27
250.934	38.74
251.151	51.03
251.368	75.6
251.585	128.85
251.801	32.6
252.018	69.46
252.235	32.6
252.451	-47.27
252.668	32.6
252.885	120.66
253.102	-22.7
253.318	26.45
253.535	-4.27
253.752	12.12
253.968	44.88
254.185	-75.95
254.401	28.5
254.618	116.56
254.835	-18.6
255.051	155.47
255.268	1.88
255.484	-71.85
255.701	46.93
255.917	79.7
256.134	-43.18
256.351	-24.75
256.567	-14.51
256.784	5.97
257	-12.46
257.217	32.6
257.433	42.84
257.65	-49.32
257.866	59.22
258.082	42.84
258.299	26.45
258.515	1.88
258.732	1.88
258.948	-39.08
259.165	34.64
259.381	-63.66
259.597	34.64
259.814	-51.37
260.03	16.21
260.246	-47.27
260.463	16.21
260.679	48.98
260.895	83.8
261.112	44.88
261.328	-57.51
261.544	46.93
261.761	59.22
261.977	40.79
262.193	24.4
262.409	116.56
262.626	59.22
262.842	46.93
263.058	22.36
263.274	71.51
263.49	79.7
263.707	16.21
263.923	32.6
264.139	-45.23
264.355	-4.27
264.571	83.8
264.787	87.89
265.004	87.89
265.22	20.31
265.436	65.36
265.652	48.98
265.868	-55.47
266.084	-6.31
266.3	57.17
266.516	-18.6
266.732	-22.7
266.948	-4.27
267.164	-41.13
267.38	65.36
267.596	18.26
267.812	104.28
268.028	75.6
268.244	63.32
268.46	42.84
268.676	-20.65
268.892	32.6
269.108	-37.03
269.324	-14.51
269.54	24.4
269.756	65.36
269.972	-28.84
270.188	55.12
270.403	44.88
270.619	44.88
270.835	30.55
271.051	24.4
271.267	14.17
271.483	-6.31
271.698	83.8
271.914	-41.13
272.13	48.98
272.346	30.55
272.562	46.93
272.777	48.98
272.993	102.23
273.209	-10.41
273.425	10.07
273.64	26.45
273.856	73.56
274.072	10.07
274.287	-10.41
274.503	14.17
274.719	59.22
274.934	3.93
275.15	-34.99
275.366	-14.51
275.581	-14.51
275.797	28.5
276.012	75.6
276.228	-14.51
276.444	87.89
276.659	42.84
276.875	22.36
277.09	5.97
277.306	10.07
277.521	79.7
277.737	10.07
277.952	18.26
278.168	81.75
278.383	75.6
278.599	46.93
278.814	48.98
279.03	24.4
279.245	26.45
279.461	65.36
279.676	63.32
279.892	-22.7
280.107	-8.36
280.322	-20.65
280.538	10.07
280.753	-32.94
280.969	-2.22
281.184	38.74
281.399	67.41
281.615	65.36
281.83	96.08
282.045	-53.42
282.26	63.32
282.476	67.41
282.691	8.02
282.906	18.26
283.122	10.07
283.337	34.64
283.552	24.4
283.767	-6.31
283.983	46.93
284.198	1.88
284.413	87.89
284.628	3.93
284.843	-12.46
285.058	124.76
285.274	-4.27
285.489	30.55
285.704	59.22
285.919	-6.31
286.134	-8.36
286.349	5.97
286.564	-26.79
286.779	104.28
286.995	-14.51
287.21	67.41
287.425	79.7
287.64	65.36
287.855	51.03
288.07	-47.27
288.285	149.33
288.5	75.6
288.715	61.27
288.93	20.31
289.145	26.45
289.36	24.4
289.575	42.84
289.79	116.56
290.004	42.84
290.219	83.8
290.434	-84.14
290.649	40.79
290.864	8.02
291.079	65.36
291.294	73.56
291.509	112.47
291.724	34.64
291.938	91.99
292.153	81.75
292.368	24.4
292.583	26.45
292.798	26.45
293.012	71.51
293.227	44.88
293.442	26.45
293.657	-20.65
293.871	128.85
294.086	59.22
294.301	34.64
294.516	98.13
294.73	-39.08
294.945	24.4
295.16	59.22
295.374	108.37
295.589	73.56
295.804	-22.7
296.018	51.03
296.233	51.03
296.447	8.02
296.662	-30.89
296.877	59.22
297.091	44.88
297.306	12.12
297.52	63.32
297.735	104.28
297.949	132.95
298.164	8.02
298.378	26.45
298.593	40.79
298.807	108.37
299.022	5.97
299.236	55.12
299.451	48.98
299.665	-24.75
299.88	-22.7
300.094	42.84
300.309	34.64
300.523	57.17
300.737	26.45
300.952	63.32
301.166	20.31
301.381	65.36
301.595	36.69
301.809	38.74
302.024	63.32
302.238	-12.46
302.452	63.32
302.667	30.55
302.881	81.75
303.095	51.03
303.309	10.07
303.524	91.99
303.738	57.17
303.952	18.26
304.166	42.84
304.381	-16.55
304.595	12.12
304.809	18.26
305.023	30.55
305.237	42.84
305.452	55.12
305.666	-14.51
305.88	83.8
306.094	18.26
306.308	-4.27
306.522	91.99
306.736	67.41
306.95	79.7
307.164	46.93
307.379	32.6
307.593	1.88
307.807	40.79
308.021	12.12
308.235	67.41
308.449	-24.75
308.663	-2.22
308.877	190.29
309.091	30.55
309.305	16.21
309.519	10.07
309.733	18.26
309.947	34.64
310.161	81.75
310.374	116.56
310.588	102.23
310.802	-8.36
311.016	1.88
311.23	40.79
311.444	-4.27
311.658	42.84
311.872	22.36
312.085	-10.41
312.299	73.56
312.513	59.22
312.727	38.74
312.941	10.07
313.154	83.8
313.368	-22.7
313.582	-2.22
313.796	36.69
314.009	22.36
314.223	63.32
314.437	-4.27
314.651	67.41
314.864	10.07
315.078	26.45
315.292	48.98
315.505	51.03
315.719	26.45
315.933	10.07
316.146	-8.36
316.36	10.07
316.573	130.9
316.787	44.88
317.001	69.46
317.214	38.74
317.428	51.03
317.641	46.93
317.855	-4.27
318.068	91.99
318.282	-6.31
318.495	120.66
318.709	14.17
318.922	-6.31
319.136	145.24
319.349	83.8
319.563	-0.17
319.776	-16.55
319.99	-6.31
320.203	122.71
320.417	59.22
320.63	116.56
320.843	-63.66
321.057	10.07
321.27	26.45
321.483	-2.22
321.697	89.94
321.91	73.56
322.124	40.79
322.337	5.97
322.55	30.55
322.763	18.26
322.977	57.17
323.19	-6.31
323.403	16.21
323.617	63.32
323.83	-0.17
324.043	32.6
324.256	89.94
324.469	38.74
324.683	22.36
324.896	18.26
325.109	71.51
325.322	26.45
325.535	61.27
325.748	-16.55
325.962	75.6
326.175	55.12
326.388	124.76
326.601	124.76
326.814	87.89
327.027	16.21
327.24	112.47
327.453	-39.08
327.666	151.38
327.879	22.36
328.092	30.55
328.305	112.47
328.518	51.03
328.731	36.69
328.944	-20.65
329.157	89.94
329.37	-47.27
329.583	108.37
329.796	-14.51
330.009	14.17
330.222	38.74
330.435	106.32
330.648	3.93
330.861	42.84
331.073	44.88
331.286	32.6
331.499	108.37
331.712	32.6
331.925	8.02
332.138	67.41
332.35	53.08
332.563	26.45
332.776	126.8
332.989	30.55
333.202	3.93
333.414	18.26
333.627	59.22
333.84	30.55
334.053	59.22
334.265	-51.37
334.478	42.84
334.691	24.4
334.903	10.07
335.116	-14.51
335.329	57.17
335.541	42.84
335.754	51.03
335.966	55.12
336.179	59.22
336.392	34.64
336.604	135
336.817	8.02
337.029	38.74
337.242	-51.37
337.454	83.8
337.667	-30.89
337.88	57.17
338.092	67.41
338.305	91.99
338.517	14.17
338.729	-16.55
338.942	63.32
339.154	63.32
339.367	46.93
339.579	116.56
339.792	-80.04
340.004	42.84
340.217	-12.46
340.429	67.41
340.641	67.41
340.854	3.93
341.066	-22.7
341.278	1.88
341.491	83.8
341.703	57.17
341.915	-75.95
342.128	73.56
342.34	-0.17
342.552	-82.09
342.764	63.32
342.977	-2.22
343.189	79.7
343.401	83.8
343.613	1.88
343.826	48.98
344.038	83.8
344.25	40.79
344.462	42.84
344.674	10.07
344.886	-4.27
345.099	-8.36
345.311	149.33
345.523	69.46
345.735	-14.51
345.947	79.7
346.159	63.32
346.371	14.17
346.583	57.17
346.795	135
347.007	-0.17
347.219	91.99
347.431	28.5
347.643	71.51
347.855	-45.23
348.067	79.7
348.279	-6.31
348.491	71.51
348.703	38.74
348.915	-14.51
349.127	32.6
349.339	71.51
349.551	81.75
349.763	75.6
349.975	34.64
350.187	42.84
350.399	63.32
350.61	42.84
350.822	71.51
351.034	149.33
351.246	-34.99
351.458	12.12
351.669	8.02
351.881	24.4
352.093	51.03
352.305	30.55
352.517	89.94
352.728	98.13
352.94	59.22
353.152	63.32
353.363	-16.55
353.575	46.93
353.787	42.84
353.999	91.99
354.21	116.56
354.422	14.17
354.633	16.21
354.845	34.64
355.057	106.32
355.268	38.74
355.48	87.89
355.692	48.98
355.903	-2.22
356.115	118.61
356.326	-75.95
356.538	59.22
356.749	10.07
356.961	94.04
357.172	55.12
357.384	1.88
357.595	46.93
357.807	75.6
358.018	1.88
358.23	26.45
358.441	59.22
358.653	48.98
358.864	53.08
359.075	-24.75
359.287	-22.7
359.498	69.46
359.709	75.6
359.921	24.4
360.132	34.64
360.344	53.08
360.555	67.41
360.766	46.93
360.977	-16.55
361.189	85.84
361.4	-39.08
361.611	12.12
361.823	155.47
362.034	85.84
362.245	-22.7
362.456	89.94
362.667	73.56
362.879	98.13
363.09	20.31
363.301	57.17
363.512	63.32
363.723	71.51
363.935	67.41
364.146	14.17
364.357	16.21
364.568	63.32
364.779	-47.27
364.99	83.8
365.201	10.07
365.412	79.7
365.623	-12.46
365.834	-2.22
366.045	81.75
366.256	98.13
366.467	91.99
366.678	67.41
366.889	106.32
367.1	10.07
367.311	28.5
367.522	18.26
367.733	38.74
367.944	81.75
368.155	-14.51
368.366	71.51
368.577	120.66
368.788	87.89
368.999	16.21
369.209	-10.41
369.42	57.17
369.631	71.51
369.842	51.03
370.053	-18.6
370.264	61.27
370.474	51.03
370.685	51.03
370.896	-8.36
371.107	192.34
371.317	48.98
371.528	85.84
371.739	153.43
371.95	-30.89
372.16	44.88
372.371	-2.22
372.582	63.32
372.792	79.7
373.003	26.45
373.214	44.88
373.424	51.03
373.635	91.99
373.846	63.32
374.056	75.6
374.267	98.13
374.477	42.84
374.688	-55.47
374.898	-32.94
375.109	81.75
375.319	65.36
375.53	89.94
375.74	14.17
375.951	5.97
376.161	40.79
376.372	67.41
376.582	-22.7
376.793	106.32
377.003	87.89
377.214	59.22
377.424	116.56
377.635	10.07
377.845	26.45
378.055	87.89
378.266	-16.55
378.476	-22.7
378.686	10.07
378.897	51.03
379.107	36.69
379.317	63.32
379.528	116.56
379.738	36.69
379.948	-0.17
380.158	26.45
380.369	32.6
380.579	87.89
380.789	18.26
380.999	73.56
381.21	67.41
381.42	75.6
381.63	89.94
381.84	59.22
382.05	10.07
382.261	63.32
382.471	10.07
382.681	67.41
382.891	114.52
383.101	63.32
383.311	91.99
383.521	75.6
383.731	69.46
383.941	87.89
384.151	55.12
384.361	128.85
384.571	71.51
384.781	18.26
384.991	87.89
385.201	141.14
385.411	1.88
385.621	157.52
385.831	67.41
386.041	120.66
386.251	67.41
386.461	42.84
386.671	51.03
386.881	87.89
387.091	8.02
387.301	83.8
387.511	75.6
387.72	24.4
387.93	59.22
388.14	-20.65
388.35	120.66
388.56	100.18
388.769	55.12
388.979	51.03
389.189	40.79
389.399	75.6
389.609	91.99
389.818	94.04
390.028	94.04
390.238	114.52
390.447	98.13
390.657	77.65
390.867	67.41
391.076	-14.51
391.286	57.17
391.496	89.94
391.705	59.22
391.915	65.36
392.125	112.47
392.334	55.12
392.544	104.28
392.753	61.27
392.963	3.93
393.172	94.04
393.382	96.08
393.591	89.94
393.801	42.84
394.01	91.99
394.22	85.84
394.429	8.02
394.639	59.22
394.848	34.64
395.058	145.24
395.267	51.03
395.477	34.64
395.686	18.26
395.895	153.43
396.105	118.61
396.314	94.04
396.524	122.71
396.733	87.89
396.942	108.37
397.152	110.42
397.361	190.29
397.57	42.84
397.78	81.75
397.989	51.03
398.198	165.71
398.407	100.18
398.617	120.66
398.826	106.32
399.035	42.84
399.244	112.47
399.453	91.99
399.663	40.79
399.872	155.47
400.081	91.99
400.29	149.33
400.499	145.24
400.708	108.37
400.917	114.52
401.127	55.12
401.336	48.98
401.545	122.71
401.754	81.75
401.963	73.56
402.172	132.95
402.381	96.08
402.59	153.43
402.799	157.52
403.008	81.75
403.217	81.75
403.426	139.09
403.635	59.22
403.844	26.45
404.053	100.18
404.262	73.56
404.471	126.8
404.68	137.04
404.888	116.56
405.097	102.23
405.306	141.14
405.515	108.37
405.724	218.96
405.933	182.1
406.142	149.33
406.35	200.53
406.559	139.09
406.768	128.85
406.977	128.85
407.185	278.35
407.394	139.09
407.603	132.95
407.812	206.67
408.02	288.59
408.229	221.01
408.438	167.76
408.646	91.99
408.855	186.19
409.064	272.21
409.272	278.35
409.481	313.17
409.69	204.63
409.898	251.73
410.107	178
410.315	280.4
410.524	290.64
410.733	292.69
410.941	296.78
411.15	382.8
411.358	374.61
411.567	304.98
411.775	354.13
411.984	364.37
412.192	448.33
412.401	403.28
412.609	362.32
412.818	489.29
413.026	485.2
413.234	470.86
413.443	466.77
413.651	462.67
413.86	427.85
414.068	534.35
414.276	530.25
414.485	460.62
414.693	542.54
414.901	640.84
415.11	554.83
415.318	538.45
415.526	581.45
415.734	612.17
415.943	558.92
416.151	673.61
416.359	657.23
416.567	825.16
416.776	778.06
416.984	847.69
417.192	788.3
417.4	829.26
417.608	837.45
417.817	866.12
418.025	939.85
418.233	993.09
418.441	878.41
418.649	1052.49
418.857	1066.82
419.065	1050.44
419.273	931.66
419.481	1126.21
419.689	1122.12
419.897	1142.6
420.105	1222.47
420.313	1384.26
420.521	1367.87
420.729	1343.3
420.937	1394.5
421.145	1509.18
421.353	1578.81
421.561	1582.91
421.769	1607.48
421.977	1705.79
422.185	1693.5
422.393	1855.29
422.601	1826.62
422.809	1916.73
423.017	1785.66
423.224	2041.65
423.432	2021.17
423.64	2094.9
423.848	2250.55
424.056	2230.07
424.263	2377.52
424.471	2371.38
424.679	2524.97
424.887	2637.61
425.094	2512.69
425.302	2709.29
425.51	2760.49
425.718	2762.54
425.925	2834.22
426.133	2942.76
426.341	3155.75
426.548	3270.44
426.756	3272.48
426.964	3262.24
427.171	3350.31
427.379	3569.44
427.586	3716.89
427.794	3845.91
428.001	4040.47
428.209	4149.01
428.417	4028.18
428.624	4228.88
428.832	4175.64
429.039	4144.92
429.247	4171.54
429.454	4626.19
429.662	4949.77
429.869	4679.44
430.076	4955.91
430.284	4892.43
430.491	5021.45
430.699	5424.9
430.906	5431.04
431.114	5431.04
431.321	5785.34
431.528	5805.82
431.736	6094.58
431.943	6315.76
432.15	6293.24
432.358	6338.29
432.565	6684.4
432.772	6573.81
432.979	6987.5
433.187	7141.1
433.394	7016.17
433.601	7591.65
433.808	7659.23
434.016	7456.48
434.223	7800.54
434.43	8365.78
434.637	8128.22
434.844	8836.81
435.052	8849.1
435.259	8924.88
435.466	8902.35
435.673	8736.46
435.88	9305.8
436.087	9797.31
436.294	9772.74
436.501	9612.99
436.708	9914.05
436.915	10127.03
437.122	10716.85
437.329	10593.97
437.537	10929.84
437.743	11179.69
437.95	10786.48
438.157	11546.28
438.364	11880.1
438.571	12093.08
438.778	11974.3
438.985	13155.98
439.192	12549.78
439.399	13006.48
439.606	12691.09
439.813	13448.84
440.02	14173.82
440.227	13942.4
440.433	13835.91
440.64	14546.55
440.847	14327.42
441.054	14954.1
441.261	15529.58
441.467	15484.52
441.674	15648.36
441.881	16166.49
442.088	16111.2
442.294	15998.56
442.501	16709.21
442.708	16719.45
442.914	17509.96
443.121	18099.78
443.328	17835.59
443.534	19023.41
443.741	18554.43
443.948	18171.46
444.154	19895.85
444.361	19428.91
444.568	19672.62
444.774	19492.4
444.981	19813.93
445.187	20538.91
445.394	21319.18
445.6	20801.05
445.807	22902.26
446.013	22119.94
446.22	22418.94
446.426	23352.82
446.633	23408.11
446.839	24372.71
447.046	23117.3
447.252	24684
447.459	24557.02
447.665	24663.52
447.871	25224.66
448.078	26639.81
448.284	25331.15
448.491	26150.34
448.697	27352.5
448.903	27600.3
449.11	27405.75
449.316	27026.87
449.522	27657.65
449.728	28415.4
449.935	28652.96
450.141	28423.59
450.347	29285.78
450.553	28700.06
450.76	28546.47
450.966	29822.35
451.172	29207.96
451.378	29724.05
451.584	29261.21
451.791	30006.67
451.997	29734.29
452.203	30135.69
452.409	30248.33
452.615	29992.33
452.821	29388.18
453.027	28691.87
453.233	30340.49
453.44	29031.83
453.646	29250.97
453.852	29459.86
454.058	30207.37
454.264	28743.07
454.47	29683.09
454.676	28827.04
454.882	29568.4
455.088	27139.51
455.294	27995.56
455.5	28151.21
455.705	28327.33
455.911	27139.51
456.117	26170.82
456.323	26066.38
456.529	24753.63
456.735	25863.63
456.941	25505.23
457.147	24716.76
457.352	24135.14
457.558	23807.47
457.764	23926.25
457.97	23535.09
458.176	22699.51
458.381	22943.22
458.587	21655.05
458.793	21581.32
458.999	20368.93
459.204	21947.91
459.41	21202.45
459.616	19805.74
459.821	20063.78
460.027	19703.34
460.233	19252.78
460.438	18411.07
460.644	18624.06
460.85	17612.36
461.055	17454.67
461.261	17004.11
461.466	16500.31
461.672	15689.32
461.878	16762.45
462.083	15740.52
462.289	15480.43
462.494	15519.34
462.7	14536.31
462.905	14079.61
463.111	14906.99
463.316	14782.07
463.522	14308.99
463.727	14419.58
463.932	14528.12
464.138	14059.13
464.343	14018.18
464.549	13772.42
464.754	14249.6
464.959	14179.96
465.165	13897.35
465.37	13639.3
465.575	13285
465.781	13692.55
465.986	13639.3
466.191	13207.18
466.397	13057.68
466.602	12517.01
466.807	12918.42
467.012	12873.36
467.218	12850.83
467.423	12363.42
467.628	12738.19
467.833	13219.47
468.038	12687
468.244	12347.03
468.449	12918.42
468.654	12435.1
468.859	12304.03
469.064	12150.43
469.269	11953.82
469.474	11974.3
469.679	11896.48
469.885	11687.59
470.09	12035.74
470.295	11714.21
470.5	11353.77
470.705	11656.87
470.91	11493.03
471.115	11284.14
471.32	11427.49
471.525	11331.24
471.73	11083.44
471.935	11093.68
472.139	10821.3
472.344	10804.91
472.549	10444.47
472.754	10671.79
472.959	10335.93
473.164	10116.79
473.369	10145.47
473.574	10309.3
473.778	10100.41
473.983	10024.64
474.188	10254.01
474.393	9733.82
474.598	9594.56
474.802	9758.4
475.007	9459.4
475.212	9610.95
475.417	9074.38
475.621	9311.94
475.826	9291.46
476.031	8984.27
476.235	8879.82
476.44	8898.25
476.645	8838.86
476.849	8804.05
477.054	8789.71
477.259	8500.95
477.463	8470.23
477.668	8253.14
477.872	8580.82
478.077	8152.79
478.282	8009.44
478.486	8142.55
478.691	8009.44
478.895	8152.79
479.1	7970.52
479.304	7993.05
479.509	7694.05
479.713	7808.73
479.918	7796.45
480.122	7438.05
480.326	7608.03
480.531	7835.36
480.735	7483.11
480.94	7554.79
481.144	7935.71
481.348	7436
481.553	7532.26
481.757	7341.8
481.961	7472.87
482.166	7552.74
482.37	7417.57
482.574	7313.13
482.778	7302.89
482.983	7503.59
483.187	7472.87
483.391	7438.05
483.595	7323.37
483.8	7319.27
484.004	7427.81
484.208	7380.71
484.412	7378.66
484.616	7333.61
484.821	7405.28
485.025	7393
485.229	7323.37
485.433	7468.77
485.637	7382.76
485.841	7407.33
486.045	7325.41
486.249	7372.52
486.453	7349.99
486.657	7345.89
486.861	7452.39
487.065	7292.65
487.269	7192.3
487.473	7231.21
487.677	7374.56
487.881	7608.03
488.085	7337.7
488.289	7339.75
488.493	7325.41
488.697	7491.3
488.901	7352.04
489.105	7266.02
489.309	7462.63
489.512	7436
489.716	7479.01
489.92	7440.1
490.124	7425.76
490.328	7499.49
490.531	7325.41
490.735	7425.76
490.939	7452.39
491.143	7454.44
491.346	7562.98
491.55	7681.76
491.754	7739.1
491.958	7771.87
492.161	7653.09
492.365	7831.26
492.569	7589.6
492.772	7835.36
492.976	7812.83
493.18	7878.37
493.383	8064.73
493.587	7974.62
493.79	8048.35
493.994	8040.15
494.197	8015.58
494.401	8011.48
494.605	8066.78
494.808	8103.64
495.012	8253.14
495.215	8382.17
495.419	8449.75
495.622	8324.82
495.825	8337.11
496.029	8589.01
496.232	8533.72
496.436	8654.55
496.639	8898.25
496.843	8750.8
497.046	8978.12
497.249	9037.52
497.453	9129.67
497.656	9211.59
497.859	9342.66
498.063	9342.66
498.266	9635.52
498.469	9377.48
498.673	9557.7
498.876	9891.52
499.079	9885.37
499.282	9809.6
499.485	10231.48
499.689	10157.75
499.892	10372.79
500.095	10352.31
500.298	10647.22
500.501	10481.33
500.705	10829.49
500.908	10772.14
501.111	11040.43
501.314	10993.33
501.517	11202.22
501.72	11230.89
501.923	11368.1
502.126	11433.64
502.329	11726.5
502.532	11787.94
502.735	11789.99
502.938	11949.73
503.141	11906.72
503.344	12420.76
503.547	12449.43
503.75	12660.37
503.953	12691.09
504.156	12705.43
504.359	12981.9
504.562	12998.29
504.765	13141.64
504.968	13409.93
505.17	13391.5
505.373	13559.43
505.576	13872.77
505.779	13899.39
505.982	13958.78
506.185	14167.68
506.387	14212.73
506.59	14407.29
506.793	14757.49
506.996	14560.89
507.198	15191.66
507.401	14851.7
507.604	15257.2
507.807	15298.16
508.009	15400.55
508.212	15539.82
508.415	15959.65
508.617	15818.34
508.82	15896.16
509.022	16041.57
509.225	16571.99
509.428	16535.13
509.63	16662.1
509.833	16666.2
510.035	17245.77
510.238	17024.59
510.44	17403.47
510.643	17636.94
510.845	17475.15
511.048	17849.92
511.25	18093.63
511.453	18118.21
511.655	18935.35
511.858	18382.4
512.06	18572.86
512.262	18812.47
512.465	19068.47
512.667	19228.21
512.87	19383.85
513.072	19437.1
513.274	19904.04
513.477	20203.04
513.679	20287.01
513.881	20211.23
514.084	20401.69
514.286	20489.76
514.488	20645.4
514.69	21083.67
514.893	21243.41
515.095	21435.92
515.297	21575.18
515.499	21599.76
515.701	21767.69
515.904	22316.54
516.106	22218.24
516.308	22375.94
516.51	22672.89
516.712	22871.54
516.914	23012.85
517.116	23397.87
517.318	23395.82
517.52	23565.81
517.722	23698.92
517.925	24051.17
518.127	24169.96
518.329	24395.23
518.531	24239.59
518.733	24739.29
518.935	24831.45
519.136	24851.93
519.338	25652.69
519.54	25511.38
519.742	25869.77
519.944	26017.22
520.146	26140.1
520.348	26471.87
520.55	26627.52
520.752	26426.82
520.954	27176.37
521.155	27217.33
521.357	27450.8
521.559	27854.25
521.761	27975.08
521.963	28204.45
522.164	27993.51
522.366	28517.79
522.568	28908.96
522.77	29083.03
522.971	29455.76
523.173	28915.1
523.375	29488.53
523.576	29347.22
523.778	29783.44
523.98	30068.11
524.181	30313.86
524.383	30324.1
524.584	30903.68
524.786	30768.51
524.988	30524.8
525.189	30707.07
525.391	31411.57
525.592	31239.54
525.794	31784.3
525.995	31485.3
526.197	31688.05
526.398	32269.67
526.6	32372.07
526.801	32429.41
527.003	32572.77
527.204	32503.14
527.406	32863.58
527.607	32705.89
527.808	33006.94
528.01	32865.63
528.211	33123.68
528.412	33846.61
528.614	33711.44
528.815	33652.05
529.016	34041.17
529.218	33856.85
529.419	34106.7
529.62	34065.74
529.822	34008.4
530.023	34110.8
530.224	34168.14
530.425	34340.17
530.626	34377.03
530.828	34405.7
531.029	34981.18
531.23	34637.12
531.431	34669.89
531.632	34856.26
531.833	35218.75
532.035	35097.92
532.236	35204.41
532.437	35329.34
532.638	35474.74
532.839	35552.57
533.04	35562.81
533.241	34852.16
533.442	35710.26
533.643	35691.83
533.844	35769.65
534.045	35646.77
534.246	35319.1
534.447	36195.63
534.648	35865.91
534.849	36015.41
535.05	35697.97
535.251	36060.46
535.451	35511.61
535.652	35886.39
535.853	36097.33
536.054	35880.24
536.255	36447.53
536.456	35730.74
536.657	36498.73
536.857	35884.34
537.058	35974.45
537.259	36375.85
537.46	36148.53
537.66	35732.79
537.861	36398.38
538.062	36115.76
538.263	36033.84
538.463	35802.42
538.664	35908.91
538.865	35947.82
539.065	36240.68
539.266	36009.26
539.466	36136.24
539.667	36003.12
539.868	36316.46
540.068	36148.53
540.269	35802.42
540.469	36013.36
540.67	35884.34
540.87	36252.97
541.071	35982.64
541.271	35966.26
541.472	35859.76
541.672	36371.75
541.873	35790.13
542.073	35779.89
542.274	36255.02
542.474	36027.7
542.675	36005.17
542.875	36156.72
543.075	36097.33
543.276	35732.79
543.476	36504.87
543.676	35829.04
543.877	36310.32
544.077	36162.86
544.277	35814.71
544.478	36005.17
544.678	36203.82
544.878	36011.31
545.078	35929.39
545.279	35753.27
545.479	35700.02
545.679	36121.9
545.879	36199.72
546.079	36222.25
546.28	35923.25
546.48	35796.28
546.68	35906.87
546.88	36072.75
547.08	35978.54
547.28	36132.14
547.48	36132.14
547.68	35925.3
547.88	35829.04
548.081	36351.27
548.281	35882.29
548.481	35591.48
548.681	35976.5
548.881	35861.81
549.081	36298.03
549.28	35630.39
549.48	36101.42
549.68	35925.3
549.88	36404.52
550.08	35626.29
550.28	36105.52
550.48	35857.71
550.68	36252.97
550.88	35870
551.08	35523.9
551.279	35976.5
551.479	35736.88
551.679	35614.01
551.879	35880.24
552.079	35757.36
552.278	35505.46
552.478	35546.42
552.678	35679.54
552.878	35814.71
553.077	35487.03
553.277	35077.44
553.477	35947.82
553.676	35583.29
553.876	35460.41
554.076	35349.82
554.275	35474.74
554.475	35009.86
554.674	35065.15
554.874	35310.91
555.074	35149.12
555.273	35487.03
555.473	35591.48
555.672	35038.53
555.872	35030.33
556.071	35108.16
556.271	35384.63
556.47	34848.07
556.67	34723.14
556.869	34989.38
557.068	34938.18
557.268	34383.18
557.467	34524.49
557.667	34739.52
557.866	34776.39
558.065	34489.67
558.265	34544.97
558.464	34014.54
558.663	34839.87
558.863	34032.97
559.062	34680.13
559.261	34084.17
559.461	34198.86
559.66	33711.44
559.859	34114.89
560.058	34012.49
560.258	33906
560.457	33676.63
560.656	34170.19
560.855	33680.72
561.054	33731.92
561.253	33459.54
561.453	33316.18
561.652	33330.52
561.851	33881.42
562.05	33107.29
562.249	32769.38
562.448	33398.1
562.647	32853.34
562.846	33103.2
563.045	33000.8
563.244	32798.05
563.443	32951.65
563.642	32324.97
563.841	32675.17
564.04	32181.61
564.239	32789.86
564.438	32259.43
564.637	32327.02
564.836	32171.37
565.035	31704.43
565.234	31939.95
565.432	31661.43
565.631	31884.65
565.83	31622.51
566.029	31659.38
566.228	31055.23
566.427	31399.29
566.625	31014.27
566.824	30825.85
567.023	30969.21
567.222	30793.09
567.42	30860.67
567.619	30758.27
567.818	30616.96
568.016	30268.81
568.215	30645.63
568.414	30258.57
568.612	30428.55
568.811	30274.95
569.01	30143.88
569.208	29609.36
569.407	30156.17
569.605	29691.28
569.804	29762.96
570.002	29676.94
570.201	29791.63
570.4	29449.62
570.598	29238.68
570.797	29248.92
570.995	29257.11
571.193	28986.78
571.392	29363.61
571.59	29101.47
571.789	28704.16
571.987	28636.58
572.186	28634.53
572.384	28259.75
572.582	28722.59
572.781	28841.37
572.979	27876.78
573.177	27917.74
573.376	28007.85
573.574	28011.95
573.772	28091.82
573.971	27426.23
574.169	27534.77
574.367	27360.69
574.565	27375.03
574.763	27594.16
574.962	27342.26
575.16	27233.72
575.358	27317.68
575.556	26561.98
575.754	27205.05
575.952	26768.83
576.151	27454.9
576.349	26666.43
576.547	26527.17
576.745	26920.38
576.943	26977.72
577.141	26648
577.339	26561.98
577.537	26623.42
577.735	26099.14
577.933	26049.99
578.131	26308.04
578.329	26047.94
578.527	26043.85
578.725	25939.4
578.923	25974.22
579.121	25828.81
579.319	25750.99
579.516	25509.33
579.714	25558.48
579.912	25533.9
580.11	25521.62
580.308	25179.61
580.506	25163.22
580.704	24915.42
580.901	25239
581.099	25341.39
581.297	24868.31
581.495	24876.51
581.692	24851.93
581.89	24329.7
582.088	25077.21
582.285	24341.99
582.483	24692.19
582.681	24456.67
582.878	24282.59
583.076	23999.98
583.274	24348.13
583.471	24229.35
583.669	24172
583.866	23655.92
584.064	24337.89
584.262	24008.17
584.459	24151.52
584.657	23629.29
584.854	23614.96
585.052	23330.29
585.249	23764.46
585.447	23244.27
585.644	23148.02
585.841	23160.31
586.039	23588.33
586.236	23019
586.434	23023.09
586.631	22984.18
586.828	22836.73
587.026	22939.13
587.223	22943.22
587.42	22691.32
587.618	22595.07
587.815	22656.51
588.012	22287.87
588.21	22365.7
588.407	22246.91
588.604	22361.6
588.801	22547.97
588.999	22550.01
589.196	22197.76
589.393	22287.87
589.59	22093.32
589.787	22124.04
589.984	22089.22
590.182	21765.64
590.379	21747.21
590.576	21480.97
590.773	21552.65
590.97	21507.6
591.167	21394.96
591.364	21259.79
591.561	21421.58
591.758	21503.5
591.955	21321.23
592.152	21141.01
592.349	21251.6
592.546	20987.41
592.743	21083.67
592.94	20932.12
593.137	20909.59
593.334	20940.31
593.531	20934.17
593.727	20973.08
593.924	20454.94
594.121	20565.53
594.318	20432.41
594.515	20506.14
594.712	20452.89
594.908	20352.54
595.105	20440.61
595.302	20043.3
595.499	20311.58
595.696	20145.7
595.892	19566.12
596.089	20008.48
596.286	19924.52
596.482	19746.34
596.679	19572.27
596.876	19746.34
597.072	19574.31
597.269	19740.2
597.466	19551.79
597.662	19404.33
597.859	19523.12
598.055	19299.89
598.252	19615.27
598.448	19240.5
598.645	19211.82
598.841	18986.55
599.038	18888.25
599.234	19119.67
599.431	18769.46
599.627	19007.03
599.824	18927.16
600.02	18699.83
600.217	18802.23
600.413	18738.74
600.609	18734.65
600.806	18415.16
601.002	18546.23
601.198	18376.25
601.395	18546.23
601.591	18251.33
601.787	18519.61
601.984	18222.66
602.18	18538.04
602.376	18193.98
602.572	18083.39
602.769	17970.76
602.965	17636.94
603.161	17948.23
603.357	17423.95
603.553	17665.61
603.75	17669.7
603.946	17585.74
604.142	17552.97
604.338	17495.63
604.534	17550.92
604.73	17391.18
604.926	17432.14
605.122	17552.97
605.318	17204.81
605.514	16983.63
605.71	17315.41
605.906	17139.28
606.102	17270.35
606.298	17065.55
606.494	17186.38
606.69	17104.46
606.886	17108.56
607.082	16725.59
607.278	17043.03
607.474	16330.33
607.67	16871
607.866	16506.46
608.062	16768.6
608.257	16574.04
608.453	16619.1
608.649	16578.14
608.845	16393.82
609.041	16197.21
609.236	16406.11
609.432	16348.76
609.628	16215.65
609.824	16152.16
610.019	16125.54
610.215	16199.26
610.411	16299.61
610.606	15978.08
610.802	15941.22
610.998	16016.99
611.193	16166.49
611.389	16062.05
611.584	15951.46
611.78	15873.64
611.976	15933.03
612.171	15799.91
612.367	15949.41
612.562	15705.7
612.758	15668.84
612.953	15586.92
613.149	15527.53
613.344	15343.21
613.539	15816.29
613.735	15361.64
613.93	15539.82
614.126	15187.57
614.321	15328.88
614.517	15275.63
614.712	15523.43
614.907	15406.7
615.103	15206
615.298	15349.36
615.493	15363.69
615.688	15361.64
615.884	15400.55
616.079	15087.22
616.274	15263.34
616.47	14917.23
616.665	15187.57
616.86	15089.26
617.055	15087.22
617.25	14984.82
617.445	14902.9
617.641	14687.86
617.836	14974.58
618.031	14423.67
618.226	14831.22
618.421	14976.62
618.616	14874.23
618.811	14724.72
619.006	14808.69
619.201	14454.39
619.396	14612.09
619.591	14278.27
619.786	14343.8
619.981	14319.23
620.176	14319.23
620.371	14069.37
620.566	14304.89
620.761	14003.84
620.956	14237.31
621.151	13883.01
621.346	14065.28
621.541	13833.86
621.735	13883.01
621.93	13616.77
622.125	13627.01
622.32	13541
622.515	13612.68
622.709	13381.26
622.904	13491.85
623.099	13196.94
623.294	13203.08
623.488	13065.87
623.683	12973.71
623.878	12895.89
624.072	12879.5
624.267	12738.19
624.462	12799.63
624.656	12631.7
624.851	12986
625.046	12715.67
625.24	12502.68
625.435	12609.17
625.629	12387.99
625.824	12314.27
626.018	12291.74
626.213	12009.12
626.407	11916.96
626.602	12129.95
626.796	12168.86
626.991	12062.37
627.185	11859.62
627.38	11779.75
627.574	11843.23
627.768	11677.35
627.963	11656.87
628.157	11388.58
628.352	11665.06
628.546	11171.5
628.74	11398.82
628.935	11372.2
629.129	11419.3
629.323	11005.61
629.517	11148.97
629.712	10888.88
629.906	10983.09
630.1	10733.23
630.294	11062.96
630.489	10761.91
630.683	10862.26
630.877	10688.18
631.071	10608.31
631.265	10669.75
631.459	10600.12
631.653	10833.58
631.848	10610.36
632.042	10501.81
632.236	10301.11
632.43	10487.48
632.624	10460.85
632.818	10340.02
633.012	10188.47
633.206	10014.4
633.4	10118.84
633.594	9862.85
633.788	9897.66
633.982	9815.74
634.176	9821.89
634.369	9672.39
634.563	9862.85
634.757	9547.46
634.951	9510.6
635.145	9567.94
635.339	9477.83
635.533	9514.69
635.726	9668.29
635.92	9406.15
636.114	9416.39
636.308	9025.23
636.501	9357
636.695	9313.99
636.889	9156.3
637.083	9014.99
637.276	8986.32
637.47	8890.06
637.664	9047.76
637.857	8857.29
638.051	8869.58
638.244	8845.01
638.438	8908.49
638.632	8789.71
638.825	8640.21
639.019	8654.55
639.212	8666.83
639.406	8406.74
639.599	8652.5
639.793	8541.91
639.986	8292.05
640.18	8474.32
640.373	8429.27
640.567	8253.14
640.76	8437.46
640.954	8183.51
641.147	8181.46
641.34	8185.56
641.534	8124.12
641.727	8109.79
641.92	8093.4
642.114	7919.32
642.307	8031.96
642.5	8023.77
642.694	7694.05
642.887	7735.01
643.08	8005.34
643.273	7661.28
643.467	7638.75
643.66	7616.23
643.853	7538.4
644.046	7433.96
644.239	7513.83
644.432	7464.68
644.626	7505.63
644.819	7419.62
645.012	7511.78
645.205	7255.78
645.398	7399.14
645.591	7212.78
645.784	7245.54
645.977	7126.76
646.17	7292.65
646.363	7059.18
646.556	7005.93
646.749	6944.49
646.942	7106.28
647.135	6895.34
647.328	6956.78
647.521	6844.14
647.714	6862.57
647.907	6711.02
648.099	6862.57
648.292	6786.8
648.485	6698.74
648.678	6637.3
648.871	6620.91
649.064	6608.62
649.256	6684.4
649.449	6432.5
649.642	6538.99
649.835	6399.73
650.027	6356.72
650.22	6627.06
650.413	6330.1
650.605	6342.39
650.798	6448.88
650.991	6186.74
651.183	6436.6
651.376	6364.92
651.568	6340.34
651.761	6256.37
651.954	6127.35
652.146	6201.08
652.339	6070.01
652.531	6194.93
652.724	6012.67
652.916	5897.98
653.109	6067.96
653.301	5914.36
653.494	6014.71
653.686	6051.58
653.879	5891.84
654.071	5938.94
654.263	5699.33
654.456	5758.72
654.648	5801.72
654.84	5592.83
655.033	5826.3
655.225	5789.44
655.417	5715.71
655.61	5744.38
655.802	5676.8
655.994	5736.19
656.186	5596.93
656.379	5406.47
656.571	5572.35
656.763	5654.27
656.955	5449.47
657.148	5404.42
657.34	5269.25
657.532	5527.3
657.724	5291.78
657.916	5422.85
658.108	5447.43
658.3	5355.27
658.492	5248.77
658.684	5170.95
658.876	5338.88
659.068	5230.34
659.26	5232.39
659.452	5207.81
659.644	5291.78
659.836	5129.99
660.028	5031.69
660.22	5179.14
660.412	5170.95
660.604	5160.71
660.796	5084.94
660.988	5058.31
661.18	4933.39
661.372	5011.21
661.563	5003.02
661.755	4871.95
661.947	4964.11
662.139	4865.8
662.331	4857.61
662.522	4941.58
662.714	4945.67
662.906	4935.43
663.097	4767.5
663.289	4843.28
663.481	4720.4
663.673	4757.26
663.864	4710.16
664.056	4777.74
664.247	4681.49
664.439	4744.97
664.631	4804.36
664.822	4785.93
665.014	4814.6
665.205	4628.24
665.397	4529.94
665.588	4669.2
665.78	4652.81
665.971	4749.07
666.163	4605.71
666.354	4652.81
666.546	4620.05
666.737	4615.95
666.929	4663.05
667.12	4599.57
667.311	4534.03
667.503	4611.85
667.694	4720.4
667.885	4618
668.077	4675.34
668.268	4562.7
668.459	4523.79
668.651	4364.05
668.842	4439.83
669.033	4374.29
669.224	4568.85
669.416	4669.2
669.607	4464.4
669.798	4560.66
669.989	4431.63
670.18	4523.79
670.371	4486.93
670.563	4376.34
670.754	4552.46
670.945	4445.97
671.136	4478.74
671.327	4523.79
671.518	4405.01
671.709	4466.45
671.9	4579.09
672.091	4538.13
672.282	4560.66
672.473	4525.84
672.664	4521.74
672.855	4671.25
673.046	4601.62
673.237	4407.06
673.428	4368.15
673.619	4433.68
673.809	4591.38
674	4368.15
674.191	4503.31
674.382	4687.63
674.573	4534.03
674.764	4568.85
674.954	4521.74
675.145	4654.86
675.336	4611.85
675.527	4654.86
675.717	4742.92
675.908	4495.12
676.099	4699.92
676.289	4605.71
676.48	4691.73
676.671	4732.69
676.861	4673.29
677.052	4564.75
677.243	4603.66
677.433	4683.53
677.624	4769.55
677.814	4706.06
678.005	4693.77
678.195	4744.97
678.386	4685.58
678.576	4773.64
678.767	4734.73
678.957	4871.95
679.148	4798.22
679.338	4818.7
679.529	4673.29
679.719	4810.51
679.909	5050.12
680.1	4976.39
680.29	4849.42
680.481	4925.19
680.671	5031.69
680.861	4865.8
681.052	4953.87
681.242	4947.72
681.432	4998.92
681.622	5003.02
681.813	5005.06
682.003	4888.33
682.193	4917
682.383	5046.02
682.573	4945.67
682.764	5000.97
682.954	5013.26
683.144	5148.42
683.334	5099.27
683.524	5021.45
683.714	5005.06
683.904	5228.29
684.094	5138.18
684.284	5031.69
684.474	5123.85
684.664	5101.32
684.854	5224.2
685.044	5086.98
685.234	4978.44
685.424	5011.21
685.614	4779.79
685.804	5246.73
685.994	5148.42
686.184	5035.78
686.374	5039.88
686.564	5103.37
686.753	5070.6
686.943	4955.91
687.133	5019.4
687.323	4742.92
687.513	4968.2
687.702	5031.69
687.892	4900.62
688.082	4912.91
688.272	4955.91
688.461	4853.52
688.651	4886.28
688.841	4802.32
689.03	4898.57
689.22	4724.49
689.41	4804.36
689.599	4634.38
689.789	4851.47
689.979	4765.45
690.168	4740.88
690.358	4581.14
690.547	4548.37
690.737	4579.09
690.926	4593.42
691.116	4478.74
691.305	4540.18
691.495	4478.74
691.684	4339.48
691.874	4415.25
692.063	4400.91
692.252	4177.69
692.442	4208.41
692.631	4306.71
692.82	4308.76
693.01	4269.84
693.199	4204.31
693.388	4120.34
693.578	4142.87
693.767	4155.16
693.956	4161.3
694.146	4089.62
694.335	3940.12
694.524	3882.78
694.713	4040.47
694.902	3958.55
695.092	4067.1
695.281	3850.01
695.47	3886.87
695.659	3852.06
695.848	3905.31
696.037	3802.91
696.226	3974.94
696.415	3825.43
696.604	3827.48
696.793	3847.96
696.982	3870.49
697.171	3772.19
697.36	3931.93
697.549	3735.32
697.738	3776.28
697.927	3596.06
698.116	3888.92
698.305	3833.63
698.494	3776.28
698.683	3645.21
698.872	3794.72
699.061	3637.02
699.25	3634.97
699.438	3729.18
699.627	3720.99
699.816	3696.41
700.005	3680.03
700.193	3696.41
700.382	3673.89
700.571	3614.49
700.76	3647.26
700.948	3630.88
701.137	3655.45
701.326	3815.2
701.514	3536.67
701.703	3743.52
701.892	3727.13
702.08	3712.8
702.269	3733.28
702.457	3643.17
702.646	3747.61
702.834	3688.22
703.023	3645.21
703.212	3725.08
703.4	3729.18
703.589	3639.07
703.777	3663.65
703.965	3548.96
704.154	3757.85
704.342	3643.17
704.531	3794.72
704.719	3587.87
704.907	3835.67
705.096	3561.25
705.284	3677.98
705.472	3684.13
705.661	3794.72
705.849	3702.56
706.037	3634.97
706.226	3770.14
706.414	3743.52
706.602	3933.98
706.79	3725.08
706.979	3653.41
707.167	3770.14
707.355	3782.43
707.543	3761.95
707.731	3899.16
707.919	3817.24
708.107	3712.8
708.296	3761.95
708.484	3825.43
708.672	3696.41
708.86	3870.49
709.048	3852.06
709.236	3753.76
709.424	3952.41
709.612	3919.64
709.8	3815.2
709.988	3860.25
710.176	3917.59
710.364	3954.46
710.551	3921.69
710.739	3936.03
710.927	3970.84
711.115	3942.17
711.303	4097.81
711.491	4097.81
711.679	4030.23
711.866	4134.68
712.054	4081.43
712.242	4091.67
712.43	4335.38
712.617	4032.28
712.805	4069.14
712.993	4095.77
713.181	4269.84
713.368	4161.3
713.556	4204.31
713.744	4194.07
713.931	4257.56
714.119	4220.69
714.306	4319
714.494	4269.84
714.682	4261.65
714.869	4300.56
715.057	4454.16
715.244	4302.61
715.432	4458.26
715.619	4316.95
715.807	4441.87
715.994	4486.93
716.182	4583.18
716.369	4400.91
716.556	4667.15
716.744	4618
716.931	4568.85
717.119	4626.19
717.306	4540.18
717.493	4673.29
717.681	4661.01
717.868	4697.87
718.055	4648.72
718.242	4728.59
718.43	4716.3
718.617	4837.13
718.804	4671.25
718.991	4769.55
719.179	4687.63
719.366	4859.66
719.553	4921.1
719.74	4873.99
719.927	5027.59
720.114	5011.21
720.301	4937.48
720.488	5005.06
720.676	5046.02
720.863	5068.55
721.05	5123.85
721.237	5005.06
721.424	5046.02
721.611	5089.03
721.798	5146.37
721.985	5121.8
722.172	5089.03
722.358	5275.4
722.545	5256.97
722.732	5123.85
722.919	5248.77
723.106	5168.9
723.293	5048.07
723.48	5263.11
723.667	5293.83
723.853	5371.65
724.04	5263.11
724.227	5390.08
724.414	5381.89
724.6	5377.8
724.787	5351.17
724.974	5676.8
725.161	5482.24
725.347	5496.58
725.534	5527.3
725.72	5527.3
725.907	5562.11
726.094	5668.61
726.28	5451.52
726.467	5527.3
726.653	5582.59
726.84	5832.44
727.027	5779.2
727.213	5588.74
727.4	5721.85
727.586	5818.11
727.773	5758.72
727.959	5678.85
728.145	5785.34
728.332	5644.03
728.518	5717.76
728.705	5834.49
728.891	5816.06
729.077	5666.56
729.264	5961.47
729.45	6010.62
729.636	6039.29
729.823	5869.31
730.009	5873.4
730.195	5955.32
730.382	6047.48
730.568	5990.14
730.754	6110.97
730.94	6000.38
731.126	5949.18
731.313	6147.83
731.499	6133.5
731.685	6168.31
731.871	6182.65
732.057	6131.45
732.243	6182.65
732.429	6188.79
732.615	6098.68
732.801	6153.98
732.987	6080.25
733.173	6262.52
733.359	6227.7
733.545	6309.62
733.731	6160.12
733.917	6358.77
734.103	6317.81
734.289	6119.16
734.475	6348.53
734.661	6326
734.847	6252.28
735.033	6088.44
735.219	6434.55
735.404	6379.25
735.59	6393.59
735.776	6283
735.962	6481.65
736.148	6450.93
736.333	6356.72
736.519	6164.22
736.705	6432.5
736.89	6225.65
737.076	6186.74
737.262	6276.85
737.447	6401.78
737.633	6301.43
737.819	6285.05
738.004	6463.22
738.19	6256.37
738.375	6133.5
738.561	6317.81
738.747	6141.69
738.932	6262.52
739.118	6323.96
739.303	6321.91
739.489	6364.92
739.674	6418.16
739.859	6158.07
740.045	6233.85
740.23	6211.32
740.416	6158.07
740.601	6250.23
740.786	6211.32
740.972	6186.74
741.157	6233.85
741.342	6158.07
741.528	6168.31
741.713	6160.12
741.898	6129.4
742.084	6004.47
742.269	6137.59
742.454	6006.52
742.639	6252.28
742.824	6115.06
743.01	6285.05
743.195	6098.68
743.38	6020.86
743.565	6049.53
743.75	6113.02
743.935	5938.94
744.12	6094.58
744.305	5865.21
744.49	5766.91
744.675	5988.09
744.86	5863.16
745.045	5871.36
745.23	5711.61
745.415	5881.6
745.6	5863.16
745.785	5728
745.97	5840.64
746.155	5678.85
746.34	5742.33
746.525	5633.79
746.71	5748.48
746.895	5465.86
747.079	5463.81
747.264	5441.28
747.449	5506.82
747.634	5492.48
747.819	5533.44
748.003	5353.22
748.188	5342.98
748.373	5322.5
748.557	5385.99
748.742	5261.06
748.927	5308.16
749.111	5318.4
749.296	5078.79
749.481	5162.76
749.665	5052.17
749.85	5113.61
750.034	5103.37
750.219	4990.73
750.404	5101.32
750.588	4857.61
750.773	4898.57
750.957	4935.43
751.141	4851.47
751.326	4744.97
751.51	4802.32
751.695	4790.03
751.879	4863.76
752.064	4661.01
752.248	4642.57
752.432	4550.42
752.617	4482.83
752.801	4529.94
752.985	4564.75
753.17	4413.2
753.354	4529.94
753.538	4382.48
753.722	4343.57
753.907	4275.99
754.091	4364.05
754.275	4321.04
754.459	4341.52
754.643	4089.62
754.828	4249.36
755.012	3958.55
755.196	4155.16
755.38	4038.42
755.564	4032.28
755.748	4056.86
755.932	4103.96
756.116	4038.42
756.3	3882.78
756.484	3936.03
756.668	3809.05
756.852	3807
757.036	3847.96
757.22	3737.37
757.404	3802.91
757.588	3598.11
757.772	3862.3
757.956	3581.73
758.14	3741.47
758.323	3524.38
758.507	3708.7
758.691	3610.4
758.875	3671.84
759.059	3538.72
759.242	3536.67
759.426	3432.22
759.61	3530.53
759.794	3475.23
759.977	3419.94
760.161	3495.71
760.345	3442.46
760.528	3497.76
760.712	3454.75
760.895	3407.65
761.079	3309.35
761.263	3221.28
761.446	3237.67
761.63	3229.48
761.813	3303.2
761.997	3143.46
762.18	3075.88
762.364	3125.03
762.547	3206.95
762.731	3061.54
762.914	3082.02
763.098	3069.73
763.281	3006.25
763.464	3129.13
763.648	3188.52
763.831	3165.99
764.015	2938.66
764.198	3125.03
764.381	2979.62
764.564	2887.47
764.748	2987.82
764.931	3030.82
765.114	2823.98
765.297	2918.18
765.481	2918.18
765.664	3028.78
765.847	2934.57
766.03	2887.47
766.213	2785.07
766.397	2729.77
766.58	2770.73
766.763	2799.4
766.946	2742.06
767.129	2791.21
767.312	2701.1
767.495	2688.81
767.678	2582.32
767.861	2598.7
768.044	2598.7
768.227	2641.71
768.41	2721.58
768.593	2697
768.776	2574.13
768.959	2541.36
769.142	2580.27
769.324	2481.97
769.507	2504.5
769.69	2504.5
769.873	2481.97
770.056	2541.36
770.239	2406.19
770.421	2629.42
770.604	2475.82
770.787	2393.9
770.97	2465.58
771.152	2262.83
771.335	2422.58
771.518	2228.02
771.7	2424.62
771.883	2443.06
772.066	2281.27
772.248	2320.18
772.431	2314.03
772.613	2359.09
772.796	2311.99
772.978	2244.4
773.161	2258.74
773.343	2144.05
773.526	2275.12
773.708	2205.49
773.891	2139.96
774.073	2242.36
774.256	2170.68
774.438	2037.56
774.621	2017.08
774.803	2205.49
774.985	2012.98
775.168	2045.75
775.35	2080.57
775.532	2010.93
775.715	1988.41
775.897	1941.3
776.079	2004.79
776.261	1914.68
776.444	1943.35
776.626	1867.58
776.808	1877.82
776.99	1783.61
777.173	1779.51
777.355	1845.05
777.537	1890.1
777.719	1849.15
777.901	1754.94
778.083	1750.84
778.265	1722.17
778.447	1773.37
778.629	1718.08
778.811	1705.79
778.993	1670.97
779.175	1693.5
779.357	1627.96
779.539	1636.16
779.721	1687.36
779.903	1652.54
780.085	1595.2
780.267	1574.72
780.449	1689.4
780.631	1570.62
780.812	1627.96
780.994	1468.22
781.176	1558.33
781.358	1531.71
781.54	1476.41
781.721	1552.19
781.903	1554.24
782.085	1384.26
782.267	1402.69
782.448	1386.3
782.63	1435.46
782.812	1374.02
782.993	1423.17
783.175	1328.96
783.357	1341.25
783.538	1466.17
783.72	1333.06
783.901	1345.34
784.083	1277.76
784.264	1279.81
784.446	1165.12
784.627	1167.17
784.809	1279.81
784.99	1314.63
785.172	1257.28
785.353	1302.34
785.535	1187.65
785.716	1206.08
785.897	1152.84
786.079	1148.74
786.26	1171.27
786.441	1300.29
786.623	1228.61
786.804	1118.02
786.985	1083.2
787.167	1152.84
787.348	1132.36
787.529	1089.35
787.71	1197.89
787.891	1042.25
788.073	1091.4
788.254	1099.59
788.435	1097.54
788.616	1079.11
788.797	1038.15
788.978	1070.92
789.159	1038.15
789.34	968.52
789.522	993.09
789.703	1015.62
789.884	962.37
790.065	1023.81
790.246	1046.34
790.427	982.85
790.607	948.04
790.788	958.28
790.969	991.05
791.15	1021.77
791.331	976.71
791.512	841.54
791.693	902.98
791.874	958.28
792.054	1042.25
792.235	948.04
792.416	843.59
792.597	778.06
792.778	882.5
792.958	870.22
793.139	884.55
793.32	878.41
793.5	902.98
793.681	794.44
793.862	927.56
794.042	698.19
794.223	831.3
794.404	810.82
794.584	677.71
794.765	827.21
794.945	751.43
795.126	737.1
795.306	816.97
795.487	769.87
795.667	710.47
795.848	763.72
796.028	782.15
796.209	814.92
796.389	792.39
796.57	696.14
796.75	673.61
796.93	728.91
797.111	710.47
797.291	761.67
797.471	657.23
797.652	747.34
797.832	700.23
798.012	780.11
798.192	689.99
798.373	726.86
798.553	741.19
798.733	698.19
798.913	608.08
799.093	702.28
799.274	759.63
799.454	696.14
799.634	728.91
799.814	753.48
799.994	747.34
800.174	663.37
800.354	649.04
800.534	628.56
800.714	677.71
800.894	558.92
801.074	603.98
801.254	694.09
801.434	599.88
801.614	671.56
801.794	640.84
801.974	1447.74
802.154	704.33
802.334	628.56
802.514	575.31
802.693	567.12
802.873	638.8
803.053	628.56
803.233	618.32
803.413	655.18
803.592	511.82
803.772	571.21
803.952	546.64
804.131	571.21
804.311	616.27
804.491	655.18
804.67	468.81
804.85	546.64
805.03	587.6
805.209	608.08
805.389	558.92
805.568	509.77
805.748	558.92
805.928	554.83
806.107	517.97
806.287	522.06
806.466	542.54
806.646	517.97
806.825	563.02
807.004	442.19
807.184	497.49
807.363	542.54
807.543	560.97
807.722	436.05
807.901	573.26
808.081	515.92
808.26	409.42
808.439	493.39
808.619	501.58
808.798	491.34
808.977	386.9
809.156	499.53
809.336	464.72
809.515	460.62
809.694	491.34
809.873	546.64
810.052	444.24
810.231	440.14
810.411	513.87
810.59	474.96
810.769	501.58
810.948	386.9
811.127	401.23
811.306	386.9
811.485	409.42
811.664	507.73
811.843	431.95
812.022	386.9
812.201	415.57
812.38	403.28
812.559	454.48
812.737	417.61
812.916	386.9
813.095	352.08
813.274	407.38
813.453	470.86
813.632	407.38
813.811	378.7
813.989	378.7
814.168	384.85
814.347	356.18
814.526	360.27
814.704	448.33
814.883	356.18
815.062	321.36
815.24	384.85
815.419	403.28
815.598	343.89
815.776	286.54
815.955	339.79
816.133	362.32
816.312	374.61
816.49	382.8
816.669	333.65
816.847	354.13
817.026	376.66
817.204	358.22
817.383	259.92
817.561	358.22
817.74	345.94
817.918	304.98
818.097	411.47
818.275	358.22
818.453	337.74
818.632	372.56
818.81	319.31
818.988	302.93
819.167	309.07
819.345	358.22
819.523	354.13
819.701	352.08
819.879	323.41
820.058	333.65
820.236	407.38
820.414	327.5
820.592	333.65
820.77	288.59
820.948	284.5
821.127	354.13
821.305	319.31
821.483	313.17
821.661	345.94
821.839	282.45
822.017	341.84
822.195	300.88
822.373	345.94
822.551	294.74
822.729	274.26
822.907	214.87
823.085	313.17
823.262	286.54
823.44	304.98
823.618	284.5
823.796	345.94
823.974	311.12
824.152	300.88
824.329	323.41
824.507	307.02
824.685	286.54
824.863	233.3
825.04	239.44
825.218	329.55
825.396	212.82
825.574	221.01
825.751	241.49
825.929	247.63
826.107	190.29
826.284	280.4
826.462	270.16
826.639	286.54
826.817	182.1
826.994	196.43
827.172	218.96
827.349	352.08
827.527	270.16
827.704	208.72
827.882	292.69
828.059	245.59
828.237	231.25
828.414	268.11
828.591	206.67
828.769	255.83
828.946	206.67
829.124	237.39
829.301	323.41
829.478	321.36
829.655	157.52
829.833	266.07
830.01	218.96
830.187	223.06
830.364	264.02
830.542	276.31
830.719	329.55
830.896	278.35
831.073	296.78
831.25	206.67
831.427	247.63
831.604	255.83
831.782	145.24
831.959	182.1
832.136	237.39
832.313	216.91
832.49	198.48
832.667	169.81
832.844	214.87
833.021	247.63
833.198	190.29
833.374	245.59
833.551	231.25
833.728	245.59
833.905	221.01
834.082	116.56
834.259	198.48
834.436	237.39
834.612	149.33
834.789	272.21
834.966	149.33
835.143	182.1
835.319	141.14
835.496	194.39
835.673	161.62
835.85	208.72
836.026	198.48
836.203	264.02
836.38	157.52
836.556	132.95
836.733	155.47
836.909	239.44
837.086	67.41
837.262	161.62
837.439	259.92
837.616	165.71
837.792	141.14
837.968	196.43
838.145	171.86
838.321	151.38
838.498	208.72
838.674	218.96
838.851	200.53
839.027	194.39
839.203	198.48
839.38	196.43
839.556	171.86
839.732	194.39
839.909	137.04
840.085	227.15
840.261	112.47
840.437	245.59
840.614	173.91
840.79	128.85
840.966	167.76
841.142	108.37
841.318	171.86
841.494	100.18
841.671	188.24
841.847	153.43
842.023	135
842.199	198.48
842.375	218.96
842.551	122.71
842.727	96.08
842.903	229.2
843.079	130.9
843.255	194.39
843.431	124.76
843.607	106.32
843.783	110.42
843.959	126.8
844.134	112.47
844.31	204.63
844.486	89.94
844.662	116.56
844.838	188.24
845.013	114.52
845.189	151.38
845.365	175.95
845.541	157.52
845.716	128.85
845.892	173.91
846.068	79.7
846.244	163.67
846.419	155.47
846.595	67.41
846.77	106.32
846.946	159.57
847.122	118.61
847.297	98.13
847.473	169.81
847.648	30.55
847.824	124.76
847.999	81.75
848.175	79.7
848.35	55.12
848.526	155.47
848.701	124.76
848.876	145.24
849.052	100.18
849.227	81.75
849.403	116.56
849.578	114.52
849.753	75.6
849.929	81.75
850.104	51.03
850.279	137.04
850.454	87.89
850.63	89.94
850.805	55.12
850.98	91.99
851.155	157.52
851.33	24.4
851.505	59.22
851.681	184.15
851.856	104.28
852.031	100.18
852.206	96.08
852.381	108.37
852.556	157.52
852.731	108.37
852.906	100.18
853.081	128.85
853.256	89.94
853.431	67.41
853.606	75.6
853.781	10.07
853.956	48.98
854.131	91.99
854.305	73.56
854.48	-4.27
854.655	106.32
854.83	91.99
855.005	8.02
855.18	48.98
855.354	98.13
855.529	135
855.704	65.36
855.879	130.9
856.053	75.6
856.228	46.93
856.403	26.45
856.577	135
856.752	100.18
856.926	110.42
857.101	75.6
857.276	59.22
857.45	34.64
857.625	59.22
857.799	71.51
857.974	12.12
858.148	42.84
858.323	26.45
858.497	10.07
858.672	59.22
858.846	26.45
859.02	63.32
859.195	8.02
859.369	42.84
859.543	83.8
859.718	108.37
859.892	51.03
860.066	106.32
860.241	44.88
860.415	34.64
860.589	53.08
860.763	67.41
860.938	77.65
861.112	65.36
861.286	59.22
861.46	83.8
861.634	55.12
861.808	96.08
861.982	67.41
862.157	-39.08
862.331	81.75
862.505	10.07
862.679	120.66
862.853	5.97
863.027	-39.08
863.201	124.76
863.375	73.56
863.549	63.32
863.722	65.36
863.896	87.89
864.07	-18.6
864.244	-51.37
864.418	75.6
864.592	26.45
864.766	30.55
864.939	24.4
865.113	14.17
865.287	65.36
865.461	28.5
865.634	67.41
865.808	48.98
865.982	65.36
866.156	63.32
866.329	67.41
866.503	108.37
866.676	118.61
866.85	65.36
867.024	63.32
867.197	42.84
867.371	118.61
867.544	77.65
867.718	-6.31
867.891	151.38
868.065	59.22
868.238	87.89
868.412	77.65
868.585	51.03
868.759	55.12
868.932	40.79
869.105	12.12
869.279	20.31
869.452	22.36
869.625	94.04
869.799	5.97
869.972	32.6
870.145	71.51
870.319	104.28
870.492	36.69
870.665	3.93
870.838	-34.99
871.011	-30.89
871.185	-63.66
871.358	38.74
871.531	91.99
871.704	20.31
871.877	55.12
872.05	5.97
872.223	34.64
872.396	67.41
872.569	59.22
872.742	3.93
872.915	71.51
873.088	83.8
873.261	-32.94
873.434	79.7
873.607	16.21
873.78	42.84
873.953	-26.79
874.126	22.36
874.299	73.56
874.471	-10.41
874.644	34.64
874.817	34.64
874.99	71.51
875.163	10.07
875.335	67.41
875.508	-2.22
875.681	24.4
875.853	-41.13
876.026	48.98
876.199	-12.46
876.371	36.69
876.544	63.32
876.717	67.41
876.889	28.5
877.062	-30.89
877.234	24.4
877.407	-24.75
877.579	22.36
877.752	42.84
877.924	51.03
878.097	44.88
878.269	59.22
878.442	40.79
878.614	91.99
878.786	28.5
878.959	8.02
879.131	5.97
879.303	-75.95
879.476	18.26
879.648	83.8
879.82	48.98
879.993	-6.31
880.165	-6.31
880.337	-45.23
880.509	51.03
880.681	-22.7
880.854	-59.56
881.026	-34.99
881.198	94.04
881.37	5.97
881.542	59.22
881.714	-2.22
881.886	67.41
882.058	14.17
882.23	75.6
882.402	63.32
882.574	-0.17
882.746	59.22
882.918	79.7
883.09	106.32
883.262	24.4
883.434	18.26
883.606	-14.51
883.778	18.26
883.95	79.7
884.122	-6.31
884.293	55.12
884.465	5.97
884.637	55.12
884.809	-8.36
884.98	26.45
885.152	10.07
885.324	71.51
885.496	34.64
885.667	16.21
885.839	36.69
886.011	16.21
886.182	-4.27
886.354	12.12
886.525	73.56
886.697	42.84
886.869	-63.66
887.04	-10.41
887.212	83.8
887.383	42.84
887.555	42.84
887.726	1.88
887.897	69.46
888.069	67.41
888.24	-14.51
888.412	16.21
888.583	32.6
888.754	28.5
888.926	-0.17
889.097	-63.66
889.268	-30.89
889.44	-6.31
889.611	-39.08
889.782	1.88
889.953	-0.17
890.125	10.07
890.296	16.21
890.467	22.36
890.638	38.74
890.809	24.4
890.98	14.17
891.151	-20.65
891.323	102.23
891.494	67.41
891.665	28.5
891.836	3.93
892.007	57.17
892.178	10.07
892.349	34.64
892.52	-26.79
892.691	-26.79
892.862	16.21
893.032	-30.89
893.203	46.93
893.374	75.6
893.545	32.6
893.716	-39.08
893.887	30.55
894.057	40.79
894.228	38.74
894.399	-73.9
894.57	8.02
894.74	-6.31
894.911	8.02
895.082	63.32
895.253	-39.08
895.423	8.02
895.594	59.22
895.764	8.02
895.935	-16.55
896.106	-30.89
896.276	-10.41
896.447	51.03
896.617	1.88
896.788	-26.79
896.958	3.93
897.129	-2.22
897.299	48.98
897.47	89.94
897.64	-22.7
897.81	67.41
897.981	1.88
898.151	-82.09
898.322	42.84
898.492	-55.47
898.662	-18.6
898.832	-6.31
899.003	14.17
899.173	20.31
899.343	-41.13
899.513	-6.31
