Data from USB4F104151__88__11-32-02-152.txt Node

Date: Fri Mar 14 11:32:02 EDT 2025
User: louis
Spectrometer: USB4F10415
Trigger mode: 4
Integration Time (sec): 5.000000E-2
Scans to average: 1
Electric dark correction enabled: true
Nonlinearity correction enabled: false
Boxcar width: 0
XAxis mode: Wavelengths
Number of Pixels in Spectrum: 3648
>>>>>Begin Spectral Data<<<<<
178.204	-113.15
178.424	-113.15
178.644	-113.15
178.864	-168.45
179.084	-225.79
179.304	-23.04
179.524	-29.18
179.744	-49.66
179.964	-0.51
180.184	3.58
180.404	65.02
180.624	30.21
180.844	58.88
181.064	-59.9
181.283	24.06
181.503	7.68
181.723	-27.14
181.943	3.58
182.163	73.21
182.383	-61.95
182.602	9.73
182.822	-10.75
183.042	110.08
183.262	-33.28
183.482	1.54
183.701	67.07
183.921	44.54
184.141	-18.94
184.361	19.97
184.58	-6.66
184.8	30.21
185.02	-41.47
185.239	46.59
185.459	69.12
185.679	56.83
185.898	-4.61
186.118	56.83
186.338	65.02
186.557	99.84
186.777	-27.14
186.997	85.5
187.216	52.74
187.436	101.89
187.655	17.92
187.875	44.54
188.095	36.35
188.314	71.17
188.534	30.21
188.753	-2.56
188.973	28.16
189.192	71.17
189.412	11.78
189.631	73.21
189.851	40.45
190.07	15.87
190.29	17.92
190.509	-10.75
190.729	44.54
190.948	75.26
191.168	177.66
191.387	58.88
191.607	56.83
191.826	52.74
192.045	42.5
192.265	34.3
192.484	48.64
192.704	38.4
192.923	19.97
193.142	142.85
193.362	40.45
193.581	44.54
193.8	42.5
194.02	46.59
194.239	-0.51
194.458	-6.66
194.678	22.02
194.897	11.78
195.116	5.63
195.335	30.21
195.555	99.84
195.774	71.17
195.993	-16.9
196.212	30.21
196.432	24.06
196.651	42.5
196.87	-2.56
197.089	89.6
197.308	48.64
197.528	36.35
197.747	46.59
197.966	40.45
198.185	50.69
198.404	46.59
198.623	15.87
198.842	89.6
199.062	40.45
199.281	138.75
199.5	62.98
199.719	-31.23
199.938	50.69
200.157	5.63
200.376	138.75
200.595	120.32
200.814	89.6
201.033	7.68
201.252	40.45
201.471	60.93
201.69	56.83
201.909	83.45
202.128	7.68
202.347	105.98
202.566	38.4
202.785	-117.25
203.004	-20.99
203.223	126.46
203.442	36.35
203.661	5.63
203.879	-43.52
204.098	-16.9
204.317	-66.05
204.536	89.6
204.755	28.16
204.974	97.79
205.193	-0.51
205.411	42.5
205.63	36.35
205.849	73.21
206.068	73.21
206.287	-0.51
206.505	22.02
206.724	28.16
206.943	54.78
207.162	13.82
207.381	69.12
207.599	5.63
207.818	9.73
208.037	-14.85
208.255	-33.28
208.474	42.5
208.693	19.97
208.911	19.97
209.13	42.5
209.349	38.4
209.567	24.06
209.786	19.97
210.005	56.83
210.223	-55.81
210.442	-57.86
210.661	15.87
210.879	32.26
211.098	13.82
211.316	13.82
211.535	148.99
211.753	52.74
211.972	34.3
212.191	-0.51
212.409	13.82
212.628	44.54
212.846	-0.51
213.065	3.58
213.283	192
213.502	81.41
213.72	36.35
213.938	40.45
214.157	7.68
214.375	9.73
214.594	-6.66
214.812	36.35
215.031	56.83
215.249	-0.51
215.467	17.92
215.686	22.02
215.904	87.55
216.122	-14.85
216.341	103.93
216.559	54.78
216.778	136.7
216.996	99.84
217.214	-0.51
217.432	28.16
217.651	-14.85
217.869	114.17
218.087	110.08
218.306	19.97
218.524	-10.75
218.742	26.11
218.96	-33.28
219.179	99.84
219.397	5.63
219.615	81.41
219.833	62.98
220.051	-23.04
220.27	-20.99
220.488	87.55
220.706	17.92
220.924	-18.94
221.142	48.64
221.36	32.26
221.578	60.93
221.796	15.87
222.015	-0.51
222.233	-33.28
222.451	32.26
222.669	-10.75
222.887	28.16
223.105	105.98
223.323	44.54
223.541	42.5
223.759	3.58
223.977	32.26
224.195	54.78
224.413	9.73
224.631	11.78
224.849	15.87
225.067	140.8
225.285	5.63
225.503	36.35
225.721	-70.14
225.939	-6.66
226.157	44.54
226.375	97.79
226.592	-51.71
226.81	3.58
227.028	114.17
227.246	114.17
227.464	15.87
227.682	11.78
227.9	40.45
228.117	30.21
228.335	48.64
228.553	-8.7
228.771	7.68
228.989	26.11
229.206	11.78
229.424	-18.94
229.642	38.4
229.86	30.21
230.077	65.02
230.295	24.06
230.513	148.99
230.731	79.36
230.948	67.07
231.166	26.11
231.384	-0.51
231.601	36.35
231.819	103.93
232.037	46.59
232.254	-92.67
232.472	42.5
232.689	-25.09
232.907	60.93
233.125	-2.56
233.342	19.97
233.56	-16.9
233.777	1.54
233.995	-23.04
234.213	153.09
234.43	36.35
234.648	28.16
234.865	38.4
235.083	40.45
235.3	38.4
235.518	11.78
235.735	32.26
235.953	83.45
236.17	73.21
236.388	15.87
236.605	126.46
236.822	118.27
237.04	19.97
237.257	56.83
237.475	24.06
237.692	38.4
237.909	73.21
238.127	65.02
238.344	-10.75
238.562	48.64
238.779	-35.33
238.996	28.16
239.214	7.68
239.431	46.59
239.648	-64
239.865	134.65
240.083	103.93
240.3	73.21
240.517	3.58
240.735	24.06
240.952	81.41
241.169	62.98
241.386	-43.52
241.603	-27.14
241.821	58.88
242.038	77.31
242.255	-29.18
242.472	-12.8
242.689	81.41
242.907	19.97
243.124	26.11
243.341	46.59
243.558	-2.56
243.775	7.68
243.992	-74.24
244.209	85.5
244.426	101.89
244.643	87.55
244.86	36.35
245.078	114.17
245.295	13.82
245.512	85.5
245.729	81.41
245.946	19.97
246.163	42.5
246.38	77.31
246.597	40.45
246.814	22.02
247.031	19.97
247.248	-33.28
247.464	93.69
247.681	93.69
247.898	1.54
248.115	52.74
248.332	19.97
248.549	89.6
248.766	89.6
248.983	52.74
249.2	13.82
249.417	89.6
249.633	48.64
249.85	-16.9
250.067	13.82
250.284	48.64
250.501	62.98
250.717	81.41
250.934	3.58
251.151	24.06
251.368	9.73
251.585	46.59
251.801	48.64
252.018	15.87
252.235	56.83
252.451	-57.86
252.668	11.78
252.885	114.17
253.102	15.87
253.318	-8.7
253.535	-61.95
253.752	28.16
253.968	105.98
254.185	-12.8
254.401	73.21
254.618	73.21
254.835	62.98
255.051	5.63
255.268	75.26
255.484	48.64
255.701	38.4
255.917	65.02
256.134	-18.94
256.351	-16.9
256.567	11.78
256.784	73.21
257	-53.76
257.217	175.61
257.433	28.16
257.65	46.59
257.866	71.17
258.082	-39.42
258.299	-49.66
258.515	81.41
258.732	36.35
258.948	-27.14
259.165	138.75
259.381	22.02
259.597	15.87
259.814	58.88
260.03	40.45
260.246	-0.51
260.463	85.5
260.679	87.55
260.895	30.21
261.112	19.97
261.328	48.64
261.544	22.02
261.761	54.78
261.977	85.5
262.193	15.87
262.409	48.64
262.626	60.93
262.842	58.88
263.058	7.68
263.274	28.16
263.49	38.4
263.707	110.08
263.923	44.54
264.139	-25.09
264.355	7.68
264.571	87.55
264.787	30.21
265.004	77.31
265.22	42.5
265.436	67.07
265.652	30.21
265.868	-20.99
266.084	42.5
266.3	-20.99
266.516	56.83
266.732	46.59
266.948	24.06
267.164	32.26
267.38	44.54
267.596	46.59
267.812	95.74
268.028	15.87
268.244	-29.18
268.46	-10.75
268.676	7.68
268.892	-29.18
269.108	32.26
269.324	-6.66
269.54	-20.99
269.756	46.59
269.972	-8.7
270.188	7.68
270.403	46.59
270.619	-37.38
270.835	65.02
271.051	40.45
271.267	77.31
271.483	3.58
271.698	36.35
271.914	52.74
272.13	38.4
272.346	7.68
272.562	28.16
272.777	54.78
272.993	36.35
273.209	-12.8
273.425	-0.51
273.64	54.78
273.856	54.78
274.072	28.16
274.287	46.59
274.503	19.97
274.719	91.65
274.934	97.79
275.15	-82.43
275.366	11.78
275.581	-33.28
275.797	15.87
276.012	50.69
276.228	3.58
276.444	60.93
276.659	65.02
276.875	-16.9
277.09	97.79
277.306	-12.8
277.521	1.54
277.737	56.83
277.952	54.78
278.168	81.41
278.383	24.06
278.599	36.35
278.814	48.64
279.03	-12.8
279.245	69.12
279.461	34.3
279.676	-12.8
279.892	30.21
280.107	-10.75
280.322	32.26
280.538	22.02
280.753	11.78
280.969	60.93
281.184	-12.8
281.399	101.89
281.615	56.83
281.83	81.41
282.045	1.54
282.26	65.02
282.476	-61.95
282.691	132.61
282.906	89.6
283.122	56.83
283.337	34.3
283.552	44.54
283.767	13.82
283.983	67.07
284.198	-16.9
284.413	95.74
284.628	-8.7
284.843	122.37
285.058	30.21
285.274	62.98
285.489	40.45
285.704	17.92
285.919	-4.61
286.134	73.21
286.349	73.21
286.564	65.02
286.779	79.36
286.995	95.74
287.21	-29.18
287.425	50.69
287.64	3.58
287.855	5.63
288.07	-25.09
288.285	19.97
288.5	48.64
288.715	71.17
288.93	17.92
289.145	19.97
289.36	58.88
289.575	-31.23
289.79	56.83
290.004	-41.47
290.219	-25.09
290.434	5.63
290.649	38.4
290.864	28.16
291.079	13.82
291.294	46.59
291.509	73.21
291.724	52.74
291.938	71.17
292.153	54.78
292.368	3.58
292.583	3.58
292.798	105.98
293.012	73.21
293.227	-59.9
293.442	11.78
293.657	22.02
293.871	87.55
294.086	32.26
294.301	85.5
294.516	34.3
294.73	26.11
294.945	15.87
295.16	32.26
295.374	44.54
295.589	73.21
295.804	-0.51
296.018	120.32
296.233	44.54
296.447	46.59
296.662	28.16
296.877	56.83
297.091	114.17
297.306	52.74
297.52	1.54
297.735	48.64
297.949	40.45
298.164	36.35
298.378	118.27
298.593	-29.18
298.807	-39.42
299.022	30.21
299.236	83.45
299.451	-25.09
299.665	5.63
299.88	15.87
300.094	1.54
300.309	73.21
300.523	-27.14
300.737	52.74
300.952	-2.56
301.166	56.83
301.381	-0.51
301.595	3.58
301.809	69.12
302.024	17.92
302.238	54.78
302.452	75.26
302.667	73.21
302.881	58.88
303.095	77.31
303.309	97.79
303.524	11.78
303.738	56.83
303.952	-39.42
304.166	95.74
304.381	17.92
304.595	132.61
304.809	38.4
305.023	142.85
305.237	34.3
305.452	19.97
305.666	24.06
305.88	81.41
306.094	22.02
306.308	97.79
306.522	97.79
306.736	40.45
306.95	-12.8
307.164	58.88
307.379	75.26
307.593	81.41
307.807	40.45
308.021	46.59
308.235	65.02
308.449	5.63
308.663	60.93
308.877	60.93
309.091	36.35
309.305	-6.66
309.519	38.4
309.733	75.26
309.947	36.35
310.161	77.31
310.374	42.5
310.588	81.41
310.802	-18.94
311.016	38.4
311.23	7.68
311.444	24.06
311.658	87.55
311.872	146.94
312.085	71.17
312.299	120.32
312.513	81.41
312.727	65.02
312.941	44.54
313.154	81.41
313.368	103.93
313.582	42.5
313.796	69.12
314.009	103.93
314.223	89.6
314.437	52.74
314.651	69.12
314.864	-6.66
315.078	95.74
315.292	-37.38
315.505	48.64
315.719	65.02
315.933	28.16
316.146	-23.04
316.36	17.92
316.573	71.17
316.787	46.59
317.001	83.45
317.214	15.87
317.428	22.02
317.641	-2.56
317.855	42.5
318.068	52.74
318.282	19.97
318.495	81.41
318.709	105.98
318.922	46.59
319.136	79.36
319.349	73.21
319.563	62.98
319.776	28.16
319.99	24.06
320.203	134.65
320.417	-53.76
320.63	-2.56
320.843	71.17
321.057	87.55
321.27	99.84
321.483	97.79
321.697	73.21
321.91	85.5
322.124	108.03
322.337	32.26
322.55	65.02
322.763	-16.9
322.977	46.59
323.19	7.68
323.403	32.26
323.617	19.97
323.83	120.32
324.043	-0.51
324.256	99.84
324.469	24.06
324.683	30.21
324.896	30.21
325.109	13.82
325.322	50.69
325.535	48.64
325.748	-16.9
325.962	62.98
326.175	52.74
326.388	1.54
326.601	44.54
326.814	19.97
327.027	56.83
327.24	71.17
327.453	54.78
327.666	65.02
327.879	105.98
328.092	67.07
328.305	105.98
328.518	148.99
328.731	5.63
328.944	77.31
329.157	38.4
329.37	-25.09
329.583	122.37
329.796	99.84
330.009	3.58
330.222	38.4
330.435	153.09
330.648	40.45
330.861	30.21
331.073	73.21
331.286	40.45
331.499	93.69
331.712	26.11
331.925	-37.38
332.138	-16.9
332.35	79.36
332.563	-49.66
332.776	118.27
332.989	46.59
333.202	38.4
333.414	19.97
333.627	5.63
333.84	34.3
334.053	7.68
334.265	13.82
334.478	54.78
334.691	28.16
334.903	22.02
335.116	-49.66
335.329	65.02
335.541	54.78
335.754	28.16
335.966	-0.51
336.179	40.45
336.392	30.21
336.604	13.82
336.817	65.02
337.029	-12.8
337.242	48.64
337.454	44.54
337.667	85.5
337.88	56.83
338.092	62.98
338.305	22.02
338.517	-8.7
338.729	122.37
338.942	-20.99
339.154	26.11
339.367	-33.28
339.579	60.93
339.792	54.78
340.004	42.5
340.217	3.58
340.429	77.31
340.641	44.54
340.854	60.93
341.066	-43.52
341.278	79.36
341.491	56.83
341.703	38.4
341.915	-23.04
342.128	-41.47
342.34	97.79
342.552	54.78
342.764	71.17
342.977	3.58
343.189	73.21
343.401	62.98
343.613	28.16
343.826	60.93
344.038	-18.94
344.25	105.98
344.462	17.92
344.674	40.45
344.886	60.93
345.099	58.88
345.311	48.64
345.523	-29.18
345.735	-0.51
345.947	110.08
346.159	46.59
346.371	-98.81
346.583	40.45
346.795	122.37
347.007	7.68
347.219	-0.51
347.431	32.26
347.643	56.83
347.855	-23.04
348.067	69.12
348.279	32.26
348.491	62.98
348.703	24.06
348.915	58.88
349.127	15.87
349.339	112.13
349.551	-64
349.763	146.94
349.975	19.97
350.187	81.41
350.399	146.94
350.61	81.41
350.822	48.64
351.034	40.45
351.246	77.31
351.458	114.17
351.669	71.17
351.881	-0.51
352.093	24.06
352.305	40.45
352.517	56.83
352.728	32.26
352.94	126.46
353.152	136.7
353.363	13.82
353.575	44.54
353.787	71.17
353.999	71.17
354.21	148.99
354.422	30.21
354.633	15.87
354.845	-4.61
355.057	22.02
355.268	7.68
355.48	46.59
355.692	42.5
355.903	22.02
356.115	28.16
356.326	-37.38
356.538	85.5
356.749	50.69
356.961	89.6
357.172	46.59
357.384	15.87
357.595	114.17
357.807	87.55
358.018	5.63
358.23	71.17
358.441	83.45
358.653	56.83
358.864	3.58
359.075	7.68
359.287	52.74
359.498	116.22
359.709	50.69
359.921	40.45
360.132	38.4
360.344	52.74
360.555	-10.75
360.766	26.11
360.977	73.21
361.189	91.65
361.4	50.69
361.611	161.28
361.823	122.37
362.034	9.73
362.245	56.83
362.456	-18.94
362.667	77.31
362.879	40.45
363.09	-27.14
363.301	65.02
363.512	69.12
363.723	-0.51
363.935	83.45
364.146	95.74
364.357	-29.18
364.568	120.32
364.779	5.63
364.99	110.08
365.201	48.64
365.412	26.11
365.623	38.4
365.834	44.54
366.045	15.87
366.256	71.17
366.467	24.06
366.678	69.12
366.889	-0.51
367.1	42.5
367.311	-14.85
367.522	11.78
367.733	15.87
367.944	54.78
368.155	38.4
368.366	99.84
368.577	73.21
368.788	26.11
368.999	15.87
369.209	9.73
369.42	52.74
369.631	38.4
369.842	118.27
370.053	112.13
370.264	40.45
370.474	44.54
370.685	56.83
370.896	75.26
371.107	87.55
371.317	81.41
371.528	24.06
371.739	62.98
371.95	36.35
372.16	62.98
372.371	-14.85
372.582	22.02
372.792	-2.56
373.003	73.21
373.214	22.02
373.424	101.89
373.635	3.58
373.846	93.69
374.056	54.78
374.267	81.41
374.477	97.79
374.688	40.45
374.898	60.93
375.109	85.5
375.319	155.13
375.53	105.98
375.74	40.45
375.951	32.26
376.161	134.65
376.372	77.31
376.582	48.64
376.793	130.56
377.003	-59.9
377.214	44.54
377.424	77.31
377.635	50.69
377.845	-14.85
378.055	26.11
378.266	73.21
378.476	34.3
378.686	97.79
378.897	58.88
379.107	-12.8
379.317	71.17
379.528	97.79
379.738	36.35
379.948	11.78
380.158	69.12
380.369	48.64
380.579	62.98
380.789	44.54
380.999	22.02
381.21	-14.85
381.42	48.64
381.63	62.98
381.84	87.55
382.05	-23.04
382.261	89.6
382.471	89.6
382.681	30.21
382.891	146.94
383.101	89.6
383.311	46.59
383.521	87.55
383.731	110.08
383.941	85.5
384.151	38.4
384.361	40.45
384.571	71.17
384.781	54.78
384.991	97.79
385.201	116.22
385.411	83.45
385.621	73.21
385.831	40.45
386.041	46.59
386.251	44.54
386.461	79.36
386.671	85.5
386.881	77.31
387.091	42.5
387.301	120.32
387.511	7.68
387.72	62.98
387.93	40.45
388.14	1.54
388.35	62.98
388.56	24.06
388.769	73.21
388.979	40.45
389.189	15.87
389.399	128.51
389.609	77.31
389.818	-27.14
390.028	17.92
390.238	60.93
390.447	7.68
390.657	32.26
390.867	17.92
391.076	73.21
391.286	5.63
391.496	105.98
391.705	36.35
391.915	130.56
392.125	62.98
392.334	3.58
392.544	130.56
392.753	85.5
392.963	-12.8
393.172	89.6
393.382	-33.28
393.591	177.66
393.801	56.83
394.01	196.09
394.22	132.61
394.429	124.41
394.639	105.98
394.848	101.89
395.058	73.21
395.267	134.65
395.477	71.17
395.686	114.17
395.895	151.04
396.105	118.27
396.314	62.98
396.524	81.41
396.733	15.87
396.942	101.89
397.152	130.56
397.361	83.45
397.57	114.17
397.78	60.93
397.989	144.89
398.198	144.89
398.407	56.83
398.617	65.02
398.826	79.36
399.035	114.17
399.244	122.37
399.453	134.65
399.663	128.51
399.872	97.79
400.081	48.64
400.29	105.98
400.499	52.74
400.708	56.83
400.917	46.59
401.127	56.83
401.336	120.32
401.545	138.75
401.754	130.56
401.963	198.14
402.172	97.79
402.381	73.21
402.59	146.94
402.799	167.42
403.008	155.13
403.217	169.47
403.426	118.27
403.635	81.41
403.844	171.52
404.053	132.61
404.262	105.98
404.471	200.19
404.68	159.23
404.888	130.56
405.097	159.23
405.306	235
405.515	210.43
405.724	185.85
405.933	192
406.142	161.28
406.35	214.52
406.559	130.56
406.768	212.48
406.977	253.44
407.185	230.91
407.394	335.35
407.603	136.7
407.812	175.61
408.02	228.86
408.229	286.2
408.438	116.22
408.646	173.57
408.855	194.05
409.064	232.96
409.272	284.16
409.481	302.59
409.69	263.68
409.898	222.72
410.107	376.31
410.315	347.64
410.524	333.31
410.733	347.64
410.941	210.43
411.15	423.42
411.358	423.42
411.567	417.27
411.775	278.01
411.984	415.23
412.192	402.94
412.401	388.6
412.609	466.42
412.818	421.37
413.026	488.95
413.234	523.77
413.443	447.99
413.651	624.12
413.86	617.97
414.068	552.44
414.276	550.39
414.485	540.15
414.693	577.02
414.901	687.61
415.11	751.09
415.318	630.26
415.526	693.75
415.734	667.13
415.943	732.66
416.151	802.29
416.359	779.76
416.567	749.04
416.776	853.49
416.984	908.79
417.192	949.75
417.4	935.41
417.608	880.11
417.817	978.42
418.025	964.08
418.233	1105.39
418.441	1146.35
418.649	1109.49
418.857	1103.34
419.065	1263.08
419.273	1248.75
419.481	1189.36
419.689	1400.3
419.897	1338.86
420.105	1478.12
420.313	1461.74
420.521	1506.79
420.729	1560.04
420.937	1508.84
421.145	1641.96
421.353	1701.35
421.561	1807.84
421.769	1803.75
421.977	1904.1
422.185	1840.61
422.393	1887.72
422.601	2078.18
422.809	2078.18
423.017	2082.27
423.224	2209.25
423.432	2342.36
423.64	2254.3
423.848	2610.65
424.056	2473.43
424.263	2670.04
424.471	2602.46
424.679	2731.48
424.887	2864.6
425.094	3022.29
425.302	2993.62
425.51	3061.2
425.718	3257.81
425.925	3155.41
426.133	3235.28
426.341	3427.79
426.548	3653.06
426.756	3476.94
426.964	3534.28
427.171	3874.24
427.379	3849.67
427.586	3921.35
427.794	4027.84
428.001	4445.63
428.209	4419
428.417	4523.45
428.624	4769.21
428.832	4675
429.039	4709.82
429.247	4707.77
429.454	5234.1
429.662	5504.43
429.869	5162.42
430.076	5598.63
430.284	5477.8
430.491	5627.31
430.699	5864.87
430.906	5873.06
431.114	5914.02
431.321	6260.13
431.528	6421.92
431.736	6716.83
431.943	7087.51
432.15	6854.04
432.358	6868.38
432.565	7136.66
432.772	7200.15
432.979	7773.58
433.187	7716.23
433.394	7691.66
433.601	8201.6
433.808	8519.04
434.016	8297.86
434.223	8707.45
434.43	9104.76
434.637	9174.39
434.844	9493.87
435.052	9706.86
435.259	9803.11
435.466	9573.74
435.673	9878.89
435.88	10149.22
436.087	10863.96
436.294	10851.67
436.501	10681.69
436.708	10773.85
436.915	11201.88
437.122	11746.64
437.329	11629.9
437.537	12172.61
437.743	12168.52
437.95	12195.14
438.157	12916.03
438.364	13192.5
438.571	13083.96
438.778	13229.37
438.985	14449.96
439.192	13829.42
439.399	14267.69
439.606	13966.63
439.813	15011.1
440.02	15373.59
440.227	15527.19
440.433	15486.23
440.64	15695.12
440.847	15842.57
441.054	16043.28
441.261	17466.61
441.467	16686.34
441.674	17292.54
441.881	17929.45
442.088	17761.52
442.294	17655.03
442.501	18547.94
442.708	18498.79
442.914	19084.51
443.121	19961.04
443.328	19659.99
443.534	20753.6
443.741	20372.68
443.948	20176.08
444.154	21531.83
444.361	21490.87
444.568	21468.34
444.774	21652.66
444.981	21738.68
445.187	22705.32
445.394	23489.69
445.6	22881.44
445.807	25660.54
446.013	24063.12
446.22	24386.7
446.426	25666.68
446.633	25611.39
446.839	26602.6
447.046	25412.73
447.252	27190.37
447.459	27130.98
447.665	26979.43
447.871	28034.13
448.078	29215.81
448.284	27819.1
448.491	28578.89
448.697	29668.41
448.903	30706.73
449.11	30196.79
449.316	29834.3
449.522	30321.71
449.728	31282.21
449.935	31241.25
450.141	31417.38
450.347	32386.07
450.553	31091.75
450.76	31206.44
450.966	32396.31
451.172	32109.59
451.378	32939.02
451.584	32384.02
451.791	32850.95
451.997	33117.19
452.203	33682.43
452.409	33565.7
452.615	33442.82
452.821	32042.01
453.027	31771.68
453.233	33494.02
453.44	32091.16
453.646	32414.74
453.852	32719.88
454.058	33207.3
454.264	32541.71
454.47	32597.01
454.676	31702.04
454.882	32984.07
455.088	30366.77
455.294	30460.98
455.5	30856.23
455.705	31353.89
455.911	30284.85
456.117	29561.92
456.323	29176.9
456.529	27575.39
456.735	28863.56
456.941	28134.48
457.147	27479.13
457.352	26627.18
457.558	26311.79
457.764	26416.24
457.97	25691.26
458.176	25267.33
458.381	25134.21
458.587	24042.64
458.793	24218.77
458.999	22803.62
459.204	24321.16
459.41	23657.62
459.616	22146.22
459.821	22273.2
460.027	21865.65
460.233	21386.43
460.438	20477.13
460.644	20516.04
460.85	19858.64
461.055	19401.94
461.261	19403.99
461.466	18068.72
461.672	17532.15
461.878	18549.99
462.083	17622.26
462.289	17011.96
462.494	17108.22
462.7	16149.77
462.905	15695.12
463.111	16487.68
463.316	16450.82
463.522	15863.05
463.727	16119.05
463.932	15947.02
464.138	15867.15
464.343	15949.07
464.549	15230.23
464.754	16014.6
464.959	15605.01
465.165	15676.69
465.37	15283.48
465.575	14636.32
465.781	15129.88
465.986	15428.88
466.191	14855.45
466.397	14439.72
466.602	13880.62
466.807	14349.61
467.012	14470.44
467.218	14191.91
467.423	13999.4
467.628	14085.42
467.833	14609.7
468.038	14275.88
468.244	13755.69
468.449	14357.8
468.654	13724.97
468.859	13892.91
469.064	13661.49
469.269	13069.62
469.474	13296.95
469.679	13630.77
469.885	13096.25
470.09	13184.31
470.295	13350.2
470.5	12864.83
470.705	13124.92
470.91	12600.64
471.115	12508.48
471.32	12576.06
471.525	12725.57
471.73	12485.95
471.935	12227.91
472.139	11973.96
472.344	11984.2
472.549	11914.57
472.754	11836.75
472.959	11580.75
473.164	11212.12
473.369	11281.75
473.574	11547.98
473.778	11595.09
473.983	11402.58
474.188	11484.5
474.393	10995.03
474.598	10736.99
474.802	10892.63
475.007	10782.04
475.212	10550.62
475.417	10134.89
475.621	10417.51
475.826	10524
476.031	10040.68
476.235	9827.69
476.44	10061.16
476.645	9868.65
476.849	9989.48
477.054	9645.42
477.259	9641.32
477.463	9717.1
477.668	9428.34
477.872	9588.08
478.077	9346.42
478.282	9088.37
478.486	9143.67
478.691	8934.78
478.895	8959.35
479.1	8867.19
479.304	8899.96
479.509	8492.41
479.713	8758.65
479.918	8506.75
480.122	8502.65
480.326	8465.79
480.531	8486.27
480.735	8576.38
480.94	8412.54
481.144	8621.44
481.348	8324.48
481.553	8441.22
481.757	8275.33
481.961	8375.68
482.166	8437.12
482.37	8326.53
482.574	8111.49
482.778	8285.57
482.983	8293.76
483.187	8306.05
483.391	8361.34
483.595	8410.5
483.8	8119.68
484.004	8426.88
484.208	8275.33
484.412	8244.61
484.616	8265.09
484.821	8347.01
485.025	7941.51
485.229	8242.56
485.433	8156.55
485.637	8150.4
485.841	8211.84
486.045	8115.59
486.249	8211.84
486.453	8281.47
486.657	8230.27
486.861	8361.34
487.065	7947.65
487.269	8129.92
487.473	7972.23
487.677	8367.49
487.881	8369.54
488.085	8236.42
488.289	8275.33
488.493	8199.55
488.697	8228.23
488.901	8191.36
489.105	8131.97
489.309	8449.41
489.512	8414.59
489.716	8318.34
489.92	8293.76
490.124	8334.72
490.328	8445.31
490.531	8347.01
490.735	8562.05
490.939	8535.42
491.143	8457.6
491.346	8592.76
491.55	8541.57
491.754	8478.08
491.958	8746.36
492.161	8557.95
492.365	8809.85
492.569	8723.83
492.772	8639.87
492.976	8850.81
493.18	8797.56
493.383	9008.5
493.587	8957.3
493.79	9194.87
493.994	8959.35
494.197	9174.39
494.401	9198.96
494.605	8936.82
494.808	9383.28
495.012	9332.08
495.215	9444.72
495.419	9414
495.622	9375.09
495.825	9561.45
496.029	9409.9
496.232	9803.11
496.436	9616.75
496.639	10145.13
496.843	9907.56
497.046	10030.44
497.249	10186.08
497.453	10188.13
497.656	10270.05
497.859	10282.34
498.063	10474.85
498.266	10708.32
498.469	10618.21
498.673	10751.32
498.876	10892.63
499.079	11205.97
499.282	11066.71
499.485	11521.36
499.689	11552.08
499.892	11621.71
500.095	11724.11
500.298	11736.4
500.501	11588.94
500.705	12070.22
500.908	12197.19
501.111	12367.17
501.314	12328.26
501.517	12541.25
501.72	12688.7
501.923	12643.65
502.126	13147.45
502.329	13184.31
502.532	13274.42
502.735	13317.43
502.938	13610.29
503.141	13757.74
503.344	13790.51
503.547	13810.99
503.75	14087.47
503.953	14468.39
504.156	14609.7
504.359	14472.48
504.562	14886.17
504.765	14976.28
504.968	15226.14
505.17	15459.6
505.373	15562
505.576	15627.54
505.779	15947.02
505.982	15979.79
506.185	16387.33
506.387	16237.83
506.59	16522.5
506.793	16598.27
506.996	16913.66
507.198	17274.1
507.401	17280.25
507.604	17468.66
507.807	17724.66
508.009	17767.66
508.212	18189.55
508.415	18443.49
508.617	18302.18
508.82	18791.65
509.022	18498.79
509.225	18920.67
509.428	19109.08
509.63	19397.85
509.833	19692.76
510.035	20188.36
510.238	19995.85
510.44	20282.57
510.643	20692.16
510.845	20751.56
511.048	20595.91
511.25	21200.06
511.453	21392.57
511.655	21949.62
511.858	21777.59
512.06	21900.47
512.262	22281.39
512.465	22281.39
512.667	22725.8
512.87	23225.5
513.072	22963.36
513.274	23481.5
513.477	23321.76
513.679	24026.26
513.881	24251.53
514.084	24677.51
514.286	24784.01
514.488	25083.01
514.69	25291.9
514.893	25390.2
515.095	25502.84
515.297	26113.14
515.499	26213.49
515.701	26782.82
515.904	27216.99
516.106	26997.86
516.308	27389.02
516.51	27894.87
516.712	27817.05
516.914	28605.52
517.116	28972.1
517.318	28724.3
517.52	29152.32
517.722	29322.3
517.925	30051.38
518.127	30473.26
518.329	30727.21
518.531	30544.94
518.733	31046.69
518.935	31314.98
519.136	31681.56
519.338	32347.15
519.54	32502.8
519.742	32926.73
519.944	33362.95
520.146	33729.53
520.348	33987.58
520.55	33979.39
520.752	34526.19
520.954	35242.98
521.155	35120.1
521.357	35619.81
521.559	35861.47
521.761	36502.48
521.963	36504.53
522.164	36764.62
522.366	37061.58
522.568	37692.35
522.77	37950.4
522.971	38923.18
523.173	38683.57
523.375	39015.34
523.576	38994.86
523.778	39445.41
523.98	39859.1
524.181	40280.99
524.383	40231.83
524.584	41126.8
524.786	41292.68
524.988	41255.82
525.189	41649.03
525.391	42052.48
525.592	42525.56
525.794	42611.57
525.995	42785.65
526.197	42826.61
526.398	43537.26
526.6	43604.84
526.801	44010.34
527.003	44278.62
527.204	44340.06
527.406	44942.16
527.607	44925.78
527.808	45155.15
528.01	45159.25
528.211	45427.53
528.412	46523.19
528.614	46248.77
528.815	46508.86
529.016	47049.52
529.218	46314.3
529.419	47305.52
529.62	47342.38
529.822	47074.1
530.023	47631.15
530.224	47395.63
530.425	48100.13
530.626	47850.28
530.828	47702.82
531.029	49058.58
531.23	48091.94
531.431	48526.11
531.632	48790.3
531.833	48710.42
532.035	49038.1
532.236	49259.28
532.437	49304.34
532.638	49154.83
532.839	49595.15
533.04	50115.33
533.241	48943.89
533.442	50148.1
533.643	49804.04
533.844	49763.08
534.045	50141.95
534.246	49734.41
534.447	50258.69
534.648	50197.25
534.849	50246.4
535.05	50154.24
535.251	50289.41
535.451	50160.39
535.652	50440.96
535.853	50266.88
536.054	50328.32
536.255	51088.12
536.456	50553.6
536.657	51344.11
536.857	50283.26
537.058	50338.56
537.259	51118.84
537.46	51210.99
537.66	50901.75
537.861	51053.3
538.062	50766.59
538.263	51344.11
538.463	50602.75
538.664	50430.72
538.865	51421.94
539.065	51229.43
539.266	50451.2
539.466	51094.26
539.667	50635.52
539.868	51196.66
540.068	50840.31
540.269	51311.35
540.469	51262.19
540.67	50782.97
540.87	50840.31
541.071	50950.9
541.271	51110.64
541.472	51309.3
541.672	50905.85
541.873	50615.04
542.073	50320.13
542.274	51491.57
542.474	51235.57
542.675	50604.8
542.875	50985.72
543.075	51167.99
543.276	50762.49
543.476	51432.18
543.676	50750.2
543.877	51122.93
544.077	51081.97
544.277	50813.69
544.478	51090.16
544.678	50922.23
544.878	51374.83
545.078	51487.47
545.279	50928.37
545.479	50840.31
545.679	51223.28
545.879	50418.43
546.079	51020.53
546.28	51210.99
546.48	50787.07
546.68	51022.58
546.88	51327.73
547.08	51364.59
547.28	51045.11
547.48	50430.72
547.68	50901.75
547.88	51020.53
548.081	51297.01
548.281	50852.6
548.481	51094.26
548.681	51376.88
548.881	51448.56
549.081	51499.76
549.28	50938.61
549.48	51249.91
549.68	50817.78
549.88	51784.43
550.08	51014.39
550.28	51389.17
550.48	50948.85
550.68	51213.04
550.88	50948.85
551.08	51348.21
551.279	51012.34
551.479	50574.08
551.679	50871.03
551.879	50782.97
552.079	50852.6
552.278	50752.25
552.478	51090.16
552.678	50594.56
552.878	51045.11
553.077	50983.67
553.277	50569.98
553.477	51561.2
553.676	50506.49
553.876	50815.74
554.076	50369.28
554.275	50397.95
554.475	50012.93
554.674	50631.42
554.874	50305.79
555.074	49924.87
555.273	50580.22
555.473	50330.37
555.672	50119.43
555.872	49775.37
556.071	49546
556.271	50463.49
556.47	49564.43
556.67	49632.01
556.869	49711.88
557.068	50238.21
557.268	49427.21
557.467	49842.95
557.667	49255.18
557.866	49885.96
558.065	49709.83
558.265	48964.37
558.464	48931.61
558.663	49914.63
558.863	48601.88
559.062	49111.83
559.261	48427.81
559.461	49144.59
559.66	48192.29
559.859	48714.52
560.058	48595.74
560.258	48827.16
560.457	47751.98
560.656	48245.54
560.855	48026.4
561.054	48050.98
561.253	47604.52
561.453	47723.3
561.652	47567.66
561.851	47481.64
562.05	47442.73
562.249	46981.94
562.448	47047.47
562.647	46570.3
562.846	46703.42
563.045	46734.13
563.244	46404.41
563.443	46928.69
563.642	46015.3
563.841	45960
564.04	45794.12
564.239	46359.36
564.438	45333.32
564.637	45884.23
564.836	45667.14
565.035	44786.52
565.234	45153.1
565.432	44624.73
565.631	44475.23
565.83	45198.16
566.029	44507.99
566.228	44149.6
566.427	44184.41
566.625	43803.49
566.824	43252.59
567.023	43875.17
567.222	42886
567.42	43602.79
567.619	43352.94
567.818	43236.2
568.016	42943.34
568.215	42972.02
568.414	42251.13
568.612	43047.79
568.811	42054.53
569.01	42072.96
569.208	41505.67
569.407	42050.43
569.605	41218.96
569.804	41319.31
570.002	40833.94
570.201	41433.99
570.4	40768.4
570.598	40905.62
570.797	40764.31
570.995	40573.84
571.193	40031.13
571.392	40534.93
571.59	39707.55
571.789	40131.48
571.987	39844.77
572.186	39838.62
572.384	39089.07
572.582	39723.94
572.781	39390.12
572.979	38650.8
573.177	38775.73
573.376	38988.72
573.574	38349.75
573.772	38486.96
573.971	38497.2
574.169	37792.7
574.367	37561.28
574.565	38071.23
574.763	37796.8
574.962	37475.27
575.16	37080.01
575.358	37321.67
575.556	36938.7
575.754	37022.67
575.952	36613.07
576.151	36934.6
576.349	36398.04
576.547	36811.73
576.745	36344.79
576.943	36508.63
577.141	35863.52
577.339	35984.35
577.537	35959.77
577.735	35496.93
577.933	35079.14
578.131	35511.27
578.329	35062.76
578.527	35171.3
578.725	35238.89
578.923	35279.85
579.121	34659.31
579.319	34319.35
579.516	34448.37
579.714	34507.76
579.912	34180.09
580.11	34055.16
580.308	34343.92
580.506	34030.58
580.704	33192.97
580.901	33588.22
581.099	34040.82
581.297	33252.36
581.495	33539.07
581.692	33367.04
581.89	33022.98
582.088	32859.15
582.285	32701.45
582.483	33147.91
582.681	33080.33
582.878	32713.74
583.076	32570.38
583.274	32588.81
583.471	32046.1
583.669	32166.93
583.866	32027.67
584.064	31888.41
584.262	31656.99
584.459	31953.94
584.657	31587.36
584.854	31767.58
585.052	31226.92
585.249	31292.45
585.447	31431.71
585.644	30858.28
585.841	31231.01
586.039	31024.17
586.236	30571.57
586.434	30592.05
586.631	30399.54
586.828	30485.55
587.026	30272.56
587.223	30278.71
587.42	30186.55
587.618	30065.72
587.815	29727.8
588.012	29740.09
588.21	29690.94
588.407	29826.1
588.604	29815.87
588.801	29285.44
588.999	28968.01
589.196	29281.35
589.393	29213.76
589.59	28656.71
589.787	28828.74
589.984	28798.02
590.182	28836.94
590.379	28709.96
590.576	28251.22
590.773	28578.89
590.97	28195.92
591.167	28294.22
591.364	27958.36
591.561	28378.19
591.758	28009.56
591.955	28161.11
592.152	27819.1
592.349	27710.55
592.546	27597.91
592.743	27638.87
592.94	27354.21
593.137	27571.29
593.334	27376.73
593.531	27085.92
593.727	26952.8
593.924	27096.16
594.121	27065.44
594.318	26760.3
594.515	26610.79
594.712	27057.25
594.908	26506.35
595.105	26639.47
595.302	26299.5
595.499	26424.43
595.696	26340.46
595.892	26115.19
596.089	26068.08
596.286	25975.92
596.482	25957.49
596.679	25881.72
596.876	25572.47
597.072	25695.35
597.269	25785.46
597.466	25334.91
597.662	25635.96
597.859	25492.6
598.055	25379.96
598.252	25267.33
598.448	25187.46
598.645	25306.24
598.841	24974.47
599.038	24843.4
599.234	25056.39
599.431	24816.77
599.627	24577.16
599.824	24609.93
600.02	24681.61
600.217	24528.01
600.413	24712.33
600.609	24292.49
600.806	24040.59
601.002	23995.54
601.198	23850.13
601.395	23712.92
601.591	23909.52
601.787	23790.74
601.984	23766.17
602.18	23633.05
602.376	23520.41
602.572	23469.21
602.769	23372.96
602.965	23061.66
603.161	23454.87
603.357	23221.41
603.553	23434.39
603.75	22922.4
603.946	22742.18
604.142	22981.79
604.338	22731.94
604.534	22764.71
604.73	22377.64
604.926	22420.65
605.122	22656.17
605.318	22348.97
605.514	22236.33
605.71	22072.5
605.906	22193.33
606.102	22090.93
606.298	22088.88
606.494	21941.43
606.69	22256.81
606.886	21855.41
607.082	21777.59
607.278	21669.05
607.474	21601.46
607.67	21732.53
607.866	21152.96
608.062	21306.55
608.257	21521.59
608.453	21472.44
608.649	21081.28
608.845	21206.2
609.041	21071.04
609.236	21384.38
609.432	20679.88
609.628	20882.63
609.824	20815.04
610.019	20665.54
610.215	20557
610.411	21048.51
610.606	20647.11
610.802	20483.27
610.998	20683.97
611.193	20503.75
611.389	20264.14
611.584	20358.35
611.78	20051.15
611.976	20208.84
612.171	20208.84
612.367	20055.25
612.562	20239.56
612.758	20002
612.953	19719.38
613.149	20163.79
613.344	19997.9
613.539	20221.13
613.735	19942.61
613.93	19703
614.126	19889.36
614.321	19852.5
614.517	19809.49
614.712	19659.99
614.907	19490.01
615.103	19666.13
615.298	19332.31
615.493	19598.55
615.688	19168.48
615.884	19657.94
616.079	19086.56
616.274	19379.42
616.47	19254.49
616.665	19313.88
616.86	18990.3
617.055	18928.86
617.25	19129.56
617.445	19092.7
617.641	18908.38
617.836	18828.51
618.031	18595.04
618.226	18781.41
618.421	18586.85
618.616	18844.9
618.811	18091.24
619.006	18642.15
619.201	18021.61
619.396	18373.86
619.591	18001.13
619.786	18314.47
619.981	18015.47
620.176	18232.55
620.371	17788.14
620.566	17970.41
620.761	17480.95
620.956	17681.65
621.151	17714.42
621.346	17429.75
621.541	17040.64
621.735	17403.13
621.93	16641.28
622.125	17122.55
622.32	17181.95
622.515	17036.54
622.709	16755.97
622.904	16651.52
623.099	16813.31
623.294	16608.51
623.488	16383.24
623.683	16600.32
623.878	16397.57
624.072	16229.64
624.267	16084.23
624.462	15979.79
624.656	15918.35
624.851	15985.93
625.046	15746.32
625.24	15805.71
625.435	15529.24
625.629	15426.84
625.824	15484.18
626.018	15447.32
626.213	15230.23
626.407	15316.25
626.602	15070.49
626.796	15105.31
626.991	15045.91
627.185	14839.07
627.38	14798.11
627.574	14501.15
627.768	14466.34
627.963	14693.66
628.157	14222.63
628.352	14683.42
628.546	14175.53
628.74	14417.19
628.935	14273.83
629.129	14302.5
629.323	13815.09
629.517	13976.87
629.712	13798.7
629.906	13950.25
630.1	13800.75
630.294	13624.62
630.489	13485.36
630.683	13712.69
630.877	13499.7
631.071	13268.28
631.265	13511.99
631.459	13307.19
631.653	13129.02
631.848	13114.68
632.042	12830.01
632.236	12963.13
632.43	13018.43
632.624	12985.66
632.818	12727.61
633.012	12561.73
633.206	12621.12
633.4	12758.33
633.594	12565.82
633.788	12373.32
633.982	12510.53
634.176	12592.45
634.369	12313.92
634.563	12217.67
634.757	12004.68
634.951	12162.37
635.145	12139.85
635.339	12234.05
635.533	11758.92
635.726	11947.34
635.92	11791.69
636.114	11865.42
636.308	11562.32
636.501	11730.25
636.695	11584.85
636.889	11248.98
637.083	11515.22
637.276	11349.33
637.47	11382.1
637.664	11009.37
637.857	11275.6
638.051	11177.3
638.244	10943.83
638.438	10935.64
638.632	11003.22
638.825	10798.43
639.019	10765.66
639.212	10702.17
639.406	10607.97
639.599	10483.04
639.793	10425.7
639.986	10188.13
640.18	10292.58
640.373	10349.92
640.567	10186.08
640.76	10345.83
640.954	10151.27
641.147	10095.97
641.34	10061.16
641.534	9960.81
641.727	9911.66
641.92	9868.65
642.114	9710.96
642.307	9670
642.5	9747.82
642.694	9543.02
642.887	9553.26
643.08	9583.98
643.273	9510.25
643.467	9403.76
643.66	9301.36
643.853	9301.36
644.046	9158
644.239	9035.13
644.432	9217.4
644.626	9024.89
644.819	8785.27
645.012	8928.63
645.205	9004.41
645.398	8820.09
645.591	8742.27
645.784	8787.32
645.977	8715.64
646.17	8637.82
646.363	8629.63
646.556	8633.72
646.749	8445.31
646.942	8498.56
647.135	8459.65
647.328	8275.33
647.521	8426.88
647.714	8306.05
647.907	8310.15
648.099	8213.89
648.292	8310.15
648.485	8269.19
648.678	8103.3
648.871	8052.1
649.064	8113.54
649.256	8074.63
649.449	8074.63
649.642	7935.37
649.835	7732.62
650.027	7755.15
650.22	7667.08
650.413	7820.68
650.605	7966.09
650.798	7710.09
650.991	7593.36
651.183	7695.75
651.376	7503.25
651.568	7564.68
651.761	7320.98
651.954	7454.09
652.146	7363.98
652.339	7409.04
652.531	7437.71
652.724	7306.64
652.916	7323.02
653.109	7298.45
653.301	7300.5
653.494	7282.06
653.686	7044.5
653.879	7183.76
654.071	7097.75
654.263	7075.22
654.456	6981.01
654.648	7026.07
654.84	6946.2
655.033	6829.46
655.225	6806.94
655.417	6651.29
655.61	7036.31
655.802	6794.65
655.994	6782.36
656.186	6559.13
656.379	6753.69
656.571	6761.88
656.763	6565.28
656.955	6460.83
657.148	6620.57
657.34	6538.65
657.532	6532.51
657.724	6438.3
657.916	6530.46
658.108	6520.22
658.3	6450.59
658.492	6391.2
658.684	6360.48
658.876	6290.85
659.068	6413.73
659.26	6284.7
659.452	6114.72
659.644	6305.18
659.836	6141.35
660.028	6217.12
660.22	6079.91
660.412	6041
660.604	6135.2
660.796	6084
660.988	5957.03
661.18	5946.79
661.372	5957.03
661.563	6047.14
661.755	5905.83
661.947	5838.25
662.139	5905.83
662.331	5948.84
662.522	5850.53
662.714	5946.79
662.906	5778.86
663.097	5737.9
663.289	5647.79
663.481	5606.83
663.673	5727.66
663.864	5574.06
664.056	5729.7
664.247	5649.83
664.439	5610.92
664.631	5567.92
664.822	5578.15
665.014	5668.27
665.205	5680.55
665.397	5576.11
665.588	5492.14
665.78	5592.49
665.971	5563.82
666.163	5406.13
666.354	5436.85
666.546	5565.87
666.737	5422.51
666.929	5508.52
667.12	5553.58
667.311	5502.38
667.503	5354.93
667.694	5492.14
667.885	5287.34
668.077	5418.41
668.268	5277.1
668.459	5232.05
668.651	5270.96
668.842	5334.45
669.033	5246.38
669.224	5242.29
669.416	5322.16
669.607	5236.14
669.798	5182.9
669.989	5346.73
670.18	5246.38
670.371	5103.03
670.563	5316.01
670.754	5219.76
670.945	5281.2
671.136	5207.47
671.327	5162.42
671.518	5141.94
671.709	5174.71
671.9	5293.49
672.091	5219.76
672.282	5156.27
672.473	5127.6
672.664	5221.81
672.855	5133.75
673.046	5217.71
673.237	5207.47
673.428	5170.61
673.619	5172.66
673.809	5008.82
674	5270.96
674.191	5215.66
674.382	5223.86
674.573	5385.65
674.764	5080.5
674.954	5205.42
675.145	5258.67
675.336	5166.51
675.527	5135.79
675.717	5340.59
675.908	5232.05
676.099	5281.2
676.289	5135.79
676.48	5248.43
676.671	5234.1
676.861	5414.32
677.052	5176.75
677.243	5174.71
677.433	5279.15
677.624	5486
677.814	5406.13
678.005	5410.22
678.195	5340.59
678.386	5316.01
678.576	5311.92
678.767	5395.89
678.957	5318.06
679.148	5414.32
679.338	5404.08
679.529	5508.52
679.719	5442.99
679.909	5377.45
680.1	5469.61
680.29	5461.42
680.481	5477.8
680.671	5547.44
680.861	5498.28
681.052	5653.93
681.242	5508.52
681.432	5610.92
681.622	5623.21
681.813	5569.96
682.003	5586.35
682.193	5641.64
682.383	5655.98
682.573	5608.87
682.764	5621.16
682.954	5680.55
683.144	5647.79
683.334	5625.26
683.524	5580.2
683.714	5586.35
683.904	5741.99
684.094	5785
684.284	5723.56
684.474	5733.8
684.664	5703.08
684.854	5801.38
685.044	5655.98
685.234	5721.51
685.424	5789.1
685.614	5578.15
685.804	5569.96
685.994	5658.03
686.184	5733.8
686.374	5725.61
686.564	5498.28
686.753	5612.97
686.943	5574.06
687.133	5584.3
687.323	5512.62
687.513	5586.35
687.702	5438.89
687.892	5459.37
688.082	5539.24
688.272	5545.39
688.461	5383.6
688.651	5565.87
688.841	5410.22
689.03	5477.8
689.22	5309.87
689.41	5311.92
689.599	5393.84
689.789	5475.76
689.979	5412.27
690.168	5279.15
690.358	5127.6
690.547	5301.68
690.737	5123.51
690.926	5217.71
691.116	5148.08
691.305	5201.33
691.495	4947.38
691.684	5168.56
691.874	5205.42
692.063	5154.23
692.252	5242.29
692.442	5060.02
692.631	4935.09
692.82	5004.72
693.01	5184.94
693.199	4939.19
693.388	4996.53
693.578	5137.84
693.767	4980.15
693.956	4916.66
694.146	4967.86
694.335	5033.4
694.524	4931
694.713	4887.99
694.902	4928.95
695.092	4865.46
695.281	4994.48
695.47	5078.45
695.659	4920.76
695.848	4857.27
696.037	4840.89
696.226	4961.72
696.415	4982.2
696.604	4945.33
696.793	4820.41
696.982	4924.85
697.171	5012.92
697.36	4996.53
697.549	4896.18
697.738	4978.1
697.927	4849.08
698.116	4971.96
698.305	4992.44
698.494	5041.59
698.683	4816.31
698.872	5139.89
699.061	5045.68
699.25	5035.44
699.438	5027.25
699.627	5055.92
699.816	5010.87
700.005	5029.3
700.193	5115.31
700.382	5227.95
700.571	5094.83
700.76	5207.47
700.948	4988.34
701.137	5023.16
701.326	5066.16
701.514	5045.68
701.703	5180.85
701.892	5017.01
702.08	5103.03
702.269	5160.37
702.457	5047.73
702.646	5133.75
702.834	5203.38
703.023	5170.61
703.212	5168.56
703.4	5043.64
703.589	5201.33
703.777	5248.43
703.965	5082.55
704.154	5027.25
704.342	5254.58
704.531	5316.01
704.719	5246.38
704.907	5287.34
705.096	5334.45
705.284	5250.48
705.472	5377.45
705.661	5234.1
705.849	5242.29
706.037	5313.97
706.226	5234.1
706.414	5309.87
706.602	5250.48
706.79	5565.87
706.979	5322.16
707.167	5291.44
707.355	5303.73
707.543	5303.73
707.731	5277.1
707.919	5379.5
708.107	5391.79
708.296	5365.17
708.484	5248.43
708.672	5316.01
708.86	5328.3
709.048	5559.72
709.236	5551.53
709.424	5545.39
709.612	5434.8
709.8	5461.42
709.988	5291.44
710.176	5488.04
710.364	5494.19
710.551	5668.27
710.739	5596.59
710.927	5600.68
711.115	5580.2
711.303	5572.01
711.491	5615.02
711.679	5647.79
711.866	5475.76
712.054	5621.16
712.242	5692.84
712.43	5748.14
712.617	5688.75
712.805	5590.44
712.993	5655.98
713.181	5623.21
713.368	5643.69
713.556	5764.52
713.744	5641.64
713.931	5952.93
714.119	5944.74
714.306	5725.61
714.494	5692.84
714.682	5731.75
714.869	5819.82
715.057	5819.82
715.244	5791.14
715.432	5938.6
715.619	5807.53
715.807	5887.4
715.994	5705.13
716.182	6045.09
716.369	5758.38
716.556	5821.86
716.744	5799.34
716.931	5864.87
717.119	5903.78
717.306	6118.82
717.493	5846.44
717.681	5893.54
717.868	5971.36
718.055	6094.24
718.242	6016.42
718.43	6047.14
718.617	5924.26
718.804	5983.65
718.991	6000.04
719.179	6118.82
719.366	6159.78
719.553	6020.52
719.74	5971.36
719.927	6092.2
720.114	5944.74
720.301	5971.36
720.488	5854.63
720.676	6118.82
720.863	6055.33
721.05	6237.6
721.237	6094.24
721.424	5989.8
721.611	6081.96
721.798	6090.15
721.985	6059.43
722.172	6206.88
722.358	6145.44
722.545	6112.67
722.732	6102.43
722.919	6104.48
723.106	6133.15
723.293	6241.7
723.48	6127.01
723.667	6217.12
723.853	6059.43
724.04	6192.55
724.227	6133.15
724.414	6114.72
724.6	6079.91
724.787	6256.03
724.974	6124.96
725.161	6159.78
725.347	6311.33
725.534	6043.04
725.72	6149.54
725.907	6172.07
726.094	6292.9
726.28	6272.42
726.467	6241.7
726.653	6135.2
726.84	6221.22
727.027	6290.85
727.213	6143.39
727.4	6249.89
727.586	6215.07
727.773	6135.2
727.959	6280.61
728.145	6327.71
728.332	6163.87
728.518	6184.35
728.705	6329.76
728.891	6170.02
729.077	6237.6
729.264	6143.39
729.45	6202.79
729.636	6270.37
729.823	6184.35
730.009	6258.08
730.195	6186.4
730.382	6290.85
730.568	6161.83
730.754	6348.19
730.94	6088.1
731.126	6370.72
731.313	6387.1
731.499	6282.66
731.685	6466.97
731.871	6266.27
732.057	6182.31
732.243	6272.42
732.429	6190.5
732.615	6311.33
732.801	6274.46
732.987	6256.03
733.173	6213.03
733.359	6188.45
733.545	6184.35
733.731	6200.74
733.917	6098.34
734.103	6274.46
734.289	6299.04
734.475	6249.89
734.661	6190.5
734.847	6241.7
735.033	6067.62
735.219	6292.9
735.404	6219.17
735.59	6043.04
735.776	6245.79
735.962	6221.22
736.148	6278.56
736.333	6153.63
736.519	6112.67
736.705	6172.07
736.89	6249.89
737.076	6020.52
737.262	5961.13
737.447	6190.5
737.633	5871.01
737.819	6069.67
738.004	5967.27
738.19	6030.76
738.375	6096.29
738.561	6147.49
738.747	5977.51
738.932	6059.43
739.118	6217.12
739.303	6020.52
739.489	5981.6
739.674	5930.41
739.859	5832.1
740.045	6034.85
740.23	5891.49
740.416	5840.29
740.601	6012.32
740.786	5883.3
740.972	5823.91
741.157	5969.32
741.342	5754.28
741.528	5850.53
741.713	5762.47
741.898	5834.15
742.084	5690.79
742.269	5774.76
742.454	5737.9
742.639	5819.82
742.824	5520.81
743.01	5520.81
743.195	5660.07
743.38	5584.3
743.565	5602.73
743.75	5557.68
743.935	5567.92
744.12	5535.15
744.305	5420.46
744.49	5414.32
744.675	5215.66
744.86	5363.12
745.045	5426.61
745.23	5381.55
745.415	5221.81
745.6	5369.26
745.785	5301.68
745.97	5205.42
746.155	5162.42
746.34	5164.47
746.525	5164.47
746.71	5367.21
746.895	5168.56
747.079	5019.06
747.264	5062.07
747.449	5010.87
747.634	4971.96
747.819	4867.51
748.003	4791.73
748.188	4898.23
748.373	4849.08
748.557	4820.41
748.742	4654.52
748.927	4824.5
749.111	4853.17
749.296	4779.45
749.481	4644.28
749.665	4650.43
749.85	4486.59
750.034	4709.82
750.219	4558.27
750.404	4558.27
750.588	4527.55
750.773	4507.07
750.957	4476.35
751.141	4406.72
751.326	4365.76
751.51	4140.48
751.695	4095.43
751.879	4355.52
752.064	4328.89
752.248	4152.77
752.432	4072.9
752.617	4044.23
752.801	4087.23
752.985	4056.51
753.17	4087.23
753.354	4029.89
753.538	4050.37
753.722	3874.24
753.907	3896.77
754.091	3927.49
754.275	3960.26
754.459	3911.11
754.643	3775.94
754.828	3800.52
755.012	3706.31
755.196	3790.28
755.38	3632.58
755.564	3521.99
755.748	3579.34
755.932	3585.48
756.116	3515.85
756.3	3608.01
756.484	3495.37
756.668	3421.64
756.852	3403.21
757.036	3390.92
757.22	3411.4
757.404	3481.03
757.588	3407.31
757.772	3489.23
757.956	3266
758.14	3284.43
758.323	3161.55
758.507	3210.7
758.691	3284.43
758.875	3145.17
759.059	3325.39
759.242	3128.78
759.426	3167.7
759.61	3112.4
759.794	3067.35
759.977	3202.51
760.161	3194.32
760.345	3038.67
760.528	3204.56
760.712	3190.22
760.895	2899.41
761.079	3044.82
761.263	2977.23
761.446	2934.23
761.63	2711
761.813	2850.26
761.997	2807.25
762.18	2895.32
762.364	2872.79
762.547	2807.25
762.731	2797.01
762.914	2858.45
763.098	2711
763.281	2711
763.464	2674.14
763.648	2686.42
763.831	2674.14
764.015	2696.66
764.198	2657.75
764.381	2588.12
764.564	2708.95
764.748	2584.02
764.931	2624.98
765.114	2645.46
765.297	2581.98
765.481	2610.65
765.664	2430.43
765.847	2608.6
766.03	2575.83
766.213	2407.9
766.397	2569.69
766.58	2438.62
766.763	2547.16
766.946	2551.26
767.129	2401.76
767.312	2409.95
767.495	2323.93
767.678	2276.83
767.861	2467.29
768.044	2391.52
768.227	2438.62
768.41	2233.82
768.593	2336.22
768.776	2336.22
768.959	2346.46
769.142	2313.69
769.324	2209.25
769.507	2307.55
769.69	2299.36
769.873	2258.4
770.056	2301.4
770.239	2129.38
770.421	2342.36
770.604	2270.69
770.787	2280.93
770.97	2244.06
771.152	2018.79
771.335	2086.37
771.518	2133.47
771.7	2162.14
771.883	2170.33
772.066	2004.45
772.248	2178.53
772.431	2096.61
772.613	1998.31
772.796	1916.39
772.978	2145.76
773.161	2020.83
773.343	1983.97
773.526	1904.1
773.708	2000.35
773.891	1893.86
774.073	1867.24
774.256	1920.48
774.438	1914.34
774.621	1865.19
774.803	1900
774.985	1834.47
775.168	1891.81
775.35	1826.28
775.532	1895.91
775.715	1701.35
775.897	1803.75
776.079	1705.45
776.261	1766.89
776.444	1791.46
776.626	1709.54
776.808	1637.86
776.99	1719.78
777.173	1701.35
777.355	1687.01
777.537	1676.77
777.719	1588.71
777.901	1670.63
778.083	1576.42
778.265	1482.22
778.447	1588.71
778.629	1572.33
778.811	1646.05
778.993	1594.86
779.175	1619.43
779.357	1437.16
779.539	1478.12
779.721	1519.08
779.903	1535.46
780.085	1334.76
780.267	1455.59
780.449	1400.3
780.631	1476.07
780.812	1428.97
780.994	1383.91
781.176	1375.72
781.358	1428.97
781.54	1314.28
781.721	1390.06
781.903	1326.57
782.085	1363.44
782.267	1357.29
782.448	1250.8
782.63	1349.1
782.812	1416.68
782.993	1215.98
783.175	1371.63
783.357	1127.92
783.538	1277.42
783.72	1211.89
783.901	1148.4
784.083	1242.61
784.264	1129.97
784.446	1111.54
784.627	1072.62
784.809	1252.84
784.99	1164.78
785.172	1168.88
785.353	1023.47
785.535	1105.39
785.716	1101.3
785.897	1023.47
786.079	1064.43
786.26	1089.01
786.441	1113.58
786.623	1068.53
786.804	980.47
786.985	974.32
787.167	998.9
787.348	949.75
787.529	937.46
787.71	1072.62
787.891	1099.25
788.073	998.9
788.254	1093.1
788.435	1054.19
788.616	1031.66
788.797	792.05
788.978	1054.19
789.159	970.23
789.34	984.56
789.522	959.99
789.703	888.31
789.884	906.74
790.065	880.11
790.246	949.75
790.427	814.58
790.607	992.75
790.788	900.59
790.969	890.35
791.15	839.16
791.331	867.83
791.512	835.06
791.693	781.81
791.874	738.8
792.054	792.05
792.235	892.4
792.416	761.33
792.597	814.58
792.778	878.07
792.958	800.24
793.139	785.91
793.32	732.66
793.5	753.14
793.681	769.52
793.862	794.1
794.042	699.89
794.223	779.76
794.404	794.1
794.584	728.56
794.765	763.38
794.945	736.76
795.126	839.16
795.306	835.06
795.487	691.7
795.667	669.17
795.848	753.14
796.028	671.22
796.209	683.51
796.389	759.28
796.57	640.5
796.75	669.17
796.93	757.24
797.111	648.69
797.291	669.17
797.471	742.9
797.652	660.98
797.832	568.82
798.012	716.28
798.192	564.73
798.373	605.69
798.553	593.4
798.733	628.21
798.913	601.59
799.093	634.36
799.274	617.97
799.454	650.74
799.634	601.59
799.814	548.34
799.994	636.41
800.174	695.8
800.354	499.19
800.534	550.39
800.714	574.97
800.894	564.73
801.074	595.45
801.254	568.82
801.434	589.3
801.614	634.36
801.794	476.66
801.974	1256.94
802.154	546.3
802.334	595.45
802.514	503.29
802.693	546.3
802.873	579.06
803.053	536.06
803.233	511.48
803.413	536.06
803.592	570.87
803.772	589.3
803.952	548.34
804.131	505.34
804.311	550.39
804.491	593.4
804.67	519.67
804.85	439.8
805.03	474.62
805.209	503.29
805.389	488.95
805.568	491
805.748	464.38
805.928	491
806.107	474.62
806.287	513.53
806.466	529.91
806.646	433.66
806.825	507.38
807.004	480.76
807.184	499.19
807.363	540.15
807.543	409.08
807.722	447.99
807.901	488.95
808.081	513.53
808.26	427.51
808.439	458.23
808.619	493.05
808.798	364.03
808.977	450.04
809.156	484.86
809.336	423.42
809.515	523.77
809.694	441.85
809.873	447.99
810.052	409.08
810.231	536.06
810.411	417.27
810.59	450.04
810.769	390.65
810.948	380.41
811.127	378.36
811.306	388.6
811.485	357.88
811.664	474.62
811.843	384.51
812.022	466.42
812.201	347.64
812.38	366.07
812.559	415.23
812.737	398.84
812.916	310.78
813.095	364.03
813.274	398.84
813.453	321.02
813.632	417.27
813.811	370.17
813.989	327.16
814.168	310.78
814.347	339.45
814.526	331.26
814.704	298.49
814.883	368.12
815.062	286.2
815.24	433.66
815.419	310.78
815.598	318.97
815.776	314.88
815.955	361.98
816.133	290.3
816.312	425.47
816.49	361.98
816.669	339.45
816.847	298.49
817.026	255.48
817.204	220.67
817.383	296.44
817.561	366.07
817.74	355.83
817.918	298.49
818.097	267.77
818.275	316.92
818.453	267.77
818.632	392.7
818.81	333.31
818.988	359.93
819.167	239.1
819.345	351.74
819.523	228.86
819.701	278.01
819.879	310.78
820.058	333.31
820.236	318.97
820.414	333.31
820.592	232.96
820.77	243.2
820.948	316.92
821.127	200.19
821.305	290.3
821.483	235
821.661	384.51
821.839	275.96
822.017	253.44
822.195	235
822.373	280.06
822.551	253.44
822.729	359.93
822.907	189.95
823.085	245.24
823.262	284.16
823.44	312.83
823.618	243.2
823.796	259.58
823.974	245.24
824.152	232.96
824.329	275.96
824.507	257.53
824.685	294.4
824.863	294.4
825.04	235
825.218	239.1
825.396	237.05
825.574	312.83
825.751	228.86
825.929	253.44
826.107	288.25
826.284	232.96
826.462	310.78
826.639	161.28
826.817	179.71
826.994	220.67
827.172	235
827.349	220.67
827.527	216.57
827.704	204.28
827.882	249.34
828.059	204.28
828.237	173.57
828.414	230.91
828.591	89.6
828.769	220.67
828.946	187.9
829.124	267.77
829.301	241.15
829.478	267.77
829.655	237.05
829.833	161.28
830.01	194.05
830.187	259.58
830.364	167.42
830.542	241.15
830.719	189.95
830.896	189.95
831.073	245.24
831.25	228.86
831.427	161.28
831.604	179.71
831.782	171.52
831.959	206.33
832.136	230.91
832.313	216.57
832.49	101.89
832.667	206.33
832.844	228.86
833.021	214.52
833.198	220.67
833.374	179.71
833.551	286.2
833.728	187.9
833.905	198.14
834.082	132.61
834.259	151.04
834.436	216.57
834.612	130.56
834.789	105.98
834.966	218.62
835.143	163.33
835.319	187.9
835.496	161.28
835.673	110.08
835.85	267.77
836.026	169.47
836.203	146.94
836.38	122.37
836.556	192
836.733	214.52
836.909	175.61
837.086	155.13
837.262	159.23
837.439	224.76
837.616	126.46
837.792	136.7
837.968	122.37
838.145	103.93
838.321	140.8
838.498	136.7
838.674	124.41
838.851	196.09
839.027	144.89
839.203	155.13
839.38	185.85
839.556	171.52
839.732	171.52
839.909	138.75
840.085	116.22
840.261	105.98
840.437	171.52
840.614	138.75
840.79	81.41
840.966	167.42
841.142	165.37
841.318	124.41
841.494	134.65
841.671	220.67
841.847	134.65
842.023	40.45
842.199	79.36
842.375	210.43
842.551	103.93
842.727	67.07
842.903	155.13
843.079	110.08
843.255	181.76
843.431	159.23
843.607	155.13
843.783	40.45
843.959	171.52
844.134	73.21
844.31	144.89
844.486	173.57
844.662	110.08
844.838	103.93
845.013	62.98
845.189	138.75
845.365	120.32
845.541	155.13
845.716	128.51
845.892	120.32
846.068	58.88
846.244	126.46
846.419	136.7
846.595	101.89
846.77	97.79
846.946	175.61
847.122	175.61
847.297	151.04
847.473	136.7
847.648	83.45
847.824	153.09
847.999	34.3
848.175	161.28
848.35	81.41
848.526	136.7
848.701	175.61
848.876	204.28
849.052	118.27
849.227	60.93
849.403	67.07
849.578	22.02
849.753	81.41
849.929	118.27
850.104	62.98
850.279	108.03
850.454	89.6
850.63	151.04
850.805	103.93
850.98	60.93
851.155	62.98
851.33	81.41
851.505	69.12
851.681	95.74
851.856	71.17
852.031	89.6
852.206	83.45
852.381	95.74
852.556	44.54
852.731	87.55
852.906	81.41
853.081	77.31
853.256	95.74
853.431	54.78
853.606	99.84
853.781	38.4
853.956	54.78
854.131	89.6
854.305	91.65
854.48	48.64
854.655	48.64
854.83	24.06
855.005	146.94
855.18	130.56
855.354	75.26
855.529	85.5
855.704	75.26
855.879	128.51
856.053	73.21
856.228	103.93
856.403	69.12
856.577	58.88
856.752	79.36
856.926	-12.8
857.101	101.89
857.276	79.36
857.45	97.79
857.625	79.36
857.799	48.64
857.974	17.92
858.148	46.59
858.323	56.83
858.497	32.26
858.672	32.26
858.846	97.79
859.02	128.51
859.195	128.51
859.369	56.83
859.543	89.6
859.718	79.36
859.892	79.36
860.066	65.02
860.241	-8.7
860.415	101.89
860.589	13.82
860.763	46.59
860.938	116.22
861.112	130.56
861.286	40.45
861.46	161.28
861.634	19.97
861.808	62.98
861.982	24.06
862.157	-0.51
862.331	95.74
862.505	44.54
862.679	-18.94
862.853	62.98
863.027	-10.75
863.201	69.12
863.375	48.64
863.549	75.26
863.722	79.36
863.896	114.17
864.07	-82.43
864.244	30.21
864.418	128.51
864.592	99.84
864.766	40.45
864.939	40.45
865.113	50.69
865.287	95.74
865.461	-20.99
865.634	130.56
865.808	93.69
865.982	17.92
866.156	85.5
866.329	24.06
866.503	1.54
866.676	81.41
866.85	24.06
867.024	15.87
867.197	56.83
867.371	138.75
867.544	-35.33
867.718	-37.38
867.891	52.74
868.065	30.21
868.238	19.97
868.412	91.65
868.585	79.36
868.759	-12.8
868.932	89.6
869.105	-12.8
869.279	65.02
869.452	67.07
869.625	5.63
869.799	93.69
869.972	17.92
870.145	5.63
870.319	48.64
870.492	24.06
870.665	48.64
870.838	40.45
871.011	28.16
871.185	32.26
871.358	52.74
871.531	32.26
871.704	40.45
871.877	13.82
872.05	69.12
872.223	-23.04
872.396	40.45
872.569	83.45
872.742	24.06
872.915	-39.42
873.088	-0.51
873.261	15.87
873.434	62.98
873.607	28.16
873.78	46.59
873.953	15.87
874.126	-0.51
874.299	81.41
874.471	46.59
874.644	5.63
874.817	54.78
874.99	46.59
875.163	38.4
875.335	44.54
875.508	22.02
875.681	5.63
875.853	-23.04
876.026	44.54
876.199	11.78
876.371	40.45
876.544	-45.57
876.717	26.11
876.889	58.88
877.062	40.45
877.234	-23.04
877.407	46.59
877.579	24.06
877.752	28.16
877.924	1.54
878.097	32.26
878.269	-41.47
878.442	85.5
878.614	60.93
878.786	87.55
878.959	48.64
879.131	28.16
879.303	13.82
879.476	38.4
879.648	5.63
879.82	58.88
879.993	65.02
880.165	44.54
880.337	-25.09
880.509	-57.86
880.681	19.97
880.854	-14.85
881.026	-74.24
881.198	105.98
881.37	71.17
881.542	22.02
881.714	-10.75
881.886	65.02
882.058	13.82
882.23	1.54
882.402	73.21
882.574	11.78
882.746	95.74
882.918	65.02
883.09	40.45
883.262	1.54
883.434	-12.8
883.606	65.02
883.778	48.64
883.95	75.26
884.122	-8.7
884.293	71.17
884.465	19.97
884.637	15.87
884.809	-57.86
884.98	15.87
885.152	30.21
885.324	-25.09
885.496	-10.75
885.667	-29.18
885.839	-8.7
886.011	52.74
886.182	65.02
886.354	114.17
886.525	22.02
886.697	9.73
886.869	50.69
887.04	17.92
887.212	97.79
887.383	62.98
887.555	56.83
887.726	-4.61
887.897	3.58
888.069	58.88
888.24	24.06
888.412	-2.56
888.583	36.35
888.754	-51.71
888.926	-29.18
889.097	-8.7
889.268	-29.18
889.44	-20.99
889.611	62.98
889.782	15.87
889.953	15.87
890.125	32.26
890.296	15.87
890.467	28.16
890.638	69.12
890.809	-20.99
890.98	11.78
891.151	5.63
891.323	28.16
891.494	1.54
891.665	30.21
891.836	40.45
892.007	19.97
892.178	34.3
892.349	-25.09
892.52	-51.71
892.691	-0.51
892.862	56.83
893.032	-61.95
893.203	-16.9
893.374	54.78
893.545	56.83
893.716	-16.9
893.887	48.64
894.057	-35.33
894.228	-29.18
894.399	40.45
894.57	81.41
894.74	-53.76
894.911	15.87
895.082	69.12
895.253	-12.8
895.423	28.16
895.594	38.4
895.764	48.64
895.935	-84.48
896.106	77.31
896.276	-51.71
896.447	42.5
896.617	-4.61
896.788	1.54
896.958	-51.71
897.129	-27.14
897.299	5.63
897.47	-35.33
897.64	73.21
897.81	-2.56
897.981	1.54
898.151	-109.05
898.322	-45.57
898.492	40.45
898.662	-76.29
898.832	38.4
899.003	32.26
899.173	40.45
899.343	-68.09
899.513	-70.14
