Data from USB4F104151__104__11-32-23-500.txt Node

Date: Fri Mar 14 11:32:23 EDT 2025
User: louis
Spectrometer: USB4F10415
Trigger mode: 4
Integration Time (sec): 5.000000E-2
Scans to average: 1
Electric dark correction enabled: true
Nonlinearity correction enabled: false
Boxcar width: 0
XAxis mode: Wavelengths
Number of Pixels in Spectrum: 3648
>>>>>Begin Spectral Data<<<<<
178.204	-197.29
178.424	-197.29
178.644	-197.29
178.864	-146.09
179.084	-129.7
179.304	-92.84
179.524	9.56
179.744	58.71
179.964	-8.87
180.184	-2.73
180.404	17.75
180.624	-51.88
180.844	19.8
181.064	-64.17
181.283	15.7
181.503	-41.64
181.723	140.63
181.943	-47.79
182.163	66.9
182.383	13.65
182.602	42.32
182.822	-19.11
183.042	30.04
183.262	17.75
183.482	-6.83
183.701	9.56
183.921	13.65
184.141	23.89
184.361	42.32
184.58	-47.79
184.8	50.52
185.02	-41.64
185.239	75.09
185.459	75.09
185.679	68.95
185.898	-12.97
186.118	9.56
186.338	23.89
186.557	95.57
186.777	-0.68
186.997	21.85
187.216	-19.11
187.436	97.62
187.655	87.38
187.875	-29.35
188.095	116.05
188.314	103.76
188.534	52.56
188.753	-29.35
188.973	40.28
189.192	150.87
189.412	27.99
189.631	60.76
189.851	56.66
190.07	58.71
190.29	7.51
190.509	-23.21
190.729	40.28
190.948	83.28
191.168	91.48
191.387	44.37
191.607	-6.83
191.826	1.37
192.045	54.61
192.265	25.94
192.484	-23.21
192.704	-31.4
192.923	-31.4
193.142	111.96
193.362	58.71
193.581	-6.83
193.8	56.66
194.02	107.86
194.239	1.37
194.458	-0.68
194.678	71
194.897	34.13
195.116	17.75
195.335	-19.11
195.555	9.56
195.774	-35.5
195.993	60.76
196.212	58.71
196.432	-4.78
196.651	-6.83
196.87	-49.83
197.089	85.33
197.308	32.08
197.528	89.43
197.747	-41.64
197.966	30.04
198.185	105.81
198.404	-55.98
198.623	44.37
198.842	21.85
199.062	103.76
199.281	25.94
199.5	54.61
199.719	77.14
199.938	32.08
200.157	124.24
200.376	15.7
200.595	42.32
200.814	-4.78
201.033	15.7
201.252	68.95
201.471	34.13
201.69	50.52
201.909	40.28
202.128	34.13
202.347	101.72
202.566	62.8
202.785	-58.03
203.004	-15.02
203.223	187.73
203.442	81.24
203.661	-0.68
203.879	105.81
204.098	64.85
204.317	-35.5
204.536	50.52
204.755	42.32
204.974	56.66
205.193	58.71
205.411	95.57
205.63	42.32
205.849	83.28
206.068	44.37
206.287	79.19
206.505	5.46
206.724	-15.02
206.943	77.14
207.162	19.8
207.381	40.28
207.599	56.66
207.818	46.42
208.037	32.08
208.255	-10.92
208.474	103.76
208.693	-15.02
208.911	7.51
209.13	48.47
209.349	56.66
209.567	32.08
209.786	25.94
210.005	64.85
210.223	118.1
210.442	17.75
210.661	46.42
210.879	38.23
211.098	9.56
211.316	-2.73
211.535	34.13
211.753	46.42
211.972	66.9
212.191	15.7
212.409	83.28
212.628	9.56
212.846	30.04
213.065	97.62
213.283	99.67
213.502	13.65
213.72	83.28
213.938	48.47
214.157	-12.97
214.375	50.52
214.594	-0.68
214.812	21.85
215.031	146.77
215.249	34.13
215.467	126.29
215.686	-10.92
215.904	66.9
216.122	-6.83
216.341	99.67
216.559	38.23
216.778	87.38
216.996	44.37
217.214	-29.35
217.432	-6.83
217.651	-47.79
217.869	83.28
218.087	116.05
218.306	27.99
218.524	17.75
218.742	25.94
218.96	66.9
219.179	-4.78
219.397	1.37
219.615	99.67
219.833	62.8
220.051	1.37
220.27	66.9
220.488	44.37
220.706	30.04
220.924	15.7
221.142	15.7
221.36	83.28
221.578	-27.31
221.796	68.95
222.015	-2.73
222.233	-6.83
222.451	42.32
222.669	36.18
222.887	126.29
223.105	130.39
223.323	38.23
223.541	15.7
223.759	97.62
223.977	66.9
224.195	93.52
224.413	54.61
224.631	101.72
224.849	50.52
225.067	97.62
225.285	25.94
225.503	71
225.721	-33.45
225.939	154.96
226.157	40.28
226.375	165.2
226.592	-51.88
226.81	50.52
227.028	50.52
227.246	34.13
227.464	5.46
227.682	66.9
227.9	15.7
228.117	25.94
228.335	114
228.553	23.89
228.771	-15.02
228.989	91.48
229.206	163.15
229.424	-43.69
229.642	-0.68
229.86	44.37
230.077	44.37
230.295	91.48
230.513	75.09
230.731	48.47
230.948	9.56
231.166	50.52
231.384	23.89
231.601	13.65
231.819	64.85
232.037	58.71
232.254	44.37
232.472	83.28
232.689	-8.87
232.907	1.37
233.125	25.94
233.342	15.7
233.56	15.7
233.777	-10.92
233.995	25.94
234.213	1.37
234.43	83.28
234.648	48.47
234.865	46.42
235.083	111.96
235.3	1.37
235.518	25.94
235.735	97.62
235.953	58.71
236.17	85.33
236.388	-25.26
236.605	17.75
236.822	40.28
237.04	62.8
237.257	-0.68
237.475	-2.73
237.692	42.32
237.909	58.71
238.127	-0.68
238.344	62.8
238.562	1.37
238.779	58.71
238.996	32.08
239.214	40.28
239.431	105.81
239.648	9.56
239.865	30.04
240.083	75.09
240.3	-51.88
240.517	25.94
240.735	50.52
240.952	103.76
241.169	34.13
241.386	-23.21
241.603	-27.31
241.821	-2.73
242.038	83.28
242.255	58.71
242.472	9.56
242.689	40.28
242.907	79.19
243.124	-31.4
243.341	30.04
243.558	42.32
243.775	-47.79
243.992	15.7
244.209	46.42
244.426	95.57
244.643	109.91
244.86	-10.92
245.078	56.66
245.295	40.28
245.512	-39.59
245.729	64.85
245.946	77.14
246.163	-25.26
246.38	50.52
246.597	3.41
246.814	13.65
247.031	50.52
247.248	52.56
247.464	64.85
247.681	3.41
247.898	34.13
248.115	38.23
248.332	-15.02
248.549	101.72
248.766	132.44
248.983	83.28
249.2	9.56
249.417	91.48
249.633	-55.98
249.85	64.85
250.067	-31.4
250.284	89.43
250.501	97.62
250.717	105.81
250.934	-15.02
251.151	62.8
251.368	-19.11
251.585	1.37
251.801	-23.21
252.018	-10.92
252.235	9.56
252.451	30.04
252.668	-27.31
252.885	107.86
253.102	83.28
253.318	56.66
253.535	17.75
253.752	46.42
253.968	73.04
254.185	21.85
254.401	64.85
254.618	-8.87
254.835	40.28
255.051	85.33
255.268	38.23
255.484	42.32
255.701	7.51
255.917	91.48
256.134	23.89
256.351	-17.07
256.567	-12.97
256.784	34.13
257	15.7
257.217	79.19
257.433	42.32
257.65	56.66
257.866	54.61
258.082	-131.75
258.299	38.23
258.515	30.04
258.732	34.13
258.948	30.04
259.165	27.99
259.381	66.9
259.597	44.37
259.814	-2.73
260.03	66.9
260.246	-43.69
260.463	19.8
260.679	9.56
260.895	11.61
261.112	58.71
261.328	15.7
261.544	9.56
261.761	81.24
261.977	-27.31
262.193	-4.78
262.409	75.09
262.626	38.23
262.842	25.94
263.058	62.8
263.274	107.86
263.49	42.32
263.707	19.8
263.923	56.66
264.139	21.85
264.355	77.14
264.571	30.04
264.787	75.09
265.004	50.52
265.22	91.48
265.436	30.04
265.652	25.94
265.868	85.33
266.084	-107.18
266.3	11.61
266.516	38.23
266.732	40.28
266.948	66.9
267.164	17.75
267.38	54.61
267.596	-33.45
267.812	111.96
268.028	52.56
268.244	79.19
268.46	40.28
268.676	9.56
268.892	25.94
269.108	91.48
269.324	-25.26
269.54	36.18
269.756	87.38
269.972	13.65
270.188	9.56
270.403	48.47
270.619	13.65
270.835	1.37
271.051	60.76
271.267	42.32
271.483	30.04
271.698	111.96
271.914	56.66
272.13	77.14
272.346	44.37
272.562	66.9
272.777	15.7
272.993	48.47
273.209	38.23
273.425	58.71
273.64	17.75
273.856	73.04
274.072	66.9
274.287	-17.07
274.503	48.47
274.719	1.37
274.934	9.56
275.15	-31.4
275.366	25.94
275.581	25.94
275.797	64.85
276.012	13.65
276.228	-12.97
276.444	75.09
276.659	81.24
276.875	23.89
277.09	73.04
277.306	36.18
277.521	50.52
277.737	3.41
277.952	138.58
278.168	89.43
278.383	60.76
278.599	25.94
278.814	19.8
279.03	56.66
279.245	81.24
279.461	71
279.676	48.47
279.892	-17.07
280.107	-19.11
280.322	58.71
280.538	75.09
280.753	25.94
280.969	91.48
281.184	-29.35
281.399	85.33
281.615	62.8
281.83	75.09
282.045	-2.73
282.26	-6.83
282.476	89.43
282.691	68.95
282.906	-25.26
283.122	75.09
283.337	13.65
283.552	25.94
283.767	48.47
283.983	97.62
284.198	75.09
284.413	111.96
284.628	-72.36
284.843	27.99
285.058	79.19
285.274	27.99
285.489	-8.87
285.704	-29.35
285.919	1.37
286.134	13.65
286.349	34.13
286.564	23.89
286.779	75.09
286.995	11.61
287.21	-29.35
287.425	46.42
287.64	79.19
287.855	34.13
288.07	-8.87
288.285	89.43
288.5	101.72
288.715	50.52
288.93	25.94
289.145	25.94
289.36	-0.68
289.575	23.89
289.79	-41.64
290.004	66.9
290.219	81.24
290.434	9.56
290.649	48.47
290.864	1.37
291.079	81.24
291.294	97.62
291.509	138.58
291.724	-6.83
291.938	-2.73
292.153	30.04
292.368	48.47
292.583	77.14
292.798	9.56
293.012	32.08
293.227	-23.21
293.442	42.32
293.657	9.56
293.871	3.41
294.086	64.85
294.301	19.8
294.516	56.66
294.73	91.48
294.945	-41.64
295.16	32.08
295.374	124.24
295.589	9.56
295.804	-31.4
296.018	30.04
296.233	36.18
296.447	38.23
296.662	17.75
296.877	101.72
297.091	42.32
297.306	-2.73
297.52	71
297.735	56.66
297.949	62.8
298.164	66.9
298.378	42.32
298.593	38.23
298.807	27.99
299.022	79.19
299.236	75.09
299.451	48.47
299.665	40.28
299.88	83.28
300.094	-6.83
300.309	19.8
300.523	-33.45
300.737	66.9
300.952	13.65
301.166	68.95
301.381	25.94
301.595	-8.87
301.809	75.09
302.024	-2.73
302.238	-0.68
302.452	79.19
302.667	73.04
302.881	32.08
303.095	54.61
303.309	-21.16
303.524	34.13
303.738	21.85
303.952	-41.64
304.166	87.38
304.381	50.52
304.595	91.48
304.809	-6.83
305.023	75.09
305.237	-0.68
305.452	-23.21
305.666	120.15
305.88	91.48
306.094	71
306.308	44.37
306.522	40.28
306.736	68.95
306.95	81.24
307.164	87.38
307.379	30.04
307.593	62.8
307.807	83.28
308.021	42.32
308.235	46.42
308.449	-15.02
308.663	3.41
308.877	40.28
309.091	17.75
309.305	93.52
309.519	1.37
309.733	42.32
309.947	62.8
310.161	25.94
310.374	85.33
310.588	87.38
310.802	46.42
311.016	36.18
311.23	118.1
311.444	71
311.658	1.37
311.872	40.28
312.085	30.04
312.299	73.04
312.513	62.8
312.727	66.9
312.941	-31.4
313.154	58.71
313.368	1.37
313.582	58.71
313.796	42.32
314.009	44.37
314.223	66.9
314.437	73.04
314.651	83.28
314.864	-8.87
315.078	25.94
315.292	48.47
315.505	13.65
315.719	50.52
315.933	54.61
316.146	30.04
316.36	1.37
316.573	81.24
316.787	81.24
317.001	66.9
317.214	15.7
317.428	56.66
317.641	-0.68
317.855	44.37
318.068	13.65
318.282	44.37
318.495	54.61
318.709	54.61
318.922	25.94
319.136	99.67
319.349	52.56
319.563	-51.88
319.776	46.42
319.99	-17.07
320.203	44.37
320.417	58.71
320.63	23.89
320.843	89.43
321.057	54.61
321.27	73.04
321.483	50.52
321.697	95.57
321.91	46.42
322.124	97.62
322.337	81.24
322.55	83.28
322.763	40.28
322.977	32.08
323.19	95.57
323.403	25.94
323.617	93.52
323.83	107.86
324.043	107.86
324.256	7.51
324.469	-33.45
324.683	89.43
324.896	23.89
325.109	95.57
325.322	3.41
325.535	122.2
325.748	73.04
325.962	13.65
326.175	62.8
326.388	91.48
326.601	130.39
326.814	1.37
327.027	50.52
327.24	62.8
327.453	-17.07
327.666	52.56
327.879	85.33
328.092	23.89
328.305	42.32
328.518	73.04
328.731	103.76
328.944	-2.73
329.157	-21.16
329.37	58.71
329.583	83.28
329.796	124.24
330.009	-55.98
330.222	144.72
330.435	58.71
330.648	89.43
330.861	46.42
331.073	58.71
331.286	52.56
331.499	64.85
331.712	91.48
331.925	54.61
332.138	75.09
332.35	91.48
332.563	-6.83
332.776	75.09
332.989	36.18
333.202	56.66
333.414	-8.87
333.627	97.62
333.84	-39.59
334.053	97.62
334.265	46.42
334.478	73.04
334.691	58.71
334.903	17.75
335.116	-88.75
335.329	17.75
335.541	50.52
335.754	138.58
335.966	44.37
336.179	42.32
336.392	66.9
336.604	120.15
336.817	71
337.029	66.9
337.242	66.9
337.454	85.33
337.667	58.71
337.88	146.77
338.092	40.28
338.305	132.44
338.517	42.32
338.729	126.29
338.942	58.71
339.154	-19.11
339.367	-0.68
339.579	107.86
339.792	-43.69
340.004	17.75
340.217	11.61
340.429	32.08
340.641	97.62
340.854	23.89
341.066	46.42
341.278	79.19
341.491	107.86
341.703	30.04
341.915	36.18
342.128	79.19
342.34	64.85
342.552	30.04
342.764	13.65
342.977	87.38
343.189	54.61
343.401	40.28
343.613	-29.35
343.826	62.8
344.038	-29.35
344.25	101.72
344.462	-2.73
344.674	124.24
344.886	54.61
345.099	46.42
345.311	75.09
345.523	23.89
345.735	-6.83
345.947	124.24
346.159	81.24
346.371	34.13
346.583	66.9
346.795	75.09
347.007	48.47
347.219	97.62
347.431	91.48
347.643	58.71
347.855	7.51
348.067	50.52
348.279	1.37
348.491	109.91
348.703	-27.31
348.915	5.46
349.127	56.66
349.339	54.61
349.551	64.85
349.763	34.13
349.975	83.28
350.187	146.77
350.399	77.14
350.61	42.32
350.822	3.41
351.034	46.42
351.246	42.32
351.458	34.13
351.669	73.04
351.881	122.2
352.093	60.76
352.305	107.86
352.517	64.85
352.728	42.32
352.94	15.7
353.152	46.42
353.363	32.08
353.575	7.51
353.787	75.09
353.999	58.71
354.21	97.62
354.422	62.8
354.633	21.85
354.845	75.09
355.057	99.67
355.268	17.75
355.48	116.05
355.692	25.94
355.903	103.76
356.115	-41.64
356.326	-17.07
356.538	46.42
356.749	34.13
356.961	44.37
357.172	52.56
357.384	73.04
357.595	62.8
357.807	73.04
358.018	54.61
358.23	91.48
358.441	79.19
358.653	66.9
358.864	-23.21
359.075	46.42
359.287	42.32
359.498	136.53
359.709	105.81
359.921	42.32
360.132	111.96
360.344	60.76
360.555	56.66
360.766	124.24
360.977	56.66
361.189	68.95
361.4	73.04
361.611	7.51
361.823	32.08
362.034	60.76
362.245	81.24
362.456	25.94
362.667	111.96
362.879	-25.26
363.09	62.8
363.301	40.28
363.512	85.33
363.723	-4.78
363.935	-19.11
364.146	64.85
364.357	66.9
364.568	30.04
364.779	9.56
364.99	138.58
365.201	66.9
365.412	148.82
365.623	9.56
365.834	167.25
366.045	34.13
366.256	89.43
366.467	62.8
366.678	64.85
366.889	34.13
367.1	107.86
367.311	124.24
367.522	-27.31
367.733	132.44
367.944	83.28
368.155	38.23
368.366	44.37
368.577	66.9
368.788	58.71
368.999	58.71
369.209	60.76
369.42	103.76
369.631	132.44
369.842	105.81
370.053	83.28
370.264	56.66
370.474	5.46
370.685	32.08
370.896	52.56
371.107	36.18
371.317	124.24
371.528	52.56
371.739	93.52
371.95	101.72
372.16	11.61
372.371	-25.26
372.582	5.46
372.792	15.7
373.003	81.24
373.214	107.86
373.424	107.86
373.635	7.51
373.846	75.09
374.056	25.94
374.267	124.24
374.477	101.72
374.688	79.19
374.898	30.04
375.109	58.71
375.319	48.47
375.53	66.9
375.74	81.24
375.951	75.09
376.161	36.18
376.372	120.15
376.582	7.51
376.793	52.56
377.003	64.85
377.214	58.71
377.424	60.76
377.635	83.28
377.845	58.71
378.055	148.82
378.266	58.71
378.476	48.47
378.686	58.71
378.897	-0.68
379.107	97.62
379.317	62.8
379.528	21.85
379.738	107.86
379.948	83.28
380.158	87.38
380.369	46.42
380.579	7.51
380.789	50.52
380.999	79.19
381.21	62.8
381.42	116.05
381.63	122.2
381.84	73.04
382.05	75.09
382.261	81.24
382.471	138.58
382.681	-25.26
382.891	140.63
383.101	64.85
383.311	60.76
383.521	58.71
383.731	87.38
383.941	103.76
384.151	150.87
384.361	9.56
384.571	34.13
384.781	91.48
384.991	79.19
385.201	154.96
385.411	79.19
385.621	101.72
385.831	87.38
386.041	79.19
386.251	40.28
386.461	101.72
386.671	75.09
386.881	50.52
387.091	52.56
387.301	91.48
387.511	25.94
387.72	111.96
387.93	48.47
388.14	-0.68
388.35	148.82
388.56	95.57
388.769	75.09
388.979	93.52
389.189	-39.59
389.399	81.24
389.609	99.67
389.818	126.29
390.028	13.65
390.238	48.47
390.447	42.32
390.657	114
390.867	95.57
391.076	73.04
391.286	114
391.496	36.18
391.705	15.7
391.915	71
392.125	83.28
392.334	32.08
392.544	122.2
392.753	99.67
392.963	36.18
393.172	25.94
393.382	56.66
393.591	66.9
393.801	62.8
394.01	66.9
394.22	116.05
394.429	30.04
394.639	167.25
394.848	111.96
395.058	34.13
395.267	109.91
395.477	107.86
395.686	95.57
395.895	99.67
396.105	161.11
396.314	101.72
396.524	97.62
396.733	81.24
396.942	124.24
397.152	118.1
397.361	114
397.57	48.47
397.78	54.61
397.989	181.59
398.198	152.92
398.407	58.71
398.617	144.72
398.826	58.71
399.035	-8.87
399.244	161.11
399.453	114
399.663	148.82
399.872	146.77
400.081	50.52
400.29	75.09
400.499	124.24
400.708	165.2
400.917	81.24
401.127	103.76
401.336	95.57
401.545	197.97
401.754	91.48
401.963	58.71
402.172	-15.02
402.381	165.2
402.59	97.62
402.799	58.71
403.008	103.76
403.217	120.15
403.426	163.15
403.635	66.9
403.844	142.68
404.053	111.96
404.262	75.09
404.471	218.45
404.68	163.15
404.888	171.35
405.097	187.73
405.306	165.2
405.515	185.68
405.724	177.49
405.933	177.49
406.142	193.87
406.35	124.24
406.559	157.01
406.768	144.72
406.977	292.18
407.185	238.93
407.394	214.35
407.603	157.01
407.812	157.01
408.02	271.7
408.229	157.01
408.438	134.48
408.646	183.63
408.855	271.7
409.064	255.31
409.272	255.31
409.481	304.46
409.69	267.6
409.898	251.22
410.107	275.79
410.315	331.09
410.524	310.61
410.733	253.27
410.941	265.55
411.15	349.52
411.358	388.43
411.567	447.82
411.775	456.01
411.984	376.14
412.192	406.86
412.401	382.29
412.609	478.54
412.818	582.99
413.026	544.08
413.234	529.74
413.443	513.36
413.651	490.83
413.86	507.21
414.068	533.84
414.276	568.65
414.485	519.5
414.693	673.1
414.901	746.83
415.11	695.63
415.318	705.87
415.526	675.15
415.734	765.26
415.943	777.55
416.151	793.93
416.359	845.13
416.567	773.45
416.776	847.18
416.984	918.86
417.192	943.43
417.4	963.91
417.608	927.05
417.817	990.53
418.025	1070.4
418.233	1172.8
418.441	1043.78
418.649	1064.26
418.857	1238.34
419.065	1285.44
419.273	1301.83
419.481	1244.48
419.689	1367.36
419.897	1393.98
420.105	1432.9
420.313	1400.13
420.521	1566.01
420.729	1574.21
420.937	1580.35
421.145	1561.92
421.353	1727.8
421.561	1842.49
421.769	1803.58
421.977	1887.54
422.185	1926.46
422.393	2080.05
422.601	2190.64
422.809	2194.74
423.017	2129.2
423.224	2297.14
423.432	2409.78
423.64	2383.15
423.848	2532.65
424.056	2340.15
424.263	2630.96
424.471	2489.65
424.679	2811.18
424.887	2958.63
425.094	2899.24
425.302	2983.21
425.51	2964.78
425.718	2995.5
425.925	3177.76
426.133	3409.19
426.341	3532.06
426.548	3599.65
426.756	3595.55
426.964	3783.96
427.171	3847.45
427.379	4078.87
427.586	4087.06
427.794	4375.83
428.001	4474.13
428.209	4519.18
428.417	4369.68
428.624	4863.24
428.832	4928.78
429.039	4910.35
429.247	4893.96
429.454	5283.08
429.662	5643.52
429.869	5346.56
430.076	5719.29
430.284	5547.26
430.491	5821.69
430.699	6096.12
430.906	6079.74
431.114	6186.23
431.321	6386.93
431.528	6479.09
431.736	6790.38
431.943	7232.74
432.15	6997.23
432.358	7017.71
432.565	7511.27
432.772	7648.48
432.979	7697.63
433.187	7906.52
433.394	7967.96
433.601	8547.54
433.808	8488.15
434.016	8488.15
434.223	8834.25
434.43	9336.01
434.637	9227.46
434.844	9813.18
435.052	10110.14
435.259	9837.76
435.466	10124.47
435.673	9983.16
435.88	10521.78
436.087	10992.81
436.294	11150.51
436.501	10933.42
436.708	11111.6
436.915	11541.67
437.122	11932.83
437.329	11871.39
437.537	12352.66
437.743	12528.79
437.95	12506.26
438.157	13028.49
438.364	13442.18
438.571	13634.69
438.778	13835.39
438.985	14873.71
439.192	14171.26
439.399	14773.36
439.606	14511.22
439.813	15027.31
440.02	16184.41
440.227	15912.03
440.433	15697
440.64	16114.78
440.847	16198.75
441.054	16628.82
441.261	17507.4
441.467	17390.67
441.674	17744.97
441.881	18451.52
442.088	18000.96
442.294	18123.84
442.501	18682.94
442.708	19100.72
442.914	19547.18
443.121	20644.89
443.328	20065.32
443.534	21728.27
443.741	20620.31
443.948	20673.56
444.154	22356.99
444.361	22000.65
444.568	22375.42
444.774	22281.22
444.981	22273.03
445.187	23145.46
445.394	24007.65
445.6	23716.84
445.807	26129.35
446.013	24787.93
446.22	25416.66
446.426	25936.84
446.633	26647.49
446.839	27321.27
447.046	26172.36
447.252	27739.05
447.459	28130.22
447.665	27503.54
447.871	28728.22
448.078	30094.22
448.284	28814.24
448.491	29631.38
448.697	30628.74
448.903	31460.21
449.11	31472.5
449.316	30651.27
449.522	31181.69
449.728	32090.99
449.935	32535.4
450.141	31697.78
450.347	33143.64
450.553	31880.05
450.76	32639.84
450.966	33463.13
451.172	33096.54
451.378	33876.82
451.584	33375.06
451.791	33854.29
451.997	33622.87
452.203	34212.68
452.409	34528.07
452.615	34282.31
452.821	32865.12
453.027	32705.38
453.233	34423.62
453.44	32797.54
453.646	33221.47
453.852	33676.12
454.058	34179.92
454.264	32590.69
454.47	33590.1
454.676	32639.84
454.882	33829.71
455.088	31064.96
455.294	31542.13
455.5	32054.12
455.705	32328.55
455.911	30753.66
456.117	30739.33
456.323	29690.77
456.529	28212.13
456.735	29522.83
456.941	28756.89
457.147	28335.01
457.352	27673.52
457.558	27091.9
457.764	27100.09
457.97	26622.91
458.176	25840.59
458.381	26209.22
458.587	24712.16
458.793	24957.91
458.999	23481.33
459.204	25066.45
459.41	24382.43
459.616	22643.71
459.821	23325.68
460.027	22848.5
460.233	22332.42
460.438	21187.6
460.644	21359.63
460.85	20327.46
461.055	20165.67
461.261	20399.13
461.466	18500.67
461.672	17910.85
461.878	19698.73
462.083	18205.76
462.289	17744.97
462.494	17441.87
462.7	16837.72
462.905	16610.39
463.111	16843.86
463.316	17171.54
463.522	16655.45
463.727	16342.11
463.932	16311.39
464.138	16387.16
464.343	16563.29
464.549	15823.97
464.754	16491.61
464.959	16694.36
465.165	16325.72
465.37	15879.27
465.575	15189.1
465.781	15836.26
465.986	16069.73
466.191	15125.61
466.397	14924.91
466.602	14498.94
466.807	15006.83
467.012	14763.12
467.218	14617.72
467.423	14670.97
467.628	14685.3
467.833	15338.6
468.038	14683.25
468.244	14285.95
468.449	14967.92
468.654	14288
468.859	14429.31
469.064	14318.71
469.269	13524.1
469.474	13614.21
469.679	14019.71
469.885	13710.47
470.09	13819.01
470.295	13554.82
470.5	13237.39
470.705	13343.88
470.91	13182.09
471.115	12706.96
471.32	13266.06
471.525	13196.43
471.73	12854.42
471.935	12657.81
472.139	12588.18
472.344	12526.74
472.549	12410.01
472.754	12088.48
472.959	11865.25
473.164	11590.82
473.369	11588.77
473.574	11859.1
473.778	11951.26
473.983	11836.58
474.188	11979.93
474.393	11058.35
474.598	11369.64
474.802	11125.93
475.007	11076.78
475.212	10919.09
475.417	10759.35
475.621	10740.91
475.826	10677.43
476.031	10638.51
476.235	10298.55
476.44	10542.26
476.645	10280.12
476.849	10249.4
477.054	10138.81
477.259	9942.21
477.463	9954.49
477.668	9804.99
477.872	9856.19
478.077	9696.45
478.282	9385.16
478.486	9559.24
478.691	9206.98
478.895	9229.51
479.1	9370.82
479.304	9295.05
479.509	8979.66
479.713	9104.59
479.918	9084.11
480.122	8602.83
480.326	9049.29
480.531	8936.65
480.735	8844.49
480.94	8864.97
481.144	9022.67
481.348	8682.7
481.553	8735.95
481.757	8568.02
481.961	8697.04
482.166	8697.04
482.37	8670.42
482.574	8563.92
482.778	8439
482.983	8873.17
483.187	8553.68
483.391	8686.8
483.595	8422.61
483.8	8395.99
484.004	8617.17
484.208	8717.52
484.412	8600.79
484.616	8580.31
484.821	8586.45
485.025	8506.58
485.229	8471.76
485.433	8439
485.637	8707.28
485.841	8625.36
486.045	8430.8
486.249	8332.5
486.453	8486.1
486.657	8482
486.861	8690.9
487.065	8365.27
487.269	8586.45
487.473	8586.45
487.677	8684.75
487.881	8692.94
488.085	8525.01
488.289	8733.9
488.493	8543.44
488.697	8555.73
488.901	8738
489.105	8625.36
489.309	8582.35
489.512	8639.7
489.716	8600.79
489.92	8672.46
490.124	8635.6
490.328	8840.4
490.531	8588.5
490.735	8781.01
490.939	8766.67
491.143	8821.97
491.346	8649.94
491.55	8809.68
491.754	8871.12
491.958	8985.8
492.161	8901.84
492.365	8926.41
492.569	8815.82
492.772	9010.38
492.976	9356.49
493.18	8959.18
493.383	9256.14
493.587	9374.92
493.79	9536.71
493.994	9258.18
494.197	9301.19
494.401	9290.95
494.605	9401.54
494.808	9610.43
495.012	9589.95
495.215	9829.57
495.419	9745.6
495.622	9653.44
495.825	9946.3
496.029	9929.92
496.232	10249.4
496.436	10026.17
496.639	10097.85
496.843	10200.25
497.046	10394.81
497.249	10724.53
497.453	10771.63
497.656	10921.13
497.859	10753.2
498.063	11058.35
498.266	11103.4
498.469	11142.32
498.673	11089.07
498.876	11312.3
499.079	11515.05
499.282	11578.53
499.485	11801.76
499.689	11715.75
499.892	12121.24
500.095	11957.41
500.298	12219.55
500.501	12272.79
500.705	12633.24
500.908	12741.78
501.111	12768.4
501.314	12860.56
501.517	12983.44
501.72	13270.15
501.923	13073.55
502.126	13657.22
502.329	13583.49
502.532	13679.75
502.735	13669.51
502.938	14081.15
503.141	14210.17
503.344	14285.95
503.547	14419.07
503.75	14707.83
503.953	14814.32
504.156	14865.52
504.359	15152.24
504.562	14998.64
504.765	15471.72
504.968	15955.04
505.17	15967.33
505.373	15895.65
505.576	16137.31
505.779	16442.46
505.982	16370.78
506.185	16659.54
506.387	16649.3
506.59	17198.16
506.793	17175.63
506.996	17267.79
507.198	17820.74
507.401	17515.59
507.604	17787.97
507.807	18283.58
508.009	18244.67
508.212	18330.69
508.415	18754.62
508.617	18928.69
508.82	18953.27
509.022	18852.92
509.225	19299.37
509.428	19692.58
509.63	19743.78
509.833	19704.87
510.035	20481.05
510.238	20180
510.44	20458.53
510.643	21031.96
510.845	20956.18
511.048	21064.72
511.25	21001.24
511.453	21531.66
511.655	22119.43
511.858	21984.26
512.06	22113.28
512.262	22307.84
512.465	22467.58
512.667	23049.21
512.87	22770.68
513.072	23081.97
513.274	23518.19
513.477	23833.58
513.679	24146.92
513.881	24073.19
514.084	24325.09
514.286	24523.74
514.488	24656.86
514.69	25525.2
514.893	25654.22
515.095	25768.91
515.297	25633.74
515.499	25725.9
515.701	26880.96
515.904	26950.59
516.106	26813.37
516.308	27343.8
516.51	27614.13
516.712	27681.71
516.914	28060.59
517.116	28259.24
517.318	28806.05
517.52	28560.29
517.722	28992.41
517.925	29490.07
518.127	29520.79
518.329	30112.65
518.531	29770.64
518.733	30247.82
518.935	30604.16
519.136	30765.95
519.338	31320.95
519.54	31693.68
519.742	32115.56
519.944	32408.42
520.146	32367.46
520.348	32549.73
520.55	33330.01
520.752	33438.55
520.954	34106.19
521.155	33553.24
521.357	34409.29
521.559	34519.88
521.761	34992.96
521.963	35214.14
522.164	35414.84
522.366	35423.03
522.568	36289.32
522.77	36125.49
522.971	36903.71
523.173	36705.06
523.375	36868.9
523.576	37145.37
523.778	37612.31
523.98	37770
524.181	38220.56
524.383	38390.54
524.584	39367.42
524.786	38986.5
524.988	38945.54
525.189	39611.13
525.391	40223.47
525.592	40053.49
525.794	40276.72
525.995	40440.56
526.197	40686.31
526.398	40884.97
526.6	41206.5
526.801	41421.53
527.003	41517.79
527.204	41679.58
527.406	42470.09
527.607	41921.24
527.808	42908.36
528.01	41890.52
528.211	42611.4
528.412	43268.8
528.614	43363.01
528.815	43629.24
529.016	44018.36
529.218	43545.28
529.419	44128.95
529.62	44176.05
529.822	44411.57
530.023	44221.11
530.224	44284.59
530.425	44663.47
530.626	44518.06
530.828	44329.65
531.029	45812.38
531.23	45159.08
531.431	45431.46
531.632	45169.32
531.833	46006.94
532.035	45736.6
532.236	45738.65
532.437	46355.09
532.638	45675.16
532.839	46310.03
533.04	46656.14
533.241	45853.34
533.442	46783.12
533.643	46625.42
533.844	46525.07
534.045	46600.85
534.246	46103.19
534.447	46922.38
534.648	46531.22
534.849	47030.92
535.05	46541.46
535.251	46944.9
535.451	46776.97
535.652	47200.9
535.853	46881.42
536.054	47151.75
536.255	47192.71
536.456	46672.53
536.657	47504
536.857	46885.51
537.058	46664.33
537.259	47673.98
537.46	47469.18
537.66	47417.99
537.861	47540.86
538.062	47446.66
538.263	47786.62
538.463	47164.04
538.664	47417.99
538.865	47626.88
539.065	47753.85
539.266	47059.59
539.466	47862.39
539.667	47297.16
539.868	47852.16
540.068	47338.11
540.269	47534.72
540.469	47573.63
540.67	47393.41
540.87	47336.07
541.071	47618.69
541.271	48005.75
541.472	47938.17
541.672	47475.33
541.873	47508.1
542.073	47018.63
542.274	47544.96
542.474	47551.1
542.675	47250.05
542.875	47655.55
543.075	47565.44
543.276	47200.9
543.476	47712.89
543.676	47422.08
543.877	47764.09
544.077	47581.82
544.277	47293.06
544.478	47256.2
544.678	47712.89
544.878	47276.68
545.078	47516.29
545.279	47153.8
545.479	47401.6
545.679	47569.54
545.879	47682.17
546.079	47231.62
546.28	47544.96
546.48	47303.3
546.68	47508.1
546.88	47475.33
547.08	47676.03
547.28	47172.23
547.48	46963.34
547.68	47739.52
547.88	47145.61
548.081	47311.49
548.281	47078.02
548.481	47039.11
548.681	47635.07
548.881	47536.77
549.081	47540.86
549.28	47026.82
549.48	47671.93
549.68	47329.92
549.88	48132.73
550.08	47374.98
550.28	47354.5
550.48	47059.59
550.68	47876.73
550.88	46934.67
551.08	47270.53
551.279	47272.58
551.479	47393.41
551.679	47448.71
551.879	46979.72
552.079	47616.64
552.278	47637.12
552.478	46875.27
552.678	46828.17
552.878	47696.51
553.077	47024.78
553.277	46901.9
553.477	47745.66
553.676	46838.41
553.876	47073.93
554.076	46785.16
554.275	46834.31
554.475	46566.03
554.674	46750.35
554.874	46738.06
555.074	46525.07
555.273	46815.88
555.473	47166.09
555.672	46449.3
555.872	46369.43
556.071	46500.5
556.271	46563.98
556.47	46246.55
556.67	45763.23
556.869	46049.94
557.068	46205.59
557.268	45943.45
557.467	46451.34
557.667	45705.88
557.866	45845.15
558.065	45623.97
558.265	45382.3
558.464	45482.66
558.663	45896.34
558.863	44710.57
559.062	46105.24
559.261	44812.97
559.461	45722.27
559.66	44530.35
559.859	44616.36
560.058	44729
560.258	44923.56
560.457	44092.08
560.656	44329.65
560.855	44141.24
561.054	44735.15
561.253	43975.35
561.453	44565.17
561.652	44042.93
561.851	43862.71
562.05	43662.01
562.249	43539.13
562.448	44321.46
562.647	43348.67
562.846	43436.73
563.045	43635.39
563.244	43035.33
563.443	43477.69
563.642	42138.32
563.841	42898.12
564.04	42441.42
564.239	42785.48
564.438	41999.06
564.637	42289.87
564.836	42117.84
565.035	41986.77
565.234	42253.01
565.432	41700.06
565.631	41765.59
565.83	41581.27
566.029	41249.5
566.228	40981.22
566.427	41255.65
566.625	40643.31
566.824	40692.46
567.023	41011.94
567.222	39795.45
567.42	40637.16
567.619	40573.67
567.818	40348.4
568.016	40225.52
568.215	39951.09
568.414	39660.28
568.612	39647.99
568.811	39258.88
569.01	39561.98
569.208	38654.73
569.407	39480.06
569.605	38951.68
569.804	39416.57
570.002	38466.31
570.201	38632.2
570.4	38267.66
570.598	38277.9
570.797	37925.65
570.995	38181.65
571.193	37169.95
571.392	38001.43
571.59	37391.13
571.789	37350.17
571.987	37145.37
572.186	36991.78
572.384	36832.04
572.582	36881.19
572.781	37088.03
572.979	35918.64
573.177	36481.83
573.376	36483.88
573.574	35930.93
573.772	36031.28
573.971	35824.43
574.169	35771.19
574.367	35646.26
574.565	35711.8
574.763	35107.65
574.962	35285.82
575.16	34734.92
575.358	35279.67
575.556	34646.85
575.754	35078.97
575.952	34274.12
576.151	35003.2
576.349	34104.14
576.547	34710.34
576.745	34016.08
576.943	34020.17
577.141	33772.37
577.339	34173.77
577.537	33975.12
577.735	33637.2
577.933	32998.24
578.131	33401.69
578.329	33276.76
578.527	33139.55
578.725	33059.68
578.923	33135.45
579.121	32844.64
579.319	32566.12
579.516	32779.11
579.714	32719.71
579.912	32230.25
580.11	32451.43
580.308	32062.32
580.506	32195.43
580.704	31601.52
580.901	31945.58
581.099	31810.42
581.297	31730.55
581.495	31437.69
581.692	31497.08
581.89	31490.93
582.088	31562.61
582.285	31091.58
582.483	31533.94
582.681	31021.95
582.878	30747.52
583.076	30831.49
583.274	31169.4
583.471	30573.44
583.669	30780.29
583.866	30391.17
584.064	30700.42
584.262	30143.37
584.459	30419.85
584.657	29926.28
584.854	30067.59
585.052	29688.72
585.249	29516.69
585.447	29975.44
585.644	29272.98
585.841	29672.34
586.039	29447.06
586.236	28957.6
586.434	29176.73
586.631	28982.17
586.828	29016.99
587.026	28677.02
587.223	29010.84
587.42	28470.18
587.618	28566.43
587.815	28423.08
588.012	28537.76
588.21	28609.44
588.407	28474.27
588.604	28113.83
588.801	28017.58
588.999	28117.93
589.196	27952.04
589.393	27798.45
589.59	27446.19
589.787	27583.41
589.984	27622.32
590.182	27280.31
590.379	27493.3
590.576	26848.19
590.773	27628.46
590.97	26942.39
591.167	27118.52
591.364	26672.06
591.561	26817.47
591.758	26807.23
591.955	26631.1
592.152	26883
592.349	26287.04
592.546	26520.51
592.743	26555.33
592.94	26170.31
593.137	26260.42
593.334	26598.34
593.531	25918.41
593.727	26029
593.924	26254.28
594.121	25801.68
594.318	25854.92
594.515	25500.62
594.712	25662.41
594.908	25433.04
595.105	25355.22
595.302	25291.73
595.499	25263.06
595.696	25533.39
595.892	25101.27
596.089	25289.68
596.286	25088.98
596.482	25189.33
596.679	24749.02
596.876	24781.79
597.072	24550.37
597.269	24593.37
597.466	24450.02
597.662	24159.2
597.859	24429.54
598.055	24445.92
598.252	24222.69
598.448	24040.42
598.645	24087.53
598.841	23913.45
599.038	24155.11
599.234	23909.35
599.431	23579.63
599.627	23600.11
599.824	23825.39
600.02	23589.87
600.217	23710.7
600.413	23503.85
600.609	23194.61
600.806	23297.01
601.002	23477.23
601.198	22959.1
601.395	23313.39
601.591	23006.2
601.787	22727.67
601.984	22746.11
602.18	22780.92
602.376	22748.15
602.572	22559.74
602.769	22887.42
602.965	22291.46
603.161	22580.22
603.357	22623.23
603.553	21998.6
603.75	22264.83
603.946	21933.06
604.142	22135.81
604.338	21885.96
604.534	22049.8
604.73	21427.21
604.926	21847.05
605.122	21990.41
605.318	21439.5
605.514	21605.39
605.71	21183.51
605.906	21390.35
606.102	21244.95
606.298	21449.74
606.494	21222.42
606.69	21158.93
606.886	21318.67
607.082	21021.72
607.278	21130.26
607.474	21042.2
607.67	21031.96
607.866	20507.68
608.062	20929.56
608.257	20749.34
608.453	20306.98
608.649	20810.78
608.845	20302.88
609.041	20390.94
609.236	20405.28
609.432	20407.33
609.628	20491.29
609.824	20259.87
610.019	20268.06
610.215	20182.05
610.411	20034.6
610.606	20087.84
610.802	20100.13
610.998	20151.33
611.193	20124.71
611.389	20040.74
611.584	20079.65
611.78	19702.82
611.976	19772.46
612.171	19770.41
612.367	19565.61
612.562	19383.34
612.758	19385.39
612.953	19207.22
613.149	19844.13
613.344	19053.62
613.539	19579.95
613.735	19022.9
613.93	19371.05
614.126	19098.67
614.321	19328.05
614.517	19289.14
614.712	19264.56
614.907	19166.26
615.103	19229.74
615.298	18738.23
615.493	18965.56
615.688	18693.18
615.884	19340.33
616.079	18617.4
616.274	18730.04
616.47	19012.66
616.665	18707.51
616.86	18539.58
617.055	18703.42
617.25	18461.76
617.445	18605.11
617.641	18541.63
617.836	18463.8
618.031	18211.9
618.226	18472
618.421	17980.48
618.616	18332.73
618.811	17777.73
619.006	18338.88
619.201	18046.02
619.396	17994.82
619.591	17714.25
619.786	17927.24
619.981	17486.92
620.176	17728.58
620.371	17192.01
620.566	17699.91
620.761	17347.66
620.956	17536.07
621.151	17228.88
621.346	17413.2
621.541	16837.72
621.735	17345.61
621.93	16663.64
622.125	16614.49
622.32	16667.74
622.515	16663.64
622.709	16655.45
622.904	16311.39
623.099	16264.29
623.294	16401.5
623.488	16153.69
623.683	16161.89
623.878	16079.97
624.072	16014.43
624.267	15746.15
624.462	15899.75
624.656	15481.96
624.851	15834.21
625.046	15545.45
625.24	15565.93
625.435	15242.35
625.629	15295.6
625.824	15393.9
626.018	15225.96
626.213	14826.61
626.407	15150.19
626.602	14900.34
626.796	14894.19
626.991	14804.08
627.185	14670.97
627.38	14384.25
627.574	14562.42
627.768	14367.87
627.963	14365.82
628.157	14036.1
628.352	14283.9
628.546	13782.15
628.74	14201.98
628.935	13675.65
629.129	13978.75
629.323	13712.52
629.517	13556.87
629.712	13558.92
629.906	13567.11
630.1	13382.79
630.294	13440.14
630.489	13329.55
630.683	13366.41
630.877	13178
631.071	13270.15
631.265	13266.06
631.459	13042.83
631.653	12928.14
631.848	12848.27
632.042	12780.69
632.236	12946.58
632.43	12696.72
632.624	12715.16
632.818	12602.52
633.012	12520.6
633.206	12285.08
633.4	12541.08
633.594	12084.38
633.788	12453.02
633.982	12287.13
634.176	12184.73
634.369	11871.39
634.563	12092.57
634.757	11795.62
634.951	12022.94
635.145	11885.73
635.339	11830.43
635.533	11744.42
635.726	11611.3
635.92	11773.09
636.114	11496.61
636.308	11533.48
636.501	11349.16
636.695	11527.33
636.889	11236.52
637.083	11189.42
637.276	10935.47
637.47	11222.19
637.664	11156.65
637.857	11027.63
638.051	11070.64
638.244	10929.33
638.438	11003.05
638.632	10781.87
638.825	10622.13
639.019	10609.84
639.212	10298.55
639.406	10585.27
639.599	10382.52
639.793	10419.38
639.986	10085.56
640.18	10431.67
640.373	10456.25
640.567	9938.11
640.76	10138.81
640.954	9862.33
641.147	9929.92
641.34	10003.64
641.534	10099.9
641.727	9655.49
641.92	9743.55
642.114	9657.54
642.307	9800.9
642.5	9778.37
642.694	9604.29
642.887	9323.72
643.08	9639.11
643.273	9471.17
643.467	9374.92
643.66	9243.85
643.853	9133.26
644.046	9254.09
644.239	9043.15
644.432	9237.7
644.626	9135.31
644.819	8897.74
645.012	9129.16
645.205	9090.25
645.398	8860.88
645.591	8654.03
645.784	8740.05
645.977	8520.92
646.17	8762.58
646.363	8561.87
646.556	8494.29
646.749	8660.18
646.942	8668.37
647.135	8402.13
647.328	8570.07
647.521	8305.88
647.714	8191.19
647.907	8221.91
648.099	8211.67
648.292	8264.92
648.485	8228.06
648.678	8178.9
648.871	7957.72
649.064	8092.89
649.256	8088.79
649.449	7892.19
649.642	7939.29
649.835	7802.08
650.027	7906.52
650.22	7783.65
650.413	7658.72
650.605	7812.32
650.798	7607.52
650.991	7593.19
651.183	7750.88
651.376	7630.05
651.568	7415.01
651.761	7441.64
651.954	7490.79
652.146	7367.91
652.339	7484.64
652.531	7566.56
652.724	7316.71
652.916	7146.73
653.109	7245.03
653.301	7331.05
653.494	7322.85
653.686	7103.72
653.879	7304.42
654.071	7046.38
654.263	7058.67
654.456	7124.2
654.648	7001.32
654.84	6896.88
655.033	6800.62
655.225	6911.21
655.417	6888.68
655.61	6718.7
655.802	6798.57
655.994	6819.05
656.186	6759.66
656.379	6767.85
656.571	6845.68
656.763	6743.28
656.955	6511.86
657.148	6671.6
657.34	6628.59
657.532	6597.87
657.724	6526.19
657.916	6423.8
658.108	6474.99
658.3	6458.61
658.492	6419.7
658.684	6264.05
658.876	6343.92
659.068	6153.46
659.26	6171.9
659.452	6290.68
659.644	6298.87
659.836	6167.8
660.028	6231.29
660.22	6042.87
660.412	6057.21
660.604	6141.18
660.796	6130.94
660.988	6083.83
661.18	5987.58
661.372	6061.3
661.563	6112.5
661.755	5981.43
661.947	6016.25
662.139	5797.12
662.331	6008.06
662.522	5874.94
662.714	5860.6
662.906	5668.09
663.097	5801.21
663.289	5737.73
663.481	5700.86
663.673	5760.25
663.864	5833.98
664.056	5698.81
664.247	5629.18
664.439	5618.94
664.631	5635.33
664.822	5481.73
665.014	5725.44
665.205	5451.01
665.397	5401.86
665.588	5588.22
665.78	5401.86
665.971	5448.96
666.163	5569.79
666.354	5405.95
666.546	5489.92
666.737	5530.88
666.929	5467.39
667.12	5516.55
667.311	5547.26
667.503	5473.54
667.694	5293.32
667.885	5385.48
668.077	5338.37
668.268	5293.32
668.459	5311.75
668.651	5287.17
668.842	5391.62
669.033	5235.97
669.224	5434.63
669.416	5375.24
669.607	5246.21
669.798	5164.29
669.989	5266.69
670.18	5313.8
670.371	5235.97
670.563	5391.62
670.754	5266.69
670.945	5244.17
671.136	5354.76
671.327	5227.78
671.518	5309.7
671.709	5321.99
671.9	5293.32
672.091	5254.41
672.282	5293.32
672.473	5170.44
672.664	5332.23
672.855	5219.59
673.046	5209.35
673.237	5274.88
673.428	5182.73
673.619	5451.01
673.809	5297.41
674	5434.63
674.191	5432.58
674.382	5260.55
674.573	5369.09
674.764	5313.8
674.954	5285.12
675.145	5379.33
675.336	5291.27
675.527	5141.77
675.717	5430.53
675.908	5444.87
676.099	5207.3
676.289	5365
676.48	5451.01
676.671	5293.32
676.861	5389.57
677.052	5373.19
677.243	5348.61
677.433	5315.84
677.624	5401.86
677.814	5569.79
678.005	5383.43
678.195	5479.68
678.386	5512.45
678.576	5432.58
678.767	5375.24
678.957	5424.39
679.148	5637.38
679.338	5455.11
679.529	5604.61
679.719	5516.55
679.909	5629.18
680.1	5594.37
680.29	5637.38
680.481	5553.41
680.671	5633.28
680.861	5670.14
681.052	5750.01
681.242	5604.61
681.432	5807.36
681.622	5584.13
681.813	5600.51
682.003	5620.99
682.193	5719.29
682.383	5600.51
682.573	5709.05
682.764	5659.9
682.954	5809.4
683.144	5768.45
683.334	5647.62
683.524	5670.14
683.714	5760.25
683.904	5545.22
684.094	5817.6
684.284	5733.63
684.474	5747.97
684.664	5752.06
684.854	5790.97
685.044	5752.06
685.234	5713.15
685.424	5672.19
685.614	5805.31
685.804	5778.69
685.994	5803.26
686.184	5778.69
686.374	5717.25
686.564	5833.98
686.753	5850.36
686.943	5702.91
687.133	5723.39
687.323	5528.83
687.513	5795.07
687.702	5717.25
687.892	5545.22
688.082	5651.71
688.272	5625.09
688.461	5444.87
688.651	5516.55
688.841	5596.42
689.03	5412.1
689.22	5397.76
689.41	5348.61
689.599	5385.48
689.789	5473.54
689.979	5430.53
690.168	5379.33
690.358	5430.53
690.547	5412.1
690.737	5209.35
690.926	5299.46
691.116	5141.77
691.305	5260.55
691.495	5123.34
691.684	5143.81
691.874	5147.91
692.063	5123.34
692.252	5057.8
692.442	5104.9
692.631	5119.24
692.82	5104.9
693.01	4896.01
693.199	5068.04
693.388	4941.07
693.578	5002.51
693.767	4873.48
693.956	4887.82
694.146	4705.55
694.335	4764.94
694.524	4760.84
694.713	4824.33
694.902	4859.15
695.092	4934.92
695.281	4850.96
695.47	4848.91
695.659	4711.69
695.848	4719.89
696.037	4732.17
696.226	4658.45
696.415	4629.77
696.604	4891.91
696.793	4547.86
696.982	4697.36
697.171	4785.42
697.36	4834.57
697.549	4695.31
697.738	4670.73
697.927	4631.82
698.116	4789.52
698.305	4597.01
698.494	4766.99
698.683	4474.13
698.872	4742.41
699.061	4721.93
699.25	4693.26
699.438	4533.52
699.627	4814.09
699.816	4719.89
700.005	4556.05
700.193	4449.55
700.382	4805.9
700.571	4685.07
700.76	4611.34
700.948	4613.39
701.137	4795.66
701.326	4715.79
701.514	4816.14
701.703	4810
701.892	4734.22
702.08	4826.38
702.269	4756.75
702.457	4564.24
702.646	4883.72
702.834	4838.67
703.023	4740.36
703.212	4877.58
703.4	4826.38
703.589	4826.38
703.777	4783.37
703.965	4648.21
704.154	4924.68
704.342	4709.65
704.531	4822.28
704.719	4869.39
704.907	4930.83
705.096	4814.09
705.284	4799.76
705.472	4908.3
705.661	5039.37
705.849	4920.59
706.037	5082.38
706.226	5102.86
706.414	5025.03
706.602	4904.2
706.79	4867.34
706.979	5012.74
707.167	4844.81
707.355	5012.74
707.543	4914.44
707.731	5174.53
707.919	4992.27
708.107	5072.14
708.296	5022.98
708.484	5031.18
708.672	5047.56
708.86	4969.74
709.048	5215.49
709.236	5227.78
709.424	5274.88
709.612	5190.92
709.8	4959.5
709.988	5274.88
710.176	5397.76
710.364	5289.22
710.551	5289.22
710.739	5246.21
710.927	5399.81
711.115	5367.04
711.303	5414.15
711.491	5348.61
711.679	5246.21
711.866	5309.7
712.054	5356.8
712.242	5403.91
712.43	5463.3
712.617	5483.78
712.805	5416.19
712.993	5397.76
713.181	5377.28
713.368	5500.16
713.556	5604.61
713.744	5414.15
713.931	5494.02
714.119	5682.43
714.306	5418.24
714.494	5649.66
714.682	5670.14
714.869	5686.53
715.057	5782.78
715.244	5629.18
715.432	5719.29
715.619	5657.86
715.807	5790.97
715.994	5721.34
716.182	5577.98
716.369	5815.55
716.556	5954.81
716.744	5618.94
716.931	5776.64
717.119	5838.08
717.306	5985.53
717.493	5989.63
717.681	6010.11
717.868	5944.57
718.055	6012.15
718.242	5944.57
718.43	6079.74
718.617	6003.96
718.804	5952.76
718.991	5932.28
719.179	6264.05
719.366	6092.02
719.553	6042.87
719.74	6229.24
719.927	6167.8
720.114	6112.5
720.301	6112.5
720.488	6098.17
720.676	6194.42
720.863	6200.57
721.05	6235.38
721.237	6345.97
721.424	6436.08
721.611	6243.57
721.798	6249.72
721.985	6280.44
722.172	6120.7
722.358	6272.25
722.545	6472.95
722.732	6323.44
722.919	6362.36
723.106	6417.65
723.293	6382.84
723.48	6606.06
723.667	6460.66
723.853	6329.59
724.04	6458.61
724.227	6421.75
724.414	6583.54
724.6	6456.56
724.787	6649.07
724.974	6548.72
725.161	6460.66
725.347	6313.2
725.534	6550.77
725.72	6376.69
725.907	6587.63
726.094	6587.63
726.28	6659.31
726.467	6417.65
726.653	6616.3
726.84	6685.94
727.027	6917.36
727.213	6606.06
727.4	6712.56
727.586	6446.32
727.773	6630.64
727.959	6896.88
728.145	6790.38
728.332	6735.09
728.518	6747.37
728.705	6728.94
728.891	6874.35
729.077	6706.41
729.264	6763.76
729.45	6767.85
729.636	6841.58
729.823	6575.35
730.009	6841.58
730.195	6747.37
730.382	6876.4
730.568	6919.4
730.754	6937.84
730.94	6817.01
731.126	6864.11
731.313	6956.27
731.499	6669.55
731.685	6946.03
731.871	6937.84
732.057	7079.15
732.243	6853.87
732.429	6753.52
732.615	6946.03
732.801	6878.44
732.987	7044.33
733.173	7134.44
733.359	6929.64
733.545	7062.76
733.731	7105.77
733.917	6943.98
734.103	6950.12
734.289	6995.18
734.475	6898.92
734.661	6931.69
734.847	6984.94
735.033	6898.92
735.219	6952.17
735.404	7120.1
735.59	6970.6
735.776	6989.03
735.962	6997.23
736.148	7050.47
736.333	6837.48
736.519	6960.36
736.705	6956.27
736.89	6890.73
737.076	6950.12
737.262	6888.68
737.447	6808.81
737.633	6931.69
737.819	6984.94
738.004	6872.3
738.19	6845.68
738.375	6761.71
738.561	6866.16
738.747	6628.59
738.932	6800.62
739.118	6960.36
739.303	6829.29
739.489	6855.92
739.674	6499.57
739.859	6784.24
740.045	6890.73
740.23	6886.64
740.416	6610.16
740.601	6755.57
740.786	6743.28
740.972	6644.98
741.157	6716.65
741.342	6612.21
741.528	6735.09
741.713	6630.64
741.898	6542.58
742.084	6628.59
742.269	6595.82
742.454	6530.29
742.639	6704.37
742.824	6554.87
743.01	6458.61
743.195	6573.3
743.38	6249.72
743.565	6376.69
743.75	6411.51
743.935	6204.66
744.12	6356.21
744.305	6022.39
744.49	6317.3
744.675	6307.06
744.86	6407.41
745.045	6145.27
745.23	6186.23
745.415	6067.45
745.6	6114.55
745.785	6178.04
745.97	6081.78
746.155	6051.06
746.34	5956.86
746.525	6055.16
746.71	6053.11
746.895	5829.88
747.079	5801.21
747.264	5901.56
747.449	5854.46
747.634	5752.06
747.819	5707.01
748.003	5586.18
748.188	5795.07
748.373	5453.06
748.557	5506.31
748.742	5395.72
748.927	5549.31
749.111	5532.93
749.296	5559.55
749.481	5539.07
749.665	5395.72
749.85	5289.22
750.034	5401.86
750.219	5164.29
750.404	5299.46
750.588	5162.25
750.773	5143.81
750.957	5065.99
751.141	5145.86
751.326	5119.24
751.51	5041.42
751.695	5043.46
751.879	4932.87
752.064	5090.57
752.248	4873.48
752.432	4867.34
752.617	4857.1
752.801	4760.84
752.985	4885.77
753.17	4832.52
753.354	4603.15
753.538	4678.93
753.722	4572.43
753.907	4517.14
754.091	4531.47
754.275	4576.53
754.459	4586.77
754.643	4392.21
754.828	4447.51
755.012	4476.18
755.196	4261.14
755.38	4228.37
755.564	4343.06
755.748	4248.85
755.932	4185.37
756.116	4281.62
756.3	4103.45
756.484	4062.49
756.668	4119.83
756.852	3978.52
757.036	4066.58
757.22	4121.88
757.404	4007.19
757.588	3890.46
757.772	3859.74
757.956	3849.5
758.14	3988.76
758.323	3882.27
758.507	3904.79
758.691	3876.12
758.875	3786.01
759.059	3685.66
759.242	3673.37
759.426	3628.32
759.61	3704.09
759.794	3540.26
759.977	3640.61
760.161	3519.78
760.345	3521.82
760.528	3622.17
760.712	3642.65
760.895	3433.76
761.079	3577.12
761.263	3421.47
761.446	3460.38
761.63	3360.03
761.813	3403.04
761.997	3325.22
762.18	3261.73
762.364	3380.51
762.547	3183.91
762.731	3257.64
762.914	3392.8
763.098	3163.43
763.281	3429.66
763.464	3202.34
763.648	3163.43
763.831	3155.24
764.015	3097.89
764.198	3210.53
764.381	3048.74
764.564	3089.7
764.748	3061.03
764.931	3106.09
765.114	3036.45
765.297	2975.02
765.481	2866.47
765.664	2962.73
765.847	2995.5
766.03	2972.97
766.213	2909.48
766.397	2917.67
766.58	2893.1
766.763	2889
766.946	2850.09
767.129	2876.71
767.312	2934.06
767.495	2929.96
767.678	2757.93
767.861	2792.75
768.044	2809.13
768.227	2858.28
768.41	2747.69
768.593	2813.23
768.776	2678.06
768.959	2751.79
769.142	2665.77
769.324	2639.15
769.507	2688.3
769.69	2639.15
769.873	2628.91
770.056	2678.06
770.239	2528.56
770.421	2637.1
770.604	2612.53
770.787	2544.94
770.97	2518.32
771.152	2610.48
771.335	2475.31
771.518	2399.54
771.7	2516.27
771.883	2395.44
772.066	2448.69
772.248	2434.35
772.431	2399.54
772.613	2508.08
772.796	2391.34
772.978	2450.74
773.161	2356.53
773.343	2264.37
773.526	2327.86
773.708	2293.04
773.891	2202.93
774.073	2299.19
774.256	2164.02
774.438	2270.51
774.621	2137.4
774.803	2129.2
774.985	2213.17
775.168	2204.98
775.35	2207.03
775.532	2114.87
775.715	2188.6
775.897	2082.1
776.079	2147.64
776.261	2073.91
776.444	1987.9
776.626	2028.85
776.808	1985.85
776.99	1959.22
777.173	1932.6
777.355	1955.13
777.537	1926.46
777.719	1916.22
777.901	1881.4
778.083	1951.03
778.265	1871.16
778.447	1942.84
778.629	1811.77
778.811	1830.2
778.993	1813.82
779.175	1764.67
779.357	1934.65
779.539	1709.37
779.721	1686.84
779.903	1809.72
780.085	1684.8
780.267	1682.75
780.449	1822.01
780.631	1592.64
780.812	1647.93
780.994	1617.21
781.176	1629.5
781.358	1611.07
781.54	1525.05
781.721	1721.66
781.903	1514.81
782.085	1559.87
782.267	1586.49
782.448	1447.23
782.63	1533.25
782.812	1549.63
782.993	1498.43
783.175	1541.44
783.357	1355.07
783.538	1441.09
783.72	1334.59
783.901	1430.85
784.083	1393.98
784.264	1383.74
784.446	1336.64
784.627	1297.73
784.809	1328.45
784.99	1377.6
785.172	1385.79
785.353	1367.36
785.535	1398.08
785.716	1318.21
785.897	1254.72
786.079	1307.97
786.26	1207.62
786.441	1238.34
786.623	1252.67
786.804	1232.19
786.985	1246.53
787.167	1185.09
787.348	1221.95
787.529	1146.18
787.71	1140.04
787.891	1185.09
788.073	1160.52
788.254	1176.9
788.435	1164.61
788.616	1078.6
788.797	1137.99
788.978	1041.73
789.159	1056.07
789.34	1154.37
789.522	1105.22
789.703	963.91
789.884	1084.74
790.065	1041.73
790.246	1041.73
790.427	1033.54
790.607	1041.73
790.788	1084.74
790.969	877.9
791.15	978.25
791.331	935.24
791.512	1002.82
791.693	1013.06
791.874	902.47
792.054	974.15
792.235	1025.35
792.416	1006.92
792.597	961.86
792.778	957.77
792.958	1017.16
793.139	906.57
793.32	894.28
793.5	929.1
793.681	943.43
793.862	877.9
794.042	902.47
794.223	826.7
794.404	890.18
794.584	898.38
794.765	763.21
794.945	937.29
795.126	881.99
795.306	879.94
795.487	800.07
795.667	826.7
795.848	877.9
796.028	812.36
796.209	816.46
796.389	890.18
796.57	804.17
796.75	693.58
796.93	800.07
797.111	750.92
797.291	855.37
797.471	761.16
797.652	675.15
797.832	742.73
798.012	763.21
798.192	726.35
798.373	705.87
798.553	785.74
798.733	777.55
798.913	632.14
799.093	730.44
799.274	740.68
799.454	738.63
799.634	732.49
799.814	761.16
799.994	767.31
800.174	722.25
800.354	697.67
800.534	632.14
800.714	712.01
800.894	648.52
801.074	693.58
801.254	634.19
801.434	748.87
801.614	705.87
801.794	542.03
801.974	1400.13
802.154	623.95
802.334	632.14
802.514	656.72
802.693	755.02
802.873	697.67
803.053	568.65
803.233	654.67
803.413	634.19
803.592	593.23
803.772	529.74
803.952	603.47
804.131	607.56
804.311	578.89
804.491	626
804.67	548.17
804.85	626
805.03	617.8
805.209	603.47
805.389	564.56
805.568	578.89
805.748	544.08
805.928	496.97
806.107	552.27
806.287	601.42
806.466	525.65
806.646	578.89
806.825	558.41
807.004	533.84
807.184	542.03
807.363	613.71
807.543	517.45
807.722	472.4
807.901	472.4
808.081	578.89
808.26	447.82
808.439	515.41
808.619	570.7
808.798	474.45
808.977	591.18
809.156	492.88
809.336	523.6
809.515	533.84
809.694	447.82
809.873	490.83
810.052	509.26
810.231	509.26
810.411	562.51
810.59	591.18
810.769	468.3
810.948	453.97
811.127	542.03
811.306	484.69
811.485	423.25
811.664	548.17
811.843	433.49
812.022	447.82
812.201	451.92
812.38	431.44
812.559	359.76
812.737	390.48
812.916	435.53
813.095	326.99
813.274	499.02
813.453	374.1
813.632	464.21
813.811	472.4
813.989	408.91
814.168	476.49
814.347	394.58
814.526	466.25
814.704	564.56
814.883	394.58
815.062	386.38
815.24	410.96
815.419	349.52
815.598	406.86
815.776	390.48
815.955	370
816.133	335.18
816.312	427.34
816.49	374.1
816.669	449.87
816.847	296.27
817.026	386.38
817.204	345.42
817.383	337.23
817.561	363.86
817.74	445.77
817.918	374.1
818.097	388.43
818.275	345.42
818.453	419.15
818.632	396.62
818.81	421.2
818.988	326.99
819.167	384.34
819.345	378.19
819.523	378.19
819.701	347.47
819.879	329.04
820.058	337.23
820.236	390.48
820.414	370
820.592	304.46
820.77	302.42
820.948	337.23
821.127	230.74
821.305	306.51
821.483	345.42
821.661	372.05
821.839	326.99
822.017	329.04
822.195	384.34
822.373	331.09
822.551	337.23
822.729	331.09
822.907	277.84
823.085	337.23
823.262	292.18
823.44	271.7
823.618	320.85
823.796	378.19
823.974	341.33
824.152	271.7
824.329	288.08
824.507	333.14
824.685	322.9
824.863	292.18
825.04	210.26
825.218	361.81
825.396	333.14
825.574	269.65
825.751	228.69
825.929	292.18
826.107	238.93
826.284	228.69
826.462	247.12
826.639	273.75
826.817	222.55
826.994	320.85
827.172	212.31
827.349	304.46
827.527	218.45
827.704	304.46
827.882	271.7
828.059	277.84
828.237	249.17
828.414	286.03
828.591	189.78
828.769	224.59
828.946	236.88
829.124	208.21
829.301	320.85
829.478	212.31
829.655	247.12
829.833	279.89
830.01	226.64
830.187	247.12
830.364	210.26
830.542	150.87
830.719	322.9
830.896	204.11
831.073	288.08
831.25	286.03
831.427	333.14
831.604	275.79
831.782	187.73
831.959	296.27
832.136	171.35
832.313	204.11
832.49	238.93
832.667	238.93
832.844	175.44
833.021	200.02
833.198	253.27
833.374	152.92
833.551	195.92
833.728	210.26
833.905	157.01
834.082	138.58
834.259	204.11
834.436	240.98
834.612	222.55
834.789	308.56
834.966	175.44
835.143	181.59
835.319	152.92
835.496	159.06
835.673	177.49
835.85	197.97
836.026	269.65
836.203	236.88
836.38	148.82
836.556	230.74
836.733	212.31
836.909	249.17
837.086	91.48
837.262	173.39
837.439	148.82
837.616	171.35
837.792	193.87
837.968	206.16
838.145	197.97
838.321	283.99
838.498	171.35
838.674	165.2
838.851	173.39
839.027	83.28
839.203	197.97
839.38	175.44
839.556	99.67
839.732	226.64
839.909	140.63
840.085	189.78
840.261	175.44
840.437	234.83
840.614	116.05
840.79	222.55
840.966	195.92
841.142	193.87
841.318	222.55
841.494	120.15
841.671	97.62
841.847	126.29
842.023	142.68
842.199	159.06
842.375	206.16
842.551	185.68
842.727	140.63
842.903	212.31
843.079	116.05
843.255	195.92
843.431	105.81
843.607	181.59
843.783	36.18
843.959	171.35
844.134	185.68
844.31	197.97
844.486	140.63
844.662	105.81
844.838	97.62
845.013	175.44
845.189	148.82
845.365	101.72
845.541	130.39
845.716	179.54
845.892	161.11
846.068	64.85
846.244	140.63
846.419	138.58
846.595	177.49
846.77	107.86
846.946	251.22
847.122	107.86
847.297	75.09
847.473	189.78
847.648	71
847.824	130.39
847.999	83.28
848.175	68.95
848.35	144.72
848.526	193.87
848.701	154.96
848.876	161.11
849.052	171.35
849.227	161.11
849.403	118.1
849.578	163.15
849.753	122.2
849.929	111.96
850.104	71
850.279	58.71
850.454	122.2
850.63	107.86
850.805	81.24
850.98	107.86
851.155	21.85
851.33	138.58
851.505	87.38
851.681	183.63
851.856	46.42
852.031	161.11
852.206	120.15
852.381	173.39
852.556	206.16
852.731	130.39
852.906	99.67
853.081	140.63
853.256	134.48
853.431	42.32
853.606	116.05
853.781	75.09
853.956	-47.79
854.131	79.19
854.305	66.9
854.48	132.44
854.655	91.48
854.83	103.76
855.005	97.62
855.18	163.15
855.354	136.53
855.529	87.38
855.704	91.48
855.879	122.2
856.053	130.39
856.228	97.62
856.403	62.8
856.577	107.86
856.752	50.52
856.926	105.81
857.101	101.72
857.276	71
857.45	101.72
857.625	126.29
857.799	83.28
857.974	75.09
858.148	75.09
858.323	179.54
858.497	87.38
858.672	-84.65
858.846	46.42
859.02	66.9
859.195	116.05
859.369	50.52
859.543	124.24
859.718	118.1
859.892	134.48
860.066	54.61
860.241	75.09
860.415	25.94
860.589	54.61
860.763	107.86
860.938	107.86
861.112	27.99
861.286	54.61
861.46	66.9
861.634	148.82
861.808	46.42
861.982	11.61
862.157	62.8
862.331	7.51
862.505	-25.26
862.679	148.82
862.853	34.13
863.027	71
863.201	93.52
863.375	-2.73
863.549	71
863.722	54.61
863.896	64.85
864.07	17.75
864.244	58.71
864.418	95.57
864.592	93.52
864.766	116.05
864.939	60.76
865.113	44.37
865.287	87.38
865.461	3.41
865.634	89.43
865.808	73.04
865.982	15.7
866.156	11.61
866.329	75.09
866.503	132.44
866.676	87.38
866.85	48.47
867.024	13.65
867.197	68.95
867.371	66.9
867.544	15.7
867.718	21.85
867.891	38.23
868.065	73.04
868.238	25.94
868.412	128.34
868.585	58.71
868.759	13.65
868.932	17.75
869.105	15.7
869.279	48.47
869.452	111.96
869.625	34.13
869.799	64.85
869.972	34.13
870.145	-0.68
870.319	138.58
870.492	-2.73
870.665	9.56
870.838	40.28
871.011	-72.36
871.185	38.23
871.358	13.65
871.531	103.76
871.704	-19.11
871.877	25.94
872.05	48.47
872.223	-0.68
872.396	105.81
872.569	-2.73
872.742	42.32
872.915	81.24
873.088	46.42
873.261	-19.11
873.434	-2.73
873.607	-15.02
873.78	54.61
873.953	-35.5
874.126	56.66
874.299	87.38
874.471	15.7
874.644	58.71
874.817	62.8
874.99	116.05
875.163	-8.87
875.335	71
875.508	-12.97
875.681	146.77
875.853	89.43
876.026	-2.73
876.199	25.94
876.371	64.85
876.544	7.51
876.717	-10.92
876.889	25.94
877.062	91.48
877.234	-76.46
877.407	7.51
877.579	-19.11
877.752	34.13
877.924	71
878.097	99.67
878.269	-15.02
878.442	34.13
878.614	48.47
878.786	132.44
878.959	54.61
879.131	-35.5
879.303	5.46
879.476	-82.6
879.648	75.09
879.82	58.71
879.993	13.65
880.165	40.28
880.337	-37.55
880.509	83.28
880.681	9.56
880.854	-15.02
881.026	-15.02
881.198	58.71
881.37	-17.07
881.542	46.42
881.714	-23.21
881.886	-64.17
882.058	66.9
882.23	85.33
882.402	17.75
882.574	34.13
882.746	111.96
882.918	44.37
883.09	60.76
883.262	-0.68
883.434	11.61
883.606	-29.35
883.778	5.46
883.95	130.39
884.122	50.52
884.293	9.56
884.465	23.89
884.637	93.52
884.809	25.94
884.98	38.23
885.152	38.23
885.324	-4.78
885.496	-70.31
885.667	-66.22
885.839	-47.79
886.011	140.63
886.182	23.89
886.354	19.8
886.525	23.89
886.697	46.42
886.869	50.52
887.04	-31.4
887.212	36.18
887.383	40.28
887.555	5.46
887.726	-25.26
887.897	30.04
888.069	17.75
888.24	56.66
888.412	38.23
888.583	9.56
888.754	40.28
888.926	44.37
889.097	-33.45
889.268	-80.55
889.44	17.75
889.611	62.8
889.782	30.04
889.953	-23.21
890.125	48.47
890.296	56.66
890.467	34.13
890.638	13.65
890.809	25.94
890.98	3.41
891.151	23.89
891.323	50.52
891.494	17.75
891.665	25.94
891.836	42.32
892.007	62.8
892.178	-8.87
892.349	19.8
892.52	-19.11
892.691	30.04
892.862	40.28
893.032	23.89
893.203	-12.97
893.374	-0.68
893.545	-0.68
893.716	-15.02
893.887	42.32
894.057	-31.4
894.228	42.32
894.399	52.56
894.57	7.51
894.74	91.48
894.911	60.76
895.082	-55.98
895.253	-17.07
895.423	25.94
895.594	36.18
895.764	23.89
895.935	-17.07
896.106	111.96
896.276	19.8
896.447	13.65
896.617	-37.55
896.788	50.52
896.958	-12.97
897.129	64.85
897.299	-41.64
897.47	97.62
897.64	34.13
897.81	5.46
897.981	44.37
898.151	9.56
898.322	60.76
898.492	111.96
898.662	-19.11
898.832	-39.59
899.003	62.8
899.173	50.52
899.343	-21.16
899.513	1.37
