Data from USB4F104151__27__11-30-04-465.txt Node

Date: Fri Mar 14 11:30:04 EDT 2025
User: louis
Spectrometer: USB4F10415
Trigger mode: 4
Integration Time (sec): 5.000000E-2
Scans to average: 1
Electric dark correction enabled: true
Nonlinearity correction enabled: false
Boxcar width: 0
XAxis mode: Wavelengths
Number of Pixels in Spectrum: 3648
>>>>>Begin Spectral Data<<<<<
178.204	-137.9
178.424	-137.9
178.644	-137.9
178.864	-117.42
179.084	-129.7
179.304	-64.17
179.524	-6.83
179.744	-6.83
179.964	38.23
180.184	17.75
180.404	-72.36
180.624	5.46
180.844	1.37
181.064	-17.07
181.283	64.85
181.503	1.37
181.723	38.23
181.943	38.23
182.163	50.52
182.383	-6.83
182.602	-6.83
182.822	165.2
183.042	11.61
183.262	-19.11
183.482	-4.78
183.701	46.42
183.921	21.85
184.141	73.04
184.361	107.86
184.58	42.32
184.8	95.57
185.02	50.52
185.239	48.47
185.459	58.71
185.679	66.9
185.898	-23.21
186.118	91.48
186.338	15.7
186.557	-6.83
186.777	48.47
186.997	105.81
187.216	9.56
187.436	25.94
187.655	99.67
187.875	73.04
188.095	58.71
188.314	60.76
188.534	9.56
188.753	7.51
188.973	1.37
189.192	144.72
189.412	21.85
189.631	17.75
189.851	-0.68
190.07	50.52
190.29	-6.83
190.509	23.89
190.729	46.42
190.948	85.33
191.168	179.54
191.387	58.71
191.607	-0.68
191.826	140.63
192.045	25.94
192.265	34.13
192.484	52.56
192.704	83.28
192.923	38.23
193.142	89.43
193.362	42.32
193.581	132.44
193.8	30.04
194.02	132.44
194.239	58.71
194.458	165.2
194.678	68.95
194.897	-23.21
195.116	103.76
195.335	75.09
195.555	34.13
195.774	9.56
195.993	79.19
196.212	95.57
196.432	122.2
196.651	89.43
196.87	68.95
197.089	122.2
197.308	42.32
197.528	130.39
197.747	58.71
197.966	7.51
198.185	89.43
198.404	38.23
198.623	66.9
198.842	54.61
199.062	60.76
199.281	68.95
199.5	25.94
199.719	3.41
199.938	17.75
200.157	95.57
200.376	30.04
200.595	81.24
200.814	34.13
201.033	-0.68
201.252	60.76
201.471	13.65
201.69	56.66
201.909	48.47
202.128	-15.02
202.347	103.76
202.566	75.09
202.785	73.04
203.004	38.23
203.223	154.96
203.442	56.66
203.661	25.94
203.879	38.23
204.098	146.77
204.317	1.37
204.536	99.67
204.755	17.75
204.974	114
205.193	7.51
205.411	58.71
205.63	21.85
205.849	36.18
206.068	1.37
206.287	17.75
206.505	114
206.724	19.8
206.943	-31.4
207.162	-8.87
207.381	93.52
207.599	60.76
207.818	7.51
208.037	62.8
208.255	73.04
208.474	58.71
208.693	83.28
208.911	-23.21
209.13	58.71
209.349	56.66
209.567	95.57
209.786	132.44
210.005	83.28
210.223	89.43
210.442	-31.4
210.661	42.32
210.879	9.56
211.098	64.85
211.316	62.8
211.535	64.85
211.753	52.56
211.972	60.76
212.191	83.28
212.409	32.08
212.628	30.04
212.846	30.04
213.065	75.09
213.283	85.33
213.502	9.56
213.72	83.28
213.938	7.51
214.157	58.71
214.375	42.32
214.594	21.85
214.812	62.8
215.031	-0.68
215.249	103.76
215.467	34.13
215.686	38.23
215.904	105.81
216.122	130.39
216.341	-19.11
216.559	71
216.778	77.14
216.996	97.62
217.214	7.51
217.432	68.95
217.651	-6.83
217.869	54.61
218.087	25.94
218.306	122.2
218.524	54.61
218.742	95.57
218.96	40.28
219.179	38.23
219.397	103.76
219.615	87.38
219.833	118.1
220.051	38.23
220.27	40.28
220.488	62.8
220.706	81.24
220.924	-27.31
221.142	30.04
221.36	52.56
221.578	95.57
221.796	38.23
222.015	124.24
222.233	32.08
222.451	95.57
222.669	-0.68
222.887	52.56
223.105	73.04
223.323	54.61
223.541	56.66
223.759	56.66
223.977	50.52
224.195	114
224.413	79.19
224.631	68.95
224.849	-15.02
225.067	124.24
225.285	13.65
225.503	91.48
225.721	-10.92
225.939	48.47
226.157	91.48
226.375	185.68
226.592	-39.59
226.81	25.94
227.028	21.85
227.246	101.72
227.464	27.99
227.682	95.57
227.9	109.91
228.117	105.81
228.335	52.56
228.553	56.66
228.771	9.56
228.989	15.7
229.206	58.71
229.424	25.94
229.642	83.28
229.86	27.99
230.077	23.89
230.295	50.52
230.513	75.09
230.731	154.96
230.948	75.09
231.166	107.86
231.384	-31.4
231.601	5.46
231.819	87.38
232.037	23.89
232.254	89.43
232.472	54.61
232.689	9.56
232.907	132.44
233.125	62.8
233.342	-27.31
233.56	7.51
233.777	27.99
233.995	83.28
234.213	79.19
234.43	91.48
234.648	66.9
234.865	21.85
235.083	99.67
235.3	-6.83
235.518	44.37
235.735	81.24
235.953	107.86
236.17	21.85
236.388	68.95
236.605	9.56
236.822	73.04
237.04	111.96
237.257	99.67
237.475	-6.83
237.692	-6.83
237.909	15.7
238.127	17.75
238.344	46.42
238.562	30.04
238.779	17.75
238.996	15.7
239.214	46.42
239.431	17.75
239.648	5.46
239.865	87.38
240.083	50.52
240.3	75.09
240.517	99.67
240.735	42.32
240.952	38.23
241.169	79.19
241.386	50.52
241.603	1.37
241.821	13.65
242.038	83.28
242.255	114
242.472	73.04
242.689	95.57
242.907	83.28
243.124	38.23
243.341	66.9
243.558	5.46
243.775	5.46
243.992	40.28
244.209	140.63
244.426	48.47
244.643	77.14
244.86	-17.07
245.078	19.8
245.295	50.52
245.512	83.28
245.729	17.75
245.946	9.56
246.163	34.13
246.38	-37.55
246.597	-6.83
246.814	-2.73
247.031	42.32
247.248	58.71
247.464	83.28
247.681	58.71
247.898	50.52
248.115	42.32
248.332	17.75
248.549	89.43
248.766	32.08
248.983	46.42
249.2	46.42
249.417	124.24
249.633	25.94
249.85	77.14
250.067	15.7
250.284	46.42
250.501	-0.68
250.717	42.32
250.934	42.32
251.151	32.08
251.368	68.95
251.585	-2.73
251.801	50.52
252.018	46.42
252.235	105.81
252.451	15.7
252.668	25.94
252.885	56.66
253.102	48.47
253.318	40.28
253.535	50.52
253.752	-25.26
253.968	19.8
254.185	62.8
254.401	83.28
254.618	19.8
254.835	1.37
255.051	126.29
255.268	89.43
255.484	103.76
255.701	11.61
255.917	30.04
256.134	5.46
256.351	120.15
256.567	13.65
256.784	13.65
257	-0.68
257.217	81.24
257.433	99.67
257.65	89.43
257.866	42.32
258.082	40.28
258.299	-23.21
258.515	83.28
258.732	50.52
258.948	7.51
259.165	93.52
259.381	3.41
259.597	34.13
259.814	17.75
260.03	73.04
260.246	66.9
260.463	64.85
260.679	71
260.895	32.08
261.112	-62.12
261.328	46.42
261.544	68.95
261.761	132.44
261.977	9.56
262.193	42.32
262.409	138.58
262.626	58.71
262.842	146.77
263.058	1.37
263.274	60.76
263.49	40.28
263.707	27.99
263.923	97.62
264.139	48.47
264.355	144.72
264.571	71
264.787	46.42
265.004	40.28
265.22	40.28
265.436	21.85
265.652	7.51
265.868	48.47
266.084	21.85
266.3	95.57
266.516	58.71
266.732	68.95
266.948	114
267.164	32.08
267.38	95.57
267.596	89.43
267.812	157.01
268.028	-43.69
268.244	111.96
268.46	32.08
268.676	23.89
268.892	34.13
269.108	-60.07
269.324	30.04
269.54	-25.26
269.756	105.81
269.972	48.47
270.188	34.13
270.403	40.28
270.619	48.47
270.835	50.52
271.051	64.85
271.267	34.13
271.483	66.9
271.698	19.8
271.914	48.47
272.13	19.8
272.346	46.42
272.562	32.08
272.777	105.81
272.993	56.66
273.209	79.19
273.425	42.32
273.64	-47.79
273.856	75.09
274.072	32.08
274.287	87.38
274.503	56.66
274.719	62.8
274.934	46.42
275.15	-21.16
275.366	-2.73
275.581	34.13
275.797	-25.26
276.012	9.56
276.228	52.56
276.444	32.08
276.659	99.67
276.875	-31.4
277.09	1.37
277.306	17.75
277.521	42.32
277.737	25.94
277.952	105.81
278.168	40.28
278.383	56.66
278.599	50.52
278.814	32.08
279.03	71
279.245	11.61
279.461	-4.78
279.676	122.2
279.892	75.09
280.107	109.91
280.322	-27.31
280.538	46.42
280.753	34.13
280.969	7.51
281.184	17.75
281.399	99.67
281.615	23.89
281.83	75.09
282.045	-2.73
282.26	7.51
282.476	58.71
282.691	79.19
282.906	75.09
283.122	23.89
283.337	-8.87
283.552	32.08
283.767	68.95
283.983	75.09
284.198	15.7
284.413	5.46
284.628	25.94
284.843	83.28
285.058	62.8
285.274	9.56
285.489	34.13
285.704	21.85
285.919	-0.68
286.134	21.85
286.349	32.08
286.564	54.61
286.779	97.62
286.995	54.61
287.21	42.32
287.425	-10.92
287.64	-10.92
287.855	89.43
288.07	25.94
288.285	75.09
288.5	-2.73
288.715	126.29
288.93	46.42
289.145	46.42
289.36	75.09
289.575	38.23
289.79	-25.26
290.004	50.52
290.219	50.52
290.434	30.04
290.649	17.75
290.864	40.28
291.079	-6.83
291.294	66.9
291.509	79.19
291.724	87.38
291.938	122.2
292.153	50.52
292.368	-72.36
292.583	66.9
292.798	77.14
293.012	50.52
293.227	34.13
293.442	-2.73
293.657	71
293.871	44.37
294.086	62.8
294.301	91.48
294.516	171.35
294.73	23.89
294.945	83.28
295.16	66.9
295.374	54.61
295.589	87.38
295.804	-41.64
296.018	114
296.233	73.04
296.447	83.28
296.662	-23.21
296.877	50.52
297.091	40.28
297.306	73.04
297.52	21.85
297.735	58.71
297.949	56.66
298.164	83.28
298.378	75.09
298.593	-0.68
298.807	42.32
299.022	7.51
299.236	46.42
299.451	91.48
299.665	38.23
299.88	34.13
300.094	42.32
300.309	-10.92
300.523	23.89
300.737	9.56
300.952	124.24
301.166	73.04
301.381	71
301.595	91.48
301.809	32.08
302.024	62.8
302.238	34.13
302.452	144.72
302.667	-10.92
302.881	58.71
303.095	134.48
303.309	9.56
303.524	-10.92
303.738	5.46
303.952	-17.07
304.166	68.95
304.381	-2.73
304.595	87.38
304.809	71
305.023	107.86
305.237	50.52
305.452	19.8
305.666	-8.87
305.88	132.44
306.094	-12.97
306.308	9.56
306.522	7.51
306.736	-41.64
306.95	54.61
307.164	21.85
307.379	36.18
307.593	173.39
307.807	46.42
308.021	77.14
308.235	58.71
308.449	38.23
308.663	58.71
308.877	144.72
309.091	-6.83
309.305	81.24
309.519	-12.97
309.733	75.09
309.947	-72.36
310.161	77.14
310.374	89.43
310.588	75.09
310.802	7.51
311.016	42.32
311.23	58.71
311.444	27.99
311.658	-37.55
311.872	66.9
312.085	38.23
312.299	62.8
312.513	27.99
312.727	38.23
312.941	46.42
313.154	75.09
313.368	105.81
313.582	91.48
313.796	50.52
314.009	62.8
314.223	124.24
314.437	15.7
314.651	7.51
314.864	42.32
315.078	-4.78
315.292	25.94
315.505	-17.07
315.719	48.47
315.933	77.14
316.146	54.61
316.36	-31.4
316.573	30.04
316.787	116.05
317.001	52.56
317.214	-37.55
317.428	71
317.641	95.57
317.855	81.24
318.068	71
318.282	25.94
318.495	165.2
318.709	17.75
318.922	34.13
319.136	175.44
319.349	25.94
319.563	114
319.776	50.52
319.99	-21.16
320.203	99.67
320.417	81.24
320.63	48.47
320.843	68.95
321.057	64.85
321.27	15.7
321.483	38.23
321.697	32.08
321.91	50.52
322.124	66.9
322.337	66.9
322.55	-23.21
322.763	25.94
322.977	23.89
323.19	7.51
323.403	7.51
323.617	99.67
323.83	91.48
324.043	42.32
324.256	75.09
324.469	21.85
324.683	40.28
324.896	42.32
325.109	-6.83
325.322	38.23
325.535	5.46
325.748	87.38
325.962	40.28
326.175	9.56
326.388	48.47
326.601	132.44
326.814	124.24
327.027	83.28
327.24	107.86
327.453	-0.68
327.666	140.63
327.879	75.09
328.092	11.61
328.305	42.32
328.518	-0.68
328.731	50.52
328.944	25.94
329.157	38.23
329.37	34.13
329.583	165.2
329.796	165.2
330.009	13.65
330.222	66.9
330.435	142.68
330.648	1.37
330.861	99.67
331.073	50.52
331.286	56.66
331.499	50.52
331.712	-43.69
331.925	23.89
332.138	107.86
332.35	91.48
332.563	3.41
332.776	42.32
332.989	91.48
333.202	93.52
333.414	64.85
333.627	5.46
333.84	30.04
334.053	34.13
334.265	-23.21
334.478	91.48
334.691	34.13
334.903	58.71
335.116	107.86
335.329	91.48
335.541	7.51
335.754	75.09
335.966	50.52
336.179	50.52
336.392	-23.21
336.604	75.09
336.817	5.46
337.029	-12.97
337.242	83.28
337.454	73.04
337.667	75.09
337.88	75.09
338.092	40.28
338.305	73.04
338.517	79.19
338.729	79.19
338.942	114
339.154	42.32
339.367	46.42
339.579	-10.92
339.792	-17.07
340.004	73.04
340.217	87.38
340.429	175.44
340.641	79.19
340.854	5.46
341.066	38.23
341.278	5.46
341.491	58.71
341.703	42.32
341.915	101.72
342.128	42.32
342.34	134.48
342.552	48.47
342.764	-47.79
342.977	79.19
343.189	50.52
343.401	91.48
343.613	-43.69
343.826	1.37
344.038	-23.21
344.25	21.85
344.462	21.85
344.674	25.94
344.886	81.24
345.099	97.62
345.311	21.85
345.523	38.23
345.735	56.66
345.947	103.76
346.159	68.95
346.371	56.66
346.583	-49.83
346.795	81.24
347.007	23.89
347.219	103.76
347.431	32.08
347.643	17.75
347.855	64.85
348.067	130.39
348.279	-4.78
348.491	62.8
348.703	79.19
348.915	60.76
349.127	11.61
349.339	50.52
349.551	66.9
349.763	54.61
349.975	1.37
350.187	40.28
350.399	107.86
350.61	36.18
350.822	83.28
351.034	54.61
351.246	32.08
351.458	79.19
351.669	81.24
351.881	56.66
352.093	27.99
352.305	56.66
352.517	83.28
352.728	95.57
352.94	56.66
353.152	71
353.363	-6.83
353.575	185.68
353.787	128.34
353.999	73.04
354.21	132.44
354.422	124.24
354.633	25.94
354.845	83.28
355.057	21.85
355.268	58.71
355.48	44.37
355.692	30.04
355.903	81.24
356.115	71
356.326	-6.83
356.538	146.77
356.749	46.42
356.961	120.15
357.172	46.42
357.384	62.8
357.595	148.82
357.807	-15.02
358.018	32.08
358.23	85.33
358.441	124.24
358.653	50.52
358.864	56.66
359.075	79.19
359.287	77.14
359.498	17.75
359.709	91.48
359.921	25.94
360.132	1.37
360.344	81.24
360.555	50.52
360.766	42.32
360.977	-27.31
361.189	87.38
361.4	17.75
361.611	71
361.823	101.72
362.034	111.96
362.245	38.23
362.456	5.46
362.667	89.43
362.879	17.75
363.09	87.38
363.301	34.13
363.512	-31.4
363.723	34.13
363.935	34.13
364.146	17.75
364.357	81.24
364.568	111.96
364.779	-6.83
364.99	62.8
365.201	9.56
365.412	48.47
365.623	15.7
365.834	95.57
366.045	60.76
366.256	109.91
366.467	60.76
366.678	9.56
366.889	1.37
367.1	126.29
367.311	54.61
367.522	34.13
367.733	71
367.944	66.9
368.155	71
368.366	103.76
368.577	173.39
368.788	79.19
368.999	81.24
369.209	75.09
369.42	81.24
369.631	165.2
369.842	66.9
370.053	25.94
370.264	91.48
370.474	103.76
370.685	34.13
370.896	13.65
371.107	97.62
371.317	44.37
371.528	23.89
371.739	157.01
371.95	157.01
372.16	75.09
372.371	17.75
372.582	9.56
372.792	103.76
373.003	23.89
373.214	-2.73
373.424	75.09
373.635	-45.74
373.846	140.63
374.056	87.38
374.267	73.04
374.477	64.85
374.688	13.65
374.898	91.48
375.109	87.38
375.319	36.18
375.53	173.39
375.74	34.13
375.951	15.7
376.161	73.04
376.372	66.9
376.582	50.52
376.793	99.67
377.003	66.9
377.214	25.94
377.424	58.71
377.635	60.76
377.845	50.52
378.055	79.19
378.266	40.28
378.476	73.04
378.686	32.08
378.897	173.39
379.107	150.87
379.317	81.24
379.528	120.15
379.738	71
379.948	32.08
380.158	124.24
380.369	138.58
380.579	105.81
380.789	7.51
380.999	1.37
381.21	124.24
381.42	181.59
381.63	1.37
381.84	111.96
382.05	21.85
382.261	87.38
382.471	114
382.681	109.91
382.891	132.44
383.101	87.38
383.311	73.04
383.521	81.24
383.731	105.81
383.941	124.24
384.151	73.04
384.361	46.42
384.571	111.96
384.781	25.94
384.991	46.42
385.201	79.19
385.411	50.52
385.621	91.48
385.831	132.44
386.041	99.67
386.251	130.39
386.461	56.66
386.671	7.51
386.881	62.8
387.091	89.43
387.301	79.19
387.511	101.72
387.72	62.8
387.93	34.13
388.14	30.04
388.35	75.09
388.56	68.95
388.769	50.52
388.979	42.32
389.189	97.62
389.399	-17.07
389.609	122.2
389.818	56.66
390.028	19.8
390.238	97.62
390.447	91.48
390.657	50.52
390.867	79.19
391.076	99.67
391.286	23.89
391.496	105.81
391.705	64.85
391.915	17.75
392.125	71
392.334	87.38
392.544	91.48
392.753	62.8
392.963	81.24
393.172	56.66
393.382	-45.74
393.591	75.09
393.801	89.43
394.01	167.25
394.22	79.19
394.429	91.48
394.639	1.37
394.848	83.28
395.058	118.1
395.267	54.61
395.477	163.15
395.686	152.91
395.895	197.97
396.105	169.3
396.314	21.85
396.524	34.13
396.733	38.23
396.942	91.48
397.152	50.52
397.361	101.72
397.57	79.19
397.78	87.38
397.989	144.72
398.198	118.1
398.407	157.01
398.617	101.72
398.826	50.52
399.035	85.33
399.244	89.43
399.453	54.61
399.663	91.48
399.872	130.39
400.081	40.28
400.29	136.53
400.499	42.32
400.708	163.15
400.917	157.01
401.127	17.75
401.336	73.04
401.545	175.44
401.754	179.54
401.963	128.34
402.172	128.34
402.381	140.63
402.59	124.24
402.799	42.32
403.008	212.31
403.217	159.06
403.426	157.01
403.635	118.1
403.844	185.68
404.053	95.57
404.262	124.24
404.471	255.31
404.68	157.01
404.888	132.44
405.097	138.58
405.306	140.63
405.515	181.59
405.724	99.67
405.933	173.39
406.142	165.2
406.35	195.92
406.559	210.26
406.768	161.11
406.977	238.93
407.185	128.34
407.394	214.35
407.603	220.5
407.812	189.78
408.02	134.48
408.229	187.73
408.438	177.49
408.646	187.73
408.855	228.69
409.064	181.59
409.272	236.88
409.481	261.46
409.69	197.97
409.898	204.11
410.107	288.08
410.315	300.37
410.524	337.23
410.733	277.84
410.941	271.7
411.15	335.18
411.358	294.22
411.567	361.81
411.775	312.66
411.984	433.49
412.192	404.82
412.401	402.77
412.609	466.25
412.818	484.69
413.026	415.05
413.234	484.69
413.443	447.82
413.651	415.05
413.86	478.54
414.068	519.5
414.276	523.6
414.485	496.97
414.693	595.28
414.901	574.8
415.11	628.04
415.318	623.95
415.526	644.43
415.734	726.35
415.943	716.11
416.151	810.31
416.359	699.72
416.567	730.44
416.776	718.15
416.984	818.5
417.192	795.98
417.4	810.31
417.608	808.27
417.817	925
418.025	935.24
418.233	1058.12
418.441	955.72
418.649	1064.26
418.857	980.29
419.065	1070.4
419.273	1109.32
419.481	1170.76
419.689	1064.26
419.897	1193.28
420.105	1279.3
420.313	1301.83
420.521	1367.36
420.729	1471.81
420.937	1457.47
421.145	1508.67
421.353	1523.01
421.561	1584.45
421.769	1668.41
421.977	1715.52
422.185	1678.65
422.393	1844.54
422.601	1850.68
422.809	1883.45
423.017	1844.54
423.224	1983.8
423.432	2184.5
423.64	2123.06
423.848	2272.56
424.056	2227.51
424.263	2346.29
424.471	2417.97
424.679	2385.2
424.887	2594.09
425.094	2608.43
425.302	2725.16
425.51	2692.4
425.718	2913.58
425.925	2784.55
426.133	2895.15
426.341	3167.52
426.548	3310.88
426.756	3384.61
426.964	3499.3
427.171	3540.26
427.379	3552.54
427.586	3630.37
427.794	3646.75
428.001	3933.47
428.209	4013.34
428.417	4023.58
428.624	4379.92
428.832	4179.22
429.039	4343.06
429.247	4338.96
429.454	4791.56
429.662	5125.38
429.869	4781.32
430.076	5051.66
430.284	4703.5
430.491	5188.87
430.699	5283.08
430.906	5383.43
431.114	5420.29
431.321	5555.46
431.528	5672.19
431.736	6022.39
431.943	6421.75
432.15	6356.21
432.358	6341.88
432.565	6735.09
432.772	6429.94
432.979	6919.4
433.187	7001.32
433.394	7068.91
433.601	7668.96
433.808	7675.1
434.016	7427.3
434.223	7902.43
434.43	8381.65
434.637	8160.47
434.844	8647.89
435.052	8721.62
435.259	8838.35
435.466	8879.31
435.673	8713.42
435.88	9364.68
436.087	9895.1
436.294	9827.52
436.501	9534.66
436.708	9833.66
436.915	10310.84
437.122	10673.33
437.329	10663.09
437.537	10896.56
437.743	11037.87
437.95	10962.09
438.157	11529.38
438.364	12057.76
438.571	11891.87
438.778	12160.16
438.985	13298.83
439.192	12618.9
439.399	13200.52
439.606	12686.48
439.813	13497.48
440.02	14261.37
440.227	13866.11
440.433	13972.61
440.64	14343.29
440.847	14146.69
441.054	14681.21
441.261	15410.28
441.467	15434.86
441.674	15932.51
441.881	16479.32
442.088	16249.95
442.294	16280.67
442.501	16589.91
442.708	17054.8
442.914	17617.99
443.121	18342.97
443.328	17853.51
443.534	18889.78
443.741	18463.8
443.948	18340.93
444.154	19686.44
444.361	19690.54
444.568	19637.29
444.774	19719.21
444.981	20046.88
445.187	20462.62
445.394	21339.15
445.6	20888.6
445.807	22866.94
446.013	22053.89
446.22	22264.83
446.426	23190.52
446.633	23415.79
446.839	24509.41
447.046	23288.82
447.252	24728.54
447.459	24689.63
447.665	24546.27
447.871	25400.27
448.078	26938.3
448.284	25517.01
448.491	26084.3
448.697	27204.53
448.903	27849.64
449.11	27687.85
449.316	27089.85
449.522	27581.36
449.728	28582.82
449.935	28742.56
450.141	28566.43
450.347	29010.84
450.553	28369.83
450.76	28654.5
450.966	29713.3
451.172	29469.59
451.378	30190.47
451.584	29318.04
451.791	29848.46
451.997	29698.96
452.203	30503.81
452.409	30282.63
452.615	30104.46
452.821	29029.27
453.027	28896.16
453.233	30176.14
453.44	29021.08
453.646	29651.86
453.852	29434.77
454.058	29957
454.264	28859.29
454.47	29698.96
454.676	28654.5
454.882	29965.2
455.088	27024.31
455.294	27620.27
455.5	27954.09
455.705	28132.26
455.911	26891.19
456.117	26502.08
456.323	25922.51
456.529	25029.59
456.735	25869.26
456.941	24847.32
457.147	24925.15
457.352	24423.39
457.558	23553.01
457.764	23886.82
457.97	23030.77
458.176	22830.07
458.381	22627.32
458.587	21500.94
458.793	21453.84
458.999	20673.56
459.204	22045.7
459.41	21693.45
459.616	20182.05
459.821	19866.66
460.027	19762.22
460.233	19616.81
460.438	18418.75
460.644	18816.05
460.85	17939.52
461.055	17630.28
461.261	17607.75
461.466	16141.41
461.672	15971.43
461.878	16915.54
462.083	15815.78
462.289	15266.92
462.494	15191.15
462.7	14605.43
462.905	14423.16
463.111	14756.98
463.316	14566.52
463.522	14543.99
463.727	14443.64
463.932	14414.97
464.138	14179.45
464.343	14447.74
464.549	13919.36
464.754	14320.76
464.959	14222.46
465.165	14230.65
465.37	13522.05
465.575	13192.33
465.781	13593.73
465.986	13800.58
466.191	13149.32
466.397	12934.29
466.602	12205.21
466.807	12903.57
467.012	12844.18
467.218	12948.62
467.423	12422.3
467.628	12811.41
467.833	13132.94
468.038	12795.03
468.244	12280.99
468.449	12919.95
468.654	12573.85
468.859	12362.9
469.064	12229.79
469.269	11945.12
469.474	11926.69
469.679	12311.71
469.885	11949.21
470.09	11871.39
470.295	11938.98
470.5	11320.49
470.705	11656.36
470.91	11592.87
471.115	11330.73
471.32	11486.37
471.525	11338.92
471.73	11263.15
471.935	10931.37
472.139	10685.62
472.344	10790.06
472.549	10794.16
472.754	10587.32
472.959	10157.24
473.164	10185.91
473.369	10114.23
473.574	10634.42
473.778	10151.1
473.983	10073.28
474.188	10132.67
474.393	9727.17
474.598	9733.31
474.802	9567.43
475.007	9479.36
475.212	9422.02
475.417	9262.28
475.621	9297.1
475.826	9383.11
476.031	9133.26
476.235	8799.44
476.44	9157.83
476.645	8828.11
476.849	8955.08
477.054	8817.87
477.259	8525.01
477.463	8631.51
477.668	8336.6
477.872	8604.88
478.077	8185.05
478.282	7959.77
478.486	8162.52
478.691	8027.35
478.895	8072.41
479.1	8129.75
479.304	8056.03
479.509	7896.28
479.713	7787.74
479.918	7716.06
480.122	7677.15
480.326	7939.29
480.531	7668.96
480.735	7525.6
480.94	7765.21
481.144	7840.99
481.348	7390.44
481.553	7513.31
481.757	7429.35
481.961	7605.47
482.166	7537.89
482.37	7474.4
482.574	7316.71
482.778	7535.84
482.983	7533.79
483.187	7435.49
483.391	7453.92
483.595	7318.76
483.8	7179.5
484.004	7439.59
484.208	7408.87
484.412	7396.58
484.616	7333.09
484.821	7460.07
485.025	7232.74
485.229	7492.84
485.433	7265.51
485.637	7501.03
485.841	7355.62
486.045	7308.52
486.249	7329
486.453	7232.74
486.657	7431.4
486.861	7365.86
487.065	7245.03
487.269	7410.92
487.473	7292.13
487.677	7468.26
487.881	7617.76
488.085	7363.81
488.289	7488.74
488.493	7372
488.697	7435.49
488.901	7455.97
489.105	7365.86
489.309	7507.17
489.512	7378.15
489.716	7427.3
489.92	7529.7
490.124	7396.58
490.328	7552.23
490.531	7488.74
490.735	7460.07
490.939	7562.47
491.143	7578.85
491.346	7558.37
491.55	7705.82
491.754	7515.36
491.958	7802.08
492.161	7797.98
492.365	7775.45
492.569	7797.98
492.772	7668.96
492.976	7922.91
493.18	7773.41
493.383	7929.05
493.587	8025.31
493.79	8027.35
493.994	7980.25
494.197	8099.03
494.401	8199.38
494.605	7974.11
494.808	8271.06
495.012	8494.29
495.215	8307.93
495.419	8467.67
495.622	8299.73
495.825	8627.41
496.029	8428.76
496.232	8811.73
496.436	8690.9
496.639	8994
496.843	8864.97
497.046	8828.11
497.249	9131.21
497.453	9282.76
497.656	9397.45
497.859	9370.82
498.063	9573.57
498.266	9841.86
498.469	9594.05
498.673	9753.79
498.876	9811.14
499.079	9907.39
499.282	9913.53
499.485	10190.01
499.689	10038.46
499.892	10267.83
500.095	10446.01
500.298	10699.95
500.501	10304.7
500.705	10847.41
500.908	10755.25
501.111	10912.94
501.314	11199.66
501.517	11070.64
501.72	11424.93
501.923	11297.96
502.126	11603.11
502.329	11852.96
502.532	11859.1
502.735	11941.02
502.938	12088.48
503.141	12108.96
503.344	12381.34
503.547	12385.43
503.75	12385.43
503.953	12643.48
504.156	12788.88
504.359	12965.01
504.562	12895.38
504.765	13446.28
504.968	13335.69
505.17	13685.89
505.373	13548.68
505.576	13737.09
505.779	13733
505.982	13935.74
506.185	14150.78
506.387	14265.47
506.59	14492.79
506.793	14701.68
506.996	14777.46
507.198	15203.44
507.401	15129.71
507.604	15250.54
507.807	15449.19
508.009	15600.74
508.212	15717.48
508.415	15967.33
508.617	15924.32
508.82	16270.43
509.022	16098.4
509.225	16565.34
509.428	16710.74
509.63	16956.5
509.833	16768.09
510.035	17579.08
510.238	17175.63
510.44	17329.23
510.643	17515.59
510.845	17714.25
511.048	17450.06
511.25	18029.63
511.453	18177.09
511.655	18791.48
511.858	18740.28
512.06	18644.02
512.262	19082.29
512.465	18979.89
512.667	19276.85
512.87	19063.86
513.072	19403.82
513.274	19702.82
513.477	20063.27
513.679	20096.03
513.881	20202.53
514.084	20710.43
514.286	20810.78
514.488	20921.37
514.69	21341.2
514.893	21253.14
515.095	21376.02
515.297	21488.65
515.499	21718.03
515.701	22096.9
515.904	22121.48
516.106	22072.32
516.308	22875.13
516.51	22664.19
516.712	22842.36
516.914	23081.97
517.116	23053.3
517.318	23686.12
517.52	23714.8
517.722	23897.06
517.925	23985.13
518.127	24245.22
518.329	24472.54
518.531	24476.64
518.733	24806.36
518.935	25041.88
519.136	25213.91
519.338	25648.08
519.54	25387.99
519.742	26059.72
519.944	25676.75
520.146	26471.36
520.348	26790.84
520.55	26731.45
520.752	26743.74
520.954	27354.04
521.155	26995.64
521.357	27515.83
521.559	27747.25
521.761	28410.79
521.963	28355.49
522.164	28232.61
522.366	28785.57
522.568	29045.66
522.77	28984.22
522.971	29645.71
523.173	28953.5
523.375	29510.55
523.576	29471.64
523.778	29627.28
523.98	30376.84
524.181	30184.33
524.383	30108.55
524.584	30675.84
524.786	30690.18
524.988	30899.07
525.189	30935.93
525.391	31382.39
525.592	31562.61
525.794	31714.16
525.995	31540.08
526.197	31470.45
526.398	31951.73
526.6	32078.7
526.801	32383.85
527.003	32600.93
527.204	32465.77
527.406	33004.38
527.607	33250.14
527.808	33188.7
528.01	32985.95
528.211	33061.72
528.412	33790.8
528.614	33737.55
528.815	33534.81
529.016	34526.02
529.218	33483.61
529.419	34046.8
529.62	33776.47
529.822	33897.3
530.023	34370.38
530.224	34491.21
530.425	34370.38
530.626	33975.12
530.828	34296.65
531.029	34863.94
531.23	34614.09
531.431	34802.5
531.632	35164.99
531.833	35230.52
532.035	35025.73
532.236	35490.62
532.437	35377.98
532.638	35199.8
532.839	35294.01
533.04	35646.26
533.241	35130.17
533.442	35871.54
533.643	35736.37
533.844	36094.77
534.045	35494.71
534.246	35375.93
534.447	35957.55
534.648	35855.15
534.849	35990.32
535.05	35375.93
535.251	35900.21
535.451	36002.61
535.652	35810.1
535.853	36012.85
536.054	36264.75
536.255	36424.49
536.456	35507
536.657	36156.21
536.857	35830.58
537.058	35556.15
537.259	36381.48
537.46	36004.66
537.66	35916.59
537.861	36320.04
538.062	36105.01
538.263	36225.84
538.463	36297.52
538.664	36229.93
538.865	35916.59
539.065	36473.64
539.266	35869.49
539.466	36449.07
539.667	35562.29
539.868	36471.59
540.068	36473.64
540.269	36258.6
540.469	36653.86
540.67	36059.95
540.87	35996.46
541.071	36166.45
541.271	36141.87
541.472	36336.43
541.672	36016.94
541.873	35992.37
542.073	35818.29
542.274	36381.48
542.474	35793.72
542.675	36154.16
542.875	36682.53
543.075	36250.41
543.276	35918.64
543.476	36268.84
543.676	35894.07
543.877	36137.77
544.077	35935.03
544.277	35928.88
544.478	35715.89
544.678	36334.38
544.878	35949.36
545.078	36182.83
545.279	35937.07
545.479	36178.73
545.679	36016.94
545.879	35951.41
546.079	35791.67
546.28	36107.05
546.48	35916.59
546.68	36240.17
546.88	36227.88
547.08	36102.96
547.28	35885.87
547.48	35760.95
547.68	36051.76
547.88	36047.66
548.081	35939.12
548.281	35818.29
548.481	35803.96
548.681	35935.03
548.881	35961.65
549.081	35822.39
549.28	35552.05
549.48	36244.27
549.68	35638.07
549.88	36125.49
550.08	35816.24
550.28	35902.26
550.48	35908.4
550.68	36291.37
550.88	35932.98
551.08	35574.58
551.279	36135.73
551.479	35724.08
551.679	35658.55
551.879	35670.84
552.079	35830.58
552.278	35400.51
552.478	35470.14
552.678	35959.6
552.878	35719.99
553.077	35474.23
553.277	35453.75
553.477	35666.74
553.676	35621.69
553.876	35838.77
554.076	35185.47
554.275	35482.42
554.475	35040.06
554.674	35449.66
554.874	35550.01
555.074	35400.51
555.273	35013.44
555.473	35586.87
555.672	34988.86
555.872	35291.96
556.071	35121.98
556.271	35490.62
556.47	35277.63
556.67	34925.38
556.869	34650.95
557.068	35011.39
557.268	34507.59
557.467	34714.44
557.667	34657.09
557.866	34628.42
558.065	34519.88
558.265	34061.13
558.464	34255.69
558.663	34888.51
558.863	34026.32
559.062	34337.61
559.261	34247.5
559.461	34331.47
559.66	33925.97
559.859	33958.74
560.058	33692.5
560.258	34278.22
560.457	33907.54
560.656	33594.2
560.855	33733.46
561.054	33723.22
561.253	33190.75
561.453	33477.46
561.652	33690.45
561.851	33360.73
562.05	33190.75
562.249	33143.64
562.448	33217.37
562.647	32969.57
562.846	32732
563.045	32951.13
563.244	32363.37
563.443	32850.78
563.642	32306.02
563.841	32467.81
564.04	32549.73
564.239	32758.63
564.438	32150.38
564.637	32097.13
564.836	31986.54
565.035	32017.26
565.234	31802.22
565.432	31689.59
565.631	31708.02
565.83	31976.3
566.029	31714.16
566.228	31282.04
566.427	31515.51
566.625	31331.19
566.824	31345.53
567.023	31069.05
567.222	30436.23
567.42	31241.08
567.619	30966.65
567.818	30499.72
568.016	30464.9
568.215	30712.7
568.414	30565.25
568.612	30606.21
568.811	30503.81
569.01	30542.72
569.208	29891.47
569.407	30239.62
569.605	29713.3
569.804	29494.16
570.002	29377.43
570.201	29711.25
570.4	29567.89
570.598	29252.5
570.797	29363.09
570.995	29115.29
571.193	29131.67
571.392	29070.23
571.59	28648.35
571.789	28756.89
571.987	28742.56
572.186	28603.3
572.384	28052.39
572.582	28814.24
572.781	28658.59
572.979	28117.93
573.177	28443.56
573.376	28195.75
573.574	27984.81
573.772	28296.1
573.971	27863.98
574.169	27737.01
574.367	27554.74
574.565	27409.33
574.763	27798.45
574.962	27341.75
575.16	26913.72
575.358	27636.66
575.556	27110.33
575.754	27292.6
575.952	27161.53
576.151	27126.71
576.349	26520.51
576.547	26860.48
576.745	26387.39
576.943	27007.93
577.141	26457.03
577.339	26348.48
577.537	26500.03
577.735	26516.42
577.933	25975.75
578.131	26252.23
578.329	25971.66
578.527	25924.55
578.725	25936.84
578.923	25805.77
579.121	25715.66
579.319	25748.43
579.516	25875.4
579.714	25519.06
579.912	25474
580.11	25699.28
580.308	25332.69
580.506	25340.88
580.704	25027.54
580.901	25142.23
581.099	25062.36
581.297	25076.69
581.495	25152.47
581.692	24771.55
581.89	24792.03
582.088	24783.84
582.285	24470.5
582.483	25017.3
582.681	24423.39
582.878	24284.13
583.076	24116.2
583.274	24466.4
583.471	24237.03
583.669	24093.67
583.866	23786.47
584.064	24157.16
584.262	23981.03
584.459	23884.78
584.657	23743.47
584.854	23763.95
585.052	23626.73
585.249	23501.81
585.447	23432.18
585.644	23354.35
585.841	23405.55
586.039	23512.05
586.236	23065.59
586.434	23120.88
586.631	22916.09
586.828	22782.97
587.026	22934.52
587.223	23262.19
587.42	22916.09
587.618	22973.43
587.815	22471.68
588.012	22414.34
588.21	22492.16
588.407	22670.33
588.604	22184.96
588.801	22256.64
588.999	22283.27
589.196	22234.11
589.393	22096.9
589.59	21945.35
589.787	21914.63
589.984	21765.13
590.182	21640.2
590.379	21842.95
590.576	21785.61
590.773	21572.62
590.97	21707.79
591.167	21931.01
591.364	21505.04
591.561	21376.02
591.758	21013.52
591.955	21353.49
592.152	21306.38
592.349	21015.57
592.546	21324.82
592.743	21333.01
592.94	20640.79
593.137	21077.01
593.334	20972.57
593.531	20573.21
593.727	20872.21
593.924	20595.74
594.121	20419.61
594.318	20696.09
594.515	20257.82
594.712	20460.57
594.908	20268.06
595.105	20382.75
595.302	19985.44
595.499	20157.47
595.696	20118.56
595.892	19749.93
596.089	20022.31
596.286	20030.5
596.482	19948.58
596.679	19938.34
596.876	19647.53
597.072	19659.82
597.269	19524.65
597.466	19422.25
597.662	19665.96
597.859	19274.8
598.055	19186.74
598.252	19340.33
598.448	19242.03
598.645	19252.27
598.841	19088.43
599.038	19219.5
599.234	18863.16
599.431	18658.36
599.627	18873.4
599.824	19117.11
600.02	18531.39
600.217	18854.97
600.413	19041.33
600.609	18531.39
600.806	18433.08
601.002	18492.48
601.198	18254.91
601.395	18494.52
601.591	18379.84
601.787	18322.49
601.984	18261.05
602.18	18355.26
602.376	18199.62
602.572	17892.42
602.769	17925.19
602.965	17912.9
603.161	18134.08
603.357	17730.63
603.553	17935.43
603.75	17804.36
603.946	17792.07
604.142	17556.55
604.338	17552.46
604.534	17509.45
604.73	17413.2
604.926	17290.32
605.122	17445.96
605.318	17331.28
605.514	17151.06
605.71	17214.54
605.906	17421.39
606.102	17056.85
606.298	17134.67
606.494	17413.2
606.69	16997.46
606.886	16596.06
607.082	16817.24
607.278	16761.94
607.474	16727.13
607.67	16751.7
607.866	16573.53
608.062	16653.4
608.257	16876.63
608.453	16618.58
608.649	16608.34
608.845	16446.55
609.041	16389.21
609.236	16419.93
609.432	16155.74
609.628	16391.26
609.824	16356.44
610.019	16231.52
610.215	16192.61
610.411	16116.83
610.606	16131.17
610.802	16178.27
610.998	16012.39
611.193	16282.72
611.389	15989.86
611.584	15715.43
611.78	16290.91
611.976	15793.25
612.171	15750.24
612.367	15694.95
612.562	15608.94
612.758	15649.89
612.953	15713.38
613.149	16030.82
613.344	15645.8
613.539	15850.6
613.735	15500.39
613.93	15787.11
614.126	15473.77
614.321	15729.77
614.517	15387.75
614.712	15572.07
614.907	15297.64
615.103	15608.94
615.298	15168.62
615.493	15463.53
615.688	15240.3
615.884	15357.03
616.079	15297.64
616.274	15029.36
616.47	15166.57
616.665	15209.58
616.86	15299.69
617.055	14955.63
617.25	14945.39
617.445	15029.36
617.641	14820.47
617.836	15219.82
618.031	14632.05
618.226	14961.78
618.421	14912.63
618.616	14812.28
618.811	14572.66
619.006	14797.94
619.201	14230.65
619.396	14660.73
619.591	14312.57
619.786	14511.22
619.981	14179.45
620.176	14445.69
620.371	14173.31
620.566	14115.97
620.761	14060.67
620.956	14177.4
621.151	13655.17
621.346	14107.77
621.541	13571.21
621.735	13833.35
621.93	13606.02
622.125	13716.61
622.32	13530.25
622.515	13407.37
622.709	13462.66
622.904	13491.34
623.099	13255.82
623.294	13216.91
623.488	13157.52
623.683	13202.57
623.878	12737.68
624.072	13003.92
624.267	13038.73
624.462	12930.19
624.656	12469.4
624.851	12645.52
625.046	12754.07
625.24	12579.99
625.435	12233.88
625.629	12475.54
625.824	12467.35
626.018	12436.63
626.213	11916.45
626.407	12190.88
626.602	11895.97
626.796	12010.65
626.991	11879.58
627.185	11971.74
627.38	11680.93
627.574	11928.74
627.768	11607.2
627.963	11400.36
628.157	11541.67
628.352	11543.72
628.546	11371.69
628.74	11607.2
628.935	11357.35
629.129	11222.19
629.323	11314.34
629.517	10970.29
629.712	11146.41
629.906	10978.48
630.1	10769.58
630.294	11013.29
630.489	10828.98
630.683	10939.57
630.877	10683.57
631.071	10794.16
631.265	10687.67
631.459	10626.23
631.653	10560.69
631.848	10433.72
632.042	10396.85
632.236	10513.59
632.43	10280.12
632.624	10306.74
632.818	10482.87
633.012	10017.98
633.206	10161.34
633.4	10206.39
633.594	10077.37
633.788	10011.84
633.982	9944.25
634.176	9819.33
634.369	9755.84
634.563	9825.47
634.757	9684.16
634.951	9696.45
635.145	9514.18
635.339	9620.67
635.533	9616.58
635.726	9725.12
635.92	9422.02
636.114	9518.28
636.308	9221.32
636.501	9397.45
636.695	9313.48
636.889	9272.52
637.083	9196.74
637.276	9030.86
637.47	9004.24
637.664	9022.67
637.857	8903.89
638.051	8967.37
638.244	9037
638.438	8936.65
638.632	8559.83
638.825	8742.1
639.019	8676.56
639.212	8697.04
639.406	8656.08
639.599	8379.61
639.793	8428.76
639.986	8363.22
640.18	8371.41
640.373	8273.11
640.567	8209.62
640.76	8156.38
640.954	8137.95
641.147	8070.36
641.34	8146.14
641.534	7972.06
641.727	7978.2
641.92	8000.73
642.114	7830.75
642.307	7898.33
642.5	7697.63
642.694	7888.09
642.887	7826.65
643.08	7863.52
643.273	7896.28
643.467	7800.03
643.66	7658.72
643.853	7505.12
644.046	7531.75
644.239	7529.7
644.432	7267.56
644.626	7283.94
644.819	7329
645.012	7294.18
645.205	7464.16
645.398	7331.05
645.591	7322.85
645.784	7128.3
645.977	7267.56
646.17	7021.8
646.363	7073
646.556	7007.47
646.749	7097.58
646.942	7054.57
647.135	6911.21
647.328	6886.64
647.521	6839.53
647.714	6845.68
647.907	6698.22
648.099	6874.35
648.292	6706.41
648.485	6774
648.678	6745.33
648.871	6743.28
649.064	6759.66
649.256	6571.25
649.449	6632.69
649.642	6644.98
649.835	6391.03
650.027	6550.77
650.22	6520.05
650.413	6194.42
650.605	6388.98
650.798	6378.74
650.991	6309.11
651.183	6309.11
651.376	6223.09
651.568	6305.01
651.761	6128.89
651.954	6190.33
652.146	6126.84
652.339	6087.93
652.531	6231.29
652.724	6118.65
652.916	5891.32
653.109	6038.78
653.301	6012.15
653.494	5956.86
653.686	5987.58
653.879	6051.06
654.071	5881.08
654.263	5717.25
654.456	5844.22
654.648	5704.96
654.84	5721.34
655.033	5743.87
655.225	5704.96
655.417	5545.22
655.61	5784.83
655.802	5688.57
655.994	5645.57
656.186	5596.42
656.379	5551.36
656.571	5592.32
656.763	5397.76
656.955	5494.02
657.148	5354.76
657.34	5457.15
657.532	5477.63
657.724	5403.91
657.916	5350.66
658.108	5395.72
658.3	5330.18
658.492	5459.2
658.684	5123.34
658.876	5387.52
659.068	5373.19
659.26	5022.98
659.452	5199.11
659.644	5317.89
659.836	5137.67
660.028	5129.48
660.22	5039.37
660.412	5070.09
660.604	5076.23
660.796	4990.22
660.988	5014.79
661.18	5096.71
661.372	4922.63
661.563	5088.52
661.755	4986.12
661.947	5072.14
662.139	4777.23
662.331	4826.38
662.522	4871.43
662.714	4906.25
662.906	4703.5
663.097	4748.56
663.289	4728.08
663.481	4830.48
663.673	4676.88
663.864	4691.21
664.056	4652.3
664.247	4855.05
664.439	4846.86
664.631	4715.79
664.822	4756.75
665.014	4695.31
665.205	4785.42
665.397	4705.55
665.588	4900.11
665.78	4588.82
665.971	4584.72
666.163	4750.6
666.354	4859.15
666.546	4533.52
666.737	4633.87
666.929	4609.3
667.12	4717.84
667.311	4531.47
667.503	4560.14
667.694	4670.73
667.885	4554
668.077	4633.87
668.268	4525.33
668.459	4588.82
668.651	4529.42
668.842	4556.05
669.033	4519.18
669.224	4547.86
669.416	4601.1
669.607	4506.9
669.798	4515.09
669.989	4343.06
670.18	4420.88
670.371	4580.62
670.563	4363.54
670.754	4480.27
670.945	4580.62
671.136	4467.99
671.327	4412.69
671.518	4562.19
671.709	4527.38
671.9	4576.53
672.091	4474.13
672.282	4537.62
672.473	4431.12
672.664	4572.43
672.855	4640.01
673.046	4488.46
673.237	4629.77
673.428	4455.7
673.619	4611.34
673.809	4410.64
674	4597.01
674.191	4662.54
674.382	4535.57
674.573	4580.62
674.764	4666.64
674.954	4781.32
675.145	4535.57
675.336	4392.21
675.527	4539.66
675.717	4676.88
675.908	4482.32
676.099	4715.79
676.289	4687.12
676.48	4687.12
676.671	4556.05
676.861	4564.24
677.052	4701.45
677.243	4668.69
677.433	4779.28
677.624	4678.93
677.814	4750.6
678.005	4695.31
678.195	4824.33
678.386	4777.23
678.576	4807.95
678.767	4732.17
678.957	4879.63
679.148	4883.72
679.338	5002.51
679.529	4812.04
679.719	4973.83
679.909	5018.89
680.1	4941.07
680.29	4791.56
680.481	4914.44
680.671	4875.53
680.861	4992.27
681.052	4971.79
681.242	4912.39
681.432	5094.66
681.622	5039.37
681.813	5004.55
682.003	4930.83
682.193	4965.64
682.383	5152.01
682.573	5106.95
682.764	5006.6
682.954	5162.25
683.144	5145.86
683.334	5125.38
683.524	5137.67
683.714	5252.36
683.904	5121.29
684.094	5133.57
684.284	5203.21
684.474	5178.63
684.664	5164.29
684.854	5192.97
685.044	5174.53
685.234	4998.41
685.424	5160.2
685.614	4959.5
685.804	5078.28
685.994	5106.95
686.184	5158.15
686.374	5289.22
686.564	5084.42
686.753	5027.08
686.943	5029.13
687.133	4939.02
687.323	5004.55
687.513	5133.57
687.702	4855.05
687.892	4939.02
688.082	5059.85
688.272	5027.08
688.461	4908.3
688.651	4857.1
688.841	4771.08
689.03	4955.4
689.22	4824.33
689.41	4703.5
689.599	4838.67
689.789	4785.42
689.979	4818.19
690.168	4732.17
690.358	4676.88
690.547	4564.24
690.737	4623.63
690.926	4531.47
691.116	4486.42
691.305	4785.42
691.495	4496.66
691.684	4396.31
691.874	4439.31
692.063	4334.87
692.252	4392.21
692.442	4298
692.631	4177.17
692.82	4185.37
693.01	4363.54
693.199	4306.2
693.388	4064.54
693.578	4121.88
693.767	4123.93
693.956	4064.54
694.146	4089.11
694.335	4093.21
694.524	4175.13
694.713	4039.96
694.902	3857.69
695.092	4023.58
695.281	3966.23
695.47	3947.8
695.659	3851.55
695.848	3966.23
696.037	3814.68
696.226	3984.66
696.415	3947.8
696.604	3859.74
696.793	3980.57
696.982	3810.59
697.171	3869.98
697.36	3884.31
697.549	3788.06
697.738	3761.44
697.927	3630.37
698.116	3751.2
698.305	3745.05
698.494	3695.9
698.683	3730.72
698.872	3884.31
699.061	3605.79
699.25	3765.53
699.438	3720.48
699.627	3591.45
699.816	3835.16
700.005	3661.09
700.193	3722.52
700.382	3693.85
700.571	3732.76
700.76	3759.39
700.948	3648.8
701.137	3763.48
701.326	3589.41
701.514	3654.94
701.703	3783.96
701.892	3556.64
702.08	3646.75
702.269	3618.08
702.457	3573.02
702.646	3681.57
702.834	3659.04
703.023	3613.98
703.212	3786.01
703.4	3761.44
703.589	3654.94
703.777	3675.42
703.965	3693.85
704.154	3706.14
704.342	3642.65
704.531	3808.54
704.719	3618.08
704.907	3712.28
705.096	3798.3
705.284	3736.86
705.472	3675.42
705.661	3646.75
705.849	3802.4
706.037	3718.43
706.226	3740.96
706.414	3802.4
706.602	3691.81
706.79	3880.22
706.979	3734.81
707.167	3814.68
707.355	3740.96
707.543	3841.31
707.731	3759.39
707.919	3804.44
708.107	3669.28
708.296	3822.88
708.484	3794.2
708.672	3857.69
708.86	3878.17
709.048	3988.76
709.236	3939.61
709.424	3999
709.612	3953.94
709.8	3910.94
709.988	3812.64
710.176	3974.42
710.364	3947.8
710.551	3949.85
710.739	3841.31
710.927	4060.44
711.115	4078.87
711.303	4076.82
711.491	4044.06
711.679	4054.3
711.866	4060.44
712.054	4211.99
712.242	4113.69
712.43	4173.08
712.617	4099.35
712.805	4211.99
712.993	4203.8
713.181	4113.69
713.368	4285.72
713.556	4332.82
713.744	4257.04
713.931	4461.84
714.119	4324.63
714.306	4484.37
714.494	4316.44
714.682	4363.54
714.869	4300.05
715.057	4453.65
715.244	4242.71
715.432	4547.86
715.619	4547.86
715.807	4670.73
715.994	4564.24
716.182	4488.46
716.369	4564.24
716.556	4597.01
716.744	4594.96
716.931	4717.84
717.119	4699.41
717.306	4687.12
717.493	4764.94
717.681	4695.31
717.868	4687.12
718.055	4736.27
718.242	4711.69
718.43	4963.59
718.617	4764.94
718.804	4871.43
718.991	4719.89
719.179	4832.52
719.366	4896.01
719.553	4896.01
719.74	4949.26
719.927	4979.98
720.114	4973.83
720.301	5076.23
720.488	4990.22
720.676	5006.6
720.863	5199.11
721.05	5143.81
721.237	5125.38
721.424	5182.73
721.611	5131.53
721.798	5313.8
721.985	5250.31
722.172	5029.13
722.358	5274.88
722.545	5276.93
722.732	5238.02
722.919	5190.92
723.106	5264.64
723.293	5373.19
723.48	5365
723.667	5426.43
723.853	5391.62
724.04	5238.02
724.227	5356.8
724.414	5432.58
724.6	5504.26
724.787	5397.76
724.974	5514.5
725.161	5483.78
725.347	5391.62
725.534	5565.7
725.72	5451.01
725.907	5567.74
726.094	5555.46
726.28	5594.37
726.467	5645.57
726.653	5659.9
726.84	5795.07
727.027	5741.82
727.213	5518.59
727.4	5715.2
727.586	5747.97
727.773	5795.07
727.959	5758.21
728.145	6001.91
728.332	5707.01
728.518	5823.74
728.705	5795.07
728.891	5776.64
729.077	5909.76
729.264	5981.43
729.45	5946.62
729.636	6116.6
729.823	5938.43
730.009	6001.91
730.195	5979.39
730.382	6006.01
730.568	6036.73
730.754	6063.35
730.94	5987.58
731.126	6184.18
731.313	6169.85
731.499	6053.11
731.685	6247.67
731.871	6235.38
732.057	6264.05
732.243	6219
732.429	6122.74
732.615	6284.53
732.801	6292.73
732.987	6116.6
733.173	6132.98
733.359	6049.02
733.545	6323.44
733.731	6292.73
733.917	6192.37
734.103	6300.92
734.289	6362.36
734.475	6214.9
734.661	6413.56
734.847	6282.49
735.033	6472.95
735.219	6425.84
735.404	6278.39
735.59	6272.25
735.776	6331.64
735.962	6399.22
736.148	6462.71
736.333	6374.64
736.519	6202.61
736.705	6327.54
736.89	6298.87
737.076	6391.03
737.262	6388.98
737.447	6350.07
737.633	6292.73
737.819	6388.98
738.004	6356.21
738.19	6415.6
738.375	6391.03
738.561	6354.16
738.747	6378.74
738.932	6153.46
739.118	6350.07
739.303	6212.85
739.489	6411.51
739.674	6337.78
739.859	6305.01
740.045	6429.94
740.23	6264.05
740.416	6307.06
740.601	6290.68
740.786	6255.86
740.972	6083.83
741.157	6145.27
741.342	6278.39
741.528	6247.67
741.713	6059.26
741.898	6137.08
742.084	6284.53
742.269	6165.75
742.454	6087.93
742.639	6157.56
742.824	6063.35
743.01	6079.74
743.195	6149.37
743.38	5950.71
743.565	6104.31
743.75	6071.54
743.935	5934.33
744.12	6231.29
744.305	5973.24
744.49	6030.59
744.675	5874.94
744.86	5711.1
745.045	5915.9
745.23	5977.34
745.415	5862.65
745.6	5973.24
745.785	5612.8
745.97	5872.89
746.155	5752.06
746.34	5788.93
746.525	5729.53
746.71	5741.82
746.895	5559.55
747.079	5453.06
747.264	5543.17
747.449	5537.02
747.634	5584.13
747.819	5625.09
748.003	5289.22
748.188	5311.75
748.373	5291.27
748.557	5502.21
748.742	5317.89
748.927	5385.48
749.111	5301.51
749.296	5285.12
749.481	5272.84
749.665	5078.28
749.85	4873.48
750.034	5125.38
750.219	5039.37
750.404	4955.4
750.588	4838.67
750.773	5031.18
750.957	4957.45
751.141	4900.11
751.326	4957.45
751.51	4973.83
751.695	4836.62
751.879	4850.96
752.064	4875.53
752.248	4769.04
752.432	4726.03
752.617	4662.54
752.801	4740.36
752.985	4480.27
753.17	4384.02
753.354	4449.55
753.538	4484.37
753.722	4420.88
753.907	4427.03
754.091	4422.93
754.275	4353.3
754.459	4277.52
754.643	4146.45
754.828	4230.42
755.012	4197.65
755.196	4123.93
755.38	4203.8
755.564	4130.07
755.748	4097.3
755.932	4007.19
756.116	3988.76
756.3	3982.62
756.484	4005.14
756.668	3804.44
756.852	3851.55
757.036	3837.21
757.22	3890.46
757.404	3953.94
757.588	3695.9
757.772	3720.48
757.956	3679.52
758.14	3824.92
758.323	3542.3
758.507	3683.61
758.691	3437.86
758.875	3738.91
759.059	3691.81
759.242	3470.62
759.426	3642.65
759.61	3503.39
759.794	3489.06
759.977	3525.92
760.161	3628.32
760.345	3349.79
760.528	3487.01
760.712	3349.79
760.895	3349.79
761.079	3274.02
761.263	3188
761.446	3400.99
761.63	3333.41
761.813	3331.36
761.997	3253.54
762.18	3171.62
762.364	3233.06
762.547	3179.81
762.731	3155.24
762.914	3093.8
763.098	3198.24
763.281	3095.85
763.464	3128.61
763.648	3081.51
763.831	3097.89
764.015	3015.98
764.198	3145
764.381	2987.3
764.564	3065.13
764.748	3020.07
764.931	2966.82
765.114	2952.49
765.297	3018.02
765.481	2872.62
765.664	2858.28
765.847	2835.75
766.03	2997.54
766.213	2766.12
766.397	2893.1
766.58	2743.6
766.763	2798.89
766.946	2762.03
767.129	2876.71
767.312	2702.64
767.495	2614.57
767.678	2692.4
767.861	2700.59
768.044	2620.72
768.227	2606.38
768.41	2645.29
768.593	2680.11
768.776	2620.72
768.959	2530.61
769.142	2647.34
769.324	2512.18
769.507	2604.33
769.69	2526.51
769.873	2598.19
770.056	2559.28
770.239	2532.65
770.421	2622.77
770.604	2522.41
770.787	2319.67
770.97	2389.3
771.152	2368.82
771.335	2432.3
771.518	2399.54
771.7	2403.63
771.883	2393.39
772.066	2397.49
772.248	2288.95
772.431	2389.3
772.613	2262.32
772.796	2252.08
772.978	2340.15
773.161	2342.19
773.343	2096.44
773.526	2239.8
773.708	2221.36
773.891	2078.01
774.073	2102.58
774.256	2180.4
774.438	2180.4
774.621	2127.16
774.803	2233.65
774.985	2139.44
775.168	2073.91
775.35	1914.17
775.532	2059.57
775.715	1938.74
775.897	1899.83
776.079	1946.94
776.261	1969.46
776.444	1961.27
776.626	1934.65
776.808	1938.74
776.99	1717.56
777.173	1891.64
777.355	1860.92
777.537	1879.35
777.719	1776.95
777.901	1842.49
778.083	1719.61
778.265	1713.47
778.447	1795.39
778.629	1719.61
778.811	1719.61
778.993	1713.47
779.175	1719.61
779.357	1656.12
779.539	1637.69
779.721	1699.13
779.903	1615.16
780.085	1606.97
780.267	1615.16
780.449	1666.36
780.631	1684.8
780.812	1611.07
780.994	1637.69
781.176	1576.25
781.358	1566.01
781.54	1459.52
781.721	1555.77
781.903	1484.09
782.085	1469.76
782.267	1467.71
782.448	1475.9
782.63	1463.62
782.812	1482.05
782.993	1400.13
783.175	1389.89
783.357	1490.24
783.538	1432.9
783.72	1434.94
783.901	1361.22
784.083	1326.4
784.264	1379.65
784.446	1361.22
784.627	1213.76
784.809	1299.78
784.99	1330.5
785.172	1275.2
785.353	1301.83
785.535	1279.3
785.716	1137.99
785.897	1162.56
786.079	1156.42
786.26	1176.9
786.441	1164.61
786.623	1115.46
786.804	1140.04
786.985	1250.63
787.167	1213.76
787.348	1203.52
787.529	1103.17
787.71	1127.75
787.891	1185.09
788.073	1047.88
788.254	1043.78
788.435	1097.03
788.616	1094.98
788.797	1047.88
788.978	1078.6
789.159	1105.22
789.34	1035.59
789.522	994.63
789.703	996.68
789.884	1021.25
790.065	1033.54
790.246	1006.92
790.427	1056.07
790.607	998.73
790.788	1000.77
790.969	951.62
791.15	927.05
791.331	916.81
791.512	943.43
791.693	902.47
791.874	873.8
792.054	937.29
792.235	951.62
792.416	871.75
792.597	914.76
792.778	935.24
792.958	863.56
793.139	910.66
793.32	881.99
793.5	910.66
793.681	902.47
793.862	832.84
794.042	902.47
794.223	859.46
794.404	802.12
794.584	712.01
794.765	789.83
794.945	777.55
795.126	804.17
795.306	935.24
795.487	701.77
795.667	771.4
795.848	818.5
796.028	750.92
796.209	795.98
796.389	769.35
796.57	761.16
796.75	767.31
796.93	759.11
797.111	873.8
797.291	742.73
797.471	767.31
797.652	771.4
797.832	812.36
798.012	783.69
798.192	802.12
798.373	775.5
798.553	689.48
798.733	664.91
798.913	705.87
799.093	669
799.274	644.43
799.454	619.85
799.634	660.81
799.814	709.96
799.994	785.74
800.174	716.11
800.354	669
800.534	589.13
800.714	648.52
800.894	677.19
801.074	603.47
801.254	605.52
801.434	703.82
801.614	603.47
801.794	615.76
801.974	1402.18
802.154	558.41
802.334	681.29
802.514	646.48
802.693	609.61
802.873	646.48
803.053	652.62
803.233	603.47
803.413	550.22
803.592	656.72
803.772	580.94
803.952	499.02
804.131	574.8
804.311	578.89
804.491	648.52
804.67	550.22
804.85	603.47
805.03	523.6
805.209	632.14
805.389	509.26
805.568	548.17
805.748	587.08
805.928	535.89
806.107	593.23
806.287	550.22
806.466	587.08
806.646	513.36
806.825	531.79
807.004	435.53
807.184	484.69
807.363	529.74
807.543	531.79
807.722	456.01
807.901	556.36
808.081	542.03
808.26	492.88
808.439	607.56
808.619	488.78
808.798	527.69
808.977	525.65
809.156	599.37
809.336	535.89
809.515	478.54
809.694	447.82
809.873	548.17
810.052	443.73
810.231	460.11
810.411	505.17
810.59	537.93
810.769	546.12
810.948	451.92
811.127	453.97
811.306	519.5
811.485	398.67
811.664	519.5
811.843	400.72
812.022	396.62
812.201	480.59
812.38	423.25
812.559	402.77
812.737	415.05
812.916	501.07
813.095	425.29
813.274	501.07
813.453	460.11
813.632	417.1
813.811	488.78
813.989	419.15
814.168	439.63
814.347	384.34
814.526	425.29
814.704	466.25
814.883	423.25
815.062	435.53
815.24	408.91
815.419	437.58
815.598	396.62
815.776	363.86
815.955	453.97
816.133	431.44
816.312	363.86
816.49	290.13
816.669	353.62
816.847	445.77
817.026	406.86
817.204	380.24
817.383	312.66
817.561	415.05
817.74	419.15
817.918	302.42
818.097	370
818.275	374.1
818.453	431.44
818.632	378.19
818.81	351.57
818.988	353.62
819.167	353.62
819.345	451.92
819.523	310.61
819.701	390.48
819.879	370
820.058	347.47
820.236	361.81
820.414	361.81
820.592	314.7
820.77	329.04
820.948	298.32
821.127	238.93
821.305	318.8
821.483	271.7
821.661	374.1
821.839	402.77
822.017	249.17
822.195	335.18
822.373	357.71
822.551	308.56
822.729	343.38
822.907	247.12
823.085	318.8
823.262	271.7
823.44	304.46
823.618	329.04
823.796	286.03
823.974	283.98
824.152	243.03
824.329	312.66
824.507	206.16
824.685	263.51
824.863	222.55
825.04	204.11
825.218	363.86
825.396	271.7
825.574	259.41
825.751	249.17
825.929	269.65
826.107	220.5
826.284	245.07
826.462	238.93
826.639	312.66
826.817	318.8
826.994	359.76
827.172	230.74
827.349	255.31
827.527	251.22
827.704	312.66
827.882	345.42
828.059	288.08
828.237	286.03
828.414	296.27
828.591	220.5
828.769	163.15
828.946	218.45
829.124	316.75
829.301	247.12
829.478	224.59
829.655	288.08
829.833	230.74
830.01	286.03
830.187	302.42
830.364	230.74
830.542	179.54
830.719	279.89
830.896	269.65
831.073	286.03
831.25	181.59
831.427	273.75
831.604	146.77
831.782	185.68
831.959	279.89
832.136	122.2
832.313	249.17
832.49	220.5
832.667	210.26
832.844	206.16
833.021	269.65
833.198	204.11
833.374	253.27
833.551	189.78
833.728	212.31
833.905	220.5
834.082	197.97
834.259	263.51
834.436	230.74
834.612	247.12
834.789	286.03
834.966	157.01
835.143	238.93
835.319	157.01
835.496	249.17
835.673	216.4
835.85	177.49
836.026	161.11
836.203	191.83
836.38	122.2
836.556	105.81
836.733	132.44
836.909	267.6
837.086	226.64
837.262	130.39
837.439	116.05
837.616	179.54
837.792	288.08
837.968	148.82
838.145	138.58
838.321	243.03
838.498	152.91
838.674	163.15
838.851	187.73
839.027	152.91
839.203	183.63
839.38	204.11
839.556	165.2
839.732	316.75
839.909	154.96
840.085	124.24
840.261	189.78
840.437	165.2
840.614	189.78
840.79	195.92
840.966	181.59
841.142	206.16
841.318	95.57
841.494	185.68
841.671	157.01
841.847	120.15
842.023	64.85
842.199	146.77
842.375	238.93
842.551	23.89
842.727	163.15
842.903	197.97
843.079	165.2
843.255	154.96
843.431	218.45
843.607	206.16
843.783	130.39
843.959	157.01
844.134	54.61
844.31	150.87
844.486	187.73
844.662	152.91
844.838	193.87
845.013	140.63
845.189	177.49
845.365	177.49
845.541	132.44
845.716	114
845.892	91.48
846.068	146.77
846.244	66.9
846.419	140.63
846.595	122.2
846.77	83.28
846.946	109.91
847.122	175.44
847.297	128.34
847.473	150.87
847.648	116.05
847.824	122.2
847.999	40.28
848.175	122.2
848.35	17.75
848.526	120.15
848.701	66.9
848.876	134.48
849.052	142.68
849.227	130.39
849.403	91.48
849.578	148.82
849.753	138.58
849.929	120.15
850.104	107.86
850.279	161.11
850.454	62.8
850.63	148.82
850.805	128.34
850.98	175.44
851.155	60.76
851.33	99.67
851.505	120.15
851.681	150.87
851.856	30.04
852.031	134.48
852.206	124.24
852.381	105.81
852.556	107.86
852.731	83.28
852.906	97.62
853.081	38.23
853.256	107.86
853.431	122.2
853.606	87.38
853.781	56.66
853.956	56.66
854.131	66.9
854.305	132.44
854.48	38.23
854.655	52.56
854.83	46.42
855.005	105.81
855.18	136.53
855.354	75.09
855.529	81.24
855.704	50.52
855.879	189.78
856.053	89.43
856.228	111.96
856.403	99.67
856.577	132.44
856.752	-19.11
856.926	107.86
857.101	120.15
857.276	50.52
857.45	122.2
857.625	157.01
857.799	89.43
857.974	79.19
858.148	34.13
858.323	75.09
858.497	62.8
858.672	114
858.846	89.43
859.02	142.68
859.195	30.04
859.369	66.9
859.543	99.67
859.718	75.09
859.892	132.44
860.066	136.53
860.241	99.67
860.415	60.76
860.589	48.47
860.763	58.71
860.938	30.04
861.112	101.72
861.286	34.13
861.46	91.48
861.634	91.48
861.808	122.2
861.982	9.56
862.157	50.52
862.331	93.52
862.505	1.37
862.679	11.61
862.853	79.19
863.027	118.1
863.201	132.44
863.375	89.43
863.549	140.63
863.722	101.72
863.896	132.44
864.07	103.76
864.244	34.13
864.418	56.66
864.592	-12.97
864.766	30.04
864.939	146.77
865.113	89.43
865.287	48.47
865.461	99.67
865.634	97.62
865.808	13.65
865.982	5.46
866.156	-17.07
866.329	32.08
866.503	71
866.676	48.47
866.85	-21.16
867.024	42.32
867.197	-25.26
867.371	99.67
867.544	116.05
867.718	83.28
867.891	99.67
868.065	62.8
868.238	75.09
868.412	79.19
868.585	77.14
868.759	-17.07
868.932	9.56
869.105	62.8
869.279	60.76
869.452	5.46
869.625	64.85
869.799	30.04
869.972	-43.69
870.145	-55.98
870.319	99.67
870.492	142.68
870.665	66.9
870.838	-23.21
871.011	17.75
871.185	-6.83
871.358	66.9
871.531	54.61
871.704	21.85
871.877	25.94
872.05	44.37
872.223	-8.87
872.396	3.41
872.569	89.43
872.742	-6.83
872.915	-6.83
873.088	66.9
873.261	75.09
873.434	66.9
873.607	11.61
873.78	56.66
873.953	46.42
874.126	73.04
874.299	-2.73
874.471	17.75
874.644	34.13
874.817	91.48
874.99	23.89
875.163	124.24
875.335	36.18
875.508	116.05
875.681	93.52
875.853	38.23
876.026	17.75
876.199	42.32
876.371	58.71
876.544	38.23
876.717	38.23
876.889	9.56
877.062	-15.02
877.234	17.75
877.407	48.47
877.579	91.48
877.752	54.61
877.924	62.8
878.097	-2.73
878.269	17.75
878.442	99.67
878.614	5.46
878.786	25.94
878.959	23.89
879.131	32.08
879.303	-35.5
879.476	13.65
879.648	7.51
879.82	17.75
879.993	1.37
880.165	15.7
880.337	-17.07
880.509	66.9
880.681	-58.03
880.854	54.61
881.026	132.44
881.198	157.01
881.37	15.7
881.542	54.61
881.714	83.28
881.886	5.46
882.058	27.99
882.23	25.94
882.402	-31.4
882.574	50.52
882.746	-4.78
882.918	68.95
883.09	17.75
883.262	-17.07
883.434	38.23
883.606	30.04
883.778	58.71
883.95	107.86
884.122	25.94
884.293	122.2
884.465	46.42
884.637	54.61
884.809	1.37
884.98	58.71
885.152	-58.03
885.324	46.42
885.496	38.23
885.667	34.13
885.839	44.37
886.011	21.85
886.182	91.48
886.354	75.09
886.525	38.23
886.697	58.71
886.869	-6.83
887.04	73.04
887.212	64.85
887.383	81.24
887.555	58.71
887.726	42.32
887.897	-29.35
888.069	48.47
888.24	58.71
888.412	89.43
888.583	-39.59
888.754	58.71
888.926	32.08
889.097	95.57
889.268	25.94
889.44	58.71
889.611	40.28
889.782	44.37
889.953	32.08
890.125	99.67
890.296	25.94
890.467	38.23
890.638	-27.31
890.809	40.28
890.98	40.28
891.151	-15.02
891.323	17.75
891.494	56.66
891.665	-17.07
891.836	38.23
892.007	124.24
892.178	13.65
892.349	58.71
892.52	19.8
892.691	64.85
892.862	7.51
893.032	-8.87
893.203	5.46
893.374	50.52
893.545	89.43
893.716	48.47
893.887	25.94
894.057	7.51
894.228	-39.59
894.399	-2.73
894.57	30.04
894.74	-12.97
894.911	54.61
895.082	40.28
895.253	3.41
895.423	19.8
895.594	42.32
895.764	17.75
895.935	75.09
896.106	58.71
896.276	75.09
896.447	23.89
896.617	95.57
896.788	-15.02
896.958	56.66
897.129	32.08
897.299	42.32
897.47	64.85
897.64	58.71
897.81	44.37
897.981	87.38
898.151	-8.87
898.322	42.32
898.492	89.43
898.662	-51.88
898.832	-0.68
899.003	5.46
899.173	95.57
899.343	54.61
899.513	-15.02
