Data from USB4F104151__2__11-29-28-869.txt Node

Date: Fri Mar 14 11:29:28 EDT 2025
User: louis
Spectrometer: USB4F10415
Trigger mode: 4
Integration Time (sec): 5.000000E-2
Scans to average: 1
Electric dark correction enabled: true
Nonlinearity correction enabled: false
Boxcar width: 0
XAxis mode: Wavelengths
Number of Pixels in Spectrum: 3648
>>>>>Begin Spectral Data<<<<<
178.204	-20.31
178.424	-20.31
178.644	-20.31
178.864	-147.28
179.084	-83.8
179.304	30.89
179.524	-16.21
179.744	-71.51
179.964	67.75
180.184	-1.88
180.404	8.36
180.624	16.55
180.844	43.18
181.064	-87.89
181.283	-14.17
181.503	16.55
181.723	8.36
181.943	-10.07
182.163	22.7
182.383	8.36
182.602	-1.88
182.822	73.9
183.042	106.67
183.262	43.18
183.482	37.03
183.701	75.95
183.921	32.94
184.141	-8.02
184.361	96.43
184.58	84.14
184.8	41.13
185.02	10.41
185.239	112.81
185.459	14.51
185.679	80.04
185.898	45.23
186.118	51.37
186.338	92.33
186.557	104.62
186.777	57.51
186.997	80.04
187.216	6.31
187.436	92.33
187.655	112.81
187.875	59.56
188.095	-12.12
188.314	125.1
188.534	106.67
188.753	37.03
188.973	18.6
189.192	82.09
189.412	69.8
189.631	102.57
189.851	26.79
190.07	34.99
190.29	127.14
190.509	16.55
190.729	116.9
190.948	98.47
191.168	245.93
191.387	69.8
191.607	63.66
191.826	28.84
192.045	75.95
192.265	106.67
192.484	30.89
192.704	53.42
192.923	59.56
193.142	141.48
193.362	-34.64
193.581	61.61
193.8	96.43
194.02	75.95
194.239	-42.84
194.458	59.56
194.678	2.22
194.897	75.95
195.116	55.47
195.335	47.27
195.555	26.79
195.774	73.9
195.993	61.61
196.212	65.71
196.432	10.41
196.651	22.7
196.87	63.66
197.089	108.71
197.308	63.66
197.528	127.14
197.747	-14.17
197.966	18.6
198.185	106.67
198.404	67.75
198.623	41.13
198.842	24.75
199.062	92.33
199.281	100.52
199.5	77.99
199.719	34.99
199.938	43.18
200.157	41.13
200.376	77.99
200.595	133.29
200.814	4.27
201.033	80.04
201.252	125.1
201.471	71.85
201.69	166.06
201.909	71.85
202.128	34.99
202.347	59.56
202.566	34.99
202.785	67.75
203.004	26.79
203.223	190.63
203.442	-16.21
203.661	26.79
203.879	59.56
204.098	88.23
204.317	8.36
204.536	112.81
204.755	84.14
204.974	88.23
205.193	34.99
205.411	90.28
205.63	22.7
205.849	24.75
206.068	84.14
206.287	-14.17
206.505	51.37
206.724	53.42
206.943	32.94
207.162	18.6
207.381	90.28
207.599	100.52
207.818	10.41
208.037	26.79
208.255	55.47
208.474	43.18
208.693	98.47
208.911	47.27
209.13	8.36
209.349	51.37
209.567	24.75
209.786	47.27
210.005	30.89
210.223	90.28
210.442	41.13
210.661	108.71
210.879	24.75
211.098	92.33
211.316	-26.45
211.535	116.9
211.753	-14.17
211.972	59.56
212.191	59.56
212.409	-5.97
212.628	110.76
212.846	30.89
213.065	84.14
213.283	104.62
213.502	16.55
213.72	67.75
213.938	67.75
214.157	90.28
214.375	80.04
214.594	-5.97
214.812	-12.12
215.031	30.89
215.249	55.47
215.467	26.79
215.686	88.23
215.904	88.23
216.122	26.79
216.341	112.81
216.559	63.66
216.778	100.52
216.996	100.52
217.214	65.71
217.432	-8.02
217.651	39.08
217.869	63.66
218.087	94.38
218.306	45.23
218.524	57.51
218.742	26.79
218.96	59.56
219.179	18.6
219.397	121
219.615	92.33
219.833	94.38
220.051	22.7
220.27	98.47
220.488	55.47
220.706	80.04
220.924	8.36
221.142	20.65
221.36	34.99
221.578	41.13
221.796	-1.88
222.015	92.33
222.233	43.18
222.451	8.36
222.669	10.41
222.887	63.66
223.105	4.27
223.323	43.18
223.541	75.95
223.759	-5.97
223.977	-42.84
224.195	98.47
224.413	43.18
224.631	26.79
224.849	82.09
225.067	88.23
225.285	0.17
225.503	147.62
225.721	-1.88
225.939	34.99
226.157	100.52
226.375	178.34
226.592	8.36
226.81	84.14
227.028	112.81
227.246	118.95
227.464	14.51
227.682	41.13
227.9	18.6
228.117	51.37
228.335	18.6
228.553	98.47
228.771	80.04
228.989	2.22
229.206	-18.26
229.424	8.36
229.642	2.22
229.86	114.86
230.077	104.62
230.295	51.37
230.513	-14.17
230.731	-30.55
230.948	116.9
231.166	69.8
231.384	8.36
231.601	-3.93
231.819	123.05
232.037	-5.97
232.254	12.46
232.472	30.89
232.689	71.85
232.907	45.23
233.125	59.56
233.342	65.71
233.56	-38.74
233.777	55.47
233.995	121
234.213	104.62
234.43	84.14
234.648	98.47
234.865	100.52
235.083	106.67
235.3	47.27
235.518	39.08
235.735	108.71
235.953	108.71
236.17	98.47
236.388	92.33
236.605	43.18
236.822	90.28
237.04	98.47
237.257	12.46
237.475	65.71
237.692	57.51
237.909	80.04
238.127	-8.02
238.344	28.84
238.562	-48.98
238.779	-34.64
238.996	67.75
239.214	41.13
239.431	96.43
239.648	18.6
239.865	-5.97
240.083	108.71
240.3	47.27
240.517	41.13
240.735	39.08
240.952	65.71
241.169	80.04
241.386	55.47
241.603	96.43
241.821	41.13
242.038	67.75
242.255	92.33
242.472	55.47
242.689	86.19
242.907	80.04
243.124	106.67
243.341	80.04
243.558	88.23
243.775	90.28
243.992	22.7
244.209	47.27
244.426	51.37
244.643	98.47
244.86	51.37
245.078	37.03
245.295	61.61
245.512	10.41
245.729	41.13
245.946	30.89
246.163	34.99
246.38	16.55
246.597	106.67
246.814	-8.02
247.031	57.51
247.248	18.6
247.464	43.18
247.681	34.99
247.898	24.75
248.115	96.43
248.332	24.75
248.549	77.99
248.766	84.14
248.983	129.19
249.2	98.47
249.417	98.47
249.633	43.18
249.85	112.81
250.067	-38.74
250.284	112.81
250.501	80.04
250.717	37.03
250.934	-51.03
251.151	80.04
251.368	6.31
251.585	22.7
251.801	47.27
252.018	12.46
252.235	59.56
252.451	51.37
252.668	47.27
252.885	80.04
253.102	127.14
253.318	65.71
253.535	51.37
253.752	71.85
253.968	65.71
254.185	-89.94
254.401	22.7
254.618	125.1
254.835	10.41
255.051	59.56
255.268	67.75
255.484	43.18
255.701	-89.94
255.917	22.7
256.134	-40.79
256.351	51.37
256.567	84.14
256.784	75.95
257	-32.6
257.217	8.36
257.433	159.91
257.65	75.95
257.866	61.61
258.082	49.32
258.299	57.51
258.515	55.47
258.732	88.23
258.948	41.13
259.165	141.48
259.381	43.18
259.597	10.41
259.814	73.9
260.03	73.9
260.246	82.09
260.463	127.14
260.679	10.41
260.895	34.99
261.112	94.38
261.328	24.75
261.544	2.22
261.761	116.9
261.977	-63.32
262.193	49.32
262.409	51.37
262.626	-24.4
262.842	112.81
263.058	41.13
263.274	102.57
263.49	26.79
263.707	82.09
263.923	28.84
264.139	-85.84
264.355	39.08
264.571	51.37
264.787	2.22
265.004	67.75
265.22	59.56
265.436	16.55
265.652	30.89
265.868	75.95
266.084	0.17
266.3	98.47
266.516	80.04
266.732	47.27
266.948	73.9
267.164	100.52
267.38	-38.74
267.596	88.23
267.812	178.34
268.028	80.04
268.244	26.79
268.46	65.71
268.676	-3.93
268.892	67.75
269.108	32.94
269.324	12.46
269.54	67.75
269.756	80.04
269.972	8.36
270.188	30.89
270.403	57.51
270.619	47.27
270.835	121
271.051	88.23
271.267	47.27
271.483	45.23
271.698	47.27
271.914	108.71
272.13	57.51
272.346	55.47
272.562	71.85
272.777	121
272.993	43.18
273.209	37.03
273.425	32.94
273.64	-34.64
273.856	100.52
274.072	34.99
274.287	55.47
274.503	114.86
274.719	43.18
274.934	80.04
275.15	49.32
275.366	104.62
275.581	26.79
275.797	32.94
276.012	51.37
276.228	41.13
276.444	39.08
276.659	133.29
276.875	34.99
277.09	34.99
277.306	-1.88
277.521	104.62
277.737	57.51
277.952	73.9
278.168	59.56
278.383	63.66
278.599	63.66
278.814	65.71
279.03	67.75
279.245	80.04
279.461	57.51
279.676	14.51
279.892	84.14
280.107	96.43
280.322	26.79
280.538	32.94
280.753	8.36
280.969	43.18
281.184	73.9
281.399	82.09
281.615	18.6
281.83	43.18
282.045	26.79
282.26	43.18
282.476	84.14
282.691	92.33
282.906	41.13
283.122	75.95
283.337	43.18
283.552	80.04
283.767	24.75
283.983	18.6
284.198	108.71
284.413	80.04
284.628	69.8
284.843	20.65
285.058	57.51
285.274	43.18
285.489	41.13
285.704	133.29
285.919	59.56
286.134	106.67
286.349	73.9
286.564	121
286.779	71.85
286.995	28.84
287.21	77.99
287.425	32.94
287.64	75.95
287.855	92.33
288.07	18.6
288.285	-42.84
288.5	45.23
288.715	90.28
288.93	-36.69
289.145	30.89
289.36	18.6
289.575	141.48
289.79	110.76
290.004	4.27
290.219	30.89
290.434	14.51
290.649	24.75
290.864	43.18
291.079	41.13
291.294	49.32
291.509	32.94
291.724	57.51
291.938	-24.4
292.153	145.58
292.368	92.33
292.583	133.29
292.798	96.43
293.012	-30.55
293.227	8.36
293.442	41.13
293.657	100.52
293.871	67.75
294.086	49.32
294.301	80.04
294.516	114.86
294.73	-22.36
294.945	18.6
295.16	34.99
295.374	157.86
295.589	92.33
295.804	-22.36
296.018	41.13
296.233	96.43
296.447	80.04
296.662	43.18
296.877	67.75
297.091	22.7
297.306	129.19
297.52	116.9
297.735	-32.6
297.949	67.75
298.164	73.9
298.378	6.31
298.593	47.27
298.807	49.32
299.022	90.28
299.236	67.75
299.451	80.04
299.665	57.51
299.88	65.71
300.094	8.36
300.309	28.84
300.523	51.37
300.737	37.03
300.952	47.27
301.166	90.28
301.381	41.13
301.595	43.18
301.809	-87.89
302.024	82.09
302.238	32.94
302.452	98.47
302.667	84.14
302.881	125.1
303.095	92.33
303.309	10.41
303.524	-67.41
303.738	80.04
303.952	92.33
304.166	108.71
304.381	22.7
304.595	100.52
304.809	6.31
305.023	51.37
305.237	39.08
305.452	73.9
305.666	94.38
305.88	39.08
306.094	24.75
306.308	102.57
306.522	118.95
306.736	41.13
306.95	26.79
307.164	98.47
307.379	34.99
307.593	186.54
307.807	75.95
308.021	57.51
308.235	90.28
308.449	4.27
308.663	63.66
308.877	80.04
309.091	18.6
309.305	65.71
309.519	-1.88
309.733	53.42
309.947	-57.17
310.161	100.52
310.374	88.23
310.588	112.81
310.802	-22.36
311.016	43.18
311.23	-32.6
311.444	67.75
311.658	8.36
311.872	69.8
312.085	77.99
312.299	108.71
312.513	116.9
312.727	65.71
312.941	41.13
313.154	75.95
313.368	41.13
313.582	55.47
313.796	24.75
314.009	106.67
314.223	172.2
314.437	20.65
314.651	63.66
314.864	26.79
315.078	59.56
315.292	2.22
315.505	73.9
315.719	106.67
315.933	77.99
316.146	43.18
316.36	-26.45
316.573	114.86
316.787	47.27
317.001	59.56
317.214	82.09
317.428	37.03
317.641	43.18
317.855	98.47
318.068	6.31
318.282	90.28
318.495	59.56
318.709	75.95
318.922	63.66
319.136	114.86
319.349	73.9
319.563	34.99
319.776	73.9
319.99	-44.88
320.203	51.37
320.417	-1.88
320.63	100.52
320.843	100.52
321.057	67.75
321.27	-16.21
321.483	47.27
321.697	14.51
321.91	65.71
322.124	49.32
322.337	104.62
322.55	34.99
322.763	73.9
322.977	2.22
323.19	45.23
323.403	59.56
323.617	59.56
323.83	65.71
324.043	125.1
324.256	43.18
324.469	24.75
324.683	8.36
324.896	43.18
325.109	16.55
325.322	26.79
325.535	75.95
325.748	100.52
325.962	30.89
326.175	121
326.388	75.95
326.601	67.75
326.814	77.99
327.027	43.18
327.24	86.19
327.453	57.51
327.666	69.8
327.879	155.82
328.092	100.52
328.305	39.08
328.518	67.75
328.731	53.42
328.944	-18.26
329.157	32.94
329.37	73.9
329.583	125.1
329.796	80.04
330.009	-5.97
330.222	100.52
330.435	14.51
330.648	86.19
330.861	32.94
331.073	80.04
331.286	123.05
331.499	16.55
331.712	59.56
331.925	71.85
332.138	43.18
332.35	59.56
332.563	39.08
332.776	118.95
332.989	20.65
333.202	67.75
333.414	43.18
333.627	80.04
333.84	59.56
334.053	24.75
334.265	55.47
334.478	26.79
334.691	75.95
334.903	106.67
335.116	59.56
335.329	51.37
335.541	80.04
335.754	73.9
335.966	26.79
336.179	92.33
336.392	-22.36
336.604	43.18
336.817	108.71
337.029	34.99
337.242	41.13
337.454	67.75
337.667	18.6
337.88	131.24
338.092	84.14
338.305	57.51
338.517	39.08
338.729	104.62
338.942	114.86
339.154	37.03
339.367	73.9
339.579	73.9
339.792	24.75
340.004	53.42
340.217	32.94
340.429	59.56
340.641	12.46
340.854	37.03
341.066	73.9
341.278	86.19
341.491	110.76
341.703	88.23
341.915	45.23
342.128	116.9
342.34	8.36
342.552	61.61
342.764	-51.03
342.977	84.14
343.189	30.89
343.401	53.42
343.613	22.7
343.826	47.27
344.038	39.08
344.25	59.56
344.462	2.22
344.674	53.42
344.886	106.67
345.099	41.13
345.311	108.71
345.523	102.57
345.735	22.7
345.947	114.86
346.159	86.19
346.371	-20.31
346.583	-30.55
346.795	131.24
347.007	14.51
347.219	96.43
347.431	51.37
347.643	129.19
347.855	30.89
348.067	39.08
348.279	18.6
348.491	82.09
348.703	24.75
348.915	123.05
349.127	49.32
349.339	90.28
349.551	-8.02
349.763	86.19
349.975	20.65
350.187	34.99
350.399	59.56
350.61	24.75
350.822	43.18
351.034	73.9
351.246	59.56
351.458	143.53
351.669	67.75
351.881	116.9
352.093	67.75
352.305	98.47
352.517	139.43
352.728	168.1
352.94	114.86
353.152	84.14
353.363	-8.02
353.575	8.36
353.787	75.95
353.999	69.8
354.21	75.95
354.422	61.61
354.633	26.79
354.845	108.71
355.057	82.09
355.268	57.51
355.48	118.95
355.692	41.13
355.903	98.47
356.115	129.19
356.326	37.03
356.538	75.95
356.749	133.29
356.961	141.48
357.172	34.99
357.384	67.75
357.595	194.73
357.807	8.36
358.018	-38.74
358.23	84.14
358.441	67.75
358.653	123.05
358.864	139.43
359.075	41.13
359.287	49.32
359.498	-1.88
359.709	53.42
359.921	49.32
360.132	59.56
360.344	100.52
360.555	90.28
360.766	55.47
360.977	10.41
361.189	82.09
361.4	63.66
361.611	84.14
361.823	108.71
362.034	94.38
362.245	18.6
362.456	20.65
362.667	51.37
362.879	2.22
363.09	-22.36
363.301	75.95
363.512	84.14
363.723	-14.17
363.935	67.75
364.146	112.81
364.357	84.14
364.568	104.62
364.779	0.17
364.99	149.67
365.201	63.66
365.412	69.8
365.623	26.79
365.834	34.99
366.045	34.99
366.256	108.71
366.467	86.19
366.678	-18.26
366.889	43.18
367.1	30.89
367.311	73.9
367.522	4.27
367.733	51.37
367.944	106.67
368.155	59.56
368.366	67.75
368.577	92.33
368.788	114.86
368.999	-10.07
369.209	55.47
369.42	164.01
369.631	125.1
369.842	47.27
370.053	37.03
370.264	108.71
370.474	51.37
370.685	129.19
370.896	92.33
371.107	84.14
371.317	82.09
371.528	26.79
371.739	145.58
371.95	49.32
372.16	100.52
372.371	67.75
372.582	26.79
372.792	96.43
373.003	28.84
373.214	-34.64
373.424	82.09
373.635	49.32
373.846	90.28
374.056	129.19
374.267	145.58
374.477	0.17
374.688	73.9
374.898	147.62
375.109	73.9
375.319	92.33
375.53	118.95
375.74	145.58
375.951	47.27
376.161	67.75
376.372	37.03
376.582	75.95
376.793	53.42
377.003	39.08
377.214	59.56
377.424	20.65
377.635	100.52
377.845	59.56
378.055	112.81
378.266	43.18
378.476	30.89
378.686	100.52
378.897	153.77
379.107	141.48
379.317	43.18
379.528	26.79
379.738	116.9
379.948	63.66
380.158	112.81
380.369	80.04
380.579	69.8
380.789	57.51
380.999	86.19
381.21	84.14
381.42	71.85
381.63	98.47
381.84	121
382.05	182.44
382.261	112.81
382.471	-16.21
382.681	67.75
382.891	112.81
383.101	108.71
383.311	-63.32
383.521	88.23
383.731	71.85
383.941	137.38
384.151	59.56
384.361	141.48
384.571	149.67
384.781	55.47
384.991	49.32
385.201	34.99
385.411	75.95
385.621	90.28
385.831	34.99
386.041	69.8
386.251	14.51
386.461	147.62
386.671	49.32
386.881	59.56
387.091	100.52
387.301	139.43
387.511	116.9
387.72	10.41
387.93	123.05
388.14	67.75
388.35	145.58
388.56	67.75
388.769	67.75
388.979	108.71
389.189	73.9
389.399	63.66
389.609	133.29
389.818	104.62
390.028	59.56
390.238	57.51
390.447	63.66
390.657	84.14
390.867	63.66
391.076	98.47
391.286	116.9
391.496	75.95
391.705	92.33
391.915	98.47
392.125	145.58
392.334	-18.26
392.544	82.09
392.753	129.19
392.963	88.23
393.172	139.43
393.382	49.32
393.591	164.01
393.801	114.86
394.01	172.2
394.22	106.67
394.429	75.95
394.639	143.53
394.848	141.48
395.058	49.32
395.267	106.67
395.477	143.53
395.686	114.86
395.895	174.25
396.105	116.9
396.314	75.95
396.524	96.43
396.733	32.94
396.942	180.39
397.152	141.48
397.361	139.43
397.57	92.33
397.78	114.86
397.989	65.71
398.198	164.01
398.407	125.1
398.617	51.37
398.826	141.48
399.035	125.1
399.244	116.9
399.453	92.33
399.663	114.86
399.872	98.47
400.081	194.73
400.29	131.24
400.499	92.33
400.708	149.67
400.917	147.62
401.127	100.52
401.336	26.79
401.545	204.97
401.754	237.74
401.963	112.81
402.172	129.19
402.381	51.37
402.59	172.2
402.799	112.81
403.008	90.28
403.217	145.58
403.426	231.59
403.635	141.48
403.844	192.68
404.053	157.86
404.262	172.2
404.471	159.91
404.68	153.77
404.888	51.37
405.097	133.29
405.306	106.67
405.515	157.86
405.724	153.77
405.933	188.58
406.142	174.25
406.35	247.97
406.559	190.63
406.768	260.26
406.977	288.93
407.185	184.49
407.394	278.69
407.603	217.26
407.812	295.08
408.02	256.17
408.229	178.34
408.438	254.12
408.646	106.67
408.855	229.54
409.064	272.55
409.272	227.5
409.481	358.57
409.69	319.65
409.898	270.5
410.107	362.66
410.315	327.85
410.524	223.4
410.733	319.65
410.941	350.37
411.15	329.89
411.358	440.48
411.567	460.96
411.775	387.24
411.984	424.1
412.192	493.73
412.401	438.44
412.609	546.98
412.818	454.82
413.026	442.53
413.234	491.68
413.443	469.16
413.651	481.44
413.86	579.75
414.068	571.55
414.276	575.65
414.485	542.88
414.693	614.56
414.901	637.09
415.11	600.23
415.318	755.87
415.526	721.06
415.734	694.43
415.943	776.35
416.151	731.3
416.359	719.01
416.567	796.83
416.776	747.68
416.984	966.81
417.192	950.43
417.4	923.8
417.608	975
417.817	958.62
418.025	1026.2
418.233	1132.7
418.441	1126.55
418.649	1118.36
418.857	1144.99
419.065	1155.23
419.273	1247.38
419.481	1253.53
419.689	1222.81
419.897	1286.3
420.105	1460.37
420.313	1474.71
420.521	1534.1
420.729	1591.44
420.937	1525.91
421.145	1702.03
421.353	1685.65
421.561	1802.38
421.769	1734.8
421.977	1896.59
422.185	1908.88
422.393	2136.2
422.601	2101.39
422.809	2078.86
423.017	2082.95
423.224	2246.79
423.432	2250.89
423.64	2326.66
423.848	2572.42
424.056	2373.77
424.263	2615.43
424.471	2703.49
424.679	2672.77
424.887	2779.26
425.094	2875.52
425.302	2885.76
425.51	3039.36
425.718	3137.66
425.925	3145.85
426.133	3262.58
426.341	3401.85
426.548	3655.79
426.756	3561.59
426.964	3614.84
427.171	3704.95
427.379	3995.76
427.586	3907.7
427.794	4063.34
428.001	4466.79
428.209	4606.05
428.417	4513.89
428.624	4792.42
428.832	4769.89
429.039	4659.3
429.247	4696.16
429.454	5099.61
429.662	5451.86
429.869	5216.35
430.076	5634.13
430.284	5415
430.491	5630.04
430.699	6185.04
430.906	5974.1
431.114	6045.77
431.321	6256.72
431.528	6385.74
431.736	6840.39
431.943	7120.96
432.15	6817.86
432.358	6948.93
432.565	7440.44
432.772	7405.63
432.979	7649.33
433.187	7743.54
433.394	7915.57
433.601	8243.24
433.808	8491.05
434.016	8247.34
434.223	8661.03
434.43	9308.19
434.637	9009.19
434.844	9723.93
435.052	9848.85
435.259	9934.87
435.466	10027.03
435.673	9725.97
435.88	10344.46
436.087	10776.58
436.294	10995.71
436.501	10557.45
436.708	10790.92
436.915	11405.31
437.122	11905.01
437.329	11689.98
437.537	12091.38
437.743	12238.83
437.95	12109.81
438.157	12939.24
438.364	13273.06
438.571	13244.38
438.778	13477.85
438.985	14604.24
439.192	14090.2
439.399	14565.32
439.606	14032.85
439.813	14958.53
440.02	16011.19
440.227	15587.26
440.433	15554.49
440.64	16037.81
440.847	15591.36
441.054	16412.59
441.261	17319.84
441.467	17104.81
441.674	17721.24
441.881	18048.92
442.088	17690.52
442.294	17903.51
442.501	18397.07
442.708	18691.98
442.914	19466.11
443.121	20219.77
443.328	19867.52
443.534	21143.4
443.741	20660.08
443.948	20424.56
444.154	21876.57
444.361	21768.03
444.568	22198.1
444.774	21909.34
444.981	22107.99
445.187	22923.08
445.394	23775.04
445.6	23199.56
445.807	25614.12
446.013	24760.11
446.22	24909.61
446.426	25859.87
446.633	26359.58
446.839	27236.11
447.046	26507.03
447.252	27377.42
447.459	27500.3
447.665	27447.05
447.871	28679.93
448.078	29902.56
448.284	28417.79
448.491	29658.85
448.697	30086.88
448.903	31084.24
449.11	30801.62
449.316	30308.06
449.522	31186.64
449.728	31653.58
449.935	31977.15
450.141	31960.77
450.347	32702.14
450.553	31686.34
450.76	31979.2
450.966	32898.74
451.172	32540.35
451.378	33480.36
451.584	32710.33
451.791	33429.16
451.997	33380.01
452.203	33642.15
452.409	33605.29
452.615	33316.53
452.821	32403.13
453.027	32042.69
453.233	33623.72
453.44	32317.12
453.646	32382.65
453.852	32794.29
454.058	33705.64
454.264	31827.65
454.47	32759.48
454.676	31936.2
454.882	32677.56
455.088	30105.31
455.294	30357.21
455.5	31063.76
455.705	31203.02
455.911	30043.87
456.117	29288.17
456.323	28847.86
456.529	27428.62
456.735	28964.59
456.941	27922.18
457.147	27596.55
457.352	26513.17
457.558	25995.04
457.764	26165.02
457.97	25734.95
458.176	25030.44
458.381	25333.54
458.587	23994.17
458.793	23971.64
458.999	22724.43
459.204	24221.5
459.41	23406.41
459.616	21768.03
459.821	22083.42
460.027	21981.02
460.233	21710.69
460.438	20311.92
460.644	20592.5
460.85	19861.37
461.055	19347.33
461.261	19373.96
461.466	17938.33
461.672	17201.06
461.878	18780.04
462.083	17192.87
462.289	17156
462.494	16805.8
462.7	15959.99
462.905	15673.28
463.111	16207.8
463.316	16273.33
463.522	15906.74
463.727	15773.63
463.932	15712.19
464.138	15773.63
464.343	15736.76
464.549	15519.68
464.754	16043.96
464.959	15765.43
465.165	15837.11
465.37	14886.86
465.575	14735.31
465.781	15149
465.986	15046.6
466.191	14688.2
466.397	14430.16
466.602	13946.84
466.807	14161.87
467.012	14223.31
467.218	14290.9
467.423	14231.51
467.628	14155.73
467.833	14798.79
468.038	13967.32
468.244	13690.84
468.449	14057.43
468.654	13645.79
468.859	13621.21
469.064	13621.21
469.269	13166.56
469.474	13273.06
469.679	13541.34
469.885	13017.06
470.09	13139.94
470.295	13297.63
470.5	12795.88
470.705	13105.12
470.91	12586.99
471.115	12474.35
471.32	12414.96
471.525	12683.24
471.73	12210.16
471.935	11982.84
472.139	11935.73
472.344	11968.5
472.549	11642.87
472.754	11839.48
472.959	11454.46
473.164	11110.4
473.369	11143.17
473.574	11405.31
473.778	11450.36
473.983	11087.87
474.188	11143.17
474.393	10586.12
474.598	10792.97
474.802	10829.83
475.007	10260.49
475.212	10651.66
475.417	10252.3
475.621	10178.58
475.826	10213.39
476.031	9938.96
476.235	9830.42
476.44	9902.1
476.645	9570.33
476.849	9873.43
477.054	9646.1
477.259	9373.72
477.463	9701.4
477.668	9349.15
477.872	9539.61
478.077	9142.3
478.282	9142.3
478.486	8927.27
478.691	9033.76
478.895	8828.96
479.1	8714.28
479.304	8804.39
479.509	8560.68
479.713	8632.36
479.918	8658.98
480.122	8378.41
480.326	8548.39
480.531	8476.71
480.735	8423.47
480.94	8474.67
481.144	8804.39
481.348	8421.42
481.553	8337.45
481.757	8151.09
481.961	8382.51
482.166	8327.21
482.37	8210.48
482.574	8210.48
482.778	8239.15
482.983	8308.78
483.187	8429.61
483.391	8179.76
483.595	8175.66
483.8	8157.23
484.004	8200.24
484.208	8280.11
484.412	8128.56
484.616	8079.41
484.821	8218.67
485.025	8134.7
485.229	8118.32
485.433	8142.89
485.637	8101.94
485.841	8243.24
486.045	8052.78
486.249	8251.44
486.453	8126.51
486.657	8255.53
486.861	8192.05
487.065	7899.19
487.269	8181.81
487.473	7958.58
487.677	8329.26
487.881	8292.4
488.085	8067.12
488.289	8183.85
488.493	8028.21
488.697	8216.62
488.901	8138.8
489.105	8192.05
489.309	8284.2
489.512	8304.68
489.716	8366.12
489.92	8235.05
490.124	8128.56
490.328	8450.09
490.531	8214.57
490.735	8472.62
490.939	8474.67
491.143	8357.93
491.346	8321.07
491.55	8779.81
491.754	8652.84
491.958	8519.72
492.161	8532.01
492.365	8681.51
492.569	8597.54
492.772	8683.56
492.976	8728.61
493.18	8607.78
493.383	8841.25
493.587	8996.9
493.79	9193.5
493.994	8814.63
494.197	8738.85
494.401	9156.64
494.605	8955.94
494.808	9490.46
495.012	9199.65
495.215	9138.21
495.419	9410.59
495.622	9289.76
495.825	9574.42
496.029	9553.94
496.232	9693.21
496.436	9701.4
496.639	9666.58
496.843	9795.61
497.046	9887.76
497.249	9986.07
497.453	10235.92
497.656	10305.55
497.859	10287.12
498.063	10598.41
498.266	10709
498.469	10526.73
498.673	10663.94
498.876	10985.48
499.079	11059.2
499.282	10930.18
499.485	11184.13
499.689	11272.19
499.892	11415.55
500.095	11503.61
500.298	11876.34
500.501	11802.61
500.705	11786.23
500.908	12122.1
501.111	12390.38
501.314	12130.29
501.517	12437.48
501.72	12576.75
501.923	12621.8
502.126	12867.56
502.329	13182.95
502.532	13080.55
502.735	13303.78
502.938	13469.66
503.141	13490.14
503.344	13774.81
503.547	13725.66
503.75	14004.18
503.953	14338
504.156	14313.42
504.359	14346.19
504.562	14401.49
504.765	14655.44
504.968	15036.36
505.17	14909.38
505.373	15052.74
505.576	15462.33
505.779	15531.97
505.982	15491.01
506.185	16252.85
506.387	15968.18
506.59	16383.92
506.793	16471.98
506.996	16422.83
507.198	16738.22
507.401	16785.32
507.604	17137.57
507.807	17164.2
508.009	17491.87
508.212	17661.85
508.415	17923.99
508.617	17866.65
508.82	18079.64
509.022	17811.35
509.225	18667.41
509.428	18159.51
509.63	18853.77
509.833	18880.39
510.035	19171.21
510.238	18898.83
510.44	19414.91
510.643	19810.17
510.845	19601.28
511.048	19857.28
511.25	20273.01
511.453	20295.54
511.655	20686.7
511.858	20625.26
512.06	20969.32
512.262	21036.91
512.465	21227.37
512.667	21579.62
512.87	21813.09
513.072	21702.5
513.274	22050.65
513.477	22609.75
513.679	22552.4
513.881	22861.65
514.084	22787.92
514.286	23197.51
514.488	23070.54
514.69	23928.64
514.893	24129.34
515.095	24258.36
515.297	24272.7
515.499	24639.28
515.701	24723.25
515.904	25257.77
516.106	24926
516.308	25632.55
516.51	25569.06
516.712	25620.26
516.914	25894.69
517.116	26586.9
517.318	26328.86
517.52	26511.13
517.722	26912.53
517.925	26924.82
518.127	27860.74
518.329	27596.55
518.531	27746.05
518.733	28188.41
518.935	28249.85
519.136	28561.14
519.338	28987.12
519.54	29222.64
519.742	29439.72
519.944	29628.13
520.146	29972.19
520.348	30285.53
520.55	30422.75
520.752	30480.09
520.954	30521.05
521.155	30611.16
521.357	31143.63
521.559	31522.51
521.761	31710.92
521.963	32081.6
522.164	31932.1
522.366	32423.61
522.568	32648.89
522.77	32677.56
522.971	33492.65
523.173	33177.26
523.375	33541.8
523.576	33748.65
523.778	33502.89
523.98	34168.48
524.181	34731.67
524.383	34594.46
524.584	34987.67
524.786	34954.9
524.988	34848.41
525.189	35649.16
525.391	35757.71
525.592	35843.72
525.794	36245.12
525.995	36398.72
526.197	36023.94
526.398	36372.1
526.6	36476.54
526.801	36636.28
527.003	36781.69
527.204	37115.51
527.406	37357.17
527.607	37486.19
527.808	38215.27
528.01	37629.55
528.211	37754.47
528.412	38829.66
528.614	38532.7
528.815	38391.39
529.016	38964.82
529.218	38465.12
529.419	39063.13
529.62	39188.05
529.822	39032.41
530.023	38956.63
530.224	39450.19
530.425	39501.39
530.626	39312.98
530.828	39181.91
531.029	40187.46
531.23	39693.9
531.431	40074.82
531.632	40230.47
531.833	40283.72
532.035	40058.44
532.236	40267.33
532.437	40570.43
532.638	40312.39
532.839	40201.8
533.04	40803.9
533.241	40492.61
533.442	41158.2
533.643	41184.82
533.844	40672.83
534.045	40932.92
534.246	40658.49
534.447	40842.81
534.648	40828.48
534.849	41440.82
535.05	40635.97
535.251	41254.45
535.451	41221.69
535.652	41287.22
535.853	41293.36
536.054	41160.25
536.255	41373.24
536.456	40908.35
536.657	41782.83
536.857	41131.58
537.058	40758.84
537.259	41301.56
537.46	41299.51
537.66	41494.07
537.861	41446.96
538.062	41115.19
538.263	41217.59
538.463	41307.7
538.664	41258.55
538.865	41737.77
539.065	41786.93
539.266	40973.88
539.466	41801.26
539.667	41143.86
539.868	42102.31
540.068	41721.39
540.269	41201.21
540.469	41457.2
540.67	41199.16
540.87	41250.36
541.071	41276.98
541.271	41637.42
541.472	41379.38
541.672	41313.84
541.873	41098.81
542.073	40769.08
542.274	41453.11
542.474	41291.32
542.675	41027.13
542.875	41481.78
543.075	41604.66
543.276	40613.44
543.476	41651.76
543.676	41020.98
543.877	41158.2
544.077	41209.4
544.277	40971.83
544.478	41055.8
544.678	41610.8
544.878	41365.04
545.078	41473.59
545.279	40820.28
545.479	41141.81
545.679	41346.61
545.879	41070.14
546.079	41250.36
546.28	41258.55
546.48	40937.02
546.68	41233.97
546.88	41481.78
547.08	41279.03
547.28	40959.55
547.48	40771.13
547.68	40939.07
547.88	40992.31
548.081	41219.64
548.281	40980.03
548.481	41096.76
548.681	41537.07
548.881	40922.68
549.081	41227.83
549.28	40924.73
549.48	41313.84
549.68	41014.84
549.88	41573.94
550.08	41018.94
550.28	41236.02
550.48	41350.71
550.68	41227.83
550.88	40840.76
551.08	40926.78
551.279	40982.07
551.479	40885.82
551.679	41096.76
551.879	41225.78
552.079	41319.99
552.278	40986.17
552.478	41053.75
552.678	40572.48
552.878	41055.8
553.077	40607.3
553.277	40554.05
553.477	41201.21
553.676	40535.62
553.876	40631.87
554.076	40619.58
554.275	40760.89
554.475	40414.79
554.674	40619.58
554.874	40654.4
555.074	40521.28
555.273	40402.5
555.473	40498.75
555.672	39931.47
555.872	40218.18
556.071	40257.09
556.271	40529.47
556.47	39947.85
556.67	39657.04
556.869	40066.63
557.068	40001.1
557.268	39923.27
557.467	39931.47
557.667	39890.51
557.866	39622.22
558.065	39540.3
558.265	39456.34
558.464	39013.98
558.663	40126.02
558.863	39161.43
559.062	39767.63
559.261	38385.25
559.461	39278.16
559.66	38542.94
559.859	38932.06
560.058	38434.4
560.258	38579.81
560.457	38547.04
560.656	38856.28
560.855	38383.2
561.054	38491.74
561.253	38063.72
561.453	38477.41
561.652	38370.91
561.851	38647.39
562.05	37746.28
562.249	37998.18
562.448	37891.69
562.647	37944.94
562.846	37967.46
563.045	38104.68
563.244	37146.23
563.443	37621.36
563.642	37297.78
563.841	37172.85
564.04	36763.26
564.239	37580.4
564.438	36759.16
564.637	36918.9
564.836	36697.72
565.035	36363.9
565.234	36564.6
565.432	36349.57
565.631	36007.56
565.83	36183.68
566.029	35802.76
566.228	35970.69
566.427	35942.02
566.625	35616.4
566.824	35366.54
567.023	35806.86
567.222	34866.84
567.42	35516.04
567.619	34959
567.818	35030.68
568.016	34973.33
568.215	34905.75
568.414	34672.28
568.612	34981.52
568.811	34522.78
569.01	34723.48
569.208	33738.41
569.407	34258.59
569.605	33937.06
569.804	34326.17
570.002	33638.06
570.201	33889.96
570.4	33257.14
570.598	33388.21
570.797	33117.87
570.995	33685.16
571.193	33017.52
571.392	33431.21
571.59	32982.71
571.789	32886.45
571.987	33017.52
572.186	32888.5
572.384	32345.79
572.582	32648.89
572.781	32308.93
572.979	32091.84
573.177	32091.84
573.376	32530.11
573.574	31639.24
573.772	31833.8
573.971	31829.7
574.169	31567.56
574.367	31286.99
574.565	31436.49
574.763	31454.92
574.962	30981.84
575.16	30918.35
575.358	31045.33
575.556	30652.12
575.754	31184.59
575.952	30627.54
576.151	31033.04
576.349	30590.68
576.547	30584.54
576.745	30500.57
576.943	30289.63
577.141	29877.99
577.339	29968.1
577.537	29970.15
577.735	29902.56
577.933	29716.2
578.131	29970.15
578.329	29507.3
578.527	29257.45
578.725	29159.15
578.923	29316.84
579.121	29318.89
579.319	29372.14
579.516	29488.87
579.714	29036.27
579.912	28813.04
580.11	28948.21
580.308	28751.6
580.506	28620.53
580.704	28114.69
580.901	28630.77
581.099	28858.1
581.297	28366.59
581.495	28231.42
581.692	28169.98
581.89	27807.49
582.088	28385.02
582.285	27825.92
582.483	28102.4
582.681	27834.11
582.878	28024.58
583.076	27445
583.274	27662.08
583.471	27356.94
583.669	27506.44
583.866	27176.72
584.064	27236.11
584.262	26826.51
584.459	27086.61
584.657	26873.62
584.854	27242.25
585.052	26279.71
585.249	26732.31
585.447	26531.61
585.644	26509.08
585.841	26679.06
586.039	26269.47
586.236	26259.23
586.434	26359.58
586.631	25956.13
586.828	26070.81
587.026	25800.48
587.223	25702.18
587.42	25831.2
587.618	25958.17
587.815	25440.04
588.012	25308.97
588.21	25511.72
588.407	25644.84
588.604	25521.96
588.801	25087.79
588.999	25315.11
589.196	25091.88
589.393	25315.11
589.59	24944.43
589.787	24801.07
589.984	24477.49
590.182	24887.09
590.379	24876.85
590.576	24592.18
590.773	24661.81
590.97	24160.06
591.167	24385.33
591.364	24248.12
591.561	24239.93
591.758	23912.25
591.955	23961.41
592.152	23930.69
592.349	23740.22
592.546	24153.91
592.743	24035.13
592.94	23572.29
593.137	23590.72
593.334	23684.93
593.531	23385.93
593.727	23377.73
593.924	23578.43
594.121	23285.58
594.318	23447.36
594.515	23236.42
594.712	23222.09
594.908	23025.48
595.105	23082.83
595.302	22806.35
595.499	22736.72
595.696	22654.8
595.892	22355.8
596.089	22873.93
596.286	22579.03
596.482	22521.68
596.679	22646.61
596.876	22517.59
597.072	22306.65
597.269	22329.17
597.466	22144.86
597.662	22030.17
597.859	21989.21
598.055	21890.91
598.252	21675.87
598.448	21989.21
598.645	21540.71
598.841	21596
599.038	21733.22
599.234	21872.48
599.431	21563.23
599.627	21634.91
599.824	21677.92
600.02	21079.91
600.217	21583.71
600.413	21104.49
600.609	21032.81
600.806	20774.77
601.002	21057.39
601.198	20828.01
601.395	20508.53
601.591	20793.2
601.787	20993.9
601.984	20473.71
602.18	20547.44
602.376	20479.86
602.572	20383.6
602.769	20283.25
602.965	20172.66
603.161	20375.41
603.357	20072.31
603.553	20143.99
603.75	20137.85
603.946	19820.41
604.142	20039.54
604.338	19758.97
604.534	19982.2
604.73	19445.63
604.926	19380.1
605.122	19740.54
605.318	19363.72
605.514	19517.31
605.71	19228.55
605.906	19257.22
606.102	19152.77
606.298	19365.76
606.494	19113.86
606.69	19287.94
606.886	18974.6
607.082	18802.57
607.278	19242.89
607.474	18769.8
607.67	18847.63
607.866	18821
608.062	18800.52
608.257	18683.79
608.453	18579.34
608.649	18780.04
608.845	18575.25
609.041	18571.15
609.236	18612.11
609.432	18372.5
609.628	18339.73
609.824	18306.96
610.019	18255.76
610.215	18241.43
610.411	18358.16
610.606	18059.16
610.802	18093.97
610.998	18147.22
611.193	18319.25
611.389	18044.82
611.584	17946.52
611.78	17899.42
611.976	17651.61
612.171	18032.54
612.367	17780.64
612.562	17901.47
612.758	17770.4
612.953	17465.25
613.149	17491.87
613.344	17631.13
613.539	17897.37
613.735	17649.57
613.93	17754.01
614.126	17160.1
614.321	17448.86
614.517	17242.02
614.712	17448.86
614.907	17346.47
615.103	17377.19
615.298	17168.29
615.493	17317.79
615.688	17031.08
615.884	17420.19
616.079	16840.62
616.274	17260.45
616.47	16904.1
616.665	16912.3
616.86	16766.89
617.055	16609.2
617.25	16762.79
617.445	17065.89
617.641	16646.06
617.836	16816.04
618.031	16488.37
618.226	16818.09
618.421	16328.63
618.616	16816.04
618.811	16482.22
619.006	16431.02
619.201	16152.5
619.396	16099.25
619.591	15996.85
619.786	16353.2
619.981	15916.98
620.176	16230.32
620.371	15796.15
620.566	15904.7
620.761	15747
620.956	15822.78
621.151	15695.8
621.346	15843.26
621.541	15314.88
621.735	15683.52
621.93	15069.12
622.125	15376.32
622.32	15173.57
622.515	15167.43
622.709	14985.16
622.904	15013.83
623.099	15024.07
623.294	14876.62
623.488	14571.47
623.683	14712.78
623.878	14628.81
624.072	14610.38
624.267	14471.12
624.462	14297.04
624.656	14372.82
624.851	14247.89
625.046	14079.96
625.24	14102.48
625.435	13899.73
625.629	13912.02
625.824	14161.87
626.018	13821.91
626.213	13268.96
626.407	13592.54
626.602	13590.49
626.796	13682.65
626.991	13600.73
627.185	13352.93
627.38	13359.07
627.574	13105.12
627.768	13023.2
627.963	13148.13
628.157	12849.13
628.352	12926.95
628.546	12867.56
628.74	12793.83
628.935	12808.17
629.129	12593.13
629.323	12730.34
629.517	12371.95
629.712	12341.23
629.906	12347.37
630.1	12132.34
630.294	12322.8
630.489	12175.34
630.683	12148.72
630.877	11921.4
631.071	12003.32
631.265	11993.08
631.459	12031.99
631.653	11702.26
631.848	11995.12
632.042	11577.34
632.236	11843.57
632.43	11681.78
632.624	11472.89
632.818	11456.51
633.012	11352.06
633.206	11372.54
633.4	11347.97
633.594	11270.14
633.788	11180.03
633.982	11298.81
634.176	11208.7
634.369	10799.11
634.563	10954.76
634.757	10840.07
634.951	10821.64
635.145	11042.82
635.339	10889.22
635.533	10610.7
635.726	10805.25
635.92	10549.26
636.114	10266.64
636.308	10274.83
636.501	10373.13
636.695	10444.81
636.889	10133.52
637.083	10430.48
637.276	10012.69
637.47	10000.4
637.664	10012.69
637.857	10006.55
638.051	10012.69
638.244	9877.52
638.438	9719.83
638.632	9906.2
638.825	9750.55
639.019	9666.58
639.212	9486.36
639.406	9627.67
639.599	9488.41
639.793	9486.36
639.986	9566.23
640.18	9420.83
640.373	9373.72
640.567	9076.77
640.76	9357.34
640.954	9181.21
641.147	9084.96
641.34	9003.04
641.534	9263.13
641.727	9119.78
641.92	9011.23
642.114	8968.23
642.307	8970.27
642.5	8794.15
642.694	8626.22
642.887	8611.88
643.08	8718.37
643.273	8640.55
643.467	8636.45
643.66	8497.19
643.853	8652.84
644.046	8235.05
644.239	8142.89
644.432	8460.33
644.626	8292.4
644.819	8323.12
645.012	8243.24
645.205	8212.53
645.398	8167.47
645.591	8073.26
645.784	8112.17
645.977	7958.58
646.17	8069.17
646.363	7800.88
646.556	7737.4
646.749	8103.98
646.942	7825.46
647.135	7774.26
647.328	7581.75
647.521	7702.58
647.714	7815.22
647.907	7616.57
648.099	7708.73
648.292	7374.91
648.485	7749.68
648.678	7381.05
648.871	7370.81
649.064	7471.16
649.256	7516.22
649.449	7229.5
649.642	7223.36
649.835	7307.32
650.027	7204.92
650.22	7262.27
650.413	7180.35
650.605	7133.25
650.798	7211.07
650.991	7043.14
651.183	6934.59
651.376	6832.19
651.568	7006.27
651.761	6989.89
651.954	6948.93
652.146	6725.7
652.339	6973.5
652.531	6635.59
652.724	6699.08
652.916	6649.93
653.109	6613.06
653.301	6729.8
653.494	6629.45
653.686	6381.64
653.879	6649.93
654.071	6379.59
654.263	6445.13
654.456	6522.95
654.648	6346.83
654.84	6350.92
655.033	6301.77
655.225	6279.24
655.417	6228.04
655.61	6346.83
655.802	6359.11
655.994	6158.41
656.186	6213.71
656.379	6178.89
656.571	6133.84
656.763	6013.01
656.955	5961.81
657.148	6121.55
657.34	6162.51
657.532	6082.64
657.724	5843.03
657.916	6039.63
658.108	5912.66
658.3	5847.12
658.492	5816.4
658.684	5824.59
658.876	5793.87
659.068	5781.59
659.26	5744.72
659.452	5599.32
659.644	5656.66
659.836	5515.35
660.028	5814.35
660.22	5705.81
660.412	5568.6
660.604	5597.27
660.796	5490.77
660.988	5578.84
661.18	5695.57
661.372	5365.85
661.563	5431.38
661.755	5515.35
661.947	5324.89
662.139	5339.23
662.331	5507.16
662.522	5240.92
662.714	5367.9
662.906	5283.93
663.097	5130.33
663.289	5318.75
663.481	5159
663.673	5326.94
663.864	5331.03
664.056	5238.87
664.247	5199.96
664.439	4968.54
664.631	5085.28
664.822	5257.31
665.014	4980.83
665.205	5169.24
665.397	5144.67
665.588	5027.93
665.78	5064.8
665.971	5089.37
666.163	5046.37
666.354	5060.7
666.546	5105.76
666.737	4911.2
666.929	5113.95
667.12	4892.77
667.311	5009.5
667.503	4761.7
667.694	4956.26
667.885	5007.45
668.077	4884.58
668.268	5032.03
668.459	4806.75
668.651	4855.9
668.842	4868.19
669.033	4997.21
669.224	4819.04
669.416	4966.49
669.607	4802.66
669.798	4880.48
669.989	4819.04
670.18	4704.35
670.371	4730.98
670.563	4849.76
670.754	4864.1
670.945	4769.89
671.136	4710.5
671.327	4757.6
671.518	4860
671.709	4884.58
671.9	4655.2
672.091	4751.46
672.282	4786.27
672.473	4667.49
672.664	4780.13
672.855	4876.38
673.046	4704.35
673.237	4786.27
673.428	4808.8
673.619	4841.57
673.809	4696.16
674	4716.64
674.191	4724.83
674.382	4769.89
674.573	4733.03
674.764	4993.12
674.954	4974.69
675.145	4800.61
675.336	4745.31
675.527	4814.95
675.717	4677.73
675.908	4733.03
676.099	4767.84
676.289	4802.66
676.48	4816.99
676.671	4816.99
676.861	4964.45
677.052	4868.19
677.243	4845.66
677.433	5005.41
677.624	4958.3
677.814	5087.33
678.005	4941.92
678.195	4925.54
678.386	4986.97
678.576	4864.1
678.767	5015.65
678.957	4974.69
679.148	5058.65
679.338	5052.51
679.529	4847.71
679.719	4995.17
679.909	4964.45
680.1	5027.93
680.29	5236.83
680.481	5089.37
680.671	5120.09
680.861	5048.41
681.052	5134.43
681.242	5308.51
681.432	5130.33
681.622	5175.39
681.813	5111.9
682.003	5212.25
682.193	5242.97
682.383	5277.79
682.573	5171.29
682.764	5175.39
682.954	5236.83
683.144	5218.4
683.334	5267.55
683.524	5316.7
683.714	5245.02
683.904	5060.7
684.094	5355.61
684.284	5150.81
684.474	5367.9
684.664	5304.41
684.854	5130.33
685.044	5136.48
685.234	5146.72
685.424	5240.92
685.614	5267.55
685.804	5085.28
685.994	5146.72
686.184	4989.02
686.374	5199.96
686.564	5027.93
686.753	5175.39
686.943	5120.09
687.133	5072.99
687.323	5146.72
687.513	5044.32
687.702	4907.1
687.892	5023.84
688.082	4980.83
688.272	5052.51
688.461	5042.27
688.651	4972.64
688.841	4923.49
689.03	4984.93
689.22	4982.88
689.41	4991.07
689.599	4931.68
689.789	4909.15
689.979	4751.46
690.168	4921.44
690.358	4702.31
690.547	4769.89
690.737	4714.59
690.926	4712.55
691.116	4614.24
691.305	4661.35
691.495	4655.2
691.684	4569.19
691.874	4561
692.063	4466.79
692.252	4442.21
692.442	4538.47
692.631	4343.91
692.82	4571.24
693.01	4257.9
693.199	4411.5
693.388	4405.35
693.578	4270.19
693.767	4409.45
693.956	4290.67
694.146	4221.03
694.335	4180.07
694.524	4284.52
694.713	4171.88
694.902	4165.74
695.092	4094.06
695.281	4225.13
695.47	4233.32
695.659	4003.95
695.848	4120.68
696.037	4128.88
696.226	4081.77
696.415	3981.42
696.604	4096.11
696.793	4192.36
696.982	3932.27
697.171	4100.2
697.36	3952.75
697.549	3903.6
697.738	3874.93
697.927	3915.89
698.116	3797.1
698.305	3991.66
698.494	3811.44
698.683	3844.21
698.872	4003.95
699.061	4014.19
699.25	3831.92
699.438	3872.88
699.627	3977.33
699.816	3876.98
700.005	3950.7
700.193	3876.98
700.382	3977.33
700.571	3985.52
700.76	3987.57
700.948	3977.33
701.137	3965.04
701.326	3825.78
701.514	4001.9
701.703	3973.23
701.892	3893.36
702.08	3971.18
702.269	3893.36
702.457	3737.71
702.646	3838.06
702.834	3991.66
703.023	3901.55
703.212	3967.09
703.4	3922.03
703.589	3897.46
703.777	3946.61
703.965	3852.4
704.154	4024.43
704.342	4006
704.531	3934.32
704.719	3942.51
704.907	4028.53
705.096	4028.53
705.284	3833.97
705.472	3915.89
705.661	3987.57
705.849	4044.91
706.037	4036.72
706.226	4059.24
706.414	4028.53
706.602	4128.88
706.79	4020.33
706.979	4077.68
707.167	4026.48
707.355	4241.51
707.543	4128.88
707.731	4132.97
707.919	4169.84
708.107	4173.93
708.296	4053.1
708.484	4159.6
708.672	4132.97
708.86	4178.03
709.048	4137.07
709.236	4145.26
709.424	4214.89
709.612	4286.57
709.8	4196.46
709.988	4268.14
710.176	4419.69
710.364	4450.41
710.551	4352.1
710.739	4343.91
710.927	4384.87
711.115	4393.06
711.303	4380.78
711.491	4452.45
711.679	4290.67
711.866	4350.06
712.054	4532.33
712.242	4542.57
712.43	4507.75
712.617	4401.26
712.805	4573.28
712.993	4573.28
713.181	4577.38
713.368	4599.91
713.556	4536.42
713.744	4528.23
713.931	4810.85
714.119	4679.78
714.306	4620.39
714.494	4694.12
714.682	4644.96
714.869	4708.45
715.057	4700.26
715.244	4837.47
715.432	4958.3
715.619	4874.34
715.807	4995.17
715.994	4898.91
716.182	4905.06
716.369	4898.91
716.556	4892.77
716.744	4843.62
716.931	4966.49
717.119	4896.86
717.306	4845.66
717.493	4968.54
717.681	5212.25
717.868	5079.13
718.055	5007.45
718.242	5126.24
718.43	5152.86
718.617	5255.26
718.804	5216.35
718.991	5245.02
719.179	5238.87
719.366	5187.68
719.553	5269.59
719.74	5212.25
719.927	5285.98
720.114	5296.22
720.301	5378.14
720.488	5079.13
720.676	5300.31
720.863	5400.66
721.05	5601.37
721.237	5345.37
721.424	5302.36
721.611	5472.34
721.798	5523.54
721.985	5595.22
722.172	5417.05
722.358	5466.2
722.545	5539.93
722.732	5613.65
722.919	5689.43
723.106	5572.69
723.293	5521.49
723.48	5703.76
723.667	5525.59
723.853	5566.55
724.04	5691.48
724.227	5812.31
724.414	5630.04
724.6	5709.91
724.787	5834.83
724.974	5769.3
725.161	5640.28
725.347	5826.64
725.534	5974.1
725.72	5851.22
725.907	5949.52
726.094	5939.28
726.28	5949.52
726.467	5802.07
726.653	5765.2
726.84	5986.38
727.027	6062.16
727.213	5883.98
727.4	6121.55
727.586	6121.55
727.773	5910.61
727.959	6236.24
728.145	6133.84
728.332	6021.2
728.518	5965.9
728.705	6217.8
728.891	6219.85
729.077	6142.03
729.264	6209.61
729.45	6146.12
729.636	6178.89
729.823	6299.72
730.009	6244.43
730.195	6322.25
730.382	6412.36
730.568	6133.84
730.754	6309.96
730.94	6090.83
731.126	6293.58
731.313	6273.1
731.499	6264.91
731.685	6316.11
731.871	6238.28
732.057	6330.44
732.243	6547.53
732.429	6385.74
732.615	6420.55
732.801	6377.55
732.987	6422.6
733.173	6426.7
733.359	6391.88
733.545	6365.26
733.731	6531.14
733.917	6627.4
734.103	6481.99
734.289	6379.59
734.475	6467.66
734.661	6531.14
734.847	6457.42
735.033	6522.95
735.219	6410.31
735.404	6498.38
735.59	6727.75
735.776	6455.37
735.962	6686.79
736.148	6660.17
736.333	6662.21
736.519	6461.51
736.705	6570.05
736.89	6778.95
737.076	6553.67
737.262	6613.06
737.447	6604.87
737.633	6635.59
737.819	6486.09
738.004	6516.81
738.19	6510.66
738.375	6461.51
738.561	6594.63
738.747	6400.07
738.932	6455.37
739.118	6570.05
739.303	6551.62
739.489	6553.67
739.674	6563.91
739.859	6510.66
740.045	6565.96
740.23	6445.13
740.416	6307.91
740.601	6500.42
740.786	6469.7
740.972	6373.45
741.157	6342.73
741.342	6424.65
741.528	6398.03
741.713	6363.21
741.898	6398.03
742.084	6365.26
742.269	6236.24
742.454	6330.44
742.639	6391.88
742.824	6299.72
743.01	6334.54
743.195	6318.15
743.38	6285.39
743.565	6326.35
743.75	6150.22
743.935	6199.37
744.12	6379.59
744.305	6051.92
744.49	6064.21
744.675	5892.18
744.86	5951.57
745.045	5980.24
745.23	6137.93
745.415	6150.22
745.6	5892.18
745.785	5818.45
745.97	5912.66
746.155	5781.59
746.34	5875.79
746.525	5922.9
746.71	5802.07
746.895	5662.8
747.079	5771.35
747.264	5630.04
747.449	5769.3
747.634	5662.8
747.819	5695.57
748.003	5466.2
748.188	5578.84
748.373	5439.58
748.557	5392.47
748.742	5449.82
748.927	5238.87
749.111	5374.04
749.296	5390.42
749.481	5388.38
749.665	5341.27
749.85	5144.67
750.034	5253.21
750.219	5130.33
750.404	5136.48
750.588	5019.74
750.773	4950.11
750.957	5062.75
751.141	5175.39
751.326	5048.41
751.51	4827.23
751.695	4962.4
751.879	4972.64
752.064	4771.94
752.248	4763.75
752.432	4923.49
752.617	4681.83
752.801	4708.45
752.985	4671.59
753.17	4704.35
753.354	4614.24
753.538	4651.11
753.722	4431.98
753.907	4431.98
754.091	4442.21
754.275	4401.26
754.459	4405.35
754.643	4442.21
754.828	4391.02
755.012	4325.48
755.196	4249.71
755.38	4261.99
755.564	4210.79
755.748	4143.21
755.932	4167.79
756.116	4069.48
756.3	4126.83
756.484	3977.33
756.668	4038.77
756.852	4120.68
757.036	4059.24
757.22	3946.61
757.404	3876.98
757.588	3782.77
757.772	3889.26
757.956	3897.46
758.14	3694.71
758.323	3629.17
758.507	3721.33
758.691	3850.35
758.875	3620.98
759.059	3637.36
759.242	3604.6
759.426	3598.45
759.61	3588.21
759.794	3479.67
759.977	3631.22
760.161	3557.49
760.345	3545.2
760.528	3424.37
760.712	3555.44
760.895	3401.85
761.079	3221.63
761.263	3410.04
761.446	3336.31
761.63	3278.97
761.813	3475.57
761.997	3324.02
762.18	3418.23
762.364	3201.15
762.547	3131.51
762.731	3098.75
762.914	3221.63
763.098	3090.56
763.281	3201.15
763.464	3147.9
763.648	3092.6
763.831	3020.92
764.015	3041.4
764.198	3053.69
764.381	3012.73
764.564	3041.4
764.748	2963.58
764.931	2975.87
765.114	2861.18
765.297	3143.8
765.481	3049.6
765.664	3045.5
765.847	2926.72
766.03	2955.39
766.213	2865.28
766.397	2822.27
766.58	2807.94
766.763	2908.29
766.946	2934.91
767.129	2779.26
767.312	2865.28
767.495	2818.18
767.678	2752.64
767.861	2787.46
768.044	2812.03
768.227	2705.54
768.41	2726.02
768.593	2685.06
768.776	2771.07
768.959	2730.11
769.142	2840.7
769.324	2588.8
769.507	2627.71
769.69	2609.28
769.873	2680.96
770.056	2611.33
770.239	2605.19
770.421	2562.18
770.604	2603.14
770.787	2500.74
770.97	2590.85
771.152	2572.42
771.335	2492.55
771.518	2453.64
771.7	2486.4
771.883	2435.21
772.066	2472.07
772.248	2381.96
772.431	2381.96
772.613	2427.01
772.796	2310.28
772.978	2310.28
773.161	2384.01
773.343	2304.14
773.526	2367.62
773.708	2080.91
773.891	2375.81
774.073	2209.93
774.256	2205.83
774.438	2242.7
774.621	2181.26
774.803	2132.11
774.985	2128.01
775.168	2254.98
775.35	2138.25
775.532	2152.59
775.715	2119.82
775.897	2033.8
776.079	1972.36
776.261	2048.14
776.444	2007.18
776.626	2089.1
776.808	2062.48
776.99	1941.65
777.173	1947.79
777.355	2119.82
777.537	1855.63
777.719	1884.3
777.901	1894.54
778.083	1796.24
778.265	1812.62
778.447	1882.25
778.629	1845.39
778.811	1798.29
778.993	1837.2
779.175	1759.38
779.357	1644.69
779.539	1702.03
779.721	1804.43
779.903	1659.03
780.085	1714.32
780.267	1665.17
780.449	1679.51
780.631	1718.42
780.812	1683.6
780.994	1747.09
781.176	1554.58
781.358	1595.54
781.54	1566.87
781.721	1601.68
781.903	1605.78
782.085	1503.38
782.267	1556.63
782.448	1517.72
782.63	1575.06
782.812	1493.14
782.993	1497.24
783.175	1476.76
783.357	1400.98
783.538	1450.13
783.72	1386.65
783.901	1499.28
784.083	1312.92
784.264	1353.88
784.446	1179.8
784.627	1343.64
784.809	1443.99
784.99	1288.34
785.172	1286.3
785.353	1329.3
785.535	1271.96
785.716	1257.62
785.897	1173.66
786.079	1196.18
786.26	1198.23
786.441	1263.77
786.623	1147.03
786.804	1198.23
786.985	1226.9
787.167	1165.46
787.348	1140.89
787.529	1149.08
787.71	1124.51
787.891	1214.62
788.073	1083.55
788.254	1120.41
788.435	1187.99
788.616	1097.88
788.797	1063.07
788.978	1040.54
789.159	1071.26
789.34	1075.35
789.522	1106.07
789.703	1032.35
789.884	1128.6
790.065	1038.49
790.246	1058.97
790.427	983.2
790.607	1067.16
790.788	1124.51
790.969	1056.92
791.15	999.58
791.331	895.13
791.512	985.24
791.693	975
791.874	909.47
792.054	907.42
792.235	1061.02
792.416	891.04
792.597	927.9
792.778	915.61
792.958	909.47
793.139	901.28
793.32	911.52
793.5	936.09
793.681	962.72
793.862	1001.63
794.042	854.17
794.223	811.17
794.404	934.04
794.584	825.5
794.765	778.4
794.945	850.08
795.126	829.6
795.306	915.61
795.487	901.28
795.667	772.25
795.848	837.79
796.028	823.45
796.209	811.17
796.389	807.07
796.57	757.92
796.75	850.08
796.93	815.26
797.111	667.81
797.291	729.25
797.471	876.7
797.652	745.63
797.832	710.82
798.012	802.97
798.192	708.77
798.373	696.48
798.553	680.1
798.733	706.72
798.913	731.3
799.093	698.53
799.274	673.95
799.454	651.42
799.634	694.43
799.814	706.72
799.994	778.4
800.174	762.02
800.354	696.48
800.534	651.42
800.714	704.67
800.894	692.38
801.074	682.14
801.254	612.51
801.434	682.14
801.614	645.28
801.794	678.05
801.974	1386.65
802.154	592.03
802.334	788.64
802.514	616.61
802.693	626.85
802.873	643.23
803.053	694.43
803.233	544.93
803.413	655.52
803.592	686.24
803.772	589.99
803.952	628.9
804.131	583.84
804.311	624.8
804.491	632.99
804.67	620.71
804.85	542.88
805.03	544.93
805.209	632.99
805.389	581.79
805.568	585.89
805.748	522.4
805.928	575.65
806.107	598.18
806.287	516.26
806.466	538.79
806.646	536.74
806.825	571.55
807.004	530.59
807.184	485.54
807.363	592.03
807.543	567.46
807.722	575.65
807.901	559.27
808.081	538.79
808.26	438.44
808.439	452.77
808.619	501.92
808.798	469.16
808.977	503.97
809.156	544.93
809.336	592.03
809.515	510.11
809.694	501.92
809.873	458.92
810.052	487.59
810.231	538.79
810.411	575.65
810.59	592.03
810.769	428.2
810.948	522.4
811.127	395.43
811.306	477.35
811.485	446.63
811.664	538.79
811.843	424.1
812.022	481.44
812.201	377
812.38	477.35
812.559	395.43
812.737	489.64
812.916	391.33
813.095	481.44
813.274	477.35
813.453	430.24
813.632	403.62
813.811	481.44
813.989	473.25
814.168	420
814.347	360.61
814.526	420
814.704	452.77
814.883	506.02
815.062	368.81
815.24	340.13
815.419	393.38
815.598	413.86
815.776	385.19
815.955	417.96
816.133	397.48
816.312	393.38
816.49	346.28
816.669	465.06
816.847	452.77
817.026	370.85
817.204	409.76
817.383	393.38
817.561	303.27
817.74	352.42
817.918	354.47
818.097	436.39
818.275	393.38
818.453	426.15
818.632	477.35
818.81	329.89
818.988	223.4
819.167	358.57
819.345	366.76
819.523	333.99
819.701	346.28
819.879	325.8
820.058	346.28
820.236	336.04
820.414	352.42
820.592	362.66
820.77	321.7
820.948	336.04
821.127	311.46
821.305	379.04
821.483	366.76
821.661	268.45
821.839	352.42
822.017	272.55
822.195	309.41
822.373	399.52
822.551	346.28
822.729	403.62
822.907	297.13
823.085	403.62
823.262	280.74
823.44	350.37
823.618	321.7
823.796	313.51
823.974	315.56
824.152	256.17
824.329	352.42
824.507	346.28
824.685	329.89
824.863	311.46
825.04	272.55
825.218	360.61
825.396	309.41
825.574	436.39
825.751	307.37
825.929	293.03
826.107	245.93
826.284	393.38
826.462	268.45
826.639	235.69
826.817	293.03
826.994	327.85
827.172	252.07
827.349	366.76
827.527	301.22
827.704	329.89
827.882	239.78
828.059	346.28
828.237	317.61
828.414	313.51
828.591	270.5
828.769	231.59
828.946	217.26
829.124	223.4
829.301	311.46
829.478	213.16
829.655	270.5
829.833	268.45
830.01	278.69
830.187	186.54
830.364	207.02
830.542	272.55
830.719	239.78
830.896	264.36
831.073	260.26
831.25	327.85
831.427	264.36
831.604	243.88
831.782	231.59
831.959	186.54
832.136	207.02
832.313	180.39
832.49	213.16
832.667	243.88
832.844	209.06
833.021	223.4
833.198	166.06
833.374	239.78
833.551	321.7
833.728	293.03
833.905	288.93
834.082	174.25
834.259	198.82
834.436	354.47
834.612	186.54
834.789	250.02
834.966	198.82
835.143	237.74
835.319	106.67
835.496	219.3
835.673	192.68
835.85	231.59
836.026	225.45
836.203	293.03
836.38	188.58
836.556	188.58
836.733	139.43
836.909	256.17
837.086	190.63
837.262	145.58
837.439	266.41
837.616	198.82
837.792	188.58
837.968	125.1
838.145	170.15
838.321	157.86
838.498	215.21
838.674	262.31
838.851	260.26
839.027	227.5
839.203	223.4
839.38	190.63
839.556	172.2
839.732	188.58
839.909	121
840.085	180.39
840.261	129.19
840.437	157.86
840.614	155.82
840.79	198.82
840.966	135.34
841.142	161.96
841.318	157.86
841.494	168.1
841.671	149.67
841.847	159.91
842.023	116.9
842.199	223.4
842.375	260.26
842.551	178.34
842.727	108.71
842.903	211.11
843.079	92.33
843.255	147.62
843.431	121
843.607	145.58
843.783	133.29
843.959	200.87
844.134	166.06
844.31	198.82
844.486	157.86
844.662	121
844.838	133.29
845.013	166.06
845.189	139.43
845.365	125.1
845.541	149.67
845.716	71.85
845.892	98.47
846.068	104.62
846.244	108.71
846.419	172.2
846.595	125.1
846.77	157.86
846.946	145.58
847.122	90.28
847.297	182.44
847.473	182.44
847.648	92.33
847.824	104.62
847.999	96.43
848.175	172.2
848.35	166.06
848.526	256.17
848.701	157.86
848.876	188.58
849.052	213.16
849.227	155.82
849.403	200.87
849.578	104.62
849.753	133.29
849.929	217.26
850.104	90.28
850.279	194.73
850.454	125.1
850.63	172.2
850.805	67.75
850.98	100.52
851.155	178.34
851.33	84.14
851.505	100.52
851.681	112.81
851.856	69.8
852.031	94.38
852.206	30.89
852.381	100.52
852.556	75.95
852.731	84.14
852.906	108.71
853.081	43.18
853.256	170.15
853.431	73.9
853.606	131.24
853.781	133.29
853.956	71.85
854.131	129.19
854.305	43.18
854.48	135.34
854.655	57.51
854.83	63.66
855.005	129.19
855.18	100.52
855.354	94.38
855.529	106.67
855.704	51.37
855.879	190.63
856.053	82.09
856.228	92.33
856.403	108.71
856.577	28.84
856.752	88.23
856.926	92.33
857.101	90.28
857.276	116.9
857.45	112.81
857.625	108.71
857.799	80.04
857.974	92.33
858.148	10.41
858.323	55.47
858.497	112.81
858.672	112.81
858.846	61.61
859.02	84.14
859.195	96.43
859.369	100.52
859.543	166.06
859.718	43.18
859.892	96.43
860.066	75.95
860.241	100.52
860.415	14.51
860.589	104.62
860.763	116.9
860.938	84.14
861.112	114.86
861.286	39.08
861.46	59.56
861.634	71.85
861.808	84.14
861.982	51.37
862.157	49.32
862.331	75.95
862.505	55.47
862.679	125.1
862.853	112.81
863.027	69.8
863.201	121
863.375	151.72
863.549	112.81
863.722	41.13
863.896	59.56
864.07	108.71
864.244	57.51
864.418	172.2
864.592	49.32
864.766	57.51
864.939	65.71
865.113	65.71
865.287	75.95
865.461	14.51
865.634	67.75
865.808	108.71
865.982	20.65
866.156	69.8
866.329	28.84
866.503	10.41
866.676	71.85
866.85	59.56
867.024	90.28
867.197	65.71
867.371	92.33
867.544	55.47
867.718	26.79
867.891	77.99
868.065	65.71
868.238	-55.12
868.412	108.71
868.585	112.81
868.759	96.43
868.932	39.08
869.105	47.27
869.279	88.23
869.452	-38.74
869.625	84.14
869.799	57.51
869.972	92.33
870.145	26.79
870.319	53.42
870.492	114.86
870.665	90.28
870.838	-28.5
871.011	49.32
871.185	28.84
871.358	110.76
871.531	49.32
871.704	61.61
871.877	106.67
872.05	82.09
872.223	8.36
872.396	84.14
872.569	10.41
872.742	34.99
872.915	110.76
873.088	-36.69
873.261	71.85
873.434	96.43
873.607	90.28
873.78	116.9
873.953	55.47
874.126	59.56
874.299	108.71
874.471	73.9
874.644	63.66
874.817	75.95
874.99	139.43
875.163	-1.88
875.335	-22.36
875.508	-14.17
875.681	92.33
875.853	63.66
876.026	127.14
876.199	80.04
876.371	63.66
876.544	69.8
876.717	116.9
876.889	80.04
877.062	108.71
877.234	14.51
877.407	88.23
877.579	16.55
877.752	14.51
877.924	55.47
878.097	98.47
878.269	92.33
878.442	166.06
878.614	-63.32
878.786	67.75
878.959	71.85
879.131	-14.17
879.303	18.6
879.476	67.75
879.648	6.31
879.82	100.52
879.993	59.56
880.165	-1.88
880.337	14.51
880.509	32.94
880.681	32.94
880.854	-22.36
881.026	53.42
881.198	98.47
881.37	-10.07
881.542	2.22
881.714	90.28
881.886	18.6
882.058	86.19
882.23	8.36
882.402	26.79
882.574	14.51
882.746	59.56
882.918	106.67
883.09	16.55
883.262	-20.31
883.434	98.47
883.606	39.08
883.778	43.18
883.95	94.38
884.122	57.51
884.293	149.67
884.465	10.41
884.637	14.51
884.809	49.32
884.98	24.75
885.152	41.13
885.324	108.71
885.496	0.17
885.667	20.65
885.839	-14.17
886.011	77.99
886.182	71.85
886.354	51.37
886.525	123.05
886.697	22.7
886.869	-3.93
887.04	88.23
887.212	39.08
887.383	121
887.555	71.85
887.726	8.36
887.897	6.31
888.069	-12.12
888.24	116.9
888.412	32.94
888.583	-5.97
888.754	32.94
888.926	-22.36
889.097	110.76
889.268	-5.97
889.44	18.6
889.611	47.27
889.782	-26.45
889.953	-12.12
890.125	73.9
890.296	14.51
890.467	41.13
890.638	2.22
890.809	-24.4
890.98	26.79
891.151	100.52
891.323	75.95
891.494	26.79
891.665	59.56
891.836	39.08
892.007	0.17
892.178	59.56
892.349	6.31
892.52	145.58
892.691	84.14
892.862	14.51
893.032	-22.36
893.203	88.23
893.374	-26.45
893.545	77.99
893.716	71.85
893.887	65.71
894.057	26.79
894.228	-32.6
894.399	80.04
894.57	114.86
894.74	20.65
894.911	18.6
895.082	71.85
895.253	2.22
895.423	51.37
895.594	-5.97
895.764	24.75
895.935	-14.17
896.106	2.22
896.276	-30.55
896.447	73.9
896.617	26.79
896.788	20.65
896.958	8.36
897.129	-5.97
897.299	8.36
897.47	43.18
897.64	45.23
897.81	55.47
897.981	41.13
898.151	-10.07
898.322	-14.17
898.492	2.22
898.662	-1.88
898.832	-22.36
899.003	-8.02
899.173	37.03
899.343	4.27
899.513	34.99
