Data from USB4F104151__91__11-32-07-401.txt Node

Date: Fri Mar 14 11:32:07 EDT 2025
User: louis
Spectrometer: USB4F10415
Trigger mode: 4
Integration Time (sec): 5.000000E-2
Scans to average: 1
Electric dark correction enabled: true
Nonlinearity correction enabled: false
Boxcar width: 0
XAxis mode: Wavelengths
Number of Pixels in Spectrum: 3648
>>>>>Begin Spectral Data<<<<<
178.204	-116.56
178.424	-116.56
178.644	-116.56
178.864	-124.76
179.084	-89.94
179.304	-14.17
179.524	2.22
179.744	-26.45
179.964	39.08
180.184	47.27
180.404	4.27
180.624	63.66
180.844	-22.36
181.064	-128.85
181.283	8.36
181.503	-24.4
181.723	51.37
181.943	-18.26
182.163	55.47
182.383	61.61
182.602	100.52
182.822	55.47
183.042	-42.84
183.262	65.71
183.482	69.8
183.701	18.6
183.921	67.75
184.141	-10.07
184.361	53.42
184.58	-34.64
184.8	47.27
185.02	86.19
185.239	45.23
185.459	16.55
185.679	32.94
185.898	47.27
186.118	32.94
186.338	-10.07
186.557	28.84
186.777	-5.97
186.997	30.89
187.216	51.37
187.436	112.81
187.655	39.08
187.875	75.95
188.095	-38.74
188.314	135.34
188.534	98.47
188.753	-83.8
188.973	80.04
189.192	88.23
189.412	30.89
189.631	92.33
189.851	51.37
190.07	82.09
190.29	6.31
190.509	61.61
190.729	14.51
190.948	51.37
191.168	106.67
191.387	71.85
191.607	-10.07
191.826	39.08
192.045	-5.97
192.265	-44.88
192.484	10.41
192.704	-28.5
192.923	-32.6
193.142	121
193.362	98.47
193.581	84.14
193.8	102.57
194.02	135.34
194.239	28.84
194.458	129.19
194.678	80.04
194.897	30.89
195.116	24.75
195.335	18.6
195.555	47.27
195.774	45.23
195.993	43.18
196.212	63.66
196.432	-18.26
196.651	30.89
196.87	-38.74
197.089	96.43
197.308	45.23
197.528	45.23
197.747	45.23
197.966	4.27
198.185	102.57
198.404	32.94
198.623	28.84
198.842	26.79
199.062	141.48
199.281	6.31
199.5	-44.88
199.719	71.85
199.938	100.52
200.157	82.09
200.376	39.08
200.595	106.67
200.814	61.61
201.033	-10.07
201.252	65.71
201.471	39.08
201.69	67.75
201.909	112.81
202.128	47.27
202.347	129.19
202.566	37.03
202.785	-18.26
203.004	73.9
203.223	116.9
203.442	86.19
203.661	59.56
203.879	-38.74
204.098	47.27
204.317	-22.36
204.536	75.95
204.755	26.79
204.974	141.48
205.193	6.31
205.411	133.29
205.63	65.71
205.849	53.42
206.068	-1.88
206.287	55.47
206.505	133.29
206.724	-8.02
206.943	8.36
207.162	37.03
207.381	-8.02
207.599	4.27
207.818	26.79
208.037	-5.97
208.255	-26.45
208.474	24.75
208.693	22.7
208.911	43.18
209.13	53.42
209.349	28.84
209.567	86.19
209.786	94.38
210.005	71.85
210.223	75.95
210.442	-5.97
210.661	67.75
210.879	16.55
211.098	94.38
211.316	96.43
211.535	63.66
211.753	-42.84
211.972	80.04
212.191	-91.99
212.409	10.41
212.628	51.37
212.846	55.47
213.065	37.03
213.283	176.3
213.502	-3.93
213.72	55.47
213.938	22.7
214.157	67.75
214.375	-3.93
214.594	30.89
214.812	8.36
215.031	55.47
215.249	-28.5
215.467	141.48
215.686	94.38
215.904	39.08
216.122	6.31
216.341	80.04
216.559	55.47
216.778	86.19
216.996	47.27
217.214	41.13
217.432	-87.89
217.651	26.79
217.869	67.75
218.087	30.89
218.306	114.86
218.524	67.75
218.742	26.79
218.96	121
219.179	22.7
219.397	22.7
219.615	153.77
219.833	-36.69
220.051	22.7
220.27	22.7
220.488	-10.07
220.706	63.66
220.924	-61.27
221.142	26.79
221.36	47.27
221.578	47.27
221.796	10.41
222.015	-1.88
222.233	30.89
222.451	69.8
222.669	10.41
222.887	63.66
223.105	22.7
223.323	24.75
223.541	2.22
223.759	75.95
223.977	30.89
224.195	59.56
224.413	71.85
224.631	-20.31
224.849	80.04
225.067	47.27
225.285	51.37
225.503	41.13
225.721	4.27
225.939	39.08
226.157	63.66
226.375	69.8
226.592	22.7
226.81	-42.84
227.028	88.23
227.246	106.67
227.464	49.32
227.682	168.1
227.9	71.85
228.117	55.47
228.335	47.27
228.553	22.7
228.771	16.55
228.989	2.22
229.206	96.43
229.424	6.31
229.642	6.31
229.86	39.08
230.077	88.23
230.295	53.42
230.513	141.48
230.731	14.51
230.948	75.95
231.166	88.23
231.384	-3.93
231.601	51.37
231.819	112.81
232.037	39.08
232.254	10.41
232.472	96.43
232.689	10.41
232.907	28.84
233.125	-20.31
233.342	-1.88
233.56	41.13
233.777	88.23
233.995	43.18
234.213	63.66
234.43	41.13
234.648	55.47
234.865	-12.12
235.083	43.18
235.3	-40.79
235.518	102.57
235.735	92.33
235.953	73.9
236.17	24.75
236.388	53.42
236.605	63.66
236.822	55.47
237.04	45.23
237.257	-5.97
237.475	45.23
237.692	45.23
237.909	41.13
238.127	14.51
238.344	129.19
238.562	110.76
238.779	6.31
238.996	-8.02
239.214	37.03
239.431	63.66
239.648	51.37
239.865	37.03
240.083	55.47
240.3	88.23
240.517	96.43
240.735	43.18
240.952	96.43
241.169	63.66
241.386	59.56
241.603	-5.97
241.821	30.89
242.038	65.71
242.255	92.33
242.472	-10.07
242.689	137.38
242.907	63.66
243.124	63.66
243.341	6.31
243.558	-30.55
243.775	-5.97
243.992	18.6
244.209	30.89
244.426	149.67
244.643	47.27
244.86	22.7
245.078	67.75
245.295	37.03
245.512	18.6
245.729	55.47
245.946	77.99
246.163	47.27
246.38	63.66
246.597	63.66
246.814	63.66
247.031	47.27
247.248	102.57
247.464	73.9
247.681	104.62
247.898	39.08
248.115	75.95
248.332	-26.45
248.549	125.1
248.766	69.8
248.983	129.19
249.2	55.47
249.417	37.03
249.633	80.04
249.85	77.99
250.067	-20.31
250.284	73.9
250.501	14.51
250.717	133.29
250.934	59.56
251.151	71.85
251.368	-10.07
251.585	100.52
251.801	55.47
252.018	4.27
252.235	45.23
252.451	45.23
252.668	34.99
252.885	75.95
253.102	80.04
253.318	39.08
253.535	24.75
253.752	8.36
253.968	28.84
254.185	39.08
254.401	30.89
254.618	59.56
254.835	-12.12
255.051	61.61
255.268	104.62
255.484	-3.93
255.701	14.51
255.917	24.75
256.134	14.51
256.351	14.51
256.567	6.31
256.784	63.66
257	-34.64
257.217	59.56
257.433	43.18
257.65	-34.64
257.866	94.38
258.082	4.27
258.299	-57.17
258.515	84.14
258.732	49.32
258.948	49.32
259.165	88.23
259.381	63.66
259.597	82.09
259.814	47.27
260.03	32.94
260.246	112.81
260.463	94.38
260.679	8.36
260.895	28.84
261.112	98.47
261.328	20.65
261.544	6.31
261.761	133.29
261.977	4.27
262.193	37.03
262.409	0.17
262.626	20.65
262.842	59.56
263.058	18.6
263.274	34.99
263.49	22.7
263.707	37.03
263.923	110.76
264.139	22.7
264.355	-10.07
264.571	131.24
264.787	96.43
265.004	123.05
265.22	88.23
265.436	-40.79
265.652	22.7
265.868	108.71
266.084	51.37
266.3	-24.4
266.516	24.75
266.732	37.03
266.948	59.56
267.164	75.95
267.38	51.37
267.596	37.03
267.812	55.47
268.028	-26.45
268.244	12.46
268.46	26.79
268.676	39.08
268.892	69.8
269.108	26.79
269.324	6.31
269.54	-46.93
269.756	88.23
269.972	59.56
270.188	75.95
270.403	30.89
270.619	8.36
270.835	14.51
271.051	80.04
271.267	108.71
271.483	22.7
271.698	67.75
271.914	116.9
272.13	73.9
272.346	22.7
272.562	24.75
272.777	108.71
272.993	2.22
273.209	14.51
273.425	22.7
273.64	53.42
273.856	20.65
274.072	-10.07
274.287	-18.26
274.503	147.62
274.719	161.96
274.934	20.65
275.15	-1.88
275.366	61.61
275.581	20.65
275.797	6.31
276.012	22.7
276.228	92.33
276.444	24.75
276.659	127.14
276.875	-55.12
277.09	71.85
277.306	71.85
277.521	104.62
277.737	92.33
277.952	161.96
278.168	-53.08
278.383	53.42
278.599	77.99
278.814	57.51
279.03	53.42
279.245	135.34
279.461	92.33
279.676	57.51
279.892	-32.6
280.107	67.75
280.322	-18.26
280.538	90.28
280.753	-28.5
280.969	84.14
281.184	55.47
281.399	127.14
281.615	121
281.83	57.51
282.045	8.36
282.26	-24.4
282.476	34.99
282.691	-3.93
282.906	37.03
283.122	67.75
283.337	22.7
283.552	75.95
283.767	55.47
283.983	2.22
284.198	84.14
284.413	30.89
284.628	-42.84
284.843	37.03
285.058	110.76
285.274	61.61
285.489	26.79
285.704	53.42
285.919	-1.88
286.134	14.51
286.349	104.62
286.564	61.61
286.779	18.6
286.995	26.79
287.21	94.38
287.425	53.42
287.64	53.42
287.855	45.23
288.07	-10.07
288.285	73.9
288.5	75.95
288.715	0.17
288.93	37.03
289.145	53.42
289.36	37.03
289.575	80.04
289.79	104.62
290.004	-10.07
290.219	61.61
290.434	102.57
290.649	39.08
290.864	2.22
291.079	53.42
291.294	96.43
291.509	51.37
291.724	61.61
291.938	30.89
292.153	32.94
292.368	61.61
292.583	80.04
292.798	69.8
293.012	34.99
293.227	37.03
293.442	88.23
293.657	-8.02
293.871	96.43
294.086	47.27
294.301	80.04
294.516	65.71
294.73	80.04
294.945	47.27
295.16	59.56
295.374	137.38
295.589	129.19
295.804	34.99
296.018	34.99
296.233	143.53
296.447	49.32
296.662	20.65
296.877	63.66
297.091	69.8
297.306	55.47
297.52	30.89
297.735	47.27
297.949	22.7
298.164	102.57
298.378	59.56
298.593	84.14
298.807	96.43
299.022	-40.79
299.236	129.19
299.451	12.46
299.665	47.27
299.88	12.46
300.094	12.46
300.309	123.05
300.523	51.37
300.737	37.03
300.952	96.43
301.166	112.81
301.381	92.33
301.595	71.85
301.809	63.66
302.024	14.51
302.238	6.31
302.452	100.52
302.667	63.66
302.881	110.76
303.095	82.09
303.309	100.52
303.524	-22.36
303.738	41.13
303.952	67.75
304.166	98.47
304.381	-12.12
304.595	53.42
304.809	2.22
305.023	51.37
305.237	43.18
305.452	-59.22
305.666	65.71
305.88	53.42
306.094	16.55
306.308	-5.97
306.522	121
306.736	47.27
306.95	0.17
307.164	45.23
307.379	43.18
307.593	141.48
307.807	98.47
308.021	59.56
308.235	22.7
308.449	-3.93
308.663	30.89
308.877	80.04
309.091	77.99
309.305	104.62
309.519	-16.21
309.733	104.62
309.947	20.65
310.161	18.6
310.374	-1.88
310.588	116.9
310.802	-10.07
311.016	24.75
311.23	24.75
311.444	59.56
311.658	43.18
311.872	127.14
312.085	45.23
312.299	143.53
312.513	45.23
312.727	53.42
312.941	88.23
313.154	121
313.368	32.94
313.582	28.84
313.796	45.23
314.009	12.46
314.223	51.37
314.437	61.61
314.651	43.18
314.864	53.42
315.078	61.61
315.292	32.94
315.505	4.27
315.719	-26.45
315.933	-12.12
316.146	59.56
316.36	12.46
316.573	90.28
316.787	59.56
317.001	96.43
317.214	45.23
317.428	80.04
317.641	34.99
317.855	6.31
318.068	51.37
318.282	102.57
318.495	88.23
318.709	104.62
318.922	88.23
319.136	53.42
319.349	14.51
319.563	-12.12
319.776	-3.93
319.99	18.6
320.203	92.33
320.417	28.84
320.63	121
320.843	88.23
321.057	45.23
321.27	153.77
321.483	22.7
321.697	86.19
321.91	49.32
322.124	84.14
322.337	2.22
322.55	-79.7
322.763	20.65
322.977	-36.69
323.19	51.37
323.403	94.38
323.617	71.85
323.83	143.53
324.043	-14.17
324.256	77.99
324.469	12.46
324.683	137.38
324.896	53.42
325.109	53.42
325.322	-10.07
325.535	-83.8
325.748	114.86
325.962	63.66
326.175	92.33
326.388	20.65
326.601	92.33
326.814	-5.97
327.027	80.04
327.24	157.86
327.453	22.7
327.666	-22.36
327.879	18.6
328.092	71.85
328.305	26.79
328.518	32.94
328.731	6.31
328.944	43.18
329.157	104.62
329.37	-1.88
329.583	96.43
329.796	53.42
330.009	-1.88
330.222	-26.45
330.435	96.43
330.648	71.85
330.861	137.38
331.073	112.81
331.286	65.71
331.499	100.52
331.712	34.99
331.925	30.89
332.138	96.43
332.35	77.99
332.563	71.85
332.776	45.23
332.989	47.27
333.202	14.51
333.414	-12.12
333.627	86.19
333.84	39.08
334.053	47.27
334.265	73.9
334.478	73.9
334.691	133.29
334.903	98.47
335.116	-12.12
335.329	77.99
335.541	59.56
335.754	194.73
335.966	43.18
336.179	0.17
336.392	-16.21
336.604	53.42
336.817	84.14
337.029	121
337.242	55.47
337.454	98.47
337.667	10.41
337.88	135.34
338.092	53.42
338.305	14.51
338.517	-3.93
338.729	67.75
338.942	106.67
339.154	-34.64
339.367	12.46
339.579	110.76
339.792	49.32
340.004	125.1
340.217	6.31
340.429	37.03
340.641	80.04
340.854	47.27
341.066	110.76
341.278	67.75
341.491	137.38
341.703	24.75
341.915	26.79
342.128	45.23
342.34	26.79
342.552	-61.27
342.764	14.51
342.977	-18.26
343.189	28.84
343.401	88.23
343.613	39.08
343.826	100.52
344.038	-10.07
344.25	37.03
344.462	55.47
344.674	47.27
344.886	63.66
345.099	90.28
345.311	55.47
345.523	102.57
345.735	20.65
345.947	26.79
346.159	39.08
346.371	127.14
346.583	45.23
346.795	112.81
347.007	20.65
347.219	30.89
347.431	47.27
347.643	55.47
347.855	45.23
348.067	94.38
348.279	63.66
348.491	45.23
348.703	110.76
348.915	96.43
349.127	51.37
349.339	90.28
349.551	55.47
349.763	-20.31
349.975	65.71
350.187	47.27
350.399	-5.97
350.61	47.27
350.822	-53.08
351.034	63.66
351.246	-14.17
351.458	-18.26
351.669	96.43
351.881	47.27
352.093	55.47
352.305	43.18
352.517	129.19
352.728	12.46
352.94	41.13
353.152	80.04
353.363	59.56
353.575	-18.26
353.787	100.52
353.999	4.27
354.21	84.14
354.422	26.79
354.633	53.42
354.845	73.9
355.057	59.56
355.268	63.66
355.48	47.27
355.692	71.85
355.903	22.7
356.115	55.47
356.326	28.84
356.538	96.43
356.749	37.03
356.961	73.9
357.172	32.94
357.384	8.36
357.595	94.38
357.807	61.61
358.018	37.03
358.23	77.99
358.441	98.47
358.653	112.81
358.864	20.65
359.075	20.65
359.287	45.23
359.498	92.33
359.709	69.8
359.921	96.43
360.132	26.79
360.344	32.94
360.555	57.51
360.766	39.08
360.977	100.52
361.189	135.34
361.4	80.04
361.611	112.81
361.823	127.14
362.034	90.28
362.245	37.03
362.456	14.51
362.667	-14.17
362.879	10.41
363.09	80.04
363.301	88.23
363.512	43.18
363.723	55.47
363.935	75.95
364.146	96.43
364.357	88.23
364.568	28.84
364.779	14.51
364.99	77.99
365.201	39.08
365.412	45.23
365.623	45.23
365.834	63.66
366.045	39.08
366.256	65.71
366.467	71.85
366.678	22.7
366.889	57.51
367.1	20.65
367.311	121
367.522	47.27
367.733	39.08
367.944	41.13
368.155	75.95
368.366	96.43
368.577	55.47
368.788	20.65
368.999	30.89
369.209	10.41
369.42	129.19
369.631	98.47
369.842	100.52
370.053	88.23
370.264	80.04
370.474	8.36
370.685	26.79
370.896	75.95
371.107	61.61
371.317	30.89
371.528	-30.55
371.739	155.82
371.95	67.75
372.16	71.85
372.371	-5.97
372.582	37.03
372.792	127.14
373.003	75.95
373.214	104.62
373.424	100.52
373.635	73.9
373.846	55.47
374.056	102.57
374.267	57.51
374.477	59.56
374.688	67.75
374.898	63.66
375.109	77.99
375.319	92.33
375.53	104.62
375.74	53.42
375.951	118.95
376.161	16.55
376.372	39.08
376.582	108.71
376.793	47.27
377.003	10.41
377.214	-34.64
377.424	51.37
377.635	100.52
377.845	-10.07
378.055	100.52
378.266	108.71
378.476	127.14
378.686	26.79
378.897	135.34
379.107	51.37
379.317	22.7
379.528	65.71
379.738	77.99
379.948	-16.21
380.158	71.85
380.369	51.37
380.579	108.71
380.789	20.65
380.999	47.27
381.21	123.05
381.42	92.33
381.63	28.84
381.84	100.52
382.05	102.57
382.261	112.81
382.471	161.96
382.681	86.19
382.891	55.47
383.101	71.85
383.311	30.89
383.521	63.66
383.731	96.43
383.941	153.77
384.151	118.95
384.361	49.32
384.571	96.43
384.781	121
384.991	80.04
385.201	215.21
385.411	98.47
385.621	112.81
385.831	129.19
386.041	80.04
386.251	102.57
386.461	116.9
386.671	86.19
386.881	61.61
387.091	57.51
387.301	104.62
387.511	57.51
387.72	34.99
387.93	125.1
388.14	22.7
388.35	90.28
388.56	131.24
388.769	75.95
388.979	80.04
389.189	32.94
389.399	41.13
389.609	129.19
389.818	63.66
390.028	-38.74
390.238	6.31
390.447	102.57
390.657	80.04
390.867	59.56
391.076	104.62
391.286	71.85
391.496	88.23
391.705	57.51
391.915	112.81
392.125	96.43
392.334	88.23
392.544	69.8
392.753	98.47
392.963	10.41
393.172	104.62
393.382	47.27
393.591	67.75
393.801	63.66
394.01	80.04
394.22	82.09
394.429	67.75
394.639	104.62
394.848	161.96
395.058	176.3
395.267	43.18
395.477	104.62
395.686	75.95
395.895	139.43
396.105	121
396.314	121
396.524	39.08
396.733	153.77
396.942	161.96
397.152	71.85
397.361	121
397.57	141.48
397.78	30.89
397.989	116.9
398.198	155.82
398.407	80.04
398.617	137.38
398.826	100.52
399.035	145.58
399.244	51.37
399.453	80.04
399.663	102.57
399.872	59.56
400.081	94.38
400.29	153.77
400.499	-1.88
400.708	209.06
400.917	84.14
401.127	166.06
401.336	14.51
401.545	166.06
401.754	178.34
401.963	141.48
402.172	106.67
402.381	147.62
402.59	125.1
402.799	131.24
403.008	161.96
403.217	96.43
403.426	110.76
403.635	92.33
403.844	121
404.053	196.78
404.262	102.57
404.471	225.45
404.68	184.49
404.888	151.72
405.097	137.38
405.306	155.82
405.515	96.43
405.724	135.34
405.933	176.3
406.142	258.21
406.35	219.3
406.559	153.77
406.768	213.16
406.977	284.84
407.185	176.3
407.394	190.63
407.603	172.2
407.812	151.72
408.02	219.3
408.229	133.29
408.438	235.69
408.646	213.16
408.855	239.78
409.064	227.5
409.272	194.73
409.481	274.6
409.69	303.27
409.898	239.78
410.107	286.89
410.315	342.18
410.524	280.74
410.733	331.94
410.941	317.61
411.15	374.95
411.358	315.56
411.567	417.96
411.775	409.76
411.984	305.32
412.192	395.43
412.401	422.05
412.609	489.64
412.818	506.02
413.026	530.59
413.234	467.11
413.443	479.4
413.651	506.02
413.86	579.75
414.068	569.51
414.276	596.13
414.485	522.4
414.693	663.71
414.901	667.81
415.11	688.29
415.318	684.19
415.526	702.62
415.734	731.3
415.943	768.16
416.151	755.87
416.359	698.53
416.567	813.21
416.776	833.69
416.984	915.61
417.192	856.22
417.4	845.98
417.608	858.27
417.817	1044.63
418.025	1011.87
418.233	1130.65
418.441	1095.83
418.649	1179.8
418.857	1136.79
419.065	1204.38
419.273	1204.38
419.481	1265.82
419.689	1271.96
419.897	1380.5
420.105	1362.07
420.313	1464.47
420.521	1458.32
420.729	1587.35
420.937	1542.29
421.145	1595.54
421.353	1759.38
421.561	1761.42
421.769	1816.72
421.977	1964.17
422.185	1835.15
422.393	1980.56
422.601	2082.95
422.809	2064.52
423.017	2173.07
423.224	2283.66
423.432	2271.37
423.64	2283.66
423.848	2582.66
424.056	2494.6
424.263	2693.25
424.471	2689.15
424.679	2756.74
424.887	2863.23
425.094	2885.76
425.302	2910.33
425.51	3053.69
425.718	3106.94
425.925	3184.76
426.133	3151.99
426.341	3541.11
426.548	3477.62
426.756	3692.66
426.964	3745.91
427.171	3895.41
427.379	3850.35
427.586	3881.07
427.794	4096.11
428.001	4333.67
428.209	4526.18
428.417	4493.41
428.624	4806.75
428.832	4884.58
429.039	4737.12
429.247	4661.35
429.454	5138.52
429.662	5593.17
429.869	5140.57
430.076	5615.7
430.284	5523.54
430.491	5716.05
430.699	5916.75
430.906	5920.85
431.114	6068.3
431.321	6264.91
431.528	6260.81
431.736	6680.64
431.943	7065.66
432.15	6899.78
432.358	6953.02
432.565	7282.75
432.772	7329.85
432.979	7643.19
433.187	7770.16
433.394	7770.16
433.601	8288.3
433.808	8241.2
434.016	8329.26
434.223	8605.74
434.43	8919.07
434.637	9107.49
434.844	9527.32
435.052	9635.86
435.259	9590.81
435.466	9760.79
435.673	9768.98
435.88	10151.95
436.087	10799.11
436.294	10782.73
436.501	10665.99
436.708	10860.55
436.915	11376.64
437.122	11579.39
437.329	11757.56
437.537	12027.89
437.743	12244.98
437.95	12087.28
438.157	12863.46
438.364	13051.88
438.571	13113.31
438.778	13391.84
438.985	14430.16
439.192	13903.83
439.399	14307.28
439.606	13981.65
439.813	14747.59
440.02	15546.3
440.227	15415.23
440.433	15050.69
440.64	15822.78
440.847	15706.04
441.054	16003
441.261	17170.34
441.467	16902.06
441.674	17356.71
441.881	17821.59
442.088	17711
442.294	17588.13
442.501	18057.11
442.708	18780.04
442.914	19263.36
443.121	19959.67
443.328	19636.1
443.534	21055.34
443.741	20322.16
443.948	20217.72
444.154	21503.84
444.361	21301.09
444.568	21532.51
444.774	21278.57
444.981	21755.74
445.187	22466.39
445.394	23383.88
445.6	23324.49
445.807	25354.02
446.013	24155.96
446.22	24639.28
446.426	25491.24
446.633	25947.93
446.839	26533.65
447.046	25483.05
447.252	26918.67
447.459	27289.35
447.665	26920.72
447.871	27772.67
448.078	29202.16
448.284	27918.08
448.491	28684.02
448.697	29624.04
448.903	30191.33
449.11	30224.09
449.316	29675.24
449.522	30066.4
449.728	31059.66
449.935	31469.26
450.141	31489.74
450.347	32159.42
450.553	31313.61
450.76	31203.02
450.966	32313.02
451.172	32034.5
451.378	33111.73
451.584	32235.2
451.791	33056.43
451.997	32663.22
452.203	33386.16
452.409	33398.45
452.615	33248.94
452.821	31971.01
453.027	31743.69
453.233	33406.64
453.44	31901.38
453.646	32288.45
453.852	32405.18
454.058	33328.81
454.264	32001.73
454.47	32761.53
454.676	32095.94
454.882	33087.15
455.088	30093.02
455.294	30551.77
455.5	31276.75
455.705	31186.64
455.911	30191.33
456.117	29630.18
456.323	29054.7
456.529	27805.44
456.735	28507.9
456.941	27592.45
457.147	27229.96
457.352	26986.25
457.558	26205.98
457.764	26380.06
457.97	25845.54
458.176	25423.65
458.381	25184.04
458.587	23930.69
458.793	23924.54
458.999	22759.25
459.204	24395.57
459.41	23918.4
459.616	22126.43
459.821	22431.57
460.027	21981.02
460.233	21573.47
460.438	20293.49
460.644	20748.14
460.85	19382.15
461.055	19699.58
461.261	19482.5
461.466	17842.07
461.672	17446.82
461.878	18902.92
462.083	17608.61
462.289	17205.16
462.494	16830.38
462.7	16224.18
462.905	15708.09
463.111	16541.61
463.316	16185.27
463.522	16007.09
463.727	15929.27
463.932	16021.43
464.138	15736.76
464.343	15943.61
464.549	15574.97
464.754	16015.29
464.959	15865.78
465.165	15749.05
465.37	15095.75
465.575	14546.89
465.781	15388.61
465.986	15445.95
466.191	14858.18
466.397	14485.45
466.602	13981.65
466.807	14364.62
467.012	14331.86
467.218	14061.52
467.423	14098.39
467.628	14165.97
467.833	14927.81
468.038	14284.75
468.244	13725.66
468.449	14309.33
468.654	13774.81
468.859	13801.43
469.064	13537.24
469.269	13113.31
469.474	13217.76
469.679	13422.56
469.885	13344.74
470.09	13311.97
470.295	13221.86
470.5	12769.26
470.705	13207.52
470.91	12828.65
471.115	12486.64
471.32	12724.2
471.525	12736.49
471.73	12660.71
471.935	12148.72
472.139	11808.76
472.344	12212.21
472.549	11929.59
472.754	11948.02
472.959	11550.71
473.164	11376.64
473.369	11343.87
473.574	11575.29
473.778	11366.4
473.983	11112.45
474.188	11284.48
474.393	10719.24
474.598	10713.1
474.802	10719.24
475.007	10625.03
475.212	10866.69
475.417	10360.84
475.621	10471.43
475.826	10229.77
476.031	10254.35
476.235	9947.15
476.44	10008.59
476.645	9918.48
476.849	9873.43
477.054	9664.54
477.259	9625.62
477.463	9570.33
477.668	9406.49
477.872	9480.22
478.077	9234.46
478.282	9121.82
478.486	8914.98
478.691	9013.28
478.895	8984.61
479.1	8949.79
479.304	9025.57
479.509	8775.72
479.713	8790.05
479.918	8648.74
480.122	8364.08
480.326	8673.32
480.531	8714.28
480.735	8615.98
480.94	8452.14
481.144	8718.37
481.348	8370.22
481.553	8372.27
481.757	8335.4
481.961	8167.47
482.166	8376.36
482.37	8337.45
482.574	8149.04
482.778	8140.85
482.983	8347.69
483.187	8378.41
483.391	8044.59
483.595	8235.05
483.8	8304.68
484.004	8284.2
484.208	8476.71
484.412	8253.48
484.616	8058.93
484.821	8265.77
485.025	8093.74
485.229	8265.77
485.433	8087.6
485.637	8222.77
485.841	8247.34
486.045	8212.53
486.249	8276.01
486.453	8122.41
486.657	8165.42
486.861	8194.09
487.065	8112.17
487.269	8089.65
487.473	8056.88
487.677	8276.01
487.881	8372.27
488.085	8392.75
488.289	8247.34
488.493	8181.81
488.697	8255.53
488.901	8230.96
489.105	8335.4
489.309	8304.68
489.512	8230.96
489.716	8286.25
489.92	8448.04
490.124	8157.23
490.328	8636.45
490.531	8402.99
490.735	8335.4
490.939	8517.67
491.143	8454.19
491.346	8624.17
491.55	8560.68
491.754	8572.97
491.958	8630.31
492.161	8656.93
492.365	8615.98
492.569	8468.52
492.772	8730.66
492.976	8816.68
493.18	8810.53
493.383	8992.8
493.587	8767.52
493.79	9107.49
493.994	9011.23
494.197	9066.53
494.401	9158.69
494.605	9283.61
494.808	9195.55
495.012	9326.62
495.215	9345.05
495.419	9396.25
495.622	9539.61
495.825	9566.23
496.029	9431.07
496.232	10039.31
496.436	9797.65
496.639	10041.36
496.843	9945.11
497.046	10137.62
497.249	10344.46
497.453	10526.73
497.656	10287.12
497.859	10295.31
498.063	10768.39
498.266	10842.12
498.469	10522.63
498.673	10772.49
498.876	10858.5
499.079	10932.23
499.282	11024.39
499.485	11485.18
499.689	11417.6
499.892	11466.75
500.095	11649.02
500.298	11816.95
500.501	11800.57
500.705	12171.25
500.908	12273.65
501.111	12308.46
501.314	12374
501.517	12683.24
501.72	12814.31
501.923	12779.5
502.126	13004.77
502.329	13422.56
502.532	13281.25
502.735	13381.6
502.938	13694.94
503.141	13576.16
503.344	13793.24
503.547	13823.96
503.75	14145.49
503.953	14340.05
504.156	14473.17
504.359	14661.58
504.562	14772.17
504.765	15085.51
504.968	15044.55
505.17	15251.39
505.373	15267.78
505.576	15663.04
505.779	16066.49
505.982	16164.79
506.185	16279.47
506.387	16467.89
506.59	16484.27
506.793	17031.08
506.996	16719.79
507.198	17219.49
507.401	17391.52
507.604	17424.29
507.807	17919.9
508.009	17784.73
508.212	18251.67
508.415	18403.22
508.617	18583.44
508.82	18763.66
509.022	18665.36
509.225	19101.58
509.428	19316.61
509.63	19500.93
509.833	19378.05
510.035	20221.81
510.238	20053.88
510.44	20240.25
510.643	20397.94
510.845	20680.56
511.048	20920.17
511.25	21124.97
511.453	21143.4
511.655	22159.19
511.858	21976.92
512.06	21913.44
512.262	22189.91
512.465	22339.41
512.667	22665.04
512.87	23154.51
513.072	23084.87
513.274	23570.24
513.477	23799.62
513.679	23633.73
513.881	24457.01
514.084	24547.12
514.286	24690.48
514.488	25085.74
514.69	25462.57
514.893	25601.83
515.095	26009.37
515.297	26267.42
515.499	26621.72
515.701	26793.75
515.904	27311.88
516.106	27227.92
516.308	27862.79
516.51	28227.32
516.712	28188.41
516.914	28792.56
517.116	28897.01
517.318	29302.51
517.52	29449.96
517.722	29523.69
517.925	30170.85
518.127	30559.96
518.329	30908.12
518.531	30656.21
518.733	31250.13
518.935	31743.69
519.136	31901.38
519.338	32534.2
519.54	33009.33
519.742	33056.43
519.944	33207.98
520.146	34051.75
520.348	34197.15
520.55	34492.06
520.752	34741.91
520.954	35448.46
521.155	35171.99
521.357	35802.76
521.559	36468.35
521.761	37039.73
521.963	36791.93
522.164	37131.89
522.366	37287.54
522.568	38035.05
522.77	37955.18
522.971	39077.46
523.173	38565.47
523.375	39188.05
523.576	39405.14
523.778	39423.57
523.98	40207.94
524.181	40502.85
524.383	40660.54
524.584	41068.09
524.786	41453.11
524.988	41328.18
525.189	41926.19
525.391	42591.78
525.592	42724.89
525.794	42966.56
525.995	43161.11
526.197	43466.26
526.398	43505.17
526.6	44109.32
526.801	44328.45
527.003	44439.04
527.204	44572.16
527.406	45227.51
527.607	45284.86
527.808	45835.76
528.01	45442.55
528.211	45909.49
528.412	46556.64
528.614	46255.59
528.815	46767.59
529.016	47267.29
529.218	47422.94
529.419	47521.24
529.62	47003.1
529.822	47693.27
530.023	47967.69
530.224	48180.68
530.425	48037.33
530.626	47771.09
530.828	47695.31
531.029	49024.45
531.23	48571.85
531.431	48586.18
531.632	49235.39
531.833	49495.48
532.035	49595.83
532.236	49038.78
532.437	49790.39
532.638	49307.07
532.839	50015.66
533.04	49911.22
533.241	49331.64
533.442	50576.81
533.643	50187.69
533.844	50214.32
534.045	49984.94
534.246	50023.86
534.447	50437.55
534.648	50267.56
534.849	50339.24
535.05	50400.68
535.251	50470.31
535.451	50666.92
535.652	51015.07
535.853	50924.96
536.054	50886.05
536.255	51074.46
536.456	50593.19
536.657	51785.11
536.857	50560.42
537.058	50613.67
537.259	51623.32
537.46	51291.55
537.66	51043.74
537.861	50986.4
538.062	51162.53
538.263	51355.04
538.463	51633.56
538.664	51482.01
538.865	51439
539.065	51770.77
539.266	51168.67
539.466	51430.81
539.667	50886.05
539.868	51824.02
540.068	51258.78
540.269	51365.27
540.469	51740.05
540.67	51387.8
540.87	51615.13
541.071	51248.54
541.271	51326.36
541.472	51164.57
541.672	51502.49
541.873	51150.24
542.073	51010.98
542.274	51848.6
542.474	51594.65
542.675	50724.26
542.875	51938.71
543.075	51527.06
543.276	50945.44
543.476	51783.06
543.676	51043.74
543.877	51551.64
544.077	51412.38
544.277	51490.2
544.478	51330.46
544.678	51559.83
544.878	51676.57
545.078	51172.77
545.279	51090.85
545.479	51142.05
545.679	51469.72
545.879	51176.86
546.079	51168.67
546.28	51244.44
546.48	50918.82
546.68	51408.28
546.88	51443.1
547.08	51801.49
547.28	51207.58
547.48	50963.87
547.68	51305.88
547.88	50965.92
548.081	51809.68
548.281	51314.08
548.481	51318.17
548.681	51883.41
548.881	51389.85
549.081	51586.46
549.28	51019.17
549.48	51649.94
549.68	51338.65
549.88	52223.37
550.08	51555.74
550.28	51361.18
550.48	50996.64
550.68	51543.45
550.88	50744.74
551.08	50867.62
551.279	51350.94
551.479	51244.44
551.679	51445.15
551.879	51541.4
552.079	51367.32
552.278	50732.45
552.478	51084.7
552.678	51191.2
552.878	51328.41
553.077	50869.67
553.277	50599.33
553.477	51572.12
553.676	50957.73
553.876	51004.83
554.076	50750.88
554.275	50765.22
554.475	50494.89
554.674	51039.65
554.874	50632.1
555.074	50632.1
555.273	50929.06
555.473	50750.88
555.672	50003.38
555.872	50218.41
556.071	50290.09
556.271	50638.25
556.47	50032.05
556.67	50126.25
556.869	49767.86
557.068	50175.41
557.268	49958.32
557.467	49507.77
557.667	49753.52
557.866	49415.61
558.065	49491.38
558.265	49472.95
558.464	48889.28
558.663	50126.25
558.863	49176
559.062	49661.36
559.261	48881.09
559.461	49155.52
559.66	48434.63
559.859	48692.68
560.058	48365
560.258	48285.13
560.457	48045.52
560.656	48661.96
560.855	48258.51
561.054	48655.81
561.253	47744.47
561.453	48086.48
561.652	47822.29
561.851	47848.91
562.05	47597.01
562.249	47115.74
562.448	47680.98
562.647	47062.49
562.846	47271.39
563.045	46679.52
563.244	46491.11
563.443	47021.53
563.642	46253.54
563.841	46603.75
564.04	46237.16
564.239	46368.23
564.438	45751.79
564.637	45997.55
564.836	45688.31
565.035	45338.1
565.234	45243.9
565.432	44948.99
565.631	45030.91
565.83	45080.06
566.029	44428.8
566.228	44250.63
566.427	44754.43
566.625	43949.58
566.824	43605.52
567.023	44252.68
567.222	43519.51
567.42	43646.48
567.619	43179.54
567.818	43214.36
568.016	43404.82
568.215	43771.41
568.414	42745.37
568.612	43001.37
568.811	42540.58
569.01	42651.17
569.208	41664.05
569.407	42348.07
569.605	41692.72
569.804	42139.18
570.002	41100.86
570.201	41862.7
570.4	41078.33
570.598	40955.45
570.797	40535.62
570.995	40889.91
571.193	40140.36
571.392	40631.87
571.59	40132.17
571.789	39904.84
571.987	39691.85
572.186	40058.44
572.384	39822.92
572.582	39472.72
572.781	39247.44
572.979	38809.18
573.177	39126.61
573.376	39077.46
573.574	38420.06
573.772	38772.32
573.971	38512.22
574.169	38233.7
574.367	38006.37
574.565	37785.19
574.763	37772.91
574.962	37668.46
575.16	37140.08
575.358	37607.02
575.556	36904.57
575.754	37375.6
575.952	36562.56
576.151	37101.17
576.349	36345.47
576.547	36568.7
576.745	36615.8
576.943	36036.23
577.141	36009.61
577.339	36423.29
577.537	35792.52
577.735	36048.52
577.933	35567.24
578.131	35745.42
578.329	35305.1
578.527	34915.99
578.725	35198.61
578.923	35116.69
579.121	34893.46
579.319	34332.32
579.516	34981.52
579.714	34573.98
579.912	34465.44
580.11	34631.32
580.308	34113.19
580.506	34023.08
580.704	33445.55
580.901	33949.35
581.099	33742.5
581.297	33664.68
581.495	33261.23
581.692	33650.35
581.89	33156.78
582.088	33572.52
582.285	32980.66
582.483	32847.54
582.681	32972.47
582.878	32724.66
583.076	32167.62
583.274	32966.32
583.471	32116.42
583.669	32048.83
583.866	32003.78
584.064	32267.97
584.262	31917.76
584.459	32196.29
584.657	31559.37
584.854	31647.43
585.052	30879.44
585.249	31737.54
585.447	31317.71
585.644	31162.06
585.841	31379.15
586.039	31520.46
586.236	30764.76
586.434	30727.89
586.631	30592.73
586.828	30570.2
587.026	30346.97
587.223	30562.01
587.42	30373.6
587.618	30127.84
587.815	30031.58
588.012	29695.72
588.21	29744.87
588.407	30328.54
588.604	29546.22
588.801	29593.32
588.999	29466.35
589.196	29761.25
589.393	29212.4
589.59	29040.37
589.787	29073.14
589.984	29196.01
590.182	28802.8
590.379	29161.2
590.576	28690.16
590.773	28782.32
590.97	28321.53
591.167	28481.27
591.364	28126.97
591.561	28280.57
591.758	28069.63
591.955	27748.1
592.152	28006.14
592.349	27864.83
592.546	27873.03
592.743	27551.49
592.94	27289.35
593.137	27522.82
593.334	27555.59
593.531	27148.04
593.727	27416.33
593.924	27332.36
594.121	27035.41
594.318	27494.15
594.515	26787.6
594.712	27203.34
594.908	26435.35
595.105	26511.13
595.302	26154.78
595.499	26433.3
595.696	26218.27
595.892	26218.27
596.089	26267.42
596.286	26087.2
596.482	26003.23
596.679	25972.51
596.876	26214.17
597.072	25726.75
597.269	25866.02
597.466	25501.48
597.662	25386.79
597.859	25753.38
598.055	25460.52
598.252	25532.2
598.448	25110.32
598.645	25466.66
598.841	24973.1
599.038	25325.35
599.234	24966.96
599.431	25028.4
599.627	24561.46
599.824	24655.67
600.02	24551.22
600.217	24776.5
600.413	24350.52
600.609	24375.09
600.806	24067.9
601.002	24256.31
601.198	24065.85
601.395	23916.35
601.591	23752.51
601.787	23775.04
601.984	24063.8
602.18	24065.85
602.376	23500.61
602.572	23433.03
602.769	23279.43
602.965	23347.01
603.161	23256.9
603.357	23347.01
603.553	23060.3
603.75	22951.76
603.946	22900.56
604.142	22892.37
604.338	22452.05
604.534	22929.23
604.73	22677.33
604.926	22779.73
605.122	22726.48
605.318	22427.48
605.514	22353.75
605.71	22318.93
605.906	22200.15
606.102	21997.4
606.298	22189.91
606.494	22134.62
606.69	21800.8
606.886	22200.15
607.082	21735.26
607.278	21907.29
607.474	21411.68
607.67	21385.06
607.866	21567.33
608.062	21659.49
608.257	21436.26
608.453	21253.99
608.649	21184.36
608.845	21012.33
609.041	20983.66
609.236	21231.46
609.432	21028.71
609.628	21028.71
609.824	20785.01
610.019	20748.14
610.215	20926.32
610.411	21118.82
610.606	20537.2
610.802	20381.56
610.998	20662.13
611.193	20909.93
611.389	20334.45
611.584	20549.49
611.78	20330.36
611.976	20338.55
612.171	20498.29
612.367	20326.26
612.562	20031.35
612.758	19718.01
612.953	19924.86
613.149	20187
613.344	19777.4
613.539	20187
613.735	20043.64
613.93	19789.69
614.126	19754.88
614.321	19842.94
614.517	19779.45
614.712	19787.64
614.907	19408.77
615.103	19783.55
615.298	19406.72
615.493	19543.94
615.688	19324.8
615.884	19640.19
616.079	19083.14
616.274	19289.99
616.47	19275.65
616.665	19142.53
616.86	19343.24
617.055	19251.08
617.25	18890.63
617.445	18978.7
617.641	18634.64
617.836	18829.2
618.031	18567.06
618.226	18849.68
618.421	18683.79
618.616	18630.54
618.811	18448.27
619.006	18651.02
619.201	18300.82
619.396	18239.38
619.591	18134.93
619.786	18294.68
619.981	18020.25
620.176	17891.23
620.371	17659.81
620.566	17868.7
620.761	17567.65
620.956	17600.41
621.151	17352.61
621.346	17688.48
621.541	17225.64
621.735	17584.03
621.93	17305.51
622.125	17207.2
622.32	16857
622.515	16990.12
622.709	16824.23
622.904	16910.25
623.099	16723.88
623.294	16717.74
623.488	16537.52
623.683	16492.46
623.878	16359.35
624.072	16412.59
624.267	16222.13
624.462	16070.58
624.656	16025.53
624.851	15896.5
625.046	15953.85
625.24	15919.03
625.435	15499.2
625.629	15720.38
625.824	15486.91
626.018	15515.58
626.213	15173.57
626.407	15349.7
626.602	15112.13
626.796	15275.97
626.991	15095.75
627.185	14915.53
627.38	14852.04
627.574	14811.08
627.768	14702.54
627.963	14718.92
628.157	14491.6
628.352	14688.2
628.546	14143.44
628.74	14170.07
628.935	14186.45
629.129	14333.9
629.323	14102.48
629.517	13983.7
629.712	13850.58
629.906	13991.89
630.1	14067.67
630.294	13787.1
630.489	13903.83
630.683	13842.39
630.877	13373.41
631.071	13514.72
631.265	13516.76
631.459	13203.43
631.653	13098.98
631.848	13154.27
632.042	13289.44
632.236	13168.61
632.43	13019.11
632.624	12832.74
632.818	12791.78
633.012	12789.74
633.206	12834.79
633.4	12789.74
633.594	12486.64
633.788	12732.39
633.982	12498.92
634.176	12425.2
634.369	12066.8
634.563	12277.74
634.757	12021.75
634.951	12290.03
635.145	12146.67
635.339	11886.58
635.533	11720.7
635.726	11884.53
635.92	11732.98
636.114	11790.33
636.308	11661.3
636.501	11712.5
636.695	11616.25
636.889	11407.36
637.083	11190.27
637.276	11335.68
637.47	11173.89
637.664	11087.87
637.857	11171.84
638.051	11177.98
638.244	11163.65
638.438	11001.86
638.632	10813.45
638.825	10766.34
639.019	10758.15
639.212	10518.54
639.406	10721.29
639.599	10684.42
639.793	10453
639.986	10258.45
640.18	10141.71
640.373	10348.56
640.567	10170.38
640.76	10293.26
640.954	10051.6
641.147	10133.52
641.34	10129.42
641.534	10090.51
641.727	9941.01
641.92	9834.52
642.114	9768.98
642.307	9728.02
642.5	9766.93
642.694	9500.7
642.887	9506.84
643.08	9519.13
643.273	9369.63
643.467	9426.97
643.66	9283.61
643.853	9232.41
644.046	9222.17
644.239	9236.51
644.432	9064.48
644.626	8960.03
644.819	9041.95
645.012	9138.21
645.205	9209.89
645.398	8904.74
645.591	8845.35
645.784	8644.65
645.977	8845.35
646.17	8755.24
646.363	8618.02
646.556	8661.03
646.749	8654.89
646.942	8769.57
647.135	8474.67
647.328	8585.26
647.521	8611.88
647.714	8452.14
647.907	8353.84
648.099	8253.48
648.292	8198.19
648.485	8075.31
648.678	7983.15
648.871	8042.54
649.064	8038.45
649.256	8077.36
649.449	7974.96
649.642	7929.91
649.835	7827.51
650.027	7727.16
650.22	7876.66
650.413	7755.83
650.605	7671.86
650.798	7542.84
650.991	7538.74
651.183	7632.95
651.376	7538.74
651.568	7727.16
651.761	7649.33
651.954	7663.67
652.146	7473.21
652.339	7551.03
652.531	7321.66
652.724	7217.21
652.916	7192.64
653.109	7329.85
653.301	7340.09
653.494	7166.01
653.686	7082.05
653.879	7041.09
654.071	7147.58
654.263	7080
654.456	7129.15
654.648	7034.94
654.84	6852.67
655.033	6918.21
655.225	6852.67
655.417	6959.17
655.61	6946.88
655.802	6764.61
655.994	6752.32
656.186	6629.45
656.379	6760.52
656.571	6674.5
656.763	6580.29
656.955	6621.25
657.148	6496.33
657.34	6449.22
657.532	6381.64
657.724	6574.15
657.916	6492.23
658.108	6529.1
658.3	6391.88
658.492	6385.74
658.684	6463.56
658.876	6338.63
659.068	6215.76
659.26	6299.72
659.452	6209.61
659.644	6215.76
659.836	6273.1
660.028	6385.74
660.22	6051.92
660.412	6076.49
660.604	6096.97
660.796	6115.41
660.988	6045.77
661.18	5920.85
661.372	5818.45
661.563	5961.81
661.755	5830.74
661.947	5951.57
662.139	5939.28
662.331	5718.1
662.522	5779.54
662.714	5834.83
662.906	5802.07
663.097	5777.49
663.289	5658.71
663.481	5732.44
663.673	5787.73
663.864	5666.9
664.056	5685.33
664.247	5582.93
664.439	5605.46
664.631	5632.08
664.822	5668.95
665.014	5613.65
665.205	5584.98
665.397	5544.02
665.588	5486.68
665.78	5433.43
665.971	5482.58
666.163	5466.2
666.354	5480.54
666.546	5490.77
666.737	5419.1
666.929	5437.53
667.12	5337.18
667.311	5533.78
667.503	5378.14
667.694	5367.9
667.885	5322.84
668.077	5351.51
668.268	5269.59
668.459	5406.81
668.651	5320.79
668.842	5359.7
669.033	5136.48
669.224	5310.55
669.416	5349.47
669.607	5156.96
669.798	5253.21
669.989	5308.51
670.18	5050.46
670.371	5087.33
670.563	5124.19
670.754	5365.85
670.945	5251.16
671.136	5326.94
671.327	5177.44
671.518	5093.47
671.709	5148.76
671.9	5279.83
672.091	5230.68
672.282	5132.38
672.473	5290.07
672.664	5085.28
672.855	5124.19
673.046	5296.22
673.237	5333.08
673.428	5189.72
673.619	5191.77
673.809	5171.29
674	5136.48
674.191	5347.42
674.382	5079.13
674.573	5142.62
674.764	5238.87
674.954	5226.59
675.145	4946.02
675.336	5128.28
675.527	5222.49
675.717	5230.68
675.908	5167.2
676.099	5339.23
676.289	5109.85
676.48	5191.77
676.671	5148.76
676.861	5281.88
677.052	5159
677.243	5154.91
677.433	5193.82
677.624	5322.84
677.814	5349.47
678.005	5320.79
678.195	5347.42
678.386	5498.97
678.576	5271.64
678.767	5298.27
678.957	5288.03
679.148	5425.24
679.338	5394.52
679.529	5443.67
679.719	5281.88
679.909	5306.46
680.1	5320.79
680.29	5517.4
680.481	5449.82
680.671	5484.63
680.861	5402.71
681.052	5484.63
681.242	5453.91
681.432	5591.13
681.622	5347.42
681.813	5523.54
682.003	5564.5
682.193	5462.1
682.383	5550.17
682.573	5564.5
682.764	5505.11
682.954	5716.05
683.144	5632.08
683.334	5617.75
683.524	5521.49
683.714	5505.11
683.904	5437.53
684.094	5781.59
684.284	5408.86
684.474	5791.83
684.664	5695.57
684.854	5623.89
685.044	5537.88
685.234	5564.5
685.424	5630.04
685.614	5632.08
685.804	5636.18
685.994	5599.32
686.184	5525.59
686.374	5460.06
686.564	5609.56
686.753	5449.82
686.943	5462.1
687.133	5566.55
687.323	5472.34
687.513	5369.94
687.702	5435.48
687.892	5486.68
688.082	5468.25
688.272	5273.69
688.461	5433.43
688.651	5412.95
688.841	5328.99
689.03	5245.02
689.22	5415
689.41	5267.55
689.599	5328.99
689.789	5337.18
689.979	5169.24
690.168	5197.92
690.358	4974.69
690.547	5105.76
690.737	5159
690.926	5177.44
691.116	5105.76
691.305	5245.02
691.495	5083.23
691.684	5032.03
691.874	4886.62
692.063	5181.53
692.252	5183.58
692.442	5173.34
692.631	4939.87
692.82	4870.24
693.01	4884.58
693.199	4976.73
693.388	4829.28
693.578	4950.11
693.767	4833.38
693.956	4941.92
694.146	4825.19
694.335	4870.24
694.524	4921.44
694.713	4929.63
694.902	5017.69
695.092	4839.52
695.281	4845.66
695.47	4876.38
695.659	4690.02
695.848	4843.62
696.037	4866.14
696.226	4952.16
696.415	4724.83
696.604	4931.68
696.793	4929.63
696.982	4876.38
697.171	5058.65
697.36	4984.93
697.549	4948.06
697.738	4857.95
697.927	4905.06
698.116	4827.23
698.305	4890.72
698.494	4878.43
698.683	5072.99
698.872	5075.04
699.061	4960.35
699.25	4759.65
699.438	5003.36
699.627	5019.74
699.816	4943.97
700.005	4905.06
700.193	4986.97
700.382	4964.45
700.571	4943.97
700.76	4905.06
700.948	5107.8
701.137	5093.47
701.326	5003.36
701.514	5042.27
701.703	5081.18
701.892	5154.91
702.08	5093.47
702.269	5150.81
702.457	4995.17
702.646	5056.61
702.834	5034.08
703.023	5038.17
703.212	5066.85
703.4	5175.39
703.589	5105.76
703.777	5312.6
703.965	5236.83
704.154	5306.46
704.342	5183.58
704.531	5308.51
704.719	5130.33
704.907	5267.55
705.096	5187.68
705.284	5247.07
705.472	5298.27
705.661	5298.27
705.849	5257.31
706.037	5376.09
706.226	5288.03
706.414	5302.36
706.602	5187.68
706.79	5312.6
706.979	5367.9
707.167	5361.75
707.355	5296.22
707.543	5374.04
707.731	5363.8
707.919	5355.61
708.107	5281.88
708.296	5148.76
708.484	5326.94
708.672	5347.42
708.86	5306.46
709.048	5335.13
709.236	5472.34
709.424	5593.17
709.612	5451.86
709.8	5460.06
709.988	5580.89
710.176	5556.31
710.364	5558.36
710.551	5498.97
710.739	5527.64
710.927	5486.68
711.115	5453.91
711.303	5548.12
711.491	5591.13
711.679	5539.93
711.866	5437.53
712.054	5574.74
712.242	5513.3
712.43	5754.96
712.617	5347.42
712.805	5681.24
712.993	5740.63
713.181	5630.04
713.368	5599.32
713.556	5718.1
713.744	5752.91
713.931	5830.74
714.119	5484.63
714.306	5806.16
714.494	5802.07
714.682	5777.49
714.869	5662.8
715.057	5871.7
715.244	5810.26
715.432	5822.55
715.619	5666.9
715.807	5924.94
715.994	5859.41
716.182	5648.47
716.369	5849.17
716.556	5853.27
716.744	5775.44
716.931	5826.64
717.119	5859.41
717.306	5935.18
717.493	5963.86
717.681	5855.31
717.868	5949.52
718.055	5904.46
718.242	5849.17
718.43	5943.38
718.617	5918.8
718.804	5961.81
718.991	6080.59
719.179	6139.98
719.366	5949.52
719.553	6113.36
719.74	5869.65
719.927	5888.08
720.114	5920.85
720.301	5953.62
720.488	5810.26
720.676	6070.35
720.863	6072.4
721.05	6060.11
721.237	5920.85
721.424	6125.65
721.611	5947.47
721.798	5939.28
721.985	6043.73
722.172	6013.01
722.358	6039.63
722.545	6230.09
722.732	6094.93
722.919	6135.89
723.106	6101.07
723.293	6191.18
723.48	6144.08
723.667	6002.77
723.853	5853.27
724.04	6207.56
724.227	6053.97
724.414	6174.8
724.6	6064.21
724.787	6072.4
724.974	6178.89
725.161	6127.69
725.347	5959.76
725.534	5912.66
725.72	6109.26
725.907	6152.27
726.094	6182.99
726.28	6105.17
726.467	6068.3
726.653	6115.41
726.84	6084.69
727.027	6244.43
727.213	6146.12
727.4	6119.5
727.586	6101.07
727.773	6045.77
727.959	6260.81
728.145	6105.17
728.332	6230.09
728.518	6213.71
728.705	6119.5
728.891	6289.48
729.077	6213.71
729.264	6125.65
729.45	6090.83
729.636	6236.24
729.823	6178.89
730.009	6078.54
730.195	6092.88
730.382	6000.72
730.568	6230.09
730.754	6146.12
730.94	6137.93
731.126	6211.66
731.313	6137.93
731.499	6256.72
731.685	6197.32
731.871	6121.55
732.057	6176.84
732.243	6082.64
732.429	6269
732.615	6228.04
732.801	6146.12
732.987	6207.56
733.173	6092.88
733.359	6197.32
733.545	6096.97
733.731	6109.26
733.917	6258.76
734.103	6139.98
734.289	6254.67
734.475	6166.6
734.661	6133.84
734.847	6101.07
735.033	6086.73
735.219	6213.71
735.404	6105.17
735.59	6082.64
735.776	5937.23
735.962	6133.84
736.148	6144.08
736.333	6066.25
736.519	5957.71
736.705	6064.21
736.89	5947.47
737.076	6015.05
737.262	6010.96
737.447	5982.29
737.633	6096.97
737.819	6092.88
738.004	6008.91
738.19	5955.66
738.375	5947.47
738.561	5970
738.747	5900.37
738.932	5781.59
739.118	5877.84
739.303	5859.41
739.489	5939.28
739.674	5990.48
739.859	5671
740.045	5855.31
740.23	5767.25
740.416	5742.68
740.601	5818.45
740.786	5584.98
740.972	5613.65
741.157	5750.87
741.342	5732.44
741.528	5711.96
741.713	5664.85
741.898	5802.07
742.084	5703.76
742.269	5558.36
742.454	5541.97
742.639	5556.31
742.824	5423.19
743.01	5507.16
743.195	5699.67
743.38	5398.62
743.565	5408.86
743.75	5679.19
743.935	5468.25
744.12	5566.55
744.305	5345.37
744.49	5371.99
744.675	5279.83
744.86	5404.76
745.045	5224.54
745.23	5202.01
745.415	5261.4
745.6	5263.45
745.785	5130.33
745.97	5232.73
746.155	5138.52
746.34	5136.48
746.525	5113.95
746.71	5091.42
746.895	4911.2
747.079	5015.65
747.264	4769.89
747.449	4673.64
747.634	5005.41
747.819	4950.11
748.003	4743.27
748.188	4718.69
748.373	4788.32
748.557	4692.07
748.742	4657.25
748.927	4587.62
749.111	4671.59
749.296	4636.77
749.481	4591.72
749.665	4634.72
749.85	4563.05
750.034	4561
750.219	4575.33
750.404	4411.5
750.588	4429.93
750.773	4386.92
750.957	4280.43
751.141	4270.19
751.326	4231.27
751.51	4288.62
751.695	4227.18
751.879	4141.16
752.064	4151.4
752.248	4141.16
752.432	4034.67
752.617	4110.44
752.801	4067.44
752.985	3852.4
753.17	3997.81
753.354	3985.52
753.538	3971.18
753.722	3770.48
753.907	3889.26
754.091	3721.33
754.275	3840.11
754.459	3768.43
754.643	3682.42
754.828	3762.29
755.012	3643.51
755.196	3588.21
755.38	3516.53
755.564	3647.6
755.748	3590.26
755.932	3663.99
756.116	3643.51
756.3	3510.39
756.484	3551.35
756.668	3487.86
756.852	3354.74
757.036	3403.89
757.22	3281.02
757.404	3258.49
757.588	3244.15
757.772	3405.94
757.956	3205.24
758.14	3217.53
758.323	3160.19
758.507	3203.19
758.691	3082.36
758.875	3199.1
759.059	2963.58
759.242	3170.43
759.426	3084.41
759.61	3080.32
759.794	2963.58
759.977	2996.35
760.161	3096.7
760.345	3008.64
760.528	2996.35
760.712	3061.88
760.895	3006.59
761.079	2965.63
761.263	2939.01
761.446	2928.77
761.63	2881.66
761.813	2887.81
761.997	2885.76
762.18	2789.5
762.364	2781.31
762.547	2771.07
762.731	2807.94
762.914	2715.78
763.098	2742.4
763.281	2676.87
763.464	2560.13
763.648	2668.67
763.831	2607.23
764.015	2508.93
764.198	2529.41
764.381	2660.48
764.564	2580.61
764.748	2580.61
764.931	2623.62
765.114	2603.14
765.297	2623.62
765.481	2484.36
765.664	2594.95
765.847	2506.88
766.03	2521.22
766.213	2467.97
766.397	2431.11
766.58	2463.88
766.763	2457.73
766.946	2465.93
767.129	2279.56
767.312	2371.72
767.495	2300.04
767.678	2484.36
767.861	2345.09
768.044	2390.15
768.227	2408.58
768.41	2136.2
768.593	2422.92
768.776	2386.05
768.959	2236.55
769.142	2312.33
769.324	2295.94
769.507	2136.2
769.69	2123.91
769.873	2234.5
770.056	2345.09
770.239	2197.64
770.421	2160.78
770.604	2185.35
770.787	2111.63
770.97	2205.83
771.152	2119.82
771.335	2150.54
771.518	2029.71
771.7	2142.35
771.883	2113.67
772.066	2072.72
772.248	2064.52
772.431	1982.6
772.613	1990.8
772.796	2048.14
772.978	1976.46
773.161	1980.56
773.343	2003.08
773.526	1861.77
773.708	1980.56
773.891	1925.26
774.073	1820.81
774.256	1898.64
774.438	2001.04
774.621	1816.72
774.803	1863.82
774.985	1841.29
775.168	1923.21
775.35	1714.32
775.532	1783.95
775.715	1740.94
775.897	1814.67
776.079	1718.42
776.261	1730.7
776.444	1702.03
776.626	1718.42
776.808	1667.22
776.99	1665.17
777.173	1730.7
777.355	1714.32
777.537	1714.32
777.719	1697.94
777.901	1616.02
778.083	1652.88
778.265	1683.6
778.447	1636.5
778.629	1495.19
778.811	1513.62
778.993	1503.38
779.175	1579.15
779.357	1468.56
779.539	1415.32
779.721	1476.76
779.903	1489.04
780.085	1443.99
780.267	1390.74
780.449	1382.55
780.631	1525.91
780.812	1364.12
780.994	1482.9
781.176	1370.26
781.358	1425.56
781.54	1329.3
781.721	1345.69
781.903	1290.39
782.085	1292.44
782.267	1323.16
782.448	1228.95
782.63	1308.82
782.812	1325.21
782.993	1292.44
783.175	1216.66
783.357	1263.77
783.538	1271.96
783.72	1140.89
783.901	1200.28
784.083	1218.71
784.264	1224.86
784.446	1112.22
784.627	1077.4
784.809	1132.7
784.99	1124.51
785.172	1144.99
785.353	1028.25
785.535	1173.66
785.716	1067.16
785.897	1104.03
786.079	1091.74
786.26	1069.21
786.441	1020.06
786.623	1054.87
786.804	977.05
786.985	1101.98
787.167	1032.35
787.348	1063.07
787.529	1067.16
787.71	1044.63
787.891	1058.97
788.073	966.81
788.254	891.04
788.435	985.24
788.616	954.52
788.797	907.42
788.978	964.76
789.159	909.47
789.34	970.91
789.522	927.9
789.703	870.56
789.884	891.04
790.065	868.51
790.246	964.76
790.427	938.14
790.607	997.53
790.788	848.03
790.969	878.75
791.15	852.13
791.331	733.34
791.512	796.83
791.693	788.64
791.874	854.17
792.054	936.09
792.235	845.98
792.416	833.69
792.597	757.92
792.778	876.7
792.958	854.17
793.139	714.91
793.32	821.41
793.5	784.54
793.681	792.73
793.862	745.63
794.042	729.25
794.223	770.21
794.404	702.62
794.584	632.99
794.765	651.42
794.945	757.92
795.126	766.11
795.306	764.06
795.487	710.82
795.667	743.58
795.848	770.21
796.028	753.82
796.209	702.62
796.389	706.72
796.57	669.86
796.75	751.78
796.93	653.47
797.111	690.34
797.291	661.66
797.471	653.47
797.652	622.75
797.832	645.28
798.012	639.14
798.192	624.8
798.373	557.22
798.553	571.55
798.733	710.82
798.913	598.18
799.093	567.46
799.274	567.46
799.454	637.09
799.634	569.51
799.814	657.57
799.994	661.66
800.174	614.56
800.354	606.37
800.534	559.27
800.714	592.03
800.894	600.23
801.074	587.94
801.254	612.51
801.434	661.66
801.614	612.51
801.794	542.88
801.974	1216.66
802.154	506.02
802.334	657.57
802.514	514.21
802.693	477.35
802.873	626.85
803.053	546.98
803.233	522.4
803.413	510.11
803.592	600.23
803.772	514.21
803.952	458.92
804.131	475.3
804.311	536.74
804.491	604.32
804.67	600.23
804.85	481.44
805.03	514.21
805.209	497.83
805.389	495.78
805.568	426.15
805.748	463.01
805.928	493.73
806.107	522.4
806.287	522.4
806.466	473.25
806.646	469.16
806.825	399.52
807.004	510.11
807.184	497.83
807.363	489.64
807.543	438.44
807.722	493.73
807.901	495.78
808.081	489.64
808.26	422.05
808.439	426.15
808.619	485.54
808.798	422.05
808.977	448.68
809.156	428.2
809.336	442.53
809.515	518.31
809.694	393.38
809.873	495.78
810.052	370.85
810.231	487.59
810.411	471.2
810.59	389.28
810.769	428.2
810.948	495.78
811.127	317.61
811.306	393.38
811.485	407.72
811.664	458.92
811.843	415.91
812.022	356.52
812.201	325.8
812.38	381.09
812.559	399.52
812.737	348.33
812.916	405.67
813.095	333.99
813.274	403.62
813.453	381.09
813.632	374.95
813.811	325.8
813.989	290.98
814.168	377
814.347	290.98
814.526	354.47
814.704	391.33
814.883	346.28
815.062	272.55
815.24	430.24
815.419	366.76
815.598	346.28
815.776	307.37
815.955	403.62
816.133	315.56
816.312	360.61
816.49	272.55
816.669	319.65
816.847	481.44
817.026	315.56
817.204	305.32
817.383	256.17
817.561	313.51
817.74	286.89
817.918	331.94
818.097	370.85
818.275	317.61
818.453	391.33
818.632	407.72
818.81	327.85
818.988	272.55
819.167	333.99
819.345	317.61
819.523	260.26
819.701	293.03
819.879	342.18
820.058	338.09
820.236	323.75
820.414	313.51
820.592	293.03
820.77	268.45
820.948	321.7
821.127	198.82
821.305	305.32
821.483	284.84
821.661	313.51
821.839	229.54
822.017	325.8
822.195	211.11
822.373	342.18
822.551	231.59
822.729	274.6
822.907	227.5
823.085	338.09
823.262	254.12
823.44	258.21
823.618	284.84
823.796	313.51
823.974	223.4
824.152	247.97
824.329	223.4
824.507	239.78
824.685	284.84
824.863	270.5
825.04	254.12
825.218	293.03
825.396	272.55
825.574	260.26
825.751	268.45
825.929	237.74
826.107	252.07
826.284	293.03
826.462	186.54
826.639	284.84
826.817	170.15
826.994	188.58
827.172	204.97
827.349	284.84
827.527	266.41
827.704	237.74
827.882	278.69
828.059	250.02
828.237	219.3
828.414	198.82
828.591	127.14
828.769	252.07
828.946	170.15
829.124	229.54
829.301	262.31
829.478	237.74
829.655	284.84
829.833	141.48
830.01	227.5
830.187	200.87
830.364	221.35
830.542	227.5
830.719	258.21
830.896	178.34
831.073	190.63
831.25	231.59
831.427	227.5
831.604	217.26
831.782	247.97
831.959	202.92
832.136	219.3
832.313	209.06
832.49	161.96
832.667	131.24
832.844	161.96
833.021	250.02
833.198	307.37
833.374	139.43
833.551	161.96
833.728	184.49
833.905	219.3
834.082	192.68
834.259	243.88
834.436	233.64
834.612	161.96
834.789	170.15
834.966	164.01
835.143	164.01
835.319	153.77
835.496	209.06
835.673	176.3
835.85	164.01
836.026	80.04
836.203	168.1
836.38	180.39
836.556	184.49
836.733	164.01
836.909	174.25
837.086	127.14
837.262	157.86
837.439	207.02
837.616	184.49
837.792	129.19
837.968	241.83
838.145	121
838.321	67.75
838.498	200.87
838.674	166.06
838.851	161.96
839.027	170.15
839.203	153.77
839.38	139.43
839.556	137.38
839.732	135.34
839.909	100.52
840.085	110.76
840.261	123.05
840.437	219.3
840.614	121
840.79	186.54
840.966	202.92
841.142	90.28
841.318	137.38
841.494	241.83
841.671	125.1
841.847	149.67
842.023	116.9
842.199	98.47
842.375	118.95
842.551	125.1
842.727	108.71
842.903	149.67
843.079	157.86
843.255	170.15
843.431	170.15
843.607	192.68
843.783	108.71
843.959	161.96
844.134	135.34
844.31	116.9
844.486	100.52
844.662	67.75
844.838	94.38
845.013	157.86
845.189	108.71
845.365	51.37
845.541	88.23
845.716	239.78
845.892	137.38
846.068	104.62
846.244	118.95
846.419	168.1
846.595	159.91
846.77	84.14
846.946	186.54
847.122	110.76
847.297	47.27
847.473	170.15
847.648	94.38
847.824	153.77
847.999	71.85
848.175	59.56
848.35	166.06
848.526	55.47
848.701	135.34
848.876	137.38
849.052	80.04
849.227	110.76
849.403	28.84
849.578	106.67
849.753	28.84
849.929	176.3
850.104	112.81
850.279	112.81
850.454	71.85
850.63	157.86
850.805	34.99
850.98	92.33
851.155	118.95
851.33	151.72
851.505	0.17
851.681	125.1
851.856	61.61
852.031	114.86
852.206	84.14
852.381	43.18
852.556	180.39
852.731	84.14
852.906	118.95
853.081	127.14
853.256	90.28
853.431	118.95
853.606	82.09
853.781	53.42
853.956	-26.45
854.131	104.62
854.305	69.8
854.48	-3.93
854.655	-44.88
854.83	141.48
855.005	151.72
855.18	77.99
855.354	63.66
855.529	164.01
855.704	86.19
855.879	47.27
856.053	88.23
856.228	88.23
856.403	-18.26
856.577	166.06
856.752	94.38
856.926	84.14
857.101	30.89
857.276	125.1
857.45	141.48
857.625	116.9
857.799	92.33
857.974	59.56
858.148	26.79
858.323	92.33
858.497	92.33
858.672	135.34
858.846	43.18
859.02	90.28
859.195	0.17
859.369	102.57
859.543	51.37
859.718	49.32
859.892	61.61
860.066	200.87
860.241	100.52
860.415	6.31
860.589	28.84
860.763	39.08
860.938	-10.07
861.112	180.39
861.286	39.08
861.46	127.14
861.634	80.04
861.808	88.23
861.982	18.6
862.157	22.7
862.331	-24.4
862.505	-53.08
862.679	39.08
862.853	49.32
863.027	-5.97
863.201	166.06
863.375	14.51
863.549	108.71
863.722	71.85
863.896	106.67
864.07	92.33
864.244	61.61
864.418	106.67
864.592	88.23
864.766	6.31
864.939	57.51
865.113	43.18
865.287	30.89
865.461	6.31
865.634	80.04
865.808	-10.07
865.982	121
866.156	-18.26
866.329	41.13
866.503	24.75
866.676	90.28
866.85	22.7
867.024	51.37
867.197	129.19
867.371	125.1
867.544	0.17
867.718	61.61
867.891	37.03
868.065	16.55
868.238	47.27
868.412	51.37
868.585	12.46
868.759	80.04
868.932	37.03
869.105	34.99
869.279	51.37
869.452	20.65
869.625	114.86
869.799	61.61
869.972	8.36
870.145	86.19
870.319	145.58
870.492	49.32
870.665	30.89
870.838	135.34
871.011	-1.88
871.185	47.27
871.358	20.65
871.531	34.99
871.704	47.27
871.877	34.99
872.05	51.37
872.223	112.81
872.396	77.99
872.569	110.76
872.742	-42.84
872.915	55.47
873.088	67.75
873.261	30.89
873.434	137.38
873.607	45.23
873.78	94.38
873.953	-18.26
874.126	39.08
874.299	71.85
874.471	43.18
874.644	41.13
874.817	-18.26
874.99	75.95
875.163	-22.36
875.335	92.33
875.508	20.65
875.681	61.61
875.853	6.31
876.026	-18.26
876.199	-10.07
876.371	63.66
876.544	65.71
876.717	14.51
876.889	20.65
877.062	-1.88
877.234	16.55
877.407	-10.07
877.579	26.79
877.752	94.38
877.924	80.04
878.097	37.03
878.269	80.04
878.442	59.56
878.614	37.03
878.786	77.99
878.959	77.99
879.131	67.75
879.303	30.89
879.476	53.42
879.648	51.37
879.82	88.23
879.993	-1.88
880.165	45.23
880.337	-83.8
880.509	47.27
880.681	-1.88
880.854	-8.02
881.026	-14.17
881.198	90.28
881.37	22.7
881.542	28.84
881.714	49.32
881.886	37.03
882.058	18.6
882.23	75.95
882.402	94.38
882.574	51.37
882.746	153.77
882.918	186.54
883.09	43.18
883.262	57.51
883.434	26.79
883.606	4.27
883.778	22.7
883.95	47.27
884.122	22.7
884.293	43.18
884.465	55.47
884.637	28.84
884.809	98.47
884.98	90.28
885.152	12.46
885.324	90.28
885.496	-22.36
885.667	47.27
885.839	45.23
886.011	135.34
886.182	22.7
886.354	26.79
886.525	26.79
886.697	45.23
886.869	28.84
887.04	-3.93
887.212	86.19
887.383	108.71
887.555	-14.17
887.726	16.55
887.897	-1.88
888.069	55.47
888.24	67.75
888.412	43.18
888.583	69.8
888.754	32.94
888.926	-34.64
889.097	26.79
889.268	-42.84
889.44	18.6
889.611	-14.17
889.782	61.61
889.953	-51.03
890.125	118.95
890.296	10.41
890.467	34.99
890.638	34.99
890.809	63.66
890.98	-20.31
891.151	-8.02
891.323	-22.36
891.494	20.65
891.665	18.6
891.836	37.03
892.007	6.31
892.178	86.19
892.349	2.22
892.52	45.23
892.691	-8.02
892.862	-14.17
893.032	16.55
893.203	45.23
893.374	-3.93
893.545	-10.07
893.716	4.27
893.887	12.46
894.057	24.75
894.228	43.18
894.399	-12.12
894.57	61.61
894.74	8.36
894.911	53.42
895.082	-3.93
895.253	77.99
895.423	47.27
895.594	96.43
895.764	94.38
895.935	2.22
896.106	18.6
896.276	6.31
896.447	84.14
896.617	-42.84
896.788	-12.12
896.958	-1.88
897.129	-28.5
897.299	22.7
897.47	51.37
897.64	32.94
897.81	22.7
897.981	-32.6
898.151	-5.97
898.322	4.27
898.492	10.41
898.662	-18.26
898.832	-28.5
899.003	-24.4
899.173	118.95
899.343	-22.36
899.513	47.27
