Data from USB4F104151__49__11-30-31-262.txt Node

Date: Fri Mar 14 11:30:31 EDT 2025
User: louis
Spectrometer: USB4F10415
Trigger mode: 4
Integration Time (sec): 5.000000E-2
Scans to average: 1
Electric dark correction enabled: true
Nonlinearity correction enabled: false
Boxcar width: 0
XAxis mode: Wavelengths
Number of Pixels in Spectrum: 3648
>>>>>Begin Spectral Data<<<<<
178.204	-217.77
178.424	-217.77
178.644	-217.77
178.864	-176.81
179.084	-96.94
179.304	52.56
179.524	15.7
179.744	-12.97
179.964	40.28
180.184	50.52
180.404	-17.07
180.624	1.37
180.844	-43.69
181.064	-29.35
181.283	-47.79
181.503	-31.4
181.723	21.85
181.943	-47.79
182.163	-17.07
182.383	-8.87
182.602	19.8
182.822	40.28
183.042	38.23
183.262	-53.93
183.482	-15.02
183.701	13.65
183.921	-8.87
184.141	23.89
184.361	1.37
184.58	60.76
184.8	54.61
185.02	3.41
185.239	44.37
185.459	-39.59
185.679	-8.87
185.898	-12.97
186.118	-0.68
186.338	3.41
186.557	-39.59
186.777	-23.21
186.997	15.7
187.216	-10.92
187.436	105.81
187.655	52.56
187.875	97.62
188.095	7.51
188.314	109.91
188.534	19.8
188.753	-19.11
188.973	-29.35
189.192	81.24
189.412	83.28
189.631	-29.35
189.851	40.28
190.07	15.7
190.29	-60.07
190.509	-4.78
190.729	-23.21
190.948	27.99
191.168	130.39
191.387	81.24
191.607	19.8
191.826	-70.31
192.045	-21.16
192.265	27.99
192.484	44.37
192.704	60.76
192.923	-45.74
193.142	85.33
193.362	34.13
193.581	101.72
193.8	3.41
194.02	-6.83
194.239	66.9
194.458	62.8
194.678	-33.45
194.897	19.8
195.116	34.13
195.335	11.61
195.555	126.29
195.774	-37.55
195.993	-15.02
196.212	3.41
196.432	-4.78
196.651	44.37
196.87	17.75
197.089	126.29
197.308	97.62
197.528	-31.4
197.747	-6.83
197.966	75.09
198.185	25.94
198.404	-25.26
198.623	89.43
198.842	-4.78
199.062	60.76
199.281	85.33
199.5	25.94
199.719	38.23
199.938	30.04
200.157	81.24
200.376	-23.21
200.595	56.66
200.814	17.75
201.033	-33.45
201.252	42.32
201.471	-31.4
201.69	38.23
201.909	15.7
202.128	23.89
202.347	52.56
202.566	17.75
202.785	-47.79
203.004	-39.59
203.223	83.28
203.442	58.71
203.661	50.52
203.879	75.09
204.098	50.52
204.317	-62.12
204.536	44.37
204.755	-15.02
204.974	-21.16
205.193	19.8
205.411	97.62
205.63	25.94
205.849	1.37
206.068	-4.78
206.287	3.41
206.505	81.24
206.724	3.41
206.943	21.85
207.162	-12.97
207.381	89.43
207.599	9.56
207.818	-37.55
208.037	-19.11
208.255	11.61
208.474	-47.79
208.693	-12.97
208.911	30.04
209.13	-0.68
209.349	34.13
209.567	3.41
209.786	138.58
210.005	34.13
210.223	36.18
210.442	25.94
210.661	27.99
210.879	42.32
211.098	34.13
211.316	23.89
211.535	-23.21
211.753	11.61
211.972	60.76
212.191	13.65
212.409	3.41
212.628	19.8
212.846	-29.35
213.065	-23.21
213.283	60.76
213.502	-25.26
213.72	11.61
213.938	25.94
214.157	60.76
214.375	-25.26
214.594	42.32
214.812	60.76
215.031	-55.98
215.249	-39.59
215.467	-8.87
215.686	48.47
215.904	44.37
216.122	-23.21
216.341	-8.87
216.559	11.61
216.778	44.37
216.996	91.48
217.214	9.56
217.432	52.56
217.651	3.41
217.869	-45.74
218.087	30.04
218.306	11.61
218.524	17.75
218.742	-31.4
218.96	64.85
219.179	7.51
219.397	-35.5
219.615	60.76
219.833	1.37
220.051	27.99
220.27	50.52
220.488	52.56
220.706	-49.83
220.924	52.56
221.142	-23.21
221.36	9.56
221.578	-8.87
221.796	-4.78
222.015	62.8
222.233	36.18
222.451	85.33
222.669	1.37
222.887	85.33
223.105	3.41
223.323	36.18
223.541	19.8
223.759	25.94
223.977	19.8
224.195	120.15
224.413	13.65
224.631	48.47
224.849	36.18
225.067	58.71
225.285	-15.02
225.503	99.67
225.721	-0.68
225.939	-4.78
226.157	36.18
226.375	116.05
226.592	11.61
226.81	-37.55
227.028	68.95
227.246	25.94
227.464	25.94
227.682	73.04
227.9	-31.4
228.117	95.57
228.335	77.14
228.553	38.23
228.771	34.13
228.989	-53.93
229.206	-4.78
229.424	-66.22
229.642	23.89
229.86	9.56
230.077	3.41
230.295	11.61
230.513	77.14
230.731	38.23
230.948	85.33
231.166	23.89
231.384	-23.21
231.601	-27.31
231.819	-29.35
232.037	-41.64
232.254	-31.4
232.472	15.7
232.689	27.99
232.907	58.71
233.125	-37.55
233.342	1.37
233.56	60.76
233.777	15.7
233.995	3.41
234.213	81.24
234.43	15.7
234.648	3.41
234.865	52.56
235.083	19.8
235.3	42.32
235.518	66.9
235.735	68.95
235.953	3.41
236.17	116.05
236.388	81.24
236.605	-21.16
236.822	75.09
237.04	38.23
237.257	52.56
237.475	-21.16
237.692	17.75
237.909	23.89
238.127	-15.02
238.344	40.28
238.562	107.86
238.779	-2.73
238.996	-47.79
239.214	21.85
239.431	73.04
239.648	-62.12
239.865	23.89
240.083	114
240.3	-33.45
240.517	-33.45
240.735	9.56
240.952	40.28
241.169	27.99
241.386	-49.83
241.603	-8.87
241.821	-29.35
242.038	77.14
242.255	17.75
242.472	-17.07
242.689	27.99
242.907	85.33
243.124	9.56
243.341	3.41
243.558	25.94
243.775	-62.12
243.992	-2.73
244.209	25.94
244.426	114
244.643	36.18
244.86	7.51
245.078	-17.07
245.295	-12.97
245.512	-4.78
245.729	-39.59
245.946	1.37
246.163	52.56
246.38	-12.97
246.597	32.08
246.814	44.37
247.031	-70.31
247.248	34.13
247.464	-21.16
247.681	19.8
247.898	17.75
248.115	25.94
248.332	19.8
248.549	95.57
248.766	114
248.983	23.89
249.2	-21.16
249.417	73.04
249.633	-15.02
249.85	19.8
250.067	-6.83
250.284	36.18
250.501	66.9
250.717	-33.45
250.934	-29.35
251.151	42.32
251.368	97.62
251.585	122.2
251.801	54.61
252.018	3.41
252.235	-25.26
252.451	-31.4
252.668	52.56
252.885	161.11
253.102	-6.83
253.318	-23.21
253.535	19.8
253.752	38.23
253.968	-45.74
254.185	-21.16
254.401	3.41
254.618	21.85
254.835	9.56
255.051	75.09
255.268	68.95
255.484	23.89
255.701	99.67
255.917	120.15
256.134	-4.78
256.351	1.37
256.567	-37.55
256.784	-25.26
257	-64.17
257.217	44.37
257.433	3.41
257.65	17.75
257.866	19.8
258.082	-8.87
258.299	-62.12
258.515	101.72
258.732	-60.07
258.948	25.94
259.165	27.99
259.381	-12.97
259.597	-47.79
259.814	13.65
260.03	-12.97
260.246	56.66
260.463	-0.68
260.679	66.9
260.895	83.28
261.112	-2.73
261.328	-12.97
261.544	17.75
261.761	32.08
261.977	-6.83
262.193	-47.79
262.409	83.28
262.626	32.08
262.842	25.94
263.058	-37.55
263.274	46.42
263.49	40.28
263.707	50.52
263.923	77.14
264.139	-37.55
264.355	15.7
264.571	9.56
264.787	77.14
265.004	-6.83
265.22	23.89
265.436	71
265.652	68.95
265.868	36.18
266.084	-15.02
266.3	38.23
266.516	-10.92
266.732	42.32
266.948	5.46
267.164	40.28
267.38	101.72
267.596	-12.97
267.812	52.56
268.028	-37.55
268.244	-47.79
268.46	-25.26
268.676	34.13
268.892	36.18
269.108	3.41
269.324	-45.74
269.54	-68.27
269.756	34.13
269.972	11.61
270.188	38.23
270.403	23.89
270.619	19.8
270.835	17.75
271.051	-53.93
271.267	60.76
271.483	52.56
271.698	-4.78
271.914	21.85
272.13	-33.45
272.346	-23.21
272.562	-12.97
272.777	42.32
272.993	30.04
273.209	-27.31
273.425	48.47
273.64	-25.26
273.856	71
274.072	-21.16
274.287	-62.12
274.503	-35.5
274.719	36.18
274.934	-12.97
275.15	9.56
275.366	-4.78
275.581	-21.16
275.797	83.28
276.012	19.8
276.228	21.85
276.444	52.56
276.659	60.76
276.875	-37.55
277.09	-78.51
277.306	11.61
277.521	91.48
277.737	15.7
277.952	27.99
278.168	40.28
278.383	3.41
278.599	3.41
278.814	44.37
279.03	64.85
279.245	11.61
279.461	85.33
279.676	52.56
279.892	-17.07
280.107	62.8
280.322	13.65
280.538	68.95
280.753	-29.35
280.969	-23.21
281.184	-15.02
281.399	58.71
281.615	1.37
281.83	97.62
282.045	19.8
282.26	120.15
282.476	71
282.691	13.65
282.906	3.41
283.122	50.52
283.337	3.41
283.552	36.18
283.767	46.42
283.983	77.14
284.198	-15.02
284.413	13.65
284.628	-4.78
284.843	11.61
285.058	13.65
285.274	32.08
285.489	-39.59
285.704	-74.41
285.919	7.51
286.134	34.13
286.349	64.85
286.564	-72.36
286.779	42.32
286.995	19.8
287.21	60.76
287.425	27.99
287.64	32.08
287.855	38.23
288.07	36.18
288.285	56.66
288.5	85.33
288.715	-15.02
288.93	83.28
289.145	11.61
289.36	66.9
289.575	-21.16
289.79	44.37
290.004	-8.87
290.219	15.7
290.434	62.8
290.649	-4.78
290.864	-4.78
291.079	44.37
291.294	64.85
291.509	27.99
291.724	-17.07
291.938	-6.83
292.153	11.61
292.368	25.94
292.583	36.18
292.798	36.18
293.012	77.14
293.227	44.37
293.442	-17.07
293.657	148.82
293.871	1.37
294.086	-43.69
294.301	91.48
294.516	50.52
294.73	19.8
294.945	38.23
295.16	85.33
295.374	27.99
295.589	40.28
295.804	-39.59
296.018	-2.73
296.233	68.95
296.447	-21.16
296.662	-4.78
296.877	95.57
297.091	-10.92
297.306	27.99
297.52	-37.55
297.735	-68.27
297.949	-15.02
298.164	91.48
298.378	-66.22
298.593	44.37
298.807	60.76
299.022	52.56
299.236	109.91
299.451	68.95
299.665	19.8
299.88	64.85
300.094	-60.07
300.309	-21.16
300.523	3.41
300.737	73.04
300.952	48.47
301.166	-10.92
301.381	-8.87
301.595	19.8
301.809	95.57
302.024	11.61
302.238	-31.4
302.452	13.65
302.667	-47.79
302.881	68.95
303.095	48.47
303.309	46.42
303.524	48.47
303.738	7.51
303.952	23.89
304.166	154.96
304.381	-53.93
304.595	64.85
304.809	77.14
305.023	9.56
305.237	9.56
305.452	-4.78
305.666	34.13
305.88	50.52
306.094	56.66
306.308	-21.16
306.522	73.04
306.736	27.99
306.95	40.28
307.164	-58.03
307.379	17.75
307.593	-17.07
307.807	58.71
308.021	58.71
308.235	34.13
308.449	5.46
308.663	7.51
308.877	148.82
309.091	32.08
309.305	21.85
309.519	-21.16
309.733	30.04
309.947	-39.59
310.161	62.8
310.374	-12.97
310.588	60.76
310.802	-47.79
311.016	1.37
311.23	27.99
311.444	15.7
311.658	17.75
311.872	111.96
312.085	17.75
312.299	73.04
312.513	27.99
312.727	11.61
312.941	-37.55
313.154	44.37
313.368	1.37
313.582	-25.26
313.796	36.18
314.009	-8.87
314.223	93.52
314.437	-8.87
314.651	27.99
314.864	44.37
315.078	64.85
315.292	54.61
315.505	3.41
315.719	71
315.933	44.37
316.146	58.71
316.36	-29.35
316.573	23.89
316.787	-29.35
317.001	-53.93
317.214	13.65
317.428	3.41
317.641	-33.45
317.855	-25.26
318.068	-33.45
318.282	19.8
318.495	17.75
318.709	56.66
318.922	-15.02
319.136	101.72
319.349	68.95
319.563	48.47
319.776	-35.5
319.99	-23.21
320.203	7.51
320.417	-15.02
320.63	50.52
320.843	91.48
321.057	25.94
321.27	73.04
321.483	-6.83
321.697	25.94
321.91	17.75
322.124	93.52
322.337	23.89
322.55	-8.87
322.763	48.47
322.977	-8.87
323.19	44.37
323.403	-10.92
323.617	46.42
323.83	36.18
324.043	36.18
324.256	38.23
324.469	25.94
324.683	60.76
324.896	-51.88
325.109	44.37
325.322	36.18
325.535	32.08
325.748	77.14
325.962	48.47
326.175	3.41
326.388	25.94
326.601	11.61
326.814	-29.35
327.027	73.04
327.24	73.04
327.453	-21.16
327.666	85.33
327.879	62.8
328.092	101.72
328.305	23.89
328.518	7.51
328.731	-17.07
328.944	77.14
329.157	1.37
329.37	-29.35
329.583	95.57
329.796	83.28
330.009	7.51
330.222	42.32
330.435	9.56
330.648	60.76
330.861	-29.35
331.073	40.28
331.286	13.65
331.499	-27.31
331.712	-27.31
331.925	27.99
332.138	21.85
332.35	114
332.563	-37.55
332.776	52.56
332.989	21.85
333.202	-37.55
333.414	44.37
333.627	52.56
333.84	-43.69
334.053	64.85
334.265	52.56
334.478	19.8
334.691	64.85
334.903	11.61
335.116	60.76
335.329	52.56
335.541	36.18
335.754	77.14
335.966	11.61
336.179	7.51
336.392	-53.93
336.604	7.51
336.817	21.85
337.029	30.04
337.242	42.32
337.454	75.09
337.667	-6.83
337.88	44.37
338.092	19.8
338.305	42.32
338.517	13.65
338.729	77.14
338.942	19.8
339.154	17.75
339.367	-29.35
339.579	73.04
339.792	-58.03
340.004	32.08
340.217	3.41
340.429	93.52
340.641	-12.97
340.854	-17.07
341.066	-51.88
341.278	68.95
341.491	27.99
341.703	36.18
341.915	19.8
342.128	77.14
342.34	52.56
342.552	30.04
342.764	-0.68
342.977	87.38
343.189	40.28
343.401	-4.78
343.613	17.75
343.826	75.09
344.038	-23.21
344.25	75.09
344.462	19.8
344.674	-0.68
344.886	52.56
345.099	21.85
345.311	11.61
345.523	-17.07
345.735	-12.97
345.947	58.71
346.159	19.8
346.371	40.28
346.583	144.72
346.795	122.2
347.007	-25.26
347.219	11.61
347.431	-6.83
347.643	-49.83
347.855	-12.97
348.067	50.52
348.279	11.61
348.491	34.13
348.703	54.61
348.915	-0.68
349.127	15.7
349.339	52.56
349.551	-12.97
349.763	48.47
349.975	56.66
350.187	81.24
350.399	83.28
350.61	46.42
350.822	-4.78
351.034	15.7
351.246	27.99
351.458	73.04
351.669	77.14
351.881	77.14
352.093	68.95
352.305	44.37
352.517	120.15
352.728	-10.92
352.94	30.04
353.152	-19.11
353.363	-78.51
353.575	134.48
353.787	58.71
353.999	-6.83
354.21	79.19
354.422	23.89
354.633	34.13
354.845	11.61
355.057	101.72
355.268	15.7
355.48	91.48
355.692	25.94
355.903	27.99
356.115	81.24
356.326	-33.45
356.538	101.72
356.749	-12.97
356.961	83.28
357.172	9.56
357.384	97.62
357.595	77.14
357.807	11.61
358.018	-33.45
358.23	36.18
358.441	91.48
358.653	3.41
358.864	60.76
359.075	5.46
359.287	27.99
359.498	25.94
359.709	11.61
359.921	83.28
360.132	50.52
360.344	23.89
360.555	15.7
360.766	19.8
360.977	77.14
361.189	93.52
361.4	19.8
361.611	68.95
361.823	134.48
362.034	79.19
362.245	-37.55
362.456	105.81
362.667	48.47
362.879	11.61
363.09	107.86
363.301	7.51
363.512	27.99
363.723	85.33
363.935	23.89
364.146	83.28
364.357	66.9
364.568	87.38
364.779	-2.73
364.99	93.52
365.201	19.8
365.412	-6.83
365.623	52.56
365.834	-33.45
366.045	19.8
366.256	89.43
366.467	36.18
366.678	1.37
366.889	54.61
367.1	19.8
367.311	-15.02
367.522	27.99
367.733	54.61
367.944	27.99
368.155	40.28
368.366	116.05
368.577	19.8
368.788	36.18
368.999	19.8
369.209	44.37
369.42	83.28
369.631	103.76
369.842	17.75
370.053	30.04
370.264	48.47
370.474	3.41
370.685	27.99
370.896	64.85
371.107	27.99
371.317	-21.16
371.528	-23.21
371.739	46.42
371.95	68.95
372.16	52.56
372.371	3.41
372.582	1.37
372.792	50.52
373.003	1.37
373.214	85.33
373.424	-0.68
373.635	91.48
373.846	58.71
374.056	19.8
374.267	23.89
374.477	23.89
374.688	68.95
374.898	83.28
375.109	17.75
375.319	68.95
375.53	101.72
375.74	60.76
375.951	27.99
376.161	91.48
376.372	60.76
376.582	83.28
376.793	34.13
377.003	27.99
377.214	66.9
377.424	87.38
377.635	34.13
377.845	36.18
378.055	97.62
378.266	7.51
378.476	-15.02
378.686	9.56
378.897	15.7
379.107	83.28
379.317	27.99
379.528	11.61
379.738	118.1
379.948	-12.97
380.158	15.7
380.369	89.43
380.579	68.95
380.789	-0.68
380.999	23.89
381.21	30.04
381.42	68.95
381.63	79.19
381.84	1.37
382.05	23.89
382.261	85.33
382.471	85.33
382.681	-10.92
382.891	179.54
383.101	11.61
383.311	66.9
383.521	-47.79
383.731	93.52
383.941	81.24
384.151	122.2
384.361	25.94
384.571	38.23
384.781	66.9
384.991	50.52
385.201	62.8
385.411	140.63
385.621	44.37
385.831	27.99
386.041	-6.83
386.251	34.13
386.461	-4.78
386.671	5.46
386.881	48.47
387.091	38.23
387.301	101.72
387.511	23.89
387.72	91.48
387.93	21.85
388.14	-58.03
388.35	48.47
388.56	44.37
388.769	50.52
388.979	116.05
389.189	60.76
389.399	40.28
389.609	52.56
389.818	71
390.028	19.8
390.238	25.94
390.447	11.61
390.657	32.08
390.867	23.89
391.076	-29.35
391.286	23.89
391.496	85.33
391.705	32.08
391.915	32.08
392.125	11.61
392.334	-12.97
392.544	95.57
392.753	93.52
392.963	66.9
393.172	56.66
393.382	-25.26
393.591	181.59
393.801	81.24
394.01	134.48
394.22	107.86
394.429	73.04
394.639	99.67
394.848	85.33
395.058	97.62
395.267	44.37
395.477	77.14
395.686	140.63
395.895	71
396.105	122.2
396.314	85.33
396.524	38.23
396.733	44.37
396.942	144.72
397.152	60.76
397.361	64.85
397.57	32.08
397.78	97.62
397.989	144.72
398.198	64.85
398.407	46.42
398.617	120.15
398.826	101.72
399.035	1.37
399.244	58.71
399.453	93.52
399.663	77.14
399.872	97.62
400.081	81.24
400.29	175.44
400.499	27.99
400.708	163.15
400.917	85.33
401.127	114
401.336	118.1
401.545	181.59
401.754	148.82
401.963	111.96
402.172	40.28
402.381	68.95
402.59	52.56
402.799	62.8
403.008	105.81
403.217	124.24
403.426	60.76
403.635	73.04
403.844	77.14
404.053	140.63
404.262	83.28
404.471	157.01
404.68	109.91
404.888	212.31
405.097	134.48
405.306	181.59
405.515	154.96
405.724	163.15
405.933	189.78
406.142	95.57
406.35	163.15
406.559	157.01
406.768	107.86
406.977	232.79
407.185	197.97
407.394	224.59
407.603	75.09
407.812	165.2
408.02	218.45
408.229	161.11
408.438	255.31
408.646	97.62
408.855	177.49
409.064	200.02
409.272	181.59
409.481	271.7
409.69	232.79
409.898	228.69
410.107	312.66
410.315	277.84
410.524	216.4
410.733	263.51
410.941	271.7
411.15	275.79
411.358	277.84
411.567	339.28
411.775	378.19
411.984	269.65
412.192	296.27
412.401	355.66
412.609	478.54
412.818	431.44
413.026	394.58
413.234	353.62
413.443	392.53
413.651	396.62
413.86	509.26
414.068	501.07
414.276	525.65
414.485	462.16
414.693	546.13
414.901	615.76
415.11	617.8
415.318	527.69
415.526	593.23
415.734	591.18
415.943	656.72
416.151	705.87
416.359	628.04
416.567	775.5
416.776	804.17
416.984	824.65
417.192	798.03
417.4	793.93
417.608	871.75
417.817	847.18
418.025	816.46
418.233	986.44
418.441	869.7
418.649	957.77
418.857	1109.32
419.065	1035.59
419.273	1105.22
419.481	1062.21
419.689	1289.54
419.897	1166.66
420.105	1240.39
420.313	1269.06
420.521	1318.21
420.729	1322.31
420.937	1453.38
421.145	1563.97
421.353	1580.35
421.561	1537.34
421.769	1666.36
421.977	1676.6
422.185	1690.94
422.393	1754.43
422.601	1953.08
422.809	1879.35
423.017	1846.59
423.224	2073.91
423.432	2133.3
423.64	2174.26
423.848	2448.69
424.056	2176.31
424.263	2426.16
424.471	2454.83
424.679	2452.78
424.887	2534.7
425.094	2594.09
425.302	2682.16
425.51	2731.31
425.718	2868.52
425.925	2827.56
426.133	3022.12
426.341	3120.42
426.548	3239.2
426.756	3247.4
426.964	3423.52
427.171	3394.85
427.379	3706.14
427.586	3685.66
427.794	3869.98
428.001	3974.42
428.209	3994.9
428.417	4132.12
428.624	4357.39
428.832	4275.48
429.039	4349.2
429.247	4427.03
429.454	4621.58
429.662	5160.2
429.869	4672.78
430.076	5004.55
430.284	4904.2
430.491	5190.92
430.699	5446.91
430.906	5332.23
431.114	5438.72
431.321	5598.46
431.528	5950.71
431.736	6225.14
431.943	6495.47
432.15	6399.22
432.358	6327.54
432.565	6745.33
432.772	6558.96
432.979	6921.45
433.187	7052.52
433.394	7040.23
433.601	7603.43
433.808	7797.98
434.016	7544.03
434.223	7802.08
434.43	8408.28
434.637	8287.45
434.844	8838.35
435.052	9008.33
435.259	8744.14
435.466	9006.28
435.673	8918.22
435.88	9514.18
436.087	10249.4
436.294	9964.73
436.501	9682.11
436.708	9993.4
436.915	10341.56
437.122	10773.68
437.329	10765.49
437.537	11044.01
437.743	11263.15
437.95	11234.47
438.157	11721.89
438.364	11877.54
438.571	12270.75
438.778	12330.14
438.985	13415.56
439.192	12854.42
439.399	13276.3
439.606	12917.9
439.813	13677.7
440.02	14732.4
440.227	14138.49
440.433	14240.89
440.64	14576.76
440.847	14582.9
441.054	14900.34
441.261	15969.38
441.467	15746.15
441.674	15778.92
441.881	16364.64
442.088	16686.17
442.294	16409.69
442.501	16741.46
442.708	16997.46
442.914	17804.36
443.121	18519.1
443.328	17927.24
443.534	19184.69
443.741	18846.77
443.948	18465.85
444.154	19616.81
444.361	19831.85
444.568	20208.67
444.774	19799.08
444.981	20063.27
445.187	20634.65
445.394	21451.79
445.6	21396.49
445.807	23340.02
446.013	22459.39
446.22	22699
446.426	23690.22
446.633	23835.63
446.839	24550.37
447.046	23514.09
447.252	25099.22
447.459	25277.4
447.665	24787.93
447.871	25807.82
448.078	27030.46
448.284	25723.85
448.491	26674.11
448.697	27614.13
448.903	28136.36
449.11	28240.81
449.316	27628.46
449.522	28089.26
449.728	28928.92
449.935	29076.38
450.141	29139.86
450.347	30141.32
450.553	28916.64
450.76	29072.28
450.966	30071.69
451.172	29684.62
451.378	30307.21
451.584	29690.77
451.791	30641.03
451.997	30366.6
452.203	31091.58
452.409	31112.06
452.615	30858.11
452.821	29596.56
453.027	29203.35
453.233	30702.46
453.44	29580.18
453.646	29844.37
453.852	30227.34
454.058	30507.91
454.264	29541.27
454.47	30262.15
454.676	29213.59
454.882	30251.91
455.088	27880.36
455.294	28390.31
455.5	28697.5
455.705	28441.51
455.911	27745.2
456.117	27073.46
456.323	26739.65
456.529	25222.1
456.735	26297.28
456.941	25805.77
457.147	25392.08
457.352	24640.48
457.558	24101.86
457.764	24015.85
457.97	23782.38
458.176	23374.83
458.381	23038.97
458.587	22133.76
458.793	22006.79
458.999	20882.45
459.204	22469.63
459.41	21783.56
459.616	20298.78
459.821	20380.7
460.027	20390.94
460.233	19741.74
460.438	18922.55
460.644	19151.92
460.85	18148.42
461.055	17835.08
461.261	17843.27
461.466	16657.5
461.672	16088.16
461.878	17337.42
462.083	16405.59
462.289	15549.54
462.494	15623.27
462.7	14849.14
462.905	14517.37
463.111	15096.94
463.316	15162.48
463.522	14640.25
463.727	14916.72
463.932	14716.02
464.138	14380.15
464.343	14656.63
464.549	14171.26
464.754	14658.68
464.959	14535.8
465.165	14503.03
465.37	13786.24
465.575	13542.53
465.781	13945.98
465.986	14113.92
466.191	13513.86
466.397	13274.25
466.602	12715.16
466.807	13241.48
467.012	13161.61
467.218	13264.01
467.423	12911.76
467.628	13132.94
467.833	13399.18
468.038	13151.37
468.244	12579.99
468.449	13300.87
468.654	12807.31
468.859	12647.57
469.064	12631.19
469.269	12121.24
469.474	12133.53
469.679	12563.61
469.885	11928.74
470.09	12020.89
470.295	12045.47
470.5	11560.1
470.705	11910.3
470.91	11660.45
471.115	11795.62
471.32	11572.39
471.525	11730.08
471.73	11308.2
471.935	11418.79
472.139	10753.2
472.344	11257
472.549	10790.06
472.754	10939.57
472.959	10550.45
473.164	10585.27
473.369	10251.45
473.574	10525.88
473.778	10618.04
473.983	10405.05
474.188	10388.66
474.393	9673.92
474.598	9870.53
474.802	9731.26
475.007	9694.4
475.212	9641.15
475.417	9405.64
475.621	9518.28
475.826	9360.58
476.031	9280.71
476.235	9100.49
476.44	9440.45
476.645	9161.93
476.849	8957.13
477.054	8932.56
477.259	8846.54
477.463	8858.83
477.668	8539.35
477.872	8768.72
478.077	8504.53
478.282	8359.13
478.486	8211.67
478.691	8228.06
478.895	8305.88
479.1	8170.71
479.304	8178.9
479.509	7888.09
479.713	7941.34
479.918	7906.52
480.122	7832.8
480.326	8051.93
480.531	8101.08
480.735	7996.64
480.94	7677.15
481.144	7900.38
481.348	7681.25
481.553	7955.68
481.757	7374.05
481.961	7812.32
482.166	7701.73
482.37	7675.1
482.574	7433.44
482.778	7621.86
482.983	7519.46
483.187	7587.04
483.391	7767.26
483.595	7709.92
483.8	7595.23
484.004	7654.62
484.208	7855.33
484.412	7738.59
484.616	7644.38
484.821	7597.28
485.025	7398.63
485.229	7556.32
485.433	7533.79
485.637	7392.48
485.841	7441.64
486.045	7568.61
486.249	7412.96
486.453	7587.04
486.657	7550.18
486.861	7552.23
487.065	7374.05
487.269	7560.42
487.473	7525.6
487.677	7564.51
487.881	7701.73
488.085	7662.82
488.289	7521.51
488.493	7605.47
488.697	7578.85
488.901	7576.8
489.105	7494.88
489.309	7695.58
489.512	7621.86
489.716	7498.98
489.92	7576.8
490.124	7517.41
490.328	7894.24
490.531	7781.6
490.735	7916.76
490.939	7752.93
491.143	7724.26
491.346	7793.89
491.55	7820.51
491.754	7908.57
491.958	7824.61
492.161	7730.4
492.365	8027.35
492.569	7900.38
492.772	7957.72
492.976	8068.31
493.18	7900.38
493.383	8223.96
493.587	8146.14
493.79	8309.97
493.994	8158.42
494.197	8078.55
494.401	8402.13
494.605	8525.01
494.808	8398.04
495.012	8545.49
495.215	8742.1
495.419	8613.07
495.622	8633.55
495.825	8815.82
496.029	8572.11
496.232	8883.41
496.436	8703.18
496.639	9217.22
496.843	9006.28
497.046	9223.37
497.249	9338.05
497.453	9315.53
497.656	9319.62
497.859	9620.67
498.063	9581.76
498.266	9800.9
498.469	9788.61
498.673	9938.11
498.876	10108.09
499.079	10024.12
499.282	10259.64
499.485	10407.09
499.689	10525.88
499.892	10462.39
500.095	10542.26
500.298	10945.71
500.501	10681.52
500.705	10951.85
500.908	11062.44
501.111	11197.61
501.314	11388.07
501.517	11465.89
501.72	11472.04
501.923	11635.88
502.126	11924.64
502.329	12111
502.532	12305.56
502.735	12024.99
502.938	12416.15
503.141	12500.12
503.344	12721.3
503.547	12672.15
503.75	13241.48
503.953	13001.87
504.156	13038.73
504.359	13169.8
504.562	13137.04
504.765	13520.01
504.968	13716.61
505.17	13876.35
505.373	14101.63
505.576	14097.53
505.779	14101.63
505.982	14218.36
506.185	14689.4
506.387	14593.14
506.59	14886
506.793	14986.35
506.996	14916.72
507.198	15361.13
507.401	15275.12
507.604	15793.25
507.807	15770.72
508.009	16102.5
508.212	15989.86
508.415	16534.62
508.617	16264.29
508.82	16471.13
509.022	16602.2
509.225	17007.7
509.428	17269.84
509.63	17130.58
509.833	17255.5
510.035	17790.02
510.238	17706.06
510.44	17951.81
510.643	17910.85
510.845	18060.35
511.048	18164.8
511.25	18297.92
511.453	18627.64
511.655	19262.51
511.858	18906.16
512.06	19221.55
512.262	19616.81
512.465	19420.2
512.667	19958.82
512.87	19844.13
513.072	19893.29
513.274	20519.96
513.477	20397.09
513.679	20689.95
513.881	20866.07
514.084	21306.38
514.286	21070.87
514.488	21134.35
514.69	22066.18
514.893	21904.39
515.095	22064.13
515.297	22412.29
515.499	22146.05
515.701	22572.03
515.904	22707.19
516.106	23051.25
516.308	23264.24
516.51	23602.16
516.712	23815.15
516.914	23741.42
517.116	24155.11
517.318	24407.01
517.52	24390.63
517.722	24792.03
517.925	24878.04
518.127	25365.46
518.329	25351.12
518.531	25379.79
518.733	25752.52
518.935	26004.42
519.136	26098.63
519.338	26440.64
519.54	26262.47
519.742	26645.44
519.944	26803.13
520.146	27505.59
520.348	27605.94
520.55	27849.64
520.752	27978.67
520.954	28478.37
521.155	28029.87
521.357	28683.17
521.559	28826.53
521.761	29547.41
521.963	29092.76
522.164	29535.12
522.366	29950.86
522.568	30010.25
522.77	30059.4
522.971	30512
523.173	30530.44
523.375	30438.28
523.576	30675.84
523.778	30868.35
523.98	31257.46
524.181	31304.57
524.383	31452.02
524.584	32258.92
524.786	31994.73
524.988	31949.68
525.189	32615.27
525.391	32676.71
525.592	32656.23
525.794	33192.79
525.995	33192.79
526.197	33297.24
526.398	33260.38
526.6	33499.99
526.801	33735.51
527.003	34122.57
527.204	33940.3
527.406	34431.82
527.607	34493.25
527.808	34882.37
528.01	34511.69
528.211	34849.6
528.412	35228.48
528.614	35326.78
528.815	35363.64
529.016	36033.33
529.218	35236.67
529.419	35930.93
529.62	35638.07
529.822	35799.86
530.023	36025.14
530.224	36031.28
530.425	36119.34
530.626	36145.97
530.828	35846.96
531.029	36786.98
531.23	36576.04
531.431	36643.62
531.632	36537.13
531.833	37217.05
532.035	36825.89
532.236	36844.32
532.437	37059.36
532.638	36887.33
532.839	37249.82
533.04	37557.02
533.241	37204.77
533.442	37743.38
533.643	37374.75
533.844	37491.48
534.045	37561.11
534.246	37565.21
534.447	37606.17
534.648	37575.45
534.849	38001.43
535.05	37319.45
535.251	37618.46
535.451	37640.98
535.652	38011.67
535.853	37692.18
536.054	38189.84
536.255	37915.41
536.456	37739.29
536.657	37901.07
536.857	37733.14
537.058	37647.13
537.259	38183.69
537.46	38275.85
537.66	37565.21
537.861	37980.95
538.062	37954.32
538.263	37712.66
538.463	37872.4
538.664	37858.07
538.865	38163.21
539.065	38542.09
539.266	37876.5
539.466	38228.75
539.667	37679.89
539.868	38490.89
540.068	38052.62
540.269	38124.3
540.469	37948.18
540.67	37952.27
540.87	37995.28
541.071	38077.2
541.271	38075.15
541.472	38026
541.672	38195.98
541.873	37901.07
542.073	37442.33
542.274	38292.24
542.474	38175.5
542.675	37800.72
542.875	38339.34
543.075	38134.54
543.276	37575.45
543.476	38433.55
543.676	37643.03
543.877	38322.96
544.077	37995.28
544.277	38327.05
544.478	37982.99
544.678	38277.9
544.878	38077.2
545.078	38155.02
545.279	37790.48
545.479	37755.67
545.679	38204.17
545.879	37899.03
546.079	38261.52
546.28	37647.13
546.48	37550.87
546.68	37954.32
546.88	38300.43
547.08	37993.23
547.28	37847.83
547.48	37710.61
547.68	37905.17
547.88	37753.62
548.081	38009.62
548.281	37755.67
548.481	37921.55
548.681	38437.64
548.881	37577.5
549.081	37864.21
549.28	37724.95
549.48	37823.25
549.68	37980.95
549.88	38681.35
550.08	37815.06
550.28	38208.27
550.48	37800.72
550.68	38026
550.88	37810.96
551.08	37712.66
551.279	38071.06
551.479	37735.19
551.679	38187.79
551.879	37587.74
552.079	37878.55
552.278	37532.44
552.478	37215.01
552.678	37546.78
552.878	37899.03
553.077	37604.12
553.277	37415.71
553.477	37794.58
553.676	37673.75
553.876	37636.89
554.076	37405.47
554.275	37675.8
554.475	36954.91
554.674	36901.67
554.874	37456.67
555.074	36860.71
555.273	37620.5
555.473	37163.81
555.672	37315.36
555.872	36905.76
556.071	37176.09
556.271	37382.94
556.47	36856.61
556.67	36596.52
556.869	36467.5
557.068	36977.44
557.268	36498.22
557.467	36619.05
557.667	36668.2
557.866	36791.08
558.065	36688.68
558.265	36459.31
558.464	36328.24
558.663	36801.32
558.863	35832.63
559.062	36614.95
559.261	35906.35
559.461	36373.29
559.66	35939.12
559.859	35861.3
560.058	35642.17
560.258	35748.66
560.457	35521.34
560.656	35836.72
560.855	35308.35
561.054	35277.63
561.253	34857.79
561.453	35212.09
561.652	35443.51
561.851	35431.22
562.05	34917.18
562.249	34708.29
562.448	35040.06
562.647	34810.69
562.846	34362.18
563.045	34816.83
563.244	34247.5
563.443	34644.8
563.642	34216.78
563.841	34294.6
564.04	33895.25
564.239	34468.68
564.438	33690.45
564.637	34003.79
564.836	33975.12
565.035	33502.04
565.234	33659.73
565.432	33561.43
565.631	33164.12
565.83	33755.99
566.029	33225.56
566.228	33010.53
566.427	33198.94
566.625	32881.5
566.824	32529.25
567.023	32942.94
567.222	32351.08
567.42	32846.69
567.619	32013.16
567.818	32334.7
568.016	32203.63
568.215	32420.71
568.414	32062.32
568.612	32150.38
568.811	31716.21
569.01	32060.27
569.208	31548.28
569.407	32029.55
569.605	31181.69
569.804	31667.06
570.002	30983.04
570.201	31038.33
570.4	31079.29
570.598	30798.72
570.797	30647.17
570.995	30970.75
571.193	30458.76
571.392	30849.92
571.59	30045.07
571.789	30569.35
571.987	30108.55
572.186	29827.98
572.384	30184.33
572.582	30147.47
572.781	29692.82
572.979	29174.68
573.177	29586.32
573.376	29805.45
573.574	29045.66
573.772	29418.39
573.971	28959.64
574.169	29248.41
574.367	28642.21
574.565	28967.84
574.763	28904.35
574.962	28640.16
575.16	28668.83
575.358	28613.54
575.556	27933.61
575.754	28601.25
575.952	28197.8
576.151	28287.91
576.349	28220.33
576.547	27943.85
576.745	28171.18
576.943	27765.68
577.141	27845.55
577.339	27949.99
577.537	27440.05
577.735	27300.79
577.933	27274.17
578.131	27618.22
578.329	27331.51
578.527	27200.44
578.725	27345.84
578.923	27347.89
579.121	26903.48
579.319	26870.72
579.516	27009.98
579.714	26682.3
579.912	26729.41
580.11	26569.66
580.308	26418.11
580.506	26477.51
580.704	26164.17
580.901	26459.07
581.099	26258.37
581.297	25750.48
581.495	25795.53
581.692	26205.13
581.89	25615.31
582.088	25793.48
582.285	25787.34
582.483	25609.17
582.681	25527.25
582.878	25281.49
583.076	25228.24
583.274	25103.32
583.471	25277.4
583.669	25322.45
583.866	24568.8
584.064	25265.11
584.262	24888.28
584.459	25199.57
584.657	24503.26
584.854	24974.3
585.052	23995.37
585.249	24689.63
585.447	24812.51
585.644	24089.57
585.841	24351.71
586.039	24464.35
586.236	24331.23
586.434	24310.75
586.631	23981.03
586.828	24087.53
587.026	23991.27
587.223	23831.53
587.42	23940.07
587.618	23852.01
587.815	23598.06
588.012	23325.68
588.21	23444.46
588.407	23774.19
588.604	23036.92
588.801	23221.23
588.999	23141.36
589.196	22965.24
589.393	23254
589.59	22868.98
589.787	23081.97
589.984	22821.88
590.182	22727.67
590.379	22975.48
590.576	22397.95
590.773	22637.56
590.97	22348.8
591.167	22932.47
591.364	22219.78
591.561	22535.17
591.758	22066.18
591.955	22338.56
592.152	22326.27
592.349	21976.07
592.546	22064.13
592.743	21851.14
592.94	21896.2
593.137	21910.53
593.334	21851.14
593.531	21734.41
593.727	21535.76
593.924	21812.23
594.121	21271.57
594.318	21359.63
594.515	21244.95
594.712	21345.3
594.908	21224.47
595.105	21191.7
595.302	21064.72
595.499	20974.61
595.696	20778.01
595.892	20927.51
596.089	20872.21
596.286	20825.11
596.482	20814.87
596.679	20751.38
596.876	20536.35
597.072	20798.49
597.269	20513.82
597.466	20272.16
597.662	20397.09
597.859	20073.51
598.055	20114.47
598.252	20214.82
598.448	20059.17
598.645	20057.12
598.841	19663.91
599.038	19956.77
599.234	19811.37
599.431	19524.65
599.627	19651.63
599.824	19729.45
600.02	19737.64
600.217	19926.05
600.413	19498.03
600.609	19500.08
600.806	19465.26
601.002	19569.71
601.198	19143.73
601.395	19135.54
601.591	18920.5
601.787	19002.42
601.984	18846.77
602.18	19125.3
602.376	18842.68
602.572	18707.51
602.769	18830.39
602.965	18793.53
603.161	18773.05
603.357	18349.12
603.553	18467.9
603.75	18510.91
603.946	18271.29
604.142	18304.06
604.338	18207.81
604.534	18334.78
604.73	18132.03
604.926	18140.22
605.122	18058.31
605.318	17873.99
605.514	17923.14
605.71	18000.96
605.906	17906.76
606.102	17898.56
606.298	17634.38
606.494	17650.76
606.69	17595.46
606.886	17896.52
607.082	17372.24
607.278	17581.13
607.474	17263.69
607.67	17278.03
607.866	17407.05
608.062	17538.12
608.257	17196.11
608.453	17108.05
608.649	17280.08
608.845	17095.76
609.041	17108.05
609.236	17075.28
609.432	16948.31
609.628	16979.03
609.824	17048.66
610.019	16739.41
610.215	16991.31
610.411	16909.4
610.606	17007.7
610.802	16911.44
610.998	16702.55
611.193	16860.24
611.389	16387.16
611.584	16456.79
611.78	16243.81
611.976	16571.48
612.171	16675.93
612.367	16305.24
612.562	16280.67
612.758	16110.69
612.953	16014.43
613.149	16464.99
613.344	16129.12
613.539	16213.09
613.735	16206.94
613.93	16161.89
614.126	15930.47
614.321	16122.98
614.517	16145.5
614.712	16092.26
614.907	16133.22
615.103	15940.71
615.298	15780.96
615.493	15674.47
615.688	15561.83
615.884	16092.26
616.079	15576.17
616.274	15709.29
616.47	15438.95
616.665	15684.71
616.86	15416.43
617.055	15555.69
617.25	15541.35
617.445	15506.54
617.641	15305.84
617.836	15197.29
618.031	15187.05
618.226	15293.55
618.421	15316.08
618.616	15467.63
618.811	14978.16
619.006	15027.31
619.201	14978.16
619.396	15162.48
619.591	15008.88
619.786	14857.33
619.981	14720.12
620.176	14791.8
620.371	14572.66
620.566	14740.6
620.761	14394.49
620.956	14720.12
621.151	14326.91
621.346	14216.32
621.541	14244.99
621.735	14451.83
621.93	14070.91
622.125	14066.81
622.32	13919.36
622.515	13978.75
622.709	13894.79
622.904	14036.1
623.099	13722.76
623.294	13585.54
623.488	13532.29
623.683	13780.1
623.878	13102.22
624.072	13517.96
624.267	13390.98
624.462	13298.83
624.656	13069.45
624.851	13173.9
625.046	12942.48
625.24	12842.13
625.435	12807.31
625.629	12887.18
625.824	12844.18
626.018	12739.73
626.213	12704.92
626.407	12502.17
626.602	12369.05
626.796	12426.39
626.991	12250.27
627.185	12295.32
627.38	12102.81
627.574	12270.75
627.768	12190.88
627.963	11922.59
628.157	11799.71
628.352	11947.17
628.546	11666.6
628.74	11971.74
628.935	11439.27
629.129	11619.49
629.323	11644.07
629.517	11515.05
629.712	11426.98
629.906	11416.74
630.1	11232.43
630.294	11246.76
630.489	11375.78
630.683	11259.05
630.877	11035.82
631.071	10951.85
631.265	11076.78
631.459	10796.21
631.653	10761.39
631.848	10970.29
632.042	10839.22
632.236	10728.63
632.43	10603.7
632.624	10599.6
632.818	10585.27
633.012	10476.73
633.206	10370.23
633.4	10374.33
633.594	10220.73
633.788	10116.28
633.982	10228.92
634.176	10175.67
634.369	10194.11
634.563	10052.8
634.757	9964.73
634.951	10044.6
635.145	9989.31
635.339	10128.57
635.533	9888.96
635.726	9903.29
635.92	9518.28
636.114	9649.35
636.308	9579.72
636.501	9667.78
636.695	9546.95
636.889	9311.43
637.083	9438.41
637.276	9338.05
637.47	9266.38
637.664	9327.81
637.857	9192.65
638.051	9383.11
638.244	9256.14
638.438	9088.2
638.632	9219.27
638.825	8973.52
639.019	9055.44
639.212	8862.93
639.406	8776.91
639.599	8907.98
639.793	8793.3
639.986	8680.66
640.18	8684.75
640.373	8527.06
640.567	8455.38
640.76	8559.83
640.954	8606.93
641.147	8334.55
641.34	8402.13
641.534	8449.24
641.727	8334.55
641.92	8289.49
642.114	8119.51
642.307	8256.73
642.5	8017.11
642.694	7863.52
642.887	7939.29
643.08	8240.34
643.273	7988.44
643.467	7965.92
643.66	7808.22
643.853	7736.54
644.046	7668.96
644.239	7843.04
644.432	7709.92
644.626	7537.89
644.819	7421.16
645.012	7564.51
645.205	7716.06
645.398	7748.83
645.591	7433.44
645.784	7595.23
645.977	7472.36
646.17	7261.41
646.363	7447.78
646.556	7449.83
646.749	7372
646.942	7367.91
647.135	7269.61
647.328	7111.91
647.521	7195.88
647.714	7001.32
647.907	7052.52
648.099	6821.1
648.292	6956.27
648.485	6847.72
648.678	6690.03
648.871	6843.63
649.064	6923.5
649.256	6831.34
649.449	6710.51
649.642	6683.89
649.835	6704.37
650.027	6692.08
650.22	6700.27
650.413	6513.91
650.605	6526.19
650.798	6485.23
650.991	6458.61
651.183	6356.21
651.376	6354.16
651.568	6423.8
651.761	6249.72
651.954	6401.27
652.146	6300.92
652.339	6333.68
652.531	6221.05
652.724	6262.01
652.916	6175.99
653.109	5999.87
653.301	5973.24
653.494	6333.68
653.686	6071.54
653.879	5979.39
654.071	5948.67
654.263	5872.89
654.456	5995.77
654.648	5942.52
654.84	5815.55
655.033	5846.27
655.225	5852.41
655.417	5815.55
655.61	5807.36
655.802	5866.75
655.994	5795.07
656.186	5664
656.379	5571.84
656.571	5750.01
656.763	5440.77
656.955	5623.04
657.148	5594.37
657.34	5567.74
657.532	5571.84
657.724	5491.97
657.916	5434.63
658.108	5522.69
658.3	5453.06
658.492	5399.81
658.684	5340.42
658.876	5375.24
659.068	5262.6
659.26	5360.9
659.452	5260.55
659.644	5326.08
659.836	5350.66
660.028	5260.55
660.22	5131.53
660.412	5031.18
660.604	5018.89
660.796	5129.48
660.988	5031.18
661.18	4924.68
661.372	5195.01
661.563	5158.15
661.755	5010.7
661.947	4871.43
662.139	5008.65
662.331	4951.31
662.522	4930.83
662.714	4869.39
662.906	4918.54
663.097	4910.35
663.289	4709.65
663.481	4783.37
663.673	4734.22
663.864	4828.43
664.056	4752.65
664.247	4787.47
664.439	4689.17
664.631	4744.46
664.822	4810
665.014	4758.8
665.205	4637.97
665.397	4492.56
665.588	4717.84
665.78	4656.4
665.971	4652.3
666.163	4615.44
666.354	4621.58
666.546	4562.19
666.737	4381.97
666.929	4619.53
667.12	4613.39
667.311	4513.04
667.503	4488.46
667.694	4394.26
667.885	4658.45
668.077	4433.17
668.268	4467.99
668.459	4560.14
668.651	4523.28
668.842	4451.6
669.033	4492.56
669.224	4435.22
669.416	4392.21
669.607	4523.28
669.798	4525.33
669.989	4637.97
670.18	4541.71
670.371	4418.83
670.563	4244.76
670.754	4447.51
670.945	4398.35
671.136	4402.45
671.327	4308.24
671.518	4379.92
671.709	4427.03
671.9	4605.2
672.091	4484.37
672.282	4369.68
672.473	4398.35
672.664	4365.59
672.855	4361.49
673.046	4406.55
673.237	4384.02
673.428	4293.91
673.619	4445.46
673.809	4261.14
674	4443.41
674.191	4459.79
674.382	4353.3
674.573	4326.68
674.764	4304.15
674.954	4609.3
675.145	4283.67
675.336	4386.07
675.527	4490.51
675.717	4457.75
675.908	4482.32
676.099	4431.12
676.289	4416.79
676.48	4525.33
676.671	4484.37
676.861	4556.05
677.052	4400.4
677.243	4457.75
677.433	4386.07
677.624	4467.99
677.814	4545.81
678.005	4678.93
678.195	4549.9
678.386	4420.88
678.576	4640.01
678.767	4525.33
678.957	4535.57
679.148	4597.01
679.338	4496.66
679.529	4660.49
679.719	4541.71
679.909	4736.27
680.1	4588.82
680.29	4766.99
680.481	4560.14
680.671	4777.23
680.861	4529.42
681.052	4697.36
681.242	4590.86
681.432	4775.18
681.622	4840.72
681.813	4601.1
682.003	4654.35
682.193	4719.89
682.383	4738.32
682.573	4799.76
682.764	4775.18
682.954	4715.79
683.144	4795.66
683.334	4883.72
683.524	4656.4
683.714	4750.6
683.904	4738.32
684.094	4797.71
684.284	4676.88
684.474	4916.49
684.664	4758.8
684.854	4758.8
685.044	4857.1
685.234	4914.44
685.424	4826.38
685.614	4664.59
685.804	4701.45
685.994	4775.18
686.184	4662.54
686.374	4642.06
686.564	4762.89
686.753	4689.17
686.943	4568.34
687.133	4728.08
687.323	4594.96
687.513	4621.58
687.702	4584.72
687.892	4443.41
688.082	4435.22
688.272	4515.09
688.461	4562.19
688.651	4488.46
688.841	4510.99
689.03	4508.94
689.22	4424.98
689.41	4396.31
689.599	4246.8
689.789	4316.44
689.979	4410.64
690.168	4451.6
690.358	4298
690.547	4400.4
690.737	4263.19
690.926	4234.52
691.116	4156.69
691.305	4230.42
691.495	4308.24
691.684	4023.58
691.874	4148.5
692.063	4158.74
692.252	4066.58
692.442	4050.2
692.631	4072.73
692.82	4087.06
693.01	3857.69
693.199	3943.71
693.388	3757.34
693.578	3892.51
693.767	3818.78
693.956	3792.16
694.146	3779.87
694.335	3769.63
694.524	3564.83
694.713	3722.52
694.902	3755.29
695.092	3722.52
695.281	3654.94
695.47	3669.28
695.659	3532.06
695.848	3654.94
696.037	3728.67
696.226	3613.98
696.415	3583.26
696.604	3659.04
696.793	3616.03
696.982	3509.54
697.171	3349.79
697.36	3622.17
697.549	3448.1
697.738	3452.19
697.927	3513.63
698.116	3431.71
698.305	3446.05
698.494	3480.86
698.683	3417.38
698.872	3620.13
699.061	3413.28
699.25	3411.23
699.438	3425.57
699.627	3493.15
699.816	3429.66
700.005	3444
700.193	3484.96
700.382	3509.54
700.571	3501.34
700.76	3366.18
700.948	3495.2
701.137	3288.36
701.326	3521.82
701.514	3349.79
701.703	3411.23
701.892	3527.97
702.08	3390.75
702.269	3417.38
702.457	3251.49
702.646	3431.71
702.834	3374.37
703.023	3511.58
703.212	3323.17
703.4	3573.02
703.589	3482.91
703.777	3423.52
703.965	3407.14
704.154	3452.19
704.342	3417.38
704.531	3673.37
704.719	3446.05
704.907	3474.72
705.096	3521.82
705.284	3378.47
705.472	3558.69
705.661	3575.07
705.849	3482.91
706.037	3456.29
706.226	3507.49
706.414	3517.73
706.602	3495.2
706.79	3548.45
706.979	3423.52
707.167	3700
707.355	3532.06
707.543	3654.94
707.731	3560.73
707.919	3460.38
708.107	3591.45
708.296	3603.74
708.484	3681.57
708.672	3716.38
708.86	3636.51
709.048	3669.28
709.236	3652.89
709.424	3548.45
709.612	3683.61
709.8	3706.14
709.988	3781.92
710.176	3689.76
710.364	3568.93
710.551	3763.48
710.739	3665.18
710.927	3763.48
711.115	3693.85
711.303	3837.21
711.491	3638.56
711.679	3886.36
711.866	3845.4
712.054	3988.76
712.242	3892.51
712.43	3999
712.617	3927.32
712.805	3794.2
712.993	3984.66
713.181	3919.13
713.368	3978.52
713.556	3978.52
713.744	4019.48
713.931	4101.4
714.119	4013.34
714.306	4130.07
714.494	4007.19
714.682	4080.92
714.869	3953.94
715.057	4066.58
715.244	4070.68
715.432	4115.73
715.619	4195.61
715.807	4042.01
715.994	4226.32
716.182	4244.76
716.369	4263.19
716.556	4287.76
716.744	4101.4
716.931	4355.35
717.119	4367.63
717.306	4363.54
717.493	4252.95
717.681	4508.94
717.868	4418.83
718.055	4390.16
718.242	4300.05
718.43	4308.24
718.617	4467.99
718.804	4433.17
718.991	4467.99
719.179	4472.08
719.366	4529.42
719.553	4461.84
719.74	4562.19
719.927	4558.1
720.114	4474.13
720.301	4390.16
720.488	4490.51
720.676	4660.49
720.863	4709.65
721.05	4654.35
721.237	4590.86
721.424	4607.25
721.611	4597.01
721.798	4627.73
721.985	4824.33
722.172	4633.87
722.358	4740.36
722.545	4873.48
722.732	4664.59
722.919	4789.52
723.106	4828.43
723.293	4783.37
723.48	4787.47
723.667	4932.87
723.853	4769.04
724.04	4744.46
724.227	4924.68
724.414	4857.1
724.6	5080.33
724.787	4965.64
724.974	4908.3
725.161	5010.7
725.347	4920.59
725.534	4920.59
725.72	4979.98
725.907	4930.83
726.094	5059.85
726.28	5080.33
726.467	5109
726.653	5111.05
726.84	5143.81
727.027	5104.9
727.213	5145.86
727.4	5158.15
727.586	5289.22
727.773	5141.77
727.959	5080.33
728.145	5201.16
728.332	5057.8
728.518	5088.52
728.705	5256.45
728.891	5221.64
729.077	5145.86
729.264	5287.17
729.45	5285.12
729.636	5512.45
729.823	5367.04
730.009	5238.02
730.195	5217.54
730.382	5342.47
730.568	5365
730.754	5399.81
730.94	5383.43
731.126	5508.35
731.313	5344.52
731.499	5344.52
731.685	5391.62
731.871	5377.28
732.057	5432.58
732.243	5338.37
732.429	5655.81
732.615	5375.24
732.801	5471.49
732.987	5641.47
733.173	5549.31
733.359	5606.66
733.545	5526.78
733.731	5489.92
733.917	5580.03
734.103	5332.23
734.289	5489.92
734.475	5405.95
734.661	5489.92
734.847	5571.84
735.033	5442.82
735.219	5532.93
735.404	5551.36
735.59	5672.19
735.776	5451.01
735.962	5500.16
736.148	5575.94
736.333	5571.84
736.519	5577.98
736.705	5524.74
736.89	5623.04
737.076	5506.31
737.262	5467.39
737.447	5555.46
737.633	5549.31
737.819	5508.35
738.004	5475.59
738.19	5524.74
738.375	5584.13
738.561	5610.75
738.747	5426.43
738.932	5477.63
739.118	5369.09
739.303	5414.15
739.489	5553.41
739.674	5477.63
739.859	5541.12
740.045	5580.03
740.23	5655.81
740.416	5324.04
740.601	5655.81
740.786	5373.19
740.972	5408
741.157	5582.08
741.342	5385.48
741.528	5405.95
741.713	5418.24
741.898	5483.78
742.084	5385.48
742.269	5332.23
742.454	5336.32
742.639	5192.97
742.824	5307.65
743.01	5328.13
743.195	5297.41
743.38	5278.98
743.565	5238.02
743.75	5065.99
743.935	5289.22
744.12	5289.22
744.305	5027.08
744.49	5215.49
744.675	5082.38
744.86	5053.7
745.045	4945.16
745.23	5008.65
745.415	4814.09
745.6	5106.95
745.785	4979.98
745.97	4941.07
746.155	4979.98
746.34	4988.17
746.525	4967.69
746.71	5006.6
746.895	4771.08
747.079	4906.25
747.264	4760.84
747.449	4650.25
747.634	4672.78
747.819	4898.06
748.003	4736.27
748.188	4568.34
748.373	4656.4
748.557	4605.2
748.742	4531.47
748.927	4644.11
749.111	4549.9
749.296	4525.33
749.481	4451.6
749.665	4582.67
749.85	4267.28
750.034	4347.15
750.219	4359.44
750.404	4345.11
750.588	4146.45
750.773	4252.95
750.957	4214.04
751.141	4211.99
751.326	4185.37
751.51	4115.73
751.695	4230.42
751.879	4058.39
752.064	4209.94
752.248	4068.63
752.432	4093.21
752.617	4093.21
752.801	3929.37
752.985	4068.63
753.17	3874.07
753.354	3878.17
753.538	3908.89
753.722	3796.25
753.907	3812.64
754.091	3732.76
754.275	3691.8
754.459	3804.44
754.643	3753.24
754.828	3435.81
755.012	3530.02
755.196	3599.65
755.38	3419.43
755.564	3448.1
755.748	3540.26
755.932	3603.74
756.116	3560.73
756.3	3388.71
756.484	3458.34
756.668	3308.83
756.852	3370.27
757.036	3362.08
757.22	3292.45
757.404	3370.27
757.588	3308.83
757.772	3302.69
757.956	3206.44
758.14	3327.27
758.323	3185.96
758.507	3212.58
758.691	3015.98
758.875	3190.05
759.059	3136.81
759.242	3093.8
759.426	2983.21
759.61	3040.55
759.794	3048.74
759.977	3040.55
760.161	3034.41
760.345	2968.87
760.528	2993.45
760.712	2882.86
760.895	2866.47
761.079	3056.93
761.263	2878.76
761.446	2731.31
761.63	2811.18
761.813	2952.49
761.997	2802.99
762.18	2655.53
762.364	2719.02
762.547	2639.15
762.731	2594.09
762.914	2759.98
763.098	2755.88
763.281	2655.53
763.464	2592.05
763.648	2520.37
763.831	2579.76
764.015	2512.18
764.198	2479.41
764.381	2604.33
764.564	2616.62
764.748	2659.63
764.931	2673.96
765.114	2551.09
765.297	2546.99
765.481	2514.22
765.664	2549.04
765.847	2434.35
766.03	2503.98
766.213	2559.28
766.397	2452.78
766.58	2338.1
766.763	2442.54
766.946	2397.49
767.129	2352.43
767.312	2426.16
767.495	2321.71
767.678	2276.66
767.861	2307.38
768.044	2252.08
768.227	2360.63
768.41	2309.43
768.593	2256.18
768.776	2284.85
768.959	2344.24
769.142	2268.47
769.324	2282.8
769.507	2221.36
769.69	2288.95
769.873	2098.49
770.056	2190.64
770.239	2133.3
770.421	2280.75
770.604	2080.05
770.787	2092.34
770.97	2012.47
771.152	2125.11
771.335	2075.96
771.518	2024.76
771.7	2082.1
771.883	2100.53
772.066	2047.29
772.248	1871.16
772.431	2039.09
772.613	2110.77
772.796	1975.61
772.978	1994.04
773.161	2084.15
773.343	2002.23
773.526	1875.26
773.708	1951.03
773.891	1973.56
774.073	1903.93
774.256	1897.78
774.438	1940.79
774.621	1879.35
774.803	1803.58
774.985	1848.63
775.168	1822.01
775.35	1826.11
775.532	1813.82
775.715	1707.32
775.897	1801.53
776.079	1721.66
776.261	1703.23
776.444	1721.66
776.626	1703.23
776.808	1613.12
776.99	1645.88
777.173	1649.98
777.355	1639.74
777.537	1652.03
777.719	1596.73
777.901	1606.97
778.083	1543.49
778.265	1547.58
778.447	1537.34
778.629	1518.91
778.811	1465.66
778.993	1563.97
779.175	1492.29
779.357	1453.38
779.539	1400.13
779.721	1420.61
779.903	1418.56
780.085	1506.62
780.267	1480
780.449	1383.74
780.631	1455.42
780.812	1443.14
780.994	1295.68
781.176	1236.29
781.358	1312.07
781.54	1224
781.721	1408.32
781.903	1330.5
782.085	1256.77
782.267	1314.11
782.448	1150.28
782.63	1215.81
782.812	1258.82
782.993	1226.05
783.175	1230.15
783.357	1230.15
783.538	1279.3
783.72	1248.58
783.901	1119.56
784.083	1250.63
784.264	1131.84
784.446	1172.8
784.627	1094.98
784.809	1144.13
784.99	1097.03
785.172	1127.75
785.353	1158.47
785.535	1068.36
785.716	1076.55
785.897	1068.36
786.079	1041.73
786.26	1074.5
786.441	1146.18
786.623	953.67
786.804	1027.4
786.985	1000.77
787.167	1041.73
787.348	904.52
787.529	984.39
787.71	1013.06
787.891	1000.77
788.073	931.14
788.254	888.14
788.435	877.9
788.616	927.05
788.797	982.34
788.978	879.94
789.159	929.1
789.34	994.63
789.522	888.14
789.703	859.46
789.884	931.14
790.065	836.94
790.246	912.71
790.427	705.87
790.607	834.89
790.788	937.29
790.969	822.6
791.15	795.98
791.331	748.87
791.512	781.64
791.693	812.36
791.874	816.46
792.054	879.94
792.235	851.27
792.416	703.82
792.597	785.74
792.778	765.26
792.958	793.93
793.139	779.59
793.32	744.78
793.5	759.11
793.681	838.98
793.862	728.39
794.042	662.86
794.223	779.59
794.404	757.07
794.584	662.86
794.765	662.86
794.945	724.3
795.126	777.55
795.306	773.45
795.487	734.54
795.667	732.49
795.848	746.83
796.028	740.68
796.209	634.19
796.389	705.87
796.57	630.09
796.75	548.17
796.93	652.62
797.111	671.05
797.291	607.56
797.471	703.82
797.652	650.57
797.832	576.84
798.012	613.71
798.192	591.18
798.373	552.27
798.553	570.7
798.733	601.42
798.913	539.98
799.093	597.32
799.274	658.76
799.454	654.67
799.634	662.86
799.814	634.19
799.994	531.79
800.174	578.89
800.354	550.22
800.534	587.08
800.714	593.23
800.894	542.03
801.074	529.74
801.254	535.89
801.434	689.48
801.614	609.61
801.794	460.11
801.974	1285.44
802.154	607.56
802.334	558.41
802.514	519.5
802.693	626
802.873	496.97
803.053	503.12
803.233	593.23
803.413	492.88
803.592	466.25
803.772	413.01
803.952	564.56
804.131	413.01
804.311	484.69
804.491	464.21
804.67	468.3
804.85	478.54
805.03	515.41
805.209	578.89
805.389	511.31
805.568	496.97
805.748	462.16
805.928	515.41
806.107	462.16
806.287	499.02
806.466	453.97
806.646	466.25
806.825	486.73
807.004	490.83
807.184	484.69
807.363	464.21
807.543	408.91
807.722	453.97
807.901	413.01
808.081	431.44
808.26	355.66
808.439	417.1
808.619	410.96
808.798	443.73
808.977	413.01
809.156	464.21
809.336	482.64
809.515	486.73
809.694	367.95
809.873	404.82
810.052	308.56
810.231	376.14
810.411	398.67
810.59	466.25
810.769	394.58
810.948	447.82
811.127	374.1
811.306	339.28
811.485	351.57
811.664	431.44
811.843	349.52
812.022	372.05
812.201	388.43
812.38	353.62
812.559	306.51
812.737	333.14
812.916	277.84
813.095	347.47
813.274	347.47
813.453	304.46
813.632	347.47
813.811	413.01
813.989	290.13
814.168	388.43
814.347	314.7
814.526	349.52
814.704	400.72
814.883	304.46
815.062	345.42
815.24	345.42
815.419	249.17
815.598	406.86
815.776	245.07
815.955	273.75
816.133	281.94
816.312	351.57
816.49	314.7
816.669	286.03
816.847	324.94
817.026	347.47
817.204	281.94
817.383	429.39
817.561	226.64
817.74	304.46
817.918	273.75
818.097	257.36
818.275	286.03
818.453	269.65
818.632	339.28
818.81	337.23
818.988	273.75
819.167	269.65
819.345	335.18
819.523	251.22
819.701	236.88
819.879	380.24
820.058	251.22
820.236	314.7
820.414	314.7
820.592	230.74
820.77	224.59
820.948	257.36
821.127	267.6
821.305	275.79
821.483	214.35
821.661	339.28
821.839	240.98
822.017	163.15
822.195	236.88
822.373	288.08
822.551	261.46
822.729	353.62
822.907	232.79
823.085	249.17
823.262	245.07
823.44	200.02
823.618	259.41
823.796	263.51
823.974	187.73
824.152	247.12
824.329	181.59
824.507	208.21
824.685	271.7
824.863	281.94
825.04	216.4
825.218	220.5
825.396	228.69
825.574	224.59
825.751	288.08
825.929	200.02
826.107	175.44
826.284	247.12
826.462	193.87
826.639	146.77
826.817	224.59
826.994	240.98
827.172	183.63
827.349	206.16
827.527	197.97
827.704	253.27
827.882	269.65
828.059	191.83
828.237	202.07
828.414	150.87
828.591	157.01
828.769	251.22
828.946	171.35
829.124	204.11
829.301	191.83
829.478	122.2
829.655	236.88
829.833	173.39
830.01	126.29
830.187	204.11
830.364	208.21
830.542	206.16
830.719	200.02
830.896	157.01
831.073	197.97
831.25	204.11
831.427	136.53
831.604	154.96
831.782	171.35
831.959	191.83
832.136	85.33
832.313	191.83
832.49	154.96
832.667	200.02
832.844	77.14
833.021	169.3
833.198	212.31
833.374	109.91
833.551	118.1
833.728	142.68
833.905	173.39
834.082	52.56
834.259	161.11
834.436	179.54
834.612	93.52
834.789	122.2
834.966	195.92
835.143	116.05
835.319	142.68
835.496	177.49
835.673	111.96
835.85	183.63
836.026	173.39
836.203	216.4
836.38	126.29
836.556	175.44
836.733	97.62
836.909	240.98
837.086	183.63
837.262	138.58
837.439	124.24
837.616	103.76
837.792	120.15
837.968	138.58
838.145	71
838.321	85.33
838.498	40.28
838.674	210.26
838.851	146.77
839.027	118.1
839.203	101.72
839.38	163.15
839.556	89.43
839.732	179.54
839.909	157.01
840.085	152.92
840.261	81.24
840.437	148.82
840.614	19.8
840.79	175.44
840.966	173.39
841.142	142.68
841.318	122.2
841.494	220.5
841.671	165.2
841.847	66.9
842.023	105.81
842.199	185.68
842.375	204.11
842.551	109.91
842.727	101.72
842.903	132.44
843.079	52.56
843.255	105.81
843.431	68.95
843.607	109.91
843.783	-2.73
843.959	138.58
844.134	165.2
844.31	187.73
844.486	68.95
844.662	118.1
844.838	81.24
845.013	183.63
845.189	116.05
845.365	118.1
845.541	130.39
845.716	87.38
845.892	183.63
846.068	34.13
846.244	23.89
846.419	42.32
846.595	93.52
846.77	126.29
846.946	81.24
847.122	50.52
847.297	134.48
847.473	116.05
847.648	19.8
847.824	159.06
847.999	56.66
848.175	52.56
848.35	171.35
848.526	99.67
848.701	161.11
848.876	212.31
849.052	101.72
849.227	75.09
849.403	66.9
849.578	68.95
849.753	105.81
849.929	85.33
850.104	105.81
850.279	111.96
850.454	-12.97
850.63	128.34
850.805	44.37
850.98	36.18
851.155	105.81
851.33	148.82
851.505	97.62
851.681	148.82
851.856	85.33
852.031	101.72
852.206	154.96
852.381	85.33
852.556	77.14
852.731	79.19
852.906	50.52
853.081	48.47
853.256	105.81
853.431	83.28
853.606	-35.5
853.781	56.66
853.956	11.61
854.131	58.71
854.305	101.72
854.48	83.28
854.655	91.48
854.83	1.37
855.005	42.32
855.18	97.62
855.354	56.66
855.529	85.33
855.704	68.95
855.879	103.76
856.053	73.04
856.228	52.56
856.403	42.32
856.577	46.42
856.752	68.95
856.926	66.9
857.101	124.24
857.276	48.47
857.45	64.85
857.625	132.44
857.799	44.37
857.974	66.9
858.148	15.7
858.323	48.47
858.497	25.94
858.672	42.32
858.846	15.7
859.02	99.67
859.195	-80.55
859.369	1.37
859.543	126.29
859.718	99.67
859.892	52.56
860.066	50.52
860.241	42.32
860.415	64.85
860.589	50.52
860.763	75.09
860.938	32.08
861.112	11.61
861.286	54.61
861.46	77.14
861.634	101.72
861.808	118.1
861.982	34.13
862.157	58.71
862.331	89.43
862.505	30.04
862.679	40.28
862.853	9.56
863.027	58.71
863.201	134.48
863.375	3.41
863.549	17.75
863.722	81.24
863.896	32.08
864.07	-23.21
864.244	17.75
864.418	71
864.592	11.61
864.766	11.61
864.939	66.9
865.113	34.13
865.287	85.33
865.461	23.89
865.634	101.72
865.808	5.46
865.982	3.41
866.156	23.89
866.329	-23.21
866.503	-17.07
866.676	126.29
866.85	-4.78
867.024	25.94
867.197	68.95
867.371	50.52
867.544	68.95
867.718	66.9
867.891	114
868.065	-47.79
868.238	7.51
868.412	36.18
868.585	44.37
868.759	-31.4
868.932	-23.21
869.105	64.85
869.279	19.8
869.452	23.89
869.625	11.61
869.799	9.56
869.972	-37.55
870.145	46.42
870.319	-12.97
870.492	66.9
870.665	3.41
870.838	68.95
871.011	-37.55
871.185	56.66
871.358	11.61
871.531	-21.16
871.704	-37.55
871.877	11.61
872.05	-23.21
872.223	50.52
872.396	89.43
872.569	105.81
872.742	15.7
872.915	15.7
873.088	68.95
873.261	-72.36
873.434	73.04
873.607	27.99
873.78	64.85
873.953	-47.79
874.126	97.62
874.299	-29.35
874.471	40.28
874.644	1.37
874.817	68.95
874.99	50.52
875.163	19.8
875.335	-27.31
875.508	3.41
875.681	111.96
875.853	75.09
876.026	58.71
876.199	50.52
876.371	11.61
876.544	3.41
876.717	23.89
876.889	-62.12
877.062	87.38
877.234	-49.83
877.407	11.61
877.579	58.71
877.752	19.8
877.924	64.85
878.097	-0.68
878.269	-2.73
878.442	68.95
878.614	42.32
878.786	27.99
878.959	15.7
879.131	1.37
879.303	-21.16
879.476	83.28
879.648	-4.78
879.82	34.13
879.993	-0.68
880.165	-10.92
880.337	-45.74
880.509	50.52
880.681	-35.5
880.854	85.33
881.026	44.37
881.198	66.9
881.37	11.61
881.542	64.85
881.714	5.46
881.886	11.61
882.058	52.56
882.23	3.41
882.402	-12.97
882.574	83.28
882.746	32.08
882.918	27.99
883.09	11.61
883.262	23.89
883.434	-62.12
883.606	36.18
883.778	52.56
883.95	23.89
884.122	52.56
884.293	44.37
884.465	36.18
884.637	32.08
884.809	-62.12
884.98	42.32
885.152	-37.55
885.324	77.14
885.496	-29.35
885.667	77.14
885.839	-0.68
886.011	66.9
886.182	-12.97
886.354	83.28
886.525	-55.98
886.697	-2.73
886.869	36.18
887.04	17.75
887.212	99.67
887.383	-4.78
887.555	-8.87
887.726	44.37
887.897	-78.51
888.069	23.89
888.24	-51.88
888.412	50.52
888.583	15.7
888.754	93.52
888.926	-0.68
889.097	11.61
889.268	-17.07
889.44	7.51
889.611	-82.6
889.782	-39.59
889.953	17.75
890.125	-6.83
890.296	-107.18
890.467	-47.79
890.638	-29.35
890.809	-4.78
890.98	-33.45
891.151	36.18
891.323	27.99
891.494	19.8
891.665	-0.68
891.836	-8.87
892.007	-31.4
892.178	5.46
892.349	23.89
892.52	-0.68
892.691	-10.92
892.862	-4.78
893.032	-21.16
893.203	46.42
893.374	-2.73
893.545	56.66
893.716	19.8
893.887	11.61
894.057	-4.78
894.228	9.56
894.399	27.99
894.57	54.61
894.74	-51.88
894.911	3.41
895.082	-4.78
895.253	1.37
895.423	66.9
895.594	87.38
895.764	-21.16
895.935	89.43
896.106	-35.5
896.276	21.85
896.447	11.61
896.617	-33.45
896.788	-60.07
896.958	-25.26
897.129	21.85
897.299	17.75
897.47	73.04
897.64	-4.78
897.81	-23.21
897.981	9.56
898.151	-21.16
898.322	56.66
898.492	25.94
898.662	-8.87
898.832	17.75
899.003	-15.02
899.173	-21.16
899.343	7.51
899.513	-60.07
