Data from USB4F104151__37__11-30-18-513.txt Node

Date: Fri Mar 14 11:30:18 EDT 2025
User: louis
Spectrometer: USB4F10415
Trigger mode: 4
Integration Time (sec): 5.000000E-2
Scans to average: 1
Electric dark correction enabled: true
Nonlinearity correction enabled: false
Boxcar width: 0
XAxis mode: Wavelengths
Number of Pixels in Spectrum: 3648
>>>>>Begin Spectral Data<<<<<
178.204	-49.83
178.424	-49.83
178.644	-49.83
178.864	-172.71
179.084	-156.33
179.304	-49.83
179.524	52.56
179.744	-62.12
179.964	71
180.184	-29.35
180.404	15.7
180.624	11.61
180.844	13.65
181.064	-31.4
181.283	-6.83
181.503	-21.16
181.723	36.18
181.943	25.94
182.163	105.81
182.383	101.72
182.602	124.24
182.822	107.86
183.042	44.37
183.262	-53.93
183.482	19.8
183.701	83.28
183.921	66.9
184.141	40.28
184.361	95.57
184.58	91.48
184.8	9.56
185.02	17.75
185.239	52.56
185.459	15.7
185.679	34.13
185.898	62.8
186.118	-12.97
186.338	40.28
186.557	27.99
186.777	-31.4
186.997	56.66
187.216	-39.59
187.436	75.09
187.655	11.61
187.875	64.85
188.095	42.32
188.314	-31.4
188.534	54.61
188.753	46.42
188.973	75.09
189.192	122.2
189.412	3.41
189.631	-29.35
189.851	44.37
190.07	23.89
190.29	-15.02
190.509	15.7
190.729	48.47
190.948	44.37
191.168	144.72
191.387	109.91
191.607	-15.02
191.826	19.8
192.045	66.9
192.265	-6.83
192.484	3.41
192.704	34.13
192.923	11.61
193.142	118.1
193.362	95.57
193.581	146.77
193.8	101.72
194.02	44.37
194.239	42.32
194.458	91.48
194.678	-17.07
194.897	73.04
195.116	-33.45
195.335	91.48
195.555	23.89
195.774	3.41
195.993	56.66
196.212	3.41
196.432	60.76
196.651	60.76
196.87	36.18
197.089	62.8
197.308	91.48
197.528	91.48
197.747	11.61
197.966	50.52
198.185	99.67
198.404	7.51
198.623	95.57
198.842	27.99
199.062	93.52
199.281	77.14
199.5	19.8
199.719	7.51
199.938	134.48
200.157	44.37
200.376	40.28
200.595	25.94
200.814	44.37
201.033	36.18
201.252	130.39
201.471	81.24
201.69	50.52
201.909	5.46
202.128	101.72
202.347	142.68
202.566	79.19
202.785	-66.22
203.004	-6.83
203.223	163.15
203.442	27.99
203.661	19.8
203.879	27.99
204.098	101.72
204.317	9.56
204.536	66.9
204.755	-0.68
204.974	85.33
205.193	77.14
205.411	146.77
205.63	42.32
205.849	124.24
206.068	109.91
206.287	66.9
206.505	118.1
206.724	1.37
206.943	-0.68
207.162	36.18
207.381	-4.78
207.599	-31.4
207.818	48.47
208.037	48.47
208.255	105.81
208.474	99.67
208.693	66.9
208.911	66.9
209.13	11.61
209.349	60.76
209.567	-21.16
209.786	107.86
210.005	32.08
210.223	3.41
210.442	-33.45
210.661	19.8
210.879	107.86
211.098	77.14
211.316	19.8
211.535	114
211.753	44.37
211.972	48.47
212.191	54.61
212.409	44.37
212.628	23.89
212.846	-33.45
213.065	97.62
213.283	89.43
213.502	66.9
213.72	34.13
213.938	48.47
214.157	11.61
214.375	56.66
214.594	7.51
214.812	44.37
215.031	50.52
215.249	15.7
215.467	42.32
215.686	9.56
215.904	154.96
216.122	-60.07
216.341	81.24
216.559	38.23
216.778	107.86
216.996	48.47
217.214	140.63
217.432	118.1
217.651	36.18
217.869	50.52
218.087	36.18
218.306	64.85
218.524	36.18
218.742	-0.68
218.96	77.14
219.179	19.8
219.397	52.56
219.615	73.04
219.833	21.84
220.051	-41.64
220.27	142.68
220.488	60.76
220.706	73.04
220.924	-0.68
221.142	107.86
221.36	44.37
221.578	79.19
221.796	-10.92
222.015	56.66
222.233	-21.16
222.451	91.48
222.669	56.66
222.887	15.7
223.105	-31.4
223.323	-43.69
223.541	-45.74
223.759	73.04
223.977	44.37
224.195	132.44
224.413	25.94
224.631	19.8
224.849	11.61
225.067	132.44
225.285	95.57
225.503	56.66
225.721	68.95
225.939	116.05
226.157	3.41
226.375	144.72
226.592	-37.55
226.81	48.47
227.028	60.76
227.246	101.72
227.464	73.04
227.682	25.94
227.9	93.52
228.117	50.52
228.335	52.56
228.553	13.65
228.771	85.33
228.989	73.04
229.206	52.56
229.424	17.75
229.642	9.56
229.86	17.75
230.077	107.86
230.295	9.56
230.513	27.99
230.731	40.28
230.948	116.05
231.166	71
231.384	77.14
231.601	23.89
231.819	89.43
232.037	-2.73
232.254	27.99
232.472	46.42
232.689	-37.55
232.907	25.94
233.125	-4.78
233.342	46.42
233.56	68.95
233.777	7.51
233.995	7.51
234.213	77.14
234.43	62.8
234.648	73.04
234.865	11.61
235.083	58.71
235.3	27.99
235.518	36.18
235.735	97.62
235.953	87.38
236.17	23.89
236.388	3.41
236.605	73.04
236.822	52.56
237.04	83.28
237.257	56.66
237.475	27.99
237.692	56.66
237.909	101.72
238.127	-19.11
238.344	87.38
238.562	89.43
238.779	-47.79
238.996	9.56
239.214	58.71
239.431	15.7
239.648	5.46
239.865	97.62
240.083	56.66
240.3	56.66
240.517	19.8
240.735	73.04
240.952	23.89
241.169	109.91
241.386	105.81
241.603	3.41
241.821	1.37
242.038	34.13
242.255	126.29
242.472	118.1
242.689	50.52
242.907	93.52
243.124	-12.97
243.341	3.41
243.558	-12.97
243.775	-70.31
243.992	11.61
244.209	75.09
244.426	64.85
244.643	27.99
244.86	103.76
245.078	-8.87
245.295	83.28
245.512	21.84
245.729	52.56
245.946	77.14
246.163	-2.73
246.38	77.14
246.597	50.52
246.814	146.77
247.031	-10.92
247.248	91.48
247.464	11.61
247.681	11.61
247.898	60.76
248.115	19.8
248.332	-6.83
248.549	114
248.766	64.85
248.983	95.57
249.2	25.94
249.417	118.1
249.633	64.85
249.85	-4.78
250.067	79.19
250.284	73.04
250.501	15.7
250.717	101.72
250.934	11.61
251.151	62.8
251.368	-0.68
251.585	120.15
251.801	27.99
252.018	68.95
252.235	60.76
252.451	34.13
252.668	-62.12
252.885	30.04
253.102	146.77
253.318	116.05
253.535	36.18
253.752	52.56
253.968	-17.07
254.185	-4.78
254.401	75.09
254.618	81.24
254.835	75.09
255.051	36.18
255.268	27.99
255.484	77.14
255.701	27.99
255.917	56.66
256.134	89.43
256.351	75.09
256.567	-0.68
256.784	150.87
257	44.37
257.217	42.32
257.433	27.99
257.65	48.47
257.866	73.04
258.082	-62.12
258.299	56.66
258.515	15.7
258.732	44.37
258.948	-53.93
259.165	19.8
259.381	34.13
259.597	68.95
259.814	44.37
260.03	73.04
260.246	7.51
260.463	64.85
260.679	30.04
260.895	32.08
261.112	73.04
261.328	50.52
261.544	40.28
261.761	99.67
261.977	-4.78
262.193	48.47
262.409	91.48
262.626	32.08
262.842	-15.02
263.058	25.94
263.274	-8.87
263.49	60.76
263.707	68.95
263.923	99.67
264.139	-49.83
264.355	-17.07
264.571	34.13
264.787	27.99
265.004	116.05
265.22	17.75
265.436	128.34
265.652	-8.87
265.868	77.14
266.084	36.18
266.3	66.9
266.516	17.75
266.732	118.1
266.948	77.14
267.164	52.56
267.38	103.76
267.596	17.75
267.812	68.95
268.028	58.71
268.244	50.52
268.46	27.99
268.676	3.41
268.892	15.7
269.108	54.61
269.324	60.76
269.54	17.75
269.756	40.28
269.972	52.56
270.188	-6.83
270.403	21.84
270.619	68.95
270.835	85.33
271.051	-31.4
271.267	13.65
271.483	46.42
271.698	17.75
271.914	150.87
272.13	30.04
272.346	116.05
272.562	-62.12
272.777	79.19
272.993	-19.11
273.209	11.61
273.425	27.99
273.64	42.32
273.856	118.1
274.072	44.37
274.287	60.76
274.503	40.28
274.719	1.37
274.934	58.71
275.15	-0.68
275.366	56.66
275.581	19.8
275.797	85.33
276.012	34.13
276.228	34.13
276.444	27.99
276.659	89.43
276.875	36.18
277.09	85.33
277.306	-0.68
277.521	64.85
277.737	34.13
277.952	44.37
278.168	105.81
278.383	89.43
278.599	-17.07
278.814	3.41
279.03	58.71
279.245	85.33
279.461	25.94
279.676	56.66
279.892	-23.21
280.107	15.7
280.322	83.28
280.538	73.04
280.753	-4.78
280.969	150.87
281.184	32.08
281.399	99.67
281.615	9.56
281.83	52.56
282.045	-8.87
282.26	17.75
282.476	-4.78
282.691	101.72
282.906	48.47
283.122	27.99
283.337	77.14
283.552	56.66
283.767	50.52
283.983	58.71
284.198	30.04
284.413	71
284.628	-41.64
284.843	19.8
285.058	91.48
285.274	85.33
285.489	-29.35
285.704	19.8
285.919	23.89
286.134	83.28
286.349	44.37
286.564	68.95
286.779	46.42
286.995	101.72
287.21	-39.59
287.425	15.7
287.64	27.99
287.855	38.23
288.07	32.08
288.285	140.63
288.5	32.08
288.715	52.56
288.93	-29.35
289.145	11.61
289.36	85.33
289.575	-0.68
289.79	64.85
290.004	42.32
290.219	19.8
290.434	52.56
290.649	89.43
290.864	13.65
291.079	36.18
291.294	68.95
291.509	27.99
291.724	-17.07
291.938	107.86
292.153	73.04
292.368	-12.97
292.583	34.13
292.798	32.08
293.012	150.87
293.227	75.09
293.442	-15.02
293.657	83.28
293.871	101.72
294.086	11.61
294.301	58.71
294.516	93.52
294.73	-15.02
294.945	11.61
295.16	64.85
295.374	42.32
295.589	40.28
295.804	58.71
296.018	56.66
296.233	17.75
296.447	122.2
296.662	97.62
296.877	75.09
297.091	44.37
297.306	25.94
297.52	1.37
297.735	-17.07
297.949	19.8
298.164	93.52
298.378	64.85
298.593	3.41
298.807	23.89
299.022	71
299.236	85.33
299.451	71
299.665	50.52
299.88	85.33
300.094	99.67
300.309	21.84
300.523	-4.78
300.737	17.75
300.952	19.8
301.166	91.48
301.381	32.08
301.595	27.99
301.809	58.71
302.024	34.13
302.238	-2.73
302.452	30.04
302.667	40.28
302.881	60.76
303.095	85.33
303.309	75.09
303.524	25.94
303.738	34.13
303.952	15.7
304.166	-0.68
304.381	-37.55
304.595	126.29
304.809	1.37
305.023	68.95
305.237	-4.78
305.452	89.43
305.666	44.37
305.88	132.44
306.094	60.76
306.308	89.43
306.522	40.28
306.736	1.37
306.95	85.33
307.164	-25.26
307.379	64.85
307.593	97.62
307.807	50.52
308.021	103.76
308.235	52.56
308.449	27.99
308.663	62.8
308.877	136.53
309.091	116.05
309.305	15.7
309.519	-58.03
309.733	146.77
309.947	-39.59
310.161	-6.83
310.374	68.95
310.588	85.33
310.802	3.41
311.016	-12.97
311.23	-41.64
311.444	7.51
311.658	27.99
311.872	87.38
312.085	101.72
312.299	42.32
312.513	68.95
312.727	114
312.941	27.99
313.154	44.37
313.368	148.82
313.582	3.41
313.796	75.09
314.009	79.19
314.223	109.91
314.437	68.95
314.651	52.56
314.864	107.86
315.078	13.65
315.292	58.71
315.505	15.7
315.719	101.72
315.933	85.33
316.146	-12.97
316.36	42.32
316.573	68.95
316.787	71
317.001	71
317.214	-17.07
317.428	11.61
317.641	40.28
317.855	85.33
318.068	13.65
318.282	44.37
318.495	79.19
318.709	81.24
318.922	3.41
319.136	-4.78
319.349	111.96
319.563	75.09
319.776	91.48
319.99	-66.22
320.203	27.99
320.417	130.39
320.63	60.76
320.843	44.37
321.057	42.32
321.27	-6.83
321.483	60.76
321.697	77.14
321.91	27.99
322.124	109.91
322.337	-12.97
322.55	34.13
322.763	75.09
322.977	81.24
323.19	52.56
323.403	25.94
323.617	62.8
323.83	64.85
324.043	95.57
324.256	60.76
324.469	44.37
324.683	58.71
324.896	79.19
325.109	95.57
325.322	-17.07
325.535	77.14
325.748	52.56
325.962	34.13
326.175	77.14
326.388	56.66
326.601	134.48
326.814	50.52
327.027	-4.78
327.24	101.72
327.453	-35.5
327.666	62.8
327.879	30.04
328.092	-15.02
328.305	42.32
328.518	15.7
328.731	50.52
328.944	27.99
329.157	68.95
329.37	73.04
329.583	73.04
329.796	93.52
330.009	50.52
330.222	19.8
330.435	134.48
330.648	-2.73
330.861	91.48
331.073	30.04
331.286	64.85
331.499	60.76
331.712	58.71
331.925	-12.97
332.138	27.99
332.35	79.19
332.563	105.81
332.776	111.96
332.989	19.8
333.202	71
333.414	58.71
333.627	62.8
333.84	44.37
334.053	116.05
334.265	54.61
334.478	44.37
334.691	75.09
334.903	50.52
335.116	-12.97
335.329	25.94
335.541	44.37
335.754	91.48
335.966	120.15
336.179	118.1
336.392	9.56
336.604	3.41
336.817	60.76
337.029	79.19
337.242	107.86
337.454	34.13
337.667	17.75
337.88	52.56
338.092	42.32
338.305	3.41
338.517	23.89
338.729	79.19
338.942	124.24
339.154	27.99
339.367	71
339.579	27.99
339.792	40.28
340.004	44.37
340.217	68.95
340.429	17.75
340.641	36.18
340.854	36.18
341.066	52.56
341.278	44.37
341.491	89.43
341.703	122.2
341.915	27.99
342.128	73.04
342.34	36.18
342.552	44.37
342.764	64.85
342.977	19.8
343.189	19.8
343.401	30.04
343.613	-64.17
343.826	7.51
344.038	7.51
344.25	77.14
344.462	-4.78
344.674	60.76
344.886	83.28
345.099	138.58
345.311	93.52
345.523	36.18
345.735	-43.69
345.947	30.04
346.159	52.56
346.371	7.51
346.583	-19.11
346.795	101.72
347.007	-64.17
347.219	17.75
347.431	36.18
347.643	25.94
347.855	44.37
348.067	99.67
348.279	-15.02
348.491	40.28
348.703	109.91
348.915	3.41
349.127	44.37
349.339	17.75
349.551	79.19
349.763	66.9
349.975	95.57
350.187	126.29
350.399	81.24
350.61	111.96
350.822	44.37
351.034	-4.78
351.246	48.47
351.458	-23.21
351.669	-15.02
351.881	93.52
352.093	109.91
352.305	19.8
352.517	50.52
352.728	79.19
352.94	68.95
353.152	52.56
353.363	-17.07
353.575	71
353.787	118.1
353.999	64.85
354.21	109.91
354.422	40.28
354.633	19.8
354.845	99.67
355.057	99.67
355.268	101.72
355.48	68.95
355.692	-0.68
355.903	48.47
356.115	85.33
356.326	-84.65
356.538	116.05
356.749	109.91
356.961	97.62
357.172	105.81
357.384	77.14
357.595	134.48
357.807	42.32
358.018	30.04
358.23	68.95
358.441	109.91
358.653	68.95
358.864	109.91
359.075	77.14
359.287	21.84
359.498	85.33
359.709	-2.73
359.921	56.66
360.132	52.56
360.344	73.04
360.555	68.95
360.766	99.67
360.977	23.89
361.189	95.57
361.4	64.85
361.611	19.8
361.823	85.33
362.034	81.24
362.245	52.56
362.456	77.14
362.667	77.14
362.879	81.24
363.09	89.43
363.301	40.28
363.512	79.19
363.723	-17.07
363.935	42.32
364.146	159.06
364.357	3.41
364.568	25.94
364.779	23.89
364.99	101.72
365.201	36.18
365.412	7.51
365.623	68.95
365.834	60.76
366.045	56.66
366.256	68.95
366.467	81.24
366.678	48.47
366.889	64.85
367.1	83.28
367.311	77.14
367.522	64.85
367.733	-8.87
367.944	23.89
368.155	77.14
368.366	44.37
368.577	19.8
368.788	167.25
368.999	91.48
369.209	114
369.42	165.2
369.631	25.94
369.842	56.66
370.053	-4.78
370.264	54.61
370.474	81.24
370.685	52.56
370.896	97.62
371.107	77.14
371.317	58.71
371.528	17.75
371.739	66.9
371.95	38.23
372.16	3.41
372.371	30.04
372.582	56.66
372.792	48.47
373.003	-0.68
373.214	15.7
373.424	77.14
373.635	-12.97
373.846	73.04
374.056	25.94
374.267	1.37
374.477	66.9
374.688	58.71
374.898	19.8
375.109	71
375.319	71
375.53	83.28
375.74	27.99
375.951	27.99
376.161	60.76
376.372	91.48
376.582	32.08
376.793	77.14
377.003	15.7
377.214	79.19
377.424	60.76
377.635	-70.31
377.845	-19.11
378.055	85.33
378.266	68.95
378.476	60.76
378.686	11.61
378.897	68.95
379.107	97.62
379.317	60.76
379.528	19.8
379.738	101.72
379.948	52.56
380.158	136.53
380.369	73.04
380.579	105.81
380.789	38.23
380.999	73.04
381.21	77.14
381.42	89.43
381.63	32.08
381.84	66.9
382.05	124.24
382.261	118.1
382.471	23.89
382.681	52.56
382.891	116.05
383.101	54.61
383.311	32.08
383.521	101.72
383.731	148.82
383.941	-6.83
384.151	7.51
384.361	50.52
384.571	27.99
384.781	52.56
384.991	116.05
385.201	126.29
385.411	87.38
385.621	66.9
385.831	77.14
386.041	-4.78
386.251	60.76
386.461	50.52
386.671	-29.35
386.881	7.51
387.091	42.32
387.301	122.2
387.511	42.32
387.72	68.95
387.93	30.04
388.14	-29.35
388.35	19.8
388.56	19.8
388.769	73.04
388.979	9.56
389.189	-0.68
389.399	56.66
389.609	46.42
389.818	85.33
390.028	50.52
390.238	44.37
390.447	3.41
390.657	130.39
390.867	142.68
391.076	71
391.286	36.18
391.496	48.47
391.705	52.56
391.915	44.37
392.125	60.76
392.334	99.67
392.544	109.91
392.753	77.14
392.963	73.04
393.172	58.71
393.382	50.52
393.591	77.14
393.801	81.24
394.01	116.05
394.22	107.86
394.429	19.8
394.639	54.61
394.848	75.09
395.058	109.91
395.267	52.56
395.477	36.18
395.686	101.72
395.895	200.02
396.105	163.15
396.314	150.87
396.524	118.1
396.733	109.91
396.942	36.18
397.152	83.28
397.361	105.81
397.57	91.48
397.78	66.9
397.989	19.8
398.198	130.39
398.407	91.48
398.617	126.29
398.826	66.9
399.035	54.61
399.244	93.52
399.453	93.52
399.663	85.33
399.872	171.35
400.081	73.04
400.29	142.68
400.499	60.76
400.708	114
400.917	157.01
401.127	3.41
401.336	89.43
401.545	105.81
401.754	52.56
401.963	146.77
402.172	23.89
402.381	17.75
402.59	136.53
402.799	79.19
403.008	85.33
403.217	167.25
403.426	87.38
403.635	56.66
403.844	138.58
404.053	54.61
404.262	40.28
404.471	163.15
404.68	103.76
404.888	40.28
405.097	97.62
405.306	99.67
405.515	85.33
405.724	136.53
405.933	181.59
406.142	134.48
406.35	144.72
406.559	163.15
406.768	230.74
406.977	181.59
407.185	109.91
407.394	249.17
407.603	87.38
407.812	146.77
408.02	167.25
408.229	195.92
408.438	191.83
408.646	161.11
408.855	224.59
409.064	247.12
409.272	204.11
409.481	212.31
409.69	197.97
409.898	175.44
410.107	261.46
410.315	181.59
410.524	177.49
410.733	277.84
410.941	220.5
411.15	337.23
411.358	351.57
411.567	363.86
411.775	322.9
411.984	312.66
412.192	310.61
412.401	312.66
412.609	427.34
412.818	361.81
413.026	349.52
413.234	339.28
413.443	404.82
413.651	302.42
413.86	320.85
414.068	466.25
414.276	423.25
414.485	388.43
414.693	384.34
414.901	542.03
415.11	468.3
415.318	396.62
415.526	535.89
415.734	591.18
415.943	515.41
416.151	605.52
416.359	519.5
416.567	683.34
416.776	550.22
416.984	623.95
417.192	718.15
417.4	716.11
417.608	730.44
417.817	744.78
418.025	757.07
418.233	830.79
418.441	771.4
418.649	853.32
418.857	879.94
419.065	941.38
419.273	861.51
419.481	910.66
419.689	1076.55
419.897	996.68
420.105	978.25
420.313	1051.97
420.521	1125.7
420.729	1164.61
420.937	1076.55
421.145	1240.39
421.353	1213.76
421.561	1350.98
421.769	1371.46
421.977	1375.55
422.185	1475.9
422.393	1494.33
422.601	1584.45
422.809	1668.41
423.017	1486.14
423.224	1707.32
423.432	1819.96
423.64	1686.84
423.848	1807.67
424.056	1840.44
424.263	1946.94
424.471	1944.89
424.679	1940.79
424.887	2039.09
425.094	2116.92
425.302	2125.11
425.51	2266.42
425.718	2370.87
425.925	2395.44
426.133	2473.26
426.341	2540.85
426.548	2624.81
426.756	2678.06
426.964	2622.77
427.171	2706.73
427.379	2845.99
427.586	3071.27
427.794	3181.86
428.001	3327.27
428.209	3306.79
428.417	3405.09
428.624	3648.8
428.832	3613.98
429.039	3509.54
429.247	3429.66
429.454	3714.33
429.662	4082.97
429.869	3837.21
430.076	4015.38
430.284	3927.32
430.491	4183.32
430.699	4230.42
430.906	4357.39
431.114	4295.96
431.321	4560.14
431.528	4713.74
431.736	4988.17
431.943	5238.02
432.15	5057.8
432.358	5111.05
432.565	5459.2
432.772	5188.87
432.979	5647.62
433.187	5639.42
433.394	5760.25
433.601	6149.37
433.808	6122.74
434.016	6053.11
434.223	6438.13
434.43	6722.8
434.637	6753.52
434.844	7052.52
435.052	7087.34
435.259	7269.61
435.466	7324.9
435.673	7093.48
435.88	7646.43
436.087	7941.34
436.294	8031.45
436.501	7773.41
436.708	8025.31
436.915	8221.91
437.122	8555.73
437.329	8619.22
437.537	8897.74
437.743	9184.46
437.95	8991.95
438.157	9592
438.364	9635.01
438.571	9647.3
438.778	9596.1
438.985	10736.82
439.192	10341.56
439.399	10669.23
439.606	10536.12
439.813	10908.85
440.02	11633.83
440.227	11431.08
440.433	11289.77
440.64	11594.92
440.847	11381.93
441.054	11986.08
441.261	12881.04
441.467	12676.24
441.674	12829.84
441.881	13022.35
442.088	13110.41
442.294	13157.52
442.501	13501.58
442.708	13683.84
442.914	14111.87
443.121	15010.93
443.328	14570.61
443.534	15453.29
443.741	15117.42
443.948	14732.4
444.154	15649.89
444.361	15899.75
444.568	15926.37
444.774	16079.97
444.981	16141.41
445.187	16581.72
445.394	17245.26
445.6	17073.23
445.807	18601.02
446.013	18089.03
446.22	18283.58
446.426	18965.56
446.633	18900.02
446.839	19645.48
447.046	18715.7
447.252	20098.08
447.459	19837.99
447.665	20122.66
447.871	20880.41
448.078	21652.49
448.284	20687.9
448.491	20968.47
448.697	21849.1
448.903	22678.52
449.11	22694.91
449.316	21916.68
449.522	22287.36
449.728	23147.51
449.935	23116.79
450.141	23059.45
450.347	23661.55
450.553	22932.47
450.76	23393.26
450.966	23954.41
451.172	23718.89
451.378	24503.26
451.584	23970.79
451.791	24374.24
451.997	24224.74
452.203	24765.4
452.409	24636.38
452.615	24556.51
452.821	23542.77
453.027	23491.57
453.233	24734.68
453.44	23436.27
453.646	23796.71
453.852	23778.28
454.058	24183.78
454.264	23473.14
454.47	24241.12
454.676	23522.29
454.882	24294.37
455.088	22096.9
455.294	22445.05
455.5	22729.72
455.705	22981.62
455.911	21933.06
456.117	21593.1
456.323	21287.95
456.529	20139.04
456.735	20995.09
456.941	20466.72
457.147	19946.53
457.352	19428.4
457.558	19047.47
457.764	19393.58
457.97	18838.58
458.176	18226.24
458.381	18422.84
458.587	17796.17
458.793	17337.42
458.999	16673.88
459.204	17990.72
459.41	17275.98
459.616	16235.61
459.821	16227.42
460.027	16409.69
460.233	15854.69
460.438	15232.11
460.644	15299.69
460.85	14539.9
461.055	14269.56
461.261	14318.71
461.466	13237.39
461.672	12835.99
461.878	13681.8
462.083	12885.14
462.289	12565.65
462.494	12475.54
462.7	11998.37
462.905	11422.89
463.111	12035.23
463.316	11881.63
463.522	11826.34
463.727	11717.79
463.932	11590.82
464.138	11564.2
464.343	11697.31
464.549	11170.99
464.754	11644.07
464.959	11635.88
465.165	11467.94
465.37	10968.24
465.575	10724.53
465.781	11209.9
465.986	11267.24
466.191	10652.85
466.397	10511.54
466.602	10157.24
466.807	10548.4
467.012	10439.86
467.218	10237.11
467.423	10343.61
467.628	10140.86
467.833	10583.22
468.038	10267.83
468.244	10216.63
468.449	10253.5
468.654	10167.48
468.859	9974.97
469.064	9862.33
469.269	9456.84
469.474	9829.57
469.679	9901.25
469.885	9532.61
470.09	9682.11
470.295	9602.24
470.5	9401.54
470.705	9424.07
470.91	9399.49
471.115	9037
471.32	9123.02
471.525	9288.9
471.73	9215.18
471.935	8850.64
472.139	8692.94
472.344	8727.76
472.549	8637.65
472.754	8744.14
472.959	8269.02
473.164	8111.32
473.369	8021.21
473.574	8379.61
473.778	8279.25
473.983	8482
474.188	8156.38
474.393	7855.33
474.598	8111.32
474.802	7808.22
475.007	7628
475.212	7800.03
475.417	7634.14
475.621	7691.49
475.826	7503.07
476.031	7433.44
476.235	7253.22
476.44	7204.07
476.645	7126.25
476.849	7138.54
477.054	7089.39
477.259	7083.24
477.463	6743.28
477.668	6798.57
477.872	6886.64
478.077	6730.99
478.282	6454.51
478.486	6804.72
478.691	6524.15
478.895	6550.77
479.1	6483.19
479.304	6440.18
479.509	6315.25
479.713	6440.18
479.918	6321.4
480.122	6159.61
480.326	6204.66
480.531	6380.79
480.735	6161.66
480.94	6239.48
481.144	6409.46
481.348	6096.12
481.553	6270.2
481.757	5827.84
481.961	6034.68
482.166	6214.9
482.37	5971.19
482.574	5967.1
482.778	6040.83
482.983	6130.94
483.187	5993.72
483.391	5989.63
483.595	6008.06
483.8	5917.95
484.004	6141.18
484.208	6171.9
484.412	6030.59
484.616	6040.83
484.821	5940.47
485.025	5803.26
485.229	6096.12
485.433	6132.98
485.637	5946.62
485.841	5854.46
486.045	6137.08
486.249	5852.41
486.453	5917.95
486.657	5876.99
486.861	5786.88
487.065	5803.26
487.269	5924.09
487.473	5872.89
487.677	6040.83
487.881	6153.46
488.085	6012.15
488.289	5979.39
488.493	6075.64
488.697	5967.1
488.901	6104.31
489.105	5836.03
489.309	5983.48
489.512	5854.46
489.716	6118.65
489.92	5967.1
490.124	6016.25
490.328	6104.31
490.531	6087.93
490.735	6208.76
490.939	6157.56
491.143	6085.88
491.346	6092.02
491.55	6284.53
491.754	6089.98
491.958	6184.18
492.161	6243.57
492.365	6276.34
492.569	6225.14
492.772	6380.79
492.976	6364.4
493.18	6450.42
493.383	6511.86
493.587	6528.24
493.79	6520.05
493.994	6405.36
494.197	6434.04
494.401	6737.13
494.605	6679.79
494.808	6440.18
495.012	6694.13
495.215	6892.78
495.419	6794.48
495.622	6833.39
495.825	6989.03
496.029	7089.39
496.232	7054.57
496.436	7230.69
496.639	7195.88
496.843	7238.89
497.046	7427.3
497.249	7197.93
497.453	7404.77
497.656	7496.93
497.859	7591.14
498.063	7431.4
498.266	7783.65
498.469	7660.77
498.673	7759.07
498.876	7922.91
499.079	8105.18
499.282	7924.96
499.485	8295.64
499.689	8049.88
499.892	8301.78
500.095	8279.25
500.298	8514.77
500.501	8309.97
500.705	8795.34
500.908	8871.12
501.111	8772.82
501.314	9008.33
501.517	9016.52
501.72	9254.09
501.923	9202.89
502.126	9239.75
502.329	9546.95
502.532	9659.59
502.735	9671.87
502.938	9878.72
503.141	9751.74
503.344	9823.42
503.547	9909.44
503.75	9864.38
503.953	10362.04
504.156	10384.57
504.359	10282.17
504.562	10636.47
504.765	10497.21
504.968	10654.9
505.17	10910.89
505.373	10884.27
505.576	11062.44
505.779	11152.56
505.982	11340.97
506.185	11517.09
506.387	11488.42
506.59	11682.98
506.793	11971.74
506.996	11840.67
507.198	12199.07
507.401	12113.05
507.604	12156.06
507.807	12317.85
508.009	12663.96
508.212	12592.28
508.415	12901.52
508.617	12856.47
508.82	12766.35
509.022	13077.65
509.225	13118.61
509.428	13382.79
509.63	13608.07
509.833	13540.49
510.035	13798.53
510.238	13780.1
510.44	13751.43
510.643	14306.43
510.845	14470.26
511.048	14236.8
511.25	14605.43
511.453	14595.19
511.655	14888.05
511.858	14926.96
512.06	15156.33
512.262	15170.67
512.465	15225.96
512.667	15676.52
512.87	15707.24
513.072	15555.69
513.274	16165.98
513.477	16196.7
513.679	16061.54
513.881	16405.6
514.084	16346.2
514.286	16469.08
514.488	16745.56
514.69	17124.43
514.893	17235.02
515.095	17538.12
515.297	17323.08
515.499	17323.08
515.701	17904.71
515.904	18041.92
516.106	18328.64
516.308	18199.62
516.51	18601.02
516.712	18474.04
516.914	18695.22
517.116	18961.46
517.318	19321.9
517.52	19287.09
517.722	19280.94
517.925	19434.54
518.127	19924.01
518.329	19962.92
518.531	19776.55
518.733	20409.37
518.935	20704.28
519.136	20352.03
519.338	20759.58
519.54	20816.92
519.742	20988.95
519.944	21265.42
520.146	21621.77
520.348	21558.28
520.55	21883.91
520.752	21746.7
520.954	22197.25
521.155	22084.61
521.357	22658.04
521.559	22572.03
521.761	22803.45
521.963	23114.74
522.164	23149.56
522.366	23002.1
522.568	23747.56
522.77	23587.82
522.971	24353.76
523.173	23925.74
523.375	24271.84
523.576	23735.28
523.778	24507.36
523.98	24806.36
524.181	24796.12
524.383	24919
524.584	25336.79
524.786	25371.6
524.988	25252.82
525.189	25773
525.391	25879.5
525.592	26047.43
525.794	26143.69
525.995	26166.21
526.197	26096.58
526.398	26543.04
526.6	26819.52
526.801	26702.78
527.003	26786.75
527.204	26602.43
527.406	27491.25
527.607	27155.38
527.808	27755.44
528.01	27372.47
528.211	27378.61
528.412	28105.64
528.614	27884.46
528.815	28183.46
529.016	28443.56
529.218	28236.71
529.419	28308.39
529.62	28423.08
529.822	28605.34
530.023	28414.88
530.224	28685.22
530.425	28582.82
530.626	28414.88
530.828	28507.04
531.029	29297.56
531.23	28912.54
531.431	28863.39
531.632	29262.74
531.833	29170.58
532.035	29502.36
532.236	29500.31
532.437	29266.84
532.638	29234.07
532.839	29377.43
533.04	29907.85
533.241	29363.09
533.442	29819.79
533.643	29936.52
533.844	29594.51
534.045	29993.87
534.246	29858.7
534.447	29961.1
534.648	29748.11
534.849	30100.36
535.05	29879.18
535.251	30192.52
535.451	30000.01
535.652	30163.85
535.853	29825.93
536.054	30307.21
536.255	30315.4
536.456	29959.05
536.657	30501.76
536.857	29784.97
537.058	30006.16
537.259	30366.6
537.46	30165.9
537.66	30102.41
537.861	30247.82
538.062	29905.81
538.263	30210.95
538.463	30213
538.664	30616.45
538.865	30309.25
539.065	30636.93
539.266	30241.67
539.466	30329.73
539.667	30223.24
539.868	30839.68
540.068	30376.84
540.269	30258.06
540.469	30413.7
540.67	30372.74
540.87	30434.18
541.071	30372.74
541.271	30415.75
541.472	30387.08
541.672	30065.55
541.873	30094.22
542.073	29907.85
542.274	30421.89
542.474	30270.34
542.675	30180.23
542.875	30274.44
543.075	30309.25
543.276	29981.58
543.476	30512
543.676	30110.6
543.877	30399.37
544.077	30356.36
544.277	30227.34
544.478	30028.68
544.678	30528.39
544.878	30280.58
545.078	30233.48
545.279	30043.02
545.479	30180.23
545.679	30495.62
545.879	30241.67
546.079	30292.87
546.28	30249.86
546.48	30096.27
546.68	30356.36
546.88	30253.96
547.08	29985.68
547.28	29965.2
547.48	29864.85
547.68	30049.16
547.88	29930.38
548.081	30399.37
548.281	30176.14
548.481	29932.43
548.681	30190.47
548.881	30425.99
549.081	30147.47
549.28	29797.26
549.48	30182.28
549.68	29846.41
549.88	30122.89
550.08	30063.5
550.28	30391.17
550.48	30088.07
550.68	30143.37
550.88	29584.27
551.08	30069.64
551.279	30358.41
551.479	29952.91
551.679	29979.53
551.879	30231.43
552.079	30645.12
552.278	29617.04
552.478	30161.8
552.678	30192.52
552.878	29858.7
553.077	29924.24
553.277	29592.47
553.477	29985.68
553.676	30137.23
553.876	30022.54
554.076	29469.59
554.275	29750.16
554.475	29610.9
554.674	29926.28
554.874	29797.26
555.074	29465.49
555.273	30145.42
555.473	29832.08
555.672	29643.67
555.872	29533.07
556.071	29410.2
556.271	29412.24
556.47	29320.09
556.67	29178.78
556.869	29506.45
557.068	29291.41
557.268	28992.41
557.467	29098.91
557.667	29242.26
557.866	29189.02
558.065	28818.33
558.265	29105.05
558.464	28662.69
558.663	29023.13
558.863	28584.87
559.062	28797.85
559.261	28459.94
559.461	28699.55
559.66	28173.22
559.859	28416.93
560.058	28279.72
560.258	28550.05
560.457	27945.9
560.656	28449.7
560.855	27976.62
561.054	28111.78
561.253	27874.22
561.453	27925.42
561.652	27866.03
561.851	27927.47
562.05	28087.21
562.249	27376.56
562.448	27827.12
562.647	27798.45
562.846	27452.34
563.045	27083.7
563.244	27311.03
563.443	27630.51
563.642	26926.01
563.841	26852.28
564.04	26786.75
564.239	27005.88
564.438	27155.38
564.637	26563.52
564.836	27030.46
565.035	26475.46
565.234	26794.94
565.432	26547.14
565.631	26176.45
565.83	26334.15
566.029	26201.03
566.228	26106.82
566.427	25899.98
566.625	25777.1
566.824	25883.59
567.023	25904.07
567.222	25560.02
567.42	25936.84
567.619	25525.2
567.818	25248.72
568.016	25557.97
568.215	25555.92
568.414	25111.51
568.612	25482.19
568.811	25045.98
569.01	25275.35
569.208	24642.53
569.407	24962.01
569.605	24595.42
569.804	24832.99
570.002	24525.79
570.201	24609.76
570.4	24294.37
570.598	24243.17
570.797	24040.42
570.995	24097.77
571.193	23722.99
571.392	24015.85
571.59	23475.18
571.789	23882.73
571.987	23880.68
572.186	23544.81
572.384	23311.35
572.582	23610.35
572.781	23507.95
572.979	22967.29
573.177	23157.75
573.376	23497.71
573.574	23061.49
573.772	23088.12
573.971	22995.96
574.169	23184.37
574.367	22731.77
574.565	22625.28
574.763	22639.61
574.962	22778.87
575.16	22330.37
575.358	22404.1
575.556	22101
575.754	22662.14
575.952	22004.74
576.151	21945.35
576.349	21861.38
576.547	22035.46
576.745	21758.99
576.943	22178.82
577.141	21830.66
577.339	21701.64
577.537	21720.07
577.735	21560.33
577.933	21500.94
578.131	21310.48
578.329	21234.71
578.527	21347.34
578.725	21320.72
578.923	21040.15
579.121	20900.89
579.319	21242.9
579.516	20941.85
579.714	20892.69
579.912	21113.88
580.11	20452.38
580.308	20894.74
580.506	20708.38
580.704	20220.96
580.901	20468.76
581.099	20778.01
581.297	20341.79
581.495	20294.69
581.692	20024.36
581.89	20085.79
582.088	20358.17
582.285	20153.38
582.483	20124.71
582.681	19817.51
582.878	19772.46
583.076	19700.78
583.274	19860.52
583.471	19969.06
583.669	19409.97
583.866	19672.11
584.064	19639.34
584.262	19264.56
584.459	19278.9
584.657	19160.11
584.854	19358.77
585.052	19070
585.249	18940.98
585.447	19399.73
585.644	18684.98
585.841	18947.12
586.039	19262.51
586.236	18678.84
586.434	18840.63
586.631	18748.47
586.828	18783.29
587.026	18472
587.223	18676.79
587.42	18568.25
587.618	18582.59
587.815	18377.79
588.012	18256.96
588.21	18086.98
588.407	18508.86
588.604	18136.13
588.801	18125.89
588.999	18064.45
589.196	18195.52
589.393	18021.44
589.59	17972.29
589.787	17914.95
589.984	17964.1
590.182	17476.68
590.379	17865.8
590.576	17736.77
590.773	17753.16
590.97	17480.78
591.167	17654.86
591.364	17337.42
591.561	17448.01
591.758	17214.54
591.955	17232.97
592.152	17349.71
592.349	17216.59
592.546	17335.37
592.743	17032.27
592.94	16788.57
593.137	17200.21
593.334	17122.38
593.531	16847.96
593.727	16866.39
593.924	16884.82
594.121	16516.19
594.318	16823.38
594.515	16591.96
594.712	16634.97
594.908	16540.76
595.105	16690.26
595.302	16225.37
595.499	16467.03
595.696	16362.59
595.892	16049.25
596.089	16370.78
596.286	16196.7
596.482	16137.31
596.679	16075.87
596.876	16151.65
597.072	15912.03
597.269	15834.21
597.466	15797.35
597.662	15768.68
597.859	15901.79
598.055	15920.23
598.252	15608.94
598.448	15813.73
598.645	15592.55
598.841	15596.65
599.038	15662.18
599.234	15522.92
599.431	15441
599.627	15148.14
599.824	15414.38
600.02	15275.12
600.217	15289.45
600.413	15170.67
600.609	14980.21
600.806	14863.47
601.002	14904.43
601.198	14957.68
601.395	14830.71
601.591	14750.84
601.787	14785.65
601.984	14582.9
602.18	15062.13
602.376	14724.21
602.572	14496.89
602.769	14668.92
602.965	14380.15
603.161	14539.9
603.357	14511.22
603.553	14421.11
603.75	14507.13
603.946	14400.63
604.142	14335.1
604.338	14120.06
604.534	14310.52
604.73	13950.08
604.926	14165.12
605.122	13821.06
605.318	14054.53
605.514	13745.28
605.71	13872.26
605.906	13843.59
606.102	13698.18
606.298	13780.1
606.494	13704.32
606.69	13583.49
606.886	13747.33
607.082	13479.05
607.278	13724.8
607.474	13477
607.67	13479.05
607.866	13364.36
608.062	13778.05
608.257	13470.86
608.453	13149.32
608.649	13581.45
608.845	13216.91
609.041	13071.5
609.236	13239.44
609.432	13128.84
609.628	13225.1
609.824	13034.64
610.019	13192.33
610.215	12831.89
610.411	13089.93
610.606	12858.51
610.802	12954.77
610.998	12706.96
611.193	12885.14
611.389	12821.65
611.584	12694.68
611.78	12676.24
611.976	12743.83
612.171	12860.56
612.367	12709.01
612.562	12803.22
612.758	12512.41
612.953	12612.76
613.149	12819.6
613.344	12655.76
613.539	12682.39
613.735	12545.17
613.93	12561.56
614.126	12397.72
614.321	12582.04
614.517	12446.87
614.712	12276.89
614.907	12504.21
615.103	12489.88
615.298	12375.19
615.493	12381.34
615.688	12430.49
615.884	12250.27
616.079	12049.57
616.274	12182.68
616.47	12242.07
616.665	12317.85
616.86	12108.96
617.055	12090.52
617.25	12008.61
617.445	11975.84
617.641	11754.66
617.836	11938.98
618.031	11668.64
618.226	11750.56
618.421	11828.38
618.616	11914.4
618.811	11865.25
619.006	11865.25
619.201	11725.99
619.396	11865.25
619.591	11386.02
619.786	11445.41
619.981	11431.08
620.176	11490.47
620.371	11418.79
620.566	11300.01
620.761	11336.87
620.956	11435.17
621.151	11115.69
621.346	11252.91
621.541	11138.22
621.735	11121.84
621.93	10962.09
622.125	10835.12
622.32	10802.35
622.515	10822.83
622.709	10779.82
622.904	10611.89
623.099	10566.84
623.294	10771.63
623.488	10628.28
623.683	10724.53
623.878	10454.2
624.072	10396.85
624.267	10269.88
624.462	10218.68
624.656	10077.37
624.851	10388.66
625.046	10237.11
625.24	10104
625.435	10085.56
625.629	10144.95
625.824	10081.47
626.018	9843.9
626.213	9649.35
626.407	9915.58
626.602	9678.02
626.796	9651.39
626.991	9792.7
627.185	9407.69
627.38	9409.73
627.574	9510.08
627.768	9348.29
627.963	9391.3
628.157	9217.22
628.352	9299.14
628.546	9020.62
628.74	9145.55
628.935	9104.59
629.129	9176.27
629.323	9094.35
629.517	8965.32
629.712	8944.84
629.906	8850.64
630.1	8672.47
630.294	8760.53
630.489	8772.82
630.683	8781.01
630.877	8408.28
631.071	8449.24
631.265	8709.33
631.459	8572.11
631.653	8549.59
631.848	8219.86
632.042	8326.36
632.236	8379.61
632.43	8395.99
632.624	8398.04
632.818	8246.49
633.012	8131.8
633.206	8013.02
633.4	8080.6
633.594	8000.73
633.788	8056.03
633.982	7941.34
634.176	8144.09
634.369	7951.58
634.563	7703.78
634.757	7900.38
634.951	7656.67
635.145	7812.32
635.339	7677.15
635.533	7613.67
635.726	7566.56
635.92	7523.55
636.114	7570.66
636.308	7353.57
636.501	7490.79
636.695	7642.34
636.889	7316.71
637.083	7306.47
637.276	7261.41
637.47	7378.15
637.664	7093.48
637.857	7191.78
638.051	7111.91
638.244	7109.86
638.438	7066.86
638.632	7132.39
638.825	6931.69
639.019	6950.12
639.212	6827.25
639.406	6909.16
639.599	6876.4
639.793	6712.56
639.986	6626.54
640.18	6726.89
640.373	6634.74
640.567	6581.49
640.76	6720.75
640.954	6384.88
641.147	6550.77
641.34	6372.6
641.534	6550.77
641.727	6425.84
641.92	6536.43
642.114	6284.53
642.307	6380.79
642.5	6300.92
642.694	6087.93
642.887	6241.53
643.08	6384.88
643.273	6114.55
643.467	5997.82
643.66	6073.59
643.853	5965.05
644.046	6038.78
644.239	6053.11
644.432	5866.75
644.626	5936.38
644.819	5827.84
645.012	5999.87
645.205	6008.06
645.398	5911.8
645.591	5823.74
645.784	5735.68
645.977	5799.16
646.17	5737.73
646.363	5704.96
646.556	5694.72
646.749	5524.74
646.942	5571.84
647.135	5623.04
647.328	5647.62
647.521	5467.39
647.714	5688.57
647.907	5416.19
648.099	5451.01
648.292	5475.59
648.485	5313.8
648.678	5399.81
648.871	5514.5
649.064	5369.09
649.256	5440.77
649.449	5336.32
649.642	5117.19
649.835	5205.25
650.027	5221.64
650.22	5192.97
650.413	5145.86
650.605	5104.9
650.798	5135.62
650.991	5027.08
651.183	5115.14
651.376	4926.73
651.568	4934.92
651.761	5102.86
651.954	4861.2
652.146	4873.48
652.339	4810
652.531	4924.68
652.724	4910.35
652.916	4760.84
653.109	4824.33
653.301	4758.8
653.494	4812.04
653.686	4654.35
653.879	4736.27
654.071	4752.65
654.263	4799.76
654.456	4609.29
654.648	4582.67
654.84	4748.56
655.033	4488.46
655.225	4543.76
655.417	4646.16
655.61	4683.02
655.802	4594.96
655.994	4474.13
656.186	4455.7
656.379	4488.46
656.571	4347.15
656.763	4310.29
656.955	4353.3
657.148	4410.64
657.34	4318.48
657.532	4257.04
657.724	4302.1
657.916	4275.48
658.108	4252.95
658.3	4171.03
658.492	4285.72
658.684	4109.59
658.876	4275.48
659.068	4082.97
659.26	4119.83
659.452	4123.93
659.644	4123.93
659.836	4095.25
660.028	4078.87
660.22	4005.14
660.412	4003.1
660.604	4025.62
660.796	4246.8
660.988	4054.3
661.18	4056.34
661.372	3878.17
661.563	4087.06
661.755	3861.79
661.947	4025.62
662.139	3894.55
662.331	3919.13
662.522	3904.79
662.714	3835.16
662.906	3826.97
663.097	3747.1
663.289	3882.27
663.481	3917.08
663.673	3779.87
663.864	3652.89
664.056	3820.83
664.247	3874.07
664.439	3767.58
664.631	3808.54
664.822	3738.91
665.014	3814.68
665.205	3663.13
665.397	3800.35
665.588	3751.2
665.78	3630.37
665.971	3691.8
666.163	3765.53
666.354	3616.03
666.546	3632.41
666.737	3638.56
666.929	3624.22
667.12	3613.98
667.311	3622.17
667.503	3566.88
667.694	3538.21
667.885	3599.65
668.077	3665.18
668.268	3493.15
668.459	3724.57
668.651	3597.6
668.842	3605.79
669.033	3630.37
669.224	3525.92
669.416	3648.8
669.607	3706.14
669.798	3636.51
669.989	3632.41
670.18	3632.41
670.371	3534.11
670.563	3636.51
670.754	3581.21
670.945	3599.65
671.136	3599.65
671.327	3550.5
671.518	3591.45
671.709	3589.41
671.9	3648.8
672.091	3638.56
672.282	3583.26
672.473	3564.83
672.664	3519.78
672.855	3702.04
673.046	3640.61
673.237	3706.14
673.428	3656.99
673.619	3669.28
673.809	3661.09
674	3677.47
674.191	3669.28
674.382	3558.69
674.573	3661.09
674.764	3708.19
674.954	3550.5
675.145	3532.06
675.336	3632.41
675.527	3575.07
675.717	3665.18
675.908	3628.32
676.099	3616.03
676.289	3700
676.48	3745.05
676.671	3720.48
676.861	3652.89
677.052	3640.61
677.243	3726.62
677.433	3802.4
677.624	3783.96
677.814	3779.87
678.005	3802.4
678.195	3722.52
678.386	3912.99
678.576	3882.27
678.767	3607.84
678.957	3736.86
679.148	3845.4
679.338	3837.21
679.529	3792.16
679.719	3710.24
679.909	3845.4
680.1	3955.99
680.29	3792.16
680.481	3898.65
680.671	3980.57
680.861	3960.09
681.052	3992.86
681.242	3857.69
681.432	3861.79
681.622	4099.35
681.813	3992.86
682.003	3968.28
682.193	4033.82
682.383	4080.92
682.573	4091.16
682.764	4074.78
682.954	3878.17
683.144	4015.38
683.334	4005.14
683.524	4060.44
683.714	4119.83
683.904	4134.17
684.094	3955.99
684.284	4062.49
684.474	4093.21
684.664	4117.78
684.854	4146.45
685.044	4074.78
685.234	3988.76
685.424	4046.1
685.614	4156.69
685.804	4181.27
685.994	4121.88
686.184	4080.92
686.374	3996.95
686.564	3982.62
686.753	4099.35
686.943	3999
687.133	3933.47
687.323	3980.57
687.513	3878.17
687.702	3861.79
687.892	3855.64
688.082	3878.17
688.272	3970.33
688.461	3829.02
688.651	3794.2
688.841	3732.76
689.03	3765.53
689.22	3706.14
689.41	3747.1
689.599	3792.16
689.789	3702.04
689.979	3726.62
690.168	3536.16
690.358	3677.47
690.547	3607.84
690.737	3575.07
690.926	3620.13
691.116	3538.21
691.305	3448.1
691.495	3589.41
691.684	3437.86
691.874	3620.13
692.063	3427.62
692.252	3411.23
692.442	3499.3
692.631	3325.22
692.82	3433.76
693.01	3403.04
693.199	3231.01
693.388	3228.96
693.578	3251.49
693.767	3417.38
693.956	3255.59
694.146	3136.81
694.335	3165.48
694.524	3183.91
694.713	3220.77
694.902	3231.01
695.092	3116.33
695.281	3075.37
695.47	3145
695.659	3138.85
695.848	3188
696.037	2966.82
696.226	3122.47
696.415	3024.17
696.604	2977.06
696.793	2968.87
696.982	2979.11
697.171	3181.86
697.36	2964.78
697.549	3005.74
697.738	2942.25
697.927	2893.1
698.116	3042.6
698.305	3046.69
698.494	3087.65
698.683	2999.59
698.872	2882.86
699.061	2854.19
699.25	2909.48
699.438	2993.45
699.627	2889
699.816	2944.3
700.005	2862.38
700.193	2983.21
700.382	3001.64
700.571	2829.61
700.76	2862.38
700.948	2897.19
701.137	2884.91
701.326	2905.38
701.514	2852.14
701.703	3108.13
701.892	2934.06
702.08	3022.12
702.269	2956.58
702.457	2858.28
702.646	2893.1
702.834	2919.72
703.023	3024.17
703.212	3024.17
703.4	2895.15
703.589	2923.82
703.777	3034.41
703.965	2911.53
704.154	2968.87
704.342	3001.64
704.531	2952.49
704.719	2905.38
704.907	2925.86
705.096	2934.06
705.284	3065.13
705.472	3018.02
705.661	3091.75
705.849	2966.82
706.037	3044.65
706.226	2958.63
706.414	2903.34
706.602	2958.63
706.79	2944.3
706.979	2940.2
707.167	2958.63
707.355	3075.37
707.543	3007.78
707.731	3018.02
707.919	3169.57
708.107	3089.7
708.296	3097.89
708.484	3007.78
708.672	3245.35
708.86	3058.98
709.048	3067.17
709.236	3081.51
709.424	3179.81
709.612	3179.81
709.8	3274.02
709.988	3228.96
710.176	3312.93
710.364	3327.27
710.551	3101.99
710.739	3233.06
710.927	3288.36
711.115	3345.7
711.303	3226.92
711.491	3411.23
711.679	3269.92
711.866	3255.59
712.054	3343.65
712.242	3351.84
712.43	3489.06
712.617	3386.66
712.805	3437.86
712.993	3427.62
713.181	3382.56
713.368	3517.73
713.556	3534.11
713.744	3482.91
713.931	3558.69
714.119	3493.15
714.306	3616.03
714.494	3499.3
714.682	3497.25
714.869	3566.88
715.057	3640.61
715.244	3634.46
715.432	3624.22
715.619	3755.29
715.807	3708.19
715.994	3697.95
716.182	3747.1
716.369	3677.47
716.556	3876.12
716.744	3644.7
716.931	3736.86
717.119	3906.84
717.306	3792.16
717.493	3716.38
717.681	3751.2
717.868	3820.83
718.055	3894.55
718.242	3886.36
718.43	3935.51
718.617	3943.71
718.804	3915.03
718.991	3869.98
719.179	4074.78
719.366	4025.62
719.553	4005.14
719.74	4037.91
719.927	4054.3
720.114	3980.57
720.301	3939.61
720.488	4060.44
720.676	4189.46
720.863	4080.92
721.05	4207.89
721.237	4218.13
721.424	4230.42
721.611	4203.8
721.798	4130.07
721.985	4232.47
722.172	4287.76
722.358	4244.76
722.545	4433.17
722.732	4275.48
722.919	4322.58
723.106	4513.04
723.293	4312.34
723.48	4255
723.667	4367.63
723.853	4379.92
724.04	4500.75
724.227	4353.3
724.414	4386.07
724.6	4390.16
724.787	4476.18
724.974	4408.59
725.161	4572.43
725.347	4369.68
725.534	4644.11
725.72	4656.4
725.907	4480.27
726.094	4576.53
726.28	4539.66
726.467	4515.09
726.653	4590.86
726.84	4566.29
727.027	4736.27
727.213	4480.27
727.4	4781.32
727.586	4728.08
727.773	4680.97
727.959	4601.1
728.145	4695.31
728.332	4703.5
728.518	4801.8
728.705	4738.32
728.891	4703.5
729.077	4826.38
729.264	4826.38
729.45	4812.04
729.636	4893.96
729.823	4828.43
730.009	4902.15
730.195	4961.55
730.382	4928.78
730.568	4875.53
730.754	4824.33
730.94	4887.82
731.126	4908.3
731.313	4936.97
731.499	5039.37
731.685	4957.45
731.871	5074.18
732.057	5008.65
732.243	5063.94
732.429	5031.18
732.615	5004.55
732.801	4908.3
732.987	5080.33
733.173	5008.65
733.359	4941.07
733.545	4949.26
733.731	5156.1
733.917	4869.39
734.103	5039.37
734.289	5111.05
734.475	5080.33
734.661	5100.81
734.847	5299.46
735.033	5213.45
735.219	5111.05
735.404	5065.99
735.59	5086.47
735.776	5180.68
735.962	5076.23
736.148	5139.72
736.333	5090.57
736.519	5156.1
736.705	5072.14
736.89	5106.95
737.076	5158.15
737.262	5053.7
737.447	5070.09
737.633	5192.97
737.819	5061.9
738.004	5127.43
738.19	5213.45
738.375	4926.73
738.561	5180.68
738.747	5094.66
738.932	5221.64
739.118	5117.19
739.303	5125.38
739.489	5213.45
739.674	5070.09
739.859	4990.22
740.045	5268.74
740.23	5074.18
740.416	5051.66
740.601	5016.84
740.786	5029.13
740.972	4936.97
741.157	5049.61
741.342	4920.59
741.528	4943.11
741.713	5072.14
741.898	4828.43
742.084	5035.27
742.269	4803.85
742.454	4984.07
742.639	4943.11
742.824	4984.07
743.01	4902.15
743.195	4930.83
743.38	4836.62
743.565	4881.67
743.75	4853
743.935	4771.08
744.12	4889.87
744.305	4779.28
744.49	4787.47
744.675	4754.7
744.86	4783.37
745.045	4779.28
745.23	4613.39
745.415	4941.07
745.6	4730.13
745.785	4834.57
745.97	4629.77
746.155	4611.34
746.34	4508.94
746.525	4711.69
746.71	4613.39
746.895	4420.88
747.079	4570.38
747.264	4560.14
747.449	4599.06
747.634	4386.07
747.819	4558.1
748.003	4336.92
748.188	4234.52
748.373	4185.37
748.557	4189.46
748.742	4234.52
748.927	4244.76
749.111	4218.13
749.296	4281.62
749.481	4134.17
749.665	4117.78
749.85	4031.77
750.034	4085.01
750.219	4025.62
750.404	4050.2
750.588	3949.85
750.773	3921.18
750.957	3929.37
751.141	3919.13
751.326	3865.88
751.51	3865.88
751.695	3726.62
751.879	3855.64
752.064	3837.21
752.248	3886.36
752.432	3747.1
752.617	3720.48
752.801	3648.8
752.985	3687.71
753.17	3577.12
753.354	3499.3
753.538	3749.15
753.722	3487.01
753.907	3493.15
754.091	3480.86
754.275	3417.38
754.459	3386.66
754.643	3345.7
754.828	3337.51
755.012	3327.27
755.196	3374.37
755.38	3378.47
755.564	3132.71
755.748	3325.22
755.932	3378.47
756.116	3130.66
756.3	3210.53
756.484	3153.19
756.668	3136.81
756.852	3069.22
757.036	3024.17
757.22	3185.96
757.404	3026.22
757.588	3140.9
757.772	2923.82
757.956	3079.46
758.14	2999.59
758.323	2895.15
758.507	3015.98
758.691	2942.25
758.875	2874.67
759.059	2899.24
759.242	2903.34
759.426	2854.19
759.61	2747.69
759.794	2841.9
759.977	2860.33
760.161	2819.37
760.345	2886.95
760.528	2800.94
760.712	2719.02
760.895	2702.64
761.079	2762.03
761.263	2622.77
761.446	2739.5
761.63	2581.81
761.813	2727.21
761.997	2581.81
762.18	2506.03
762.364	2608.43
762.547	2639.15
762.731	2497.84
762.914	2573.61
763.098	2676.01
763.281	2424.11
763.464	2526.51
763.648	2465.07
763.831	2428.21
764.015	2522.41
764.198	2309.43
764.381	2475.31
764.564	2465.07
764.748	2460.98
764.931	2442.54
765.114	2379.06
765.297	2305.33
765.481	2346.29
765.664	2420.02
765.847	2272.56
766.03	2286.9
766.213	2252.08
766.397	2188.6
766.58	2272.56
766.763	2325.81
766.946	2243.89
767.129	2247.99
767.312	2250.03
767.495	2198.84
767.678	2207.03
767.861	2258.23
768.044	2190.64
768.227	2239.8
768.41	2094.39
768.593	2188.6
768.776	2096.44
768.959	2151.73
769.142	2268.47
769.324	2172.21
769.507	2075.96
769.69	1975.61
769.873	2010.42
770.056	2078.01
770.239	1983.8
770.421	2096.44
770.604	1942.84
770.787	1998.13
770.97	1951.03
771.152	1862.97
771.335	1961.27
771.518	1930.55
771.7	1862.97
771.883	1969.46
772.066	1920.31
772.248	1879.35
772.431	1912.12
772.613	1940.79
772.796	1955.13
772.978	1787.19
773.161	1836.35
773.343	1852.73
773.526	1756.47
773.708	1815.87
773.891	1723.71
774.073	1762.62
774.256	1682.75
774.438	1772.86
774.621	1674.56
774.803	1744.19
774.985	1623.36
775.168	1672.51
775.35	1566.01
775.532	1662.27
775.715	1658.17
775.897	1688.89
776.079	1609.02
776.261	1627.45
776.444	1598.78
776.626	1656.12
776.808	1426.75
776.99	1543.49
777.173	1512.77
777.355	1404.22
777.537	1594.68
777.719	1469.76
777.901	1443.14
778.083	1518.91
778.265	1402.18
778.447	1488.19
778.629	1434.94
778.811	1420.61
778.993	1312.07
779.175	1379.65
779.357	1426.75
779.539	1330.5
779.721	1295.68
779.903	1363.26
780.085	1355.07
780.267	1285.44
780.449	1363.26
780.631	1400.13
780.812	1281.35
780.994	1322.31
781.176	1396.03
781.358	1209.67
781.54	1221.95
781.721	1260.87
781.903	1246.53
782.085	1166.66
782.267	1224
782.448	1172.8
782.63	1092.93
782.812	1213.76
782.993	1166.66
783.175	1187.14
783.357	1015.11
783.538	1060.17
783.72	1187.14
783.901	1076.55
784.083	1051.97
784.264	1117.51
784.446	1000.77
784.627	1051.97
784.809	1107.27
784.99	1002.82
785.172	1082.69
785.353	1162.56
785.535	1092.93
785.716	1054.02
785.897	1000.77
786.079	1043.78
786.26	1058.12
786.441	1068.36
786.623	879.94
786.804	953.67
786.985	1004.87
787.167	965.96
787.348	984.39
787.529	925
787.71	994.63
787.891	875.85
788.073	943.43
788.254	841.03
788.435	888.14
788.616	931.14
788.797	918.86
788.978	853.32
789.159	927.05
789.34	838.98
789.522	824.65
789.703	902.47
789.884	716.11
790.065	886.09
790.246	847.18
790.427	863.56
790.607	722.25
790.788	814.41
790.969	779.59
791.15	787.79
791.331	777.55
791.512	757.07
791.693	724.3
791.874	730.44
792.054	791.88
792.235	738.63
792.416	736.59
792.597	638.28
792.778	736.59
792.958	730.44
793.139	740.68
793.32	709.96
793.5	707.91
793.681	728.39
793.862	716.11
794.042	677.19
794.223	638.28
794.404	712.01
794.584	638.28
794.765	650.57
794.945	716.11
795.126	615.76
795.306	613.71
795.487	630.09
795.667	617.8
795.848	595.28
796.028	576.84
796.209	630.09
796.389	626
796.57	613.71
796.75	562.51
796.93	683.34
797.111	679.24
797.291	552.27
797.471	662.86
797.652	599.37
797.832	619.85
798.012	605.52
798.192	539.98
798.373	574.8
798.553	570.7
798.733	597.32
798.913	658.76
799.093	558.41
799.274	570.7
799.454	638.28
799.634	605.52
799.814	644.43
799.994	546.12
800.174	554.32
800.354	519.5
800.534	499.02
800.714	509.26
800.894	568.65
801.074	492.88
801.254	560.46
801.434	630.09
801.614	593.23
801.794	525.65
801.974	1287.49
802.154	578.89
802.334	626
802.514	507.21
802.693	443.73
802.873	435.53
803.053	527.69
803.233	470.35
803.413	507.21
803.592	437.58
803.772	410.96
803.952	515.41
804.131	392.53
804.311	439.63
804.491	449.87
804.67	476.49
804.85	367.95
805.03	480.59
805.209	451.92
805.389	492.88
805.568	453.97
805.748	445.77
805.928	363.86
806.107	474.45
806.287	462.16
806.466	478.54
806.646	533.84
806.825	453.97
807.004	466.25
807.184	380.24
807.363	447.82
807.543	437.58
807.722	460.11
807.901	447.82
808.081	470.35
808.26	359.76
808.439	433.49
808.619	376.14
808.798	421.2
808.977	421.2
809.156	492.88
809.336	421.2
809.515	410.96
809.694	372.05
809.873	451.92
810.052	429.39
810.231	451.92
810.411	380.24
810.59	370
810.769	361.81
810.948	437.58
811.127	339.28
811.306	413.01
811.485	421.2
811.664	451.92
811.843	370
812.022	367.95
812.201	277.84
812.38	451.92
812.559	370
812.737	419.15
812.916	333.14
813.095	322.9
813.274	363.86
813.453	298.32
813.632	372.05
813.811	404.82
813.989	304.46
814.168	320.85
814.347	294.22
814.526	343.38
814.704	447.82
814.883	347.47
815.062	331.09
815.24	355.66
815.419	306.51
815.598	306.51
815.776	232.79
815.955	296.27
816.133	290.13
816.312	326.99
816.49	394.58
816.669	294.22
816.847	372.05
817.026	312.66
817.204	234.83
817.383	296.27
817.561	298.32
817.74	345.42
817.918	318.8
818.097	245.07
818.275	290.13
818.453	308.56
818.632	361.81
818.81	269.65
818.988	292.18
819.167	263.51
819.345	314.7
819.523	243.03
819.701	281.94
819.879	380.24
820.058	345.42
820.236	275.79
820.414	273.75
820.592	273.75
820.77	240.98
820.948	298.32
821.127	232.79
821.305	243.03
821.483	314.7
821.661	269.65
821.839	214.35
822.017	314.7
822.195	234.83
822.373	331.09
822.551	290.13
822.729	331.09
822.907	259.41
823.085	286.03
823.262	298.32
823.44	195.92
823.618	232.79
823.796	179.54
823.974	212.31
824.152	294.22
824.329	222.55
824.507	183.63
824.685	261.46
824.863	175.44
825.04	224.59
825.218	230.74
825.396	175.44
825.574	335.18
825.751	179.54
825.929	275.79
826.107	159.06
826.284	308.56
826.462	243.03
826.639	132.44
826.817	165.2
826.994	216.4
827.172	173.39
827.349	261.46
827.527	200.02
827.704	261.46
827.882	216.4
828.059	200.02
828.237	218.45
828.414	259.41
828.591	134.48
828.769	240.98
828.946	181.59
829.124	251.22
829.301	240.98
829.478	189.78
829.655	240.98
829.833	228.69
830.01	208.21
830.187	257.36
830.364	259.41
830.542	216.4
830.719	216.4
830.896	245.07
831.073	191.83
831.25	245.07
831.427	202.07
831.604	150.87
831.782	191.83
831.959	279.89
832.136	159.06
832.313	197.97
832.49	195.92
832.667	124.24
832.844	189.78
833.021	245.07
833.198	232.79
833.374	212.31
833.551	142.68
833.728	185.68
833.905	210.26
834.082	99.67
834.259	93.52
834.436	214.35
834.612	89.43
834.789	197.97
834.966	191.83
835.143	154.96
835.319	181.59
835.496	179.54
835.673	175.44
835.85	245.07
836.026	232.79
836.203	138.58
836.38	118.1
836.556	185.68
836.733	175.44
836.909	236.88
837.086	126.29
837.262	118.1
837.439	130.39
837.616	220.5
837.792	118.1
837.968	183.63
838.145	99.67
838.321	175.44
838.498	48.47
838.674	152.91
838.851	224.59
839.027	138.58
839.203	52.56
839.38	148.82
839.556	173.39
839.732	148.82
839.909	132.44
840.085	157.01
840.261	9.56
840.437	189.78
840.614	134.48
840.79	185.68
840.966	101.72
841.142	189.78
841.318	118.1
841.494	146.77
841.671	126.29
841.847	111.96
842.023	134.48
842.199	197.97
842.375	167.25
842.551	68.95
842.727	152.91
842.903	165.2
843.079	52.56
843.255	183.63
843.431	146.77
843.607	105.81
843.783	73.04
843.959	179.54
844.134	85.33
844.31	134.48
844.486	40.28
844.662	81.24
844.838	130.39
845.013	165.2
845.189	146.77
845.365	114
845.541	146.77
845.716	85.33
845.892	122.2
846.068	148.82
846.244	11.61
846.419	140.63
846.595	85.33
846.77	134.48
846.946	132.44
847.122	105.81
847.297	116.05
847.473	161.11
847.648	97.62
847.824	60.76
847.999	17.75
848.175	105.81
848.35	66.9
848.526	118.1
848.701	116.05
848.876	130.39
849.052	122.2
849.227	48.47
849.403	105.81
849.578	114
849.753	85.33
849.929	116.05
850.104	56.66
850.279	126.29
850.454	105.81
850.63	142.68
850.805	95.57
850.98	101.72
851.155	124.24
851.33	134.48
851.505	27.99
851.681	175.44
851.856	126.29
852.031	150.87
852.206	132.44
852.381	62.8
852.556	52.56
852.731	95.57
852.906	140.63
853.081	99.67
853.256	111.96
853.431	134.48
853.606	77.14
853.781	-4.78
853.956	-29.35
854.131	97.62
854.305	38.23
854.48	52.56
854.655	-15.02
854.83	83.28
855.005	3.41
855.18	85.33
855.354	148.82
855.529	85.33
855.704	19.8
855.879	101.72
856.053	36.18
856.228	27.99
856.403	36.18
856.577	85.33
856.752	103.76
856.926	66.9
857.101	111.96
857.276	-8.87
857.45	30.04
857.625	132.44
857.799	77.14
857.974	-25.26
858.148	-8.87
858.323	-15.02
858.497	56.66
858.672	138.58
858.846	50.52
859.02	99.67
859.195	25.94
859.369	23.89
859.543	124.24
859.718	77.14
859.892	93.52
860.066	89.43
860.241	17.75
860.415	23.89
860.589	17.75
860.763	60.76
860.938	32.08
861.112	87.38
861.286	52.56
861.46	64.85
861.634	95.57
861.808	77.14
861.982	85.33
862.157	50.52
862.331	58.71
862.505	25.94
862.679	11.61
862.853	1.37
863.027	44.37
863.201	97.62
863.375	-47.79
863.549	132.44
863.722	19.8
863.896	60.76
864.07	36.18
864.244	44.37
864.418	36.18
864.592	11.61
864.766	11.61
864.939	21.84
865.113	44.37
865.287	118.1
865.461	105.81
865.634	83.28
865.808	17.75
865.982	122.2
866.156	-0.68
866.329	11.61
866.503	60.76
866.676	116.05
866.85	109.91
867.024	3.41
867.197	19.8
867.371	58.71
867.544	52.56
867.718	85.33
867.891	130.39
868.065	58.71
868.238	44.37
868.412	146.77
868.585	77.14
868.759	50.52
868.932	73.04
869.105	3.41
869.279	-21.16
869.452	34.13
869.625	91.48
869.799	99.67
869.972	60.76
870.145	56.66
870.319	77.14
870.492	15.7
870.665	-58.03
870.838	36.18
871.011	-4.78
871.185	-15.02
871.358	7.51
871.531	23.89
871.704	17.75
871.877	91.48
872.05	9.56
872.223	17.75
872.396	-51.88
872.569	40.28
872.742	-4.78
872.915	105.81
873.088	-12.97
873.261	107.86
873.434	-6.83
873.607	50.52
873.78	44.37
873.953	-6.83
874.126	81.24
874.299	97.62
874.471	34.13
874.644	48.47
874.817	40.28
874.99	32.08
875.163	-12.97
875.335	56.66
875.508	118.1
875.681	60.76
875.853	-21.16
876.026	85.33
876.199	11.61
876.371	48.47
876.544	87.38
876.717	21.84
876.889	36.18
877.062	93.52
877.234	44.37
877.407	75.09
877.579	60.76
877.752	-2.73
877.924	75.09
878.097	27.99
878.269	30.04
878.442	21.84
878.614	3.41
878.786	-15.02
878.959	83.28
879.131	36.18
879.303	15.7
879.476	23.89
879.648	109.91
879.82	73.04
879.993	-6.83
880.165	-15.02
880.337	-25.26
880.509	3.41
880.681	46.42
880.854	42.32
881.026	89.43
881.198	173.39
881.37	5.46
881.542	3.41
881.714	99.67
881.886	52.56
882.058	-45.74
882.23	42.32
882.402	85.33
882.574	34.13
882.746	40.28
882.918	32.08
883.09	32.08
883.262	-47.79
883.434	40.28
883.606	-39.59
883.778	-37.55
883.95	58.71
884.122	9.56
884.293	89.43
884.465	68.95
884.637	48.47
884.809	17.75
884.98	-8.87
885.152	3.41
885.324	17.75
885.496	-39.59
885.667	85.33
885.839	-0.68
886.011	56.66
886.182	19.8
886.354	97.62
886.525	-8.87
886.697	103.76
886.869	-17.07
887.04	-25.26
887.212	101.72
887.383	118.1
887.555	89.43
887.726	13.65
887.897	42.32
888.069	25.94
888.24	85.33
888.412	79.19
888.583	42.32
888.754	11.61
888.926	-10.92
889.097	27.99
889.268	-17.07
889.44	75.09
889.611	-15.02
889.782	-27.31
889.953	36.18
890.125	105.81
890.296	17.75
890.467	7.51
890.638	58.71
890.809	-58.03
890.98	36.18
891.151	11.61
891.323	52.56
891.494	-6.83
891.665	-29.35
891.836	-21.16
892.007	27.99
892.178	73.04
892.349	44.37
892.52	27.99
892.691	-29.35
892.862	62.8
893.032	-21.16
893.203	62.8
893.374	50.52
893.545	60.76
893.716	11.61
893.887	32.08
894.057	91.48
894.228	75.09
894.399	15.7
894.57	34.13
894.74	36.18
894.911	126.29
895.082	56.66
895.253	58.71
895.423	66.9
895.594	27.99
895.764	50.52
895.935	-25.26
896.106	15.7
896.276	7.51
896.447	3.41
896.617	1.37
896.788	-21.16
896.958	-49.83
897.129	-17.07
897.299	-23.21
897.47	48.47
897.64	30.04
897.81	7.51
897.981	99.67
898.151	-25.26
898.322	23.89
898.492	13.65
898.662	79.19
898.832	-47.79
899.003	3.41
899.173	34.13
899.343	-29.35
899.513	17.75
