Data from USB4F104151__3__11-36-16-748.txt Node

Date: Fri Mar 14 11:36:16 EDT 2025
User: louis
Spectrometer: USB4F10415
Trigger mode: 4
Integration Time (sec): 2.000000E-2
Scans to average: 1
Electric dark correction enabled: true
Nonlinearity correction enabled: false
Boxcar width: 0
XAxis mode: Wavelengths
Number of Pixels in Spectrum: 3648
>>>>>Begin Spectral Data<<<<<
178.204	-185.17
178.424	-185.17
178.644	-185.17
178.864	-2.9
179.084	-109.4
179.304	-31.57
179.524	60.59
179.744	15.53
179.964	44.2
180.184	-27.48
180.404	15.53
180.624	-58.2
180.844	1.19
181.064	-4.95
181.283	11.43
181.503	-33.62
181.723	7.34
181.943	-60.24
182.163	25.77
182.383	21.67
182.602	-15.19
182.822	-37.72
183.042	-64.34
183.262	-4.95
183.482	-68.44
183.701	-17.24
183.921	42.15
184.141	-25.43
184.361	5.29
184.58	23.72
184.8	-9.05
185.02	36.01
185.239	29.87
185.459	17.58
185.679	23.72
185.898	-19.29
186.118	27.82
186.338	5.29
186.557	19.63
186.777	-19.29
186.997	44.2
187.216	-29.52
187.436	46.25
187.655	111.78
187.875	-50
188.095	13.48
188.314	27.82
188.534	68.78
188.753	38.06
188.973	7.34
189.192	29.87
189.412	-19.29
189.631	60.59
189.851	-21.33
190.07	19.63
190.29	-19.29
190.509	-27.48
190.729	31.91
190.948	-29.52
191.168	29.87
191.387	85.16
191.607	33.96
191.826	11.43
192.045	-7
192.265	50.35
192.484	11.43
192.704	31.91
192.923	-43.86
193.142	-0.85
193.362	52.39
193.581	31.91
193.8	-2.9
194.02	40.11
194.239	-31.57
194.458	38.06
194.678	27.82
194.897	-27.48
195.116	29.87
195.335	9.39
195.555	33.96
195.774	21.67
195.993	-4.95
196.212	70.83
196.432	-11.09
196.651	48.3
196.87	-19.29
197.089	-39.76
197.308	-11.09
197.528	-31.57
197.747	17.58
197.966	91.31
198.185	29.87
198.404	29.87
198.623	5.29
198.842	-13.14
199.062	-15.19
199.281	25.77
199.5	44.2
199.719	50.35
199.938	-35.67
200.157	58.54
200.376	9.39
200.595	23.72
200.814	13.48
201.033	81.07
201.252	27.82
201.471	111.78
201.69	54.44
201.909	33.96
202.128	27.82
202.347	74.92
202.566	31.91
202.785	54.44
203.004	5.29
203.223	72.87
203.442	-35.67
203.661	56.49
203.879	23.72
204.098	29.87
204.317	-11.09
204.536	33.96
204.755	-17.24
204.974	-7
205.193	5.29
205.411	50.35
205.63	56.49
205.849	-35.67
206.068	33.96
206.287	-29.52
206.505	29.87
206.724	29.87
206.943	119.98
207.162	-31.57
207.381	-0.85
207.599	17.58
207.818	25.77
208.037	-37.72
208.255	11.43
208.474	76.97
208.693	7.34
208.911	-68.44
209.13	13.48
209.349	-23.38
209.567	-11.09
209.786	19.63
210.005	44.2
210.223	54.44
210.442	-29.52
210.661	70.83
210.879	19.63
211.098	-7
211.316	9.39
211.535	40.11
211.753	11.43
211.972	-2.9
212.191	44.2
212.409	13.48
212.628	29.87
212.846	-0.85
213.065	-39.76
213.283	1.19
213.502	-13.14
213.72	11.43
213.938	17.58
214.157	-56.15
214.375	-19.29
214.594	1.19
214.812	13.48
215.031	93.35
215.249	-25.43
215.467	-4.95
215.686	70.83
215.904	40.11
216.122	36.01
216.341	54.44
216.559	-23.38
216.778	5.29
216.996	-35.67
217.214	-45.91
217.432	42.15
217.651	23.72
217.869	23.72
218.087	50.35
218.306	-11.09
218.524	-33.62
218.742	52.39
218.96	33.96
219.179	3.24
219.397	81.07
219.615	23.72
219.833	-25.43
220.051	-19.29
220.27	36.01
220.488	25.77
220.706	107.69
220.924	40.11
221.142	36.01
221.36	17.58
221.578	-11.09
221.796	-4.95
222.015	50.35
222.233	-37.72
222.451	-23.38
222.669	-9.05
222.887	52.39
223.105	-2.9
223.323	11.43
223.541	-23.38
223.759	136.36
223.977	87.21
224.195	-0.85
224.413	21.67
224.631	-0.85
224.849	5.29
225.067	70.83
225.285	1.19
225.503	-9.05
225.721	-45.91
225.939	3.24
226.157	-23.38
226.375	56.49
226.592	-64.34
226.81	-2.9
227.028	-47.96
227.246	21.67
227.464	38.06
227.682	-35.67
227.9	-19.29
228.117	42.15
228.335	38.06
228.553	70.83
228.771	-11.09
228.989	5.29
229.206	76.97
229.424	50.35
229.642	46.25
229.86	44.2
230.077	27.82
230.295	17.58
230.513	38.06
230.731	-11.09
230.948	29.87
231.166	29.87
231.384	-11.09
231.601	-68.44
231.819	46.25
232.037	-43.86
232.254	-15.19
232.472	17.58
232.689	54.44
232.907	-0.85
233.125	50.35
233.342	50.35
233.56	3.24
233.777	-13.14
233.995	-15.19
234.213	46.25
234.43	40.11
234.648	27.82
234.865	-7
235.083	-66.39
235.3	-35.67
235.518	-13.14
235.735	-11.09
235.953	-27.48
236.17	-15.19
236.388	44.2
236.605	-23.38
236.822	-4.95
237.04	44.2
237.257	11.43
237.475	50.35
237.692	23.72
237.909	-31.57
238.127	-4.95
238.344	-39.76
238.562	42.15
238.779	-45.91
238.996	-23.38
239.214	11.43
239.431	-9.05
239.648	-50
239.865	58.54
240.083	52.39
240.3	36.01
240.517	25.77
240.735	62.63
240.952	13.48
241.169	144.55
241.386	25.77
241.603	-7
241.821	-27.48
242.038	9.39
242.255	1.19
242.472	66.73
242.689	58.54
242.907	52.39
243.124	23.72
243.341	36.01
243.558	23.72
243.775	-13.14
243.992	15.53
244.209	36.01
244.426	27.82
244.643	87.21
244.86	-15.19
245.078	29.87
245.295	50.35
245.512	5.29
245.729	-11.09
245.946	17.58
246.163	50.35
246.38	117.93
246.597	-39.76
246.814	81.07
247.031	-2.9
247.248	-7
247.464	15.53
247.681	44.2
247.898	-43.86
248.115	-4.95
248.332	-7
248.549	-23.38
248.766	56.49
248.983	-19.29
249.2	68.78
249.417	58.54
249.633	-78.68
249.85	7.34
250.067	13.48
250.284	-29.52
250.501	29.87
250.717	31.91
250.934	-9.05
251.151	1.19
251.368	7.34
251.585	33.96
251.801	27.82
252.018	-2.9
252.235	70.83
252.451	-11.09
252.668	-23.38
252.885	46.25
253.102	11.43
253.318	5.29
253.535	27.82
253.752	-27.48
253.968	25.77
254.185	3.24
254.401	-35.67
254.618	25.77
254.835	38.06
255.051	56.49
255.268	21.67
255.484	13.48
255.701	15.53
255.917	27.82
256.134	25.77
256.351	13.48
256.567	-17.24
256.784	27.82
257	50.35
257.217	21.67
257.433	56.49
257.65	11.43
257.866	38.06
258.082	-19.29
258.299	-45.91
258.515	50.35
258.732	-11.09
258.948	25.77
259.165	60.59
259.381	-21.33
259.597	113.83
259.814	62.63
260.03	5.29
260.246	-19.29
260.463	76.97
260.679	-35.67
260.895	40.11
261.112	79.02
261.328	13.48
261.544	58.54
261.761	25.77
261.977	9.39
262.193	31.91
262.409	62.63
262.626	21.67
262.842	-11.09
263.058	62.63
263.274	68.78
263.49	44.2
263.707	87.21
263.923	36.01
264.139	46.25
264.355	-39.76
264.571	87.21
264.787	36.01
265.004	50.35
265.22	-21.33
265.436	27.82
265.652	-31.57
265.868	-41.81
266.084	-19.29
266.3	-29.52
266.516	48.3
266.732	-23.38
266.948	-31.57
267.164	5.29
267.38	29.87
267.596	5.29
267.812	36.01
268.028	15.53
268.244	31.91
268.46	23.72
268.676	13.48
268.892	-31.57
269.108	3.24
269.324	-37.72
269.54	-19.29
269.756	11.43
269.972	-2.9
270.188	-9.05
270.403	-35.67
270.619	-39.76
270.835	5.29
271.051	-35.67
271.267	-7
271.483	-21.33
271.698	42.15
271.914	21.67
272.13	31.91
272.346	54.44
272.562	1.19
272.777	-19.29
272.993	-4.95
273.209	-15.19
273.425	17.58
273.64	44.2
273.856	44.2
274.072	-17.24
274.287	-7
274.503	62.63
274.719	54.44
274.934	66.73
275.15	-31.57
275.366	87.21
275.581	-39.76
275.797	38.06
276.012	21.67
276.228	9.39
276.444	17.58
276.659	52.39
276.875	54.44
277.09	9.39
277.306	113.83
277.521	-17.24
277.737	-17.24
277.952	76.97
278.168	25.77
278.383	38.06
278.599	46.25
278.814	11.43
279.03	36.01
279.245	36.01
279.461	-4.95
279.676	64.68
279.892	-76.63
280.107	29.87
280.322	3.24
280.538	33.96
280.753	-9.05
280.969	11.43
281.184	7.34
281.399	93.35
281.615	48.3
281.83	-17.24
282.045	5.29
282.26	33.96
282.476	40.11
282.691	5.29
282.906	1.19
283.122	33.96
283.337	70.83
283.552	-39.76
283.767	33.96
283.983	70.83
284.198	-23.38
284.413	33.96
284.628	-21.33
284.843	42.15
285.058	3.24
285.274	9.39
285.489	66.73
285.704	76.97
285.919	-11.09
286.134	19.63
286.349	54.44
286.564	17.58
286.779	11.43
286.995	79.02
287.21	42.15
287.425	19.63
287.64	-13.14
287.855	60.59
288.07	5.29
288.285	-15.19
288.5	54.44
288.715	3.24
288.93	46.25
289.145	58.54
289.36	25.77
289.575	62.63
289.79	29.87
290.004	5.29
290.219	52.39
290.434	27.82
290.649	-31.57
290.864	19.63
291.079	25.77
291.294	-27.48
291.509	-15.19
291.724	-27.48
291.938	-4.95
292.153	103.59
292.368	5.29
292.583	-31.57
292.798	-27.48
293.012	46.25
293.227	58.54
293.442	42.15
293.657	29.87
293.871	74.92
294.086	-31.57
294.301	70.83
294.516	25.77
294.73	95.4
294.945	5.29
295.16	68.78
295.374	21.67
295.589	68.78
295.804	-56.15
296.018	-15.19
296.233	60.59
296.447	66.73
296.662	27.82
296.877	101.55
297.091	7.34
297.306	58.54
297.52	68.78
297.735	25.77
297.949	19.63
298.164	11.43
298.378	27.82
298.593	-7
298.807	-17.24
299.022	-11.09
299.236	21.67
299.451	17.58
299.665	56.49
299.88	23.72
300.094	15.53
300.309	31.91
300.523	21.67
300.737	1.19
300.952	5.29
301.166	62.63
301.381	19.63
301.595	-0.85
301.809	-23.38
302.024	-27.48
302.238	23.72
302.452	-0.85
302.667	40.11
302.881	83.11
303.095	83.11
303.309	1.19
303.524	42.15
303.738	27.82
303.952	17.58
304.166	9.39
304.381	-31.57
304.595	38.06
304.809	11.43
305.023	58.54
305.237	64.68
305.452	-9.05
305.666	9.39
305.88	27.82
306.094	9.39
306.308	-11.09
306.522	-19.29
306.736	25.77
306.95	-37.72
307.164	25.77
307.379	-4.95
307.593	93.35
307.807	40.11
308.021	76.97
308.235	38.06
308.449	11.43
308.663	9.39
308.877	27.82
309.091	70.83
309.305	93.35
309.519	13.48
309.733	62.63
309.947	7.34
310.161	42.15
310.374	60.59
310.588	83.11
310.802	-2.9
311.016	-19.29
311.23	46.25
311.444	-47.96
311.658	21.67
311.872	31.91
312.085	76.97
312.299	25.77
312.513	33.96
312.727	9.39
312.941	21.67
313.154	-68.44
313.368	7.34
313.582	-9.05
313.796	56.49
314.009	-13.14
314.223	48.3
314.437	21.67
314.651	11.43
314.864	52.39
315.078	54.44
315.292	17.58
315.505	-54.1
315.719	-13.14
315.933	54.44
316.146	99.5
316.36	60.59
316.573	72.87
316.787	-13.14
317.001	33.96
317.214	7.34
317.428	21.67
317.641	-27.48
317.855	-31.57
318.068	46.25
318.282	-54.1
318.495	15.53
318.709	46.25
318.922	-17.24
319.136	93.35
319.349	-11.09
319.563	83.11
319.776	38.06
319.99	60.59
320.203	-4.95
320.417	87.21
320.63	-11.09
320.843	40.11
321.057	91.31
321.27	60.59
321.483	31.91
321.697	31.91
321.91	60.59
322.124	9.39
322.337	85.16
322.55	-52.05
322.763	38.06
322.977	58.54
323.19	42.15
323.403	7.34
323.617	-25.43
323.83	29.87
324.043	13.48
324.256	5.29
324.469	29.87
324.683	-13.14
324.896	-27.48
325.109	23.72
325.322	-27.48
325.535	70.83
325.748	38.06
325.962	97.45
326.175	13.48
326.388	29.87
326.601	-41.81
326.814	44.2
327.027	3.24
327.24	52.39
327.453	-35.67
327.666	46.25
327.879	62.63
328.092	54.44
328.305	-43.86
328.518	21.67
328.731	-21.33
328.944	95.4
329.157	25.77
329.37	13.48
329.583	60.59
329.796	36.01
330.009	-29.52
330.222	3.24
330.435	50.35
330.648	50.35
330.861	-70.48
331.073	-15.19
331.286	42.15
331.499	66.73
331.712	13.48
331.925	23.72
332.138	-15.19
332.35	79.02
332.563	33.96
332.776	103.59
332.989	-4.95
333.202	23.72
333.414	-99.16
333.627	60.59
333.84	48.3
334.053	40.11
334.265	-15.19
334.478	-7
334.691	54.44
334.903	66.73
335.116	-13.14
335.329	19.63
335.541	-2.9
335.754	62.63
335.966	31.91
336.179	38.06
336.392	107.69
336.604	23.72
336.817	9.39
337.029	31.91
337.242	17.58
337.454	5.29
337.667	70.83
337.88	5.29
338.092	11.43
338.305	-41.81
338.517	7.34
338.729	29.87
338.942	-21.33
339.154	46.25
339.367	27.82
339.579	42.15
339.792	3.24
340.004	136.36
340.217	60.59
340.429	38.06
340.641	13.48
340.854	27.82
341.066	33.96
341.278	74.92
341.491	89.26
341.703	95.4
341.915	-52.05
342.128	-17.24
342.34	3.24
342.552	-47.96
342.764	17.58
342.977	95.4
343.189	-23.38
343.401	1.19
343.613	-13.14
343.826	38.06
344.038	31.91
344.25	13.48
344.462	-31.57
344.674	19.63
344.886	29.87
345.099	50.35
345.311	42.15
345.523	13.48
345.735	-64.34
345.947	19.63
346.159	44.2
346.371	132.26
346.583	13.48
346.795	109.74
347.007	-19.29
347.219	50.35
347.431	15.53
347.643	25.77
347.855	66.73
348.067	124.07
348.279	-4.95
348.491	-39.76
348.703	79.02
348.915	-70.48
349.127	-58.2
349.339	25.77
349.551	36.01
349.763	58.54
349.975	7.34
350.187	40.11
350.399	25.77
350.61	-4.95
350.822	50.35
351.034	44.2
351.246	-31.57
351.458	105.64
351.669	29.87
351.881	83.11
352.093	46.25
352.305	66.73
352.517	89.26
352.728	-13.14
352.94	15.53
353.152	70.83
353.363	79.02
353.575	109.74
353.787	19.63
353.999	44.2
354.21	54.44
354.422	64.68
354.633	38.06
354.845	44.2
355.057	31.91
355.268	3.24
355.48	46.25
355.692	-21.33
355.903	7.34
356.115	-2.9
356.326	54.44
356.538	23.72
356.749	-27.48
356.961	74.92
357.172	74.92
357.384	13.48
357.595	23.72
357.807	81.07
358.018	27.82
358.23	29.87
358.441	95.4
358.653	58.54
358.864	13.48
359.075	-19.29
359.287	60.59
359.498	9.39
359.709	107.69
359.921	-7
360.132	-7
360.344	17.58
360.555	42.15
360.766	56.49
360.977	44.2
361.189	-4.95
361.4	40.11
361.611	-11.09
361.823	62.63
362.034	11.43
362.245	13.48
362.456	79.02
362.667	-43.86
362.879	83.11
363.09	17.58
363.301	50.35
363.512	40.11
363.723	-47.96
363.935	48.3
364.146	29.87
364.357	15.53
364.568	50.35
364.779	-35.67
364.99	83.11
365.201	44.2
365.412	-21.33
365.623	17.58
365.834	-25.43
366.045	-7
366.256	40.11
366.467	-15.19
366.678	7.34
366.889	-31.57
367.1	66.73
367.311	-15.19
367.522	62.63
367.733	-11.09
367.944	74.92
368.155	44.2
368.366	29.87
368.577	89.26
368.788	11.43
368.999	17.58
369.209	33.96
369.42	91.31
369.631	52.39
369.842	52.39
370.053	48.3
370.264	46.25
370.474	27.82
370.685	40.11
370.896	-68.44
371.107	62.63
371.317	54.44
371.528	-45.91
371.739	54.44
371.95	124.07
372.16	66.73
372.371	-9.05
372.582	21.67
372.792	5.29
373.003	-15.19
373.214	99.5
373.424	27.82
373.635	21.67
373.846	11.43
374.056	13.48
374.267	124.07
374.477	-7
374.688	-19.29
374.898	25.77
375.109	-9.05
375.319	40.11
375.53	40.11
375.74	9.39
375.951	66.73
376.161	52.39
376.372	-11.09
376.582	62.63
376.793	-27.48
377.003	5.29
377.214	29.87
377.424	-31.57
377.635	29.87
377.845	36.01
378.055	119.98
378.266	54.44
378.476	66.73
378.686	107.69
378.897	111.78
379.107	11.43
379.317	50.35
379.528	79.02
379.738	60.59
379.948	-4.95
380.158	113.83
380.369	-4.95
380.579	64.68
380.789	13.48
380.999	1.19
381.21	33.96
381.42	140.46
381.63	40.11
381.84	46.25
382.05	-39.76
382.261	19.63
382.471	95.4
382.681	15.53
382.891	107.69
383.101	72.87
383.311	79.02
383.521	38.06
383.731	19.63
383.941	74.92
384.151	-2.9
384.361	70.83
384.571	115.88
384.781	40.11
384.991	40.11
385.201	3.24
385.411	42.15
385.621	40.11
385.831	17.58
386.041	-21.33
386.251	44.2
386.461	46.25
386.671	11.43
386.881	58.54
387.091	54.44
387.301	122.02
387.511	25.77
387.72	1.19
387.93	-11.09
388.14	42.15
388.35	60.59
388.56	25.77
388.769	42.15
388.979	107.69
389.189	19.63
389.399	64.68
389.609	36.01
389.818	66.73
390.028	54.44
390.238	46.25
390.447	56.49
390.657	50.35
390.867	-15.19
391.076	3.24
391.286	115.88
391.496	48.3
391.705	15.53
391.915	83.11
392.125	76.97
392.334	50.35
392.544	52.39
392.753	68.78
392.963	-9.05
393.172	122.02
393.382	44.2
393.591	109.74
393.801	25.77
394.01	105.64
394.22	29.87
394.429	68.78
394.639	89.26
394.848	91.31
395.058	42.15
395.267	87.21
395.477	111.78
395.686	-0.85
395.895	17.58
396.105	95.4
396.314	27.82
396.524	60.59
396.733	52.39
396.942	136.36
397.152	89.26
397.361	25.77
397.57	95.4
397.78	109.74
397.989	13.48
398.198	58.54
398.407	1.19
398.617	66.73
398.826	58.54
399.035	83.11
399.244	48.3
399.453	68.78
399.663	64.68
399.872	85.16
400.081	152.74
400.29	44.2
400.499	107.69
400.708	119.98
400.917	103.59
401.127	122.02
401.336	79.02
401.545	140.46
401.754	95.4
401.963	72.87
402.172	58.54
402.381	64.68
402.59	79.02
402.799	13.48
403.008	54.44
403.217	158.89
403.426	117.93
403.635	70.83
403.844	72.87
404.053	142.5
404.262	38.06
404.471	165.03
404.68	126.12
404.888	103.59
405.097	21.67
405.306	119.98
405.515	68.78
405.724	58.54
405.933	160.94
406.142	74.92
406.35	89.26
406.559	177.32
406.768	79.02
406.977	91.31
407.185	134.31
407.394	226.47
407.603	158.89
407.812	146.6
408.02	177.32
408.229	208.04
408.438	167.08
408.646	185.51
408.855	124.07
409.064	167.08
409.272	271.53
409.481	234.66
409.69	95.4
409.898	187.56
410.107	205.99
410.315	298.15
410.524	144.55
410.733	312.49
410.941	255.14
411.15	332.97
411.358	228.52
411.567	345.25
411.775	257.19
411.984	273.57
412.192	314.53
412.401	259.24
412.609	337.06
412.818	353.45
413.026	386.21
413.234	320.68
413.443	371.88
413.651	300.2
413.86	367.78
414.068	425.12
414.276	418.98
414.485	375.97
414.693	435.36
414.901	500.9
415.11	539.81
415.318	457.89
415.526	578.72
415.734	562.34
415.943	613.54
416.151	572.58
416.359	674.98
416.567	668.83
416.776	685.22
416.984	715.94
417.192	652.45
417.4	619.68
417.608	713.89
417.817	853.15
418.025	773.28
418.233	834.72
418.441	785.57
418.649	971.93
418.857	863.39
419.065	935.07
419.273	965.79
419.481	1092.76
419.689	1033.37
419.897	1197.21
420.105	1096.86
420.313	1186.97
420.521	1236.12
420.729	1275.03
420.937	1189.02
421.145	1322.13
421.353	1350.81
421.561	1502.36
421.769	1447.06
421.977	1512.6
422.185	1506.45
422.393	1623.19
422.601	1752.21
422.809	1586.32
423.017	1664.15
423.224	1717.39
423.432	1690.77
423.64	1897.61
423.848	1985.68
424.056	1928.33
424.263	2010.25
424.471	2083.98
424.679	2186.38
424.887	2204.81
425.094	2331.78
425.302	2448.52
425.51	2325.64
425.718	2458.76
425.925	2454.66
426.133	2643.07
426.341	2727.04
426.548	2804.86
426.756	2888.83
426.964	2985.09
427.171	3134.59
427.379	3220.6
427.586	3275.9
427.794	3189.88
428.001	3439.73
428.209	3646.58
428.417	3501.17
428.624	3912.81
428.832	3787.89
429.039	3753.07
429.247	3765.36
429.454	4134
429.662	4392.04
429.869	4234.35
430.076	4359.27
430.284	4281.45
430.491	4537.45
430.699	4807.78
430.906	4535.4
431.114	4842.59
431.321	4928.61
431.528	5088.35
431.736	5510.23
431.943	5626.96
432.15	5411.93
432.358	5596.25
432.565	5719.12
432.772	5874.77
432.979	6272.07
433.187	6114.38
433.394	6163.53
433.601	6683.72
433.808	6947.9
434.016	6603.85
434.223	7099.45
434.43	7547.96
434.637	7150.65
434.844	7697.46
435.052	7846.96
435.259	7996.46
435.466	7812.15
435.673	7830.58
435.88	8461.35
436.087	8893.47
436.294	8606.76
436.501	8434.73
436.708	8733.73
436.915	9143.33
437.122	9419.8
437.329	9356.32
437.537	9825.3
437.743	10099.73
437.95	9798.68
438.157	10417.16
438.364	10705.93
438.571	10728.45
438.778	10830.85
438.985	11652.09
439.192	11156.48
439.399	11615.23
439.606	11314.17
439.813	11926.52
440.02	12712.94
440.227	12487.66
440.433	12213.23
440.64	12817.38
440.847	12725.22
441.054	13069.28
441.261	13929.43
441.467	13630.43
441.674	13966.29
441.881	14400.46
442.088	14373.84
442.294	14304.21
442.501	14666.7
442.708	14822.34
442.914	15606.72
443.121	16315.31
443.328	15758.27
443.534	16753.58
443.741	16186.29
443.948	16260.02
444.154	17445.79
444.361	17388.45
444.568	17460.13
444.774	17433.5
444.981	17460.13
445.187	18158.49
445.394	18848.65
445.6	18817.93
445.807	20407.16
446.013	19659.65
446.22	20081.53
446.426	20652.91
446.633	20824.94
446.839	21310.31
447.046	20630.38
447.252	21803.87
447.459	21936.99
447.665	21601.12
447.871	22913.87
448.078	23872.32
448.284	22739.79
448.491	23171.91
448.697	24234.81
448.903	24568.63
449.11	24650.55
449.316	24269.62
449.522	24523.57
449.728	25373.48
449.935	25545.51
450.141	25457.45
450.347	26307.35
450.553	25146.15
450.76	25324.33
450.966	26188.57
451.172	26018.59
451.378	26852.11
451.584	26254.11
451.791	26823.44
451.997	26671.89
452.203	27106.06
452.409	27130.64
452.615	26770.19
452.821	25862.94
453.027	25940.77
453.233	27235.08
453.44	26260.25
453.646	26440.47
453.852	26544.92
454.058	26700.56
454.264	26069.79
454.47	26520.34
454.676	25746.21
454.882	26602.26
455.088	24646.45
455.294	25010.99
455.5	25029.42
455.705	25506.6
455.911	24286.01
456.117	23980.86
456.323	23653.19
456.529	22367.06
456.735	23362.37
456.941	22809.42
457.147	22358.87
457.352	21418.85
457.558	21496.67
457.764	21306.21
457.97	21255.01
458.176	20870
458.381	20779.89
458.587	19544.96
458.793	19780.48
458.999	18500.5
459.204	19823.48
459.41	19477.38
459.616	17890.2
459.821	18133.91
460.027	17826.71
460.233	17847.19
460.438	16931.75
460.644	17013.67
460.85	16374.7
461.055	15754.17
461.261	15952.82
461.466	14832.58
461.672	14435.28
461.878	15598.52
462.083	14537.68
462.289	13784.02
462.494	13618.14
462.7	13249.5
462.905	12968.93
463.111	13349.85
463.316	13480.92
463.522	13267.94
463.727	13003.75
463.932	12940.26
464.138	12872.68
464.343	12940.26
464.549	12415.98
464.754	13075.43
464.959	13018.08
465.165	12610.54
465.37	12282.86
465.575	11838.45
465.781	12428.27
465.986	12534.76
466.191	12028.92
466.397	11787.25
466.602	11244.54
466.807	11547.64
467.012	11596.79
467.218	11600.89
467.423	11598.84
467.628	11492.35
467.833	12026.87
468.038	11549.69
468.244	11170.82
468.449	11850.74
468.654	11408.38
468.859	11277.31
469.064	11109.38
469.269	10738.69
469.474	10796.04
469.679	11076.61
469.885	10775.56
470.09	11179.01
470.295	10746.89
470.5	10451.98
470.705	10585.1
470.91	10249.23
471.115	10177.55
471.32	10329.1
471.525	10380.3
471.73	10064.91
471.935	10040.34
472.139	9671.7
472.344	9804.82
472.549	9780.25
472.754	9661.46
472.959	9651.22
473.164	9260.06
473.369	9038.88
473.574	9593.88
473.778	9364.51
473.983	9352.22
474.188	9188.38
474.393	8858.66
474.598	8784.93
474.802	8717.35
475.007	8778.79
475.212	8733.73
475.417	8586.28
475.621	8303.66
475.826	8444.97
476.031	8342.57
476.235	8369.19
476.44	8236.08
476.645	8012.85
476.849	8053.81
477.054	8018.99
477.259	7869.49
477.463	7851.06
477.668	7851.06
477.872	7789.62
478.077	7707.7
478.282	7484.47
478.486	7486.52
478.691	7504.95
478.895	7269.44
479.1	7308.35
479.304	7242.81
479.509	7009.34
479.713	7193.66
479.918	6997.06
480.122	6929.47
480.326	6968.38
480.531	6952
480.735	7001.15
480.94	6845.51
481.144	7001.15
481.348	6808.64
481.553	6831.17
481.757	6779.97
481.961	6933.57
482.166	6720.58
482.37	6788.16
482.574	6736.96
482.778	6857.79
482.983	6915.14
483.187	6714.44
483.391	6806.59
483.595	6775.88
483.8	6704.2
484.004	6878.27
484.208	6804.55
484.412	6779.97
484.616	6771.78
484.821	6585.41
485.025	6550.6
485.229	6886.47
485.433	6626.37
485.637	6728.77
485.841	6620.23
486.045	6609.99
486.249	6605.89
486.453	6804.55
486.657	6753.35
486.861	6755.4
487.065	6542.41
487.269	6771.78
487.473	6573.13
487.677	6835.27
487.881	6911.04
488.085	6861.89
488.289	6829.12
488.493	6763.59
488.697	6908.99
488.901	6786.12
489.105	6829.12
489.309	6628.42
489.512	6925.38
489.716	6734.92
489.92	6667.33
490.124	6724.68
490.328	6845.51
490.531	6835.27
490.735	6825.03
490.939	6908.99
491.143	6712.39
491.346	6820.93
491.55	7003.2
491.754	6886.47
491.958	7066.69
492.161	6888.51
492.365	7091.26
492.569	6837.31
492.772	7072.83
492.976	7244.86
493.18	7152.7
493.383	7201.85
493.587	7320.63
493.79	7388.22
493.994	7259.2
494.197	7558.2
494.401	7572.54
494.605	7386.17
494.808	7550.01
495.012	7662.65
495.215	7726.13
495.419	7822.39
495.622	7449.66
495.825	7978.03
496.029	7736.37
496.232	8002.61
496.436	7822.39
496.639	8217.65
496.843	7859.25
497.046	8199.21
497.249	8197.17
497.453	8215.6
497.656	8449.07
497.859	8285.23
498.063	8367.15
498.266	8762.4
498.469	8725.54
498.673	8684.58
498.876	8858.66
499.079	8920.1
499.282	8731.69
499.485	9454.62
499.689	9212.96
499.892	9344.03
500.095	9481.24
500.298	9464.86
500.501	9442.33
500.705	9808.92
500.908	9929.75
501.111	9894.93
501.314	10171.41
501.517	10140.69
501.72	10220.56
501.923	10298.38
502.126	10617.86
502.329	10804.23
502.532	10650.63
502.735	10710.02
502.938	11090.95
503.141	10966.02
503.344	11088.9
503.547	11275.26
503.75	11502.59
503.953	11588.6
504.156	11559.93
504.359	11678.71
504.562	11883.51
504.765	11791.35
504.968	12055.54
505.17	12344.3
505.373	12274.67
505.576	12387.31
505.779	12598.25
505.982	12741.61
506.185	12919.78
506.387	12944.36
506.59	13112.29
506.793	13413.34
506.996	13267.94
507.198	13659.1
507.401	13808.6
507.604	13650.91
507.807	13870.04
508.009	14089.17
508.212	14037.97
508.415	14320.59
508.617	14621.64
508.82	14367.7
509.022	14603.21
509.225	14773.19
509.428	14967.75
509.63	15102.92
509.833	15305.67
510.035	15395.78
510.238	15494.08
510.44	15657.92
510.643	16006.07
510.845	15891.38
511.048	15791.03
511.25	16120.76
511.453	16419.76
511.655	16649.13
511.858	16528.3
512.06	16577.45
512.262	16880.55
512.465	16952.23
512.667	17290.15
512.87	17284
513.072	17521.57
513.274	17542.05
513.477	17812.38
513.679	18107.29
513.881	18074.52
514.084	18477.97
514.286	18252.69
514.488	18451.35
514.69	19127.17
514.893	19223.43
515.095	19002.25
515.297	19356.55
515.499	19381.12
515.701	19413.89
515.904	19948.41
516.106	19764.09
516.308	19841.92
516.51	20267.89
516.712	20284.28
516.914	20243.32
517.116	20634.48
517.318	20910.96
517.52	21007.21
517.722	20892.52
517.925	21490.53
518.127	21570.4
518.329	21773.15
518.531	21529.44
518.733	21928.8
518.935	22170.46
519.136	21928.8
519.338	22565.71
519.54	22387.54
519.742	22606.67
519.944	22752.08
520.146	22913.87
520.348	23444.29
520.55	23147.34
520.752	23405.38
520.954	23890.75
521.155	23667.52
521.357	23999.29
521.559	24443.7
521.761	24349.5
521.963	24404.79
522.164	24380.21
522.366	24748.85
522.568	25031.47
522.77	25156.39
522.971	25252.65
523.173	25041.71
523.375	25543.46
523.576	25246.51
523.778	25580.32
523.98	25731.87
524.181	25852.7
524.383	25998.11
524.584	26475.29
524.786	26403.61
524.988	26374.94
525.189	26518.29
525.391	26325.78
525.592	26778.39
525.794	27011.85
525.995	27179.79
526.197	27151.12
526.398	27042.57
526.6	27319.05
526.801	27345.67
527.003	27456.26
527.204	27439.88
527.406	27833.09
527.607	27523.85
527.808	28087.04
528.01	27822.85
528.211	27857.67
528.412	28195.58
528.614	28066.56
528.815	28025.6
529.016	28265.21
529.218	28463.86
529.419	28406.52
529.62	28369.66
529.822	28402.43
530.023	28312.31
530.224	28639.99
530.425	28492.54
530.626	28582.65
530.828	28328.7
531.029	29344.49
531.23	28738.29
531.431	28615.41
531.632	28818.16
531.833	28883.7
532.035	28799.73
532.236	28832.5
532.437	28994.29
532.638	28910.32
532.839	28943.09
533.04	29229.8
533.241	28920.56
533.442	29190.89
533.643	29137.65
533.844	29061.87
534.045	29186.8
534.246	28895.99
534.447	29342.44
534.648	28769.01
534.849	29244.14
535.05	29070.06
535.251	29324.01
535.451	28879.6
535.652	28916.47
535.853	29348.59
536.054	29231.85
536.255	29375.21
536.456	28785.4
536.657	29457.13
536.857	29309.68
537.058	28822.26
537.259	29493.99
537.46	29029.1
537.66	29129.45
537.861	29414.12
538.062	29577.96
538.263	29678.31
538.463	29051.63
538.664	29321.96
538.865	29377.26
539.065	29143.79
539.266	28861.17
539.466	29303.53
539.667	28859.12
539.868	29530.86
540.068	29340.39
540.269	29272.81
540.469	29324.01
540.67	28982
540.87	29020.91
541.071	29090.54
541.271	29481.7
541.472	29086.45
541.672	28996.34
541.873	28793.59
542.073	28803.83
542.274	29190.89
542.474	29068.02
542.675	28924.66
542.875	29410.03
543.075	29108.97
543.276	28756.72
543.476	29262.57
543.676	28875.51
543.877	29330.16
544.077	29235.95
544.277	29065.97
544.478	28986.1
544.678	29248.24
544.878	29125.36
545.078	29264.62
545.279	28861.17
545.479	28941.04
545.679	29010.67
545.879	28812.02
546.079	28949.23
546.28	28744.44
546.48	28506.87
546.68	28666.61
546.88	29307.63
547.08	29190.89
547.28	28805.88
547.48	28668.66
547.68	28871.41
547.88	28842.74
548.081	28979.95
548.281	28795.64
548.481	28867.31
548.681	29389.55
548.881	29027.06
549.081	28898.03
549.28	28605.17
549.48	28789.49
549.68	28605.17
549.88	28932.85
550.08	28474.1
550.28	28766.96
550.48	28828.4
550.68	28705.52
550.88	28515.06
551.08	28642.04
551.279	28781.3
551.479	28513.02
551.679	28764.92
551.879	28603.13
552.079	29151.98
552.278	28461.82
552.478	28812.02
552.678	28701.43
552.878	28814.07
553.077	28553.97
553.277	28697.33
553.477	29045.49
553.676	28822.26
553.876	28506.87
554.076	28431.1
554.275	28324.6
554.475	28191.48
554.674	27978.5
554.874	28447.48
555.074	28369.66
555.273	28689.14
555.473	28674.81
555.672	28173.05
555.872	28128
556.071	28279.55
556.271	28531.45
556.47	28164.86
556.67	27796.23
556.869	27998.98
557.068	27878.15
557.268	27931.39
557.467	27886.34
557.667	28005.12
557.866	27964.16
558.065	28093.18
558.265	27616.01
558.464	27857.67
558.663	28226.3
558.863	27747.08
559.062	28025.6
559.261	27671.3
559.461	28238.59
559.66	27527.94
559.859	27730.69
560.058	27353.87
560.258	27732.74
560.457	27374.34
560.656	27869.95
560.855	27306.76
561.054	27872
561.253	27142.92
561.453	27654.92
561.652	27325.19
561.851	27312.91
562.05	26919.7
562.249	27077.39
562.448	27333.39
562.647	27273.99
562.846	26800.91
563.045	27226.89
563.244	26610.45
563.443	27226.89
563.642	26745.62
563.841	26909.46
564.04	26942.22
564.239	26866.45
564.438	26835.73
564.637	26641.17
564.836	26833.68
565.035	26530.58
565.234	26565.4
565.432	26635.03
565.631	26311.45
565.83	26542.87
566.029	26483.48
566.228	26522.39
566.427	26225.43
566.625	26301.21
566.824	25750.31
567.023	26297.11
567.222	25932.57
567.42	26432.28
567.619	26004.25
567.818	26141.47
568.016	25568.04
568.215	26120.99
568.414	25588.52
568.612	25916.19
568.811	25330.47
569.01	25623.33
569.208	25578.28
569.407	25619.24
569.605	25436.97
569.804	25639.72
570.002	25260.84
570.201	25529.13
570.4	25363.24
570.598	24927.02
570.797	24943.41
570.995	24974.13
571.193	24920.88
571.392	24963.89
571.59	24701.75
571.789	25158.44
571.987	24904.49
572.186	24765.23
572.384	24740.66
572.582	24769.33
572.781	24886.06
572.979	24474.42
573.177	24652.59
573.376	24769.33
573.574	23980.86
573.772	24535.86
573.971	24378.17
574.169	24220.47
574.367	24066.88
574.565	24036.16
574.763	24060.73
574.962	23819.07
575.16	23726.91
575.358	23702.34
575.556	23558.98
575.754	23905.09
575.952	23513.92
576.151	23765.82
576.349	23833.41
576.547	23565.12
576.745	23356.23
576.943	23690.05
577.141	23442.24
577.339	23659.33
577.537	23065.42
577.735	23587.65
577.933	23198.54
578.131	23120.71
578.329	23022.41
578.527	23184.2
578.725	23110.47
578.923	23169.87
579.121	22895.44
579.319	22551.38
579.516	22899.53
579.714	22686.54
579.912	22672.21
580.11	22399.83
580.308	22612.82
580.506	22743.89
580.704	22074.2
580.901	22070.11
581.099	22459.22
581.297	22281.05
581.495	22172.5
581.692	22469.46
581.89	22020.95
582.088	22279
582.285	21697.38
582.483	22145.88
582.681	21947.23
582.878	21658.46
583.076	21834.59
583.274	22010.71
583.471	21439.33
583.669	21836.64
583.866	21525.35
584.064	21601.12
584.262	21414.76
584.459	21633.89
584.657	21248.87
584.854	21730.14
585.052	21158.76
585.249	21058.41
585.447	21457.76
585.644	20906.86
585.841	21136.23
586.039	21304.17
586.236	20972.39
586.434	21029.74
586.631	20960.11
586.828	20841.32
587.026	20837.23
587.223	20814.7
587.42	20489.07
587.618	20353.91
587.815	20450.16
588.012	20401.01
588.21	20319.09
588.407	20534.13
588.604	20409.2
588.801	20331.38
588.999	20171.64
589.196	20284.28
589.393	20401.01
589.59	19979.13
589.787	20106.1
589.984	19768.19
590.182	19837.82
590.379	19917.69
590.576	19567.49
590.773	19862.4
590.97	19594.11
591.167	19784.57
591.364	19356.55
591.561	19426.18
591.758	19489.67
591.955	19420.03
592.152	19231.62
592.349	19192.71
592.546	19426.18
592.743	19264.39
592.94	18940.81
593.137	19389.31
593.334	19155.85
593.531	19065.74
593.727	18860.94
593.924	18799.5
594.121	18611.09
594.318	19006.34
594.515	18576.27
594.712	18764.68
594.908	18684.81
595.105	18492.3
595.302	18357.14
595.499	18459.54
595.696	18258.84
595.892	18281.36
596.089	18195.35
596.286	18205.59
596.482	18305.94
596.679	17908.63
596.876	18056.09
597.072	18092.95
597.269	17990.55
597.466	18072.47
597.662	17834.91
597.859	17791.9
598.055	18037.66
598.252	17568.67
598.448	17793.95
598.645	17607.58
598.841	17542.05
599.038	17941.4
599.234	17419.17
599.431	17384.35
599.627	17421.22
599.824	17607.58
600.02	17187.75
600.217	17310.63
600.413	17124.26
600.609	17152.93
600.806	17036.2
601.002	16962.47
601.198	16745.39
601.395	16645.04
601.591	16706.48
601.787	16839.59
601.984	16448.43
602.18	16630.7
602.376	16583.6
602.572	16509.87
602.769	16534.45
602.965	16139.19
603.161	16634.8
603.357	16556.97
603.553	16436.14
603.75	16167.86
603.946	16174
604.142	16403.38
604.338	15991.73
604.534	16141.24
604.73	15735.74
604.926	16094.13
605.122	16059.32
605.318	15758.27
605.514	15612.86
605.71	15844.28
605.906	15690.68
606.102	15743.93
606.298	15690.68
606.494	15940.54
606.69	15616.96
606.886	15489.98
607.082	15541.18
607.278	15735.74
607.474	15444.93
607.67	15377.34
607.866	15145.92
608.062	15686.59
608.257	15305.67
608.453	15363.01
608.649	15326.14
608.845	15268.8
609.041	15231.94
609.236	15162.31
609.432	15174.6
609.628	15383.49
609.824	15049.67
610.019	14914.5
610.215	15061.96
610.411	14912.46
610.606	15086.53
610.802	15156.16
610.998	15018.95
611.193	15031.24
611.389	14851.02
611.584	14973.89
611.78	14627.79
611.976	14793.67
612.171	14492.62
612.367	14578.64
612.562	14621.64
612.758	14488.53
612.953	14353.36
613.149	14787.53
613.344	14625.74
613.539	14695.37
613.735	14513.1
613.93	14535.63
614.126	14549.96
614.321	14601.16
614.517	14429.13
614.712	14398.41
614.907	14351.31
615.103	14472.14
615.298	14228.43
615.493	14500.81
615.688	14033.88
615.884	14316.5
616.079	14177.23
616.274	14511.05
616.47	14291.92
616.665	14148.56
616.86	14136.27
617.055	14046.16
617.25	14025.68
617.445	14308.3
617.641	13818.84
617.836	14048.21
618.031	13853.66
618.226	14060.5
618.421	13855.7
618.616	13849.56
618.811	13990.87
619.006	13872.09
619.201	13685.72
619.396	13896.66
619.591	13558.75
619.786	13655
619.981	13390.81
620.176	13646.81
620.371	13368.29
620.566	13362.14
620.761	13071.33
620.956	13280.22
621.151	12921.83
621.346	13286.37
621.541	12811.24
621.735	13077.48
621.93	12512.24
622.125	12639.21
622.32	12696.55
622.515	12514.28
622.709	12518.38
622.904	12536.81
623.099	12397.55
623.294	12497.9
623.488	12284.91
623.683	12280.82
623.878	12340.21
624.072	12127.22
624.267	12037.11
624.462	12164.08
624.656	12022.77
624.851	12106.74
625.046	11949.04
625.24	11920.37
625.435	11779.06
625.629	11658.23
625.824	11650.04
626.018	11490.3
626.213	11197.44
626.407	11529.21
626.602	11365.37
626.796	11176.96
626.991	11410.43
627.185	11269.12
627.38	11273.21
627.574	11103.23
627.768	11054.08
627.963	10923.01
628.157	10949.64
628.352	10966.02
628.546	11031.55
628.74	10570.76
628.935	10773.51
629.129	10617.86
629.323	10454.03
629.517	10316.81
629.712	10558.47
629.906	10398.73
630.1	10251.28
630.294	10224.65
630.489	10476.55
630.683	10372.11
630.877	10052.63
631.071	9841.68
631.265	9899.03
631.459	9960.47
631.653	10071.06
631.848	10028.05
632.042	9671.7
632.236	10007.57
632.43	9741.33
632.624	9532.44
632.818	9727
633.012	9497.63
633.206	9440.28
633.4	9628.7
633.594	9241.63
633.788	9698.33
633.982	9215.01
634.176	9313.31
634.369	9149.47
634.563	9110.56
634.757	9184.29
634.951	9231.39
635.145	9139.23
635.339	9030.69
635.533	8834.08
635.726	8891.43
635.92	8999.97
636.114	8743.97
636.308	8844.32
636.501	8731.69
636.695	8606.76
636.889	8672.29
637.083	8662.05
637.276	8676.39
637.47	8524.84
637.664	8406.06
637.857	8461.35
638.051	8555.56
638.244	8213.55
638.438	8231.98
638.632	8320.04
638.825	8121.39
639.019	8211.5
639.212	8115.25
639.406	7975.98
639.599	7982.13
639.793	7975.98
639.986	7920.69
640.18	8000.56
640.373	7926.83
640.567	7803.96
640.76	7846.96
640.954	7586.87
641.147	7771.19
641.34	7744.56
641.534	7775.28
641.727	7613.49
641.92	7550.01
642.114	7580.73
642.307	7427.13
642.5	7507
642.694	7359.55
642.887	7373.88
643.08	7265.34
643.273	7322.68
643.467	7230.52
643.66	7414.84
643.853	7201.85
644.046	7107.65
644.239	7087.17
644.432	7164.99
644.626	6995.01
644.819	7038.02
645.012	6972.48
645.205	6911.04
645.398	6878.27
645.591	6788.16
645.784	6833.22
645.977	6775.88
646.17	6931.52
646.363	6638.66
646.556	6685.76
646.749	6573.13
646.942	6657.09
647.135	6665.28
647.328	6564.93
647.521	6786.12
647.714	6171.72
647.907	6442.06
648.099	6353.99
648.292	6485.06
648.485	6362.19
648.678	6214.73
648.871	6190.16
649.064	6224.97
649.256	6272.07
649.449	6270.03
649.642	6167.63
649.835	6071.37
650.027	5981.26
650.22	6069.33
650.413	5944.4
650.605	5907.54
650.798	5870.67
650.991	5979.22
651.183	5874.77
651.376	5901.39
651.568	5905.49
651.761	5723.22
651.954	5905.49
652.146	5850.19
652.339	5682.26
652.531	5614.68
652.724	5719.12
652.916	5612.63
653.109	5608.53
653.301	5581.91
653.494	5602.39
653.686	5592.15
653.879	5522.52
654.071	5446.74
654.263	5368.92
654.456	5407.83
654.648	5383.26
654.84	5317.72
655.033	5385.3
655.225	5200.99
655.417	5270.62
655.61	5149.79
655.802	5252.19
655.994	5127.26
656.186	5024.86
656.379	5088.35
656.571	5082.21
656.763	5198.94
656.955	5112.92
657.148	5031.01
657.34	5024.86
657.532	4947.04
657.724	4918.37
657.916	5078.11
658.108	4895.84
658.3	4912.22
658.492	4904.03
658.684	4732
658.876	4787.3
659.068	4662.37
659.26	4648.04
659.452	4852.83
659.644	4912.22
659.836	4711.52
660.028	4725.86
660.22	4744.29
660.412	4637.8
660.604	4641.89
660.796	4609.12
660.988	4451.43
661.18	4664.42
661.372	4371.56
661.563	4512.87
661.755	4383.85
661.947	4492.39
662.139	4500.58
662.331	4346.98
662.522	4416.62
662.714	4396.14
662.906	4297.83
663.097	4373.61
663.289	4277.35
663.481	4314.22
663.673	4316.26
663.864	4166.76
664.056	4125.8
664.247	4185.19
664.439	4070.51
664.631	4117.61
664.822	4158.57
665.014	4168.81
665.205	4070.51
665.397	4142.19
665.588	4289.64
665.78	3935.34
665.971	4090.99
666.163	4062.32
666.354	4090.99
666.546	4074.6
666.737	3841.14
666.929	3959.92
667.12	4000.88
667.311	3847.28
667.503	3978.35
667.694	3867.76
667.885	3720.31
668.077	3921.01
668.268	3925.1
668.459	3699.83
668.651	3787.89
668.842	3798.13
669.033	3634.29
669.224	3775.6
669.416	3685.49
669.607	3748.98
669.798	3673.2
669.989	3552.37
670.18	3748.98
670.371	3699.83
670.563	3611.76
670.754	3705.97
670.945	3572.85
671.136	3576.95
671.327	3671.15
671.518	3441.78
671.709	3646.58
671.9	3576.95
672.091	3617.91
672.282	3505.27
672.473	3681.39
672.664	3492.98
672.855	3562.61
673.046	3548.28
673.237	3615.86
673.428	3513.46
673.619	3492.98
673.809	3357.82
674	3452.02
674.191	3353.72
674.382	3366.01
674.573	3345.53
674.764	3478.65
674.954	3419.25
675.145	3419.25
675.336	3452.02
675.527	3288.18
675.717	3296.38
675.908	3345.53
676.099	3306.62
676.289	3368.06
676.48	3210.36
676.671	3241.08
676.861	3171.45
677.052	3304.57
677.243	3232.89
677.433	3230.84
677.624	3294.33
677.814	3079.29
678.005	3325.05
678.195	3193.98
678.386	3189.88
678.576	3277.94
678.767	3191.93
678.957	3177.59
679.148	3134.59
679.338	3189.88
679.529	3132.54
679.719	3159.16
679.909	3175.55
680.1	3124.35
680.29	3222.65
680.481	3112.06
680.671	3255.42
680.861	3228.79
681.052	3177.59
681.242	3161.21
681.432	3196.03
681.622	3118.2
681.813	3140.73
682.003	3009.66
682.193	3069.05
682.383	3146.87
682.573	3083.39
682.764	3056.76
682.954	3124.35
683.144	2999.42
683.334	2995.32
683.524	3130.49
683.714	2989.18
683.904	2995.32
684.094	3075.2
684.284	3112.06
684.474	3001.47
684.664	3052.67
684.854	2962.56
685.044	2940.03
685.234	2929.79
685.424	2933.89
685.614	3046.52
685.804	2872.45
685.994	2882.69
686.184	2917.5
686.374	2856.06
686.564	2802.82
686.753	2813.06
686.943	2770.05
687.133	2735.23
687.323	2876.54
687.513	2815.1
687.702	2761.86
687.892	2880.64
688.082	2753.66
688.272	2772.1
688.461	2753.66
688.651	2636.93
688.841	2546.82
689.03	2667.65
689.22	2669.7
689.41	2745.47
689.599	2679.94
689.789	2684.03
689.979	2634.88
690.168	2575.49
690.358	2475.14
690.547	2606.21
690.737	2657.41
690.926	2589.83
691.116	2479.24
691.305	2462.85
691.495	2495.62
691.684	2481.28
691.874	2583.68
692.063	2509.96
692.252	2528.39
692.442	2432.13
692.631	2382.98
692.82	2450.57
693.01	2452.61
693.199	2415.75
693.388	2329.74
693.578	2296.97
693.767	2313.35
693.956	2358.41
694.146	2311.3
694.335	2274.44
694.524	2317.45
694.713	2262.15
694.902	2346.12
695.092	2405.51
695.281	2098.31
695.47	2241.67
695.659	2299.02
695.848	2133.13
696.037	2221.19
696.226	2208.9
696.415	2124.94
696.604	2086.03
696.793	2159.75
696.982	2167.95
697.171	2282.63
697.36	2126.99
697.549	2120.84
697.738	2067.6
697.927	1936.53
698.116	2059.4
698.305	2147.47
698.494	2169.99
698.683	2159.75
698.872	2172.04
699.061	2077.83
699.25	1957
699.438	2063.5
699.627	1993.87
699.816	2094.22
700.005	2034.83
700.193	1993.87
700.382	1940.62
700.571	2036.88
700.76	2182.28
700.948	2110.6
701.137	1959.05
701.326	2073.74
701.514	1981.58
701.703	2043.02
701.892	1977.48
702.08	1997.96
702.269	2057.36
702.457	2040.97
702.646	2040.97
702.834	1967.24
703.023	1944.72
703.212	2030.73
703.4	2098.31
703.589	1850.51
703.777	1967.24
703.965	1930.38
704.154	1967.24
704.342	2028.68
704.531	1954.96
704.719	1991.82
704.907	2118.79
705.096	1926.29
705.284	1963.15
705.472	1965.2
705.661	1983.63
705.849	2012.3
706.037	2073.74
706.226	1928.33
706.414	1903.76
706.602	1971.34
706.79	2077.83
706.979	1864.85
707.167	1971.34
707.355	1997.96
707.543	1950.86
707.731	1918.09
707.919	1930.38
708.107	1924.24
708.296	2032.78
708.484	1952.91
708.672	1979.53
708.86	1975.44
709.048	1922.19
709.236	1932.43
709.424	2081.93
709.612	1983.63
709.8	1916.05
709.988	2012.3
710.176	2057.36
710.364	2030.73
710.551	2020.49
710.739	2002.06
710.927	2018.44
711.115	2086.03
711.303	2069.64
711.491	1883.28
711.679	2059.4
711.866	1967.24
712.054	2026.64
712.242	2026.64
712.43	2092.17
712.617	1967.24
712.805	2008.2
712.993	2014.35
713.181	1930.38
713.368	2028.68
713.556	1995.92
713.744	2012.3
713.931	2122.89
714.119	2034.83
714.306	2061.45
714.494	1981.58
714.682	2040.97
714.869	2034.83
715.057	2016.4
715.244	2077.83
715.432	2053.26
715.619	1989.77
715.807	2047.12
715.994	2081.93
716.182	1989.77
716.369	2096.27
716.556	2225.29
716.744	2112.65
716.931	2049.16
717.119	2243.72
717.306	2118.79
717.493	2086.03
717.681	2075.79
717.868	2055.31
718.055	1983.63
718.242	2092.17
718.43	2174.09
718.617	2053.26
718.804	2143.37
718.991	2038.92
719.179	2090.12
719.366	2106.51
719.553	2137.23
719.74	2047.12
719.927	2090.12
720.114	2176.14
720.301	2143.37
720.488	2182.28
720.676	2094.22
720.863	2239.62
721.05	2225.29
721.237	2133.13
721.424	2180.23
721.611	2200.71
721.798	2157.71
721.985	2219.14
722.172	2243.72
722.358	2315.4
722.545	2178.19
722.732	2210.95
722.919	2206.86
723.106	2124.94
723.293	2237.58
723.48	2215.05
723.667	2266.25
723.853	2096.27
724.04	2264.2
724.227	2253.96
724.414	2131.08
724.6	2126.99
724.787	2077.83
724.974	2172.04
725.161	2239.62
725.347	2233.48
725.534	2190.47
725.72	2262.15
725.907	2182.28
726.094	2294.92
726.28	2245.77
726.467	2135.18
726.653	2288.78
726.84	2260.1
727.027	2317.45
727.213	2147.47
727.4	2172.04
727.586	2256.01
727.773	2233.48
727.959	2239.62
728.145	2194.57
728.332	2223.24
728.518	2303.11
728.705	2196.62
728.891	2270.34
729.077	2374.79
729.264	2190.47
729.45	2245.77
729.636	2198.67
729.823	2272.39
730.009	2303.11
730.195	2231.43
730.382	2264.2
730.568	2253.96
730.754	2190.47
730.94	2233.48
731.126	2260.1
731.313	2307.21
731.499	2229.38
731.685	2276.49
731.871	2415.75
732.057	2227.34
732.243	2290.82
732.429	2233.48
732.615	2342.02
732.801	2278.54
732.987	2319.5
733.173	2354.31
733.359	2290.82
733.545	2290.82
733.731	2243.72
733.917	2323.59
734.103	2290.82
734.289	2319.5
734.475	2296.97
734.661	2196.62
734.847	2356.36
735.033	2356.36
735.219	2153.61
735.404	2303.11
735.59	2266.25
735.776	2397.32
735.962	2288.78
736.148	2317.45
736.333	2196.62
736.519	2309.26
736.705	2350.21
736.89	2253.96
737.076	2194.57
737.262	2184.33
737.447	2307.21
737.633	2210.95
737.819	2196.62
738.004	2299.02
738.19	2194.57
738.375	2245.77
738.561	2407.56
738.747	2188.43
738.932	2196.62
739.118	2333.83
739.303	2217.1
739.489	2348.17
739.674	2208.9
739.859	2182.28
740.045	2227.34
740.23	2118.79
740.416	2235.53
740.601	2116.75
740.786	2188.43
740.972	2225.29
741.157	2282.63
741.342	2290.82
741.528	2184.33
741.713	2194.57
741.898	2139.27
742.084	2180.23
742.269	2098.31
742.454	2108.55
742.639	2210.95
742.824	2131.08
743.01	2176.14
743.195	2184.33
743.38	2139.27
743.565	2114.7
743.75	2157.71
743.935	2073.74
744.12	2176.14
744.305	2100.36
744.49	2094.22
744.675	2055.31
744.86	1916.05
745.045	2030.73
745.23	2114.7
745.415	2016.4
745.6	2049.16
745.785	1985.68
745.97	2147.47
746.155	1981.58
746.34	1907.85
746.525	1862.8
746.71	2004.11
746.895	1954.96
747.079	1881.23
747.264	1926.29
747.449	1983.63
747.634	1948.81
747.819	1807.5
748.003	1914
748.188	1848.46
748.373	1909.9
748.557	1963.15
748.742	1918.09
748.927	1774.74
749.111	1674.39
749.296	1895.57
749.481	1733.78
749.665	1842.32
749.85	1830.03
750.034	1737.87
750.219	1768.59
750.404	1719.44
750.588	1754.26
750.773	1703.06
750.957	1633.43
751.141	1760.4
751.326	1776.78
751.51	1651.86
751.695	1662.1
751.879	1594.51
752.064	1645.71
752.248	1643.67
752.432	1606.8
752.617	1660.05
752.801	1533.08
752.985	1598.61
753.17	1547.41
753.354	1582.23
753.538	1567.89
753.722	1428.63
753.907	1504.4
754.091	1492.12
754.275	1457.3
754.459	1492.12
754.643	1520.79
754.828	1502.36
755.012	1506.45
755.196	1461.4
755.38	1449.11
755.564	1463.44
755.748	1404.05
755.932	1436.82
756.116	1352.85
756.3	1402.01
756.484	1363.09
756.668	1410.2
756.852	1350.81
757.036	1299.61
757.22	1295.51
757.404	1350.81
757.588	1356.95
757.772	1340.57
757.956	1318.04
758.14	1322.13
758.323	1318.04
758.507	1275.03
758.691	1246.36
758.875	1242.26
759.059	1285.27
759.242	1215.64
759.426	1260.7
759.61	1303.7
759.794	1156.25
759.977	1176.73
760.161	1176.73
760.345	1164.44
760.528	1213.59
760.712	1172.63
760.895	1176.73
761.079	1193.11
761.263	1123.48
761.446	1103
761.63	1277.08
761.813	1146.01
761.997	1137.82
762.18	1148.06
762.364	1164.44
762.547	1082.52
762.731	1150.11
762.914	1059.99
763.098	1141.91
763.281	1133.72
763.464	1045.66
763.648	1080.47
763.831	1111.19
764.015	998.56
764.198	1092.76
764.381	1051.8
764.564	1191.06
764.748	1045.66
764.931	1049.75
765.114	1051.8
765.297	1064.09
765.481	971.93
765.664	992.41
765.847	982.17
766.03	1033.37
766.213	1070.23
766.397	988.32
766.58	1021.08
766.763	1033.37
766.946	957.6
767.129	996.51
767.312	910.49
767.495	1008.8
767.678	937.12
767.861	885.92
768.044	887.97
768.227	947.36
768.41	947.36
768.593	908.44
768.776	1037.47
768.959	916.64
769.142	906.4
769.324	953.5
769.507	965.79
769.69	986.27
769.873	953.5
770.056	906.4
770.239	892.06
770.421	930.97
770.604	869.53
770.787	861.34
770.97	910.49
771.152	951.45
771.335	863.39
771.518	863.39
771.7	924.83
771.883	806.05
772.066	842.91
772.248	916.64
772.431	867.49
772.613	892.06
772.796	746.66
772.978	879.77
773.161	947.36
773.343	865.44
773.526	871.58
773.708	863.39
773.891	804
774.073	832.67
774.256	816.29
774.438	820.38
774.621	861.34
774.803	713.89
774.985	844.96
775.168	736.42
775.35	775.33
775.532	744.61
775.715	713.89
775.897	806.05
776.079	754.85
776.261	838.81
776.444	744.61
776.626	701.6
776.808	742.56
776.99	750.75
777.173	654.5
777.355	652.45
777.537	685.22
777.719	623.78
777.901	709.79
778.083	625.83
778.265	701.6
778.447	685.22
778.629	728.22
778.811	717.98
778.993	668.83
779.175	652.45
779.357	658.59
779.539	660.64
779.721	629.92
779.903	642.21
780.085	619.68
780.267	674.98
780.449	625.83
780.631	623.78
780.812	642.21
780.994	578.72
781.176	586.91
781.358	621.73
781.54	574.63
781.721	654.5
781.903	580.77
782.085	558.24
782.267	584.87
782.448	572.58
782.63	601.25
782.812	480.42
782.993	550.05
783.175	543.91
783.357	492.71
783.538	449.7
783.72	486.56
783.901	484.52
784.083	550.05
784.264	488.61
784.446	480.42
784.627	496.8
784.809	539.81
784.99	562.34
785.172	494.76
785.353	425.12
785.535	552.1
785.716	441.51
785.897	511.14
786.079	449.7
786.26	423.08
786.441	455.84
786.623	492.71
786.804	474.28
786.985	367.78
787.167	451.75
787.348	421.03
787.529	480.42
787.71	468.13
787.891	414.88
788.073	373.92
788.254	423.08
788.435	525.47
788.616	345.25
788.797	292.01
788.978	349.35
789.159	304.29
789.34	392.36
789.522	326.82
789.703	425.12
789.884	412.84
790.065	421.03
790.246	412.84
790.427	316.58
790.607	369.83
790.788	416.93
790.969	363.69
791.15	363.69
791.331	404.64
791.512	345.25
791.693	322.73
791.874	322.73
792.054	328.87
792.235	365.73
792.416	300.2
792.597	310.44
792.778	365.73
792.958	375.97
793.139	396.45
793.32	330.92
793.5	324.77
793.681	308.39
793.862	322.73
794.042	347.3
794.223	259.24
794.404	322.73
794.584	269.48
794.765	328.87
794.945	339.11
795.126	326.82
795.306	367.78
795.487	306.34
795.667	218.28
795.848	349.35
796.028	242.85
796.209	275.62
796.389	236.71
796.57	249
796.75	257.19
796.93	324.77
797.111	328.87
797.291	300.2
797.471	267.43
797.652	292.01
797.832	263.33
798.012	367.78
798.192	173.22
798.373	226.47
798.553	281.77
798.733	275.62
798.913	259.24
799.093	322.73
799.274	263.33
799.454	302.25
799.634	263.33
799.814	257.19
799.994	259.24
800.174	314.53
800.354	216.23
800.534	265.38
800.714	238.76
800.894	220.33
801.074	218.28
801.254	300.2
801.434	259.24
801.614	261.29
801.794	240.81
801.974	601.25
802.154	222.38
802.334	142.5
802.514	218.28
802.693	220.33
802.873	267.43
803.053	263.33
803.233	251.05
803.413	253.09
803.592	251.05
803.772	144.55
803.952	177.32
804.131	230.57
804.311	236.71
804.491	224.42
804.67	160.94
804.85	263.33
805.03	216.23
805.209	302.25
805.389	103.59
805.568	234.66
805.748	218.28
805.928	144.55
806.107	185.51
806.287	191.66
806.466	183.46
806.646	216.23
806.825	201.9
807.004	146.6
807.184	267.43
807.363	138.41
807.543	175.27
807.722	214.18
807.901	181.42
808.081	249
808.26	152.74
808.439	201.9
808.619	158.89
808.798	228.52
808.977	230.57
809.156	205.99
809.336	234.66
809.515	191.66
809.694	265.38
809.873	115.88
810.052	160.94
810.231	220.33
810.411	228.52
810.59	138.41
810.769	156.84
810.948	244.9
811.127	95.4
811.306	158.89
811.485	124.07
811.664	201.9
811.843	162.98
812.022	134.31
812.201	136.36
812.38	89.26
812.559	72.87
812.737	230.57
812.916	167.08
813.095	115.88
813.274	160.94
813.453	111.78
813.632	146.6
813.811	128.17
813.989	105.64
814.168	132.26
814.347	175.27
814.526	214.18
814.704	177.32
814.883	177.32
815.062	167.08
815.24	181.42
815.419	148.65
815.598	249
815.776	99.5
815.955	117.93
816.133	56.49
816.312	76.97
816.49	165.03
816.669	160.94
816.847	144.55
817.026	210.09
817.204	83.11
817.383	208.04
817.561	81.07
817.74	99.5
817.918	183.46
818.097	165.03
818.275	107.69
818.453	185.51
818.632	160.94
818.81	144.55
818.988	93.35
819.167	15.53
819.345	91.31
819.523	91.31
819.701	148.65
819.879	136.36
820.058	144.55
820.236	70.83
820.414	97.45
820.592	76.97
820.77	117.93
820.948	142.5
821.127	144.55
821.305	140.46
821.483	95.4
821.661	117.93
821.839	122.02
822.017	91.31
822.195	148.65
822.373	81.07
822.551	179.37
822.729	97.45
822.907	33.96
823.085	50.35
823.262	109.74
823.44	154.79
823.618	54.44
823.796	107.69
823.974	95.4
824.152	64.68
824.329	115.88
824.507	111.78
824.685	187.56
824.863	60.59
825.04	101.55
825.218	70.83
825.396	60.59
825.574	95.4
825.751	124.07
825.929	132.26
826.107	105.64
826.284	52.39
826.462	138.41
826.639	7.34
826.817	46.25
826.994	76.97
827.172	85.16
827.349	119.98
827.527	132.26
827.704	56.49
827.882	79.02
828.059	64.68
828.237	126.12
828.414	162.98
828.591	126.12
828.769	87.21
828.946	97.45
829.124	103.59
829.301	81.07
829.478	62.63
829.655	128.17
829.833	117.93
830.01	-4.95
830.187	85.16
830.364	76.97
830.542	62.63
830.719	128.17
830.896	36.01
831.073	95.4
831.25	58.54
831.427	83.11
831.604	119.98
831.782	36.01
831.959	95.4
832.136	54.44
832.313	52.39
832.49	79.02
832.667	115.88
832.844	29.87
833.021	117.93
833.198	11.43
833.374	91.31
833.551	21.67
833.728	54.44
833.905	38.06
834.082	107.69
834.259	122.02
834.436	124.07
834.612	40.11
834.789	95.4
834.966	87.21
835.143	54.44
835.319	31.91
835.496	64.68
835.673	70.83
835.85	76.97
836.026	52.39
836.203	107.69
836.38	58.54
836.556	87.21
836.733	46.25
836.909	111.78
837.086	66.73
837.262	48.3
837.439	85.16
837.616	144.55
837.792	62.63
837.968	31.91
838.145	72.87
838.321	64.68
838.498	70.83
838.674	87.21
838.851	93.35
839.027	62.63
839.203	46.25
839.38	140.46
839.556	68.78
839.732	79.02
839.909	58.54
840.085	56.49
840.261	52.39
840.437	99.5
840.614	62.63
840.79	83.11
840.966	89.26
841.142	46.25
841.318	111.78
841.494	-9.05
841.671	97.45
841.847	62.63
842.023	13.48
842.199	33.96
842.375	60.59
842.551	23.72
842.727	44.2
842.903	54.44
843.079	13.48
843.255	-11.09
843.431	-4.95
843.607	81.07
843.783	27.82
843.959	54.44
844.134	68.78
844.31	15.53
844.486	68.78
844.662	7.34
844.838	130.22
845.013	52.39
845.189	79.02
845.365	13.48
845.541	68.78
845.716	-68.44
845.892	85.16
846.068	64.68
846.244	79.02
846.419	19.63
846.595	11.43
846.77	66.73
846.946	95.4
847.122	46.25
847.297	-21.33
847.473	40.11
847.648	-60.24
847.824	62.63
847.999	-17.24
848.175	13.48
848.35	-19.29
848.526	9.39
848.701	64.68
848.876	27.82
849.052	52.39
849.227	36.01
849.403	70.83
849.578	79.02
849.753	25.77
849.929	60.59
850.104	54.44
850.279	48.3
850.454	42.15
850.63	70.83
850.805	91.31
850.98	72.87
851.155	-29.52
851.33	62.63
851.505	38.06
851.681	115.88
851.856	70.83
852.031	60.59
852.206	44.2
852.381	42.15
852.556	13.48
852.731	109.74
852.906	5.29
853.081	29.87
853.256	-21.33
853.431	40.11
853.606	33.96
853.781	52.39
853.956	27.82
854.131	46.25
854.305	21.67
854.48	3.24
854.655	54.44
854.83	33.96
855.005	40.11
855.18	5.29
855.354	38.06
855.529	54.44
855.704	-11.09
855.879	50.35
856.053	46.25
856.228	70.83
856.403	-11.09
856.577	33.96
856.752	-13.14
856.926	64.68
857.101	17.58
857.276	-27.48
857.45	19.63
857.625	79.02
857.799	79.02
857.974	93.35
858.148	33.96
858.323	52.39
858.497	-33.62
858.672	33.96
858.846	15.53
859.02	40.11
859.195	-72.53
859.369	-11.09
859.543	83.11
859.718	64.68
859.892	11.43
860.066	46.25
860.241	42.15
860.415	5.29
860.589	85.16
860.763	87.21
860.938	85.16
861.112	33.96
861.286	46.25
861.46	-15.19
861.634	31.91
861.808	58.54
861.982	-19.29
862.157	-43.86
862.331	-2.9
862.505	42.15
862.679	27.82
862.853	56.49
863.027	-64.34
863.201	58.54
863.375	81.07
863.549	3.24
863.722	-21.33
863.896	68.78
864.07	-11.09
864.244	48.3
864.418	48.3
864.592	44.2
864.766	36.01
864.939	7.34
865.113	-39.76
865.287	46.25
865.461	19.63
865.634	-31.57
865.808	-15.19
865.982	3.24
866.156	33.96
866.329	-13.14
866.503	-39.76
866.676	21.67
866.85	15.53
867.024	-90.96
867.197	9.39
867.371	40.11
867.544	27.82
867.718	-27.48
867.891	15.53
868.065	11.43
868.238	42.15
868.412	97.45
868.585	-13.14
868.759	5.29
868.932	-37.72
869.105	36.01
869.279	46.25
869.452	-35.67
869.625	64.68
869.799	-19.29
869.972	-64.34
870.145	-2.9
870.319	-47.96
870.492	33.96
870.665	46.25
870.838	68.78
871.011	-35.67
871.185	-45.91
871.358	58.54
871.531	11.43
871.704	3.24
871.877	46.25
872.05	-13.14
872.223	-23.38
872.396	-43.86
872.569	17.58
872.742	-52.05
872.915	-60.24
873.088	-11.09
873.261	31.91
873.434	44.2
873.607	13.48
873.78	11.43
873.953	-21.33
874.126	-62.29
874.299	48.3
874.471	-9.05
874.644	29.87
874.817	-11.09
874.99	54.44
875.163	25.77
875.335	79.02
875.508	-23.38
875.681	56.49
875.853	21.67
876.026	-2.9
876.199	50.35
876.371	-19.29
876.544	-0.85
876.717	56.49
876.889	25.77
877.062	-47.96
877.234	-25.43
877.407	74.92
877.579	9.39
877.752	-9.05
877.924	23.72
878.097	52.39
878.269	17.58
878.442	5.29
878.614	19.63
878.786	21.67
878.959	76.97
879.131	25.77
879.303	-19.29
879.476	-21.33
879.648	-11.09
879.82	13.48
879.993	-47.96
880.165	13.48
880.337	-2.9
880.509	-37.72
880.681	-47.96
880.854	-11.09
881.026	-29.52
881.198	33.96
881.37	13.48
881.542	9.39
881.714	-31.57
881.886	38.06
882.058	40.11
882.23	-60.24
882.402	17.58
882.574	74.92
882.746	27.82
882.918	11.43
883.09	13.48
883.262	21.67
883.434	-39.76
883.606	33.96
883.778	-19.29
883.95	60.59
884.122	9.39
884.293	-43.86
884.465	-19.29
884.637	79.02
884.809	1.19
884.98	23.72
885.152	-17.24
885.324	1.19
885.496	-7
885.667	17.58
885.839	-60.24
886.011	1.19
886.182	1.19
886.354	29.87
886.525	-27.48
886.697	19.63
886.869	1.19
887.04	-70.48
887.212	9.39
887.383	36.01
887.555	27.82
887.726	103.59
887.897	-31.57
888.069	-33.62
888.24	33.96
888.412	40.11
888.583	-62.29
888.754	50.35
888.926	52.39
889.097	-35.67
889.268	19.63
889.44	-0.85
889.611	29.87
889.782	13.48
889.953	62.63
890.125	54.44
890.296	5.29
890.467	-52.05
890.638	40.11
890.809	-33.62
890.98	-43.86
891.151	-7
891.323	-29.52
891.494	-27.48
891.665	-13.14
891.836	42.15
892.007	-13.14
892.178	13.48
892.349	-21.33
892.52	-58.2
892.691	42.15
892.862	-11.09
893.032	-47.96
893.203	-23.38
893.374	38.06
893.545	54.44
893.716	19.63
893.887	76.97
894.057	21.67
894.228	15.53
894.399	-35.67
894.57	58.54
894.74	13.48
894.911	46.25
895.082	19.63
895.253	29.87
895.423	17.58
895.594	46.25
895.764	-13.14
895.935	31.91
896.106	91.31
896.276	-50
896.447	-27.48
896.617	-45.91
896.788	5.29
896.958	25.77
897.129	50.35
897.299	42.15
897.47	46.25
897.64	-17.24
897.81	15.53
897.981	66.73
898.151	3.24
898.322	74.92
898.492	3.24
898.662	68.78
898.832	-13.14
899.003	3.24
899.173	-35.67
899.343	-64.34
899.513	-7
