Data from USB4F104151__37__11-36-52-745.txt Node

Date: Fri Mar 14 11:36:52 EDT 2025
User: louis
Spectrometer: USB4F10415
Trigger mode: 4
Integration Time (sec): 2.000000E-2
Scans to average: 1
Electric dark correction enabled: true
Nonlinearity correction enabled: false
Boxcar width: 0
XAxis mode: Wavelengths
Number of Pixels in Spectrum: 3648
>>>>>Begin Spectral Data<<<<<
178.204	-116.39
178.424	-116.39
178.644	-116.39
178.864	-54.95
179.084	-9.9
179.304	10.58
179.524	20.82
179.744	-5.8
179.964	2.39
180.184	-59.05
180.404	-7.85
180.624	14.68
180.844	0.34
181.064	57.68
181.283	-81.58
181.503	-22.19
181.723	69.97
181.943	26.96
182.163	72.02
182.383	59.73
182.602	8.53
182.822	59.73
183.042	20.82
183.262	-32.43
183.482	80.21
183.701	55.64
183.921	59.73
184.141	59.73
184.361	53.59
184.58	63.83
184.8	18.77
185.02	76.12
185.239	121.17
185.459	-26.28
185.679	18.77
185.898	45.4
186.118	57.68
186.338	121.17
186.557	86.36
186.777	-28.33
186.997	74.07
187.216	18.77
187.436	102.74
187.655	133.46
187.875	88.4
188.095	61.78
188.314	74.07
188.534	22.87
188.753	53.59
188.973	53.59
189.192	6.49
189.412	10.58
189.631	45.4
189.851	72.02
190.07	121.17
190.29	6.49
190.509	26.96
190.729	26.96
190.948	6.49
191.168	49.49
191.387	117.08
191.607	47.44
191.826	119.12
192.045	10.58
192.265	43.35
192.484	102.74
192.704	39.25
192.923	72.02
193.142	84.31
193.362	0.34
193.581	76.12
193.8	69.97
194.02	63.83
194.239	80.21
194.458	43.35
194.678	-13.99
194.897	31.06
195.116	18.77
195.335	96.6
195.555	69.97
195.774	31.06
195.993	51.54
196.212	45.4
196.432	51.54
196.651	18.77
196.87	14.68
197.089	61.78
197.308	125.27
197.528	55.64
197.747	16.73
197.966	12.63
198.185	117.08
198.404	0.34
198.623	59.73
198.842	-3.75
199.062	26.96
199.281	102.74
199.5	41.3
199.719	51.54
199.938	55.64
200.157	37.2
200.376	35.16
200.595	74.07
200.814	-26.28
201.033	31.06
201.252	39.25
201.471	53.59
201.69	119.12
201.909	82.26
202.128	43.35
202.347	45.4
202.566	67.92
202.785	51.54
203.004	65.88
203.223	112.98
203.442	74.07
203.661	16.73
203.879	123.22
204.098	98.64
204.317	80.21
204.536	16.73
204.755	98.64
204.974	24.92
205.193	-11.95
205.411	119.12
205.63	51.54
205.849	-30.38
206.068	6.49
206.287	104.79
206.505	20.82
206.724	84.31
206.943	-22.19
207.162	29.01
207.381	92.5
207.599	20.82
207.818	49.49
208.037	-5.8
208.255	84.31
208.474	37.2
208.693	57.68
208.911	10.58
209.13	26.96
209.349	29.01
209.567	102.74
209.786	33.11
210.005	59.73
210.223	69.97
210.442	55.64
210.661	22.87
210.879	2.39
211.098	39.25
211.316	26.96
211.535	65.88
211.753	51.54
211.972	35.16
212.191	16.73
212.409	35.16
212.628	76.12
212.846	-32.43
213.065	51.54
213.283	131.41
213.502	104.79
213.72	110.93
213.938	78.16
214.157	31.06
214.375	29.01
214.594	80.21
214.812	100.69
215.031	100.69
215.249	90.45
215.467	72.02
215.686	51.54
215.904	78.16
216.122	88.4
216.341	117.08
216.559	51.54
216.778	117.08
216.996	72.02
217.214	6.49
217.432	24.92
217.651	10.58
217.869	74.07
218.087	43.35
218.306	102.74
218.524	82.26
218.742	8.53
218.96	76.12
219.179	18.77
219.397	98.64
219.615	49.49
219.833	94.55
220.051	92.5
220.27	145.75
220.488	67.92
220.706	82.26
220.924	47.44
221.142	14.68
221.36	49.49
221.578	18.77
221.796	57.68
222.015	84.31
222.233	26.96
222.451	127.32
222.669	55.64
222.887	92.5
223.105	104.79
223.323	47.44
223.541	51.54
223.759	43.35
223.977	37.2
224.195	72.02
224.413	90.45
224.631	141.65
224.849	43.35
225.067	37.2
225.285	57.68
225.503	78.16
225.721	22.87
225.939	26.96
226.157	55.64
226.375	92.5
226.592	63.83
226.81	67.92
227.028	82.26
227.246	72.02
227.464	47.44
227.682	92.5
227.9	100.69
228.117	-5.8
228.335	24.92
228.553	29.01
228.771	108.88
228.989	57.68
229.206	69.97
229.424	-1.71
229.642	-16.04
229.86	0.34
230.077	55.64
230.295	53.59
230.513	22.87
230.731	108.88
230.948	18.77
231.166	55.64
231.384	45.4
231.601	14.68
231.819	55.64
232.037	26.96
232.254	84.31
232.472	45.4
232.689	2.39
232.907	84.31
233.125	49.49
233.342	49.49
233.56	8.53
233.777	59.73
233.995	65.88
234.213	53.59
234.43	55.64
234.648	67.92
234.865	10.58
235.083	106.84
235.3	55.64
235.518	74.07
235.735	76.12
235.953	57.68
236.17	76.12
236.388	96.6
236.605	35.16
236.822	115.03
237.04	55.64
237.257	57.68
237.475	84.31
237.692	67.92
237.909	88.4
238.127	100.69
238.344	51.54
238.562	33.11
238.779	72.02
238.996	76.12
239.214	74.07
239.431	57.68
239.648	4.44
239.865	47.44
240.083	112.98
240.3	18.77
240.517	76.12
240.735	-30.38
240.952	125.27
241.169	16.73
241.386	139.6
241.603	8.53
241.821	18.77
242.038	-7.85
242.255	57.68
242.472	67.92
242.689	55.64
242.907	145.75
243.124	67.92
243.341	22.87
243.558	-16.04
243.775	51.54
243.992	-18.09
244.209	39.25
244.426	125.27
244.643	43.35
244.86	104.79
245.078	22.87
245.295	76.12
245.512	72.02
245.729	76.12
245.946	4.44
246.163	20.82
246.38	47.44
246.597	41.3
246.814	6.49
247.031	35.16
247.248	24.92
247.464	88.4
247.681	69.97
247.898	43.35
248.115	100.69
248.332	59.73
248.549	188.75
248.766	41.3
248.983	35.16
249.2	108.88
249.417	63.83
249.633	4.44
249.85	33.11
250.067	72.02
250.284	63.83
250.501	117.08
250.717	35.16
250.934	49.49
251.151	-28.33
251.368	84.31
251.585	90.45
251.801	-20.14
252.018	-57
252.235	63.83
252.451	22.87
252.668	6.49
252.885	96.6
253.102	57.68
253.318	69.97
253.535	39.25
253.752	63.83
253.968	-16.04
254.185	55.64
254.401	92.5
254.618	82.26
254.835	24.92
255.051	84.31
255.268	35.16
255.484	6.49
255.701	0.34
255.917	39.25
256.134	53.59
256.351	33.11
256.567	55.64
256.784	26.96
257	47.44
257.217	72.02
257.433	55.64
257.65	123.22
257.866	43.35
258.082	37.2
258.299	31.06
258.515	108.88
258.732	127.32
258.948	39.25
259.165	26.96
259.381	53.59
259.597	41.3
259.814	74.07
260.03	33.11
260.246	-7.85
260.463	57.68
260.679	35.16
260.895	6.49
261.112	84.31
261.328	96.6
261.544	51.54
261.761	106.84
261.977	88.4
262.193	106.84
262.409	104.79
262.626	49.49
262.842	74.07
263.058	82.26
263.274	115.03
263.49	76.12
263.707	96.6
263.923	-16.04
264.139	78.16
264.355	92.5
264.571	139.6
264.787	72.02
265.004	18.77
265.22	18.77
265.436	57.68
265.652	67.92
265.868	-7.85
266.084	18.77
266.3	102.74
266.516	80.21
266.732	102.74
266.948	67.92
267.164	65.88
267.38	53.59
267.596	106.84
267.812	84.31
268.028	69.97
268.244	14.68
268.46	84.31
268.676	55.64
268.892	135.51
269.108	82.26
269.324	92.5
269.54	43.35
269.756	69.97
269.972	35.16
270.188	16.73
270.403	57.68
270.619	102.74
270.835	78.16
271.051	20.82
271.267	125.27
271.483	26.96
271.698	82.26
271.914	65.88
272.13	57.68
272.346	10.58
272.562	55.64
272.777	84.31
272.993	12.63
273.209	49.49
273.425	29.01
273.64	6.49
273.856	86.36
274.072	153.94
274.287	-24.23
274.503	8.53
274.719	43.35
274.934	57.68
275.15	133.46
275.366	90.45
275.581	0.34
275.797	4.44
276.012	65.88
276.228	63.83
276.444	102.74
276.659	84.31
276.875	106.84
277.09	67.92
277.306	31.06
277.521	22.87
277.737	22.87
277.952	53.59
278.168	2.39
278.383	55.64
278.599	96.6
278.814	47.44
279.03	67.92
279.245	63.83
279.461	119.12
279.676	39.25
279.892	39.25
280.107	35.16
280.322	-34.47
280.538	57.68
280.753	-30.38
280.969	39.25
281.184	10.58
281.399	121.17
281.615	51.54
281.83	119.12
282.045	6.49
282.26	-13.99
282.476	80.21
282.691	125.27
282.906	55.64
283.122	123.22
283.337	61.78
283.552	92.5
283.767	29.01
283.983	108.88
284.198	63.83
284.413	80.21
284.628	39.25
284.843	14.68
285.058	86.36
285.274	55.64
285.489	10.58
285.704	117.08
285.919	33.11
286.134	76.12
286.349	8.53
286.564	47.44
286.779	47.44
286.995	33.11
287.21	26.96
287.425	55.64
287.64	12.63
287.855	26.96
288.07	100.69
288.285	141.65
288.5	59.73
288.715	53.59
288.93	76.12
289.145	106.84
289.36	145.75
289.575	51.54
289.79	104.79
290.004	33.11
290.219	123.22
290.434	39.25
290.649	59.73
290.864	67.92
291.079	16.73
291.294	22.87
291.509	0.34
291.724	8.53
291.938	57.68
292.153	145.75
292.368	133.46
292.583	26.96
292.798	26.96
293.012	98.64
293.227	72.02
293.442	43.35
293.657	137.56
293.871	72.02
294.086	96.6
294.301	67.92
294.516	139.6
294.73	65.88
294.945	65.88
295.16	96.6
295.374	51.54
295.589	69.97
295.804	90.45
296.018	65.88
296.233	94.55
296.447	39.25
296.662	67.92
296.877	-3.75
297.091	67.92
297.306	55.64
297.52	61.78
297.735	106.84
297.949	59.73
298.164	-1.71
298.378	100.69
298.593	51.54
298.807	16.73
299.022	53.59
299.236	2.39
299.451	14.68
299.665	41.3
299.88	4.44
300.094	14.68
300.309	115.03
300.523	84.31
300.737	43.35
300.952	84.31
301.166	67.92
301.381	-5.8
301.595	69.97
301.809	72.02
302.024	22.87
302.238	55.64
302.452	92.5
302.667	10.58
302.881	33.11
303.095	117.08
303.309	100.69
303.524	88.4
303.738	51.54
303.952	92.5
304.166	55.64
304.381	65.88
304.595	110.93
304.809	55.64
305.023	31.06
305.237	59.73
305.452	45.4
305.666	33.11
305.88	115.03
306.094	57.68
306.308	37.2
306.522	76.12
306.736	69.97
306.95	65.88
307.164	31.06
307.379	-57
307.593	94.55
307.807	61.78
308.021	92.5
308.235	59.73
308.449	43.35
308.663	53.59
308.877	108.88
309.091	-26.28
309.305	80.21
309.519	74.07
309.733	49.49
309.947	35.16
310.161	135.51
310.374	33.11
310.588	51.54
310.802	57.68
311.016	24.92
311.23	10.58
311.444	94.55
311.658	82.26
311.872	47.44
312.085	63.83
312.299	18.77
312.513	61.78
312.727	98.64
312.941	72.02
313.154	55.64
313.368	18.77
313.582	18.77
313.796	35.16
314.009	43.35
314.223	55.64
314.437	43.35
314.651	65.88
314.864	57.68
315.078	90.45
315.292	47.44
315.505	55.64
315.719	98.64
315.933	94.55
316.146	35.16
316.36	33.11
316.573	84.31
316.787	88.4
317.001	84.31
317.214	57.68
317.428	80.21
317.641	47.44
317.855	69.97
318.068	49.49
318.282	8.53
318.495	108.88
318.709	92.5
318.922	45.4
319.136	24.92
319.349	41.3
319.563	37.2
319.776	94.55
319.99	90.45
320.203	127.32
320.417	82.26
320.63	41.3
320.843	82.26
321.057	92.5
321.27	67.92
321.483	63.83
321.697	72.02
321.91	31.06
322.124	14.68
322.337	-20.14
322.55	39.25
322.763	82.26
322.977	90.45
323.19	55.64
323.403	102.74
323.617	63.83
323.83	88.4
324.043	80.21
324.256	61.78
324.469	67.92
324.683	151.89
324.896	88.4
325.109	82.26
325.322	20.82
325.535	72.02
325.748	67.92
325.962	35.16
326.175	35.16
326.388	74.07
326.601	88.4
326.814	110.93
327.027	-7.85
327.24	61.78
327.453	108.88
327.666	117.08
327.879	49.49
328.092	39.25
328.305	53.59
328.518	72.02
328.731	59.73
328.944	72.02
329.157	33.11
329.37	63.83
329.583	57.68
329.796	158.03
330.009	-9.9
330.222	92.5
330.435	88.4
330.648	16.73
330.861	33.11
331.073	84.31
331.286	47.44
331.499	-11.95
331.712	76.12
331.925	-22.19
332.138	80.21
332.35	49.49
332.563	26.96
332.776	49.49
332.989	74.07
333.202	147.8
333.414	74.07
333.627	47.44
333.84	72.02
334.053	72.02
334.265	24.92
334.478	6.49
334.691	12.63
334.903	63.83
335.116	57.68
335.329	37.2
335.541	69.97
335.754	78.16
335.966	39.25
336.179	61.78
336.392	8.53
336.604	39.25
336.817	57.68
337.029	43.35
337.242	67.92
337.454	110.93
337.667	112.98
337.88	67.92
338.092	57.68
338.305	65.88
338.517	10.58
338.729	125.27
338.942	84.31
339.154	-34.47
339.367	37.2
339.579	6.49
339.792	8.53
340.004	72.02
340.217	18.77
340.429	125.27
340.641	49.49
340.854	37.2
341.066	12.63
341.278	41.3
341.491	110.93
341.703	61.78
341.915	35.16
342.128	80.21
342.34	55.64
342.552	125.27
342.764	49.49
342.977	0.34
343.189	59.73
343.401	74.07
343.613	65.88
343.826	110.93
344.038	33.11
344.25	131.41
344.462	39.25
344.674	108.88
344.886	20.82
345.099	123.22
345.311	63.83
345.523	63.83
345.735	49.49
345.947	-26.28
346.159	55.64
346.371	26.96
346.583	57.68
346.795	129.36
347.007	76.12
347.219	88.4
347.431	31.06
347.643	96.6
347.855	63.83
348.067	135.51
348.279	41.3
348.491	72.02
348.703	65.88
348.915	115.03
349.127	49.49
349.339	8.53
349.551	61.78
349.763	125.27
349.975	96.6
350.187	88.4
350.399	16.73
350.61	72.02
350.822	86.36
351.034	78.16
351.246	39.25
351.458	153.94
351.669	63.83
351.881	119.12
352.093	67.92
352.305	84.31
352.517	33.11
352.728	98.64
352.94	55.64
353.152	153.94
353.363	20.82
353.575	78.16
353.787	86.36
353.999	84.31
354.21	76.12
354.422	49.49
354.633	49.49
354.845	119.12
355.057	115.03
355.268	39.25
355.48	88.4
355.692	51.54
355.903	47.44
356.115	106.84
356.326	117.08
356.538	67.92
356.749	82.26
356.961	65.88
357.172	49.49
357.384	29.01
357.595	100.69
357.807	59.73
358.018	74.07
358.23	67.92
358.441	110.93
358.653	43.35
358.864	-11.95
359.075	45.4
359.287	94.55
359.498	100.69
359.709	67.92
359.921	22.87
360.132	76.12
360.344	86.36
360.555	53.59
360.766	76.12
360.977	108.88
361.189	92.5
361.4	8.53
361.611	137.56
361.823	131.41
362.034	22.87
362.245	72.02
362.456	18.77
362.667	104.79
362.879	137.56
363.09	72.02
363.301	94.55
363.512	-16.04
363.723	67.92
363.935	115.03
364.146	90.45
364.357	51.54
364.568	63.83
364.779	16.73
364.99	112.98
365.201	133.46
365.412	63.83
365.623	24.92
365.834	123.22
366.045	29.01
366.256	131.41
366.467	76.12
366.678	90.45
366.889	65.88
367.1	131.41
367.311	33.11
367.522	35.16
367.733	39.25
367.944	33.11
368.155	72.02
368.366	90.45
368.577	112.98
368.788	0.34
368.999	121.17
369.209	84.31
369.42	100.69
369.631	153.94
369.842	94.55
370.053	53.59
370.264	43.35
370.474	22.87
370.685	59.73
370.896	166.23
371.107	2.39
371.317	63.83
371.528	96.6
371.739	63.83
371.95	43.35
372.16	94.55
372.371	49.49
372.582	82.26
372.792	76.12
373.003	174.42
373.214	141.65
373.424	24.92
373.635	90.45
373.846	63.83
374.056	31.06
374.267	88.4
374.477	98.64
374.688	2.39
374.898	67.92
375.109	20.82
375.319	115.03
375.53	94.55
375.74	92.5
375.951	96.6
376.161	55.64
376.372	88.4
376.582	26.96
376.793	139.6
377.003	51.54
377.214	57.68
377.424	88.4
377.635	92.5
377.845	84.31
378.055	143.7
378.266	10.58
378.476	59.73
378.686	121.17
378.897	57.68
379.107	141.65
379.317	125.27
379.528	35.16
379.738	102.74
379.948	41.3
380.158	102.74
380.369	90.45
380.579	143.7
380.789	88.4
380.999	47.44
381.21	84.31
381.42	117.08
381.63	18.77
381.84	80.21
382.05	115.03
382.261	119.12
382.471	127.32
382.681	112.98
382.891	141.65
383.101	166.23
383.311	65.88
383.521	82.26
383.731	63.83
383.941	182.61
384.151	43.35
384.361	158.03
384.571	125.27
384.781	90.45
384.991	125.27
385.201	158.03
385.411	82.26
385.621	155.99
385.831	47.44
386.041	84.31
386.251	63.83
386.461	67.92
386.671	80.21
386.881	139.6
387.091	29.01
387.301	115.03
387.511	74.07
387.72	45.4
387.93	168.27
388.14	14.68
388.35	24.92
388.56	182.61
388.769	174.42
388.979	112.98
389.189	90.45
389.399	108.88
389.609	108.88
389.818	92.5
390.028	67.92
390.238	100.69
390.447	164.18
390.657	125.27
390.867	51.54
391.076	51.54
391.286	88.4
391.496	153.94
391.705	106.84
391.915	106.84
392.125	129.36
392.334	117.08
392.544	182.61
392.753	63.83
392.963	61.78
393.172	86.36
393.382	41.3
393.591	201.04
393.801	76.12
394.01	78.16
394.22	57.68
394.429	88.4
394.639	112.98
394.848	88.4
395.058	112.98
395.267	112.98
395.477	125.27
395.686	88.4
395.895	96.6
396.105	178.51
396.314	145.75
396.524	125.27
396.733	108.88
396.942	125.27
397.152	166.23
397.361	178.51
397.57	59.73
397.78	194.9
397.989	162.13
398.198	151.89
398.407	170.32
398.617	135.51
398.826	72.02
399.035	174.42
399.244	145.75
399.453	149.84
399.663	131.41
399.872	125.27
400.081	160.08
400.29	78.16
400.499	65.88
400.708	127.32
400.917	155.99
401.127	153.94
401.336	72.02
401.545	198.99
401.754	168.27
401.963	190.8
402.172	229.71
402.381	184.66
402.59	153.94
402.799	143.7
403.008	256.34
403.217	158.03
403.426	262.48
403.635	190.8
403.844	188.75
404.053	131.41
404.262	205.14
404.471	260.43
404.68	164.18
404.888	219.47
405.097	262.48
405.306	207.19
405.515	194.9
405.724	229.71
405.933	262.48
406.142	264.53
406.35	264.53
406.559	209.23
406.768	194.9
406.977	301.39
407.185	180.56
407.394	237.91
407.603	287.06
407.812	268.63
408.02	207.19
408.229	233.81
408.438	278.87
408.646	352.59
408.855	332.11
409.064	321.87
409.272	239.95
409.481	325.97
409.69	248.15
409.898	317.78
410.107	393.55
410.315	395.6
410.524	373.07
410.733	397.65
410.941	407.89
411.15	399.7
411.358	506.19
411.567	514.38
411.775	418.13
411.984	450.89
412.192	377.17
412.401	563.53
412.609	577.87
412.818	622.92
413.026	487.76
413.234	579.92
413.443	633.16
413.651	639.31
413.86	657.74
414.068	715.08
414.276	635.21
414.485	649.55
414.693	639.31
414.901	829.77
415.11	837.96
415.318	792.91
415.526	932.17
415.734	749.9
415.943	969.03
416.151	989.51
416.359	915.78
416.567	1014.09
416.776	1007.94
416.984	1083.72
417.192	1100.1
417.4	1255.75
417.608	1001.8
417.817	1157.44
418.025	1220.93
418.233	1376.58
418.441	1329.47
418.649	1347.9
418.857	1435.97
419.065	1538.37
419.273	1360.19
419.481	1612.09
419.689	1663.29
419.897	1800.51
420.105	1700.16
420.313	1734.97
420.521	1755.45
420.729	1898.81
420.937	1841.47
421.145	1950.01
421.353	2107.7
421.561	2230.58
421.769	2169.14
421.977	2318.64
422.185	2230.58
422.393	2459.95
422.601	2617.65
422.809	2728.24
423.017	2627.89
423.224	2711.85
423.432	2816.3
423.64	2828.59
423.848	3070.25
424.056	2871.59
424.263	3242.28
424.471	3295.52
424.679	3203.36
424.887	3498.27
425.094	3602.72
425.302	3606.81
425.51	3584.29
425.718	3914.01
425.925	4030.74
426.133	4108.57
426.341	4337.94
426.548	4512.02
426.756	4378.9
426.964	4499.73
427.171	4778.25
427.379	4811.02
427.586	5056.78
427.794	4999.43
428.001	5349.64
428.209	5566.72
428.417	5540.1
428.624	5847.29
428.832	5923.07
429.039	5783.81
429.247	5884.16
429.454	6496.5
429.662	6799.6
429.869	6351.09
430.076	6897.9
430.284	6473.97
430.491	6930.67
430.699	7346.41
430.906	7164.14
431.114	7424.23
431.321	7743.71
431.528	7948.51
431.736	8388.82
431.943	8724.69
432.15	8573.14
432.358	8646.87
432.565	9162.95
432.772	9199.82
432.979	9539.78
433.187	9650.37
433.394	9777.34
433.601	10455.22
433.808	10543.28
434.016	10266.81
434.223	10873.01
434.43	11354.28
434.637	11096.24
434.844	11790.5
435.052	12075.17
435.259	11892.9
435.466	11882.66
435.673	12124.32
435.88	12730.52
436.087	13412.49
436.294	13508.74
436.501	13207.69
436.708	13353.1
436.915	13865.09
437.122	14526.58
437.329	14280.83
437.537	14979.18
437.743	15173.74
437.95	15093.87
438.157	15943.78
438.364	16175.2
438.571	16304.22
438.778	16451.67
438.985	17821.77
439.192	17203.28
439.399	17789
439.606	17510.47
439.813	18331.71
440.02	19265.58
440.227	19179.57
440.433	18892.85
440.64	19734.57
440.847	19705.9
441.054	19957.8
441.261	21297.17
441.467	20916.25
441.674	21727.24
441.881	22405.12
442.088	21907.46
442.294	22081.54
442.501	22644.73
442.708	22933.5
442.914	24016.87
443.121	24899.55
443.328	24070.12
443.534	26396.61
443.741	25235.41
443.948	25108.44
444.154	26726.33
444.361	26501.06
444.568	26771.39
444.774	26896.31
444.981	27111.35
445.187	28139.43
445.394	29163.42
445.6	28766.11
445.807	31627.12
446.013	30015.37
446.22	30617.47
446.426	31813.49
446.633	31940.46
446.839	33113.95
447.046	31932.27
447.252	33992.53
447.459	33599.32
447.665	33664.85
447.871	34770.75
448.078	36511.53
448.284	34742.08
448.491	35860.27
448.697	37277.47
448.903	37900.05
449.11	37840.66
449.316	37453.59
449.522	38094.61
449.728	38850.31
449.935	39487.23
450.141	39444.22
450.347	40185.58
450.553	39200.51
450.76	39841.53
450.966	40865.51
451.172	40152.82
451.378	41590.49
451.584	40582.89
451.791	41242.34
451.997	41397.98
452.203	41965.27
452.409	41991.89
452.615	41871.06
452.821	40158.96
453.027	40142.58
453.233	41866.97
453.44	40046.32
453.646	40924.9
453.852	41137.89
454.058	41981.65
454.264	40591.08
454.47	41570.01
454.676	40308.46
454.882	41701.08
455.088	38147.86
455.294	38584.07
455.5	39089.92
455.705	40056.56
455.911	38272.78
456.117	37109.54
456.323	36726.56
456.529	34672.45
456.735	36491.05
456.941	35569.46
457.147	34912.06
457.352	34068.3
457.558	33539.93
457.764	33498.97
457.97	32642.92
458.176	32073.58
458.381	32143.21
458.587	30687.11
458.793	30605.19
458.999	29067.16
459.204	31242.1
459.41	30103.43
459.616	28141.48
459.821	28716.96
460.027	28235.69
460.233	27547.57
460.438	26054.6
460.644	26744.77
460.85	25501.65
461.055	25169.88
461.261	24571.87
461.466	23193.59
461.672	22267.91
461.878	24094.69
462.083	22325.25
462.289	22290.43
462.494	21776.39
462.7	20817.94
462.905	20506.65
463.111	20924.44
463.316	20899.86
463.522	20787.22
463.727	20662.3
463.932	20494.36
464.138	20299.81
464.343	20373.53
464.549	19877.93
464.754	20531.23
464.959	20258.85
465.165	20254.75
465.37	19347.5
465.575	18866.23
465.781	19664.94
465.986	19689.51
466.191	18942
466.397	18546.75
466.602	17815.62
466.807	18427.96
467.012	18446.4
467.218	18116.67
467.423	18004.03
467.628	18196.54
467.833	18874.42
468.038	18335.81
468.244	17905.73
468.449	18597.95
468.654	17700.94
468.859	17883.2
469.064	17696.84
469.269	16943.19
469.474	17201.23
469.679	17418.32
469.885	16865.36
470.09	17000.53
470.295	17301.58
470.5	16523.35
470.705	16574.55
470.91	16373.85
471.115	16052.32
471.32	16466.01
471.525	16093.28
471.73	15779.94
471.935	15851.62
472.139	15474.79
472.344	15401.07
472.549	15468.65
472.754	15046.77
472.959	15095.92
473.164	14530.68
473.369	14571.64
473.574	15026.29
473.778	14723.19
473.983	14387.32
474.188	14674.04
474.393	13858.95
474.598	13985.92
474.802	13811.84
475.007	13729.92
475.212	13695.11
475.417	13224.08
475.621	13392.01
475.826	13516.94
476.031	12894.35
476.235	12939.41
476.44	12906.64
476.645	12722.32
476.849	12834.96
477.054	12538.01
477.259	12505.24
477.463	12441.75
477.668	12206.24
477.872	12251.29
478.077	11911.33
478.282	11751.59
478.486	11581.6
478.691	11585.7
478.895	11542.69
479.1	11346.09
479.304	11438.25
479.509	11251.88
479.713	11485.35
479.918	11255.98
480.122	11006.13
480.326	11151.53
480.531	11143.34
480.735	10973.36
480.94	10926.25
481.144	11311.27
481.348	10920.11
481.553	10832.05
481.757	10508.47
481.961	10881.2
482.166	10852.53
482.37	10559.67
482.574	10641.59
482.778	10721.46
482.983	10907.82
483.187	10561.72
483.391	10715.31
483.595	10576.05
483.8	10496.18
484.004	10594.48
484.208	10711.22
484.412	10860.72
484.616	10610.87
484.821	10678.45
485.025	10432.69
485.229	10668.21
485.433	10481.85
485.637	10643.63
485.841	10569.91
486.045	10719.41
486.249	10555.57
486.453	10414.26
486.657	10688.69
486.861	10741.94
487.065	10320.06
487.269	10717.36
487.473	10504.37
487.677	10668.21
487.881	10782.9
488.085	10590.39
488.289	10723.51
488.493	10631.35
488.697	10692.79
488.901	10832.05
489.105	10758.32
489.309	10999.98
489.512	10635.44
489.716	10811.57
489.92	10938.54
490.124	10786.99
490.328	11004.08
490.531	10920.11
490.735	10999.98
490.939	10934.45
491.143	10684.59
491.346	11047.08
491.55	11002.03
491.754	11141.29
491.958	11100.33
492.161	11196.59
492.365	11280.55
492.569	11088.04
492.772	11169.96
492.976	11321.51
493.18	11280.55
493.383	11628.71
493.587	11765.92
493.79	11565.22
493.994	11511.97
494.197	11839.65
494.401	12015.77
494.605	11743.39
494.808	12097.69
495.012	12177.56
495.215	12011.68
495.419	12177.56
495.622	12290.2
495.825	12368.02
496.029	12474.52
496.232	12626.07
496.436	12519.57
496.639	13154.44
496.843	12832.91
497.046	13125.77
497.249	13131.92
497.453	13090.96
497.656	13422.73
497.859	13525.13
498.063	13437.06
498.266	13922.43
498.469	13992.06
498.673	13860.99
498.876	14110.85
499.079	14446.71
499.282	14157.95
499.485	14682.23
499.689	14639.22
499.892	14870.64
500.095	14985.33
500.298	15396.97
500.501	15235.18
500.705	15759.46
500.908	15814.76
501.111	15784.04
501.314	16189.53
501.517	16265.31
501.72	16547.93
501.923	16468.06
502.126	16814.16
502.329	16853.08
502.532	17186.9
502.735	16920.66
502.938	17326.16
503.141	17786.95
503.344	17840.2
503.547	17614.92
503.75	18286.65
503.953	18448.44
504.156	18425.92
504.359	18862.13
504.562	18831.41
504.765	19351.6
504.968	19310.64
505.17	19347.5
505.373	19775.53
505.576	20066.34
505.779	20334.62
505.982	20383.77
506.185	20328.48
506.387	20934.68
506.59	20959.25
506.793	21262.35
506.996	21282.83
507.198	21616.65
507.401	21678.09
507.604	22179.84
507.807	22470.65
508.009	22657.02
508.212	22882.3
508.415	23199.73
508.617	23080.95
508.82	23742.44
509.022	23490.54
509.225	24014.82
509.428	24160.23
509.63	24182.76
509.833	23992.3
510.035	24704.99
510.238	24610.78
510.44	25137.11
510.643	25384.91
510.845	25991.11
511.048	25534.42
511.25	26042.31
511.453	26195.91
511.655	26998.71
511.858	26564.54
512.06	26781.63
512.262	27140.02
512.465	27320.24
512.667	27787.18
512.87	27735.98
513.072	28084.14
513.274	28465.06
513.477	28731.29
513.679	29069.21
513.881	29286.29
514.084	29515.67
514.286	29458.32
514.488	29558.67
514.69	30730.11
514.893	30693.25
515.095	30781.31
515.297	31205.24
515.499	31199.1
515.701	31276.92
515.904	31487.86
516.106	31727.47
516.308	32333.67
516.51	32763.75
516.712	32952.16
516.914	32835.42
517.116	33564.5
517.318	33460.05
517.52	33603.41
517.722	33738.58
517.925	34217.8
518.127	34955.07
518.329	34971.46
518.531	34967.36
518.733	35338.04
518.935	35555.13
519.136	35761.97
519.338	36343.59
519.54	36017.97
519.742	36544.3
519.944	36630.31
520.146	37209.89
520.348	37283.61
520.55	37359.39
520.752	37383.96
520.954	38432.52
521.155	37760.79
521.357	38629.13
521.559	38774.53
521.761	39077.63
521.963	39087.87
522.164	39233.28
522.366	39354.11
522.568	39210.75
522.77	39726.84
522.971	40324.85
523.173	40038.13
523.375	40625.9
523.576	40234.74
523.778	40679.14
523.98	41506.52
524.181	41246.43
524.383	41207.52
524.584	41574.11
524.786	41783
524.988	41684.7
525.189	42272.46
525.391	42227.41
525.592	42667.72
525.794	43155.14
525.995	42651.34
526.197	42528.46
526.398	43062.98
526.6	42796.74
526.801	43402.94
527.003	43478.72
527.204	43318.98
527.406	43882.17
527.607	43734.71
527.808	44232.37
528.01	43431.61
528.211	43699.9
528.412	45018.79
528.614	44547.76
528.815	44482.22
529.016	44850.86
529.218	44392.11
529.419	44646.06
529.62	44816.04
529.822	44447.41
530.023	44981.93
530.224	44832.43
530.425	45158.05
530.626	44420.78
530.828	44885.67
531.029	45842.07
531.23	44838.57
531.431	45254.31
531.632	45743.77
531.833	45670.04
532.035	45289.12
532.236	45139.62
532.437	45469.34
532.638	45282.98
532.839	45592.22
533.04	45440.67
533.241	45026.98
533.442	45788.83
533.643	45651.61
533.844	45569.69
534.045	45545.12
534.246	45121.19
534.447	46085.78
534.648	45477.54
534.849	45545.12
535.05	45094.57
535.251	45522.59
535.451	45483.68
535.652	45543.07
535.853	45772.44
536.054	45682.33
536.255	46184.08
536.456	45366.95
536.657	46440.08
536.857	45528.73
537.058	45192.87
537.259	46216.85
537.46	45827.74
537.66	45266.59
537.861	45704.86
538.062	45176.48
538.263	45584.03
538.463	45600.41
538.664	45758.11
538.865	45979.29
539.065	46157.46
539.266	45293.22
539.466	46290.58
539.667	45350.56
539.868	45751.96
540.068	45659.8
540.269	45491.87
540.469	46075.54
540.67	45239.97
540.87	45301.41
541.071	45362.85
541.271	45438.62
541.472	45514.4
541.672	45573.79
541.873	45291.17
542.073	44945.06
542.274	45917.85
542.474	45373.09
542.675	45309.6
542.875	45553.31
543.075	45495.97
543.276	44850.86
543.476	45356.71
543.676	45344.42
543.877	45323.94
544.077	45319.84
544.277	44961.45
544.478	44881.58
544.678	45477.54
544.878	45282.98
545.078	45409.95
545.279	45186.72
545.479	45059.75
545.679	45379.23
545.879	45215.4
546.079	45053.61
546.28	44842.67
546.48	44883.62
546.68	45223.59
546.88	45317.79
547.08	45201.06
547.28	44857
547.48	44492.46
547.68	44967.59
547.88	44785.32
548.081	45010.6
548.281	44676.78
548.481	45092.52
548.681	45160.1
548.881	44879.53
549.081	45176.48
549.28	44719.79
549.48	44912.3
549.68	44990.12
549.88	45479.58
550.08	44588.72
550.28	44783.27
550.48	44988.07
550.68	45160.1
550.88	44697.26
551.08	45020.84
551.279	45209.25
551.479	44615.34
551.679	44846.76
551.879	44648.11
552.079	44725.93
552.278	44584.62
552.478	44578.48
552.678	44584.62
552.878	44781.23
553.077	44668.59
553.277	44109.49
553.477	45201.06
553.676	44215.99
553.876	44084.92
554.076	44279.47
554.275	44668.59
554.475	43953.85
554.674	44601
554.874	44191.41
555.074	44183.22
555.273	44371.63
555.473	44463.79
555.672	44000.95
555.872	44340.91
556.071	44293.81
556.271	44322.48
556.47	44021.43
556.67	43667.13
556.869	43749.05
557.068	43953.85
557.268	43855.54
557.467	43964.09
557.667	43943.61
557.866	43607.74
558.065	43802.3
558.265	43509.44
558.464	43667.13
558.663	43871.93
558.863	43282.11
559.062	43837.11
559.261	43212.48
559.461	43581.12
559.66	43181.76
559.859	43445.95
560.058	42782.41
560.258	43171.52
560.457	43132.61
560.656	43159.23
560.855	42987.21
561.054	42974.92
561.253	42741.45
561.453	43251.39
561.652	43202.24
561.851	43075.27
562.05	42514.12
562.249	42632.91
562.448	42878.66
562.647	43208.39
562.846	42624.71
563.045	42471.12
563.244	42245.84
563.443	42849.99
563.642	41995.99
563.841	42127.06
564.04	41948.89
564.239	42364.62
564.438	42030.8
564.637	42233.55
564.836	42069.72
565.035	41637.59
565.234	42213.07
565.432	41684.7
565.631	41709.27
565.83	41918.17
566.029	41676.51
566.228	41529.05
566.427	41488.09
566.625	41176.8
566.824	41228
567.023	41770.71
567.222	40922.85
567.42	41578.2
567.619	41299.68
567.818	40879.85
568.016	40804.07
568.215	41266.91
568.414	40783.59
568.612	41336.54
568.811	40478.44
569.01	40654.57
569.208	40357.61
569.407	40521.45
569.605	40351.47
569.804	40638.19
570.002	40208.11
570.201	40480.49
570.4	40070.9
570.598	40187.63
570.797	39651.06
570.995	40115.95
571.193	39360.25
571.392	39630.58
571.59	39835.38
571.789	39620.34
571.987	39276.29
572.186	39612.15
572.384	38950.66
572.582	39859.96
572.781	39096.06
572.979	38579.98
573.177	39382.78
573.376	39343.87
573.574	38932.23
573.772	38995.71
573.971	38868.74
574.169	38674.18
574.367	38410
574.565	38850.31
574.763	38571.78
574.962	38479.63
575.16	37807.89
575.358	38569.74
575.556	37730.07
575.754	38717.19
575.952	37846.8
576.151	38235.92
576.349	37736.21
576.547	37932.82
576.745	37822.23
576.943	37875.48
577.141	38006.55
577.339	37596.95
577.537	37447.45
577.735	37529.37
577.933	37138.21
578.131	37283.61
578.329	36998.94
578.527	36691.75
578.725	36935.46
578.923	37064.48
579.121	36687.65
579.319	36650.79
579.516	36843.3
579.714	36691.75
579.912	36380.46
580.11	36478.76
580.308	36884.26
580.506	36329.26
580.704	35936.05
580.901	36144.94
581.099	36312.88
581.297	36101.93
581.495	36050.74
581.692	35790.64
581.89	35254.08
582.088	35868.47
582.285	35436.34
582.483	35475.26
582.681	35624.76
582.878	35229.5
583.076	34795.33
583.274	34996.03
583.471	34768.71
583.669	34916.16
583.866	35157.82
584.064	34815.81
584.262	34715.46
584.459	35192.64
584.657	34656.07
584.854	34821.95
585.052	34068.3
585.249	34664.26
585.447	34391.88
585.644	33998.67
585.841	34064.21
586.039	34281.29
586.236	33724.24
586.434	33883.98
586.631	33478.49
586.828	33648.47
587.026	33525.59
587.223	33836.88
587.42	33501.01
587.618	33152.86
587.815	33138.52
588.012	33247.07
588.21	33038.17
588.407	33159
588.604	32716.64
588.801	32819.04
588.999	32843.62
589.196	32468.84
589.393	32931.68
589.59	32511.85
589.787	32089.96
589.984	32329.58
590.182	31895.41
590.379	32255.85
590.576	31678.32
590.773	32038.76
590.97	31979.37
591.167	31944.56
591.364	31645.55
591.561	31897.45
591.758	31461.24
591.955	31545.2
592.152	31803.25
592.349	31180.67
592.546	31362.93
592.743	31281.02
592.94	30893.95
593.137	30910.33
593.334	31356.79
593.531	30424.97
593.727	30771.07
593.924	30928.77
594.121	30281.61
594.318	30668.67
594.515	29984.65
594.712	30564.23
594.908	29869.97
595.105	30195.59
595.302	29884.3
595.499	29955.98
595.696	29626.26
595.892	29544.34
596.089	29370.26
596.286	29781.9
596.482	29407.12
596.679	29433.75
596.876	29544.34
597.072	29243.29
597.269	29370.26
597.466	29091.74
597.662	28886.94
597.859	29282.2
598.055	28809.12
598.252	28817.31
598.448	28948.38
598.645	28870.56
598.841	28401.57
599.038	28735.39
599.234	28315.56
599.431	28239.78
599.627	28096.42
599.824	28161.96
600.02	28121
600.217	28065.71
600.413	27828.14
600.609	27934.64
600.806	27389.88
601.002	27766.7
601.198	27441.07
601.395	27690.93
601.591	27443.12
601.787	27459.51
601.984	27258.81
602.18	27580.34
602.376	27199.41
602.572	27029.43
602.769	27090.87
602.965	26548.16
603.161	26996.67
603.357	26847.16
603.553	26578.88
603.75	26499.01
603.946	26314.69
604.142	26595.26
604.338	26126.28
604.534	26130.37
604.73	25726.92
604.926	26154.95
605.122	26230.73
605.318	25950.15
605.514	25847.75
605.71	25747.4
605.906	25534.42
606.102	25655.25
606.298	25655.25
606.494	25272.28
606.69	25659.34
606.886	25735.12
607.082	24965.08
607.278	25358.29
607.474	25055.19
607.67	25544.66
607.866	24946.65
608.062	25049.05
608.257	25012.18
608.453	25022.42
608.649	25329.62
608.845	24801.24
609.041	25032.66
609.236	24694.75
609.432	24696.8
609.628	24580.06
609.824	24690.65
610.019	24580.06
610.215	24510.43
610.411	24727.52
610.606	24236
610.802	24408.03
610.998	24385.51
611.193	24379.36
611.389	23990.25
611.584	24346.59
611.78	23937
611.976	23990.25
612.171	24066.02
612.367	24195.04
612.562	23824.36
612.758	23672.81
612.953	23863.27
613.149	23963.62
613.344	23535.6
613.539	23896.04
613.735	23463.92
613.93	23547.89
614.126	23619.56
614.321	23848.94
614.517	23814.12
614.712	23824.36
614.907	23439.34
615.103	23597.04
615.298	23060.47
615.493	23594.99
615.688	23076.85
615.884	23367.66
616.079	23255.03
616.274	23365.62
616.47	23019.51
616.665	23126
616.86	22851.58
617.055	23128.05
617.25	22763.51
617.445	23273.46
617.641	22552.57
617.836	22779.9
618.031	22568.96
618.226	22788.09
618.421	22638.59
618.616	22695.93
618.811	22218.75
619.006	22587.39
619.201	22069.25
619.396	22255.62
619.591	21803.02
619.786	22099.97
619.981	21776.39
620.176	21835.78
620.371	21381.14
620.566	21893.13
620.761	21473.29
620.956	21708.81
621.151	21477.39
621.346	21590.03
621.541	20836.38
621.735	21198.87
621.93	20942.87
622.125	20971.54
622.32	20678.68
622.515	20809.75
622.709	20604.95
622.904	20697.11
623.099	20514.84
623.294	20697.11
623.488	20166.69
623.683	20099.11
623.878	19955.75
624.072	19953.7
624.267	19714.09
624.462	19769.38
624.656	19666.99
624.851	19542.06
625.046	19404.85
625.24	19415.09
625.435	19154.99
625.629	19167.28
625.824	19146.8
626.018	18962.48
626.213	18446.4
626.407	18776.12
626.602	18450.49
626.796	18565.18
626.991	18468.92
627.185	18540.6
627.38	18526.27
627.574	18139.2
627.768	18004.03
627.963	18104.39
628.157	17815.62
628.352	17948.74
628.546	17479.75
628.74	17543.24
628.935	17606.73
629.129	17369.16
629.323	17324.11
629.517	16883.8
629.712	16916.56
629.906	17045.59
630.1	16916.56
630.294	17066.06
630.489	16541.78
630.683	16959.57
630.877	16525.4
631.071	16533.59
631.265	16398.43
631.459	16423
631.653	16349.28
631.848	16253.02
632.042	15902.82
632.236	15958.11
632.43	15872.1
632.624	15865.96
632.818	15673.45
633.012	15546.47
633.206	15579.24
633.4	15612.01
633.594	15220.85
633.788	15233.13
633.982	15622.25
634.176	15366.25
634.369	15085.68
634.563	14864.5
634.757	14798.96
634.951	15018.1
635.145	14925.94
635.339	14909.55
635.533	14792.82
635.726	14821.49
635.92	14604.41
636.114	14444.66
636.308	14313.59
636.501	14317.69
636.695	14160
636.889	14051.45
637.083	13957.25
637.276	14033.02
637.47	13904
637.664	13744.26
637.857	13719.68
638.051	13590.66
638.244	13803.65
638.438	13578.37
638.632	13723.78
638.825	13486.22
639.019	13299.85
639.212	13262.99
639.406	13426.82
639.599	13324.43
639.793	13103.25
639.986	12939.41
640.18	13033.61
640.373	12929.17
640.567	12847.25
640.76	12916.88
640.954	12832.91
641.147	12449.94
641.34	12718.23
641.534	12499.09
641.727	12521.62
641.92	12279.96
642.114	12376.22
642.307	12335.26
642.5	12142.75
642.694	11905.18
642.887	12021.92
643.08	11937.95
643.273	11864.22
643.467	11815.07
643.66	11767.97
643.853	11901.09
644.046	11532.45
644.239	11665.57
644.432	11620.52
644.626	11483.3
644.819	11550.89
645.012	11421.86
645.205	11397.29
645.398	11286.7
645.591	11303.08
645.784	11233.45
645.977	10936.49
646.17	11057.32
646.363	11108.52
646.556	10805.42
646.749	10881.2
646.942	10762.42
647.135	10956.97
647.328	10576.05
647.521	10707.12
647.714	10545.33
647.907	10604.72
648.099	10569.91
648.292	10565.81
648.485	10170.55
648.678	10205.37
648.871	10229.95
649.064	10068.16
649.256	10516.66
649.449	10137.79
649.642	9853.12
649.835	9935.04
650.027	9984.19
650.22	9750.72
650.413	9763.01
650.605	9670.85
650.798	9846.98
650.991	9656.51
651.183	9658.56
651.376	9396.42
651.568	9652.42
651.761	9496.77
651.954	9367.75
652.146	9541.83
652.339	9349.32
652.531	9081.03
652.724	9351.37
652.916	9111.75
653.109	9124.04
653.301	9033.93
653.494	9033.93
653.686	8935.63
653.879	8956.11
654.071	8898.77
654.263	9050.32
654.456	8741.07
654.648	8831.18
654.84	8788.18
655.033	8671.44
655.225	8579.28
655.417	8700.11
655.61	8605.91
655.802	8478.93
655.994	8276.18
656.186	8583.38
656.379	8284.37
656.571	8378.58
656.763	8255.7
656.955	8298.71
657.148	8149.21
657.34	8155.35
657.532	8012
657.724	8091.87
657.916	8186.07
658.108	8085.72
658.3	7751.9
658.492	8018.14
658.684	7723.23
658.876	7633.12
659.068	7817.44
659.26	7696.61
659.452	7809.25
659.644	7649.5
659.836	7493.86
660.028	7606.5
660.22	7477.48
660.412	7495.91
660.604	7356.65
660.796	7252.2
660.988	7391.46
661.18	7237.86
661.372	7358.69
661.563	7330.02
661.755	7352.55
661.947	7166.18
662.139	7151.85
662.331	6994.15
662.522	7004.39
662.714	6899.95
662.906	6908.14
663.097	6852.84
663.289	6838.51
663.481	6940.91
663.673	6891.76
663.864	6768.88
664.056	6797.55
664.247	6678.77
664.439	6586.61
664.631	6592.75
664.822	6723.82
665.014	6607.09
665.205	6498.55
665.397	6686.96
665.588	6527.22
665.78	6433.01
665.971	6232.31
666.163	6371.57
666.354	6306.04
666.546	6238.45
666.737	6215.93
666.929	6279.41
667.12	6152.44
667.311	6387.96
667.503	6170.87
667.694	6185.21
667.885	6119.67
668.077	6199.54
668.268	6035.71
668.459	6088.95
668.651	6117.62
668.842	6015.23
669.033	6037.75
669.224	5806.33
669.416	5890.3
669.607	5839.1
669.798	5839.1
669.989	5796.09
670.18	5609.73
670.371	5746.94
670.563	5570.82
670.754	5734.65
670.945	5521.67
671.136	5769.47
671.327	5599.49
671.518	5671.17
671.709	5626.11
671.9	5581.06
672.091	5622.02
672.282	5658.88
672.473	5392.64
672.664	5605.63
672.855	5376.26
673.046	5556.48
673.237	5505.28
673.428	5396.74
673.619	5282.05
673.809	5277.96
674	5302.53
674.191	5277.96
674.382	5234.95
674.573	5294.34
674.764	5107.98
674.954	5253.38
675.145	5232.9
675.336	5144.84
675.527	5146.89
675.717	5099.78
675.908	5112.07
676.099	5155.08
676.289	5138.69
676.48	5007.62
676.671	5081.35
676.861	4907.27
677.052	4849.93
677.243	5048.58
677.433	5105.93
677.624	4952.33
677.814	4911.37
678.005	4946.19
678.195	4966.67
678.386	5046.54
678.576	4774.16
678.767	5019.91
678.957	4919.56
679.148	5036.3
679.338	4901.13
679.529	4804.88
679.719	4735.25
679.909	4995.34
680.1	4700.43
680.29	4759.82
680.481	4757.77
680.671	4868.36
680.861	4612.37
681.052	4778.25
681.242	4749.58
681.432	4753.68
681.622	4557.07
681.813	4745.48
682.003	4825.36
682.193	4464.91
682.383	4507.92
682.573	4628.75
682.764	4716.81
682.954	4610.32
683.144	4675.85
683.334	4548.88
683.524	4489.49
683.714	4563.22
683.904	4462.87
684.094	4593.94
684.284	4501.78
684.474	4438.29
684.664	4413.71
684.854	4376.85
685.044	4329.75
685.234	4319.51
685.424	4331.8
685.614	4442.39
685.804	4382.99
685.994	4366.61
686.184	4333.84
686.374	4303.12
686.564	4282.64
686.753	4428.05
686.943	4342.04
687.133	4233.49
687.323	4167.96
687.513	4272.4
687.702	4202.77
687.892	4229.4
688.082	4186.39
688.272	4137.24
688.461	4118.81
688.651	4002.07
688.841	4086.04
689.03	3807.52
689.22	4002.07
689.41	4040.98
689.599	3985.69
689.789	3926.3
689.979	3864.86
690.168	3897.63
690.358	3895.58
690.547	3862.81
690.737	3858.71
690.926	3791.13
691.116	3803.42
691.305	3834.14
691.495	3725.6
691.684	3737.88
691.874	3662.11
692.063	3707.16
692.252	3758.36
692.442	3582.24
692.631	3641.63
692.82	3522.85
693.01	3535.14
693.199	3608.86
693.388	3569.95
693.578	3604.77
693.767	3600.67
693.956	3516.7
694.146	3471.65
694.335	3580.19
694.524	3526.94
694.713	3428.64
694.902	3402.02
695.092	3483.94
695.281	3424.55
695.47	3279.14
695.659	3397.92
695.848	3279.14
696.037	3340.58
696.226	3334.43
696.415	3318.05
696.604	3266.85
696.793	3377.44
696.982	3266.85
697.171	3242.28
697.36	3320.1
697.549	3217.7
697.738	3195.17
697.927	3260.71
698.116	3209.51
698.305	3180.84
698.494	3146.02
698.683	3103.01
698.872	3117.35
699.061	3049.77
699.25	3029.29
699.438	3098.92
699.627	3060.01
699.816	3131.69
700.005	3135.78
700.193	3092.77
700.382	3019.05
700.571	3004.71
700.76	3057.96
700.948	2947.37
701.137	2992.42
701.326	2920.74
701.514	3006.76
701.703	2922.79
701.892	2937.13
702.08	2996.52
702.269	3010.86
702.457	2887.98
702.646	2986.28
702.834	2865.45
703.023	2926.89
703.212	2910.5
703.4	2988.33
703.589	2826.54
703.777	2945.32
703.965	2777.39
704.154	2851.11
704.342	2814.25
704.531	2885.93
704.719	2767.15
704.907	2961.7
705.096	2916.65
705.284	2775.34
705.472	2847.02
705.661	2902.31
705.849	2820.39
706.037	2832.68
706.226	2711.85
706.414	2842.92
706.602	2687.28
706.79	2836.78
706.979	2623.79
707.167	2849.07
707.355	2703.66
707.543	2638.13
707.731	2799.91
707.919	2775.34
708.107	2851.11
708.296	2677.04
708.484	2728.24
708.672	2767.15
708.86	2738.48
709.048	2836.78
709.236	2761
709.424	2799.91
709.612	2687.28
709.8	2697.52
709.988	2732.33
710.176	2736.43
710.364	2750.76
710.551	2754.86
710.739	2713.9
710.927	2677.04
711.115	2668.84
711.303	2629.93
711.491	2705.71
711.679	2791.72
711.866	2793.77
712.054	2746.67
712.242	2777.39
712.43	2599.21
712.617	2734.38
712.805	2685.23
712.993	2674.99
713.181	2709.8
713.368	2656.56
713.556	2646.32
713.744	2519.34
713.931	2758.96
714.119	2615.6
714.306	2629.93
714.494	2644.27
714.682	2689.32
714.869	2584.88
715.057	2732.33
715.244	2539.82
715.432	2679.08
715.619	2677.04
715.807	2711.85
715.994	2683.18
716.182	2674.99
716.369	2709.8
716.556	2703.66
716.744	2623.79
716.931	2736.43
717.119	2693.42
717.306	2713.9
717.493	2705.71
717.681	2591.02
717.868	2744.62
718.055	2609.45
718.242	2550.06
718.43	2677.04
718.617	2724.14
718.804	2656.56
718.991	2699.56
719.179	2709.8
719.366	2619.69
719.553	2621.74
719.74	2541.87
719.927	2638.13
720.114	2636.08
720.301	2668.84
720.488	2685.23
720.676	2629.93
720.863	2705.71
721.05	2656.56
721.237	2679.08
721.424	2640.17
721.611	2703.66
721.798	2586.93
721.985	2439.47
722.172	2625.84
722.358	2691.37
722.545	2742.57
722.732	2740.52
722.919	2713.9
723.106	2535.73
723.293	2564.4
723.48	2642.22
723.667	2666.8
723.853	2566.45
724.04	2722.09
724.227	2599.21
724.414	2545.97
724.6	2613.55
724.787	2593.07
724.974	2539.82
725.161	2709.8
725.347	2548.01
725.534	2693.42
725.72	2648.36
725.907	2709.8
726.094	2656.56
726.28	2677.04
726.467	2613.55
726.653	2740.52
726.84	2580.78
727.027	2754.86
727.213	2603.31
727.4	2644.27
727.586	2578.73
727.773	2718
727.959	2744.62
728.145	2662.7
728.332	2625.84
728.518	2658.6
728.705	2629.93
728.891	2634.03
729.077	2580.78
729.264	2593.07
729.45	2623.79
729.636	2677.04
729.823	2685.23
730.009	2701.61
730.195	2572.59
730.382	2662.7
730.568	2611.5
730.754	2648.36
730.94	2586.93
731.126	2726.19
731.313	2703.66
731.499	2572.59
731.685	2652.46
731.871	2490.67
732.057	2502.96
732.243	2664.75
732.429	2558.25
732.615	2554.16
732.801	2670.89
732.987	2713.9
733.173	2646.32
733.359	2730.28
733.545	2623.79
733.731	2615.6
733.917	2677.04
734.103	2640.17
734.289	2664.75
734.475	2742.57
734.661	2631.98
734.847	2683.18
735.033	2599.21
735.219	2640.17
735.404	2464.05
735.59	2607.41
735.776	2619.69
735.962	2683.18
736.148	2679.08
736.333	2576.69
736.519	2634.03
736.705	2615.6
736.89	2574.64
737.076	2570.54
737.262	2572.59
737.447	2541.87
737.633	2568.49
737.819	2588.97
738.004	2562.35
738.19	2525.49
738.375	2566.45
738.561	2539.82
738.747	2410.8
738.932	2416.94
739.118	2582.83
739.303	2566.45
739.489	2521.39
739.674	2341.17
739.859	2457.9
740.045	2431.28
740.23	2531.63
740.416	2435.38
740.601	2468.14
740.786	2515.25
740.972	2390.32
741.157	2478.38
741.342	2386.22
741.528	2296.11
741.713	2386.22
741.898	2449.71
742.084	2402.61
742.269	2496.82
742.454	2414.9
742.639	2359.6
742.824	2382.13
743.01	2427.18
743.195	2357.55
743.38	2343.22
743.565	2392.37
743.75	2283.83
743.935	2244.92
744.12	2271.54
744.305	2349.36
744.49	2220.34
744.675	2357.55
744.86	2287.92
745.045	2251.06
745.23	2226.48
745.415	2152.76
745.6	2259.25
745.785	2193.72
745.97	2224.44
746.155	2244.92
746.34	2226.48
746.525	2134.32
746.71	2122.04
746.895	2193.72
747.079	2226.48
747.264	2249.01
747.449	2042.17
747.634	2062.65
747.819	2206
748.003	2148.66
748.188	2181.43
748.373	2085.17
748.557	2089.27
748.742	2072.89
748.927	1976.63
749.111	2072.89
749.296	1968.44
749.481	1937.72
749.665	1974.58
749.85	1990.97
750.034	1917.24
750.219	1943.86
750.404	1874.23
750.588	1990.97
750.773	1829.18
750.957	1911.1
751.141	1909.05
751.326	1966.39
751.51	1878.33
751.695	1775.93
751.879	1882.42
752.064	1855.8
752.248	1866.04
752.432	1804.6
752.617	1706.3
752.801	1710.4
752.985	1874.23
753.17	1732.92
753.354	1780.03
753.538	1743.16
753.722	1679.68
753.907	1712.44
754.091	1724.73
754.275	1599.8
754.459	1646.91
754.643	1716.54
754.828	1663.29
755.012	1626.43
755.196	1722.68
755.38	1567.04
755.564	1577.28
755.748	1569.09
755.932	1575.23
756.116	1452.35
756.3	1530.17
756.484	1542.46
756.668	1503.55
756.852	1505.6
757.036	1440.06
757.22	1517.89
757.404	1485.12
757.588	1493.31
757.772	1409.34
757.956	1435.97
758.14	1450.3
758.323	1417.54
758.507	1413.44
758.691	1388.86
758.875	1435.97
759.059	1366.34
759.242	1472.83
759.426	1399.1
759.61	1349.95
759.794	1333.57
759.977	1395.01
760.161	1360.19
760.345	1319.23
760.528	1366.34
760.712	1358.14
760.895	1352
761.079	1216.83
761.263	1270.08
761.446	1339.71
761.63	1239.36
761.813	1399.1
761.997	1247.55
762.18	1245.51
762.364	1229.12
762.547	1190.21
762.731	1171.78
762.914	1249.6
763.098	1153.35
763.281	1272.13
763.464	1153.35
763.648	1190.21
763.831	1155.4
764.015	1182.02
764.198	1276.23
764.381	1161.54
764.564	1190.21
764.748	1145.16
764.931	1147.2
765.114	1124.68
765.297	1225.03
765.481	1079.62
765.664	1182.02
765.847	1179.97
766.03	1120.58
766.213	1098.05
766.397	1237.31
766.58	1067.33
766.763	1079.62
766.946	1186.12
767.129	1081.67
767.312	1165.64
767.495	1036.61
767.678	1108.29
767.861	1120.58
768.044	1096
768.227	1112.39
768.41	1093.96
768.593	1026.37
768.776	1165.64
768.959	1112.39
769.142	1071.43
769.324	1044.81
769.507	1075.52
769.69	1100.1
769.873	1061.19
770.056	1048.9
770.239	1050.95
770.421	1061.19
770.604	1087.81
770.787	989.51
770.97	989.51
771.152	987.46
771.335	1046.85
771.518	1024.33
771.7	1061.19
771.883	1038.66
772.066	915.78
772.248	969.03
772.431	1063.24
772.613	1009.99
772.796	915.78
772.978	1003.85
773.161	960.84
773.343	964.93
773.526	952.65
773.708	940.36
773.891	874.82
774.073	870.73
774.256	966.98
774.438	966.98
774.621	934.22
774.803	821.58
774.985	823.62
775.168	893.26
775.35	862.54
775.532	852.3
775.715	823.62
775.897	846.15
776.079	835.91
776.261	813.38
776.444	809.29
776.626	829.77
776.808	813.38
776.99	801.1
777.173	715.08
777.355	741.71
777.537	782.67
777.719	874.82
777.901	723.27
778.083	844.1
778.265	749.9
778.447	778.57
778.629	794.95
778.811	837.96
778.993	733.51
779.175	778.57
779.357	764.23
779.539	686.41
779.721	674.12
779.903	760.14
780.085	688.46
780.267	723.27
780.449	680.27
780.631	780.62
780.812	725.32
780.994	688.46
781.176	661.84
781.358	682.31
781.54	692.55
781.721	588.11
781.903	674.12
782.085	616.78
782.267	647.5
782.448	581.96
782.63	674.12
782.812	661.84
782.993	665.93
783.175	792.91
783.357	600.4
783.538	657.74
783.72	639.31
783.901	612.68
784.083	610.64
784.264	534.86
784.446	536.91
784.627	479.57
784.809	569.68
784.99	567.63
785.172	584.01
785.353	579.92
785.535	502.09
785.716	516.43
785.897	577.87
786.079	541.01
786.26	532.81
786.441	547.15
786.623	567.63
786.804	498
786.985	532.81
787.167	512.33
787.348	508.24
787.529	432.46
787.71	483.66
787.891	526.67
788.073	522.57
788.254	475.47
788.435	530.77
788.616	438.61
788.797	360.78
788.978	479.57
789.159	424.27
789.34	411.98
789.522	493.9
789.703	450.89
789.884	498
790.065	461.13
790.246	465.23
790.427	409.94
790.607	430.41
790.788	479.57
790.969	391.5
791.15	469.33
791.331	436.56
791.512	391.5
791.693	438.61
791.874	418.13
792.054	473.42
792.235	387.41
792.416	321.87
792.597	330.06
792.778	446.8
792.958	416.08
793.139	399.7
793.32	432.46
793.5	354.64
793.681	379.22
793.862	379.22
794.042	377.17
794.223	323.92
794.404	405.84
794.584	315.73
794.765	375.12
794.945	379.22
795.126	379.22
795.306	323.92
795.487	397.65
795.667	350.54
795.848	377.17
796.028	395.6
796.209	362.83
796.389	276.82
796.57	305.49
796.75	354.64
796.93	293.2
797.111	340.3
797.291	344.4
797.471	364.88
797.652	352.59
797.832	358.74
798.012	313.68
798.192	336.21
798.373	303.44
798.553	389.46
798.733	389.46
798.913	328.02
799.093	278.87
799.274	291.15
799.454	340.3
799.634	270.67
799.814	317.78
799.994	244.05
800.174	268.63
800.354	272.72
800.534	305.49
800.714	264.53
800.894	299.34
801.074	295.25
801.254	289.1
801.434	301.39
801.614	305.49
801.794	264.53
801.974	577.87
802.154	268.63
802.334	332.11
802.514	301.39
802.693	352.59
802.873	233.81
803.053	250.19
803.233	237.91
803.413	285.01
803.592	250.19
803.772	325.97
803.952	248.15
804.131	295.25
804.311	293.2
804.491	246.1
804.67	260.43
804.85	239.95
805.03	293.2
805.209	395.6
805.389	272.72
805.568	262.48
805.748	231.76
805.928	287.06
806.107	317.78
806.287	258.39
806.466	186.71
806.646	145.75
806.825	170.32
807.004	207.19
807.184	176.47
807.363	278.87
807.543	242
807.722	227.67
807.901	256.34
808.081	293.2
808.26	229.71
808.439	211.28
808.619	274.77
808.798	196.95
808.977	276.82
809.156	307.54
809.336	235.86
809.515	250.19
809.694	270.67
809.873	235.86
810.052	274.77
810.231	270.67
810.411	237.91
810.59	213.33
810.769	225.62
810.948	248.15
811.127	145.75
811.306	131.41
811.485	178.51
811.664	201.04
811.843	192.85
812.022	145.75
812.201	196.95
812.38	184.66
812.559	158.03
812.737	229.71
812.916	237.91
813.095	215.38
813.274	237.91
813.453	244.05
813.632	213.33
813.811	229.71
813.989	170.32
814.168	207.19
814.347	133.46
814.526	248.15
814.704	239.95
814.883	237.91
815.062	198.99
815.24	242
815.419	133.46
815.598	225.62
815.776	129.36
815.955	170.32
816.133	166.23
816.312	198.99
816.49	158.03
816.669	221.52
816.847	178.51
817.026	180.56
817.204	123.22
817.383	215.38
817.561	133.46
817.74	143.7
817.918	190.8
818.097	190.8
818.275	131.41
818.453	166.23
818.632	172.37
818.81	190.8
818.988	162.13
819.167	190.8
819.345	174.42
819.523	104.79
819.701	211.28
819.879	221.52
820.058	182.61
820.236	211.28
820.414	158.03
820.592	125.27
820.77	203.09
820.948	227.67
821.127	182.61
821.305	145.75
821.483	168.27
821.661	184.66
821.839	207.19
822.017	215.38
822.195	192.85
822.373	160.08
822.551	139.6
822.729	213.33
822.907	174.42
823.085	211.28
823.262	184.66
823.44	135.51
823.618	147.8
823.796	231.76
823.974	117.08
824.152	112.98
824.329	90.45
824.507	104.79
824.685	164.18
824.863	76.12
825.04	151.89
825.218	170.32
825.396	176.47
825.574	147.8
825.751	164.18
825.929	129.36
826.107	137.56
826.284	151.89
826.462	151.89
826.639	137.56
826.817	104.79
826.994	151.89
827.172	45.4
827.349	198.99
827.527	47.44
827.704	190.8
827.882	127.32
828.059	143.7
828.237	131.41
828.414	76.12
828.591	139.6
828.769	137.56
828.946	123.22
829.124	121.17
829.301	67.92
829.478	160.08
829.655	106.84
829.833	80.21
830.01	115.03
830.187	155.99
830.364	192.85
830.542	180.56
830.719	137.56
830.896	178.51
831.073	192.85
831.25	117.08
831.427	108.88
831.604	121.17
831.782	53.59
831.959	131.41
832.136	182.61
832.313	158.03
832.49	63.83
832.667	108.88
832.844	72.02
833.021	84.31
833.198	65.88
833.374	141.65
833.551	94.55
833.728	174.42
833.905	100.69
834.082	127.32
834.259	78.16
834.436	119.12
834.612	131.41
834.789	90.45
834.966	102.74
835.143	108.88
835.319	158.03
835.496	129.36
835.673	80.21
835.85	78.16
836.026	127.32
836.203	29.01
836.38	96.6
836.556	141.65
836.733	90.45
836.909	141.65
837.086	108.88
837.262	74.07
837.439	115.03
837.616	160.08
837.792	98.64
837.968	65.88
838.145	61.78
838.321	129.36
838.498	133.46
838.674	82.26
838.851	112.98
839.027	88.4
839.203	29.01
839.38	65.88
839.556	129.36
839.732	139.6
839.909	51.54
840.085	76.12
840.261	84.31
840.437	133.46
840.614	106.84
840.79	47.44
840.966	41.3
841.142	51.54
841.318	72.02
841.494	110.93
841.671	92.5
841.847	57.68
842.023	125.27
842.199	129.36
842.375	51.54
842.551	35.16
842.727	112.98
842.903	125.27
843.079	92.5
843.255	72.02
843.431	49.49
843.607	45.4
843.783	92.5
843.959	98.64
844.134	82.26
844.31	155.99
844.486	108.88
844.662	84.31
844.838	47.44
845.013	37.2
845.189	49.49
845.365	94.55
845.541	35.16
845.716	108.88
845.892	147.8
846.068	96.6
846.244	125.27
846.419	43.35
846.595	35.16
846.77	37.2
846.946	92.5
847.122	100.69
847.297	65.88
847.473	57.68
847.648	41.3
847.824	145.75
847.999	-3.75
848.175	125.27
848.35	84.31
848.526	59.73
848.701	80.21
848.876	86.36
849.052	65.88
849.227	80.21
849.403	4.44
849.578	84.31
849.753	76.12
849.929	104.79
850.104	69.97
850.279	92.5
850.454	98.64
850.63	59.73
850.805	203.09
850.98	55.64
851.155	80.21
851.33	31.06
851.505	98.64
851.681	72.02
851.856	65.88
852.031	16.73
852.206	47.44
852.381	88.4
852.556	55.64
852.731	57.68
852.906	82.26
853.081	92.5
853.256	18.77
853.431	41.3
853.606	43.35
853.781	82.26
853.956	35.16
854.131	57.68
854.305	72.02
854.48	37.2
854.655	74.07
854.83	141.65
855.005	125.27
855.18	53.59
855.354	117.08
855.529	22.87
855.704	2.39
855.879	55.64
856.053	0.34
856.228	98.64
856.403	4.44
856.577	86.36
856.752	69.97
856.926	26.96
857.101	115.03
857.276	-26.28
857.45	43.35
857.625	76.12
857.799	59.73
857.974	82.26
858.148	31.06
858.323	84.31
858.497	104.79
858.672	80.21
858.846	65.88
859.02	43.35
859.195	78.16
859.369	4.44
859.543	72.02
859.718	53.59
859.892	45.4
860.066	80.21
860.241	33.11
860.415	53.59
860.589	45.4
860.763	14.68
860.938	55.64
861.112	10.58
861.286	51.54
861.46	59.73
861.634	82.26
861.808	43.35
861.982	-16.04
862.157	137.56
862.331	80.21
862.505	65.88
862.679	57.68
862.853	-7.85
863.027	33.11
863.201	145.75
863.375	67.92
863.549	76.12
863.722	10.58
863.896	67.92
864.07	59.73
864.244	-9.9
864.418	102.74
864.592	-24.23
864.766	-18.09
864.939	12.63
865.113	24.92
865.287	20.82
865.461	0.34
865.634	-42.67
865.808	20.82
865.982	96.6
866.156	24.92
866.329	55.64
866.503	86.36
866.676	57.68
866.85	-13.99
867.024	82.26
867.197	-1.71
867.371	133.46
867.544	33.11
867.718	18.77
867.891	67.92
868.065	35.16
868.238	108.88
868.412	90.45
868.585	39.25
868.759	55.64
868.932	63.83
869.105	37.2
869.279	49.49
869.452	55.64
869.625	35.16
869.799	35.16
869.972	8.53
870.145	72.02
870.319	39.25
870.492	51.54
870.665	51.54
870.838	41.3
871.011	-13.99
871.185	110.93
871.358	-46.76
871.531	43.35
871.704	41.3
871.877	26.96
872.05	69.97
872.223	35.16
872.396	43.35
872.569	76.12
872.742	43.35
872.915	22.87
873.088	-1.71
873.261	59.73
873.434	49.49
873.607	57.68
873.78	49.49
873.953	49.49
874.126	4.44
874.299	-16.04
874.471	22.87
874.644	74.07
874.817	-5.8
874.99	94.55
875.163	41.3
875.335	-1.71
875.508	-1.71
875.681	90.45
875.853	69.97
876.026	-16.04
876.199	86.36
876.371	33.11
876.544	100.69
876.717	92.5
876.889	12.63
877.062	96.6
877.234	72.02
877.407	112.98
877.579	22.87
877.752	84.31
877.924	43.35
878.097	72.02
878.269	43.35
878.442	65.88
878.614	61.78
878.786	65.88
878.959	53.59
879.131	55.64
879.303	12.63
879.476	72.02
879.648	24.92
879.82	18.77
879.993	14.68
880.165	35.16
880.337	84.31
880.509	-20.14
880.681	61.78
880.854	-130.73
881.026	57.68
881.198	80.21
881.37	61.78
881.542	-13.99
881.714	61.78
881.886	22.87
882.058	69.97
882.23	31.06
882.402	41.3
882.574	53.59
882.746	16.73
882.918	92.5
883.09	69.97
883.262	72.02
883.434	-13.99
883.606	10.58
883.778	49.49
883.95	-20.14
884.122	139.6
884.293	31.06
884.465	-5.8
884.637	-28.33
884.809	61.78
884.98	125.27
885.152	26.96
885.324	31.06
885.496	45.4
885.667	59.73
885.839	0.34
886.011	10.58
886.182	43.35
886.354	6.49
886.525	49.49
886.697	92.5
886.869	35.16
887.04	121.17
887.212	39.25
887.383	76.12
887.555	59.73
887.726	0.34
887.897	31.06
888.069	41.3
888.24	76.12
888.412	76.12
888.583	-28.33
888.754	-38.57
888.926	45.4
889.097	94.55
889.268	-24.23
889.44	4.44
889.611	26.96
889.782	10.58
889.953	26.96
890.125	63.83
890.296	2.39
890.467	108.88
890.638	67.92
890.809	67.92
890.98	45.4
891.151	10.58
891.323	-1.71
891.494	12.63
891.665	-120.49
891.836	106.84
892.007	29.01
892.178	35.16
892.349	18.77
892.52	47.44
892.691	-5.8
892.862	84.31
893.032	6.49
893.203	61.78
893.374	-22.19
893.545	-36.52
893.716	16.73
893.887	92.5
894.057	59.73
894.228	14.68
894.399	67.92
894.57	-34.47
894.74	14.68
894.911	94.55
895.082	51.54
895.253	0.34
895.423	45.4
895.594	112.98
895.764	8.53
895.935	35.16
896.106	78.16
896.276	22.87
896.447	41.3
896.617	-40.62
896.788	29.01
896.958	69.97
897.129	-42.67
897.299	-7.85
897.47	49.49
897.64	55.64
897.81	26.96
897.981	37.2
898.151	84.31
898.322	41.3
898.492	43.35
898.662	31.06
898.832	74.07
899.003	22.87
899.173	51.54
899.343	16.73
899.513	-9.9
