Data from USB4F104151__62__11-37-25-780.txt Node

Date: Fri Mar 14 11:37:25 EDT 2025
User: louis
Spectrometer: USB4F10415
Trigger mode: 4
Integration Time (sec): 2.000000E-2
Scans to average: 1
Electric dark correction enabled: true
Nonlinearity correction enabled: false
Boxcar width: 0
XAxis mode: Wavelengths
Number of Pixels in Spectrum: 3648
>>>>>Begin Spectral Data<<<<<
178.204	-97.11
178.424	-97.11
178.644	-97.11
178.864	-95.06
179.084	-72.53
179.304	-21.33
179.524	11.43
179.744	-23.38
179.964	-17.24
180.184	-23.38
180.404	50.35
180.624	5.29
180.844	15.53
181.064	-29.52
181.283	-29.52
181.503	36.01
181.723	25.77
181.943	-13.14
182.163	11.43
182.383	13.48
182.602	17.58
182.822	25.77
183.042	9.39
183.262	9.39
183.482	68.78
183.701	-45.91
183.921	-97.11
184.141	5.29
184.361	-0.85
184.58	-29.52
184.8	31.91
185.02	-43.86
185.239	-13.14
185.459	64.68
185.679	-17.24
185.898	-80.72
186.118	11.43
186.338	13.48
186.557	33.96
186.777	-17.24
186.997	-23.38
187.216	31.91
187.436	23.72
187.655	19.63
187.875	68.78
188.095	-68.44
188.314	46.25
188.534	142.5
188.753	48.3
188.973	27.82
189.192	-45.91
189.412	29.87
189.631	-19.29
189.851	-39.76
190.07	44.2
190.29	-123.73
190.509	50.35
190.729	-80.72
190.948	-0.85
191.168	17.58
191.387	11.43
191.607	50.35
191.826	-21.33
192.045	-17.24
192.265	-25.43
192.484	-13.14
192.704	62.63
192.923	-23.38
193.142	48.3
193.362	31.91
193.581	58.54
193.8	-33.62
194.02	11.43
194.239	-2.9
194.458	33.96
194.678	-0.85
194.897	79.02
195.116	-66.39
195.335	5.29
195.555	68.78
195.774	15.53
195.993	-68.44
196.212	-33.62
196.432	-29.52
196.651	19.63
196.87	-11.09
197.089	11.43
197.308	-9.05
197.528	36.01
197.747	9.39
197.966	93.35
198.185	13.48
198.404	56.49
198.623	42.15
198.842	44.2
199.062	-11.09
199.281	-0.85
199.5	-62.29
199.719	79.02
199.938	70.83
200.157	-13.14
200.376	56.49
200.595	-29.52
200.814	-37.72
201.033	-33.62
201.252	33.96
201.471	7.34
201.69	5.29
201.909	117.93
202.128	-64.34
202.347	134.31
202.566	31.91
202.785	-35.67
203.004	-72.53
203.223	52.39
203.442	-17.24
203.661	21.67
203.879	64.68
204.098	1.19
204.317	-80.72
204.536	21.67
204.755	46.25
204.974	72.87
205.193	33.96
205.411	31.91
205.63	56.49
205.849	44.2
206.068	13.48
206.287	11.43
206.505	-37.72
206.724	-41.81
206.943	15.53
207.162	-7
207.381	3.24
207.599	-25.43
207.818	3.24
208.037	101.55
208.255	3.24
208.474	-7
208.693	11.43
208.911	29.87
209.13	-21.33
209.349	-13.14
209.567	23.72
209.786	46.25
210.005	31.91
210.223	-9.05
210.442	7.34
210.661	-0.85
210.879	-17.24
211.098	58.54
211.316	-11.09
211.535	50.35
211.753	1.19
211.972	7.34
212.191	-45.91
212.409	25.77
212.628	-56.15
212.846	17.58
213.065	-13.14
213.283	68.78
213.502	-4.95
213.72	-25.43
213.938	119.98
214.157	23.72
214.375	36.01
214.594	-19.29
214.812	3.24
215.031	60.59
215.249	3.24
215.467	-17.24
215.686	68.78
215.904	19.63
216.122	-29.52
216.341	27.82
216.559	52.39
216.778	-33.62
216.996	-21.33
217.214	-54.1
217.432	-97.11
217.651	-0.85
217.869	-23.38
218.087	36.01
218.306	-7
218.524	-21.33
218.742	-0.85
218.96	50.35
219.179	-39.76
219.397	3.24
219.615	97.45
219.833	11.43
220.051	-9.05
220.27	60.59
220.488	56.49
220.706	-13.14
220.924	-56.15
221.142	23.72
221.36	56.49
221.578	66.73
221.796	13.48
222.015	33.96
222.233	-37.72
222.451	11.43
222.669	-31.57
222.887	-33.62
223.105	-33.62
223.323	70.83
223.541	9.39
223.759	-74.58
223.977	66.73
224.195	58.54
224.413	-17.24
224.631	66.73
224.849	7.34
225.067	13.48
225.285	11.43
225.503	-41.81
225.721	-25.43
225.939	-13.14
226.157	66.73
226.375	1.19
226.592	9.39
226.81	25.77
227.028	19.63
227.246	-25.43
227.464	-9.05
227.682	29.87
227.9	38.06
228.117	33.96
228.335	31.91
228.553	-7
228.771	33.96
228.989	40.11
229.206	31.91
229.424	-4.95
229.642	-47.96
229.86	66.73
230.077	76.97
230.295	11.43
230.513	21.67
230.731	52.39
230.948	27.82
231.166	76.97
231.384	-37.72
231.601	-7
231.819	74.92
232.037	29.87
232.254	-21.33
232.472	-33.62
232.689	-39.76
232.907	109.74
233.125	-37.72
233.342	-50
233.56	17.58
233.777	-45.91
233.995	-41.81
234.213	54.44
234.43	29.87
234.648	-4.95
234.865	-4.95
235.083	48.3
235.3	15.53
235.518	-27.48
235.735	23.72
235.953	27.82
236.17	-21.33
236.388	-41.81
236.605	50.35
236.822	48.3
237.04	27.82
237.257	7.34
237.475	-15.19
237.692	36.01
237.909	1.19
238.127	-37.72
238.344	-17.24
238.562	50.35
238.779	-45.91
238.996	3.24
239.214	-62.29
239.431	99.5
239.648	36.01
239.865	-25.43
240.083	3.24
240.3	66.73
240.517	15.53
240.735	9.39
240.952	52.39
241.169	40.11
241.386	-39.76
241.603	-23.38
241.821	-7
242.038	36.01
242.255	64.68
242.472	7.34
242.689	-23.38
242.907	-7
243.124	-21.33
243.341	52.39
243.558	40.11
243.775	46.25
243.992	19.63
244.209	87.21
244.426	-9.05
244.643	36.01
244.86	23.72
245.078	40.11
245.295	19.63
245.512	9.39
245.729	11.43
245.946	36.01
246.163	48.3
246.38	25.77
246.597	46.25
246.814	-27.48
247.031	-17.24
247.248	62.63
247.464	48.3
247.681	52.39
247.898	46.25
248.115	46.25
248.332	-25.43
248.549	38.06
248.766	70.83
248.983	72.87
249.2	7.34
249.417	62.63
249.633	50.35
249.85	17.58
250.067	42.15
250.284	36.01
250.501	-29.52
250.717	19.63
250.934	7.34
251.151	5.29
251.368	-29.52
251.585	21.67
251.801	21.67
252.018	-58.2
252.235	97.45
252.451	3.24
252.668	15.53
252.885	25.77
253.102	-17.24
253.318	-0.85
253.535	19.63
253.752	31.91
253.968	46.25
254.185	23.72
254.401	27.82
254.618	-25.43
254.835	25.77
255.051	-66.39
255.268	44.2
255.484	50.35
255.701	70.83
255.917	76.97
256.134	-37.72
256.351	-4.95
256.567	60.59
256.784	119.98
257	19.63
257.217	-39.76
257.433	85.16
257.65	13.48
257.866	-23.38
258.082	9.39
258.299	27.82
258.515	85.16
258.732	3.24
258.948	68.78
259.165	38.06
259.381	-21.33
259.597	3.24
259.814	29.87
260.03	-58.2
260.246	-11.09
260.463	1.19
260.679	97.45
260.895	40.11
261.112	-9.05
261.328	-2.9
261.544	40.11
261.761	15.53
261.977	3.24
262.193	-52.05
262.409	62.63
262.626	40.11
262.842	-27.48
263.058	-23.38
263.274	19.63
263.49	-4.95
263.707	5.29
263.923	19.63
264.139	48.3
264.355	99.5
264.571	107.69
264.787	-37.72
265.004	33.96
265.22	17.58
265.436	-13.14
265.652	36.01
265.868	15.53
266.084	-4.95
266.3	5.29
266.516	13.48
266.732	15.53
266.948	81.07
267.164	27.82
267.38	17.58
267.596	66.73
267.812	48.3
268.028	93.35
268.244	-7
268.46	-4.95
268.676	1.19
268.892	38.06
269.108	-2.9
269.324	27.82
269.54	-21.33
269.756	38.06
269.972	-29.52
270.188	50.35
270.403	-37.72
270.619	50.35
270.835	-0.85
271.051	13.48
271.267	56.49
271.483	27.82
271.698	-11.09
271.914	50.35
272.13	68.78
272.346	29.87
272.562	38.06
272.777	11.43
272.993	33.96
273.209	-13.14
273.425	19.63
273.64	21.67
273.856	-39.76
274.072	13.48
274.287	25.77
274.503	9.39
274.719	3.24
274.934	25.77
275.15	-25.43
275.366	60.59
275.581	23.72
275.797	58.54
276.012	29.87
276.228	93.35
276.444	44.2
276.659	-17.24
276.875	17.58
277.09	17.58
277.306	42.15
277.521	-33.62
277.737	40.11
277.952	13.48
278.168	58.54
278.383	33.96
278.599	-78.68
278.814	-4.95
279.03	44.2
279.245	103.59
279.461	-39.76
279.676	44.2
279.892	-39.76
280.107	56.49
280.322	21.67
280.538	85.16
280.753	-4.95
280.969	31.91
281.184	40.11
281.399	48.3
281.615	42.15
281.83	-0.85
282.045	-7
282.26	33.96
282.476	17.58
282.691	-9.05
282.906	56.49
283.122	3.24
283.337	36.01
283.552	-43.86
283.767	44.2
283.983	103.59
284.198	-17.24
284.413	-27.48
284.628	68.78
284.843	38.06
285.058	44.2
285.274	31.91
285.489	-74.58
285.704	33.96
285.919	44.2
286.134	-23.38
286.349	27.82
286.564	21.67
286.779	36.01
286.995	7.34
287.21	17.58
287.425	13.48
287.64	19.63
287.855	40.11
288.07	-0.85
288.285	46.25
288.5	27.82
288.715	66.73
288.93	15.53
289.145	36.01
289.36	11.43
289.575	17.58
289.79	-2.9
290.004	-43.86
290.219	21.67
290.434	42.15
290.649	-9.05
290.864	-41.81
291.079	15.53
291.294	-27.48
291.509	50.35
291.724	-7
291.938	-29.52
292.153	-4.95
292.368	27.82
292.583	72.87
292.798	109.74
293.012	60.59
293.227	91.31
293.442	42.15
293.657	-19.29
293.871	48.3
294.086	-2.9
294.301	15.53
294.516	36.01
294.73	33.96
294.945	-21.33
295.16	-29.52
295.374	33.96
295.589	40.11
295.804	52.39
296.018	31.91
296.233	17.58
296.447	44.2
296.662	11.43
296.877	21.67
297.091	52.39
297.306	91.31
297.52	-78.68
297.735	31.91
297.949	-13.14
298.164	36.01
298.378	81.07
298.593	-45.91
298.807	72.87
299.022	21.67
299.236	7.34
299.451	-11.09
299.665	-50
299.88	60.59
300.094	62.63
300.309	46.25
300.523	3.24
300.737	-45.91
300.952	-33.62
301.166	36.01
301.381	-15.19
301.595	-19.29
301.809	17.58
302.024	23.72
302.238	3.24
302.452	117.93
302.667	-4.95
302.881	99.5
303.095	27.82
303.309	-2.9
303.524	5.29
303.738	-17.24
303.952	31.91
304.166	15.53
304.381	-11.09
304.595	68.78
304.809	17.58
305.023	-7
305.237	33.96
305.452	-7
305.666	-19.29
305.88	42.15
306.094	66.73
306.308	74.92
306.522	46.25
306.736	68.78
306.95	15.53
307.164	-7
307.379	25.77
307.593	31.91
307.807	31.91
308.021	62.63
308.235	36.01
308.449	-37.72
308.663	1.19
308.877	36.01
309.091	-13.14
309.305	-37.72
309.519	13.48
309.733	1.19
309.947	-27.48
310.161	27.82
310.374	21.67
310.588	31.91
310.802	-2.9
311.016	13.48
311.23	42.15
311.444	111.78
311.658	79.02
311.872	-9.05
312.085	7.34
312.299	-31.57
312.513	23.72
312.727	3.24
312.941	60.59
313.154	48.3
313.368	-2.9
313.582	13.48
313.796	-4.95
314.009	-2.9
314.223	46.25
314.437	60.59
314.651	27.82
314.864	29.87
315.078	23.72
315.292	27.82
315.505	15.53
315.719	9.39
315.933	19.63
316.146	33.96
316.36	36.01
316.573	124.07
316.787	-7
317.001	13.48
317.214	54.44
317.428	83.11
317.641	25.77
317.855	36.01
318.068	46.25
318.282	42.15
318.495	64.68
318.709	-4.95
318.922	81.07
319.136	74.92
319.349	-23.38
319.563	-17.24
319.776	52.39
319.99	-23.38
320.203	-31.57
320.417	52.39
320.63	38.06
320.843	76.97
321.057	58.54
321.27	1.19
321.483	3.24
321.697	103.59
321.91	-4.95
322.124	40.11
322.337	36.01
322.55	-11.09
322.763	15.53
322.977	38.06
323.19	-17.24
323.403	64.68
323.617	48.3
323.83	56.49
324.043	103.59
324.256	66.73
324.469	-21.33
324.683	46.25
324.896	-21.33
325.109	111.78
325.322	68.78
325.535	66.73
325.748	29.87
325.962	76.97
326.175	36.01
326.388	44.2
326.601	19.63
326.814	66.73
327.027	27.82
327.24	64.68
327.453	27.82
327.666	-7
327.879	52.39
328.092	9.39
328.305	15.53
328.518	70.83
328.731	1.19
328.944	62.63
329.157	25.77
329.37	60.59
329.583	60.59
329.796	72.87
330.009	-9.05
330.222	19.63
330.435	-13.14
330.648	17.58
330.861	44.2
331.073	62.63
331.286	70.83
331.499	19.63
331.712	52.39
331.925	101.55
332.138	19.63
332.35	17.58
332.563	52.39
332.776	85.16
332.989	-45.91
333.202	-0.85
333.414	25.77
333.627	42.15
333.84	-25.43
334.053	-19.29
334.265	-45.91
334.478	66.73
334.691	64.68
334.903	3.24
335.116	64.68
335.329	-9.05
335.541	-2.9
335.754	21.67
335.966	54.44
336.179	-39.76
336.392	-9.05
336.604	1.19
336.817	-4.95
337.029	91.31
337.242	-7
337.454	46.25
337.667	81.07
337.88	27.82
338.092	23.72
338.305	-25.43
338.517	60.59
338.729	-31.57
338.942	46.25
339.154	-52.05
339.367	-41.81
339.579	23.72
339.792	21.67
340.004	134.31
340.217	54.44
340.429	31.91
340.641	9.39
340.854	50.35
341.066	27.82
341.278	-4.95
341.491	3.24
341.703	-29.52
341.915	19.63
342.128	50.35
342.34	-39.76
342.552	7.34
342.764	17.58
342.977	-4.95
343.189	3.24
343.401	44.2
343.613	40.11
343.826	36.01
344.038	36.01
344.25	58.54
344.462	31.91
344.674	7.34
344.886	52.39
345.099	25.77
345.311	36.01
345.523	31.91
345.735	3.24
345.947	42.15
346.159	42.15
346.371	29.87
346.583	64.68
346.795	68.78
347.007	-17.24
347.219	48.3
347.431	48.3
347.643	-23.38
347.855	76.97
348.067	44.2
348.279	46.25
348.491	-9.05
348.703	7.34
348.915	-25.43
349.127	-4.95
349.339	122.02
349.551	-4.95
349.763	119.98
349.975	-47.96
350.187	46.25
350.399	44.2
350.61	11.43
350.822	-0.85
351.034	31.91
351.246	62.63
351.458	29.87
351.669	17.58
351.881	1.19
352.093	101.55
352.305	21.67
352.517	1.19
352.728	27.82
352.94	25.77
353.152	-13.14
353.363	15.53
353.575	27.82
353.787	31.91
353.999	83.11
354.21	5.29
354.422	-9.05
354.633	91.31
354.845	15.53
355.057	85.16
355.268	89.26
355.48	-15.19
355.692	85.16
355.903	33.96
356.115	130.22
356.326	17.58
356.538	60.59
356.749	1.19
356.961	68.78
357.172	38.06
357.384	27.82
357.595	126.12
357.807	33.96
358.018	21.67
358.23	76.97
358.441	29.87
358.653	48.3
358.864	9.39
359.075	105.64
359.287	19.63
359.498	-33.62
359.709	50.35
359.921	-27.48
360.132	33.96
360.344	-2.9
360.555	-31.57
360.766	-15.19
360.977	-33.62
361.189	-7
361.4	36.01
361.611	85.16
361.823	5.29
362.034	13.48
362.245	-4.95
362.456	9.39
362.667	40.11
362.879	-54.1
363.09	27.82
363.301	64.68
363.512	29.87
363.723	97.45
363.935	-2.9
364.146	21.67
364.357	31.91
364.568	46.25
364.779	-47.96
364.99	21.67
365.201	25.77
365.412	52.39
365.623	-64.34
365.834	23.72
366.045	44.2
366.256	1.19
366.467	79.02
366.678	81.07
366.889	3.24
367.1	-11.09
367.311	31.91
367.522	27.82
367.733	46.25
367.944	48.3
368.155	144.55
368.366	99.5
368.577	56.49
368.788	64.68
368.999	5.29
369.209	1.19
369.42	42.15
369.631	107.69
369.842	40.11
370.053	31.91
370.264	36.01
370.474	44.2
370.685	83.11
370.896	27.82
371.107	13.48
371.317	122.02
371.528	9.39
371.739	93.35
371.95	7.34
372.16	7.34
372.371	33.96
372.582	101.55
372.792	19.63
373.003	58.54
373.214	17.58
373.424	64.68
373.635	44.2
373.846	97.45
374.056	-2.9
374.267	76.97
374.477	50.35
374.688	9.39
374.898	52.39
375.109	15.53
375.319	31.91
375.53	81.07
375.74	-7
375.951	36.01
376.161	50.35
376.372	74.92
376.582	15.53
376.793	21.67
377.003	36.01
377.214	9.39
377.424	15.53
377.635	68.78
377.845	27.82
378.055	83.11
378.266	44.2
378.476	138.41
378.686	33.96
378.897	21.67
379.107	44.2
379.317	70.83
379.528	-2.9
379.738	31.91
379.948	79.02
380.158	23.72
380.369	15.53
380.579	33.96
380.789	56.49
380.999	62.63
381.21	46.25
381.42	142.5
381.63	-13.14
381.84	101.55
382.05	66.73
382.261	99.5
382.471	58.54
382.681	21.67
382.891	81.07
383.101	42.15
383.311	44.2
383.521	76.97
383.731	87.21
383.941	31.91
384.151	-0.85
384.361	17.58
384.571	27.82
384.781	42.15
384.991	62.63
385.201	105.64
385.411	19.63
385.621	72.87
385.831	85.16
386.041	74.92
386.251	42.15
386.461	79.02
386.671	15.53
386.881	81.07
387.091	89.26
387.301	38.06
387.511	93.35
387.72	68.78
387.93	25.77
388.14	38.06
388.35	29.87
388.56	-13.14
388.769	11.43
388.979	74.92
389.189	44.2
389.399	40.11
389.609	115.88
389.818	40.11
390.028	23.72
390.238	-7
390.447	42.15
390.657	87.21
390.867	17.58
391.076	52.39
391.286	-9.05
391.496	62.63
391.705	9.39
391.915	-7
392.125	52.39
392.334	85.16
392.544	81.07
392.753	-21.33
392.963	13.48
393.172	111.78
393.382	19.63
393.591	109.74
393.801	87.21
394.01	89.26
394.22	99.5
394.429	89.26
394.639	87.21
394.848	38.06
395.058	165.03
395.267	21.67
395.477	138.41
395.686	76.97
395.895	83.11
396.105	70.83
396.314	-17.24
396.524	70.83
396.733	58.54
396.942	146.6
397.152	101.55
397.361	40.11
397.57	144.55
397.78	124.07
397.989	76.97
398.198	107.69
398.407	36.01
398.617	36.01
398.826	76.97
399.035	93.35
399.244	83.11
399.453	105.64
399.663	122.02
399.872	179.37
400.081	122.02
400.29	97.45
400.499	111.78
400.708	138.41
400.917	64.68
401.127	7.34
401.336	93.35
401.545	101.55
401.754	107.69
401.963	185.51
402.172	124.07
402.381	60.59
402.59	93.35
402.799	122.02
403.008	74.92
403.217	128.17
403.426	181.42
403.635	72.87
403.844	148.65
404.053	74.92
404.262	142.5
404.471	142.5
404.68	99.5
404.888	111.78
405.097	181.42
405.306	154.79
405.515	130.22
405.724	142.5
405.933	113.83
406.142	212.14
406.35	220.33
406.559	132.26
406.768	195.75
406.977	177.32
407.185	222.38
407.394	205.99
407.603	146.6
407.812	173.22
408.02	169.13
408.229	232.62
408.438	203.94
408.646	199.85
408.855	281.77
409.064	306.34
409.272	238.76
409.481	292.01
409.69	269.48
409.898	320.68
410.107	337.06
410.315	289.96
410.524	339.11
410.733	382.12
410.941	316.58
411.15	355.49
411.358	330.92
411.567	390.31
411.775	373.92
411.984	373.92
412.192	402.6
412.401	335.01
412.609	453.8
412.818	513.19
413.026	492.71
413.234	507.04
413.443	537.76
413.651	488.61
413.86	631.97
414.068	703.65
414.276	605.35
414.485	617.63
414.693	562.34
414.901	699.55
415.11	685.22
415.318	701.6
415.526	707.74
415.734	715.94
415.943	730.27
416.151	808.09
416.359	773.28
416.567	812.19
416.776	904.35
416.984	1096.86
417.192	947.36
417.4	1019.04
417.608	1025.18
417.817	959.64
418.025	1111.19
418.233	1121.43
418.441	1080.47
418.649	1205.4
418.857	1346.71
419.065	1289.37
419.273	1123.48
419.481	1330.33
419.689	1369.24
419.897	1614.99
420.105	1477.78
420.313	1598.61
420.521	1676.43
420.729	1627.28
420.937	1686.67
421.145	1795.22
421.353	1827.98
421.561	1903.76
421.769	1895.57
421.977	2133.13
422.185	2092.17
422.393	2276.49
422.601	2382.98
422.809	2313.35
423.017	2268.3
423.224	2399.37
423.432	2491.52
423.64	2561.16
423.848	2718.85
424.056	2632.83
424.263	2952.32
424.471	2911.36
424.679	3013.76
424.887	3177.59
425.094	3069.05
425.302	3148.92
425.51	3337.34
425.718	3417.21
425.925	3507.32
426.133	3595.38
426.341	3751.03
426.548	3869.81
426.756	4004.97
426.964	4060.27
427.171	4359.27
427.379	4428.9
427.586	4373.61
427.794	4447.33
428.001	4588.64
428.209	5129.31
428.417	4988
428.624	5381.21
428.832	5317.72
429.039	5233.75
429.247	5370.97
429.454	5805.14
429.662	6110.29
429.869	5786.71
430.076	6267.98
430.284	5749.84
430.491	6325.32
430.699	6583.37
430.906	6683.72
431.114	6630.47
431.321	7085.12
431.528	7048.26
431.736	7515.19
431.943	7926.83
432.15	7781.43
432.358	7629.88
432.565	8082.48
432.772	7916.59
432.979	8608.81
433.187	8698.92
433.394	8743.97
433.601	9221.15
433.808	9272.35
434.016	9432.09
434.223	9657.37
434.43	10298.38
434.637	10066.96
434.844	10736.65
435.052	11131.9
435.259	11015.17
435.466	10994.69
435.673	10765.32
435.88	11586.55
436.087	12102.64
436.294	12008.44
436.501	11852.79
436.708	12252.14
436.915	12704.74
437.122	13110.24
437.329	13255.65
437.537	13556.7
437.743	13904.85
437.95	13339.62
438.157	14373.84
438.364	14926.79
438.571	14973.89
438.778	14883.78
438.985	16421.81
439.192	15576
439.399	15881.14
439.606	15825.85
439.813	16587.69
440.02	17482.66
440.227	17294.24
440.433	17490.85
440.64	17990.55
440.847	17714.08
441.054	17855.39
441.261	19192.71
441.467	19166.09
441.674	19381.12
441.881	20368.24
442.088	19946.36
442.294	20151.16
442.501	20577.14
442.708	20896.62
442.914	21959.52
443.121	22586.19
443.328	22016.86
443.534	23534.4
443.741	23010.12
443.948	22653.78
444.154	24286.01
444.361	24138.55
444.568	24609.59
444.774	24568.63
444.981	24816.43
445.187	25537.32
445.394	26401.56
445.6	26071.84
445.807	28490.49
446.013	27499.27
446.22	27972.35
446.426	29088.49
446.633	29367.02
446.839	30280.41
447.046	29133.55
447.252	30434.01
447.459	30806.74
447.665	31146.7
447.871	32121.54
448.078	33436.33
448.284	31599.3
448.491	32690.87
448.697	33745.58
448.903	34392.73
449.11	34532
449.316	33995.43
449.522	34529.95
449.728	35502.73
449.935	35793.54
450.141	35910.28
450.347	36932.22
450.553	35527.31
450.76	35787.4
450.966	37319.28
451.172	36987.51
451.378	37653.1
451.584	37030.52
451.791	37950.06
451.997	37565.04
452.203	38328.93
452.409	38615.65
452.615	37966.44
452.821	37038.71
453.027	36518.53
453.233	38322.79
453.44	36995.7
453.646	37317.23
453.852	37380.72
454.058	38177.38
454.264	36969.08
454.47	37491.31
454.676	36469.37
454.882	38201.96
455.088	34828.95
455.294	35449.49
455.5	35936.9
455.705	35637.9
455.911	34695.83
456.117	33749.67
456.323	33788.58
456.529	31464.14
456.735	33338.03
456.941	32627.38
457.147	31703.75
457.352	30800.6
457.558	30335.71
457.764	30724.82
457.97	29979.36
458.176	29612.77
458.381	29600.49
458.587	27636.48
458.793	27935.49
458.999	26463
459.204	28457.72
459.41	27491.08
459.616	25889.57
459.821	25959.2
460.027	26055.45
460.233	25234.22
460.438	23900.99
460.644	24167.23
460.85	23243.59
461.055	22881.1
461.261	22891.34
461.466	21117.8
461.672	20507.51
461.878	21850.97
462.083	20474.74
462.289	20142.97
462.494	19884.92
462.7	19372.93
462.905	18377.62
463.111	18910.09
463.316	19211.14
463.522	18785.16
463.727	18783.12
463.932	18740.11
464.138	18506.64
464.343	18430.87
464.549	18369.43
464.754	18674.57
464.959	18439.06
465.165	18385.81
465.37	17511.33
465.575	17181.6
465.781	17933.21
465.986	17847.19
466.191	17036.2
466.397	17077.16
466.602	16186.29
466.807	16714.67
467.012	16905.13
467.218	16743.34
467.423	16475.06
467.628	16456.62
467.833	17163.17
468.038	16774.06
468.244	16303.03
468.449	16898.98
468.654	16307.12
468.859	16233.39
469.064	15987.64
469.269	15483.84
469.474	15571.9
469.679	15877.05
469.885	15369.15
470.09	15655.87
470.295	15539.13
470.5	14941.13
470.705	15350.72
470.91	15051.72
471.115	14781.39
471.32	15186.88
471.525	14689.23
471.73	14521.29
471.935	14339.02
472.139	14058.45
472.344	14273.49
472.549	14107.6
472.754	14031.83
472.959	13777.88
473.164	13384.67
473.369	13143.01
473.574	13495.26
473.778	13556.7
473.983	13290.46
474.188	13317.09
474.393	12862.44
474.598	12645.35
474.802	12702.7
475.007	12692.46
475.212	12700.65
475.417	12104.69
475.621	12119.03
475.826	12037.11
476.031	11891.7
476.235	11764.73
476.44	11992.05
476.645	11772.92
476.849	11781.11
477.054	11658.23
477.259	11572.22
477.463	11242.5
477.668	11095.04
477.872	11103.23
478.077	10935.3
478.282	10697.74
478.486	10910.72
478.691	10824.71
478.895	10497.03
479.1	10542.09
479.304	10451.98
479.509	10339.34
479.713	10376.2
479.918	10210.32
480.122	10099.73
480.326	10337.29
480.531	9987.09
480.735	10126.35
480.94	9901.08
481.144	10249.23
481.348	9770.01
481.553	9954.32
481.757	9831.44
481.961	9946.13
482.166	9866.26
482.37	9937.94
482.574	9450.52
482.778	9751.57
482.983	9849.88
483.187	9718.81
483.391	9798.68
483.595	9761.81
483.8	9616.41
484.004	9667.61
484.208	9942.03
484.412	9790.49
484.616	9690.13
484.821	9782.29
485.025	9634.84
485.229	9747.48
485.433	9735.19
485.637	9643.03
485.841	9514.01
486.045	9661.46
486.249	9913.36
486.453	9692.18
486.657	9552.92
486.861	9653.27
487.065	9548.82
487.269	9544.73
487.473	9471
487.677	9796.63
487.881	9591.83
488.085	9786.39
488.289	10054.67
488.493	9595.93
488.697	9948.18
488.901	9620.5
489.105	9925.65
489.309	9677.85
489.512	9751.57
489.716	9960.47
489.92	9776.15
490.124	9710.61
490.328	10109.97
490.531	10118.16
490.735	10189.84
490.939	10187.79
491.143	9911.32
491.346	10058.77
491.55	10302.48
491.754	10183.7
491.958	10195.98
492.161	10157.07
492.365	10200.08
492.569	10406.92
492.772	10247.18
492.976	10466.31
493.18	10337.29
493.383	10525.71
493.587	10720.26
493.79	10675.21
493.994	10615.82
494.197	10888.2
494.401	10978.31
494.605	10822.66
494.808	11029.51
495.012	11142.14
495.215	11095.04
495.419	10980.36
495.622	11176.96
495.825	11205.63
496.029	11373.57
496.232	11719.67
496.436	11643.9
496.639	11777.01
496.843	11889.65
497.046	12084.21
497.249	12084.21
497.453	12065.78
497.656	12094.45
497.859	12516.33
498.063	12669.93
498.266	12399.6
498.469	12891.11
498.673	12942.31
498.876	12764.14
499.079	13102.05
499.282	13081.57
499.485	13356
499.689	13423.58
499.892	13706.2
500.095	13472.73
500.298	14115.8
500.501	13956.05
500.705	14406.61
500.908	14584.78
501.111	14570.44
501.314	14705.61
501.517	14824.39
501.72	15025.09
501.923	14803.91
502.126	15592.38
502.329	15602.62
502.532	15782.84
502.735	15481.79
502.938	15893.43
503.141	16276.4
503.344	16067.51
503.547	16366.51
503.75	16565.17
503.953	17054.63
504.156	17286.05
504.359	17255.33
504.562	17085.35
504.765	17568.67
504.968	17798.04
505.17	17955.74
505.373	17910.68
505.576	18412.43
505.779	18451.35
505.982	18916.23
506.185	19063.69
506.387	19213.19
506.59	19205
506.793	19487.62
506.996	19512.19
507.198	19936.12
507.401	20136.82
507.604	20204.41
507.807	20413.3
508.009	20505.46
508.212	20988.78
508.415	21224.29
508.617	21267.3
508.82	21586.79
509.022	21746.53
509.225	21822.3
509.428	22082.39
509.63	21996.38
509.833	22451.03
510.035	23085.9
510.238	22866.77
510.44	22905.68
510.643	23583.55
510.845	23595.84
511.048	23563.08
511.25	24161.08
511.453	23984.96
511.655	24834.86
511.858	24390.45
512.06	24576.82
512.262	24933.17
512.465	25035.56
512.667	25426.73
512.87	25482.02
513.072	25764.64
513.274	26458.9
513.477	26293.02
513.679	26823.44
513.881	27050.77
514.084	27366.15
514.286	27038.48
514.488	27669.25
514.69	28201.72
514.893	28029.69
515.095	28338.94
515.297	28898.03
515.499	28609.27
515.701	28889.84
515.904	29520.62
516.106	29428.46
516.308	29860.58
516.51	29999.84
516.712	29879.01
516.914	30520.02
517.116	31115.98
517.318	30872.28
517.52	31150.8
517.722	31691.46
517.925	31935.17
518.127	31961.79
518.329	32012.99
518.531	32301.76
518.733	32645.82
518.935	32903.86
519.136	32957.11
519.338	33370.8
519.54	33335.98
519.742	34026.15
519.944	33671.85
520.146	34462.36
520.348	34527.9
520.55	34589.34
520.752	34824.86
520.954	35519.12
521.155	34986.64
521.357	35803.78
521.559	35691.15
521.761	36121.22
521.963	36522.62
522.164	36686.46
522.366	36680.31
522.568	37237.36
522.77	37151.35
522.971	37782.12
523.173	37298.8
523.375	37970.54
523.576	37704.3
523.778	37737.07
523.98	38023.78
524.181	38402.66
524.383	38335.07
524.584	38779.48
524.786	38716
524.988	38824.54
525.189	39117.4
525.391	39508.56
525.592	39250.52
525.794	39674.45
525.995	39748.17
526.197	39531.09
526.398	39727.69
526.6	40473.15
526.801	40292.93
527.003	40911.42
527.204	40776.25
527.406	40946.23
527.607	40847.93
527.808	41206.33
528.01	40555.07
528.211	40952.38
528.412	41654.83
528.614	41515.57
528.815	41570.86
529.016	41996.84
529.218	41388.6
529.419	41490.99
529.62	41763.37
529.822	41833
530.023	41708.08
530.224	41648.69
530.425	41953.83
530.626	41802.28
530.828	41785.9
531.029	42517.03
531.23	41941.55
531.431	42105.38
531.632	42080.81
531.833	42783.26
532.035	42185.25
532.236	42557.99
532.437	42596.9
532.638	42287.65
532.839	42304.04
533.04	42983.96
533.241	42426.92
533.442	43022.87
533.643	42684.96
533.844	42625.57
534.045	42662.43
534.246	42631.71
534.447	43205.14
534.648	42455.59
534.849	42660.38
535.05	42119.72
535.251	42709.53
535.451	42422.82
535.652	43014.68
535.853	42740.25
536.054	42570.27
536.255	42777.12
536.456	42570.27
536.657	43256.34
536.857	42639.9
537.058	42996.25
537.259	42697.25
537.46	42611.23
537.66	42656.29
537.861	42519.07
538.062	42519.07
538.263	43076.12
538.463	42205.73
538.664	42852.89
538.865	42682.91
539.065	42766.88
539.266	42172.97
539.466	43045.4
539.667	42201.64
539.868	42943
540.068	42930.72
540.269	42693.15
540.469	42670.62
540.67	42500.64
540.87	42875.42
541.071	42816.03
541.271	42848.8
541.472	42666.53
541.672	42582.56
541.873	42699.3
542.073	42013.23
542.274	42666.53
542.474	42428.96
542.675	42017.32
542.875	42752.54
543.075	42586.66
543.276	42379.81
543.476	42615.33
543.676	42250.79
543.877	42463.78
544.077	42500.64
544.277	42291.75
544.478	42400.29
544.678	42064.42
544.878	42326.56
545.078	42514.98
545.279	42156.58
545.479	42471.97
545.679	42433.06
545.879	42416.68
546.079	42267.17
546.28	42089
546.48	41767.47
546.68	42557.99
546.88	42285.61
547.08	42474.02
547.28	42502.69
547.48	41884.2
547.68	42148.39
547.88	42215.97
548.081	42107.43
548.281	42142.25
548.481	42099.24
548.681	42562.08
548.881	42062.38
549.081	42162.73
549.28	42000.94
549.48	42086.95
549.68	42086.95
549.88	42441.25
550.08	41783.85
550.28	42392.1
550.48	41992.75
550.68	42353.19
550.88	41742.89
551.08	42064.42
551.279	42111.53
551.479	41642.54
551.679	42119.72
551.879	41710.13
552.079	42172.97
552.278	41652.78
552.478	42191.4
552.678	42033.71
552.878	42177.06
553.077	42258.98
553.277	41703.98
553.477	42197.54
553.676	41593.39
553.876	41765.42
554.076	41581.1
554.275	41523.76
554.475	41394.74
554.674	41726.51
554.874	41669.17
555.074	41585.2
555.273	41665.07
555.473	41636.4
555.672	41257.53
555.872	41349.68
556.071	41685.55
556.271	41579.06
556.47	41329.2
556.67	41015.86
556.869	41196.09
557.068	41361.97
557.268	41146.93
557.467	41267.76
557.667	40880.7
557.866	41456.18
558.065	40823.36
558.265	40866.36
558.464	40790.59
558.663	41007.67
558.863	40587.84
559.062	41597.49
559.261	40536.64
559.461	40979
559.66	40262.21
559.859	40755.77
560.058	40317.51
560.258	40440.39
560.457	40665.66
560.656	40374.85
560.855	40419.91
561.054	40784.44
561.253	40270.4
561.453	40483.39
561.652	40313.41
561.851	40542.78
562.05	40016.46
562.249	40090.18
562.448	40268.36
562.647	40135.24
562.846	40147.53
563.045	39871.05
563.244	39625.29
563.443	40057.42
563.642	39488.08
563.841	39588.43
564.04	39617.1
564.239	39490.13
564.438	39248.47
564.637	40026.7
564.836	39465.55
565.035	39461.46
565.234	39461.46
565.432	39219.8
565.631	39205.46
565.83	39176.79
566.029	39180.88
566.228	38685.28
566.427	38961.75
566.625	39080.53
566.824	38347.36
567.023	38726.24
567.222	38228.58
567.42	38705.76
567.619	38314.59
567.818	38396.51
568.016	38238.82
568.215	38664.8
568.414	38468.19
568.612	38847.07
568.811	37855.85
569.01	38191.72
569.208	37796.46
569.407	37966.44
569.605	37730.92
569.804	38218.34
570.002	37243.51
570.201	38085.22
570.4	37714.54
570.598	37505.65
570.797	37161.59
570.995	37792.36
571.193	36891.26
571.392	37597.8
571.59	37249.65
571.789	37272.18
571.987	37128.82
572.186	36999.8
572.384	36829.82
572.582	37071.48
572.781	36813.43
572.979	36534.91
573.177	36625.02
573.376	36751.99
573.574	36582.01
573.772	36874.87
573.971	36485.76
574.169	36004.49
574.367	36514.43
574.565	36471.42
574.763	36039.3
574.962	35791.5
575.16	35711.63
575.358	35932.81
575.556	35353.23
575.754	36129.41
575.952	35728.01
576.151	35744.39
576.349	35603.08
576.547	35418.77
576.745	35222.16
576.943	35533.45
577.141	35261.07
577.339	35173.01
577.537	34937.49
577.735	35396.24
577.933	34421.41
578.131	35207.83
578.329	34718.36
578.527	34712.22
578.725	34704.03
578.923	34390.69
579.121	34196.13
579.319	34407.07
579.516	34357.92
579.714	34069.15
579.912	34189.98
580.11	34286.24
580.308	34093.73
580.506	33983.14
580.704	33186.48
580.901	33866.41
581.099	33993.38
581.297	33641.13
581.495	33524.4
581.692	33591.98
581.89	33059.51
582.088	33530.54
582.285	33120.95
582.483	33399.47
582.681	33069.75
582.878	33063.6
583.076	33022.64
583.274	32883.38
583.471	32776.89
583.669	32621.24
583.866	32524.99
584.064	32635.58
584.262	32125.63
584.459	32314.05
584.657	32449.21
584.854	32623.29
585.052	31759.05
585.249	32092.86
585.447	31935.17
585.644	31744.71
585.841	31818.44
586.039	31998.66
586.236	31613.64
586.434	31584.97
586.631	31660.74
586.828	31521.48
587.026	31380.17
587.223	31488.71
587.42	31279.82
587.618	31312.59
587.815	31099.6
588.012	30843.6
588.21	30997.2
588.407	31158.99
588.604	30880.47
588.801	30577.37
588.999	30513.88
589.196	30632.66
589.393	30599.9
589.59	30513.88
589.787	30237.41
589.984	30214.88
590.182	29829.86
590.379	30106.34
590.576	30188.25
590.773	29922.02
590.97	29586.15
591.167	29762.28
591.364	29139.69
591.561	29874.91
591.758	29258.48
591.955	29293.29
592.152	29348.59
592.349	28914.42
592.546	29209.32
592.743	29070.06
592.94	29233.9
593.137	28893.94
593.334	28826.35
593.531	28519.16
593.727	28904.18
593.924	28330.75
594.121	28574.45
594.318	28510.97
594.515	28308.22
594.712	28513.02
594.908	28353.27
595.105	28017.41
595.302	27921.15
595.499	28179.2
595.696	28015.36
595.892	27509.51
596.089	28017.41
596.286	27919.1
596.482	27570.95
596.679	27523.85
596.876	27290.38
597.072	27568.9
597.269	27302.67
597.466	27208.46
597.662	27147.02
597.859	27222.8
598.055	27114.25
598.252	26987.28
598.448	26977.04
598.645	26551.06
598.841	26546.97
599.038	26479.38
599.234	26456.85
599.431	26315.55
599.627	26159.9
599.824	26432.28
600.02	26278.68
600.217	26188.57
600.413	26059.55
600.609	25959.2
600.806	26051.36
601.002	26178.33
601.198	26067.74
601.395	25563.94
601.591	25711.39
601.787	25516.84
601.984	25156.39
602.18	25912.1
602.376	25068.33
602.572	24996.65
602.769	25097
602.965	24906.54
603.161	25068.33
603.357	24607.54
603.553	24922.93
603.75	24730.42
603.946	24734.51
604.142	24832.82
604.338	24255.29
604.534	24636.21
604.73	24116.03
604.926	24349.5
605.122	24494.9
605.318	24189.75
605.514	23774.02
605.71	23984.96
605.906	23825.22
606.102	23913.28
606.298	23868.22
606.494	23675.71
606.69	23960.38
606.886	23845.69
607.082	23536.45
607.278	23984.96
607.474	23403.33
607.67	23896.89
607.866	23053.13
608.062	23626.56
608.257	23257.93
608.453	23442.24
608.649	23485.25
608.845	23006.03
609.041	23171.91
609.236	23104.33
609.432	23020.36
609.628	23016.27
609.824	22704.98
610.019	22735.7
610.215	22719.31
610.411	22756.18
610.606	22561.62
610.802	23024.46
610.998	22987.6
611.193	22541.14
611.389	22541.14
611.584	22420.31
611.78	22537.04
611.976	22553.43
612.171	22385.49
612.367	22315.86
612.562	22184.79
612.758	21955.42
612.953	22307.67
613.149	22391.64
613.344	22147.93
613.539	22291.29
613.735	21879.64
613.93	22313.81
614.126	21842.78
614.321	22274.9
614.517	21885.79
614.712	21762.91
614.907	21855.07
615.103	21736.29
615.298	21805.92
615.493	21922.65
615.688	21404.52
615.884	21893.98
616.079	21357.41
616.274	21506.91
616.47	21660.51
616.665	21746.53
616.86	21574.5
617.055	21574.5
617.25	21130.09
617.445	21187.43
617.641	21181.29
617.836	21287.78
618.031	21283.69
618.226	21252.97
618.421	20888.43
618.616	20804.46
618.811	20794.22
619.006	20976.49
619.201	20726.64
619.396	20769.65
619.591	20663.15
619.786	20753.26
619.981	20323.19
620.176	20530.03
620.371	20165.49
620.566	20083.58
620.761	20093.82
620.956	20190.07
621.151	19696.51
621.346	19815.29
621.541	19821.44
621.735	19983.23
621.93	19338.12
622.125	19569.54
622.32	19489.67
622.515	19340.16
622.709	19065.74
622.904	19211.14
623.099	18926.47
623.294	19205
623.488	18840.46
623.683	18834.32
623.878	18654.09
624.072	18484.11
624.267	18299.8
624.462	18205.59
624.656	18199.44
624.851	18236.31
625.046	18029.46
625.24	18123.67
625.435	17890.2
625.629	17963.93
625.824	17583.01
626.018	17593.25
626.213	17224.61
626.407	17241
626.602	16997.29
626.796	17406.88
626.991	17503.14
627.185	17226.66
627.38	16833.45
627.574	16837.55
627.768	16747.44
627.963	16772.01
628.157	16577.45
628.352	16731.05
628.546	16436.14
628.74	16364.46
628.935	16219.06
629.129	16397.23
629.323	15852.47
629.517	15692.73
629.712	15922.1
629.906	16155.57
630.1	15610.81
630.294	15698.88
630.489	15645.63
630.683	15528.89
630.877	15283.14
631.071	15389.63
631.265	15530.94
631.459	15137.73
631.653	15111.11
631.848	14793.67
632.042	14707.66
632.236	14961.61
632.43	14795.72
632.624	14699.47
632.818	14808.01
633.012	14357.46
633.206	14355.41
633.4	14312.4
633.594	14185.43
633.788	14298.06
633.982	14115.8
634.176	14248.91
634.369	14007.25
634.563	13972.44
634.757	14044.12
634.951	13847.51
635.145	13894.61
635.339	13659.1
635.533	13652.95
635.726	13638.62
635.92	13360.09
636.114	13642.71
636.308	13364.19
636.501	13421.53
636.695	13167.59
636.889	13239.26
637.083	12987.36
637.276	12930.02
637.47	12755.94
637.664	12913.64
637.857	12796.9
638.051	12807.14
638.244	12780.52
638.438	12661.74
638.632	12317.68
638.825	12413.93
639.019	12420.08
639.212	12227.57
639.406	12219.38
639.599	12164.08
639.793	12235.76
639.986	11918.32
640.18	12065.78
640.373	12051.44
640.567	11783.16
640.76	11830.26
640.954	11881.46
641.147	11695.1
641.34	11627.51
641.534	11740.15
641.727	11443.2
641.92	11377.66
642.114	11342.85
642.307	11330.56
642.5	11269.12
642.694	11240.45
642.887	11084.8
643.08	11355.13
643.273	11205.63
643.467	11232.26
643.66	10976.26
643.853	10789.89
644.046	10982.4
644.239	10837
644.432	10667.02
644.626	10650.63
644.819	10701.83
645.012	10447.88
645.205	10535.95
645.398	10355.72
645.591	10519.56
645.784	10195.98
645.977	10316.81
646.17	10290.19
646.363	10193.94
646.556	10105.87
646.749	9944.08
646.942	10097.68
647.135	9927.7
647.328	9921.56
647.521	9790.49
647.714	9831.44
647.907	9788.44
648.099	9659.42
648.292	9749.53
648.485	9708.57
648.678	9538.59
648.871	9509.91
649.064	9456.67
649.256	9255.97
649.449	9421.85
649.642	9327.64
649.835	9135.14
650.027	9372.7
650.22	9239.58
650.413	9077.79
650.605	9124.9
650.798	9010.21
650.991	8772.64
651.183	8901.67
651.376	8786.98
651.568	8735.78
651.761	8696.87
651.954	8528.94
652.146	8578.09
652.339	8846.37
652.531	8623.14
652.724	8625.19
652.916	8502.31
653.109	8535.08
653.301	8352.81
653.494	8289.32
653.686	8207.41
653.879	8234.03
654.071	8188.97
654.263	8217.65
654.456	8225.84
654.648	8139.82
654.84	8072.24
655.033	8039.47
655.225	7986.22
655.417	7816.24
655.61	7844.91
655.802	7832.63
655.994	7824.44
656.186	7738.42
656.379	7646.26
656.571	7722.04
656.763	7435.32
656.955	7578.68
657.148	7543.86
657.34	7445.56
657.532	7470.14
657.724	7425.08
657.916	7388.22
658.108	7226.43
658.3	7248.96
658.492	7412.79
658.684	7263.29
658.876	7377.98
659.068	7218.24
659.26	7085.12
659.452	7027.78
659.644	6986.82
659.836	7126.08
660.028	6925.38
660.22	6921.28
660.412	6884.42
660.604	6767.68
660.796	6892.61
660.988	6736.96
661.18	6675.52
661.372	6736.96
661.563	6718.53
661.755	6763.59
661.947	6566.98
662.139	6521.93
662.331	6554.69
662.522	6407.24
662.714	6397
662.906	6474.82
663.097	6358.09
663.289	6341.71
663.481	6229.07
663.673	6208.59
663.864	6130.77
664.056	6233.16
664.247	6157.39
664.439	6050.89
664.631	6112.33
664.822	5979.22
665.014	6007.89
665.205	6196.3
665.397	5880.91
665.588	6009.93
665.78	5925.97
665.971	5928.02
666.163	5747.79
666.354	5962.83
666.546	5766.23
666.737	5817.43
666.929	5696.6
667.12	5801.04
667.311	5702.74
667.503	5667.92
667.694	5598.29
667.885	5471.32
668.077	5669.97
668.268	5442.65
668.459	5526.61
668.651	5518.42
668.842	5467.22
669.033	5387.35
669.224	5456.98
669.416	5364.82
669.607	5327.96
669.798	5317.72
669.989	5336.15
670.18	5172.32
670.371	5276.76
670.563	5301.34
670.754	5297.24
670.945	5121.12
671.136	5164.12
671.327	5227.61
671.518	5069.92
671.709	5147.74
671.9	5160.03
672.091	5057.63
672.282	5037.15
672.473	5069.92
672.664	5147.74
672.855	5024.86
673.046	4981.85
673.237	5059.68
673.428	4803.68
673.619	4899.94
673.809	4963.42
674	4867.17
674.191	4811.87
674.382	4734.05
674.573	4951.14
674.764	4861.02
674.954	4711.52
675.145	4828.26
675.336	4781.15
675.527	4750.43
675.717	4682.85
675.908	4557.93
676.099	4482.15
676.289	4621.41
676.48	4703.33
676.671	4510.82
676.861	4674.66
677.052	4598.88
677.243	4494.44
677.433	4332.65
677.624	4883.55
677.814	4422.76
678.005	4504.68
678.195	4594.79
678.386	4375.66
678.576	4473.96
678.767	4308.07
678.957	4406.38
679.148	4402.28
679.338	4387.94
679.529	4473.96
679.719	4320.36
679.909	4519.01
680.1	4215.91
680.29	4338.79
680.481	4267.11
680.671	4340.84
680.861	4222.06
681.052	4258.92
681.242	4254.83
681.432	4285.55
681.622	4158.57
681.813	4234.35
682.003	4203.63
682.193	4183.15
682.383	4162.67
682.573	4181.1
682.764	4111.47
682.954	4123.76
683.144	4082.8
683.334	4148.33
683.524	3974.25
683.714	4037.74
683.904	4070.51
684.094	3972.21
684.284	4025.45
684.474	4097.13
684.664	3902.58
684.854	3939.44
685.044	4093.04
685.234	4033.65
685.424	4070.51
685.614	4054.12
685.804	3964.01
685.994	3898.48
686.184	3800.18
686.374	3964.01
686.564	3763.31
686.753	3884.14
686.943	3933.29
687.133	3878
687.323	3908.72
687.513	3853.42
687.702	3765.36
687.892	3820.66
688.082	3728.5
688.272	3785.84
688.461	3673.2
688.651	3796.08
688.841	3757.17
689.03	3671.15
689.22	3675.25
689.41	3632.24
689.599	3681.39
689.789	3634.29
689.979	3556.47
690.168	3460.21
690.358	3464.31
690.547	3540.08
690.737	3495.03
690.926	3409.01
691.116	3394.68
691.305	3425.4
691.495	3335.29
691.684	3460.21
691.874	3429.49
692.063	3327.1
692.252	3253.37
692.442	3333.24
692.631	3275.9
692.82	3187.83
693.01	3275.9
693.199	3234.94
693.388	3257.46
693.578	3189.88
693.767	3128.44
693.956	3179.64
694.146	3087.48
694.335	3112.06
694.524	3112.06
694.713	3050.62
694.902	3212.41
695.092	3148.92
695.281	2903.17
695.47	3144.83
695.659	3126.39
695.848	2821.25
696.037	3095.68
696.226	2995.32
696.415	2964.61
696.604	2991.23
696.793	2903.17
696.982	3013.76
697.171	3032.19
697.36	2985.09
697.549	2813.06
697.738	2761.86
697.927	2917.5
698.116	2915.45
698.305	2763.9
698.494	2874.49
698.683	2851.97
698.872	2888.83
699.061	2854.02
699.25	2792.58
699.438	2724.99
699.627	2780.29
699.816	2911.36
700.005	2681.99
700.193	2821.25
700.382	2778.24
700.571	2757.76
700.76	2679.94
700.948	2837.63
701.137	2831.49
701.326	2720.9
701.514	2718.85
701.703	2663.55
701.892	2706.56
702.08	2677.89
702.269	2542.72
702.457	2671.75
702.646	2686.08
702.834	2692.23
703.023	2573.44
703.212	2653.31
703.4	2765.95
703.589	2526.34
703.777	2618.5
703.965	2653.31
704.154	2598.02
704.342	2616.45
704.531	2567.3
704.719	2401.41
704.907	2585.73
705.096	2641.03
705.284	2616.45
705.472	2643.07
705.661	2643.07
705.849	2501.76
706.037	2526.34
706.226	2626.69
706.414	2514.05
706.602	2485.38
706.79	2481.28
706.979	2575.49
707.167	2520.2
707.355	2387.08
707.543	2442.37
707.731	2577.54
707.919	2499.72
708.107	2450.57
708.296	2509.96
708.484	2452.61
708.672	2444.42
708.86	2479.24
709.048	2516.1
709.236	2544.77
709.424	2442.37
709.612	2534.53
709.8	2577.54
709.988	2417.8
710.176	2573.44
710.364	2479.24
710.551	2409.61
710.739	2399.37
710.927	2495.62
711.115	2387.08
711.303	2501.76
711.491	2514.05
711.679	2505.86
711.866	2516.1
712.054	2585.73
712.242	2436.23
712.43	2593.92
712.617	2407.56
712.805	2382.98
712.993	2415.75
713.181	2391.17
713.368	2505.86
713.556	2501.76
713.744	2438.28
713.931	2405.51
714.119	2509.96
714.306	2450.57
714.494	2370.69
714.682	2387.08
714.869	2385.03
715.057	2458.76
715.244	2423.94
715.432	2444.42
715.619	2346.12
715.807	2352.26
715.994	2452.61
716.182	2368.65
716.369	2491.52
716.556	2403.46
716.744	2421.89
716.931	2362.5
717.119	2421.89
717.306	2399.37
717.493	2403.46
717.681	2407.56
717.868	2466.95
718.055	2411.65
718.242	2276.49
718.43	2389.13
718.617	2417.8
718.804	2378.89
718.991	2387.08
719.179	2452.61
719.366	2288.78
719.553	2278.54
719.74	2442.37
719.927	2411.65
720.114	2387.08
720.301	2413.7
720.488	2450.57
720.676	2366.6
720.863	2382.98
721.05	2565.25
721.237	2503.81
721.424	2382.98
721.611	2407.56
721.798	2374.79
721.985	2364.55
722.172	2253.96
722.358	2380.93
722.545	2376.84
722.732	2350.21
722.919	2458.76
723.106	2405.51
723.293	2421.89
723.48	2356.36
723.667	2362.5
723.853	2313.35
724.04	2456.71
724.227	2339.97
724.414	2313.35
724.6	2284.68
724.787	2270.34
724.974	2344.07
725.161	2450.57
725.347	2249.86
725.534	2278.54
725.72	2442.37
725.907	2368.65
726.094	2469
726.28	2342.02
726.467	2325.64
726.653	2409.61
726.84	2362.5
727.027	2425.99
727.213	2342.02
727.4	2405.51
727.586	2452.61
727.773	2360.45
727.959	2344.07
728.145	2286.73
728.332	2432.13
728.518	2421.89
728.705	2292.87
728.891	2321.54
729.077	2366.6
729.264	2469
729.45	2425.99
729.636	2378.89
729.823	2362.5
730.009	2288.78
730.195	2364.55
730.382	2296.97
730.568	2286.73
730.754	2397.32
730.94	2348.17
731.126	2419.85
731.313	2387.08
731.499	2319.5
731.685	2305.16
731.871	2419.85
732.057	2354.31
732.243	2335.88
732.429	2329.74
732.615	2352.26
732.801	2286.73
732.987	2331.78
733.173	2413.7
733.359	2411.65
733.545	2397.32
733.731	2354.31
733.917	2276.49
734.103	2331.78
734.289	2276.49
734.475	2217.1
734.661	2305.16
734.847	2296.97
735.033	2368.65
735.219	2247.82
735.404	2245.77
735.59	2231.43
735.776	2217.1
735.962	2204.81
736.148	2288.78
736.333	2364.55
736.519	2217.1
736.705	2286.73
736.89	2256.01
737.076	2225.29
737.262	2188.43
737.447	2192.52
737.633	2145.42
737.819	2098.31
738.004	2182.28
738.19	2215.05
738.375	2176.14
738.561	2282.63
738.747	2247.82
738.932	2155.66
739.118	2206.86
739.303	2174.09
739.489	2233.48
739.674	2202.76
739.859	2163.85
740.045	2208.9
740.23	2178.19
740.416	2051.21
740.601	2071.69
740.786	2122.89
740.972	2233.48
741.157	2129.03
741.342	2067.6
741.528	2096.27
741.713	2172.04
741.898	2018.44
742.084	2024.59
742.269	2094.22
742.454	2049.16
742.639	2124.94
742.824	2043.02
743.01	1981.58
743.195	2061.45
743.38	2051.21
743.565	1973.39
743.75	1981.58
743.935	2071.69
744.12	1952.91
744.305	1936.53
744.49	1889.42
744.675	2030.73
744.86	1961.1
745.045	2051.21
745.23	1879.18
745.415	2055.31
745.6	1975.44
745.785	1899.66
745.97	1907.85
746.155	1954.96
746.34	1891.47
746.525	1938.57
746.71	1846.41
746.895	1801.36
747.079	1887.37
747.264	1795.22
747.449	1846.41
747.634	1815.69
747.819	1854.61
748.003	1866.89
748.188	1737.87
748.373	1662.1
748.557	1719.44
748.742	1690.77
748.927	1713.3
749.111	1737.87
749.296	1721.49
749.481	1741.97
749.665	1719.44
749.85	1559.7
750.034	1619.09
750.219	1639.57
750.404	1631.38
750.588	1604.75
750.773	1553.55
750.957	1653.91
751.141	1565.84
751.326	1614.99
751.51	1526.93
751.695	1592.47
751.879	1576.08
752.064	1584.27
752.248	1551.51
752.432	1537.17
752.617	1549.46
752.801	1506.45
752.985	1526.93
753.17	1408.15
753.354	1383.57
753.538	1465.49
753.722	1541.27
753.907	1389.72
754.091	1510.55
754.275	1477.78
754.459	1375.38
754.643	1381.53
754.828	1406.1
755.012	1391.77
755.196	1338.52
755.38	1430.68
755.564	1352.85
755.748	1371.29
755.932	1424.53
756.116	1346.71
756.3	1254.55
756.484	1221.78
756.668	1260.7
756.852	1252.5
757.036	1342.61
757.22	1234.07
757.404	1322.13
757.588	1221.78
757.772	1311.89
757.956	1264.79
758.14	1258.65
758.323	1254.55
758.507	1223.83
758.691	1203.35
758.875	1236.12
759.059	1315.99
759.242	1143.96
759.426	1205.4
759.61	1221.78
759.794	1164.44
759.977	1172.63
760.161	1244.31
760.345	1272.98
760.528	1053.85
760.712	1180.82
760.895	1156.25
761.079	1125.53
761.263	1074.33
761.446	992.41
761.63	1092.76
761.813	1139.87
761.997	994.46
762.18	1019.04
762.364	1129.63
762.547	1049.75
762.731	1064.09
762.914	1027.23
763.098	1094.81
763.281	1049.75
763.464	1055.9
763.648	957.6
763.831	1123.48
764.015	1107.1
764.198	1010.84
764.381	1156.25
764.564	1068.19
764.748	1027.23
764.931	996.51
765.114	945.31
765.297	996.51
765.481	965.79
765.664	1010.84
765.847	1019.04
766.03	1051.8
766.213	1041.56
766.397	973.98
766.58	969.88
766.763	933.02
766.946	1019.04
767.129	871.58
767.312	935.07
767.495	894.11
767.678	928.92
767.861	994.46
768.044	949.4
768.227	978.08
768.41	881.82
768.593	924.83
768.776	967.84
768.959	920.73
769.142	969.88
769.324	908.44
769.507	896.16
769.69	795.81
769.873	885.92
770.056	939.16
770.239	879.77
770.421	924.83
770.604	871.58
770.787	851.1
770.97	836.77
771.152	824.48
771.335	1004.7
771.518	785.57
771.7	883.87
771.883	881.82
772.066	924.83
772.248	900.25
772.431	826.53
772.613	808.09
772.796	791.71
772.978	881.82
773.161	795.81
773.343	844.96
773.526	769.18
773.708	795.81
773.891	752.8
774.073	769.18
774.256	781.47
774.438	826.53
774.621	795.81
774.803	836.77
774.985	677.02
775.168	814.24
775.35	779.42
775.532	773.28
775.715	787.61
775.897	756.9
776.079	738.46
776.261	820.38
776.444	752.8
776.626	775.33
776.808	730.27
776.99	662.69
777.173	691.36
777.355	597.15
777.537	703.65
777.719	660.64
777.901	666.78
778.083	662.69
778.265	634.02
778.447	695.46
778.629	705.7
778.811	644.26
778.993	715.94
779.175	642.21
779.357	679.07
779.539	646.3
779.721	552.1
779.903	523.43
780.085	648.35
780.267	629.92
780.449	519.33
780.631	648.35
780.812	697.5
780.994	564.39
781.176	554.15
781.358	582.82
781.54	601.25
781.721	619.68
781.903	576.67
782.085	582.82
782.267	603.3
782.448	570.53
782.63	531.62
782.812	531.62
782.993	580.77
783.175	535.71
783.357	494.76
783.538	529.57
783.72	470.18
783.901	537.76
784.083	576.67
784.264	459.94
784.446	517.28
784.627	531.62
784.809	511.14
784.99	554.15
785.172	429.22
785.353	464.04
785.535	459.94
785.716	414.88
785.897	416.93
786.079	455.84
786.26	509.09
786.441	513.19
786.623	371.88
786.804	349.35
786.985	412.84
787.167	320.68
787.348	429.22
787.529	425.12
787.71	435.36
787.891	416.93
788.073	408.74
788.254	382.12
788.435	433.32
788.616	478.37
788.797	363.69
788.978	380.07
789.159	427.17
789.34	371.88
789.522	418.98
789.703	345.25
789.884	277.67
790.065	371.88
790.246	384.16
790.427	402.6
790.607	441.51
790.788	443.56
790.969	271.53
791.15	398.5
791.331	314.53
791.512	425.12
791.693	310.44
791.874	367.78
792.054	408.74
792.235	304.29
792.416	390.31
792.597	392.36
792.778	353.45
792.958	384.16
793.139	429.22
793.32	357.54
793.5	378.02
793.681	418.98
793.862	308.39
794.042	378.02
794.223	263.33
794.404	263.33
794.584	367.78
794.765	363.69
794.945	324.77
795.126	326.82
795.306	269.48
795.487	388.26
795.667	355.49
795.848	257.19
796.028	216.23
796.209	240.81
796.389	191.66
796.57	218.28
796.75	251.05
796.93	234.66
797.111	246.95
797.291	283.81
797.471	261.29
797.652	261.29
797.832	265.38
798.012	238.76
798.192	324.77
798.373	324.77
798.553	314.53
798.733	244.9
798.913	314.53
799.093	240.81
799.274	296.1
799.454	257.19
799.634	302.25
799.814	244.9
799.994	281.77
800.174	283.81
800.354	226.47
800.534	240.81
800.714	238.76
800.894	193.7
801.074	269.48
801.254	283.81
801.434	310.44
801.614	261.29
801.794	232.62
801.974	588.96
802.154	224.42
802.334	255.14
802.514	253.09
802.693	238.76
802.873	222.38
803.053	228.52
803.233	150.7
803.413	267.43
803.592	257.19
803.772	240.81
803.952	263.33
804.131	242.85
804.311	289.96
804.491	193.7
804.67	179.37
804.85	228.52
805.03	261.29
805.209	281.77
805.389	158.89
805.568	296.1
805.748	189.61
805.928	130.22
806.107	261.29
806.287	218.28
806.466	189.61
806.646	183.46
806.825	122.02
807.004	158.89
807.184	236.71
807.363	199.85
807.543	214.18
807.722	158.89
807.901	212.14
808.081	189.61
808.26	122.02
808.439	171.18
808.619	130.22
808.798	162.98
808.977	146.6
809.156	167.08
809.336	152.74
809.515	126.12
809.694	150.7
809.873	234.66
810.052	167.08
810.231	222.38
810.411	181.42
810.59	171.18
810.769	109.74
810.948	212.14
811.127	107.69
811.306	177.32
811.485	142.5
811.664	140.46
811.843	187.56
812.022	148.65
812.201	119.98
812.38	124.07
812.559	103.59
812.737	236.71
812.916	144.55
813.095	156.84
813.274	181.42
813.453	130.22
813.632	154.79
813.811	136.36
813.989	89.26
814.168	181.42
814.347	173.22
814.526	160.94
814.704	64.68
814.883	85.16
815.062	171.18
815.24	169.13
815.419	126.12
815.598	124.07
815.776	142.5
815.955	158.89
816.133	140.46
816.312	107.69
816.49	173.22
816.669	224.42
816.847	48.3
817.026	205.99
817.204	154.79
817.383	99.5
817.561	113.83
817.74	212.14
817.918	122.02
818.097	144.55
818.275	160.94
818.453	89.26
818.632	134.31
818.81	177.32
818.988	193.7
819.167	117.93
819.345	115.88
819.523	136.36
819.701	89.26
819.879	134.31
820.058	68.78
820.236	101.55
820.414	111.78
820.592	113.83
820.77	74.92
820.948	60.59
821.127	44.2
821.305	140.46
821.483	136.36
821.661	27.82
821.839	193.7
822.017	68.78
822.195	113.83
822.373	154.79
822.551	156.84
822.729	76.97
822.907	74.92
823.085	81.07
823.262	109.74
823.44	64.68
823.618	48.3
823.796	220.33
823.974	89.26
824.152	85.16
824.329	134.31
824.507	142.5
824.685	58.54
824.863	42.15
825.04	152.74
825.218	148.65
825.396	-7
825.574	81.07
825.751	138.41
825.929	33.96
826.107	117.93
826.284	185.51
826.462	81.07
826.639	91.31
826.817	124.07
826.994	79.02
827.172	48.3
827.349	95.4
827.527	117.93
827.704	197.8
827.882	154.79
828.059	66.73
828.237	70.83
828.414	99.5
828.591	23.72
828.769	62.63
828.946	58.54
829.124	160.94
829.301	60.59
829.478	68.78
829.655	93.35
829.833	87.21
830.01	44.2
830.187	74.92
830.364	101.55
830.542	117.93
830.719	19.63
830.896	23.72
831.073	62.63
831.25	122.02
831.427	74.92
831.604	79.02
831.782	167.08
831.959	126.12
832.136	56.49
832.313	124.07
832.49	117.93
832.667	89.26
832.844	23.72
833.021	144.55
833.198	124.07
833.374	85.16
833.551	15.53
833.728	97.45
833.905	33.96
834.082	33.96
834.259	103.59
834.436	117.93
834.612	-4.95
834.789	134.31
834.966	146.6
835.143	74.92
835.319	83.11
835.496	66.73
835.673	60.59
835.85	66.73
836.026	105.64
836.203	66.73
836.38	52.39
836.556	42.15
836.733	105.64
836.909	79.02
837.086	89.26
837.262	31.91
837.439	38.06
837.616	117.93
837.792	72.87
837.968	29.87
838.145	-11.09
838.321	36.01
838.498	81.07
838.674	119.98
838.851	64.68
839.027	40.11
839.203	83.11
839.38	11.43
839.556	79.02
839.732	70.83
839.909	25.77
840.085	62.63
840.261	52.39
840.437	89.26
840.614	29.87
840.79	91.31
840.966	23.72
841.142	52.39
841.318	42.15
841.494	17.58
841.671	42.15
841.847	89.26
842.023	42.15
842.199	13.48
842.375	66.73
842.551	27.82
842.727	-21.33
842.903	54.44
843.079	70.83
843.255	52.39
843.431	58.54
843.607	74.92
843.783	56.49
843.959	-19.29
844.134	68.78
844.31	74.92
844.486	-7
844.662	44.2
844.838	3.24
845.013	91.31
845.189	76.97
845.365	44.2
845.541	3.24
845.716	70.83
845.892	-2.9
846.068	40.11
846.244	1.19
846.419	33.96
846.595	27.82
846.77	38.06
846.946	85.16
847.122	142.5
847.297	46.25
847.473	70.83
847.648	31.91
847.824	-0.85
847.999	50.35
848.175	115.88
848.35	50.35
848.526	50.35
848.701	27.82
848.876	25.77
849.052	48.3
849.227	76.97
849.403	46.25
849.578	11.43
849.753	5.29
849.929	52.39
850.104	5.29
850.279	91.31
850.454	11.43
850.63	23.72
850.805	7.34
850.98	11.43
851.155	23.72
851.33	5.29
851.505	7.34
851.681	29.87
851.856	48.3
852.031	44.2
852.206	21.67
852.381	3.24
852.556	17.58
852.731	27.82
852.906	9.39
853.081	58.54
853.256	54.44
853.431	58.54
853.606	101.55
853.781	3.24
853.956	52.39
854.131	85.16
854.305	60.59
854.48	72.87
854.655	50.35
854.83	31.91
855.005	23.72
855.18	-21.33
855.354	40.11
855.529	113.83
855.704	-43.86
855.879	-33.62
856.053	-29.52
856.228	97.45
856.403	21.67
856.577	5.29
856.752	-47.96
856.926	68.78
857.101	64.68
857.276	50.35
857.45	46.25
857.625	46.25
857.799	3.24
857.974	-29.52
858.148	-0.85
858.323	-11.09
858.497	33.96
858.672	-9.05
858.846	56.49
859.02	40.11
859.195	60.59
859.369	-7
859.543	60.59
859.718	62.63
859.892	1.19
860.066	-21.33
860.241	7.34
860.415	-21.33
860.589	19.63
860.763	89.26
860.938	-23.38
861.112	48.3
861.286	33.96
861.46	64.68
861.634	31.91
861.808	-2.9
861.982	5.29
862.157	62.63
862.331	52.39
862.505	-54.1
862.679	3.24
862.853	-13.14
863.027	-31.57
863.201	27.82
863.375	-70.48
863.549	-23.38
863.722	-64.34
863.896	-7
864.07	-4.95
864.244	17.58
864.418	9.39
864.592	-29.52
864.766	68.78
864.939	40.11
865.113	-66.39
865.287	76.97
865.461	-33.62
865.634	11.43
865.808	46.25
865.982	-13.14
866.156	-39.76
866.329	-0.85
866.503	-7
866.676	105.64
866.85	-2.9
867.024	-15.19
867.197	-0.85
867.371	70.83
867.544	36.01
867.718	-37.72
867.891	-68.44
868.065	-31.57
868.238	19.63
868.412	-2.9
868.585	42.15
868.759	3.24
868.932	-43.86
869.105	19.63
869.279	36.01
869.452	15.53
869.625	48.3
869.799	-50
869.972	15.53
870.145	48.3
870.319	19.63
870.492	-0.85
870.665	-11.09
870.838	-43.86
871.011	-0.85
871.185	-21.33
871.358	-11.09
871.531	-13.14
871.704	17.58
871.877	-29.52
872.05	7.34
872.223	-39.76
872.396	38.06
872.569	-2.9
872.742	-54.1
872.915	-4.95
873.088	-29.52
873.261	13.48
873.434	-11.09
873.607	58.54
873.78	68.78
873.953	-15.19
874.126	-17.24
874.299	-37.72
874.471	-39.76
874.644	-17.24
874.817	38.06
874.99	44.2
875.163	7.34
875.335	38.06
875.508	-9.05
875.681	-50
875.853	13.48
876.026	3.24
876.199	79.02
876.371	-13.14
876.544	-54.1
876.717	-19.29
876.889	27.82
877.062	-7
877.234	-29.52
877.407	74.92
877.579	68.78
877.752	-7
877.924	11.43
878.097	27.82
878.269	-60.24
878.442	-27.48
878.614	64.68
878.786	17.58
878.959	60.59
879.131	-19.29
879.303	19.63
879.476	9.39
879.648	-0.85
879.82	58.54
879.993	-13.14
880.165	-25.43
880.337	-74.58
880.509	19.63
880.681	-17.24
880.854	-117.59
881.026	-0.85
881.198	66.73
881.37	21.67
881.542	-9.05
881.714	-31.57
881.886	-39.76
882.058	11.43
882.23	11.43
882.402	50.35
882.574	-7
882.746	-0.85
882.918	21.67
883.09	15.53
883.262	-15.19
883.434	19.63
883.606	40.11
883.778	-62.29
883.95	9.39
884.122	-43.86
884.293	15.53
884.465	-0.85
884.637	-17.24
884.809	7.34
884.98	74.92
885.152	3.24
885.324	44.2
885.496	-25.43
885.667	-13.14
885.839	5.29
886.011	33.96
886.182	27.82
886.354	46.25
886.525	-4.95
886.697	33.96
886.869	-103.25
887.04	23.72
887.212	56.49
887.383	83.11
887.555	-19.29
887.726	-70.48
887.897	19.63
888.069	-17.24
888.24	52.39
888.412	-23.38
888.583	23.72
888.754	-13.14
888.926	3.24
889.097	-37.72
889.268	-39.76
889.44	17.58
889.611	-31.57
889.782	11.43
889.953	5.29
890.125	25.77
890.296	-66.39
890.467	13.48
890.638	-4.95
890.809	52.39
890.98	-35.67
891.151	-70.48
891.323	9.39
891.494	-58.2
891.665	-45.91
891.836	27.82
892.007	56.49
892.178	-23.38
892.349	79.02
892.52	31.91
892.691	-19.29
892.862	-72.53
893.032	-45.91
893.203	-25.43
893.374	7.34
893.545	-9.05
893.716	-56.15
893.887	15.53
894.057	1.19
894.228	-4.95
894.399	44.2
894.57	33.96
894.74	-29.52
894.911	48.3
895.082	64.68
895.253	-103.25
895.423	91.31
895.594	23.72
895.764	-43.86
895.935	-7
896.106	-68.44
896.276	-25.43
896.447	-13.14
896.617	-50
896.788	-13.14
896.958	17.58
897.129	11.43
897.299	7.34
897.47	50.35
897.64	46.25
897.81	54.44
897.981	-70.48
898.151	-15.19
898.322	-35.67
898.492	48.3
898.662	15.53
898.832	15.53
899.003	-33.62
899.173	44.2
899.343	21.67
899.513	42.15
