Data from USB4F104151__51__11-37-15-182.txt Node

Date: Fri Mar 14 11:37:15 EDT 2025
User: louis
Spectrometer: USB4F10415
Trigger mode: 4
Integration Time (sec): 2.000000E-2
Scans to average: 1
Electric dark correction enabled: true
Nonlinearity correction enabled: false
Boxcar width: 0
XAxis mode: Wavelengths
Number of Pixels in Spectrum: 3648
>>>>>Begin Spectral Data<<<<<
178.204	-57.51
178.424	-57.51
178.644	-57.51
178.864	-73.9
179.084	-63.66
179.304	16.21
179.524	18.26
179.744	1.88
179.964	8.02
180.184	10.07
180.404	44.88
180.624	-32.94
180.844	-59.56
181.064	-98.47
181.283	18.26
181.503	-0.17
181.723	73.56
181.943	-82.09
182.163	65.36
182.383	-6.31
182.602	12.12
182.822	55.12
183.042	-12.46
183.262	-43.18
183.482	18.26
183.701	12.12
183.921	-59.56
184.141	-12.46
184.361	-2.22
184.58	20.31
184.8	34.64
185.02	28.5
185.239	26.45
185.459	-14.51
185.679	63.32
185.898	53.08
186.118	16.21
186.338	57.17
186.557	42.84
186.777	38.74
186.997	20.31
187.216	-32.94
187.436	10.07
187.655	73.56
187.875	116.56
188.095	8.02
188.314	87.89
188.534	83.8
188.753	5.97
188.973	38.74
189.192	63.32
189.412	14.17
189.631	-18.6
189.851	-6.31
190.07	12.12
190.29	36.69
190.509	-14.51
190.729	5.97
190.948	46.93
191.168	114.52
191.387	55.12
191.607	14.17
191.826	16.21
192.045	42.84
192.265	20.31
192.484	34.64
192.704	-37.03
192.923	-2.22
193.142	1.88
193.362	28.5
193.581	10.07
193.8	-16.55
194.02	-53.42
194.239	-18.6
194.458	16.21
194.678	-63.66
194.897	89.94
195.116	20.31
195.335	8.02
195.555	1.88
195.774	69.46
195.993	-43.18
196.212	55.12
196.432	1.88
196.651	-69.8
196.87	18.26
197.089	36.69
197.308	26.45
197.528	34.64
197.747	40.79
197.966	16.21
198.185	106.32
198.404	14.17
198.623	5.97
198.842	40.79
199.062	10.07
199.281	59.22
199.5	8.02
199.719	26.45
199.938	34.64
200.157	81.75
200.376	-37.03
200.595	40.79
200.814	-2.22
201.033	-28.84
201.252	57.17
201.471	-28.84
201.69	24.4
201.909	87.89
202.128	16.21
202.347	67.41
202.566	1.88
202.785	5.97
203.004	-45.23
203.223	28.5
203.442	63.32
203.661	34.64
203.879	57.17
204.098	-10.41
204.317	18.26
204.536	79.7
204.755	87.89
204.974	-24.75
205.193	-51.37
205.411	51.03
205.63	83.8
205.849	26.45
206.068	18.26
206.287	63.32
206.505	8.02
206.724	59.22
206.943	24.4
207.162	38.74
207.381	48.98
207.599	10.07
207.818	46.93
208.037	34.64
208.255	5.97
208.474	67.41
208.693	44.88
208.911	28.5
209.13	40.79
209.349	36.69
209.567	22.36
209.786	16.21
210.005	24.4
210.223	42.84
210.442	14.17
210.661	34.64
210.879	24.4
211.098	28.5
211.316	8.02
211.535	40.79
211.753	40.79
211.972	36.69
212.191	-8.36
212.409	118.61
212.628	1.88
212.846	-55.47
213.065	55.12
213.283	57.17
213.502	-39.08
213.72	65.36
213.938	63.32
214.157	-34.99
214.375	75.6
214.594	-22.7
214.812	38.74
215.031	-0.17
215.249	14.17
215.467	79.7
215.686	-2.22
215.904	73.56
216.122	42.84
216.341	55.12
216.559	63.32
216.778	24.4
216.996	38.74
217.214	12.12
217.432	22.36
217.651	-20.65
217.869	-75.95
218.087	16.21
218.306	46.93
218.524	8.02
218.742	5.97
218.96	53.08
219.179	-39.08
219.397	3.93
219.615	16.21
219.833	67.41
220.051	-4.27
220.27	42.84
220.488	36.69
220.706	-10.41
220.924	-24.75
221.142	-8.36
221.36	30.55
221.578	18.26
221.796	14.17
222.015	18.26
222.233	40.79
222.451	91.99
222.669	55.12
222.887	-14.51
223.105	34.64
223.323	14.17
223.541	-39.08
223.759	22.36
223.977	57.17
224.195	18.26
224.413	83.8
224.631	-22.7
224.849	12.12
225.067	51.03
225.285	-34.99
225.503	30.55
225.721	14.17
225.939	18.26
226.157	83.8
226.375	102.23
226.592	26.45
226.81	20.31
227.028	14.17
227.246	24.4
227.464	3.93
227.682	-10.41
227.9	46.93
228.117	-14.51
228.335	44.88
228.553	36.69
228.771	18.26
228.989	67.41
229.206	75.6
229.424	3.93
229.642	46.93
229.86	-18.6
230.077	91.99
230.295	8.02
230.513	69.46
230.731	46.93
230.948	67.41
231.166	40.79
231.384	-8.36
231.601	59.22
231.819	81.75
232.037	24.4
232.254	16.21
232.472	42.84
232.689	-10.41
232.907	-12.46
233.125	-18.6
233.342	59.22
233.56	8.02
233.777	-34.99
233.995	20.31
234.213	71.51
234.43	1.88
234.648	-59.56
234.865	-22.7
235.083	40.79
235.3	-47.27
235.518	73.56
235.735	-14.51
235.953	20.31
236.17	5.97
236.388	36.69
236.605	42.84
236.822	59.22
237.04	77.65
237.257	-39.08
237.475	63.32
237.692	24.4
237.909	-14.51
238.127	-0.17
238.344	65.36
238.562	-6.31
238.779	8.02
238.996	14.17
239.214	83.8
239.431	-37.03
239.648	18.26
239.865	46.93
240.083	10.07
240.3	10.07
240.517	22.36
240.735	38.74
240.952	34.64
241.169	87.89
241.386	77.65
241.603	40.79
241.821	-2.22
242.038	71.51
242.255	8.02
242.472	12.12
242.689	53.08
242.907	14.17
243.124	20.31
243.341	34.64
243.558	18.26
243.775	10.07
243.992	18.26
244.209	-22.7
244.426	67.41
244.643	71.51
244.86	-16.55
245.078	5.97
245.295	10.07
245.512	67.41
245.729	-8.36
245.946	-10.41
246.163	-10.41
246.38	32.6
246.597	34.64
246.814	-51.37
247.031	30.55
247.248	-8.36
247.464	59.22
247.681	1.88
247.898	1.88
248.115	30.55
248.332	16.21
248.549	75.6
248.766	30.55
248.983	-51.37
249.2	38.74
249.417	32.6
249.633	-14.51
249.85	73.56
250.067	10.07
250.284	20.31
250.501	14.17
250.717	42.84
250.934	-37.03
251.151	40.79
251.368	16.21
251.585	-34.99
251.801	30.55
252.018	36.69
252.235	51.03
252.451	-6.31
252.668	20.31
252.885	69.46
253.102	3.93
253.318	55.12
253.535	46.93
253.752	26.45
253.968	36.69
254.185	26.45
254.401	132.95
254.618	-0.17
254.835	38.74
255.051	-4.27
255.268	24.4
255.484	18.26
255.701	18.26
255.917	18.26
256.134	-6.31
256.351	44.88
256.567	-4.27
256.784	32.6
257	73.56
257.217	73.56
257.433	-10.41
257.65	51.03
257.866	79.7
258.082	-32.94
258.299	42.84
258.515	-12.46
258.732	28.5
258.948	1.88
259.165	57.17
259.381	-32.94
259.597	69.46
259.814	18.26
260.03	-10.41
260.246	18.26
260.463	-30.89
260.679	73.56
260.895	-51.37
261.112	51.03
261.328	-41.13
261.544	55.12
261.761	40.79
261.977	-37.03
262.193	8.02
262.409	12.12
262.626	-8.36
262.842	-34.99
263.058	10.07
263.274	3.93
263.49	30.55
263.707	46.93
263.923	-26.79
264.139	-47.27
264.355	36.69
264.571	20.31
264.787	-45.23
265.004	118.61
265.22	-4.27
265.436	-24.75
265.652	28.5
265.868	83.8
266.084	12.12
266.3	67.41
266.516	-30.89
266.732	24.4
266.948	34.64
267.164	48.98
267.38	57.17
267.596	91.99
267.812	30.55
268.028	40.79
268.244	-55.47
268.46	3.93
268.676	-49.32
268.892	36.69
269.108	-34.99
269.324	-6.31
269.54	20.31
269.756	55.12
269.972	26.45
270.188	12.12
270.403	-47.27
270.619	16.21
270.835	-14.51
271.051	53.08
271.267	18.26
271.483	-8.36
271.698	46.93
271.914	-8.36
272.13	5.97
272.346	40.79
272.562	20.31
272.777	130.9
272.993	91.99
273.209	42.84
273.425	65.36
273.64	-16.55
273.856	61.27
274.072	22.36
274.287	-55.47
274.503	16.21
274.719	91.99
274.934	-14.51
275.15	-39.08
275.366	51.03
275.581	10.07
275.797	-10.41
276.012	96.08
276.228	51.03
276.444	10.07
276.659	32.6
276.875	71.51
277.09	57.17
277.306	-2.22
277.521	1.88
277.737	16.21
277.952	108.37
278.168	55.12
278.383	38.74
278.599	30.55
278.814	-12.46
279.03	-6.31
279.245	69.46
279.461	-67.75
279.676	65.36
279.892	-0.17
280.107	96.08
280.322	59.22
280.538	42.84
280.753	46.93
280.969	46.93
281.184	20.31
281.399	10.07
281.615	18.26
281.83	67.41
282.045	34.64
282.26	26.45
282.476	14.17
282.691	57.17
282.906	18.26
283.122	40.79
283.337	3.93
283.552	44.88
283.767	69.46
283.983	132.95
284.198	10.07
284.413	79.7
284.628	77.65
284.843	-6.31
285.058	10.07
285.274	-14.51
285.489	-18.6
285.704	51.03
285.919	30.55
286.134	20.31
286.349	44.88
286.564	81.75
286.779	77.65
286.995	-28.84
287.21	59.22
287.425	69.46
287.64	-22.7
287.855	10.07
288.07	63.32
288.285	75.6
288.5	3.93
288.715	-4.27
288.93	67.41
289.145	-12.46
289.36	12.12
289.575	-30.89
289.79	-2.22
290.004	-0.17
290.219	30.55
290.434	40.79
290.649	-18.6
290.864	38.74
291.079	-8.36
291.294	79.7
291.509	-43.18
291.724	24.4
291.938	24.4
292.153	-37.03
292.368	26.45
292.583	28.5
292.798	26.45
293.012	51.03
293.227	75.6
293.442	46.93
293.657	46.93
293.871	59.22
294.086	-4.27
294.301	38.74
294.516	3.93
294.73	16.21
294.945	-2.22
295.16	-20.65
295.374	-41.13
295.589	36.69
295.804	22.36
296.018	18.26
296.233	48.98
296.447	36.69
296.662	-22.7
296.877	18.26
297.091	28.5
297.306	34.64
297.52	48.98
297.735	51.03
297.949	130.9
298.164	102.23
298.378	16.21
298.593	22.36
298.807	24.4
299.022	55.12
299.236	61.27
299.451	8.02
299.665	26.45
299.88	89.94
300.094	3.93
300.309	57.17
300.523	48.98
300.737	-0.17
300.952	18.26
301.166	-22.7
301.381	-37.03
301.595	-37.03
301.809	26.45
302.024	85.84
302.238	-0.17
302.452	26.45
302.667	32.6
302.881	96.08
303.095	59.22
303.309	118.61
303.524	-26.79
303.738	51.03
303.952	46.93
304.166	14.17
304.381	51.03
304.595	12.12
304.809	20.31
305.023	34.64
305.237	-41.13
305.452	12.12
305.666	-26.79
305.88	55.12
306.094	10.07
306.308	81.75
306.522	81.75
306.736	71.51
306.95	122.71
307.164	-2.22
307.379	10.07
307.593	75.6
307.807	57.17
308.021	44.88
308.235	1.88
308.449	32.6
308.663	30.55
308.877	89.94
309.091	73.56
309.305	10.07
309.519	8.02
309.733	73.56
309.947	-12.46
310.161	10.07
310.374	40.79
310.588	18.26
310.802	-20.65
311.016	-26.79
311.23	42.84
311.444	-14.51
311.658	-4.27
311.872	1.88
312.085	-10.41
312.299	18.26
312.513	67.41
312.727	-26.79
312.941	-4.27
313.154	-16.55
313.368	16.21
313.582	8.02
313.796	-10.41
314.009	14.17
314.223	96.08
314.437	42.84
314.651	55.12
314.864	28.5
315.078	-51.37
315.292	-8.36
315.505	-28.84
315.719	40.79
315.933	57.17
316.146	67.41
316.36	-34.99
316.573	57.17
316.787	87.89
317.001	96.08
317.214	100.18
317.428	57.17
317.641	59.22
317.855	28.5
318.068	-22.7
318.282	-6.31
318.495	94.04
318.709	55.12
318.922	63.32
319.136	73.56
319.349	65.36
319.563	40.79
319.776	22.36
319.99	5.97
320.203	100.18
320.417	30.55
320.63	5.97
320.843	16.21
321.057	30.55
321.27	100.18
321.483	75.6
321.697	-2.22
321.91	36.69
322.124	57.17
322.337	38.74
322.55	16.21
322.763	38.74
322.977	53.08
323.19	-41.13
323.403	5.97
323.617	22.36
323.83	3.93
324.043	1.88
324.256	94.04
324.469	59.22
324.683	36.69
324.896	-10.41
325.109	83.8
325.322	1.88
325.535	139.09
325.748	83.8
325.962	44.88
326.175	-8.36
326.388	1.88
326.601	22.36
326.814	46.93
327.027	87.89
327.24	44.88
327.453	32.6
327.666	53.08
327.879	34.64
328.092	14.17
328.305	-0.17
328.518	-24.75
328.731	18.26
328.944	67.41
329.157	65.36
329.37	-10.41
329.583	-41.13
329.796	53.08
330.009	67.41
330.222	-8.36
330.435	10.07
330.648	24.4
330.861	40.79
331.073	-4.27
331.286	38.74
331.499	71.51
331.712	-8.36
331.925	59.22
332.138	51.03
332.35	61.27
332.563	10.07
332.776	46.93
332.989	14.17
333.202	-16.55
333.414	40.79
333.627	3.93
333.84	30.55
334.053	26.45
334.265	59.22
334.478	12.12
334.691	14.17
334.903	-6.31
335.116	-14.51
335.329	-8.36
335.541	8.02
335.754	32.6
335.966	30.55
336.179	59.22
336.392	51.03
336.604	63.32
336.817	100.18
337.029	100.18
337.242	-16.55
337.454	34.64
337.667	22.36
337.88	91.99
338.092	57.17
338.305	-22.7
338.517	26.45
338.729	55.12
338.942	32.6
339.154	-14.51
339.367	16.21
339.579	77.65
339.792	-30.89
340.004	81.75
340.217	-6.31
340.429	34.64
340.641	61.27
340.854	40.79
341.066	38.74
341.278	79.7
341.491	26.45
341.703	-51.37
341.915	28.5
342.128	135
342.34	-114.86
342.552	38.74
342.764	10.07
342.977	55.12
343.189	87.89
343.401	30.55
343.613	38.74
343.826	53.08
344.038	38.74
344.25	14.17
344.462	67.41
344.674	79.7
344.886	36.69
345.099	51.03
345.311	-24.75
345.523	-14.51
345.735	34.64
345.947	57.17
346.159	-0.17
346.371	28.5
346.583	-28.84
346.795	100.18
347.007	22.36
347.219	-51.37
347.431	-8.36
347.643	130.9
347.855	73.56
348.067	83.8
348.279	42.84
348.491	63.32
348.703	57.17
348.915	34.64
349.127	-2.22
349.339	-18.6
349.551	20.31
349.763	46.93
349.975	3.93
350.187	40.79
350.399	57.17
350.61	79.7
350.822	38.74
351.034	124.76
351.246	34.64
351.458	79.7
351.669	18.26
351.881	26.45
352.093	67.41
352.305	143.19
352.517	28.5
352.728	77.65
352.94	63.32
353.152	34.64
353.363	63.32
353.575	75.6
353.787	18.26
353.999	71.51
354.21	63.32
354.422	-41.13
354.633	24.4
354.845	53.08
355.057	40.79
355.268	55.12
355.48	28.5
355.692	-47.27
355.903	-10.41
356.115	38.74
356.326	-14.51
356.538	75.6
356.749	57.17
356.961	38.74
357.172	26.45
357.384	3.93
357.595	59.22
357.807	-24.75
358.018	30.55
358.23	8.02
358.441	59.22
358.653	12.12
358.864	-14.51
359.075	-10.41
359.287	57.17
359.498	96.08
359.709	106.32
359.921	8.02
360.132	67.41
360.344	-39.08
360.555	16.21
360.766	118.61
360.977	1.88
361.189	53.08
361.4	8.02
361.611	59.22
361.823	73.56
362.034	71.51
362.245	22.36
362.456	26.45
362.667	-8.36
362.879	81.75
363.09	20.31
363.301	71.51
363.512	38.74
363.723	32.6
363.935	30.55
364.146	46.93
364.357	57.17
364.568	73.56
364.779	-16.55
364.99	85.84
365.201	-14.51
365.412	16.21
365.623	8.02
365.834	-10.41
366.045	114.52
366.256	-16.55
366.467	87.89
366.678	75.6
366.889	26.45
367.1	71.51
367.311	38.74
367.522	98.13
367.733	34.64
367.944	-0.17
368.155	32.6
368.366	108.37
368.577	40.79
368.788	77.65
368.999	42.84
369.209	-12.46
369.42	26.45
369.631	61.27
369.842	20.31
370.053	38.74
370.264	83.8
370.474	-14.51
370.685	42.84
370.896	46.93
371.107	-0.17
371.317	16.21
371.528	118.61
371.739	8.02
371.95	51.03
372.16	73.56
372.371	79.7
372.582	28.5
372.792	14.17
373.003	51.03
373.214	24.4
373.424	-0.17
373.635	53.08
373.846	51.03
374.056	-32.94
374.267	24.4
374.477	18.26
374.688	38.74
374.898	46.93
375.109	116.56
375.319	38.74
375.53	120.66
375.74	87.89
375.951	69.46
376.161	-2.22
376.372	79.7
376.582	8.02
376.793	79.7
377.003	16.21
377.214	73.56
377.424	14.17
377.635	38.74
377.845	38.74
378.055	75.6
378.266	-22.7
378.476	40.79
378.686	42.84
378.897	89.94
379.107	32.6
379.317	71.51
379.528	1.88
379.738	30.55
379.948	73.56
380.158	42.84
380.369	69.46
380.579	24.4
380.789	26.45
380.999	100.18
381.21	42.84
381.42	51.03
381.63	10.07
381.84	106.32
382.05	3.93
382.261	137.04
382.471	32.6
382.681	73.56
382.891	26.45
383.101	-14.51
383.311	-18.6
383.521	-2.22
383.731	44.88
383.941	83.8
384.151	-2.22
384.361	26.45
384.571	51.03
384.781	-8.36
384.991	104.28
385.201	102.23
385.411	63.32
385.621	112.47
385.831	-55.47
386.041	-43.18
386.251	79.7
386.461	94.04
386.671	34.64
386.881	53.08
387.091	-26.79
387.301	67.41
387.511	-73.9
387.72	1.88
387.93	5.97
388.14	16.21
388.35	14.17
388.56	65.36
388.769	79.7
388.979	59.22
389.189	32.6
389.399	67.41
389.609	55.12
389.818	26.45
390.028	30.55
390.238	18.26
390.447	18.26
390.657	130.9
390.867	36.69
391.076	14.17
391.286	51.03
391.496	75.6
391.705	30.55
391.915	128.85
392.125	38.74
392.334	46.93
392.544	-0.17
392.753	87.89
392.963	73.56
393.172	87.89
393.382	42.84
393.591	67.41
393.801	51.03
394.01	159.57
394.22	100.18
394.429	59.22
394.639	57.17
394.848	14.17
395.058	110.42
395.267	16.21
395.477	61.27
395.686	81.75
395.895	165.71
396.105	12.12
396.314	53.08
396.524	20.31
396.733	96.08
396.942	85.84
397.152	38.74
397.361	63.32
397.57	18.26
397.78	14.17
397.989	122.71
398.198	96.08
398.407	36.69
398.617	120.66
398.826	110.42
399.035	-24.75
399.244	48.98
399.453	55.12
399.663	5.97
399.872	169.81
400.081	30.55
400.29	157.52
400.499	55.12
400.708	116.56
400.917	112.47
401.127	167.76
401.336	57.17
401.545	124.76
401.754	114.52
401.963	100.18
402.172	96.08
402.381	198.48
402.59	75.6
402.799	81.75
403.008	32.6
403.217	141.14
403.426	124.76
403.635	51.03
403.844	190.29
404.053	59.22
404.262	42.84
404.471	128.85
404.68	77.65
404.888	126.8
405.097	106.32
405.306	132.95
405.515	104.28
405.724	73.56
405.933	94.04
406.142	212.82
406.35	163.67
406.559	116.56
406.768	182.1
406.977	145.24
407.185	141.14
407.394	153.43
407.603	149.33
407.812	171.86
408.02	264.02
408.229	218.96
408.438	110.42
408.646	202.58
408.855	270.16
409.064	239.44
409.272	188.24
409.481	225.11
409.69	239.44
409.898	204.63
410.107	268.11
410.315	270.16
410.524	270.16
410.733	272.21
410.941	268.11
411.15	292.69
411.358	382.8
411.567	358.22
411.775	343.89
411.984	399.18
412.192	356.18
412.401	341.84
412.609	448.33
412.818	360.27
413.026	407.38
413.234	419.66
413.443	421.71
413.651	460.62
413.86	468.81
414.068	542.54
414.276	558.92
414.485	485.2
414.693	526.16
414.901	575.31
415.11	542.54
415.318	585.55
415.526	528.21
415.734	571.21
415.943	651.08
416.151	655.18
416.359	665.42
416.567	739.15
416.776	810.82
416.984	808.78
417.192	821.06
417.4	833.35
417.608	733
417.817	851.78
418.025	923.46
418.233	939.85
418.441	980.81
418.649	927.56
418.857	1046.34
419.065	1093.44
419.273	1062.73
419.481	1136.45
419.689	1206.08
419.897	1206.08
420.105	1322.82
420.313	1136.45
420.521	1339.2
420.729	1392.45
420.937	1394.5
421.145	1466.17
421.353	1560.38
421.561	1582.91
421.769	1699.64
421.977	1654.59
422.185	1621.82
422.393	1713.98
422.601	1804.09
422.809	1847.1
423.017	1820.47
423.224	1949.5
423.432	2123.57
423.64	2000.69
423.848	2238.26
424.056	2176.82
424.263	2359.09
424.471	2412.34
424.679	2416.43
424.887	2561.84
425.094	2688.81
425.302	2518.83
425.51	2658.09
425.718	2811.69
425.925	2907.94
426.133	3004.2
426.341	3077.93
426.548	3229.48
426.756	3241.76
426.964	3262.24
427.171	3456.8
427.379	3540.77
427.586	3551.01
427.794	3682.08
428.001	3948.31
428.209	4214.55
428.417	3870.49
428.624	4185.88
428.832	4255.51
429.039	4243.22
429.247	4333.33
429.454	4650.77
429.662	4998.92
429.869	4712.21
430.076	5029.64
430.284	4663.05
430.491	5148.42
430.699	5326.6
430.906	5259.01
431.114	5418.75
431.321	5684.99
431.528	5680.89
431.736	6113.02
431.943	6481.65
432.15	6303.48
432.358	6246.13
432.565	6600.43
432.772	6528.75
432.979	6924.01
433.187	7100.14
433.394	6967.02
433.601	7626.46
433.808	7722.72
434.016	7628.51
434.223	7915.23
434.43	8351.45
434.637	8185.56
434.844	8713.94
435.052	9021.13
435.259	8781.52
435.466	8918.73
435.673	8894.16
435.88	9395.91
436.087	9840.32
436.294	10014.4
436.501	9676.48
436.708	9789.12
436.915	10063.55
437.122	10598.07
437.329	10600.12
437.537	10942.13
437.743	11173.55
437.95	11011.76
438.157	11538.09
438.364	11976.35
438.571	11996.83
438.778	12068.51
438.985	13053.58
439.192	12535.45
439.399	13125.26
439.606	12713.62
439.813	13352.59
440.02	14423.67
440.227	14003.84
440.433	13960.83
440.64	14390.91
440.847	14151.29
441.054	14702.2
441.261	15855.2
441.467	15433.32
441.674	15543.91
441.881	16186.97
442.088	15937.12
442.294	15914.59
442.501	16490.07
442.708	16893.52
442.914	17462.86
443.121	18124.35
443.328	17839.69
443.534	19029.55
443.741	18429.5
443.948	18232.9
444.154	19539.5
444.361	19521.07
444.568	19654.19
444.774	19377.71
444.981	19949.09
445.187	20266.53
445.394	21356.05
445.6	20674.07
445.807	23154.16
446.013	21906.95
446.22	22253.06
446.426	23148.02
446.633	23461.36
446.839	24305.12
447.046	23076.34
447.252	24628.7
447.459	25034.2
447.665	24356.32
447.871	25591.25
448.078	26631.61
448.284	25388.5
448.491	26203.59
448.697	26951.1
448.903	27565.49
449.11	27530.67
449.316	27362.74
449.522	27659.7
449.728	28034.47
449.935	28562.85
450.141	28562.85
450.347	29398.42
450.553	28372.39
450.76	28677.54
450.966	29515.15
451.172	29451.67
451.378	30137.74
451.584	29439.38
451.791	30027.15
451.997	30348.68
452.203	30582.15
452.409	30580.1
452.615	30307.72
452.821	28884.38
453.027	28822.94
453.233	30608.77
453.44	29271.45
453.646	29670.8
453.852	30178.7
454.058	30051.72
454.264	29310.36
454.47	29771.15
454.676	29146.52
454.882	30059.91
455.088	27458.99
455.294	27973.03
455.5	28329.38
455.705	28687.78
455.911	27258.29
456.117	26963.39
456.323	26551.74
456.529	25089.49
456.735	26430.91
456.941	25683.41
457.147	25048.54
457.352	24376.8
457.558	24237.54
457.764	24366.56
457.97	23791.08
458.176	23258.61
458.381	23150.07
458.587	21962.25
458.793	21884.42
458.999	20758.04
459.204	22482.43
459.41	21868.04
459.616	20192.8
459.821	20260.38
460.027	20475.42
460.233	19961.38
460.438	18869.81
460.644	19242.54
460.85	18521.66
461.055	18060.87
461.261	18058.82
461.466	16877.14
461.672	16029.28
461.878	17342.03
462.083	16197.21
462.289	16100.96
462.494	15494.76
462.7	14954.1
462.905	14521.98
463.111	14835.31
463.316	15064.69
463.522	14984.82
463.727	14857.84
463.932	14745.2
464.138	14591.61
464.343	14702.2
464.549	14132.86
464.754	14675.57
464.959	14745.2
465.165	14446.2
465.37	13733.51
465.575	13526.66
465.781	14134.91
465.986	14102.14
466.191	13592.2
466.397	13358.73
466.602	12846.74
466.807	13092.49
467.012	13188.75
467.218	13086.35
467.423	12889.74
467.628	13104.78
467.833	13723.27
468.038	13123.21
468.244	12777.11
468.449	13586.05
468.654	12885.65
468.859	12711.57
469.064	12590.74
469.269	12068.51
469.474	12115.61
469.679	12469.91
469.885	11998.88
470.09	12168.86
470.295	12091.04
470.5	11904.67
470.705	12037.79
470.91	11689.63
471.115	11712.16
471.32	11880.1
471.525	11607.72
471.73	11384.49
471.935	11304.62
472.139	10999.47
472.344	11050.67
472.549	11009.71
472.754	10905.26
472.959	10776.24
473.164	10284.73
473.369	10270.39
473.574	10811.06
473.778	10579.64
473.983	10311.35
474.188	10284.73
474.393	10090.17
474.598	10047.16
474.802	9946.81
475.007	9883.33
475.212	9836.22
475.417	9463.49
475.621	9520.84
475.826	9705.15
476.031	9268.94
476.235	9270.98
476.44	9348.81
476.645	9164.49
476.849	9182.92
477.054	8963.79
477.259	8926.93
477.463	8851.15
477.668	8730.32
477.872	8988.36
478.077	8685.26
478.282	8423.12
478.486	8232.66
478.691	8165.08
478.895	8220.38
479.1	8136.41
479.304	8414.93
479.509	8009.44
479.713	8134.36
479.918	8230.62
480.122	7771.87
480.326	8107.74
480.531	7853.79
480.735	7898.84
480.94	7958.24
481.144	8197.85
481.348	7605.99
481.553	7868.13
481.757	7792.35
481.961	7726.82
482.166	7876.32
482.37	7874.27
482.574	7644.9
482.778	7657.18
482.983	7841.5
483.187	7517.92
483.391	7628.51
483.595	7544.55
483.8	7366.37
484.004	7825.12
484.208	7694.05
484.412	7683.81
484.616	7730.91
484.821	7573.22
485.025	7325.41
485.229	7773.92
485.433	7702.24
485.637	7716.58
485.841	7468.77
486.045	7556.83
486.249	7526.11
486.453	7599.84
486.657	7487.2
486.861	7583.46
487.065	7415.52
487.269	7700.19
487.473	7433.96
487.677	7720.67
487.881	7562.98
488.085	7532.26
488.289	7720.67
488.493	7663.33
488.697	7628.51
488.901	7888.6
489.105	7679.71
489.309	7814.88
489.512	7751.39
489.716	7800.54
489.92	7792.35
490.124	7663.33
490.328	7866.08
490.531	7855.84
490.735	7788.25
490.939	7980.76
491.143	7675.62
491.346	7808.73
491.55	7892.7
491.754	7855.84
491.958	8081.11
492.161	8025.82
492.365	8021.72
492.569	7958.24
492.772	8029.91
492.976	8091.35
493.18	7991
493.383	8179.42
493.587	8128.22
493.79	8341.21
493.994	8224.47
494.197	8437.46
494.401	8558.29
494.605	8498.9
494.808	8486.61
495.012	8410.84
495.215	8619.73
495.419	8541.91
495.622	8689.36
495.825	9006.8
496.029	8675.02
496.232	8902.35
496.436	8916.69
496.639	9264.84
496.843	9170.63
497.046	9357
497.249	9275.08
497.453	9373.38
497.656	9684.67
497.859	9547.46
498.063	9588.42
498.266	9746.11
498.469	9838.27
498.673	9909.95
498.876	9979.58
499.079	10202.81
499.282	10043.07
499.485	10454.71
499.689	10669.75
499.892	10598.07
500.095	10716.85
500.298	10948.27
500.501	10782.38
500.705	11044.52
500.908	11103.92
501.111	11222.7
501.314	11382.44
501.517	11601.57
501.72	11595.43
501.923	11523.75
502.126	11871.9
502.329	12015.26
502.532	12336.79
502.735	12113.56
502.938	12457.62
503.141	12340.89
503.344	12547.73
503.547	12785.3
503.75	13072.01
503.953	12908.18
504.156	13053.58
504.359	13371.02
504.562	13422.22
504.765	13715.08
504.968	13713.03
505.17	14098.05
505.373	13833.86
505.576	14116.48
505.779	14014.08
505.982	14257.79
506.185	14507.64
506.387	14593.65
506.59	14833.27
506.793	15140.46
506.996	15236.72
507.198	15461.99
507.401	15384.17
507.604	15685.22
507.807	15894.11
508.009	15967.84
508.212	15838.82
508.415	16266.85
508.617	16301.66
508.82	16514.65
509.022	16211.55
509.225	16944.72
509.428	17012.31
509.63	17045.07
509.833	17288.78
510.035	17477.19
510.238	17428.04
510.44	17645.13
510.643	17944.13
510.845	18271.81
511.048	18062.91
511.25	18318.91
511.453	18630.2
511.655	19095.09
511.858	18996.79
512.06	19025.46
512.262	19314.22
512.465	19357.23
512.667	19447.34
512.87	19711.53
513.072	19795.5
513.274	20241.95
513.477	20399.65
513.679	20559.39
513.881	20450.85
514.084	20981.27
514.286	20833.82
514.488	20950.55
514.69	21487.12
514.893	21562.89
515.095	21407.25
515.297	22107.65
515.499	22007.3
515.701	22095.36
515.904	22179.33
516.106	22564.35
516.308	22812.15
516.51	22975.99
516.712	22908.41
516.914	23119.35
517.116	23535.09
517.318	23852.52
517.52	23764.46
517.722	23981.54
517.925	23991.78
518.127	24577.5
518.329	24729.05
518.531	24624.61
518.733	25052.63
518.935	25083.35
519.136	25157.08
519.338	25441.75
519.54	25636.3
519.742	25765.32
519.944	25787.85
520.146	26090.95
520.348	26301.89
520.55	26510.78
520.752	26697.15
520.954	26791.36
521.155	26883.52
521.357	27207.09
521.559	27200.95
521.761	27555.25
521.963	27923.88
522.164	28128.68
522.366	27952.55
522.568	28308.9
522.77	28149.16
522.971	29058.46
523.173	28669.34
523.375	29044.12
523.576	28972.44
523.778	29167
523.98	29484.44
524.181	29347.22
524.383	29277.59
524.584	29611.41
524.786	29439.38
524.988	29715.86
525.189	29707.66
525.391	29984.14
525.592	30309.77
525.794	30512.52
525.995	30858.62
526.197	30444.93
526.398	30569.86
526.6	30580.1
526.801	30883.2
527.003	30979.45
527.204	31354.23
527.406	31352.18
527.607	31223.16
527.808	31493.49
528.01	31044.99
528.211	31536.5
528.412	31903.09
528.614	32021.87
528.815	31722.87
529.016	31954.29
529.218	31898.99
529.419	31898.99
529.62	32083.31
529.822	32310.63
530.023	32376.17
530.224	32015.72
530.425	32181.61
530.626	31972.72
530.828	32007.53
531.029	32781.67
531.23	32359.78
531.431	32531.81
531.632	32445.8
531.833	32816.48
532.035	32306.54
532.236	32687.46
532.437	32568.68
532.638	32568.68
532.839	32873.82
533.04	32820.58
533.241	32685.41
533.442	32912.74
533.643	32861.54
533.844	32738.66
534.045	33254.75
534.246	32677.22
534.447	32810.34
534.648	32963.93
534.849	33443.16
535.05	32654.69
535.251	32732.51
535.451	32920.93
535.652	33049.95
535.853	32877.92
536.054	33045.85
536.255	32716.13
536.456	32777.57
536.657	33484.12
536.857	32908.64
537.058	32861.54
537.259	32892.26
537.46	33037.66
537.66	32750.95
537.861	32752.99
538.062	32828.77
538.263	32839.01
538.463	32669.03
538.664	32902.5
538.865	33172.83
539.065	32965.98
539.266	32830.82
539.466	33252.7
539.667	32636.26
539.868	33056.09
540.068	32666.98
540.269	32724.32
540.469	33234.27
540.67	32781.67
540.87	32890.21
541.071	32636.26
541.271	33279.32
541.472	32505.19
541.672	32935.26
541.873	32519.53
542.073	32591.2
542.274	33004.89
542.474	32593.25
542.675	32875.87
542.875	33119.58
543.075	32540
543.276	32517.48
543.476	32994.65
543.676	32681.31
543.877	32544.1
544.077	32822.62
544.277	32652.64
544.478	32861.54
544.678	32476.52
544.878	32591.2
545.078	32722.27
545.279	32458.09
545.479	32691.55
545.679	32593.25
545.879	32558.44
546.079	32949.6
546.28	32497
546.48	32304.49
546.68	32834.91
546.88	32374.12
547.08	32578.92
547.28	32341.35
547.48	32150.89
547.68	32775.52
547.88	32324.97
548.081	32572.77
548.281	32034.16
548.481	32408.93
548.681	32292.2
548.881	32574.82
549.081	32587.11
549.28	32042.35
549.48	32462.18
549.68	32202.09
549.88	32709.99
550.08	32038.25
550.28	32413.03
550.48	32339.3
550.68	32605.54
550.88	32046.44
551.08	32548.2
551.279	32181.61
551.479	32281.96
551.679	32318.82
551.879	32150.89
552.079	32329.06
552.278	32005.48
552.478	31898.99
552.678	32034.16
552.878	32365.93
553.077	31954.29
553.277	31907.18
553.477	32673.12
553.676	32193.9
553.876	32023.92
554.076	32093.55
554.275	31925.61
554.475	31710.58
554.674	32093.55
554.874	31878.51
555.074	32066.92
555.273	32097.64
555.473	32243.05
555.672	31849.84
555.872	31968.62
556.071	32132.46
556.271	31927.66
556.47	31731.06
556.67	31464.82
556.869	31903.09
557.068	31886.7
557.268	31485.3
557.467	31591.8
557.667	31372.66
557.866	31483.25
558.065	31268.22
558.265	31227.26
558.464	31362.42
558.663	31663.47
558.863	31151.48
559.062	31659.38
559.261	31077.76
559.461	31540.6
559.66	30809.47
559.859	31214.97
560.058	30999.93
560.258	31038.84
560.457	30944.64
560.656	30899.58
560.855	30737.79
561.054	31024.51
561.253	30807.42
561.453	30586.24
561.652	30836.09
561.851	31055.23
562.05	30850.43
562.249	30799.23
562.448	30930.3
562.647	30510.47
562.846	30573.95
563.045	30442.88
563.244	30135.69
563.443	31034.75
563.642	30025.1
563.841	30408.07
564.04	30385.54
564.239	30612.87
564.438	29973.9
564.637	30485.89
564.836	30203.27
565.035	29891.98
565.234	30289.29
565.432	30000.52
565.631	29828.49
565.83	30109.07
566.029	29812.11
566.228	29638.03
566.427	29605.27
566.625	29691.28
566.824	29418.9
567.023	29511.06
567.222	29283.73
567.42	29754.77
567.619	29261.21
567.818	29361.56
568.016	29027.74
568.215	29982.09
568.414	29253.01
568.612	29142.42
568.811	29040.03
569.01	29179.29
569.208	28726.69
569.407	29224.34
569.605	28536.23
569.804	28796.32
570.002	28792.22
570.201	28618.14
570.4	28511.65
570.598	28521.89
570.797	28327.33
570.995	28247.46
571.193	28155.3
571.392	28460.45
571.59	27932.08
571.789	28130.73
571.987	27999.66
572.186	28446.12
572.384	27977.13
572.582	28016.04
572.781	28030.38
572.979	27510.19
573.177	27862.44
573.376	28140.97
573.574	27882.92
573.772	27583.92
573.971	27289.01
574.169	27205.05
574.367	27176.37
574.565	27438.51
574.763	27282.87
574.962	27039.16
575.16	27049.4
575.358	27270.58
575.556	26824.12
575.754	27102.65
575.952	26873.28
576.151	27116.98
576.349	26631.61
576.547	26777.02
576.745	26787.26
576.943	26586.56
577.141	26322.37
577.339	26805.69
577.537	26234.31
577.735	26545.6
577.933	26240.45
578.131	26308.04
578.329	26279.36
578.527	26209.73
578.725	26174.92
578.923	26344.9
579.121	25931.21
579.319	25834.96
579.516	25816.52
579.714	25875.91
579.912	25871.82
580.11	25671.12
580.308	25779.66
580.506	25599.44
580.704	25286.1
580.901	25546.19
581.099	25853.39
581.297	25505.23
581.495	25066.97
581.692	25331.15
581.89	25001.43
582.088	25296.34
582.285	25015.77
582.483	25331.15
582.681	24888.79
582.878	24790.49
583.076	24595.93
583.274	24724.96
583.471	24456.67
583.669	24753.63
583.866	24114.66
584.064	24665.56
584.262	24493.54
584.459	24210.92
584.657	24522.21
584.854	24432.1
585.052	24022.5
585.249	24264.16
585.447	23965.16
585.644	23836.14
585.841	24020.45
586.039	24135.14
586.236	24059.37
586.434	23750.12
586.631	23442.93
586.828	23709.16
587.026	23668.2
587.223	23678.44
587.42	23500.27
587.618	23766.51
587.815	23449.07
588.012	23182.84
588.21	23121.4
588.407	23137.78
588.604	23301.62
588.801	23397.87
588.999	22857.21
589.196	22992.37
589.393	22965.75
589.59	23102.96
589.787	22543.87
589.984	22664.7
590.182	22382.08
590.379	22906.36
590.576	22261.25
590.773	22255.11
590.97	22216.19
591.167	22369.79
591.364	22103.56
591.561	22128.13
591.758	22052.36
591.955	21925.38
592.152	22218.24
592.349	22117.89
592.546	21800.46
592.743	21954.05
592.94	21843.46
593.137	22101.51
593.334	21829.13
593.531	21374.48
593.727	21863.94
593.924	21734.92
594.121	21368.34
594.318	21534.22
594.515	21169.68
594.712	21358.1
594.908	21028.37
595.105	21208.59
595.302	21210.64
595.499	21188.11
595.696	20837.91
595.892	20700.7
596.089	20721.18
596.286	20745.75
596.482	20729.37
596.679	20762.14
596.876	20534.81
597.072	20502.04
597.269	20712.99
597.466	20391.45
597.662	20381.21
597.859	20086.31
598.055	20491.8
598.252	20074.02
598.448	20332.06
598.645	19928.61
598.841	19990.05
599.038	19988
599.234	20061.73
599.431	19717.67
599.627	19844.65
599.824	19703.34
600.02	19559.98
600.217	19734.06
600.413	19541.55
600.609	19320.37
600.806	19492.4
601.002	19482.16
601.198	19467.82
601.395	19312.17
601.591	19332.65
601.787	19129.91
601.984	19144.24
602.18	19336.75
602.376	19045.94
602.572	18882.1
602.769	19027.51
602.965	18609.72
603.161	18720.31
603.357	18791.99
603.553	18681.4
603.75	18656.82
603.946	18572.86
604.142	18540.09
604.338	18359.87
604.534	18404.92
604.73	18193.98
604.926	18310.72
605.122	18265.66
605.318	18030.15
605.514	18028.1
605.71	18101.83
605.906	18024
606.102	18200.13
606.298	18114.11
606.494	18187.84
606.69	17866.31
606.886	17790.53
607.082	17567.31
607.278	17614.41
607.474	17559.11
607.67	17552.97
607.866	17434.19
608.062	17704.52
608.257	17647.18
608.453	17608.26
608.649	17692.23
608.845	17399.37
609.041	17421.9
609.236	17194.57
609.432	17272.4
609.628	17430.09
609.824	17258.06
610.019	17153.62
610.215	17034.83
610.411	17221.2
610.606	17350.22
610.802	17071.7
610.998	16840.28
611.193	17170
611.389	16893.52
611.584	16957.01
611.78	16764.5
611.976	16889.43
612.171	16713.3
612.367	16787.03
612.562	16752.21
612.758	16678.49
612.953	16551.51
613.149	16854.61
613.344	16707.16
613.539	16825.94
613.735	16475.74
613.93	16688.73
614.126	16514.65
614.321	16729.69
614.517	16475.74
614.712	16350.81
614.907	16463.45
615.103	16520.79
615.298	16209.5
615.493	16496.22
615.688	15978.08
615.884	16631.38
616.079	16031.33
616.274	16440.92
616.47	16043.62
616.665	16363.1
616.86	16025.18
617.055	16121.44
617.25	16064.1
617.445	16246.37
617.641	15824.48
617.836	16105.06
618.031	15644.26
618.226	15916.64
618.421	15742.57
618.616	15822.44
618.811	15513.19
619.006	15914.59
619.201	15259.24
619.396	15541.86
619.591	15494.76
619.786	15478.38
619.981	15425.13
620.176	15347.31
620.371	15187.57
620.566	15142.51
620.761	15068.78
620.956	15115.89
621.151	15097.45
621.346	14968.43
621.541	14624.37
621.735	14978.67
621.93	14405.24
622.125	14849.65
622.32	14474.87
622.515	14681.72
622.709	14573.17
622.904	14485.11
623.099	14257.79
623.294	14374.52
623.488	14225.02
623.683	13979.26
623.878	13825.67
624.072	14003.84
624.267	13942.4
624.462	13758.08
624.656	13794.95
624.851	13440.65
625.046	13696.64
625.24	13723.27
625.435	13485.7
625.629	13428.36
625.824	13424.26
626.018	13395.59
626.213	12910.22
626.407	13227.66
626.602	12840.59
626.796	13129.36
626.991	13006.48
627.185	12992.14
627.38	12648.08
627.574	12551.83
627.768	12551.83
627.963	12410.52
628.157	12457.62
628.352	12576.41
628.546	12195.48
628.74	12367.51
628.935	12103.32
629.129	12146.33
629.323	12011.17
629.517	11828.9
629.712	11900.58
629.906	12082.84
630.1	11583.14
630.294	11726.5
630.489	11577
630.683	11722.4
630.877	11519.65
631.071	11476.65
631.265	11447.97
631.459	11382.44
631.653	11447.97
631.848	11447.97
632.042	11167.4
632.236	11316.9
632.43	11036.33
632.624	11157.16
632.818	11046.57
633.012	10960.56
633.206	10876.59
633.4	10929.84
633.594	10780.34
633.788	10886.83
633.982	10811.06
634.176	10829.49
634.369	10421.94
634.563	10487.48
634.757	10571.44
634.951	10505.91
635.145	10260.15
635.339	10421.94
635.533	10297.02
635.726	10094.27
635.92	10133.18
636.114	10159.8
636.308	9946.81
636.501	10090.17
636.695	9828.03
636.889	9791.17
637.083	9901.76
637.276	9625.28
637.47	9598.66
637.664	9799.36
637.857	9701.06
638.051	9588.42
638.244	9490.12
638.438	9469.64
638.632	9426.63
638.825	9639.62
639.019	9359.05
639.212	9203.4
639.406	9461.44
639.599	9221.83
639.793	9332.42
639.986	9025.23
640.18	9119.43
640.373	9170.63
640.567	9019.08
640.76	9023.18
640.954	8781.52
641.147	8730.32
641.34	8789.71
641.534	8777.42
641.727	8703.7
641.92	8660.69
642.114	8529.62
642.307	8654.55
642.5	8308.44
642.694	8433.36
642.887	8543.95
643.08	8472.28
643.273	8552.15
643.467	8363.73
643.66	8142.55
643.853	8300.25
644.046	8173.27
644.239	8038.11
644.432	8017.63
644.626	8115.93
644.819	7866.08
645.012	8036.06
645.205	7950.04
645.398	7802.59
645.591	7855.84
645.784	7892.7
645.977	7886.56
646.17	7814.88
646.363	7839.45
646.556	7548.64
646.749	7669.47
646.942	7489.25
647.135	7409.38
647.328	7456.48
647.521	7528.16
647.714	7313.13
647.907	7423.72
648.099	7255.78
648.292	7395.04
648.485	7395.04
648.678	7100.14
648.871	7171.82
649.064	7048.94
649.256	7286.5
649.449	7143.14
649.642	7186.15
649.835	6874.86
650.027	6981.35
650.22	6993.64
650.413	6817.52
650.605	6786.8
650.798	6893.29
650.991	6762.22
651.183	6774.51
651.376	6665.97
651.568	6803.18
651.761	6571.76
651.954	6616.82
652.146	6481.65
652.339	6715.12
652.531	6641.39
652.724	6510.32
652.916	6239.99
653.109	6305.53
653.301	6326
653.494	6455.03
653.686	6252.28
653.879	6514.42
654.071	6235.89
654.263	6117.11
654.456	6145.78
654.648	6119.16
654.84	6166.26
655.033	5961.47
655.225	6057.72
655.417	6119.16
655.61	6119.16
655.802	6041.34
655.994	5891.84
656.186	5752.57
656.379	5811.96
656.571	6070.01
656.763	5889.79
656.955	5719.81
657.148	5793.53
657.34	5703.42
657.532	5660.41
657.724	5687.04
657.916	5760.77
658.108	5531.39
658.3	5773.05
658.492	5539.58
658.684	5656.32
658.876	5588.74
659.068	5478.15
659.26	5461.76
659.452	5439.23
659.644	5451.52
659.836	5457.67
660.028	5437.19
660.22	5117.7
660.412	5170.95
660.604	5332.74
660.796	5218.05
660.988	5183.24
661.18	5199.62
661.372	5007.11
661.563	5259.01
661.755	5056.26
661.947	5095.18
662.139	5150.47
662.331	5048.07
662.522	5060.36
662.714	5025.54
662.906	4996.87
663.097	4888.33
663.289	4849.42
663.481	4896.52
663.673	4740.88
663.864	4955.91
664.056	4863.76
664.247	4650.77
664.439	4753.16
664.631	4822.8
664.822	4712.21
665.014	4644.62
665.205	4632.33
665.397	4706.06
665.588	4673.29
665.78	4529.94
665.971	4558.61
666.163	4548.37
666.354	4579.09
666.546	4599.57
666.737	4435.73
666.929	4470.55
667.12	4343.57
667.311	4368.15
667.503	4431.63
667.694	4392.72
667.885	4353.81
668.077	4376.34
668.268	4339.48
668.459	4239.12
668.651	4380.43
668.842	4386.58
669.033	4253.46
669.224	4155.16
669.416	4286.23
669.607	4241.17
669.798	4192.02
669.989	4085.53
670.18	4235.03
670.371	4097.81
670.563	4206.36
670.754	4081.43
670.945	4003.61
671.136	4011.8
671.327	3948.31
671.518	4120.34
671.709	3964.7
671.9	3974.94
672.091	3989.27
672.282	3972.89
672.473	3956.5
672.664	3999.51
672.855	3997.46
673.046	3915.55
673.237	3874.59
673.428	3845.91
673.619	3819.29
673.809	3868.44
674	3833.63
674.191	3729.18
674.382	3759.9
674.573	3800.86
674.764	3813.15
674.954	3665.69
675.145	3745.56
675.336	3702.56
675.527	3729.18
675.717	3667.74
675.908	3692.32
676.099	3794.72
676.289	3667.74
676.48	3739.42
676.671	3677.98
676.861	3659.55
677.052	3688.22
677.243	3677.98
677.433	3655.45
677.624	3540.77
677.814	3557.15
678.005	3569.44
678.195	3553.06
678.386	3753.76
678.576	3647.26
678.767	3512.1
678.957	3499.81
679.148	3532.58
679.338	3643.17
679.529	3641.12
679.719	3501.86
679.909	3391.27
680.1	3548.96
680.29	3510.05
680.481	3399.46
680.671	3528.48
680.861	3485.47
681.052	3438.37
681.242	3479.33
681.432	3526.43
681.622	3460.9
681.813	3448.61
682.003	3546.91
682.193	3411.75
682.383	3389.22
682.573	3303.2
682.764	3493.66
682.954	3303.2
683.144	3446.56
683.334	3389.22
683.524	3329.83
683.714	3354.4
683.904	3342.11
684.094	3391.27
684.284	3389.22
684.474	3393.31
684.664	3217.19
684.854	3247.91
685.044	3315.49
685.234	3290.92
685.424	3125.03
685.614	3180.32
685.804	3311.39
685.994	3276.58
686.184	3247.91
686.374	3178.28
686.564	3235.62
686.753	3149.61
686.943	3116.84
687.133	3147.56
687.323	3127.08
687.513	3047.21
687.702	3168.04
687.892	2963.24
688.082	3018.54
688.272	3073.83
688.461	2981.67
688.651	3032.87
688.841	2893.61
689.03	3065.64
689.22	2909.99
689.41	2969.38
689.599	2930.47
689.789	2965.29
689.979	2852.65
690.168	2975.53
690.358	2885.42
690.547	2957.1
690.737	2887.47
690.926	2920.23
691.116	2881.32
691.305	2879.27
691.495	2881.32
691.684	2826.03
691.874	2776.87
692.063	2717.48
692.252	2613.04
692.442	2746.16
692.631	2572.08
692.82	2596.65
693.01	2660.14
693.199	2709.29
693.388	2688.81
693.578	2582.32
693.767	2703.15
693.956	2635.57
694.146	2662.19
694.335	2467.63
694.524	2590.51
694.713	2643.76
694.902	2432.82
695.092	2596.65
695.281	2438.96
695.47	2494.26
695.659	2477.87
695.848	2498.35
696.037	2441.01
696.226	2498.35
696.415	2449.2
696.604	2379.57
696.793	2475.82
696.982	2377.52
697.171	2348.85
697.36	2416.43
697.549	2303.79
697.738	2346.8
697.927	2414.38
698.116	2332.47
698.305	2367.28
698.494	2197.3
698.683	2303.79
698.872	2350.9
699.061	2262.83
699.25	2283.31
699.438	2326.32
699.627	2283.31
699.816	2326.32
700.005	2287.41
700.193	2234.16
700.382	2350.9
700.571	2111.29
700.76	2295.6
700.948	2260.79
701.137	2111.29
701.326	2268.98
701.514	2191.16
701.703	2246.45
701.892	2277.17
702.08	2334.51
702.269	2258.74
702.457	2221.88
702.646	2162.48
702.834	2205.49
703.023	2156.34
703.212	2203.44
703.4	2281.27
703.589	2193.2
703.777	2207.54
703.965	2154.29
704.154	2148.15
704.342	2178.87
704.531	2252.59
704.719	2051.89
704.907	2127.67
705.096	2076.47
705.284	2154.29
705.472	2121.52
705.661	2129.72
705.849	2211.64
706.037	2185.01
706.226	2103.09
706.414	2193.2
706.602	2094.9
706.79	2256.69
706.979	2142
707.167	2072.37
707.355	2123.57
707.543	2121.52
707.731	2139.96
707.919	2174.77
708.107	2144.05
708.296	2121.52
708.484	2133.81
708.672	2236.21
708.86	2078.52
709.048	2121.52
709.236	2176.82
709.424	2125.62
709.612	2062.13
709.8	2170.68
709.988	2090.81
710.176	2258.74
710.364	2162.48
710.551	2223.92
710.739	2176.82
710.927	2070.33
711.115	2185.01
711.303	2172.72
711.491	2207.54
711.679	2139.96
711.866	2109.24
712.054	2170.68
712.242	2172.72
712.43	2144.05
712.617	2090.81
712.805	2158.39
712.993	2174.77
713.181	2195.25
713.368	2211.64
713.556	2125.62
713.744	2000.69
713.931	2223.92
714.119	2234.16
714.306	2203.44
714.494	2242.36
714.682	2162.48
714.869	2119.48
715.057	2219.83
715.244	2115.38
715.432	2250.55
715.619	2113.33
715.807	2162.48
715.994	2230.07
716.182	2144.05
716.369	2174.77
716.556	2195.25
716.744	2162.48
716.931	2078.52
717.119	2230.07
717.306	2262.83
717.493	2221.88
717.681	2086.71
717.868	2162.48
718.055	2113.33
718.242	2295.6
718.43	2170.68
718.617	2209.59
718.804	2162.48
718.991	2193.2
719.179	2230.07
719.366	2336.56
719.553	2412.34
719.74	2187.06
719.927	2311.99
720.114	2250.55
720.301	2332.47
720.488	2240.31
720.676	2135.86
720.863	2217.78
721.05	2262.83
721.237	2262.83
721.424	2262.83
721.611	2252.59
721.798	2148.15
721.985	2301.75
722.172	2275.12
722.358	2287.41
722.545	2279.22
722.732	2170.68
722.919	2318.13
723.106	2242.36
723.293	2283.31
723.48	2260.79
723.667	2238.26
723.853	2381.62
724.04	2221.88
724.227	2199.35
724.414	2238.26
724.6	2287.41
724.787	2254.64
724.974	2295.6
725.161	2268.98
725.347	2219.83
725.534	2309.94
725.72	2209.59
725.907	2293.55
726.094	2244.4
726.28	2285.36
726.467	2154.29
726.653	2301.75
726.84	2254.64
727.027	2395.95
727.213	2244.4
727.4	2228.02
727.586	2352.95
727.773	2385.71
727.959	2232.12
728.145	2387.76
728.332	2262.83
728.518	2334.51
728.705	2297.65
728.891	2309.94
729.077	2238.26
729.264	2213.68
729.45	2258.74
729.636	2406.19
729.823	2395.95
730.009	2305.84
730.195	2357.04
730.382	2271.03
730.568	2307.89
730.754	2324.27
730.94	2387.76
731.126	2350.9
731.313	2410.29
731.499	2416.43
731.685	2297.65
731.871	2287.41
732.057	2268.98
732.243	2377.52
732.429	2311.99
732.615	2359.09
732.801	2342.71
732.987	2330.42
733.173	2283.31
733.359	2275.12
733.545	2285.36
733.731	2232.12
733.917	2230.07
734.103	2402.1
734.289	2271.03
734.475	2199.35
734.661	2297.65
734.847	2283.31
735.033	2281.27
735.219	2248.5
735.404	2264.88
735.59	2252.59
735.776	2262.83
735.962	2336.56
736.148	2258.74
736.333	2234.16
736.519	2367.28
736.705	2217.78
736.89	2311.99
737.076	2178.87
737.262	2240.31
737.447	2293.55
737.633	2287.41
737.819	2215.73
738.004	2299.7
738.19	2271.03
738.375	2187.06
738.561	2228.02
738.747	2119.48
738.932	2113.33
739.118	2246.45
739.303	2254.64
739.489	2258.74
739.674	2162.48
739.859	2207.54
740.045	2234.16
740.23	2199.35
740.416	2182.96
740.601	2240.31
740.786	2166.58
740.972	2178.87
741.157	2189.11
741.342	2197.3
741.528	2117.43
741.713	2139.96
741.898	2066.23
742.084	2139.96
742.269	2055.99
742.454	2076.47
742.639	2197.3
742.824	2037.56
743.01	2170.68
743.195	2127.67
743.38	2148.15
743.565	2144.05
743.75	2135.86
743.935	2047.8
744.12	2031.41
744.305	2117.43
744.49	2021.17
744.675	2154.29
744.86	1957.69
745.045	1986.36
745.23	1965.88
745.415	2041.65
745.6	1877.82
745.785	1994.55
745.97	1937.21
746.155	1881.91
746.34	1982.26
746.525	1980.22
746.71	1992.5
746.895	1865.53
747.079	1967.93
747.264	1834.81
747.449	1836.86
747.634	1799.99
747.819	1824.57
748.003	1883.96
748.188	1795.9
748.373	1898.3
748.557	1804.09
748.742	1855.29
748.927	1773.37
749.111	1818.43
749.296	1947.45
749.481	1847.1
749.665	1736.51
749.85	1707.84
750.034	1673.02
750.219	1797.95
750.404	1746.75
750.588	1724.22
750.773	1718.08
750.957	1728.31
751.141	1652.54
751.326	1623.87
751.51	1666.88
751.695	1656.64
751.879	1722.17
752.064	1578.81
752.248	1560.38
752.432	1550.14
752.617	1656.64
752.801	1509.18
752.985	1656.64
753.17	1558.33
753.354	1519.42
753.538	1556.29
753.722	1558.33
753.907	1498.94
754.091	1460.03
754.275	1361.73
754.459	1582.91
754.643	1525.57
754.828	1431.36
755.012	1472.32
755.196	1455.94
755.38	1410.88
755.564	1310.53
755.748	1433.41
755.932	1339.2
756.116	1429.31
756.3	1394.5
756.484	1365.82
756.668	1392.45
756.852	1351.49
757.036	1279.81
757.22	1288
757.404	1294.15
757.588	1335.1
757.772	1328.96
757.956	1398.59
758.14	1345.34
758.323	1238.85
758.507	1269.57
758.691	1171.27
758.875	1357.63
759.059	1244.99
759.242	1255.23
759.426	1218.37
759.61	1249.09
759.794	1177.41
759.977	1290.05
760.161	1132.36
760.345	1152.84
760.528	1140.55
760.712	1214.27
760.895	1218.37
761.079	1244.99
761.263	1136.45
761.446	1124.16
761.63	1177.41
761.813	1183.56
761.997	999.24
762.18	1083.2
762.364	1161.03
762.547	1173.32
762.731	1132.36
762.914	1072.96
763.098	991.05
763.281	1087.3
763.464	1132.36
763.648	1161.03
763.831	1060.68
764.015	1087.3
764.198	1062.73
764.381	1142.6
764.564	1148.74
764.748	993.09
764.931	1118.02
765.114	1079.11
765.297	1025.86
765.481	1046.34
765.664	1013.57
765.847	1062.73
766.03	1105.73
766.213	952.13
766.397	1068.87
766.58	980.81
766.763	1036.1
766.946	1046.34
767.129	1005.38
767.312	974.66
767.495	960.33
767.678	956.23
767.861	948.04
768.044	968.52
768.227	978.76
768.41	960.33
768.593	1017.67
768.776	964.42
768.959	1013.57
769.142	993.09
769.324	948.04
769.507	964.42
769.69	913.22
769.873	989
770.056	960.33
770.239	917.32
770.421	939.85
770.604	886.6
770.787	884.55
770.97	931.66
771.152	837.45
771.335	884.55
771.518	810.82
771.7	900.94
771.883	821.06
772.066	882.5
772.248	880.46
772.431	917.32
772.613	788.3
772.796	800.59
772.978	773.96
773.161	849.74
773.343	784.2
773.526	796.49
773.708	814.92
773.891	761.67
774.073	886.6
774.256	810.82
774.438	800.59
774.621	728.91
774.803	778.06
774.985	739.15
775.168	763.72
775.35	812.87
775.532	687.95
775.715	634.7
775.897	802.63
776.079	673.61
776.261	765.77
776.444	702.28
776.626	694.09
776.808	751.43
776.99	718.67
777.173	724.81
777.355	755.53
777.537	722.76
777.719	651.08
777.901	702.28
778.083	724.81
778.265	681.8
778.447	810.82
778.629	741.19
778.811	608.08
778.993	626.51
779.175	724.81
779.357	632.65
779.539	636.75
779.721	581.45
779.903	632.65
780.085	632.65
780.267	552.78
780.449	698.19
780.631	632.65
780.812	595.79
780.994	540.49
781.176	649.04
781.358	612.17
781.54	536.4
781.721	612.17
781.903	653.13
782.085	466.77
782.267	589.64
782.448	581.45
782.63	526.16
782.812	565.07
782.993	507.73
783.175	563.02
783.357	538.45
783.538	624.46
783.72	544.59
783.901	550.73
784.083	579.4
784.264	485.2
784.446	528.21
784.627	595.79
784.809	591.69
784.99	489.29
785.172	513.87
785.353	489.29
785.535	440.14
785.716	499.53
785.897	517.97
786.079	560.97
786.26	540.49
786.441	446.29
786.623	450.38
786.804	370.51
786.985	431.95
787.167	544.59
787.348	470.86
787.529	415.57
787.71	434
787.891	374.61
788.073	448.33
788.254	386.9
788.435	468.81
788.616	364.37
788.797	380.75
788.978	382.8
789.159	393.04
789.34	470.86
789.522	436.05
789.703	360.27
789.884	354.13
790.065	431.95
790.246	352.08
790.427	401.23
790.607	431.95
790.788	366.42
790.969	345.94
791.15	415.57
791.331	393.04
791.512	327.5
791.693	304.98
791.874	315.22
792.054	393.04
792.235	386.9
792.416	300.88
792.597	317.26
792.778	366.42
792.958	386.9
793.139	354.13
793.32	286.54
793.5	370.51
793.681	411.47
793.862	280.4
794.042	321.36
794.223	325.46
794.404	278.35
794.584	309.07
794.765	272.21
794.945	321.36
795.126	288.59
795.306	329.55
795.487	403.28
795.667	335.7
795.848	372.56
796.028	296.78
796.209	378.7
796.389	296.78
796.57	337.74
796.75	368.46
796.93	259.92
797.111	278.35
797.291	296.78
797.471	319.31
797.652	288.59
797.832	223.06
798.012	313.17
798.192	270.16
798.373	264.02
798.553	311.12
798.733	253.78
798.913	190.29
799.093	225.11
799.274	259.92
799.454	261.97
799.634	218.96
799.814	302.93
799.994	247.63
800.174	286.54
800.354	354.13
800.534	188.24
800.714	206.67
800.894	229.2
801.074	210.77
801.254	173.91
801.434	251.73
801.614	233.3
801.794	249.68
801.974	558.92
802.154	233.3
802.334	257.87
802.514	282.45
802.693	188.24
802.873	253.78
803.053	264.02
803.233	276.31
803.413	227.15
803.592	323.41
803.772	200.53
803.952	221.01
804.131	216.91
804.311	278.35
804.491	231.25
804.67	272.21
804.85	276.31
805.03	243.54
805.209	137.04
805.389	171.86
805.568	212.82
805.748	206.67
805.928	204.63
806.107	229.2
806.287	194.39
806.466	245.59
806.646	200.53
806.825	157.52
807.004	204.63
807.184	210.77
807.363	188.24
807.543	190.29
807.722	221.01
807.901	178
808.081	202.58
808.26	128.85
808.439	212.82
808.619	249.68
808.798	194.39
808.977	180.05
809.156	223.06
809.336	163.67
809.515	204.63
809.694	231.25
809.873	186.19
810.052	130.9
810.231	206.67
810.411	161.62
810.59	122.71
810.769	223.06
810.948	268.11
811.127	116.56
811.306	143.19
811.485	221.01
811.664	223.06
811.843	141.14
812.022	186.19
812.201	178
812.38	151.38
812.559	157.52
812.737	175.95
812.916	157.52
813.095	130.9
813.274	182.1
813.453	173.91
813.632	169.81
813.811	202.58
813.989	147.28
814.168	161.62
814.347	122.71
814.526	227.15
814.704	180.05
814.883	214.87
815.062	141.14
815.24	153.43
815.419	124.76
815.598	153.43
815.776	126.8
815.955	106.32
816.133	67.41
816.312	155.47
816.49	198.48
816.669	137.04
816.847	202.58
817.026	51.03
817.204	149.33
817.383	155.47
817.561	128.85
817.74	128.85
817.918	143.19
818.097	89.94
818.275	145.24
818.453	147.28
818.632	112.47
818.81	145.24
818.988	180.05
819.167	94.04
819.345	175.95
819.523	139.09
819.701	65.36
819.879	108.37
820.058	81.75
820.236	137.04
820.414	63.32
820.592	89.94
820.77	153.43
820.948	100.18
821.127	132.95
821.305	55.12
821.483	79.7
821.661	104.28
821.839	173.91
822.017	151.38
822.195	175.95
822.373	120.66
822.551	110.42
822.729	169.81
822.907	141.14
823.085	128.85
823.262	167.76
823.44	75.6
823.618	63.32
823.796	151.38
823.974	94.04
824.152	159.57
824.329	130.9
824.507	91.99
824.685	173.91
824.863	108.37
825.04	71.51
825.218	114.52
825.396	149.33
825.574	149.33
825.751	188.24
825.929	57.17
826.107	59.22
826.284	114.52
826.462	145.24
826.639	118.61
826.817	48.98
826.994	112.47
827.172	57.17
827.349	145.24
827.527	65.36
827.704	75.6
827.882	79.7
828.059	114.52
828.237	65.36
828.414	126.8
828.591	26.45
828.769	26.45
828.946	141.14
829.124	102.23
829.301	104.28
829.478	126.8
829.655	96.08
829.833	163.67
830.01	10.07
830.187	184.15
830.364	46.93
830.542	96.08
830.719	71.51
830.896	96.08
831.073	75.6
831.25	124.76
831.427	83.8
831.604	22.36
831.782	122.71
831.959	51.03
832.136	63.32
832.313	73.56
832.49	36.69
832.667	79.7
832.844	96.08
833.021	128.85
833.198	51.03
833.374	116.56
833.551	126.8
833.728	126.8
833.905	108.37
834.082	1.88
834.259	108.37
834.436	186.19
834.612	65.36
834.789	137.04
834.966	87.89
835.143	67.41
835.319	10.07
835.496	104.28
835.673	89.94
835.85	79.7
836.026	75.6
836.203	63.32
836.38	46.93
836.556	151.38
836.733	69.46
836.909	100.18
837.086	59.22
837.262	83.8
837.439	55.12
837.616	116.56
837.792	65.36
837.968	81.75
838.145	81.75
838.321	83.8
838.498	40.79
838.674	124.76
838.851	116.56
839.027	55.12
839.203	73.56
839.38	108.37
839.556	85.84
839.732	110.42
839.909	63.32
840.085	24.4
840.261	38.74
840.437	55.12
840.614	34.64
840.79	104.28
840.966	48.98
841.142	44.88
841.318	128.85
841.494	22.36
841.671	79.7
841.847	63.32
842.023	108.37
842.199	-14.51
842.375	14.17
842.551	75.6
842.727	48.98
842.903	77.65
843.079	65.36
843.255	73.56
843.431	61.27
843.607	59.22
843.783	61.27
843.959	34.64
844.134	67.41
844.31	83.8
844.486	18.26
844.662	-37.03
844.838	83.8
845.013	128.85
845.189	71.51
845.365	14.17
845.541	100.18
845.716	83.8
845.892	83.8
846.068	48.98
846.244	34.64
846.419	128.85
846.595	91.99
846.77	28.5
846.946	98.13
847.122	57.17
847.297	51.03
847.473	63.32
847.648	42.84
847.824	102.23
847.999	89.94
848.175	-8.36
848.35	69.46
848.526	91.99
848.701	83.8
848.876	79.7
849.052	44.88
849.227	51.03
849.403	-8.36
849.578	-4.27
849.753	-6.31
849.929	36.69
850.104	108.37
850.279	1.88
850.454	75.6
850.63	71.51
850.805	73.56
850.98	-2.22
851.155	30.55
851.33	28.5
851.505	-12.46
851.681	98.13
851.856	42.84
852.031	20.31
852.206	36.69
852.381	-4.27
852.556	-18.6
852.731	67.41
852.906	89.94
853.081	10.07
853.256	106.32
853.431	-0.17
853.606	65.36
853.781	73.56
853.956	-2.22
854.131	36.69
854.305	-32.94
854.48	98.13
854.655	32.6
854.83	10.07
855.005	-49.32
855.18	67.41
855.354	38.74
855.529	26.45
855.704	26.45
855.879	36.69
856.053	-37.03
856.228	3.93
856.403	18.26
856.577	26.45
856.752	53.08
856.926	1.88
857.101	24.4
857.276	5.97
857.45	20.31
857.625	83.8
857.799	-16.55
857.974	40.79
858.148	-0.17
858.323	53.08
858.497	46.93
858.672	22.36
858.846	48.98
859.02	63.32
859.195	3.93
859.369	-26.79
859.543	1.88
859.718	42.84
859.892	75.6
860.066	40.79
860.241	30.55
860.415	26.45
860.589	-32.94
860.763	40.79
860.938	26.45
861.112	1.88
861.286	40.79
861.46	-30.89
861.634	85.84
861.808	26.45
861.982	-0.17
862.157	71.51
862.331	73.56
862.505	8.02
862.679	-2.22
862.853	34.64
863.027	57.17
863.201	24.4
863.375	-16.55
863.549	-12.46
863.722	57.17
863.896	65.36
864.07	10.07
864.244	-0.17
864.418	-14.51
864.592	14.17
864.766	40.79
864.939	16.21
865.113	-28.84
865.287	12.12
865.461	73.56
865.634	24.4
865.808	-12.46
865.982	40.79
866.156	53.08
866.329	42.84
866.503	-10.41
866.676	51.03
866.85	-18.6
867.024	-16.55
867.197	30.55
867.371	42.84
867.544	3.93
867.718	-2.22
867.891	-24.75
868.065	30.55
868.238	-0.17
868.412	36.69
868.585	5.97
868.759	-6.31
868.932	36.69
869.105	10.07
869.279	5.97
869.452	38.74
869.625	34.64
869.799	-41.13
869.972	3.93
870.145	-12.46
870.319	51.03
870.492	61.27
870.665	18.26
870.838	55.12
871.011	-14.51
871.185	77.65
871.358	-14.51
871.531	12.12
871.704	-37.03
871.877	55.12
872.05	-22.7
872.223	24.4
872.396	14.17
872.569	8.02
872.742	53.08
872.915	20.31
873.088	-18.6
873.261	-18.6
873.434	79.7
873.607	-43.18
873.78	30.55
873.953	-20.65
874.126	-32.94
874.299	-6.31
874.471	-0.17
874.644	-10.41
874.817	24.4
874.99	59.22
875.163	81.75
875.335	28.5
875.508	-32.94
875.681	48.98
875.853	139.09
876.026	-30.89
876.199	5.97
876.371	51.03
876.544	8.02
876.717	-45.23
876.889	-20.65
877.062	40.79
877.234	-37.03
877.407	22.36
877.579	-4.27
877.752	57.17
877.924	-65.71
878.097	8.02
878.269	51.03
878.442	51.03
878.614	24.4
878.786	-6.31
878.959	1.88
879.131	-4.27
879.303	-12.46
879.476	-8.36
879.648	-41.13
879.82	26.45
879.993	55.12
880.165	57.17
880.337	-22.7
880.509	5.97
880.681	-6.31
880.854	-24.75
881.026	67.41
881.198	63.32
881.37	38.74
881.542	-0.17
881.714	46.93
881.886	65.36
882.058	-10.41
882.23	48.98
882.402	12.12
882.574	28.5
882.746	51.03
882.918	51.03
883.09	16.21
883.262	-2.22
883.434	36.69
883.606	30.55
883.778	-26.79
883.95	1.88
884.122	106.32
884.293	10.07
884.465	-18.6
884.637	61.27
884.809	-6.31
884.98	59.22
885.152	42.84
885.324	116.56
885.496	-59.56
885.667	24.4
885.839	34.64
886.011	87.89
886.182	1.88
886.354	59.22
886.525	65.36
886.697	14.17
886.869	61.27
887.04	-18.6
887.212	18.26
887.383	96.08
887.555	42.84
887.726	-18.6
887.897	-22.7
888.069	-47.27
888.24	77.65
888.412	59.22
888.583	-28.84
888.754	8.02
888.926	-24.75
889.097	10.07
889.268	-4.27
889.44	46.93
889.611	-4.27
889.782	-18.6
889.953	10.07
890.125	1.88
890.296	-18.6
890.467	59.22
890.638	42.84
890.809	71.51
890.98	-0.17
891.151	98.13
891.323	8.02
891.494	28.5
891.665	-6.31
891.836	42.84
892.007	3.93
892.178	26.45
892.349	-41.13
892.52	30.55
892.691	24.4
892.862	-45.23
893.032	-6.31
893.203	-0.17
893.374	-16.55
893.545	26.45
893.716	51.03
893.887	-10.41
894.057	-49.32
894.228	40.79
894.399	-10.41
894.57	67.41
894.74	-10.41
894.911	118.61
895.082	-20.65
895.253	42.84
895.423	20.31
895.594	-0.17
895.764	8.02
895.935	-24.75
896.106	85.84
896.276	3.93
896.447	-16.55
896.617	77.65
896.788	-4.27
896.958	-18.6
897.129	-2.22
897.299	59.22
897.47	-30.89
897.64	30.55
897.81	26.45
897.981	-51.37
898.151	34.64
898.322	8.02
898.492	12.12
898.662	10.07
898.832	22.36
899.003	32.6
899.173	48.98
899.343	-24.75
899.513	-30.89
