Data from USB4F104151__41__11-36-57-643.txt Node

Date: Fri Mar 14 11:36:57 EDT 2025
User: louis
Spectrometer: USB4F10415
Trigger mode: 4
Integration Time (sec): 2.000000E-2
Scans to average: 1
Electric dark correction enabled: true
Nonlinearity correction enabled: false
Boxcar width: 0
XAxis mode: Wavelengths
Number of Pixels in Spectrum: 3648
>>>>>Begin Spectral Data<<<<<
178.204	-60.42
178.424	-60.42
178.644	-60.42
178.864	-80.89
179.084	-72.7
179.304	-37.89
179.524	-39.94
179.744	41.98
179.964	27.65
180.184	-21.5
180.404	27.65
180.624	-1.02
180.844	7.17
181.064	62.46
181.283	-21.5
181.503	-27.65
181.723	-17.41
181.943	-19.46
182.163	54.27
182.383	13.31
182.602	72.7
182.822	56.32
183.042	35.84
183.262	58.37
183.482	60.42
183.701	25.6
183.921	48.13
184.141	-1.02
184.361	17.41
184.58	-7.17
184.8	76.8
185.02	-7.17
185.239	13.31
185.459	64.51
185.679	-9.22
185.898	-54.27
186.118	5.12
186.338	37.89
186.557	80.89
186.777	1.02
186.997	7.17
187.216	-15.36
187.436	64.51
187.655	17.41
187.875	13.31
188.095	-25.6
188.314	56.32
188.534	-17.41
188.753	50.18
188.973	44.03
189.192	25.6
189.412	46.08
189.631	93.18
189.851	7.17
190.07	-13.31
190.29	5.12
190.509	70.65
190.729	5.12
190.948	1.02
191.168	7.17
191.387	11.26
191.607	-54.27
191.826	-19.46
192.045	52.22
192.265	-29.7
192.484	-25.6
192.704	111.61
192.923	3.07
193.142	-1.02
193.362	50.18
193.581	39.94
193.8	-21.5
194.02	56.32
194.239	23.55
194.458	29.7
194.678	68.61
194.897	11.26
195.116	60.42
195.335	-9.22
195.555	15.36
195.774	5.12
195.993	-19.46
196.212	19.46
196.432	7.17
196.651	41.98
196.87	1.02
197.089	87.04
197.308	-54.27
197.528	-3.07
197.747	15.36
197.966	60.42
198.185	60.42
198.404	33.79
198.623	27.65
198.842	-5.12
199.062	23.55
199.281	-27.65
199.5	35.84
199.719	-7.17
199.938	37.89
200.157	11.26
200.376	-41.98
200.595	56.32
200.814	23.55
201.033	-1.02
201.252	39.94
201.471	15.36
201.69	15.36
201.909	-27.65
202.128	3.07
202.347	31.74
202.566	21.5
202.785	52.22
203.004	19.46
203.223	46.08
203.442	-11.26
203.661	19.46
203.879	115.71
204.098	62.46
204.317	-13.31
204.536	72.7
204.755	29.7
204.974	23.55
205.193	46.08
205.411	-17.41
205.63	15.36
205.849	50.18
206.068	9.22
206.287	-15.36
206.505	-21.5
206.724	62.46
206.943	39.94
207.162	-31.74
207.381	25.6
207.599	39.94
207.818	39.94
208.037	5.12
208.255	-21.5
208.474	-29.7
208.693	9.22
208.911	9.22
209.13	-13.31
209.349	44.03
209.567	-7.17
209.786	58.37
210.005	35.84
210.223	9.22
210.442	27.65
210.661	-82.94
210.879	-3.07
211.098	-66.56
211.316	1.02
211.535	27.65
211.753	48.13
211.972	-9.22
212.191	-5.12
212.409	66.56
212.628	23.55
212.846	54.27
213.065	-25.6
213.283	58.37
213.502	19.46
213.72	-46.08
213.938	35.84
214.157	1.02
214.375	66.56
214.594	11.26
214.812	7.17
215.031	29.7
215.249	87.04
215.467	60.42
215.686	-19.46
215.904	-37.89
216.122	7.17
216.341	17.41
216.559	41.98
216.778	60.42
216.996	-19.46
217.214	-19.46
217.432	-1.02
217.651	15.36
217.869	-48.13
218.087	33.79
218.306	33.79
218.524	19.46
218.742	72.7
218.96	44.03
219.179	93.18
219.397	-7.17
219.615	60.42
219.833	35.84
220.051	-72.7
220.27	56.32
220.488	-1.02
220.706	13.31
220.924	1.02
221.142	-31.74
221.36	66.56
221.578	-27.65
221.796	27.65
222.015	13.31
222.233	-19.46
222.451	56.32
222.669	33.79
222.887	9.22
223.105	19.46
223.323	9.22
223.541	17.41
223.759	33.79
223.977	13.31
224.195	41.98
224.413	-7.17
224.631	60.42
224.849	-3.07
225.067	91.13
225.285	27.65
225.503	-35.84
225.721	-29.7
225.939	7.17
226.157	-19.46
226.375	82.94
226.592	11.26
226.81	-72.7
227.028	41.98
227.246	-5.12
227.464	35.84
227.682	23.55
227.9	33.79
228.117	74.75
228.335	-7.17
228.553	74.75
228.771	25.6
228.989	21.5
229.206	37.89
229.424	62.46
229.642	-72.7
229.86	11.26
230.077	80.89
230.295	-5.12
230.513	31.74
230.731	87.04
230.948	27.65
231.166	70.65
231.384	-37.89
231.601	13.31
231.819	3.07
232.037	-58.37
232.254	-91.13
232.472	80.89
232.689	89.09
232.907	-44.03
233.125	41.98
233.342	23.55
233.56	89.09
233.777	-62.46
233.995	52.22
234.213	15.36
234.43	11.26
234.648	17.41
234.865	44.03
235.083	-52.22
235.3	-33.79
235.518	-3.07
235.735	58.37
235.953	39.94
236.17	-21.5
236.388	-50.18
236.605	87.04
236.822	125.95
237.04	52.22
237.257	39.94
237.475	9.22
237.692	25.6
237.909	-13.31
238.127	50.18
238.344	44.03
238.562	62.46
238.779	21.5
238.996	11.26
239.214	7.17
239.431	37.89
239.648	23.55
239.865	68.61
240.083	-89.09
240.3	15.36
240.517	-1.02
240.735	-7.17
240.952	44.03
241.169	29.7
241.386	39.94
241.603	68.61
241.821	82.94
242.038	48.13
242.255	31.74
242.472	-56.32
242.689	62.46
242.907	105.47
243.124	50.18
243.341	52.22
243.558	-13.31
243.775	33.79
243.992	-66.56
244.209	39.94
244.426	1.02
244.643	25.6
244.86	-33.79
245.078	31.74
245.295	-7.17
245.512	35.84
245.729	29.7
245.946	89.09
246.163	62.46
246.38	21.5
246.597	15.36
246.814	21.5
247.031	54.27
247.248	21.5
247.464	-11.26
247.681	89.09
247.898	27.65
248.115	25.6
248.332	1.02
248.549	105.47
248.766	72.7
248.983	-7.17
249.2	70.65
249.417	19.46
249.633	33.79
249.85	50.18
250.067	66.56
250.284	-13.31
250.501	19.46
250.717	7.17
250.934	25.6
251.151	-35.84
251.368	5.12
251.585	76.8
251.801	21.5
252.018	-1.02
252.235	-9.22
252.451	-33.79
252.668	87.04
252.885	64.51
253.102	31.74
253.318	-33.79
253.535	60.42
253.752	60.42
253.968	41.98
254.185	-17.41
254.401	-7.17
254.618	68.61
254.835	-15.36
255.051	-17.41
255.268	3.07
255.484	46.08
255.701	13.31
255.917	41.98
256.134	50.18
256.351	-27.65
256.567	-78.85
256.784	-13.31
257	-31.74
257.217	-15.36
257.433	64.51
257.65	68.61
257.866	-27.65
258.082	5.12
258.299	-19.46
258.515	15.36
258.732	-13.31
258.948	113.66
259.165	-13.31
259.381	-15.36
259.597	-21.5
259.814	-41.98
260.03	7.17
260.246	41.98
260.463	70.65
260.679	31.74
260.895	58.37
261.112	64.51
261.328	-25.6
261.544	-17.41
261.761	95.23
261.977	-66.56
262.193	-70.65
262.409	-39.94
262.626	11.26
262.842	27.65
263.058	-19.46
263.274	33.79
263.49	74.75
263.707	44.03
263.923	54.27
264.139	-23.55
264.355	-13.31
264.571	35.84
264.787	29.7
265.004	56.32
265.22	33.79
265.436	60.42
265.652	-1.02
265.868	23.55
266.084	-21.5
266.3	64.51
266.516	60.42
266.732	-50.18
266.948	-13.31
267.164	64.51
267.38	58.37
267.596	9.22
267.812	52.22
268.028	89.09
268.244	52.22
268.46	31.74
268.676	-54.27
268.892	19.46
269.108	11.26
269.324	-56.32
269.54	-29.7
269.756	-9.22
269.972	-29.7
270.188	72.7
270.403	-27.65
270.619	33.79
270.835	-9.22
271.051	-21.5
271.267	-25.6
271.483	21.5
271.698	31.74
271.914	27.65
272.13	3.07
272.346	-56.32
272.562	-9.22
272.777	60.42
272.993	48.13
273.209	50.18
273.425	-41.98
273.64	-35.84
273.856	29.7
274.072	-13.31
274.287	-31.74
274.503	80.89
274.719	72.7
274.934	9.22
275.15	41.98
275.366	9.22
275.581	31.74
275.797	-68.61
276.012	-35.84
276.228	1.02
276.444	-41.98
276.659	66.56
276.875	-3.07
277.09	25.6
277.306	33.79
277.521	109.57
277.737	-5.12
277.952	19.46
278.168	-7.17
278.383	99.33
278.599	60.42
278.814	-52.22
279.03	-15.36
279.245	64.51
279.461	-9.22
279.676	15.36
279.892	-33.79
280.107	84.99
280.322	31.74
280.538	13.31
280.753	11.26
280.969	-19.46
281.184	17.41
281.399	62.46
281.615	-7.17
281.83	-17.41
282.045	23.55
282.26	21.5
282.476	48.13
282.691	41.98
282.906	15.36
283.122	-9.22
283.337	37.89
283.552	44.03
283.767	31.74
283.983	11.26
284.198	1.02
284.413	54.27
284.628	48.13
284.843	48.13
285.058	62.46
285.274	11.26
285.489	3.07
285.704	46.08
285.919	46.08
286.134	29.7
286.349	7.17
286.564	-1.02
286.779	11.26
286.995	41.98
287.21	-5.12
287.425	5.12
287.64	27.65
287.855	-39.94
288.07	-1.02
288.285	80.89
288.5	52.22
288.715	-15.36
288.93	25.6
289.145	72.7
289.36	-17.41
289.575	25.6
289.79	-7.17
290.004	44.03
290.219	-23.55
290.434	80.89
290.649	9.22
290.864	1.02
291.079	-58.37
291.294	46.08
291.509	11.26
291.724	101.37
291.938	25.6
292.153	21.5
292.368	54.27
292.583	29.7
292.798	-66.56
293.012	52.22
293.227	23.55
293.442	64.51
293.657	3.07
293.871	19.46
294.086	52.22
294.301	50.18
294.516	-39.94
294.73	-5.12
294.945	-17.41
295.16	44.03
295.374	109.57
295.589	68.61
295.804	54.27
296.018	5.12
296.233	31.74
296.447	46.08
296.662	62.46
296.877	31.74
297.091	19.46
297.306	27.65
297.52	31.74
297.735	35.84
297.949	48.13
298.164	48.13
298.378	-9.22
298.593	-11.26
298.807	-9.22
299.022	1.02
299.236	72.7
299.451	109.57
299.665	-21.5
299.88	-21.5
300.094	23.55
300.309	33.79
300.523	3.07
300.737	-27.65
300.952	82.94
301.166	-52.22
301.381	-3.07
301.595	25.6
301.809	-1.02
302.024	19.46
302.238	-74.75
302.452	3.07
302.667	35.84
302.881	31.74
303.095	-5.12
303.309	27.65
303.524	-21.5
303.738	44.03
303.952	1.02
304.166	-41.98
304.381	-39.94
304.595	84.99
304.809	-19.46
305.023	41.98
305.237	56.32
305.452	33.79
305.666	25.6
305.88	35.84
306.094	-54.27
306.308	19.46
306.522	7.17
306.736	-41.98
306.95	76.8
307.164	31.74
307.379	11.26
307.593	70.65
307.807	19.46
308.021	1.02
308.235	3.07
308.449	58.37
308.663	-17.41
308.877	21.5
309.091	5.12
309.305	27.65
309.519	-15.36
309.733	39.94
309.947	-27.65
310.161	60.42
310.374	-11.26
310.588	3.07
310.802	21.5
311.016	93.18
311.23	-5.12
311.444	9.22
311.658	-21.5
311.872	72.7
312.085	29.7
312.299	78.85
312.513	17.41
312.727	17.41
312.941	39.94
313.154	-21.5
313.368	46.08
313.582	-13.31
313.796	25.6
314.009	60.42
314.223	23.55
314.437	19.46
314.651	-9.22
314.864	-46.08
315.078	58.37
315.292	-11.26
315.505	31.74
315.719	-5.12
315.933	-25.6
316.146	17.41
316.36	9.22
316.573	72.7
316.787	33.79
317.001	13.31
317.214	-9.22
317.428	46.08
317.641	-33.79
317.855	27.65
318.068	48.13
318.282	-19.46
318.495	-44.03
318.709	50.18
318.922	13.31
319.136	19.46
319.349	41.98
319.563	29.7
319.776	21.5
319.99	-50.18
320.203	-48.13
320.417	64.51
320.63	37.89
320.843	11.26
321.057	39.94
321.27	66.56
321.483	41.98
321.697	52.22
321.91	54.27
322.124	13.31
322.337	17.41
322.55	-9.22
322.763	80.89
322.977	-46.08
323.19	13.31
323.403	11.26
323.617	84.99
323.83	23.55
324.043	-29.7
324.256	125.95
324.469	-5.12
324.683	15.36
324.896	17.41
325.109	44.03
325.322	-25.6
325.535	50.18
325.748	-23.55
325.962	13.31
326.175	-58.37
326.388	50.18
326.601	70.65
326.814	109.57
327.027	-11.26
327.24	54.27
327.453	-60.42
327.666	60.42
327.879	27.65
328.092	41.98
328.305	72.7
328.518	-13.31
328.731	25.6
328.944	29.7
329.157	3.07
329.37	15.36
329.583	74.75
329.796	13.31
330.009	82.94
330.222	52.22
330.435	50.18
330.648	107.52
330.861	97.28
331.073	82.94
331.286	21.5
331.499	84.99
331.712	48.13
331.925	60.42
332.138	144.38
332.35	119.81
332.563	27.65
332.776	27.65
332.989	74.75
333.202	-76.8
333.414	41.98
333.627	-23.55
333.84	27.65
334.053	58.37
334.265	58.37
334.478	-50.18
334.691	-25.6
334.903	5.12
335.116	-23.55
335.329	-9.22
335.541	-31.74
335.754	-3.07
335.966	-17.41
336.179	-78.85
336.392	46.08
336.604	-9.22
336.817	58.37
337.029	50.18
337.242	17.41
337.454	23.55
337.667	46.08
337.88	58.37
338.092	58.37
338.305	9.22
338.517	3.07
338.729	5.12
338.942	-13.31
339.154	-13.31
339.367	33.79
339.579	-15.36
339.792	-11.26
340.004	5.12
340.217	44.03
340.429	58.37
340.641	52.22
340.854	-33.79
341.066	-39.94
341.278	56.32
341.491	1.02
341.703	56.32
341.915	-13.31
342.128	48.13
342.34	19.46
342.552	11.26
342.764	58.37
342.977	-5.12
343.189	87.04
343.401	93.18
343.613	-58.37
343.826	-1.02
344.038	-1.02
344.25	60.42
344.462	27.65
344.674	-13.31
344.886	-15.36
345.099	23.55
345.311	5.12
345.523	41.98
345.735	-19.46
345.947	11.26
346.159	39.94
346.371	78.85
346.583	31.74
346.795	99.33
347.007	-1.02
347.219	60.42
347.431	-23.55
347.643	48.13
347.855	-19.46
348.067	66.56
348.279	29.7
348.491	62.46
348.703	-13.31
348.915	-19.46
349.127	58.37
349.339	-5.12
349.551	21.5
349.763	-15.36
349.975	68.61
350.187	66.56
350.399	66.56
350.61	1.02
350.822	-5.12
351.034	50.18
351.246	56.32
351.458	60.42
351.669	7.17
351.881	3.07
352.093	35.84
352.305	50.18
352.517	48.13
352.728	58.37
352.94	-27.65
353.152	80.89
353.363	35.84
353.575	-7.17
353.787	17.41
353.999	41.98
354.21	44.03
354.422	76.8
354.633	15.36
354.845	74.75
355.057	-15.36
355.268	-5.12
355.48	109.57
355.692	-21.5
355.903	17.41
356.115	68.61
356.326	11.26
356.538	95.23
356.749	68.61
356.961	123.9
357.172	17.41
357.384	-46.08
357.595	35.84
357.807	35.84
358.018	-21.5
358.23	-29.7
358.441	-23.55
358.653	1.02
358.864	29.7
359.075	-7.17
359.287	27.65
359.498	31.74
359.709	113.66
359.921	27.65
360.132	19.46
360.344	-1.02
360.555	15.36
360.766	25.6
360.977	-7.17
361.189	27.65
361.4	25.6
361.611	107.52
361.823	3.07
362.034	19.46
362.245	-13.31
362.456	23.55
362.667	-7.17
362.879	13.31
363.09	-80.89
363.301	44.03
363.512	44.03
363.723	39.94
363.935	44.03
364.146	64.51
364.357	17.41
364.568	7.17
364.779	-5.12
364.99	3.07
365.201	-13.31
365.412	11.26
365.623	39.94
365.834	46.08
366.045	15.36
366.256	-23.55
366.467	52.22
366.678	1.02
366.889	-1.02
367.1	21.5
367.311	27.65
367.522	44.03
367.733	39.94
367.944	46.08
368.155	64.51
368.366	19.46
368.577	70.65
368.788	48.13
368.999	25.6
369.209	82.94
369.42	37.89
369.631	62.46
369.842	1.02
370.053	52.22
370.264	87.04
370.474	1.02
370.685	-25.6
370.896	103.42
371.107	35.84
371.317	44.03
371.528	44.03
371.739	68.61
371.95	5.12
372.16	76.8
372.371	-1.02
372.582	68.61
372.792	93.18
373.003	11.26
373.214	60.42
373.424	41.98
373.635	39.94
373.846	60.42
374.056	9.22
374.267	-3.07
374.477	23.55
374.688	125.95
374.898	-7.17
375.109	91.13
375.319	33.79
375.53	52.22
375.74	35.84
375.951	9.22
376.161	-15.36
376.372	41.98
376.582	70.65
376.793	48.13
377.003	-1.02
377.214	48.13
377.424	-1.02
377.635	101.37
377.845	87.04
378.055	56.32
378.266	29.7
378.476	-29.7
378.686	48.13
378.897	64.51
379.107	15.36
379.317	58.37
379.528	35.84
379.738	-5.12
379.948	-27.65
380.158	97.28
380.369	56.32
380.579	76.8
380.789	62.46
380.999	19.46
381.21	58.37
381.42	52.22
381.63	15.36
381.84	41.98
382.05	-9.22
382.261	-19.46
382.471	41.98
382.681	-33.79
382.891	68.61
383.101	64.51
383.311	7.17
383.521	-7.17
383.731	-82.94
383.941	128
384.151	-56.32
384.361	27.65
384.571	15.36
384.781	84.99
384.991	84.99
385.201	33.79
385.411	50.18
385.621	31.74
385.831	93.18
386.041	99.33
386.251	21.5
386.461	84.99
386.671	39.94
386.881	121.85
387.091	56.32
387.301	107.52
387.511	7.17
387.72	99.33
387.93	58.37
388.14	13.31
388.35	93.18
388.56	-9.22
388.769	52.22
388.979	125.95
389.189	27.65
389.399	138.24
389.609	-29.7
389.818	93.18
390.028	-7.17
390.238	-70.65
390.447	60.42
390.657	33.79
390.867	46.08
391.076	91.13
391.286	1.02
391.496	95.23
391.705	-3.07
391.915	89.09
392.125	-1.02
392.334	3.07
392.544	-3.07
392.753	76.8
392.963	19.46
393.172	58.37
393.382	37.89
393.591	44.03
393.801	60.42
394.01	76.8
394.22	44.03
394.429	130.05
394.639	52.22
394.848	76.8
395.058	46.08
395.267	121.85
395.477	68.61
395.686	95.23
395.895	27.65
396.105	68.61
396.314	7.17
396.524	93.18
396.733	41.98
396.942	140.29
397.152	37.89
397.361	72.7
397.57	109.57
397.78	76.8
397.989	93.18
398.198	41.98
398.407	84.99
398.617	39.94
398.826	1.02
399.035	72.7
399.244	44.03
399.453	68.61
399.663	93.18
399.872	93.18
400.081	95.23
400.29	107.52
400.499	80.89
400.708	82.94
400.917	68.61
401.127	46.08
401.336	76.8
401.545	97.28
401.754	95.23
401.963	97.28
402.172	56.32
402.381	46.08
402.59	109.57
402.799	146.43
403.008	162.81
403.217	130.05
403.426	76.8
403.635	97.28
403.844	76.8
404.053	50.18
404.262	72.7
404.471	113.66
404.68	99.33
404.888	91.13
405.097	80.89
405.306	113.66
405.515	105.47
405.724	117.76
405.933	195.58
406.142	70.65
406.35	236.54
406.559	50.18
406.768	80.89
406.977	107.52
407.185	152.57
407.394	101.37
407.603	146.43
407.812	154.62
408.02	97.28
408.229	158.72
408.438	195.58
408.646	197.63
408.855	107.52
409.064	197.63
409.272	179.2
409.481	93.18
409.69	179.2
409.898	115.71
410.107	183.29
410.315	238.59
410.524	168.96
410.733	263.16
410.941	232.44
411.15	271.36
411.358	285.69
411.567	244.73
411.775	230.4
411.984	240.64
412.192	281.6
412.401	244.73
412.609	353.27
412.818	381.95
413.026	357.37
413.234	287.74
413.443	277.5
413.651	279.55
413.86	328.7
414.068	357.37
414.276	400.38
414.485	422.91
414.693	484.34
414.901	492.54
415.11	455.67
415.318	437.24
415.526	584.7
415.734	490.49
415.943	465.91
416.151	627.7
416.359	519.16
416.567	478.2
416.776	609.27
416.984	648.18
417.192	619.51
417.4	631.8
417.608	637.94
417.817	705.53
418.025	621.56
418.233	764.92
418.441	683
418.649	797.68
418.857	807.92
419.065	766.96
419.273	801.78
419.481	844.79
419.689	953.33
419.897	957.43
420.105	967.67
420.313	1020.91
420.521	1051.63
420.729	1166.32
420.937	1082.35
421.145	1147.89
421.353	1215.47
421.561	1272.81
421.769	1309.68
421.977	1344.49
422.185	1330.16
422.393	1459.18
422.601	1424.36
422.809	1430.51
423.017	1426.41
423.224	1594.34
423.432	1633.26
423.64	1702.89
423.848	1745.89
424.056	1704.93
424.263	1872.87
424.471	1825.76
424.679	1985.51
424.887	2022.37
425.094	2067.42
425.302	2122.72
425.51	2057.18
425.718	2196.45
425.925	2163.68
426.133	2296.8
426.341	2431.96
426.548	2608.09
426.756	2472.92
426.964	2718.68
427.171	2681.82
427.379	2690.01
427.586	2788.31
427.794	2890.71
428.001	3083.22
428.209	3288.01
428.417	3115.98
428.624	3369.93
428.832	3326.93
429.039	3408.84
429.247	3351.5
429.454	3701.7
429.662	3935.17
429.869	3832.77
430.076	3926.98
430.284	3734.47
430.491	4033.47
430.699	4299.71
430.906	4166.59
431.114	4248.51
431.321	4502.46
431.528	4432.83
431.736	4680.63
431.943	4944.82
432.15	4981.68
432.358	4940.72
432.565	5194.67
432.772	5114.8
432.979	5434.29
433.187	5489.58
433.394	5499.82
433.601	5878.69
433.808	5880.74
434.016	5704.62
434.223	6077.35
434.43	6507.42
434.637	6509.47
434.844	6589.34
435.052	6912.92
435.259	7021.46
435.466	7072.66
435.673	6921.11
435.88	7431.05
436.087	7850.89
436.294	7730.06
436.501	7480.21
436.708	7615.37
436.915	8192.9
437.122	8248.19
437.329	8338.3
437.537	8405.89
437.743	8674.17
437.95	8797.05
438.157	9102.2
438.364	9364.34
438.571	9341.81
438.778	9487.22
438.985	10349.41
439.192	9890.67
439.399	10220.39
439.606	10060.65
439.813	10349.41
440.02	11180.89
440.227	11039.58
440.433	10906.46
440.64	11248.47
440.847	11058.01
441.054	11623.25
441.261	12223.3
441.467	12057.42
441.674	12215.11
441.881	12677.95
442.088	12684.09
442.294	12770.11
442.501	13112.12
442.708	13114.17
442.914	13521.71
443.121	14162.73
443.328	13906.73
443.534	14981.92
443.741	14322.47
443.948	14398.24
444.154	15344.41
444.361	15225.62
444.568	15272.73
444.774	15297.3
444.981	15747.86
445.187	15983.37
445.394	16569.09
445.6	16460.55
445.807	18043.63
446.013	17332.98
446.22	17558.26
446.426	18299.62
446.633	18461.41
446.839	19036.89
447.046	18125.55
447.252	19276.51
447.459	19432.15
447.665	19104.48
447.871	20191.95
448.078	20810.43
448.284	19991.25
448.491	20398.79
448.697	21435.06
448.903	21713.59
449.11	21742.26
449.316	21439.16
449.522	21746.36
449.728	22483.62
449.935	22528.68
450.141	22313.64
450.347	22624.93
450.553	22086.32
450.76	22413.99
450.966	23147.17
451.172	23009.95
451.378	23587.48
451.584	23024.29
451.791	23728.79
451.997	23489.18
452.203	23818.9
452.409	24064.66
452.615	23919.25
452.821	23130.78
453.027	22633.13
453.233	23818.9
453.44	22917.79
453.646	23327.39
453.852	23505.56
454.058	24017.55
454.264	22788.77
454.47	23399.07
454.676	22907.55
454.882	23743.13
455.088	21584.57
455.294	22063.79
455.5	22379.18
455.705	22743.72
455.911	21764.79
456.117	21334.71
456.323	20759.24
456.529	19671.76
456.735	20470.47
456.941	19923.66
457.147	20032.21
457.352	19063.52
457.558	18969.31
457.764	19084
457.97	18701.03
458.176	18062.06
458.381	18350.82
458.587	17711.86
458.793	17443.57
458.999	16454.4
459.204	17703.67
459.41	16843.52
459.616	15989.52
459.821	16032.52
460.027	16104.2
460.233	15553.3
460.438	14711.58
460.644	15235.86
460.85	14451.49
461.055	14117.67
461.261	14328.61
461.466	13028.15
461.672	12723.01
461.878	13443.89
462.083	12622.66
462.289	12499.78
462.494	12317.51
462.7	11686.73
462.905	11588.43
463.111	11993.93
463.316	11819.85
463.522	11742.03
463.727	11748.17
463.932	11924.3
464.138	11465.55
464.343	11774.8
464.549	11113.3
464.754	11680.59
464.959	11535.18
465.165	11133.78
465.37	10836.83
465.575	10781.53
465.781	11082.58
465.986	11006.81
466.191	10646.37
466.397	10603.36
466.602	10222.44
466.807	10394.47
467.012	10384.23
467.218	10345.31
467.423	10271.59
467.628	10296.16
467.833	10597.21
468.038	10199.91
468.244	9888.62
468.449	10117.99
468.654	10120.04
468.859	10005.35
469.064	9800.55
469.269	9583.47
469.474	9775.98
469.679	9786.22
469.885	9497.46
470.09	9558.89
470.295	9403.25
470.5	9214.84
470.705	9374.58
470.91	9036.66
471.115	9155.44
471.32	9134.96
471.525	9237.36
471.73	9030.52
471.935	8889.21
472.139	8616.83
472.344	8780.67
472.549	8616.83
472.754	8588.16
472.959	8323.97
473.164	8293.25
473.369	8164.23
473.574	8452.99
473.778	8375.17
473.983	8043.4
474.188	8414.08
474.393	7959.43
474.598	8061.83
474.802	7740.3
475.007	7707.53
475.212	7721.87
475.417	7443.34
475.621	7523.21
475.826	7531.41
476.031	7330.7
476.235	7250.83
476.44	7412.62
476.645	7316.37
476.849	7261.07
477.054	7232.4
477.259	7082.9
477.463	6880.15
477.668	6876.06
477.872	6892.44
478.077	6781.85
478.282	6605.72
478.486	6589.34
478.691	6532
478.895	6480.8
479.1	6532
479.304	6558.62
479.509	6390.69
479.713	6570.91
479.918	6220.71
480.122	6280.1
480.326	6413.21
480.531	6171.55
480.735	6183.84
480.94	6163.36
481.144	6189.99
481.348	6038.44
481.553	6075.3
481.757	5974.95
481.961	6026.15
482.166	6130.59
482.37	6069.16
482.574	6030.24
482.778	5999.52
482.983	6101.92
483.187	6040.48
483.391	6196.13
483.595	5835.69
483.8	5962.66
484.004	5956.52
484.208	6126.5
484.412	6114.21
484.616	6130.59
484.821	5890.98
485.025	5962.66
485.229	6222.75
485.433	6034.34
485.637	5970.85
485.841	5829.54
486.045	5868.45
486.249	5907.37
486.453	5868.45
486.657	5962.66
486.861	6151.07
487.065	5768.1
487.269	6069.16
487.473	5950.37
487.677	6028.2
487.881	6216.61
488.085	5972.9
488.289	5825.45
488.493	6071.2
488.697	6118.31
488.901	5909.41
489.105	6106.02
489.309	6230.94
489.512	5872.55
489.716	6261.66
489.92	6087.59
490.124	6130.59
490.328	6228.9
490.531	6106.02
490.735	6110.11
490.939	6087.59
491.143	6202.27
491.346	6118.31
491.55	6386.59
491.754	6421.41
491.958	6327.2
492.161	6296.48
492.365	6382.49
492.569	6228.9
492.772	6224.8
492.976	6425.5
493.18	6380.45
493.383	6433.69
493.587	6570.91
493.79	6480.8
493.994	6521.76
494.197	6704.03
494.401	6898.58
494.605	6785.94
494.808	6683.55
495.012	6941.59
495.215	6826.9
495.419	6962.07
495.622	6923.16
495.825	6968.21
496.029	7048.08
496.232	7095.19
496.436	7148.43
496.639	7252.88
496.843	7168.91
497.046	7236.5
497.249	7359.38
497.453	7365.52
497.656	7580.56
497.859	7539.6
498.063	7697.29
498.266	8008.58
498.469	7750.54
498.673	7764.87
498.876	7879.56
499.079	7809.93
499.282	7859.08
499.485	8326.02
499.689	8313.73
499.892	8364.93
500.095	8530.81
500.298	8528.77
500.501	8518.53
500.705	8725.37
500.908	8876.92
501.111	8811.39
501.314	9038.71
501.517	9137.01
501.72	9333.62
501.923	9186.16
502.126	9530.22
502.329	9532.27
502.532	9761.64
502.735	9440.11
502.938	9853.8
503.141	9763.69
503.344	10013.54
503.547	9945.96
503.75	10050.41
503.953	10214.24
504.156	10613.6
504.359	10582.88
504.562	10558.3
504.765	10808.16
504.968	10959.7
505.17	10838.87
505.373	11090.77
505.576	10990.42
505.779	11275.09
505.982	11424.59
506.185	11490.13
506.387	11664.21
506.59	11516.75
506.793	11821.9
506.996	11778.89
507.198	12241.73
507.401	12237.64
507.604	12387.14
507.807	12397.38
508.009	12567.36
508.212	12696.38
508.415	12821.31
508.617	12729.15
508.82	13038.39
509.022	12882.75
509.225	13249.33
509.428	13321.01
509.63	13695.79
509.833	13484.85
510.035	13949.74
510.238	13835.05
510.44	14234.41
510.643	14091.05
510.845	14402.34
511.048	14355.24
511.25	14447.4
511.453	14314.28
511.655	14895.9
511.858	14840.61
512.06	14908.19
512.262	15205.14
512.465	15321.88
512.667	15364.89
512.87	15581.97
513.072	15612.69
513.274	15717.14
513.477	16233.22
513.679	16157.45
513.881	16255.75
514.084	16698.11
514.286	16407.3
514.488	16515.84
514.69	17148.67
514.893	16982.78
515.095	17050.36
515.297	17310.46
515.499	17306.36
515.701	17453.81
515.904	17664.75
516.106	17613.56
516.308	17890.03
516.51	18164.46
516.712	18268.91
516.914	18422.5
517.116	18803.43
517.318	18596.58
517.52	18672.36
517.722	19012.32
517.925	19165.92
518.127	19520.21
518.329	19509.97
518.531	19657.43
518.733	19995.34
518.935	20095.69
519.136	19995.34
519.338	20056.78
519.54	20456.14
519.742	20566.73
519.944	20550.34
520.146	20716.23
520.348	21019.33
520.55	21056.19
520.752	20959.94
520.954	21607.09
521.155	21316.28
521.357	21689.01
521.559	21936.82
521.761	22205.1
521.963	21924.53
522.164	22131.37
522.366	22346.41
522.568	22428.33
522.77	22575.78
522.971	22956.71
523.173	22821.54
523.375	23118.5
523.576	23020.19
523.778	23120.54
523.98	23487.13
524.181	23605.91
524.383	23456.41
524.584	24070.8
524.786	23673.49
524.988	23749.27
525.189	24144.53
525.391	24310.41
525.592	24300.17
525.794	24287.89
525.995	24404.62
526.197	24533.64
526.398	24459.91
526.6	24783.49
526.801	24961.67
527.003	24957.57
527.204	25047.68
527.406	25199.23
527.607	25070.21
527.808	25682.55
528.01	25174.66
528.211	25287.29
528.412	25735.8
528.614	25897.59
528.815	25645.69
529.016	26145.39
529.218	25578.11
529.419	25830.01
529.62	25866.87
529.822	25694.84
530.023	25916.02
530.224	25725.56
530.425	26212.98
530.626	25817.72
530.828	25961.08
531.029	26423.92
531.23	26034.8
531.431	26212.98
531.632	26020.47
531.833	26612.33
532.035	25963.12
532.236	26530.41
532.437	26694.25
532.638	26571.37
532.839	26792.55
533.04	26573.42
533.241	26231.41
533.442	26858.09
533.643	26825.32
533.844	26581.61
534.045	26671.72
534.246	26597.99
534.447	26999.4
534.648	26997.35
534.849	26591.85
535.05	26495.6
535.251	26882.66
535.451	26856.04
535.652	27054.69
535.853	26665.58
536.054	26882.66
536.255	26903.14
536.456	26382.96
536.657	27114.08
536.857	26792.55
537.058	26950.24
537.259	26991.2
537.46	26884.71
537.66	27062.88
537.861	26997.35
538.062	26888.81
538.263	26677.86
538.463	26638.95
538.664	26829.41
538.865	26833.51
539.065	27071.07
539.266	26995.3
539.466	27005.54
539.667	26491.5
539.868	26753.64
540.068	26860.13
540.269	26716.78
540.469	26829.41
540.67	26628.71
540.87	26641
541.071	26868.33
541.271	27169.38
541.472	26802.79
541.672	26546.79
541.873	26511.98
542.073	26530.41
542.274	26997.35
542.474	26788.46
542.675	26493.55
542.875	26671.72
543.075	26661.48
543.276	26161.78
543.476	26772.07
543.676	26452.59
543.877	26665.58
544.077	26528.36
544.277	26743.4
544.478	26636.91
544.678	26921.57
544.878	26727.02
545.078	26960.48
545.279	26731.11
545.479	26538.6
545.679	26819.17
545.879	26526.32
546.079	26491.5
546.28	26471.02
546.48	26497.64
546.68	26694.25
546.88	26950.24
547.08	26743.4
547.28	26597.99
547.48	26292.85
547.68	27015.78
547.88	26307.18
548.081	26497.64
548.281	26554.99
548.481	26491.5
548.681	26741.35
548.881	26645.1
549.081	26618.47
549.28	26327.66
549.48	26745.45
549.68	26628.71
549.88	26686.06
550.08	26331.76
550.28	26651.24
550.48	26385.01
550.68	26804.84
550.88	26112.63
551.08	26688.1
551.279	26692.2
551.479	26186.35
551.679	26444.4
551.879	26276.46
552.079	26626.67
552.278	26030.71
552.478	26333.81
552.678	26153.58
552.878	26661.48
553.077	26329.71
553.277	26081.91
553.477	26387.05
553.676	26253.94
553.876	26339.95
554.076	26200.69
554.275	26360.43
554.475	26198.64
554.674	26169.97
554.874	26229.36
555.074	26161.78
555.273	26129.01
555.473	26499.69
555.672	25766.52
555.872	25905.78
556.071	26067.57
556.271	26288.75
556.47	25932.4
556.67	25447.04
556.869	25885.3
557.068	25971.32
557.268	25977.46
557.467	25922.16
557.667	25852.53
557.866	25694.84
558.065	26108.53
558.265	25350.78
558.464	25481.85
558.663	25741.94
558.863	25238.14
559.062	25866.87
559.261	25621.11
559.461	25776.76
559.66	25350.78
559.859	25406.08
560.058	25164.42
560.258	25324.16
560.457	25100.93
560.656	25444.99
560.855	24846.98
561.054	25539.19
561.253	24949.38
561.453	25315.97
561.652	25393.79
561.851	25111.17
562.05	25131.65
562.249	24877.7
562.448	24832.65
562.647	24799.88
562.846	24980.1
563.045	24605.32
563.244	24621.7
563.443	24793.73
563.642	24156.82
563.841	24562.31
564.04	24797.83
564.239	24633.99
564.438	24281.74
564.637	24609.42
564.836	24289.93
565.035	24343.18
565.234	24412.81
565.432	24078.99
565.631	24169.1
565.83	24150.67
566.029	24062.61
566.228	23939.73
566.427	24187.53
566.625	24050.32
566.824	23462.55
567.023	24040.08
567.222	23714.45
567.42	23898.77
567.619	23663.25
567.818	23583.38
568.016	23808.66
568.215	23421.59
568.414	23581.34
568.612	23593.62
568.811	23325.34
569.01	23669.4
569.208	22950.56
569.407	23288.48
569.605	22815.4
569.804	23360.16
570.002	23095.97
570.201	23190.17
570.4	23020.19
570.598	22704.81
570.797	23104.16
570.995	23251.61
571.193	22807.2
571.392	23116.45
571.59	22551.21
571.789	22606.5
571.987	22672.04
572.186	22618.79
572.384	22510.25
572.582	22500.01
572.781	22483.62
572.979	22162.09
573.177	22303.4
573.376	22420.14
573.574	22059.7
573.772	22139.57
573.971	21985.97
574.169	21959.34
574.367	21725.88
574.565	21877.43
574.763	21951.15
574.962	21877.43
575.16	21639.86
575.358	21887.67
575.556	21433.02
575.754	21695.16
575.952	21230.27
576.151	21850.8
576.349	21359.29
576.547	21418.68
576.745	21297.85
576.943	21617.33
577.141	21158.59
577.339	21160.64
577.537	21172.92
577.735	20910.78
577.933	21123.77
578.131	21101.25
578.329	21072.57
578.527	20931.26
578.725	20894.4
578.923	21074.62
579.121	20933.31
579.319	20751.04
579.516	20574.92
579.714	20597.45
579.912	20697.8
580.11	20660.93
580.308	20624.07
580.506	20452.04
580.704	20282.06
580.901	20447.94
581.099	20517.57
581.297	20181.71
581.495	20259.53
581.692	20380.36
581.89	20237
582.088	20112.08
582.285	19796.69
582.483	20093.65
582.681	19815.12
582.878	19841.75
583.076	19528.41
583.274	19835.6
583.471	19835.6
583.669	19585.75
583.866	19528.41
584.064	19845.84
584.262	19403.48
584.459	19544.79
584.657	19387.1
584.854	19538.65
585.052	18856.67
585.249	19401.43
585.447	19714.77
585.644	19073.76
585.841	18922.21
586.039	19305.18
586.236	18727.65
586.434	18842.34
586.631	18963.17
586.828	18852.58
587.026	18811.62
587.223	18619.11
587.42	18713.31
587.618	18696.93
587.815	18322.15
588.012	18361.06
588.21	18391.78
588.407	18651.88
588.604	18397.93
588.801	18303.72
588.999	18156.27
589.196	18211.56
589.393	18158.31
589.59	17930.99
589.787	18164.46
589.984	18084.59
590.182	17963.76
590.379	18070.25
590.576	18025.2
590.773	17877.74
590.97	17711.86
591.167	17941.23
591.364	17646.32
591.561	17810.16
591.758	17806.06
591.955	17455.86
592.152	17703.67
592.349	17556.21
592.546	17562.36
592.743	17462.01
592.94	17101.56
593.137	17216.25
593.334	17339.13
593.531	17056.51
593.727	17050.36
593.924	17220.35
594.121	16990.97
594.318	17105.66
594.515	16798.46
594.712	16945.92
594.908	16749.31
595.105	16859.9
595.302	16792.32
595.499	16771.84
595.696	16788.22
595.892	16485.12
596.089	16610.05
596.286	16767.74
596.482	16558.85
596.679	16499.46
596.876	16591.62
597.072	16341.77
597.269	16495.36
597.466	16114.44
597.662	16253.7
597.859	16171.79
598.055	16126.73
598.252	15891.21
598.448	16382.73
598.645	15999.76
598.841	15958.8
599.038	15850.25
599.234	15977.23
599.431	15670.03
599.627	15698.7
599.824	15565.59
600.02	15797.01
600.217	15446.8
600.413	15723.28
600.609	15330.07
600.806	15416.08
601.002	15389.46
601.198	15342.36
601.395	15244.06
601.591	15278.87
601.787	15080.22
601.984	15260.44
602.18	15160.09
602.376	15282.97
602.572	15102.75
602.769	15160.09
602.965	14932.76
603.161	14949.15
603.357	14807.84
603.553	14730.02
603.75	14779.17
603.946	14641.95
604.142	14660.38
604.338	14535.46
604.534	14889.76
604.73	14678.82
604.926	14428.96
605.122	14672.67
605.318	14408.48
605.514	14420.77
605.71	14353.19
605.906	14252.84
606.102	14101.29
606.298	14379.81
606.494	14277.41
606.69	14426.92
606.886	14246.69
607.082	13855.53
607.278	14287.65
607.474	13820.72
607.67	14095.14
607.866	13871.92
608.062	14246.69
608.257	13865.77
608.453	13919.02
608.649	13984.55
608.845	13722.41
609.041	13839.15
609.236	13767.47
609.432	13908.78
609.628	13652.78
609.824	13562.67
610.019	13609.78
610.215	13521.71
610.411	13681.46
610.606	13577.01
610.802	13703.98
610.998	13624.11
611.193	13278.01
611.389	13519.67
611.584	13605.68
611.78	13566.77
611.976	13321.01
612.171	13339.44
612.367	13482.8
612.562	13355.83
612.758	13280.05
612.953	13114.17
613.149	13151.03
613.344	13290.29
613.539	13421.36
613.735	13036.35
613.93	13144.89
614.126	12860.22
614.321	13138.74
614.517	13110.07
614.712	13300.53
614.907	13183.8
615.103	13083.45
615.298	13083.45
615.493	12966.71
615.688	12823.36
615.884	12987.19
616.079	12886.84
616.274	12860.22
616.47	12778.3
616.665	12856.12
616.86	12682.05
617.055	12938.04
617.25	12665.66
617.445	12798.78
617.641	12464.96
617.836	12454.72
618.031	12757.82
618.226	12862.27
618.421	12489.54
618.616	12671.81
618.811	12196.68
619.006	12372.8
619.201	12389.19
619.396	12444.48
619.591	12014.41
619.786	12194.63
619.981	12168.01
620.176	12268.36
620.371	11918.15
620.566	12110.66
620.761	12067.66
620.956	12151.62
621.151	11752.27
621.346	12098.38
621.541	11641.68
621.735	11887.43
621.93	11455.31
622.125	11660.11
622.32	11414.35
622.515	11617.1
622.709	11443.03
622.904	11756.36
623.099	11324.24
623.294	11178.84
623.488	11162.45
623.683	11182.93
623.878	10935.13
624.072	11213.65
624.267	11064.15
624.462	11135.83
624.656	10894.17
624.851	10988.38
625.046	10716
625.24	10576.73
625.435	10529.63
625.629	10834.78
625.824	10478.43
626.018	10376.03
626.213	10492.77
626.407	10615.65
626.602	10210.15
626.796	10457.95
626.991	10404.71
627.185	10193.76
627.38	9986.92
627.574	9874.28
627.768	9941.86
627.963	9999.21
628.157	10062.69
628.352	9737.07
628.546	9595.76
628.74	9823.08
628.935	9522.03
629.129	9673.58
629.323	9446.26
629.517	9573.23
629.712	9423.73
629.906	9548.65
630.1	9415.54
630.294	9378.67
630.489	9306.99
630.683	9403.25
630.877	9016.18
631.071	8940.41
631.265	9192.31
631.459	8905.59
631.653	9173.88
631.848	9022.33
632.042	8948.6
632.236	8897.4
632.43	8727.42
632.624	8795
632.818	8778.62
633.012	8698.75
633.206	8692.6
633.4	8575.87
633.594	8434.56
633.788	8481.66
633.982	8317.83
634.176	8340.35
634.369	8485.76
634.563	8391.55
634.757	8256.39
634.951	8233.86
635.145	8309.63
635.339	8240
635.533	8121.22
635.726	8168.32
635.92	7998.34
636.114	8092.55
636.308	7977.86
636.501	7928.71
636.695	7857.03
636.889	7953.29
637.083	7744.39
637.276	7764.87
637.47	7775.11
637.664	7705.48
637.857	7826.31
638.051	7685
638.244	7474.06
638.438	7629.71
638.632	7431.05
638.825	7545.74
639.019	7363.47
639.212	7363.47
639.406	7306.13
639.599	7224.21
639.793	7250.83
639.986	7082.9
640.18	7299.98
640.373	7355.28
640.567	7117.72
640.76	7033.75
640.954	6935.45
641.147	7164.82
641.34	6904.73
641.534	6935.45
641.727	6931.35
641.92	6978.45
642.114	6810.52
642.307	6900.63
642.5	6742.94
642.694	6589.34
642.887	6773.66
643.08	6835.1
643.273	6677.4
643.467	6753.18
643.66	6609.82
643.853	6536.09
644.046	6458.27
644.239	6456.22
644.432	6448.03
644.626	6304.67
644.819	6519.71
645.012	6290.34
645.205	6394.78
645.398	6306.72
645.591	6224.8
645.784	6146.98
645.977	6005.67
646.17	6140.83
646.363	6050.72
646.556	6097.83
646.749	6063.01
646.942	6015.91
647.135	5987.24
647.328	5985.19
647.521	5903.27
647.714	5790.63
647.907	5958.57
648.099	5886.89
648.292	5845.93
648.485	5903.27
648.678	5598.12
648.871	5634.99
649.064	5632.94
649.256	5702.57
649.449	5591.98
649.642	5688.23
649.835	5536.68
650.027	5581.74
650.22	5481.39
650.413	5546.92
650.605	5481.39
650.798	5409.71
650.991	5305.26
651.183	5419.95
651.376	5407.66
651.568	5276.59
651.761	5323.69
651.954	5323.69
652.146	5299.12
652.339	5092.27
652.531	5122.99
652.724	5102.51
652.916	5041.08
653.109	5135.28
653.301	5188.53
653.494	5196.72
653.686	5043.12
653.879	5010.36
654.071	4996.02
654.263	5057.46
654.456	5032.88
654.648	4918.2
654.84	4893.62
655.033	4836.28
655.225	4875.19
655.417	4758.46
655.61	4821.94
655.802	4703.16
655.994	4748.22
656.186	4719.54
656.379	4602.81
656.571	4885.43
656.763	4619.19
656.955	4662.2
657.148	4586.43
657.34	4594.62
657.532	4473.79
657.724	4580.28
657.916	4559.8
658.108	4527.03
658.3	4434.88
658.492	4449.21
658.684	4500.41
658.876	4301.76
659.068	4318.14
659.26	4246.46
659.452	4465.6
659.644	4303.81
659.836	4416.44
660.028	4350.91
660.22	4250.56
660.412	4121.54
660.604	4068.29
660.796	4004.8
660.988	4088.77
661.18	4056
661.372	4170.69
661.563	4103.11
661.755	4099.01
661.947	4129.73
662.139	3990.47
662.331	4185.02
662.522	4010.95
662.714	4058.05
662.906	4051.91
663.097	3820.49
663.289	4000.71
663.481	4023.23
663.673	3904.45
663.864	3883.97
664.056	3908.55
664.247	3820.49
664.439	3943.36
664.631	3754.95
664.822	3859.4
665.014	3824.58
665.205	3744.71
665.397	3777.48
665.588	3785.67
665.78	3793.86
665.971	3644.36
666.163	3623.88
666.354	3701.7
666.546	3648.46
666.737	3580.87
666.929	3681.22
667.12	3687.37
667.311	3494.86
667.503	3648.46
667.694	3709.9
667.885	3533.77
668.077	3623.88
668.268	3587.02
668.459	3527.63
668.651	3511.24
668.842	3494.86
669.033	3404.75
669.224	3515.34
669.416	3443.66
669.607	3515.34
669.798	3429.32
669.989	3478.47
670.18	3386.32
670.371	3394.51
670.563	3374.03
670.754	3443.66
670.945	3355.6
671.136	3318.73
671.327	3300.3
671.518	3261.39
671.709	3386.32
671.9	3281.87
672.091	3259.34
672.282	3263.44
672.473	3169.23
672.664	3279.82
672.855	3224.53
673.046	3251.15
673.237	3267.53
673.428	3245.01
673.619	3204.05
673.809	3267.53
674	3109.84
674.191	3128.27
674.382	3230.67
674.573	3193.81
674.764	3245.01
674.954	3193.81
675.145	3298.25
675.336	3144.66
675.527	3070.93
675.717	3142.61
675.908	3101.65
676.099	3158.99
676.289	3154.9
676.48	3089.36
676.671	3140.56
676.861	3081.17
677.052	3111.89
677.243	3042.26
677.433	3093.46
677.624	3210.19
677.814	3275.73
678.005	3050.45
678.195	3183.57
678.386	3013.59
678.576	2978.77
678.767	3095.5
678.957	2966.48
679.148	3107.79
679.338	3025.87
679.529	3023.83
679.719	2954.19
679.909	3048.4
680.1	3040.21
680.29	3148.75
680.481	3013.59
680.671	2886.61
680.861	2995.15
681.052	3115.98
681.242	3070.93
681.432	2978.77
681.622	2978.77
681.813	2970.58
682.003	2927.57
682.193	3001.3
682.383	2948.05
682.573	2980.82
682.764	2968.53
682.954	2898.9
683.144	2890.71
683.334	2943.96
683.524	2851.8
683.714	2866.13
683.904	2825.17
684.094	2935.76
684.284	2929.62
684.474	2954.19
684.664	2882.52
684.854	2915.28
685.044	2933.72
685.234	2862.04
685.424	2821.08
685.614	2864.08
685.804	2913.24
685.994	2878.42
686.184	2847.7
686.374	2841.56
686.564	2737.11
686.753	2708.44
686.943	2780.12
687.133	2798.55
687.323	2767.83
687.513	2741.21
687.702	2737.11
687.892	2763.73
688.082	2679.77
688.272	2743.25
688.461	2747.35
688.651	2737.11
688.841	2700.25
689.03	2679.77
689.22	2671.58
689.41	2624.47
689.599	2526.17
689.789	2567.13
689.979	2558.94
690.168	2597.85
690.358	2558.94
690.547	2542.55
690.737	2454.49
690.926	2534.36
691.116	2589.66
691.305	2505.69
691.495	2507.74
691.684	2419.68
691.874	2460.63
692.063	2489.31
692.252	2434.01
692.442	2401.24
692.631	2243.55
692.82	2417.63
693.01	2386.91
693.199	2302.94
693.388	2169.82
693.578	2294.75
693.767	2261.98
693.956	2419.68
694.146	2397.15
694.335	2288.61
694.524	2296.8
694.713	2243.55
694.902	2282.46
695.092	2206.69
695.281	2206.69
695.47	2225.12
695.659	2163.68
695.848	2145.25
696.037	2135.01
696.226	2165.73
696.415	2132.96
696.604	2253.79
696.793	2005.99
696.982	2145.25
697.171	2034.66
697.36	2130.91
697.549	2069.47
697.738	2157.54
697.927	2051.04
698.116	2100.19
698.305	2026.47
698.494	2163.68
698.683	2171.87
698.872	2155.49
699.061	2053.09
699.25	2051.04
699.438	2089.95
699.627	2110.43
699.816	2143.2
700.005	2024.42
700.193	2051.04
700.382	1962.98
700.571	2034.66
700.76	1991.65
700.948	2018.27
701.137	1997.79
701.326	2051.04
701.514	2001.89
701.703	2112.48
701.892	2038.75
702.08	2124.77
702.269	2051.04
702.457	1985.51
702.646	1997.79
702.834	2012.13
703.023	2022.37
703.212	2122.72
703.4	2036.7
703.589	1969.12
703.777	2096.1
703.965	2063.33
704.154	2212.83
704.342	1987.55
704.531	2059.23
704.719	1956.83
704.907	2057.18
705.096	2059.23
705.284	2001.89
705.472	2073.57
705.661	2018.27
705.849	2042.85
706.037	1981.41
706.226	1936.35
706.414	2010.08
706.602	1989.6
706.79	1956.83
706.979	2040.8
707.167	2067.42
707.355	2001.89
707.543	2001.89
707.731	2036.7
707.919	1952.74
708.107	2053.09
708.296	2100.19
708.484	1960.93
708.672	2112.48
708.86	1950.69
709.048	1919.97
709.236	2087.9
709.424	2100.19
709.612	2157.54
709.8	1989.6
709.988	2110.43
710.176	2122.72
710.364	2057.18
710.551	1922.02
710.739	1985.51
710.927	2118.62
711.115	2159.58
711.303	2149.34
711.491	2098.14
711.679	2042.85
711.866	2003.94
712.054	2167.77
712.242	2010.08
712.43	2089.95
712.617	2141.15
712.805	1936.35
712.993	2108.38
713.181	2114.53
713.368	2112.48
713.556	2167.77
713.744	2083.81
713.931	2089.95
714.119	2055.14
714.306	2087.9
714.494	2147.3
714.682	2048.99
714.869	2155.49
715.057	2096.1
715.244	2114.53
715.432	2206.69
715.619	2145.25
715.807	2071.52
715.994	2198.49
716.182	2225.12
716.369	2132.96
716.556	2169.82
716.744	2196.45
716.931	2153.44
717.119	2194.4
717.306	2231.26
717.493	2243.55
717.681	2237.41
717.868	2235.36
718.055	2098.14
718.242	2345.95
718.43	2149.34
718.617	2245.6
718.804	2137.06
718.991	2208.73
719.179	2282.46
719.366	2216.93
719.553	2259.93
719.74	2292.7
719.927	2235.36
720.114	2282.46
720.301	2130.91
720.488	2214.88
720.676	2298.84
720.863	2319.32
721.05	2257.89
721.237	2462.68
721.424	2395.1
721.611	2298.84
721.798	2270.17
721.985	2395.1
722.172	2280.41
722.358	2386.91
722.545	2272.22
722.732	2286.56
722.919	2323.42
723.106	2358.24
723.293	2419.68
723.48	2370.52
723.667	2319.32
723.853	2247.65
724.04	2300.89
724.227	2350.04
724.414	2393.05
724.6	2378.72
724.787	2352.09
724.974	2251.74
725.161	2401.24
725.347	2348
725.534	2388.96
725.72	2360.28
725.907	2335.71
726.094	2409.44
726.28	2337.76
726.467	2429.91
726.653	2356.19
726.84	2481.11
727.027	2497.5
727.213	2366.43
727.4	2440.15
727.586	2466.78
727.773	2384.86
727.959	2456.54
728.145	2597.85
728.332	2503.64
728.518	2477.02
728.705	2468.83
728.891	2423.77
729.077	2481.11
729.264	2491.35
729.45	2440.15
729.636	2456.54
729.823	2456.54
730.009	2483.16
730.195	2546.65
730.382	2565.08
730.568	2366.43
730.754	2532.31
730.94	2434.01
731.126	2483.16
731.313	2356.19
731.499	2583.51
731.685	2520.03
731.871	2550.75
732.057	2403.29
732.243	2483.16
732.429	2532.31
732.615	2446.3
732.801	2511.83
732.987	2493.4
733.173	2536.41
733.359	2550.75
733.545	2501.59
733.731	2417.63
733.917	2517.98
734.103	2483.16
734.289	2558.94
734.475	2497.5
734.661	2505.69
734.847	2528.22
735.033	2411.48
735.219	2479.07
735.404	2522.07
735.59	2556.89
735.776	2376.67
735.962	2466.78
736.148	2583.51
736.333	2440.15
736.519	2501.59
736.705	2456.54
736.89	2370.52
737.076	2487.26
737.262	2466.78
737.447	2382.81
737.633	2456.54
737.819	2526.17
738.004	2522.07
738.19	2436.06
738.375	2597.85
738.561	2546.65
738.747	2446.3
738.932	2495.45
739.118	2462.68
739.303	2399.2
739.489	2423.77
739.674	2456.54
739.859	2487.26
740.045	2415.58
740.23	2393.05
740.416	2436.06
740.601	2415.58
740.786	2442.2
740.972	2409.44
741.157	2448.35
741.342	2286.56
741.528	2489.31
741.713	2282.46
741.898	2319.32
742.084	2364.38
742.269	2376.67
742.454	2393.05
742.639	2227.17
742.824	2280.41
743.01	2264.03
743.195	2288.61
743.38	2292.7
743.565	2274.27
743.75	2194.4
743.935	2378.72
744.12	2304.99
744.305	2270.17
744.49	2137.06
744.675	2294.75
744.86	2216.93
745.045	2243.55
745.23	2216.93
745.415	2190.3
745.6	2124.77
745.785	2229.21
745.97	2173.92
746.155	2259.93
746.34	2243.55
746.525	2126.82
746.71	2114.53
746.895	2092
747.079	2048.99
747.264	2178.01
747.449	2145.25
747.634	2057.18
747.819	2108.38
748.003	2081.76
748.188	2106.34
748.373	1917.92
748.557	2044.9
748.742	1917.92
748.927	2083.81
749.111	2075.62
749.296	1850.34
749.481	2024.42
749.665	1911.78
749.85	1907.68
750.034	2018.27
750.219	1891.3
750.404	1803.24
750.588	1909.73
750.773	1905.63
750.957	1891.3
751.141	1862.63
751.326	1848.29
751.51	1793
751.695	1809.38
751.879	1704.93
752.064	1905.63
752.248	1793
752.432	1833.96
752.617	1778.66
752.801	1780.71
752.985	1682.41
753.17	1717.22
753.354	1846.24
753.538	1747.94
753.722	1709.03
753.907	1674.21
754.091	1696.74
754.275	1573.86
754.459	1537
754.643	1584.1
754.828	1604.58
755.012	1596.39
755.196	1516.52
755.38	1651.69
755.564	1485.8
755.748	1526.76
755.932	1541.1
756.116	1537
756.3	1571.82
756.484	1502.19
756.668	1428.46
756.852	1481.71
757.036	1399.79
757.22	1479.66
757.404	1508.33
757.588	1395.69
757.772	1461.23
757.956	1319.92
758.14	1405.93
758.323	1362.92
758.507	1364.97
758.691	1379.31
758.875	1278.96
759.059	1344.49
759.242	1346.54
759.426	1301.48
759.61	1211.37
759.794	1360.88
759.977	1303.53
760.161	1373.16
760.345	1264.62
760.528	1287.15
760.712	1285.1
760.895	1219.57
761.079	1379.31
761.263	1197.04
761.446	1256.43
761.63	1225.71
761.813	1205.23
761.997	1217.52
762.18	1233.9
762.364	1207.28
762.547	1207.28
762.731	1203.18
762.914	1246.19
763.098	1111.02
763.281	1166.32
763.464	1164.27
763.648	1201.13
763.831	1188.85
764.015	1172.46
764.198	1246.19
764.381	1133.55
764.564	1137.65
764.748	1135.6
764.931	1022.96
765.114	1092.59
765.297	1145.84
765.481	1145.84
765.664	1098.74
765.847	1192.94
766.03	1035.25
766.213	1092.59
766.397	1100.78
766.58	1043.44
766.763	1174.51
766.946	1080.3
767.129	1086.45
767.312	1094.64
767.495	992.24
767.678	1080.3
767.861	1113.07
768.044	1000.43
768.227	1098.74
768.41	990.19
768.593	1004.53
768.776	982
768.959	967.67
769.142	1035.25
769.324	924.66
769.507	961.52
769.69	1092.59
769.873	986.1
770.056	1092.59
770.239	1020.91
770.421	1012.72
770.604	984.05
770.787	906.23
770.97	1008.62
771.152	982
771.335	867.31
771.518	873.46
771.7	887.79
771.883	994.29
772.066	904.18
772.248	965.62
772.431	865.27
772.613	879.6
772.796	957.43
772.978	812.02
773.161	984.05
773.343	779.25
773.526	926.71
773.708	918.51
773.891	754.68
774.073	846.84
774.256	867.31
774.438	900.08
774.621	728.05
774.803	797.68
774.985	838.64
775.168	846.84
775.35	773.11
775.532	844.79
775.715	807.92
775.897	842.74
776.079	748.53
776.261	916.47
776.444	723.96
776.626	779.25
776.808	750.58
776.99	701.43
777.173	812.02
777.355	779.25
777.537	711.67
777.719	687.09
777.901	683
778.083	756.72
778.265	691.19
778.447	656.37
778.629	646.13
778.811	650.23
778.993	685.05
779.175	699.38
779.357	703.48
779.539	648.18
779.721	689.14
779.903	689.14
780.085	648.18
780.267	639.99
780.449	629.75
780.631	676.85
780.812	652.28
780.994	623.61
781.176	584.7
781.358	711.67
781.54	584.7
781.721	588.79
781.903	617.46
782.085	560.12
782.267	580.6
782.448	621.56
782.63	572.41
782.812	502.78
782.993	562.17
783.175	601.08
783.357	488.44
783.538	533.5
783.72	568.31
783.901	584.7
784.083	502.78
784.264	539.64
784.446	531.45
784.627	486.39
784.809	467.96
784.99	472.06
785.172	433.15
785.353	478.2
785.535	437.24
785.716	433.15
785.897	461.82
786.079	508.92
786.26	560.12
786.441	498.68
786.623	496.63
786.804	476.15
786.985	484.34
787.167	519.16
787.348	420.86
787.529	488.44
787.71	478.2
787.891	484.34
788.073	465.91
788.254	451.58
788.435	455.67
788.616	459.77
788.797	375.8
788.978	480.25
789.159	402.43
789.34	375.8
789.522	408.57
789.703	392.19
789.884	427
790.065	412.67
790.246	414.71
790.427	324.6
790.607	363.51
790.788	402.43
790.969	383.99
791.15	379.9
791.331	379.9
791.512	383.99
791.693	359.42
791.874	359.42
792.054	361.47
792.235	320.51
792.416	334.84
792.597	316.41
792.778	386.04
792.958	406.52
793.139	371.71
793.32	332.79
793.5	373.75
793.681	347.13
793.862	300.03
794.042	328.7
794.223	275.45
794.404	320.51
794.584	252.92
794.765	328.7
794.945	353.27
795.126	312.32
795.306	394.23
795.487	240.64
795.667	244.73
795.848	322.56
796.028	283.64
796.209	291.84
796.389	355.32
796.57	281.6
796.75	295.93
796.93	265.21
797.111	304.12
797.291	322.56
797.471	302.08
797.652	205.82
797.832	257.02
798.012	254.97
798.192	181.25
798.373	324.6
798.553	312.32
798.733	355.32
798.913	261.12
799.093	228.35
799.274	254.97
799.454	279.55
799.634	261.12
799.814	279.55
799.994	291.84
800.174	273.4
800.354	345.08
800.534	252.92
800.714	287.74
800.894	306.17
801.074	306.17
801.254	244.73
801.434	320.51
801.614	232.44
801.794	211.96
801.974	621.56
802.154	269.31
802.334	230.4
802.514	218.11
802.693	201.72
802.873	171.01
803.053	295.93
803.233	271.36
803.413	279.55
803.592	240.64
803.772	216.06
803.952	252.92
804.131	232.44
804.311	283.64
804.491	285.69
804.67	293.88
804.85	222.2
805.03	220.16
805.209	259.07
805.389	193.53
805.568	162.81
805.748	273.4
805.928	216.06
806.107	218.11
806.287	207.87
806.466	185.34
806.646	187.39
806.825	158.72
807.004	222.2
807.184	277.5
807.363	261.12
807.543	199.68
807.722	173.05
807.901	209.92
808.081	209.92
808.26	103.42
808.439	195.58
808.619	232.44
808.798	197.63
808.977	211.96
809.156	183.29
809.336	185.34
809.515	203.77
809.694	140.29
809.873	234.49
810.052	138.24
810.231	214.01
810.411	257.02
810.59	177.15
810.769	123.9
810.948	207.87
811.127	232.44
811.306	250.88
811.485	211.96
811.664	207.87
811.843	193.53
812.022	158.72
812.201	171.01
812.38	158.72
812.559	173.05
812.737	171.01
812.916	89.09
813.095	130.05
813.274	224.25
813.453	150.53
813.632	91.13
813.811	216.06
813.989	130.05
814.168	101.37
814.347	128
814.526	93.18
814.704	125.95
814.883	183.29
815.062	162.81
815.24	177.15
815.419	148.48
815.598	150.53
815.776	84.99
815.955	148.48
816.133	148.48
816.312	93.18
816.49	123.9
816.669	128
816.847	132.09
817.026	183.29
817.204	130.05
817.383	150.53
817.561	128
817.74	168.96
817.918	152.57
818.097	138.24
818.275	144.38
818.453	66.56
818.632	111.61
818.81	95.23
818.988	175.1
819.167	48.13
819.345	191.49
819.523	132.09
819.701	158.72
819.879	189.44
820.058	113.66
820.236	82.94
820.414	148.48
820.592	62.46
820.77	199.68
820.948	101.37
821.127	109.57
821.305	156.67
821.483	109.57
821.661	117.76
821.839	103.42
822.017	95.23
822.195	93.18
822.373	50.18
822.551	158.72
822.729	164.86
822.907	125.95
823.085	91.13
823.262	171.01
823.44	173.05
823.618	89.09
823.796	168.96
823.974	148.48
824.152	138.24
824.329	58.37
824.507	66.56
824.685	138.24
824.863	132.09
825.04	132.09
825.218	84.99
825.396	123.9
825.574	91.13
825.751	111.61
825.929	150.53
826.107	119.81
826.284	132.09
826.462	97.28
826.639	179.2
826.817	103.42
826.994	132.09
827.172	68.61
827.349	101.37
827.527	140.29
827.704	105.47
827.882	101.37
828.059	113.66
828.237	37.89
828.414	144.38
828.591	31.74
828.769	138.24
828.946	117.76
829.124	125.95
829.301	109.57
829.478	91.13
829.655	140.29
829.833	115.71
830.01	48.13
830.187	123.9
830.364	35.84
830.542	82.94
830.719	148.48
830.896	91.13
831.073	125.95
831.25	107.52
831.427	3.07
831.604	113.66
831.782	74.75
831.959	109.57
832.136	76.8
832.313	48.13
832.49	23.55
832.667	175.1
832.844	89.09
833.021	115.71
833.198	76.8
833.374	91.13
833.551	117.76
833.728	68.61
833.905	148.48
834.082	91.13
834.259	113.66
834.436	58.37
834.612	84.99
834.789	84.99
834.966	93.18
835.143	27.65
835.319	37.89
835.496	119.81
835.673	99.33
835.85	76.8
836.026	84.99
836.203	15.36
836.38	48.13
836.556	76.8
836.733	52.22
836.909	101.37
837.086	31.74
837.262	46.08
837.439	60.42
837.616	31.74
837.792	58.37
837.968	33.79
838.145	56.32
838.321	80.89
838.498	52.22
838.674	84.99
838.851	87.04
839.027	60.42
839.203	74.75
839.38	80.89
839.556	95.23
839.732	107.52
839.909	84.99
840.085	72.7
840.261	9.22
840.437	123.9
840.614	117.76
840.79	121.85
840.966	74.75
841.142	64.51
841.318	46.08
841.494	66.56
841.671	52.22
841.847	82.94
842.023	84.99
842.199	52.22
842.375	105.47
842.551	60.42
842.727	111.61
842.903	23.55
843.079	15.36
843.255	52.22
843.431	-95.23
843.607	44.03
843.783	-21.5
843.959	132.09
844.134	31.74
844.31	64.51
844.486	76.8
844.662	60.42
844.838	50.18
845.013	60.42
845.189	35.84
845.365	52.22
845.541	44.03
845.716	62.46
845.892	33.79
846.068	82.94
846.244	-5.12
846.419	-1.02
846.595	76.8
846.77	46.08
846.946	64.51
847.122	41.98
847.297	111.61
847.473	80.89
847.648	-50.18
847.824	58.37
847.999	-13.31
848.175	48.13
848.35	35.84
848.526	72.7
848.701	29.7
848.876	89.09
849.052	48.13
849.227	115.71
849.403	72.7
849.578	15.36
849.753	44.03
849.929	64.51
850.104	-23.55
850.279	84.99
850.454	25.6
850.63	-17.41
850.805	35.84
850.98	19.46
851.155	1.02
851.33	87.04
851.505	35.84
851.681	39.94
851.856	58.37
852.031	41.98
852.206	25.6
852.381	17.41
852.556	48.13
852.731	74.75
852.906	21.5
853.081	62.46
853.256	80.89
853.431	56.32
853.606	62.46
853.781	60.42
853.956	9.22
854.131	107.52
854.305	52.22
854.48	7.17
854.655	-25.6
854.83	46.08
855.005	-46.08
855.18	64.51
855.354	17.41
855.529	-7.17
855.704	25.6
855.879	13.31
856.053	11.26
856.228	54.27
856.403	-33.79
856.577	70.65
856.752	9.22
856.926	15.36
857.101	31.74
857.276	37.89
857.45	74.75
857.625	74.75
857.799	5.12
857.974	5.12
858.148	39.94
858.323	1.02
858.497	80.89
858.672	21.5
858.846	41.98
859.02	41.98
859.195	84.99
859.369	50.18
859.543	95.23
859.718	123.9
859.892	82.94
860.066	-1.02
860.241	-5.12
860.415	-37.89
860.589	-5.12
860.763	111.61
860.938	11.26
861.112	50.18
861.286	76.8
861.46	72.7
861.634	-1.02
861.808	19.46
861.982	-25.6
862.157	103.42
862.331	21.5
862.505	39.94
862.679	-3.07
862.853	-25.6
863.027	101.37
863.201	76.8
863.375	44.03
863.549	-5.12
863.722	72.7
863.896	78.85
864.07	82.94
864.244	105.47
864.418	-21.5
864.592	-1.02
864.766	3.07
864.939	56.32
865.113	46.08
865.287	31.74
865.461	3.07
865.634	-46.08
865.808	-27.65
865.982	17.41
866.156	1.02
866.329	31.74
866.503	17.41
866.676	-9.22
866.85	41.98
867.024	60.42
867.197	-3.07
867.371	-5.12
867.544	35.84
867.718	33.79
867.891	21.5
868.065	23.55
868.238	60.42
868.412	27.65
868.585	60.42
868.759	37.89
868.932	11.26
869.105	17.41
869.279	37.89
869.452	37.89
869.625	23.55
869.799	95.23
869.972	27.65
870.145	48.13
870.319	-7.17
870.492	-33.79
870.665	-1.02
870.838	-19.46
871.011	41.98
871.185	50.18
871.358	60.42
871.531	23.55
871.704	113.66
871.877	19.46
872.05	3.07
872.223	56.32
872.396	35.84
872.569	21.5
872.742	-13.31
872.915	35.84
873.088	-39.94
873.261	25.6
873.434	21.5
873.607	3.07
873.78	66.56
873.953	-25.6
874.126	21.5
874.299	27.65
874.471	35.84
874.644	19.46
874.817	52.22
874.99	64.51
875.163	7.17
875.335	46.08
875.508	5.12
875.681	-19.46
875.853	80.89
876.026	33.79
876.199	44.03
876.371	56.32
876.544	31.74
876.717	48.13
876.889	52.22
877.062	-5.12
877.234	-27.65
877.407	-48.13
877.579	29.7
877.752	52.22
877.924	15.36
878.097	-50.18
878.269	31.74
878.442	31.74
878.614	41.98
878.786	-17.41
878.959	-19.46
879.131	15.36
879.303	60.42
879.476	25.6
879.648	56.32
879.82	48.13
879.993	-64.51
880.165	-7.17
880.337	35.84
880.509	54.27
880.681	-1.02
880.854	25.6
881.026	-15.36
881.198	48.13
881.37	31.74
881.542	17.41
881.714	-46.08
881.886	-13.31
882.058	11.26
882.23	15.36
882.402	-17.41
882.574	7.17
882.746	-9.22
882.918	37.89
883.09	35.84
883.262	-58.37
883.434	50.18
883.606	13.31
883.778	56.32
883.95	66.56
884.122	-46.08
884.293	7.17
884.465	11.26
884.637	15.36
884.809	19.46
884.98	78.85
885.152	-13.31
885.324	7.17
885.496	21.5
885.667	19.46
885.839	66.56
886.011	27.65
886.182	35.84
886.354	-19.46
886.525	19.46
886.697	1.02
886.869	-37.89
887.04	-31.74
887.212	58.37
887.383	37.89
887.555	1.02
887.726	68.61
887.897	52.22
888.069	31.74
888.24	-11.26
888.412	-27.65
888.583	35.84
888.754	95.23
888.926	-74.75
889.097	-29.7
889.268	-7.17
889.44	11.26
889.611	15.36
889.782	-7.17
889.953	-39.94
890.125	21.5
890.296	19.46
890.467	-52.22
890.638	-84.99
890.809	27.65
890.98	-19.46
891.151	-19.46
891.323	17.41
891.494	-70.65
891.665	-25.6
891.836	31.74
892.007	44.03
892.178	29.7
892.349	-13.31
892.52	-54.27
892.691	27.65
892.862	37.89
893.032	1.02
893.203	58.37
893.374	46.08
893.545	70.65
893.716	27.65
893.887	66.56
894.057	15.36
894.228	-15.36
894.399	-5.12
894.57	7.17
894.74	25.6
894.911	-13.31
895.082	13.31
895.253	-13.31
895.423	31.74
895.594	58.37
895.764	9.22
895.935	-68.61
896.106	60.42
896.276	-9.22
896.447	-5.12
896.617	-35.84
896.788	-15.36
896.958	-37.89
897.129	-7.17
897.299	35.84
897.47	66.56
897.64	25.6
897.81	-9.22
897.981	107.52
898.151	-46.08
898.322	72.7
898.492	5.12
898.662	-31.74
898.832	31.74
899.003	74.75
899.173	-29.7
899.343	-23.55
899.513	80.89
