Data from USB4F104151__38__11-36-53-244.txt Node

Date: Fri Mar 14 11:36:53 EDT 2025
User: louis
Spectrometer: USB4F10415
Trigger mode: 4
Integration Time (sec): 2.000000E-2
Scans to average: 1
Electric dark correction enabled: true
Nonlinearity correction enabled: false
Boxcar width: 0
XAxis mode: Wavelengths
Number of Pixels in Spectrum: 3648
>>>>>Begin Spectral Data<<<<<
178.204	-86.87
178.424	-86.87
178.644	-86.87
178.864	-45.91
179.084	-117.59
179.304	-33.62
179.524	9.39
179.744	11.43
179.964	27.82
180.184	-43.86
180.404	-4.95
180.624	-47.96
180.844	5.29
181.064	9.39
181.283	70.83
181.503	-21.33
181.723	17.58
181.943	74.92
182.163	52.39
182.383	-4.95
182.602	-21.33
182.822	-27.48
183.042	31.91
183.262	-64.34
183.482	-19.29
183.701	-115.54
183.921	13.48
184.141	17.58
184.361	-37.72
184.58	31.91
184.8	85.16
185.02	3.24
185.239	-0.85
185.459	15.53
185.679	44.2
185.898	46.25
186.118	58.54
186.338	99.5
186.557	58.54
186.777	-13.14
186.997	-58.2
187.216	5.29
187.436	25.77
187.655	62.63
187.875	3.24
188.095	33.96
188.314	25.77
188.534	89.26
188.753	13.48
188.973	-0.85
189.192	5.29
189.412	83.11
189.631	64.68
189.851	21.67
190.07	52.39
190.29	5.29
190.509	21.67
190.729	13.48
190.948	46.25
191.168	105.64
191.387	19.63
191.607	-4.95
191.826	44.2
192.045	15.53
192.265	-41.81
192.484	21.67
192.704	9.39
192.923	36.01
193.142	60.59
193.362	23.72
193.581	33.96
193.8	38.06
194.02	109.74
194.239	33.96
194.458	23.72
194.678	38.06
194.897	68.78
195.116	-19.29
195.335	-7
195.555	54.44
195.774	5.29
195.993	38.06
196.212	-17.24
196.432	-52.05
196.651	-15.19
196.87	-52.05
197.089	60.59
197.308	48.3
197.528	1.19
197.747	-88.92
197.966	38.06
198.185	87.21
198.404	76.97
198.623	-60.24
198.842	-13.14
199.062	93.35
199.281	50.35
199.5	-23.38
199.719	58.54
199.938	-2.9
200.157	-52.05
200.376	95.4
200.595	38.06
200.814	-60.24
201.033	-27.48
201.252	9.39
201.471	-47.96
201.69	36.01
201.909	72.87
202.128	115.88
202.347	-68.44
202.566	-2.9
202.785	15.53
203.004	9.39
203.223	60.59
203.442	-23.38
203.661	29.87
203.879	15.53
204.098	-56.15
204.317	-39.76
204.536	13.48
204.755	-0.85
204.974	-31.57
205.193	21.67
205.411	62.63
205.63	60.59
205.849	1.19
206.068	36.01
206.287	50.35
206.505	9.39
206.724	13.48
206.943	-11.09
207.162	25.77
207.381	54.44
207.599	-56.15
207.818	-68.44
208.037	54.44
208.255	68.78
208.474	46.25
208.693	-39.76
208.911	-72.53
209.13	-0.85
209.349	101.55
209.567	23.72
209.786	-2.9
210.005	36.01
210.223	-2.9
210.442	-54.1
210.661	5.29
210.879	7.34
211.098	-21.33
211.316	87.21
211.535	-13.14
211.753	-2.9
211.972	60.59
212.191	13.48
212.409	111.78
212.628	46.25
212.846	29.87
213.065	-43.86
213.283	66.73
213.502	-39.76
213.72	25.77
213.938	-13.14
214.157	29.87
214.375	44.2
214.594	44.2
214.812	46.25
215.031	50.35
215.249	38.06
215.467	15.53
215.686	-9.05
215.904	81.07
216.122	-9.05
216.341	79.02
216.559	13.48
216.778	101.55
216.996	50.35
217.214	27.82
217.432	-7
217.651	-84.82
217.869	11.43
218.087	62.63
218.306	66.73
218.524	15.53
218.742	23.72
218.96	-39.76
219.179	5.29
219.397	11.43
219.615	-27.48
219.833	70.83
220.051	25.77
220.27	62.63
220.488	21.67
220.706	62.63
220.924	1.19
221.142	-39.76
221.36	-35.67
221.578	17.58
221.796	111.78
222.015	31.91
222.233	-4.95
222.451	29.87
222.669	-88.92
222.887	5.29
223.105	13.48
223.323	13.48
223.541	13.48
223.759	68.78
223.977	25.77
224.195	11.43
224.413	25.77
224.631	72.87
224.849	11.43
225.067	13.48
225.285	62.63
225.503	21.67
225.721	-11.09
225.939	-35.67
226.157	-35.67
226.375	17.58
226.592	3.24
226.81	5.29
227.028	5.29
227.246	17.58
227.464	54.44
227.682	29.87
227.9	21.67
228.117	40.11
228.335	11.43
228.553	52.39
228.771	-7
228.989	-25.43
229.206	9.39
229.424	-27.48
229.642	-7
229.86	3.24
230.077	38.06
230.295	46.25
230.513	95.4
230.731	-82.77
230.948	1.19
231.166	31.91
231.384	13.48
231.601	9.39
231.819	7.34
232.037	15.53
232.254	3.24
232.472	5.29
232.689	13.48
232.907	1.19
233.125	66.73
233.342	19.63
233.56	-19.29
233.777	29.87
233.995	-13.14
234.213	21.67
234.43	-29.52
234.648	31.91
234.865	58.54
235.083	36.01
235.3	-13.14
235.518	66.73
235.735	29.87
235.953	-17.24
236.17	29.87
236.388	9.39
236.605	70.83
236.822	91.31
237.04	42.15
237.257	119.98
237.475	1.19
237.692	-4.95
237.909	52.39
238.127	-45.91
238.344	38.06
238.562	-11.09
238.779	42.15
238.996	21.67
239.214	13.48
239.431	113.83
239.648	-2.9
239.865	38.06
240.083	-7
240.3	50.35
240.517	54.44
240.735	36.01
240.952	62.63
241.169	70.83
241.386	-7
241.603	25.77
241.821	-47.96
242.038	40.11
242.255	99.5
242.472	9.39
242.689	-19.29
242.907	48.3
243.124	25.77
243.341	-19.29
243.558	17.58
243.775	-45.91
243.992	9.39
244.209	58.54
244.426	70.83
244.643	54.44
244.86	36.01
245.078	52.39
245.295	13.48
245.512	-52.05
245.729	-52.05
245.946	-4.95
246.163	-31.57
246.38	5.29
246.597	70.83
246.814	-17.24
247.031	27.82
247.248	7.34
247.464	66.73
247.681	-9.05
247.898	62.63
248.115	66.73
248.332	44.2
248.549	-7
248.766	29.87
248.983	-9.05
249.2	25.77
249.417	7.34
249.633	29.87
249.85	33.96
250.067	-39.76
250.284	-4.95
250.501	42.15
250.717	36.01
250.934	-19.29
251.151	56.49
251.368	36.01
251.585	103.59
251.801	17.58
252.018	-29.52
252.235	13.48
252.451	105.64
252.668	-54.1
252.885	21.67
253.102	60.59
253.318	-4.95
253.535	-21.33
253.752	62.63
253.968	33.96
254.185	-72.53
254.401	58.54
254.618	60.59
254.835	-29.52
255.051	46.25
255.268	-0.85
255.484	21.67
255.701	11.43
255.917	40.11
256.134	5.29
256.351	-31.57
256.567	-2.9
256.784	36.01
257	-90.96
257.217	25.77
257.433	3.24
257.65	-21.33
257.866	25.77
258.082	33.96
258.299	29.87
258.515	-21.33
258.732	-0.85
258.948	-45.91
259.165	50.35
259.381	-21.33
259.597	7.34
259.814	95.4
260.03	36.01
260.246	95.4
260.463	85.16
260.679	15.53
260.895	-43.86
261.112	13.48
261.328	29.87
261.544	-62.29
261.761	62.63
261.977	-4.95
262.193	27.82
262.409	58.54
262.626	-0.85
262.842	19.63
263.058	81.07
263.274	29.87
263.49	-11.09
263.707	50.35
263.923	23.72
264.139	-41.81
264.355	52.39
264.571	23.72
264.787	29.87
265.004	-19.29
265.22	7.34
265.436	36.01
265.652	-9.05
265.868	48.3
266.084	60.59
266.3	13.48
266.516	25.77
266.732	-4.95
266.948	56.49
267.164	36.01
267.38	13.48
267.596	46.25
267.812	31.91
268.028	-7
268.244	7.34
268.46	-37.72
268.676	-15.19
268.892	-2.9
269.108	21.67
269.324	-31.57
269.54	40.11
269.756	-7
269.972	-0.85
270.188	89.26
270.403	7.34
270.619	3.24
270.835	21.67
271.051	-7
271.267	17.58
271.483	-2.9
271.698	66.73
271.914	-45.91
272.13	-31.57
272.346	50.35
272.562	76.97
272.777	62.63
272.993	54.44
273.209	-17.24
273.425	5.29
273.64	5.29
273.856	11.43
274.072	17.58
274.287	-23.38
274.503	7.34
274.719	36.01
274.934	95.4
275.15	-43.86
275.366	21.67
275.581	40.11
275.797	68.78
276.012	58.54
276.228	52.39
276.444	33.96
276.659	60.59
276.875	-27.48
277.09	11.43
277.306	46.25
277.521	40.11
277.737	-2.9
277.952	91.31
278.168	-35.67
278.383	-31.57
278.599	-33.62
278.814	21.67
279.03	62.63
279.245	46.25
279.461	66.73
279.676	11.43
279.892	21.67
280.107	-21.33
280.322	-23.38
280.538	46.25
280.753	-25.43
280.969	85.16
281.184	-2.9
281.399	62.63
281.615	38.06
281.83	5.29
282.045	33.96
282.26	40.11
282.476	19.63
282.691	-11.09
282.906	-37.72
283.122	15.53
283.337	76.97
283.552	89.26
283.767	-11.09
283.983	99.5
284.198	-13.14
284.413	76.97
284.628	-52.05
284.843	64.68
285.058	-76.63
285.274	93.35
285.489	17.58
285.704	40.11
285.919	-4.95
286.134	38.06
286.349	46.25
286.564	-4.95
286.779	36.01
286.995	-45.91
287.21	25.77
287.425	3.24
287.64	-45.91
287.855	-9.05
288.07	25.77
288.285	-4.95
288.5	25.77
288.715	11.43
288.93	27.82
289.145	36.01
289.36	29.87
289.575	9.39
289.79	31.91
290.004	19.63
290.219	85.16
290.434	23.72
290.649	-54.1
290.864	7.34
291.079	48.3
291.294	38.06
291.509	44.2
291.724	21.67
291.938	58.54
292.153	66.73
292.368	-86.87
292.583	42.15
292.798	27.82
293.012	54.44
293.227	48.3
293.442	25.77
293.657	5.29
293.871	62.63
294.086	60.59
294.301	79.02
294.516	95.4
294.73	-2.9
294.945	5.29
295.16	66.73
295.374	21.67
295.589	70.83
295.804	-39.76
296.018	54.44
296.233	68.78
296.447	64.68
296.662	11.43
296.877	119.98
297.091	33.96
297.306	85.16
297.52	-72.53
297.735	-23.38
297.949	-13.14
298.164	74.92
298.378	-17.24
298.593	29.87
298.807	-101.2
299.022	48.3
299.236	19.63
299.451	54.44
299.665	21.67
299.88	85.16
300.094	-39.76
300.309	9.39
300.523	36.01
300.737	19.63
300.952	-11.09
301.166	85.16
301.381	-25.43
301.595	7.34
301.809	50.35
302.024	38.06
302.238	-13.14
302.452	21.67
302.667	46.25
302.881	76.97
303.095	-13.14
303.309	42.15
303.524	-13.14
303.738	33.96
303.952	40.11
304.166	54.44
304.381	-15.19
304.595	48.3
304.809	60.59
305.023	76.97
305.237	-27.48
305.452	-11.09
305.666	13.48
305.88	29.87
306.094	52.39
306.308	68.78
306.522	58.54
306.736	48.3
306.95	1.19
307.164	-35.67
307.379	13.48
307.593	19.63
307.807	36.01
308.021	36.01
308.235	50.35
308.449	-35.67
308.663	-21.33
308.877	44.2
309.091	105.64
309.305	42.15
309.519	-2.9
309.733	1.19
309.947	-19.29
310.161	42.15
310.374	1.19
310.588	87.21
310.802	-29.52
311.016	62.63
311.23	42.15
311.444	81.07
311.658	46.25
311.872	-2.9
312.085	48.3
312.299	25.77
312.513	58.54
312.727	60.59
312.941	29.87
313.154	52.39
313.368	9.39
313.582	13.48
313.796	31.91
314.009	64.68
314.223	93.35
314.437	40.11
314.651	19.63
314.864	9.39
315.078	87.21
315.292	1.19
315.505	-35.67
315.719	72.87
315.933	-23.38
316.146	-9.05
316.36	-50
316.573	64.68
316.787	33.96
317.001	54.44
317.214	36.01
317.428	-4.95
317.641	40.11
317.855	101.55
318.068	-31.57
318.282	79.02
318.495	9.39
318.709	70.83
318.922	36.01
319.136	105.64
319.349	66.73
319.563	50.35
319.776	87.21
319.99	-41.81
320.203	25.77
320.417	25.77
320.63	11.43
320.843	15.53
321.057	72.87
321.27	13.48
321.483	46.25
321.697	54.44
321.91	-33.62
322.124	42.15
322.337	54.44
322.55	105.64
322.763	58.54
322.977	58.54
323.19	-31.57
323.403	-19.29
323.617	-0.85
323.83	-0.85
324.043	70.83
324.256	91.31
324.469	-19.29
324.683	25.77
324.896	15.53
325.109	21.67
325.322	27.82
325.535	66.73
325.748	52.39
325.962	9.39
326.175	21.67
326.388	85.16
326.601	9.39
326.814	70.83
327.027	40.11
327.24	60.59
327.453	-62.29
327.666	52.39
327.879	81.07
328.092	38.06
328.305	44.2
328.518	9.39
328.731	52.39
328.944	-15.19
329.157	111.78
329.37	29.87
329.583	124.07
329.796	48.3
330.009	27.82
330.222	68.78
330.435	27.82
330.648	40.11
330.861	42.15
331.073	101.55
331.286	36.01
331.499	-13.14
331.712	66.73
331.925	95.4
332.138	46.25
332.35	44.2
332.563	27.82
332.776	29.87
332.989	56.49
333.202	19.63
333.414	66.73
333.627	70.83
333.84	68.78
334.053	-9.05
334.265	85.16
334.478	36.01
334.691	60.59
334.903	25.77
335.116	66.73
335.329	-7
335.541	19.63
335.754	-9.05
335.966	44.2
336.179	70.83
336.392	25.77
336.604	54.44
336.817	60.59
337.029	87.21
337.242	74.92
337.454	58.54
337.667	76.97
337.88	66.73
338.092	29.87
338.305	50.35
338.517	-43.86
338.729	29.87
338.942	91.31
339.154	21.67
339.367	-2.9
339.579	52.39
339.792	-21.33
340.004	62.63
340.217	66.73
340.429	70.83
340.641	23.72
340.854	42.15
341.066	117.93
341.278	50.35
341.491	33.96
341.703	93.35
341.915	9.39
342.128	103.59
342.34	81.07
342.552	23.72
342.764	7.34
342.977	93.35
343.189	58.54
343.401	17.58
343.613	52.39
343.826	27.82
344.038	-4.95
344.25	72.87
344.462	9.39
344.674	-19.29
344.886	44.2
345.099	101.55
345.311	93.35
345.523	-17.24
345.735	54.44
345.947	142.5
346.159	50.35
346.371	93.35
346.583	68.78
346.795	64.68
347.007	19.63
347.219	103.59
347.431	111.78
347.643	54.44
347.855	5.29
348.067	23.72
348.279	-11.09
348.491	3.24
348.703	111.78
348.915	25.77
349.127	58.54
349.339	38.06
349.551	38.06
349.763	111.78
349.975	56.49
350.187	83.11
350.399	33.96
350.61	46.25
350.822	11.43
351.034	31.91
351.246	33.96
351.458	38.06
351.669	3.24
351.881	19.63
352.093	44.2
352.305	124.07
352.517	23.72
352.728	81.07
352.94	54.44
353.152	103.59
353.363	38.06
353.575	9.39
353.787	93.35
353.999	58.54
354.21	91.31
354.422	13.48
354.633	1.19
354.845	74.92
355.057	46.25
355.268	27.82
355.48	29.87
355.692	66.73
355.903	-2.9
356.115	54.44
356.326	87.21
356.538	85.16
356.749	-25.43
356.961	48.3
357.172	17.58
357.384	70.83
357.595	70.83
357.807	17.58
358.018	70.83
358.23	54.44
358.441	5.29
358.653	56.49
358.864	21.67
359.075	72.87
359.287	93.35
359.498	31.91
359.709	33.96
359.921	56.49
360.132	31.91
360.344	89.26
360.555	-9.05
360.766	21.67
360.977	-11.09
361.189	38.06
361.4	-7
361.611	93.35
361.823	72.87
362.034	62.63
362.245	66.73
362.456	62.63
362.667	13.48
362.879	-33.62
363.09	122.02
363.301	68.78
363.512	25.77
363.723	42.15
363.935	11.43
364.146	72.87
364.357	74.92
364.568	5.29
364.779	44.2
364.99	101.55
365.201	21.67
365.412	-2.9
365.623	31.91
365.834	105.64
366.045	48.3
366.256	-54.1
366.467	-19.29
366.678	7.34
366.889	148.65
367.1	52.39
367.311	72.87
367.522	50.35
367.733	83.11
367.944	38.06
368.155	-0.85
368.366	124.07
368.577	25.77
368.788	13.48
368.999	70.83
369.209	83.11
369.42	50.35
369.631	66.73
369.842	9.39
370.053	-23.38
370.264	50.35
370.474	66.73
370.685	38.06
370.896	1.19
371.107	95.4
371.317	48.3
371.528	74.92
371.739	66.73
371.95	15.53
372.16	66.73
372.371	70.83
372.582	-4.95
372.792	50.35
373.003	-21.33
373.214	15.53
373.424	64.68
373.635	19.63
373.846	113.83
374.056	50.35
374.267	105.64
374.477	25.77
374.688	50.35
374.898	11.43
375.109	46.25
375.319	15.53
375.53	87.21
375.74	52.39
375.951	48.3
376.161	25.77
376.372	113.83
376.582	85.16
376.793	50.35
377.003	46.25
377.214	95.4
377.424	9.39
377.635	60.59
377.845	42.15
378.055	70.83
378.266	5.29
378.476	79.02
378.686	66.73
378.897	93.35
379.107	152.74
379.317	113.83
379.528	62.63
379.738	105.64
379.948	79.02
380.158	-4.95
380.369	-11.09
380.579	52.39
380.789	1.19
380.999	72.87
381.21	64.68
381.42	107.69
381.63	54.44
381.84	25.77
382.05	42.15
382.261	23.72
382.471	128.17
382.681	40.11
382.891	-9.05
383.101	68.78
383.311	-4.95
383.521	60.59
383.731	60.59
383.941	83.11
384.151	62.63
384.361	40.11
384.571	-4.95
384.781	58.54
384.991	85.16
385.201	50.35
385.411	46.25
385.621	42.15
385.831	119.98
386.041	66.73
386.251	25.77
386.461	72.87
386.671	46.25
386.881	60.59
387.091	-21.33
387.301	58.54
387.511	79.02
387.72	68.78
387.93	85.16
388.14	66.73
388.35	66.73
388.56	132.26
388.769	103.59
388.979	169.13
389.189	60.59
389.399	17.58
389.609	38.06
389.818	60.59
390.028	79.02
390.238	29.87
390.447	17.58
390.657	72.87
390.867	9.39
391.076	23.72
391.286	36.01
391.496	27.82
391.705	93.35
391.915	115.88
392.125	117.93
392.334	70.83
392.544	115.88
392.753	33.96
392.963	50.35
393.172	36.01
393.382	87.21
393.591	117.93
393.801	95.4
394.01	33.96
394.22	107.69
394.429	183.46
394.639	103.59
394.848	74.92
395.058	25.77
395.267	42.15
395.477	68.78
395.686	91.31
395.895	54.44
396.105	136.36
396.314	70.83
396.524	95.4
396.733	40.11
396.942	99.5
397.152	66.73
397.361	244.9
397.57	107.69
397.78	134.31
397.989	140.46
398.198	189.61
398.407	52.39
398.617	62.63
398.826	81.07
399.035	169.13
399.244	83.11
399.453	109.74
399.663	154.79
399.872	81.07
400.081	40.11
400.29	152.74
400.499	74.92
400.708	134.31
400.917	132.26
401.127	117.93
401.336	144.55
401.545	144.55
401.754	160.94
401.963	148.65
402.172	95.4
402.381	138.41
402.59	115.88
402.799	154.79
403.008	91.31
403.217	171.18
403.426	169.13
403.635	189.61
403.844	130.22
404.053	158.89
404.262	160.94
404.471	179.37
404.68	193.7
404.888	152.74
405.097	152.74
405.306	218.28
405.515	124.07
405.724	208.04
405.933	142.5
406.142	224.42
406.35	238.76
406.559	169.13
406.768	165.03
406.977	212.14
407.185	216.23
407.394	193.7
407.603	179.37
407.812	246.95
408.02	273.57
408.229	255.14
408.438	242.85
408.646	253.09
408.855	210.09
409.064	347.3
409.272	244.9
409.481	384.16
409.69	283.81
409.898	341.16
410.107	289.96
410.315	306.34
410.524	316.58
410.733	371.88
410.941	341.16
411.15	461.99
411.358	437.41
411.567	476.32
411.775	390.31
411.984	468.13
412.192	443.56
412.401	525.47
412.609	455.84
412.818	582.82
413.026	627.87
413.234	543.91
413.443	619.68
413.651	591.01
413.86	642.21
414.068	636.06
414.276	672.93
414.485	648.35
414.693	683.17
414.901	791.71
415.11	738.46
415.318	756.9
415.526	801.95
415.734	873.63
415.943	926.88
416.151	779.42
416.359	904.35
416.567	922.78
416.776	969.88
416.984	1033.37
417.192	1135.77
417.4	1076.38
417.608	1127.58
417.817	1186.97
418.025	1166.49
418.233	1203.35
418.441	1178.78
418.649	1311.89
418.857	1496.21
419.065	1406.1
419.273	1508.5
419.481	1451.16
419.689	1588.37
419.897	1827.98
420.105	1678.48
420.313	1846.41
420.521	1799.31
420.729	1893.52
420.937	1856.65
421.145	1922.19
421.353	1907.85
421.561	2069.64
421.769	2165.9
421.977	2354.31
422.185	2391.17
422.393	2378.89
422.601	2647.17
422.809	2534.53
423.017	2587.78
423.224	2675.84
423.432	2712.71
423.64	2892.93
423.848	2999.42
424.056	3036.28
424.263	3216.51
424.471	3153.02
424.679	3261.56
424.887	3343.48
425.094	3523.7
425.302	3476.6
425.51	3595.38
425.718	3822.7
425.925	3894.38
426.133	4043.88
426.341	4287.59
426.548	4402.28
426.756	4422.76
426.964	4453.48
427.171	4637.8
427.379	4908.13
427.586	4942.94
427.794	5080.16
428.001	5418.07
428.209	5616.72
428.417	5280.86
428.624	5893.2
428.832	5829.71
429.039	5768.27
429.247	5778.51
429.454	6534.21
429.662	6872.13
429.869	6237.26
430.076	6886.47
430.284	6511.69
430.491	6829.12
430.699	7316.54
430.906	7392.31
431.114	7427.13
431.321	7603.25
431.528	7709.75
431.736	8121.39
431.943	8662.05
432.15	8352.81
432.358	8461.35
432.565	9110.56
432.772	8907.81
432.979	9384.99
433.187	9561.11
433.394	9827.35
433.601	10325.01
433.808	10206.22
434.016	10218.51
434.223	10822.66
434.43	11541.5
434.637	11154.43
434.844	11852.79
435.052	11985.91
435.259	12080.11
435.466	12159.99
435.673	12321.77
435.88	12755.94
436.087	13267.94
436.294	13566.94
436.501	13020.13
436.708	13519.84
436.915	13949.91
437.122	14492.62
437.329	14236.63
437.537	14869.45
437.743	15064
437.95	15025.09
438.157	15786.94
438.364	16393.14
438.571	16475.06
438.778	16423.86
438.985	17927.07
439.192	17111.97
439.399	17693.6
439.606	17216.42
439.813	18527.12
440.02	19542.91
440.227	19272.58
440.433	19096.46
440.64	19331.97
440.847	19538.82
441.054	19958.65
441.261	21080.94
441.467	21134.18
441.674	21492.58
441.881	22023
442.088	22610.77
442.294	21793.63
442.501	22631.25
442.708	23200.58
442.914	23765.82
443.121	24965.93
443.328	24419.13
443.534	25836.32
443.741	25187.11
443.948	25183.02
444.154	26745.62
444.361	26317.59
444.568	26776.34
444.774	26891.02
444.981	27063.05
445.187	27974.4
445.394	29321.96
445.6	28558.07
445.807	31382.22
446.013	29971.17
446.22	30659.29
446.426	31501
446.633	32369.34
446.839	33493.68
447.046	31808.2
447.252	33815.21
447.459	33671.85
447.665	33446.57
447.871	35121.81
448.078	36516.48
448.284	34962.07
448.491	35850.89
448.697	37202.55
448.903	37870.18
449.11	37874.28
449.316	37210.74
449.522	37954.15
449.728	39338.58
449.935	39314
450.141	39230.04
450.347	39969.35
450.553	38636.13
450.76	39111.25
450.966	40456.77
451.172	40206.92
451.378	41245.24
451.584	40575.55
451.791	41384.5
451.997	41417.27
452.203	42437.16
452.409	42058.28
452.615	41591.34
452.821	40143.43
453.027	39707.21
453.233	41769.52
453.44	40360.51
453.646	40573.5
453.852	41003.58
454.058	41968.17
454.264	40473.15
454.47	41194.04
454.676	40155.72
454.882	41746.99
455.088	38003.3
455.294	38773.34
455.5	39529.04
455.705	39463.5
455.911	37849.71
456.117	37325.43
456.323	36536.96
456.529	34701.98
456.735	36244.1
456.941	35312.27
457.147	34806.42
457.352	33940.13
457.558	33680.04
457.764	33458.86
457.97	32893.62
458.176	32072.39
458.381	32326.33
458.587	30548.7
458.793	30864.08
458.999	28932.85
459.204	30937.81
459.41	30184.16
459.616	28343.03
459.821	28672.76
460.027	28500.73
460.233	27693.83
460.438	26245.91
460.644	26606.36
460.85	25172.78
461.055	25193.26
461.261	25029.42
461.466	23106.38
461.672	22168.41
461.878	24167.23
462.083	22195.03
462.289	21994.33
462.494	21703.52
462.7	20988.78
462.905	20157.3
463.111	20679.54
463.316	21076.84
463.522	20720.49
463.727	20716.4
463.932	20544.37
464.138	20370.29
464.343	20591.47
464.549	19512.19
464.754	20415.35
464.959	20065.14
465.165	20374.39
465.37	19192.71
465.575	18666.38
465.781	19628.93
465.986	19592.06
466.191	18953.1
466.397	18457.49
466.602	17578.91
466.807	18662.29
467.012	18174.87
467.218	18049.94
467.423	17992.6
467.628	18017.18
467.833	18848.65
468.038	18238.36
468.244	17937.3
468.449	18508.69
468.654	17669.02
468.859	17808.28
469.064	17462.18
469.269	16989.1
469.474	17224.61
469.679	17560.48
469.885	16716.72
470.09	17032.1
470.295	17111.97
470.5	16516.01
470.705	16677.8
470.91	16298.93
471.115	16186.29
471.32	16370.61
471.525	16108.47
471.73	15907.77
471.935	15823.8
472.139	15168.45
472.344	15244.23
472.549	15274.95
472.754	15395.78
472.959	14984.13
473.164	14631.88
473.369	14527.44
473.574	14584.78
473.778	14654.41
473.983	14607.31
474.188	14463.95
474.393	14076.88
474.598	14072.79
474.802	13908.95
475.007	13775.83
475.212	13753.3
475.417	13130.72
475.621	13153.25
475.826	13200.35
476.031	13032.42
476.235	12860.39
476.44	13122.53
476.645	12686.31
476.849	12723.18
477.054	12747.75
477.259	12082.16
477.463	12579.82
477.668	12002.29
477.872	12381.17
478.077	11934.71
478.282	11639.8
478.486	11643.9
478.691	11652.09
478.895	11506.68
479.1	11418.62
479.304	11551.74
479.509	11312.13
479.713	11400.19
479.918	11252.73
480.122	10970.12
480.326	10920.96
480.531	11160.58
480.735	11041.79
480.94	10710.02
481.144	11334.65
481.348	10611.72
481.553	10806.28
481.757	10527.75
481.961	10714.12
482.166	10867.72
482.37	10935.3
482.574	10546.19
482.778	10535.95
482.983	10902.53
483.187	10785.8
483.391	10724.36
483.595	10640.39
483.8	10462.22
484.004	10650.63
484.208	10994.69
484.412	10537.99
484.616	10716.17
484.821	10499.08
485.025	10396.68
485.229	10615.82
485.433	10449.93
485.637	10689.54
485.841	10558.47
486.045	10494.99
486.249	10486.79
486.453	10509.32
486.657	10583.05
486.861	10505.23
487.065	10245.13
487.269	10515.47
487.473	10220.56
487.677	10898.44
487.881	10839.05
488.085	10785.8
488.289	10793.99
488.493	10675.21
488.697	10875.91
488.901	10705.93
489.105	10871.81
489.309	10679.3
489.512	10644.49
489.716	10685.45
489.92	10880
490.124	10947.59
490.328	10839.05
490.531	10734.6
490.735	10994.69
490.939	10951.68
491.143	11013.12
491.346	10828.81
491.55	11119.62
491.754	11193.34
491.958	11209.73
492.161	11154.43
492.365	11293.69
492.569	11314.17
492.772	11176.96
492.976	11252.73
493.18	11348.99
493.383	11363.33
493.587	11535.35
493.79	11631.61
493.994	11703.29
494.197	11631.61
494.401	11684.86
494.605	11766.78
494.808	11705.34
495.012	12059.63
495.215	11854.84
495.419	12329.97
495.622	12229.62
495.825	12258.29
496.029	12446.7
496.232	12768.23
496.436	12637.16
496.639	12819.43
496.843	12811.24
497.046	13114.34
497.249	12946.41
497.453	13345.76
497.656	13444.06
497.859	13466.59
498.063	13560.8
498.266	13595.61
498.469	13702.11
498.673	13771.74
498.876	14121.94
499.079	14242.77
499.282	14494.67
499.485	14621.64
499.689	14697.42
499.892	15025.09
500.095	14887.88
500.298	15295.43
500.501	15176.64
500.705	15338.43
500.908	15713.21
501.111	15729.59
501.314	16284.59
501.517	16372.66
501.72	16436.14
501.923	16223.16
502.126	16880.55
502.329	17318.82
502.532	17167.27
502.735	16954.28
502.938	17413.02
503.141	17443.74
503.344	17857.43
503.547	17965.98
503.75	18041.75
503.953	18504.59
504.156	18543.5
504.359	18668.43
504.562	18733.96
504.765	19221.38
504.968	19446.66
505.17	19362.69
505.373	19553.15
505.576	19751.81
505.779	20364.15
505.982	20224.89
506.185	20540.27
506.387	20745.07
506.59	21023.59
506.793	21461.86
506.996	21169
507.198	22139.74
507.401	21850.97
507.604	22178.65
507.807	22508.37
508.009	22672.21
508.212	22719.31
508.415	23026.51
508.617	23141.19
508.82	23305.03
509.022	23216.97
509.225	23806.78
509.428	24013.63
509.63	24111.93
509.833	24314.68
510.035	24943.41
510.238	25037.61
510.44	25051.95
510.643	24992.56
510.845	25445.16
511.048	25604.9
511.25	25944.86
511.453	26223.39
511.655	27081.49
511.858	26737.43
512.06	26942.22
512.262	27081.49
512.465	27341.58
512.667	28001.02
512.87	28048.13
513.072	27986.69
513.274	28416.76
513.477	28584.69
513.679	29207.28
513.881	29393.64
514.084	29506.28
514.286	29250.28
514.488	29911.78
514.69	30677.72
514.893	30440.15
515.095	30470.87
515.297	31021.78
515.499	30751.45
515.701	31353.55
515.904	31746.76
516.106	32148.16
516.308	32015.04
516.51	32326.33
516.712	32408.25
516.914	33114.8
517.116	33479.34
517.318	33114.8
517.52	33315.5
517.722	33815.21
517.925	34140.83
518.127	34460.32
518.329	34968.21
518.531	34618.01
518.733	35383.95
518.935	35572.36
519.136	35766.92
519.338	36039.3
519.54	36063.88
519.742	36076.16
519.944	36450.94
520.146	37128.82
520.348	36866.68
520.55	37204.59
520.752	37571.18
520.954	38247.01
521.155	37796.46
521.357	38599.26
521.559	38591.07
521.761	39148.12
521.963	38582.88
522.164	39094.87
522.366	39483.98
522.568	39750.22
522.77	39621.2
522.971	40426.05
523.173	39975.5
523.375	40661.57
523.576	40741.44
523.778	40634.94
523.98	41120.31
524.181	41400.88
524.383	41589.3
524.584	42140.2
524.786	42072.62
524.988	41443.89
525.189	42345
525.391	42547.75
525.592	42416.68
525.794	42813.98
525.995	42394.15
526.197	42588.7
526.398	43018.78
526.6	43141.66
526.801	43483.67
527.003	43487.76
527.204	43491.86
527.406	43911.69
527.607	43618.83
527.808	44370.44
528.01	43473.43
528.211	43897.36
528.412	44409.35
528.614	44237.32
528.815	44755.46
529.016	44728.83
529.218	44208.65
529.419	44112.39
529.62	44675.58
529.822	44550.66
530.023	45218.3
530.224	44833.28
530.425	44546.56
530.626	44280.33
530.828	44661.25
531.029	45890.03
531.23	44825.09
531.431	45021.69
531.632	45310.46
531.833	45552.12
532.035	45603.31
532.236	45236.73
532.437	45423.09
532.638	45281.78
532.839	45748.72
533.04	45404.66
533.241	45285.88
533.442	46037.48
533.643	45574.64
533.844	45566.45
534.045	46113.26
534.246	45304.31
534.447	45804.02
534.648	45296.12
534.849	45677.04
535.05	45455.86
535.251	45548.02
535.451	45672.95
535.652	45947.37
535.853	45523.44
536.054	45793.78
536.255	45857.26
536.456	45318.65
536.657	46082.54
536.857	45939.18
537.058	45138.43
537.259	45775.34
537.46	45539.83
537.66	45890.03
537.861	45914.61
538.062	45517.3
538.263	45687.28
538.463	45517.3
538.664	45625.84
538.865	45785.58
539.065	45982.19
539.266	45187.58
539.466	46047.72
539.667	44907.01
539.868	46070.25
540.068	45801.97
540.269	45308.41
540.469	45853.17
540.67	45111.8
540.87	45478.39
541.071	45484.53
541.271	45582.84
541.472	45644.27
541.672	45093.37
541.873	45160.95
542.073	45140.47
542.274	46031.34
542.474	45257.21
542.675	45310.46
542.875	45636.08
543.075	45451.77
543.276	44878.33
543.476	45582.84
543.676	44718.59
543.877	45707.76
544.077	44980.73
544.277	45111.8
544.478	45130.23
544.678	45076.99
544.878	45165.05
545.078	45353.46
545.279	45226.49
545.479	44886.53
545.679	45212.15
545.879	45212.15
546.079	45220.34
546.28	45230.58
546.48	44775.94
546.68	45234.68
546.88	45263.35
547.08	45328.89
547.28	45279.74
547.48	44800.51
547.68	45300.22
547.88	44861.95
548.081	45218.3
548.281	44892.67
548.481	44857.85
548.681	45177.34
548.881	44882.43
549.081	44423.68
549.28	44632.58
549.48	44923.39
549.68	44538.37
549.88	44964.35
550.08	44569.09
550.28	44683.78
550.48	44900.86
550.68	45304.31
550.88	44595.71
551.08	44390.92
551.279	44952.06
551.479	44446.21
551.679	45017.6
551.879	44546.56
552.079	44820.99
552.278	44489.22
552.478	44575.23
552.678	44517.89
552.878	44628.48
553.077	44347.91
553.277	43987.47
553.477	44567.04
553.676	44110.35
553.876	44216.84
554.076	44306.95
554.275	44014.09
554.475	44087.82
554.674	44216.84
554.874	44319.24
555.074	44265.99
555.273	44698.11
555.473	44515.84
555.672	43624.98
555.872	44358.15
556.071	44083.72
556.271	44124.68
556.47	43991.56
556.67	43690.51
556.869	43723.28
557.068	44016.14
557.268	43590.16
557.467	43457.04
557.667	43825.68
557.866	43915.79
558.065	43665.94
558.265	43784.72
558.464	43383.32
558.663	44288.52
558.863	42697.25
559.062	43594.26
559.261	43086.36
559.461	43543.06
559.66	42846.75
559.859	43272.73
560.058	42744.35
560.258	43536.91
560.457	42670.62
560.656	43153.94
560.855	42652.19
561.054	42900
561.253	42727.97
561.453	42689.06
561.652	42816.03
561.851	43045.4
562.05	42549.79
562.249	42588.7
562.448	42983.96
562.647	42560.03
562.846	42334.76
563.045	42170.92
563.244	42162.73
563.443	42662.43
563.642	41869.87
563.841	42244.65
564.04	41992.75
564.239	42322.47
564.438	41478.71
564.637	42273.32
564.836	42361.38
565.035	41726.51
565.234	42025.51
565.432	41552.43
565.631	41503.28
565.83	42168.87
566.029	41613.87
566.228	41497.14
566.427	41566.77
566.625	41529.9
566.824	40751.68
567.023	41589.3
567.222	40716.86
567.42	41294.39
567.619	41235
567.818	40890.94
568.016	41099.83
568.215	41079.35
568.414	40706.62
568.612	40892.99
568.811	40778.3
569.01	40993.34
569.208	40243.78
569.407	40317.51
569.605	40223.3
569.804	40712.77
570.002	39768.65
570.201	40573.5
570.4	39830.09
570.598	39791.18
570.797	40049.22
570.995	40098.37
571.193	39447.12
571.392	40106.57
571.59	39199.32
571.789	39422.55
571.987	39565.9
572.186	39451.22
572.384	39012.95
572.582	39357.01
572.781	39287.38
572.979	38816.35
573.177	39291.48
573.376	39184.98
573.574	39000.66
573.772	38908.5
573.971	38644.32
574.169	38593.12
574.367	38568.54
574.565	38890.07
574.763	38802.01
574.962	37935.72
575.16	37868.14
575.358	38439.52
575.556	37790.31
575.754	38410.85
575.952	38031.97
576.151	38109.8
576.349	37997.16
576.547	37761.64
576.745	38087.27
576.943	37657.2
577.141	37673.58
577.339	37739.11
577.537	37735.02
577.735	37554.8
577.933	37315.19
578.131	37104.24
578.329	37094
578.527	36717.18
578.725	36862.58
578.923	37034.61
579.121	36528.77
579.319	36510.33
579.516	36579.96
579.714	36356.74
579.912	36373.12
580.11	36541.05
580.308	36326.02
580.506	36383.36
580.704	35961.48
580.901	36192.9
581.099	36018.82
581.297	35736.2
581.495	35414.67
581.692	35895.94
581.89	35381.9
582.088	36182.66
582.285	35605.13
582.483	35793.54
582.681	35494.54
582.878	35359.38
583.076	34740.89
583.274	34964.12
583.471	34884.25
583.669	34855.57
583.866	34732.7
584.064	35244.69
584.262	34433.69
584.459	34787.99
584.657	34448.03
584.854	34945.69
585.052	33956.52
585.249	34222.75
585.447	34276
585.644	34097.83
585.841	34673.31
586.039	34220.7
586.236	33286.83
586.434	33469.1
586.631	33669.8
586.828	33493.68
587.026	33501.87
587.223	33399.47
587.42	33116.85
587.618	33335.98
587.815	33268.4
588.012	33426.09
588.21	33051.31
588.407	33082.03
588.604	32748.21
588.801	32588.47
588.999	32748.21
589.196	32680.63
589.393	32563.9
589.59	32285.37
589.787	32522.94
589.984	32137.92
590.182	31949.51
590.379	32094.91
590.576	31658.7
590.773	32144.06
590.97	31838.92
591.167	31828.68
591.364	31800.01
591.561	31613.64
591.758	31414.99
591.955	31457.99
592.152	31451.85
592.349	31087.31
592.546	31292.11
592.743	31029.97
592.94	30771.93
593.137	30739.16
593.334	31011.54
593.531	30780.12
593.727	31075.02
593.924	31021.78
594.121	30092
594.318	30565.08
594.515	30155.49
594.712	30618.33
594.908	30128.86
595.105	30022.37
595.302	29866.72
595.499	30171.87
595.696	29659.88
595.892	29504.23
596.089	30001.89
596.286	29719.27
596.482	29645.54
596.679	29709.03
596.876	29242.09
597.072	29119.21
597.269	29182.7
597.466	28902.13
597.662	28949.23
597.859	29051.63
598.055	28924.66
598.252	28560.12
598.448	28523.26
598.645	28521.21
598.841	28324.6
599.038	28728.05
599.234	28400.38
599.431	28130.05
599.627	27958.02
599.824	28277.5
600.02	27927.3
600.217	28168.96
600.413	28136.19
600.609	27650.82
600.806	27325.19
601.002	27742.98
601.198	27577.09
601.395	27564.81
601.591	27390.73
601.787	27339.53
601.984	27116.3
602.18	27454.22
602.376	27251.47
602.572	26798.87
602.769	26886.93
602.965	26981.13
603.161	26807.06
603.357	26741.52
603.553	26723.09
603.75	26725.14
603.946	26565.4
604.142	26372.89
604.338	25969.44
604.534	26221.34
604.73	26057.5
604.926	26172.19
605.122	26211.1
605.318	25742.11
605.514	25901.86
605.71	25721.63
605.906	25920.29
606.102	25654.05
606.298	25572.13
606.494	25316.14
606.69	25625.38
606.886	25389.86
607.082	25056.04
607.278	25498.41
607.474	25039.66
607.67	25314.09
607.866	24701.75
608.062	25213.74
608.257	24779.57
608.453	24972.08
608.649	24836.91
608.845	24832.82
609.041	24777.52
609.236	24982.32
609.432	24554.29
609.628	24458.04
609.824	24521.52
610.019	24568.63
610.215	24578.87
610.411	24318.78
610.606	24109.88
610.802	24146.75
610.998	24433.46
611.193	24230.71
611.389	24085.31
611.584	23907.13
611.78	24199.99
611.976	24206.14
612.171	24099.64
612.367	24181.56
612.562	23931.71
612.758	23702.34
612.953	23472.96
613.149	23821.12
613.344	23571.27
613.539	24050.49
613.735	23702.34
613.93	23647.04
614.126	23589.7
614.321	23640.9
614.517	23499.59
614.712	23290.7
614.907	23061.32
615.103	23589.7
615.298	23219.02
615.493	23341.89
615.688	23065.42
615.884	23493.44
616.079	23190.34
616.274	23364.42
616.47	22958.92
616.665	23135.05
616.86	22938.44
617.055	22963.02
617.25	22645.59
617.445	22819.66
617.641	22342.49
617.836	22979.4
618.031	22573.91
618.226	22907.73
618.421	22496.08
618.616	22807.37
618.811	22068.06
619.006	22516.56
619.201	22063.96
619.396	22184.79
619.591	21850.97
619.786	22109.02
619.981	21764.96
620.176	22078.3
620.371	21539.68
620.566	21724
620.761	21672.8
620.956	21582.69
621.151	21248.87
621.346	21390.18
621.541	20990.83
621.735	21369.7
621.93	20882.28
622.125	21111.66
622.32	20663.15
622.515	20710.25
622.709	20749.17
622.904	20308.85
623.099	20294.52
623.294	20378.48
623.488	20315
623.683	20044.66
623.878	19927.93
624.072	20263.8
624.267	19882.88
624.462	19829.63
624.656	19506.05
624.851	19493.76
625.046	19440.51
625.24	19084.17
625.435	19229.57
625.629	19213.19
625.824	18908.04
626.018	18774.92
626.213	18494.35
626.407	18674.57
626.602	18561.94
626.796	18647.95
626.991	18500.5
627.185	18455.44
627.38	18125.72
627.574	18359.19
627.768	18086.81
627.963	17965.98
628.157	17548.19
628.352	17961.88
628.546	17482.66
628.74	17658.78
628.935	17308.58
629.129	17329.06
629.323	17171.36
629.517	17306.53
629.712	17122.21
629.906	17111.97
630.1	16855.98
630.294	16622.51
630.489	16520.11
630.683	16640.94
630.877	16356.27
631.071	16272.31
631.265	16264.11
631.459	16423.86
631.653	16141.24
631.848	16126.9
632.042	15938.49
632.236	16217.01
632.43	15684.54
632.624	15639.48
632.818	15698.88
633.012	15547.33
633.206	15553.47
633.4	15555.52
633.594	15041.48
633.788	15502.27
633.982	15258.56
634.176	15121.35
634.369	15059.91
634.563	15096.77
634.757	14932.93
634.951	14898.12
635.145	14975.94
635.339	14814.15
635.533	14648.27
635.726	14351.31
635.92	14386.13
636.114	14382.03
636.308	14285.78
636.501	14181.33
636.695	14179.28
636.889	14255.06
637.083	13968.34
637.276	13956.05
637.47	14197.71
637.664	13767.64
637.857	13673.43
638.051	13759.45
638.244	13544.41
638.438	13601.76
638.632	13489.12
638.825	13482.97
639.019	13308.9
639.212	13296.61
639.406	13249.5
639.599	13210.59
639.793	12917.73
639.986	12817.38
640.18	12854.25
640.373	12768.23
640.567	12751.85
640.76	12676.07
640.954	12579.82
641.147	12669.93
641.34	12338.16
641.534	12614.63
641.727	12377.07
641.92	12354.54
642.114	12188.66
642.307	12170.22
642.5	12272.62
642.694	12141.55
642.887	12106.74
643.08	12174.32
643.273	11852.79
643.467	11942.9
643.66	11703.29
643.853	11674.62
644.046	11465.72
644.239	11615.23
644.432	11680.76
644.626	11512.83
644.819	11365.37
645.012	11418.62
645.205	11285.5
645.398	11209.73
645.591	10980.36
645.784	11174.91
645.977	11199.49
646.17	10951.68
646.363	10718.22
646.556	10927.11
646.749	10816.52
646.942	10908.68
647.135	10640.39
647.328	10603.53
647.521	10460.17
647.714	10406.92
647.907	10673.16
648.099	10425.36
648.292	10449.93
648.485	10308.62
648.678	10159.12
648.871	10206.22
649.064	10288.14
649.256	10146.83
649.449	10069.01
649.642	9907.22
649.835	9884.69
650.027	10071.06
650.22	9901.08
650.413	9917.46
650.605	9643.03
650.798	9759.77
650.991	9438.23
651.183	9495.58
651.376	9374.75
651.568	9595.93
651.761	9475.1
651.954	9147.42
652.146	9225.25
652.339	9364.51
652.531	9006.11
652.724	9243.68
652.916	9114.66
653.109	9102.37
653.301	9042.98
653.494	9077.79
653.686	8866.85
653.879	9243.68
654.071	9065.5
654.263	8547.37
654.456	8764.45
654.648	8723.49
654.84	8639.53
655.033	8530.98
655.225	8490.03
655.417	8559.66
655.61	8526.89
655.802	8420.39
655.994	8401.96
656.186	8350.76
656.379	8365.1
656.571	8180.78
656.763	8121.39
656.955	8107.05
657.148	8215.6
657.34	8111.15
657.532	8105.01
657.724	7920.69
657.916	8127.53
658.108	7932.98
658.3	7943.22
658.492	7824.44
658.684	7871.54
658.876	7738.42
659.068	7869.49
659.26	7619.64
659.452	7676.98
659.644	7765.04
659.836	7457.85
660.028	7674.93
660.22	7441.47
660.412	7539.77
660.604	7257.15
660.796	7468.09
660.988	7265.34
661.18	7271.48
661.372	7289.92
661.563	7420.99
661.755	7324.73
661.947	7203.9
662.139	7119.93
662.331	7013.44
662.522	6888.51
662.714	7156.8
662.906	6956.1
663.097	6931.52
663.289	6730.82
663.481	6898.75
663.673	6659.14
663.864	6607.94
664.056	6657.09
664.247	6726.72
664.439	6497.35
664.631	6540.36
664.822	6534.21
665.014	6757.44
665.205	6521.93
665.397	6409.29
665.588	6374.47
665.78	6458.44
665.971	6325.32
666.163	6448.2
666.354	6450.25
666.546	6198.35
666.737	6366.28
666.929	6300.75
667.12	6306.89
667.311	6104.14
667.503	6032.46
667.694	6235.21
667.885	6014.03
668.077	6157.39
668.268	6132.81
668.459	5876.82
668.651	5966.93
668.842	6063.18
669.033	5856.34
669.224	5856.34
669.416	5747.79
669.607	5811.28
669.798	5715.03
669.989	5725.27
670.18	5755.99
670.371	5721.17
670.563	5743.7
670.754	5512.28
670.945	5567.57
671.136	5669.97
671.327	5626.96
671.518	5583.96
671.709	5608.53
671.9	5540.95
672.091	5502.04
672.282	5573.72
672.473	5561.43
672.664	5397.59
672.855	5491.8
673.046	5483.61
673.237	5407.83
673.428	5209.18
673.619	5284.95
673.809	5348.44
674	5313.63
674.191	5190.75
674.382	5178.46
674.573	5268.57
674.764	5127.26
674.954	5239.9
675.145	5164.12
675.336	5221.47
675.527	5207.13
675.717	5094.49
675.908	5098.59
676.099	5010.53
676.289	5143.64
676.48	4969.57
676.671	5051.49
676.861	4924.51
677.052	5020.77
677.243	4762.72
677.433	4899.94
677.624	4883.55
677.814	4951.14
678.005	4910.18
678.195	4879.46
678.386	4809.83
678.576	4775.01
678.767	4803.68
678.957	4838.5
679.148	4721.76
679.338	4793.44
679.529	4883.55
679.719	4766.82
679.909	4869.22
680.1	4815.97
680.29	4844.64
680.481	4781.15
680.671	4650.08
680.861	4785.25
681.052	4711.52
681.242	4734.05
681.432	4590.69
681.622	4467.81
681.813	4627.56
682.003	4639.84
682.193	4680.8
682.383	4691.04
682.573	4543.59
682.764	4668.52
682.954	4580.45
683.144	4559.97
683.334	4621.41
683.524	4578.4
683.714	4541.54
683.904	4490.34
684.094	4602.98
684.284	4355.18
684.474	4486.25
684.664	4342.89
684.854	4486.25
685.044	4469.86
685.234	4328.55
685.424	4392.04
685.614	4144.24
685.804	4217.96
685.994	4260.97
686.184	4408.42
686.374	4281.45
686.564	4230.25
686.753	4258.92
686.943	4238.44
687.133	4150.38
687.323	4189.29
687.513	4197.48
687.702	4078.7
687.892	4060.27
688.082	4066.41
688.272	4043.88
688.461	4054.12
688.651	4039.79
688.841	4144.24
689.03	3992.69
689.22	3970.16
689.41	4011.12
689.599	3943.53
689.789	4050.03
689.979	3800.18
690.168	3953.77
690.358	3808.37
690.547	3765.36
690.737	3855.47
690.926	3859.57
691.116	3738.74
691.305	3765.36
691.495	3609.72
691.684	3769.46
691.874	3779.7
692.063	3759.22
692.252	3656.82
692.442	3667.06
692.631	3712.11
692.82	3624.05
693.01	3675.25
693.199	3736.69
693.388	3456.12
693.578	3652.72
693.767	3593.33
693.956	3382.39
694.146	3501.17
694.335	3495.03
694.524	3366.01
694.713	3423.35
694.902	3437.69
695.092	3347.58
695.281	3421.3
695.47	3388.53
695.659	3257.46
695.848	3368.06
696.037	3271.8
696.226	3335.29
696.415	3261.56
696.604	3263.61
696.793	3255.42
696.982	3083.39
697.171	3239.03
697.36	3206.27
697.549	3198.07
697.738	3198.07
697.927	3171.45
698.116	3085.44
698.305	3077.24
698.494	3003.52
698.683	3120.25
698.872	3097.72
699.061	3101.82
699.25	3107.96
699.438	3089.53
699.627	3136.63
699.816	2999.42
700.005	2991.23
700.193	3083.39
700.382	2950.27
700.571	3017.85
700.76	2964.61
700.948	3003.52
701.137	2995.32
701.326	2987.13
701.514	2978.94
701.703	3040.38
701.892	2880.64
702.08	3036.28
702.269	2798.72
702.457	2942.08
702.646	2917.5
702.834	2829.44
703.023	2837.63
703.212	2776.19
703.4	2794.62
703.589	2788.48
703.777	2894.97
703.965	2798.72
704.154	2815.1
704.342	2741.38
704.531	2796.67
704.719	2704.51
704.907	2837.63
705.096	2698.37
705.284	2768
705.472	2851.97
705.661	2702.47
705.849	2792.58
706.037	2690.18
706.226	2714.75
706.414	2739.33
706.602	2817.15
706.79	2720.9
706.979	2800.77
707.167	2774.14
707.355	2626.69
707.543	2798.72
707.731	2768
707.919	2823.3
708.107	2657.41
708.296	2634.88
708.484	2700.42
708.672	2714.75
708.86	2708.61
709.048	2667.65
709.236	2671.75
709.424	2684.03
709.612	2778.24
709.8	2630.79
709.988	2694.27
710.176	2714.75
710.364	2677.89
710.551	2647.17
710.739	2634.88
710.927	2661.51
711.115	2548.87
711.303	2722.95
711.491	2571.4
711.679	2557.06
711.866	2610.31
712.054	2626.69
712.242	2729.09
712.43	2720.9
712.617	2729.09
712.805	2634.88
712.993	2622.59
713.181	2505.86
713.368	2653.31
713.556	2768
713.744	2563.2
713.931	2712.71
714.119	2614.4
714.306	2706.56
714.494	2665.6
714.682	2634.88
714.869	2671.75
715.057	2565.25
715.244	2544.77
715.432	2706.56
715.619	2587.78
715.807	2626.69
715.994	2575.49
716.182	2686.08
716.369	2686.08
716.556	2700.42
716.744	2501.76
716.931	2591.88
717.119	2727.04
717.306	2561.16
717.493	2608.26
717.681	2755.71
717.868	2587.78
718.055	2749.57
718.242	2638.98
718.43	2616.45
718.617	2671.75
718.804	2561.16
718.991	2739.33
719.179	2690.18
719.366	2653.31
719.553	2544.77
719.74	2600.07
719.927	2690.18
720.114	2612.35
720.301	2673.79
720.488	2569.35
720.676	2469
720.863	2583.68
721.05	2643.07
721.237	2618.5
721.424	2606.21
721.611	2622.59
721.798	2630.79
721.985	2440.33
722.172	2706.56
722.358	2581.64
722.545	2585.73
722.732	2552.96
722.919	2632.83
723.106	2520.2
723.293	2620.55
723.48	2636.93
723.667	2647.17
723.853	2616.45
724.04	2559.11
724.227	2485.38
724.414	2653.31
724.6	2686.08
724.787	2600.07
724.974	2579.59
725.161	2587.78
725.347	2634.88
725.534	2643.07
725.72	2679.94
725.907	2651.27
726.094	2622.59
726.28	2636.93
726.467	2696.32
726.653	2659.46
726.84	2610.31
727.027	2585.73
727.213	2661.51
727.4	2608.26
727.586	2706.56
727.773	2649.22
727.959	2548.87
728.145	2667.65
728.332	2518.15
728.518	2661.51
728.705	2671.75
728.891	2614.4
729.077	2563.2
729.264	2546.82
729.45	2622.59
729.636	2714.75
729.823	2624.64
730.009	2634.88
730.195	2733.18
730.382	2669.7
730.568	2589.83
730.754	2657.41
730.94	2641.03
731.126	2679.94
731.313	2589.83
731.499	2544.77
731.685	2659.46
731.871	2495.62
732.057	2700.42
732.243	2634.88
732.429	2618.5
732.615	2618.5
732.801	2704.51
732.987	2598.02
733.173	2571.4
733.359	2581.64
733.545	2647.17
733.731	2602.11
733.917	2684.03
734.103	2663.55
734.289	2679.94
734.475	2630.79
734.661	2673.79
734.847	2606.21
735.033	2602.11
735.219	2593.92
735.404	2663.55
735.59	2571.4
735.776	2595.97
735.962	2655.36
736.148	2589.83
736.333	2645.12
736.519	2536.58
736.705	2538.63
736.89	2587.78
737.076	2509.96
737.262	2456.71
737.447	2567.3
737.633	2528.39
737.819	2460.81
738.004	2507.91
738.19	2610.31
738.375	2518.15
738.561	2415.75
738.747	2534.53
738.932	2454.66
739.118	2565.25
739.303	2534.53
739.489	2516.1
739.674	2469
739.859	2522.24
740.045	2454.66
740.23	2473.09
740.416	2442.37
740.601	2423.94
740.786	2440.33
740.972	2419.85
741.157	2460.81
741.342	2512
741.528	2397.32
741.713	2391.17
741.898	2370.69
742.084	2344.07
742.269	2452.61
742.454	2329.74
742.639	2380.93
742.824	2272.39
743.01	2448.52
743.195	2303.11
743.38	2344.07
743.565	2286.73
743.75	2339.97
743.935	2350.21
744.12	2346.12
744.305	2417.8
744.49	2350.21
744.675	2333.83
744.86	2239.62
745.045	2196.62
745.23	2237.58
745.415	2178.19
745.6	2321.54
745.785	2221.19
745.97	2122.89
746.155	2126.99
746.34	2102.41
746.525	2145.42
746.71	2159.75
746.895	2075.79
747.079	2208.9
747.264	2102.41
747.449	2188.43
747.634	2139.27
747.819	2131.08
748.003	1948.81
748.188	2176.14
748.373	2073.74
748.557	2047.12
748.742	1983.63
748.927	1973.39
749.111	2000.01
749.296	1975.44
749.481	2090.12
749.665	1967.24
749.85	1942.67
750.034	1918.09
750.219	1924.24
750.404	1922.19
750.588	1789.07
750.773	1811.6
750.957	1977.48
751.141	1899.66
751.326	1926.29
751.51	1840.27
751.695	1754.26
751.879	1764.5
752.064	1852.56
752.248	1746.06
752.432	1762.45
752.617	1764.5
752.801	1797.26
752.985	1782.93
753.17	1686.67
753.354	1739.92
753.538	1705.1
753.722	1645.71
753.907	1588.37
754.091	1608.85
754.275	1713.3
754.459	1596.56
754.643	1625.23
754.828	1559.7
755.012	1625.23
755.196	1582.23
755.38	1553.55
755.564	1586.32
755.748	1502.36
755.932	1512.6
756.116	1449.11
756.3	1528.98
756.484	1510.55
756.668	1528.98
756.852	1430.68
757.036	1490.07
757.22	1373.33
757.404	1430.68
757.588	1561.75
757.772	1571.99
757.956	1447.06
758.14	1485.97
758.323	1375.38
758.507	1291.41
758.691	1359
758.875	1324.18
759.059	1459.35
759.242	1375.38
759.426	1297.56
759.61	1363.09
759.794	1324.18
759.977	1311.89
760.161	1326.23
760.345	1315.99
760.528	1332.37
760.712	1289.37
760.895	1232.02
761.079	1283.22
761.263	1217.69
761.446	1338.52
761.63	1295.51
761.813	1232.02
761.997	1193.11
762.18	1258.65
762.364	1172.63
762.547	1207.45
762.731	1264.79
762.914	1143.96
763.098	1229.98
763.281	1244.31
763.464	1094.81
763.648	1221.78
763.831	1186.97
764.015	1154.2
764.198	1223.83
764.381	1182.87
764.564	1113.24
764.748	1045.66
764.931	1123.48
765.114	1057.95
765.297	1180.82
765.481	1127.58
765.664	1105.05
765.847	1031.32
766.03	1059.99
766.213	1229.98
766.397	1092.76
766.58	1068.19
766.763	1131.67
766.946	1041.56
767.129	1078.43
767.312	1045.66
767.495	1201.3
767.678	1045.66
767.861	1051.8
768.044	1016.99
768.227	1074.33
768.41	978.08
768.593	1111.19
768.776	1033.37
768.959	890.01
769.142	1127.58
769.324	1041.56
769.507	1029.27
769.69	1002.65
769.873	1064.09
770.056	1012.89
770.239	1002.65
770.421	1105.05
770.604	980.12
770.787	963.74
770.97	963.74
771.152	1033.37
771.335	996.51
771.518	867.49
771.7	959.64
771.883	875.68
772.066	943.26
772.248	992.41
772.431	930.97
772.613	1027.23
772.796	994.46
772.978	885.92
773.161	971.93
773.343	898.2
773.526	806.05
773.708	824.48
773.891	847.01
774.073	935.07
774.256	828.57
774.438	853.15
774.621	806.05
774.803	847.01
774.985	746.66
775.168	887.97
775.35	836.77
775.532	912.54
775.715	832.67
775.897	820.38
776.079	820.38
776.261	881.82
776.444	795.81
776.626	760.99
776.808	746.66
776.99	709.79
777.173	799.9
777.355	797.85
777.537	765.09
777.719	734.37
777.901	736.42
778.083	734.37
778.265	644.26
778.447	715.94
778.629	734.37
778.811	738.46
778.993	666.78
779.175	642.21
779.357	728.22
779.539	697.5
779.721	742.56
779.903	695.46
780.085	693.41
780.267	625.83
780.449	601.25
780.631	724.13
780.812	693.41
780.994	724.13
781.176	695.46
781.358	709.79
781.54	595.11
781.721	648.35
781.903	603.3
782.085	609.44
782.267	687.26
782.448	681.12
782.63	556.19
782.812	613.54
782.993	609.44
783.175	574.63
783.357	515.23
783.538	570.53
783.72	541.86
783.901	562.34
784.083	533.67
784.264	611.49
784.446	517.28
784.627	500.9
784.809	521.38
784.99	482.47
785.172	543.91
785.353	599.2
785.535	504.99
785.716	521.38
785.897	521.38
786.079	496.8
786.26	537.76
786.441	496.8
786.623	521.38
786.804	429.22
786.985	494.76
787.167	478.37
787.348	488.61
787.529	484.52
787.71	464.04
787.891	410.79
788.073	480.42
788.254	478.37
788.435	550.05
788.616	457.89
788.797	464.04
788.978	410.79
789.159	435.36
789.34	437.41
789.522	423.08
789.703	439.46
789.884	404.64
790.065	439.46
790.246	373.92
790.427	443.56
790.607	480.42
790.788	447.65
790.969	441.51
791.15	382.12
791.331	316.58
791.512	388.26
791.693	300.2
791.874	443.56
792.054	466.08
792.235	296.1
792.416	318.63
792.597	361.64
792.778	439.46
792.958	472.23
793.139	378.02
793.32	396.45
793.5	326.82
793.681	365.73
793.862	402.6
794.042	396.45
794.223	353.45
794.404	349.35
794.584	380.07
794.765	373.92
794.945	269.48
795.126	275.62
795.306	306.34
795.487	289.96
795.667	367.78
795.848	308.39
796.028	361.64
796.209	398.5
796.389	392.36
796.57	375.97
796.75	298.15
796.93	292.01
797.111	269.48
797.291	240.81
797.471	285.86
797.652	343.21
797.832	277.67
798.012	332.97
798.192	373.92
798.373	300.2
798.553	265.38
798.733	373.92
798.913	273.57
799.093	275.62
799.274	197.8
799.454	283.81
799.634	349.35
799.814	285.86
799.994	285.86
800.174	275.62
800.354	269.48
800.534	236.71
800.714	335.01
800.894	228.52
801.074	261.29
801.254	269.48
801.434	306.34
801.614	294.05
801.794	253.09
801.974	619.68
802.154	218.28
802.334	279.72
802.514	273.57
802.693	224.42
802.873	216.23
803.053	259.24
803.233	175.27
803.413	228.52
803.592	226.47
803.772	246.95
803.952	253.09
804.131	255.14
804.311	154.79
804.491	283.81
804.67	191.66
804.85	205.99
805.03	261.29
805.209	205.99
805.389	292.01
805.568	216.23
805.748	226.47
805.928	265.38
806.107	273.57
806.287	277.67
806.466	175.27
806.646	259.24
806.825	296.1
807.004	195.75
807.184	208.04
807.363	275.62
807.543	193.7
807.722	220.33
807.901	181.42
808.081	220.33
808.26	232.62
808.439	193.7
808.619	199.85
808.798	160.94
808.977	203.94
809.156	251.05
809.336	189.61
809.515	169.13
809.694	134.31
809.873	271.53
810.052	201.9
810.231	205.99
810.411	242.85
810.59	140.46
810.769	185.51
810.948	251.05
811.127	234.66
811.306	185.51
811.485	244.9
811.664	251.05
811.843	154.79
812.022	148.65
812.201	181.42
812.38	126.12
812.559	105.64
812.737	230.57
812.916	212.14
813.095	199.85
813.274	173.22
813.453	95.4
813.632	165.03
813.811	167.08
813.989	136.36
814.168	130.22
814.347	126.12
814.526	152.74
814.704	183.46
814.883	193.7
815.062	156.84
815.24	183.46
815.419	169.13
815.598	232.62
815.776	144.55
815.955	185.51
816.133	107.69
816.312	173.22
816.49	154.79
816.669	66.73
816.847	158.89
817.026	111.78
817.204	146.6
817.383	152.74
817.561	177.32
817.74	193.7
817.918	144.55
818.097	134.31
818.275	126.12
818.453	122.02
818.632	142.5
818.81	95.4
818.988	111.78
819.167	158.89
819.345	148.65
819.523	193.7
819.701	160.94
819.879	124.07
820.058	160.94
820.236	179.37
820.414	162.98
820.592	150.7
820.77	105.64
820.948	167.08
821.127	122.02
821.305	183.46
821.483	160.94
821.661	146.6
821.839	115.88
822.017	162.98
822.195	158.89
822.373	199.85
822.551	154.79
822.729	152.74
822.907	122.02
823.085	109.74
823.262	119.98
823.44	130.22
823.618	85.16
823.796	152.74
823.974	154.79
824.152	64.68
824.329	79.02
824.507	154.79
824.685	66.73
824.863	113.83
825.04	136.36
825.218	185.51
825.396	50.35
825.574	199.85
825.751	113.83
825.929	68.78
826.107	76.97
826.284	76.97
826.462	81.07
826.639	122.02
826.817	124.07
826.994	183.46
827.172	81.07
827.349	91.31
827.527	62.63
827.704	117.93
827.882	66.73
828.059	148.65
828.237	21.67
828.414	93.35
828.591	115.88
828.769	119.98
828.946	107.69
829.124	50.35
829.301	58.54
829.478	81.07
829.655	134.31
829.833	101.55
830.01	25.77
830.187	97.45
830.364	103.59
830.542	181.42
830.719	160.94
830.896	79.02
831.073	54.44
831.25	117.93
831.427	74.92
831.604	64.68
831.782	111.78
831.959	113.83
832.136	13.48
832.313	48.3
832.49	76.97
832.667	103.59
832.844	56.49
833.021	87.21
833.198	109.74
833.374	31.91
833.551	62.63
833.728	29.87
833.905	107.69
834.082	-2.9
834.259	87.21
834.436	70.83
834.612	79.02
834.789	111.78
834.966	115.88
835.143	7.34
835.319	93.35
835.496	-43.86
835.673	38.06
835.85	21.67
836.026	70.83
836.203	93.35
836.38	130.22
836.556	111.78
836.733	50.35
836.909	142.5
837.086	111.78
837.262	38.06
837.439	56.49
837.616	68.78
837.792	81.07
837.968	9.39
838.145	38.06
838.321	105.64
838.498	46.25
838.674	42.15
838.851	107.69
839.027	150.7
839.203	95.4
839.38	68.78
839.556	29.87
839.732	5.29
839.909	44.2
840.085	-33.62
840.261	58.54
840.437	42.15
840.614	93.35
840.79	99.5
840.966	-13.14
841.142	89.26
841.318	124.07
841.494	72.87
841.671	62.63
841.847	62.63
842.023	134.31
842.199	38.06
842.375	99.5
842.551	36.01
842.727	70.83
842.903	111.78
843.079	46.25
843.255	113.83
843.431	107.69
843.607	3.24
843.783	76.97
843.959	48.3
844.134	31.91
844.31	56.49
844.486	64.68
844.662	46.25
844.838	-52.05
845.013	126.12
845.189	50.35
845.365	60.59
845.541	66.73
845.716	13.48
845.892	85.16
846.068	54.44
846.244	54.44
846.419	91.31
846.595	-19.29
846.77	38.06
846.946	144.55
847.122	-11.09
847.297	21.67
847.473	142.5
847.648	-7
847.824	-2.9
847.999	25.77
848.175	113.83
848.35	60.59
848.526	50.35
848.701	21.67
848.876	48.3
849.052	-11.09
849.227	58.54
849.403	76.97
849.578	46.25
849.753	1.19
849.929	29.87
850.104	29.87
850.279	42.15
850.454	62.63
850.63	60.59
850.805	36.01
850.98	54.44
851.155	79.02
851.33	81.07
851.505	-43.86
851.681	29.87
851.856	42.15
852.031	38.06
852.206	29.87
852.381	54.44
852.556	48.3
852.731	97.45
852.906	58.54
853.081	3.24
853.256	60.59
853.431	95.4
853.606	42.15
853.781	17.58
853.956	33.96
854.131	60.59
854.305	38.06
854.48	31.91
854.655	-0.85
854.83	95.4
855.005	29.87
855.18	19.63
855.354	46.25
855.529	48.3
855.704	36.01
855.879	-29.52
856.053	-25.43
856.228	17.58
856.403	40.11
856.577	70.83
856.752	-39.76
856.926	-33.62
857.101	93.35
857.276	-7
857.45	-39.76
857.625	74.92
857.799	31.91
857.974	13.48
858.148	5.29
858.323	13.48
858.497	11.43
858.672	9.39
858.846	33.96
859.02	3.24
859.195	68.78
859.369	-17.24
859.543	-19.29
859.718	25.77
859.892	46.25
860.066	1.19
860.241	54.44
860.415	40.11
860.589	-19.29
860.763	74.92
860.938	-60.24
861.112	62.63
861.286	-11.09
861.46	3.24
861.634	27.82
861.808	56.49
861.982	1.19
862.157	-27.48
862.331	48.3
862.505	-15.19
862.679	31.91
862.853	-17.24
863.027	-17.24
863.201	-29.52
863.375	-9.05
863.549	74.92
863.722	27.82
863.896	38.06
864.07	-11.09
864.244	48.3
864.418	83.11
864.592	25.77
864.766	-17.24
864.939	-43.86
865.113	17.58
865.287	52.39
865.461	19.63
865.634	76.97
865.808	13.48
865.982	13.48
866.156	42.15
866.329	15.53
866.503	46.25
866.676	-41.81
866.85	1.19
867.024	1.19
867.197	17.58
867.371	-11.09
867.544	74.92
867.718	-21.33
867.891	7.34
868.065	46.25
868.238	29.87
868.412	-13.14
868.585	50.35
868.759	50.35
868.932	21.67
869.105	-0.85
869.279	-15.19
869.452	-23.38
869.625	-4.95
869.799	-43.86
869.972	56.49
870.145	33.96
870.319	19.63
870.492	-0.85
870.665	-37.72
870.838	79.02
871.011	-2.9
871.185	36.01
871.358	19.63
871.531	9.39
871.704	-2.9
871.877	52.39
872.05	-56.15
872.223	23.72
872.396	52.39
872.569	46.25
872.742	33.96
872.915	-27.48
873.088	48.3
873.261	7.34
873.434	-23.38
873.607	-19.29
873.78	40.11
873.953	-35.67
874.126	-37.72
874.299	-19.29
874.471	-43.86
874.644	-13.14
874.817	11.43
874.99	-0.85
875.163	17.58
875.335	9.39
875.508	40.11
875.681	5.29
875.853	-58.2
876.026	29.87
876.199	-21.33
876.371	-29.52
876.544	46.25
876.717	58.54
876.889	-15.19
877.062	101.55
877.234	-13.14
877.407	-13.14
877.579	17.58
877.752	70.83
877.924	-62.29
878.097	25.77
878.269	52.39
878.442	-11.09
878.614	-35.67
878.786	56.49
878.959	-60.24
879.131	40.11
879.303	-0.85
879.476	46.25
879.648	-56.15
879.82	31.91
879.993	-13.14
880.165	-2.9
880.337	-9.05
880.509	-19.29
880.681	-29.52
880.854	-11.09
881.026	72.87
881.198	85.16
881.37	17.58
881.542	15.53
881.714	-27.48
881.886	19.63
882.058	-15.19
882.23	27.82
882.402	7.34
882.574	38.06
882.746	-7
882.918	-23.38
883.09	-4.95
883.262	9.39
883.434	-9.05
883.606	-11.09
883.778	-62.29
883.95	60.59
884.122	-58.2
884.293	1.19
884.465	33.96
884.637	3.24
884.809	62.63
884.98	-9.05
885.152	54.44
885.324	60.59
885.496	-27.48
885.667	107.69
885.839	-43.86
886.011	136.36
886.182	25.77
886.354	-2.9
886.525	38.06
886.697	46.25
886.869	-43.86
887.04	3.24
887.212	-23.38
887.383	-21.33
887.555	27.82
887.726	9.39
887.897	-33.62
888.069	-11.09
888.24	-17.24
888.412	-19.29
888.583	9.39
888.754	-80.72
888.926	-15.19
889.097	-4.95
889.268	13.48
889.44	17.58
889.611	9.39
889.782	50.35
889.953	60.59
890.125	48.3
890.296	76.97
890.467	-4.95
890.638	-43.86
890.809	-2.9
890.98	-27.48
891.151	1.19
891.323	40.11
891.494	-21.33
891.665	31.91
891.836	15.53
892.007	15.53
892.178	25.77
892.349	-21.33
892.52	-23.38
892.691	-4.95
892.862	33.96
893.032	19.63
893.203	-2.9
893.374	25.77
893.545	15.53
893.716	-45.91
893.887	64.68
894.057	-23.38
894.228	27.82
894.399	-45.91
894.57	13.48
894.74	38.06
894.911	36.01
895.082	-27.48
895.253	-60.24
895.423	-41.81
895.594	-29.52
895.764	27.82
895.935	-43.86
896.106	62.63
896.276	-62.29
896.447	-15.19
896.617	-27.48
896.788	-35.67
896.958	25.77
897.129	-17.24
897.299	21.67
897.47	-17.24
897.64	-2.9
897.81	-19.29
897.981	40.11
898.151	-19.29
898.322	1.19
898.492	5.29
898.662	-19.29
898.832	-45.91
899.003	-7
899.173	-27.48
899.343	36.01
899.513	3.24
