Data from USB4F104151__84__11-37-47-847.txt Node

Date: Fri Mar 14 11:37:47 EDT 2025
User: louis
Spectrometer: USB4F10415
Trigger mode: 4
Integration Time (sec): 2.000000E-2
Scans to average: 1
Electric dark correction enabled: true
Nonlinearity correction enabled: false
Boxcar width: 0
XAxis mode: Wavelengths
Number of Pixels in Spectrum: 3648
>>>>>Begin Spectral Data<<<<<
178.204	-91.13
178.424	-91.13
178.644	-91.13
178.864	-41.98
179.084	-46.08
179.304	9.22
179.524	5.12
179.744	58.37
179.964	46.08
180.184	-48.13
180.404	9.22
180.624	7.17
180.844	-7.17
181.064	-62.46
181.283	39.94
181.503	-48.13
181.723	-9.22
181.943	-17.41
182.163	21.5
182.383	46.08
182.602	-9.22
182.822	37.89
183.042	74.75
183.262	-39.94
183.482	64.51
183.701	33.79
183.921	37.89
184.141	35.84
184.361	25.6
184.58	78.85
184.8	50.18
185.02	19.46
185.239	35.84
185.459	-17.41
185.679	44.03
185.898	41.98
186.118	56.32
186.338	21.5
186.557	-1.02
186.777	50.18
186.997	21.5
187.216	58.37
187.436	58.37
187.655	46.08
187.875	87.04
188.095	29.7
188.314	87.04
188.534	5.12
188.753	23.55
188.973	-25.6
189.192	87.04
189.412	39.94
189.631	23.55
189.851	-31.74
190.07	56.32
190.29	-41.98
190.509	62.46
190.729	21.5
190.948	134.14
191.168	121.85
191.387	15.36
191.607	91.13
191.826	33.79
192.045	7.17
192.265	87.04
192.484	15.36
192.704	15.36
192.923	25.6
193.142	119.81
193.362	7.17
193.581	54.27
193.8	29.7
194.02	-1.02
194.239	9.22
194.458	13.31
194.678	23.55
194.897	44.03
195.116	17.41
195.335	-31.74
195.555	9.22
195.774	41.98
195.993	84.99
196.212	60.42
196.432	74.75
196.651	11.26
196.87	-56.32
197.089	68.61
197.308	31.74
197.528	-54.27
197.747	58.37
197.966	41.98
198.185	-64.51
198.404	-37.89
198.623	48.13
198.842	15.36
199.062	70.65
199.281	37.89
199.5	37.89
199.719	29.7
199.938	25.6
200.157	56.32
200.376	68.61
200.595	37.89
200.814	7.17
201.033	15.36
201.252	52.22
201.471	23.55
201.69	80.89
201.909	72.7
202.128	64.51
202.347	72.7
202.566	46.08
202.785	21.5
203.004	29.7
203.223	3.07
203.442	76.8
203.661	31.74
203.879	13.31
204.098	-15.36
204.317	-56.32
204.536	64.51
204.755	41.98
204.974	107.52
205.193	48.13
205.411	101.37
205.63	17.41
205.849	9.22
206.068	-80.89
206.287	15.36
206.505	33.79
206.724	7.17
206.943	3.07
207.162	56.32
207.381	48.13
207.599	1.02
207.818	93.18
208.037	39.94
208.255	68.61
208.474	11.26
208.693	7.17
208.911	11.26
209.13	15.36
209.349	25.6
209.567	91.13
209.786	91.13
210.005	31.74
210.223	56.32
210.442	11.26
210.661	46.08
210.879	62.46
211.098	15.36
211.316	35.84
211.535	46.08
211.753	3.07
211.972	25.6
212.191	50.18
212.409	35.84
212.628	21.5
212.846	25.6
213.065	17.41
213.283	64.51
213.502	33.79
213.72	17.41
213.938	-17.41
214.157	39.94
214.375	68.61
214.594	9.22
214.812	41.98
215.031	37.89
215.249	52.22
215.467	21.5
215.686	50.18
215.904	9.22
216.122	35.84
216.341	17.41
216.559	107.52
216.778	82.94
216.996	3.07
217.214	54.27
217.432	21.5
217.651	-9.22
217.869	-31.74
218.087	5.12
218.306	-37.89
218.524	66.56
218.742	-7.17
218.96	91.13
219.179	-7.17
219.397	-19.46
219.615	-11.26
219.833	99.33
220.051	64.51
220.27	13.31
220.488	11.26
220.706	31.74
220.924	70.65
221.142	-5.12
221.36	37.89
221.578	9.22
221.796	-17.41
222.015	109.57
222.233	5.12
222.451	60.42
222.669	-21.5
222.887	70.65
223.105	-33.79
223.323	50.18
223.541	52.22
223.759	39.94
223.977	-5.12
224.195	64.51
224.413	1.02
224.631	31.74
224.849	50.18
225.067	39.94
225.285	-1.02
225.503	54.27
225.721	-50.18
225.939	25.6
226.157	33.79
226.375	31.74
226.592	15.36
226.81	13.31
227.028	39.94
227.246	19.46
227.464	33.79
227.682	11.26
227.9	15.36
228.117	27.65
228.335	-19.46
228.553	29.7
228.771	-17.41
228.989	44.03
229.206	54.27
229.424	-21.5
229.642	-9.22
229.86	9.22
230.077	21.5
230.295	21.5
230.513	70.65
230.731	-23.55
230.948	21.5
231.166	76.8
231.384	1.02
231.601	7.17
231.819	48.13
232.037	9.22
232.254	33.79
232.472	80.89
232.689	33.79
232.907	15.36
233.125	-11.26
233.342	46.08
233.56	-7.17
233.777	7.17
233.995	7.17
234.213	64.51
234.43	-33.79
234.648	15.36
234.865	9.22
235.083	44.03
235.3	9.22
235.518	15.36
235.735	60.42
235.953	41.98
236.17	87.04
236.388	58.37
236.605	89.09
236.822	80.89
237.04	52.22
237.257	56.32
237.475	19.46
237.692	89.09
237.909	105.47
238.127	25.6
238.344	-1.02
238.562	-9.22
238.779	-27.65
238.996	64.51
239.214	15.36
239.431	-5.12
239.648	-44.03
239.865	33.79
240.083	-50.18
240.3	-19.46
240.517	-31.74
240.735	37.89
240.952	-39.94
241.169	76.8
241.386	72.7
241.603	91.13
241.821	-7.17
242.038	-7.17
242.255	33.79
242.472	-35.84
242.689	11.26
242.907	25.6
243.124	58.37
243.341	-31.74
243.558	25.6
243.775	31.74
243.992	72.7
244.209	15.36
244.426	19.46
244.643	66.56
244.86	-44.03
245.078	-7.17
245.295	111.61
245.512	-7.17
245.729	17.41
245.946	60.42
246.163	27.65
246.38	44.03
246.597	21.5
246.814	80.89
247.031	66.56
247.248	62.46
247.464	27.65
247.681	-44.03
247.898	-9.22
248.115	-1.02
248.332	-5.12
248.549	25.6
248.766	113.66
248.983	15.36
249.2	39.94
249.417	44.03
249.633	-5.12
249.85	39.94
250.067	25.6
250.284	31.74
250.501	48.13
250.717	50.18
250.934	-39.94
251.151	33.79
251.368	9.22
251.585	41.98
251.801	50.18
252.018	7.17
252.235	48.13
252.451	25.6
252.668	-17.41
252.885	46.08
253.102	-58.37
253.318	56.32
253.535	62.46
253.752	21.5
253.968	60.42
254.185	21.5
254.401	37.89
254.618	37.89
254.835	37.89
255.051	89.09
255.268	9.22
255.484	68.61
255.701	-44.03
255.917	76.8
256.134	15.36
256.351	1.02
256.567	82.94
256.784	21.5
257	-33.79
257.217	121.85
257.433	9.22
257.65	5.12
257.866	54.27
258.082	-23.55
258.299	-31.74
258.515	-29.7
258.732	48.13
258.948	9.22
259.165	66.56
259.381	7.17
259.597	21.5
259.814	-13.31
260.03	23.55
260.246	62.46
260.463	21.5
260.679	44.03
260.895	50.18
261.112	74.75
261.328	52.22
261.544	-7.17
261.761	23.55
261.977	-1.02
262.193	70.65
262.409	46.08
262.626	62.46
262.842	113.66
263.058	35.84
263.274	29.7
263.49	56.32
263.707	93.18
263.923	-7.17
264.139	87.04
264.355	70.65
264.571	89.09
264.787	7.17
265.004	52.22
265.22	93.18
265.436	-11.26
265.652	-17.41
265.868	33.79
266.084	-3.07
266.3	58.37
266.516	-1.02
266.732	66.56
266.948	95.23
267.164	39.94
267.38	-13.31
267.596	78.85
267.812	62.46
268.028	29.7
268.244	39.94
268.46	93.18
268.676	99.33
268.892	-19.46
269.108	37.89
269.324	-1.02
269.54	1.02
269.756	-1.02
269.972	11.26
270.188	111.61
270.403	84.99
270.619	-19.46
270.835	-7.17
271.051	33.79
271.267	27.65
271.483	105.47
271.698	21.5
271.914	-19.46
272.13	56.32
272.346	39.94
272.562	37.89
272.777	52.22
272.993	-48.13
273.209	13.31
273.425	-15.36
273.64	11.26
273.856	-19.46
274.072	21.5
274.287	21.5
274.503	25.6
274.719	33.79
274.934	37.89
275.15	23.55
275.366	74.75
275.581	29.7
275.797	15.36
276.012	70.65
276.228	39.94
276.444	35.84
276.659	29.7
276.875	52.22
277.09	68.61
277.306	95.23
277.521	19.46
277.737	15.36
277.952	78.85
278.168	23.55
278.383	-9.22
278.599	-1.02
278.814	-27.65
279.03	91.13
279.245	29.7
279.461	25.6
279.676	84.99
279.892	74.75
280.107	41.98
280.322	-23.55
280.538	56.32
280.753	68.61
280.969	-60.42
281.184	21.5
281.399	74.75
281.615	-3.07
281.83	3.07
282.045	9.22
282.26	41.98
282.476	-13.31
282.691	74.75
282.906	11.26
283.122	-5.12
283.337	-1.02
283.552	27.65
283.767	21.5
283.983	66.56
284.198	105.47
284.413	41.98
284.628	29.7
284.843	52.22
285.058	15.36
285.274	68.61
285.489	37.89
285.704	56.32
285.919	130.05
286.134	78.85
286.349	91.13
286.564	25.6
286.779	103.42
286.995	64.51
287.21	27.65
287.425	105.47
287.64	25.6
287.855	5.12
288.07	17.41
288.285	35.84
288.5	80.89
288.715	48.13
288.93	39.94
289.145	-7.17
289.36	56.32
289.575	39.94
289.79	70.65
290.004	-17.41
290.219	93.18
290.434	68.61
290.649	82.94
290.864	-13.31
291.079	56.32
291.294	-46.08
291.509	-3.07
291.724	54.27
291.938	46.08
292.153	44.03
292.368	89.09
292.583	66.56
292.798	31.74
293.012	33.79
293.227	3.07
293.442	39.94
293.657	113.66
293.871	105.47
294.086	-15.36
294.301	52.22
294.516	35.84
294.73	-39.94
294.945	23.55
295.16	-21.5
295.374	41.98
295.589	39.94
295.804	70.65
296.018	82.94
296.233	58.37
296.447	97.28
296.662	31.74
296.877	105.47
297.091	117.76
297.306	21.5
297.52	-9.22
297.735	80.89
297.949	74.75
298.164	37.89
298.378	11.26
298.593	29.7
298.807	56.32
299.022	64.51
299.236	23.55
299.451	33.79
299.665	-17.41
299.88	80.89
300.094	39.94
300.309	21.5
300.523	50.18
300.737	97.28
300.952	82.94
301.166	9.22
301.381	-3.07
301.595	105.47
301.809	-15.36
302.024	58.37
302.238	21.5
302.452	58.37
302.667	35.84
302.881	37.89
303.095	68.61
303.309	-17.41
303.524	25.6
303.738	-13.31
303.952	-9.22
304.166	-15.36
304.381	62.46
304.595	70.65
304.809	-15.36
305.023	-25.6
305.237	23.55
305.452	84.99
305.666	17.41
305.88	105.47
306.094	5.12
306.308	21.5
306.522	91.13
306.736	-25.6
306.95	33.79
307.164	9.22
307.379	27.65
307.593	78.85
307.807	48.13
308.021	31.74
308.235	-13.31
308.449	54.27
308.663	35.84
308.877	87.04
309.091	25.6
309.305	46.08
309.519	-17.41
309.733	64.51
309.947	-68.61
310.161	11.26
310.374	35.84
310.588	41.98
310.802	23.55
311.016	50.18
311.23	23.55
311.444	11.26
311.658	60.42
311.872	60.42
312.085	80.89
312.299	68.61
312.513	54.27
312.727	15.36
312.941	-41.98
313.154	50.18
313.368	62.46
313.582	70.65
313.796	-9.22
314.009	115.71
314.223	-17.41
314.437	-25.6
314.651	107.52
314.864	21.5
315.078	56.32
315.292	50.18
315.505	37.89
315.719	21.5
315.933	84.99
316.146	-11.26
316.36	17.41
316.573	121.85
316.787	87.04
317.001	3.07
317.214	41.98
317.428	46.08
317.641	66.56
317.855	60.42
318.068	82.94
318.282	9.22
318.495	35.84
318.709	33.79
318.922	50.18
319.136	17.41
319.349	121.85
319.563	15.36
319.776	48.13
319.99	46.08
320.203	50.18
320.417	52.22
320.63	33.79
320.843	58.37
321.057	76.8
321.27	21.5
321.483	80.89
321.697	25.6
321.91	80.89
322.124	78.85
322.337	80.89
322.55	41.98
322.763	74.75
322.977	72.7
323.19	39.94
323.403	25.6
323.617	19.46
323.83	-5.12
324.043	7.17
324.256	56.32
324.469	66.56
324.683	35.84
324.896	7.17
325.109	46.08
325.322	23.55
325.535	35.84
325.748	50.18
325.962	64.51
326.175	27.65
326.388	87.04
326.601	-15.36
326.814	41.98
327.027	62.46
327.24	78.85
327.453	-48.13
327.666	68.61
327.879	72.7
328.092	46.08
328.305	56.32
328.518	95.23
328.731	66.56
328.944	70.65
329.157	21.5
329.37	68.61
329.583	66.56
329.796	97.28
330.009	-5.12
330.222	31.74
330.435	107.52
330.648	62.46
330.861	33.79
331.073	-5.12
331.286	78.85
331.499	-31.74
331.712	11.26
331.925	70.65
332.138	7.17
332.35	33.79
332.563	9.22
332.776	50.18
332.989	-3.07
333.202	17.41
333.414	-41.98
333.627	35.84
333.84	-25.6
334.053	5.12
334.265	33.79
334.478	46.08
334.691	99.33
334.903	13.31
335.116	13.31
335.329	89.09
335.541	44.03
335.754	9.22
335.966	13.31
336.179	13.31
336.392	89.09
336.604	15.36
336.817	179.2
337.029	50.18
337.242	113.66
337.454	107.52
337.667	41.98
337.88	111.61
338.092	87.04
338.305	84.99
338.517	23.55
338.729	62.46
338.942	119.81
339.154	31.74
339.367	56.32
339.579	95.23
339.792	7.17
340.004	-9.22
340.217	41.98
340.429	76.8
340.641	-11.26
340.854	15.36
341.066	70.65
341.278	78.85
341.491	66.56
341.703	58.37
341.915	19.46
342.128	58.37
342.34	60.42
342.552	44.03
342.764	-17.41
342.977	48.13
343.189	58.37
343.401	123.9
343.613	35.84
343.826	95.23
344.038	60.42
344.25	1.02
344.462	31.74
344.674	54.27
344.886	44.03
345.099	46.08
345.311	50.18
345.523	21.5
345.735	50.18
345.947	21.5
346.159	80.89
346.371	35.84
346.583	66.56
346.795	56.32
347.007	19.46
347.219	-5.12
347.431	41.98
347.643	-13.31
347.855	1.02
348.067	58.37
348.279	70.65
348.491	9.22
348.703	70.65
348.915	41.98
349.127	-17.41
349.339	62.46
349.551	48.13
349.763	89.09
349.975	125.95
350.187	33.79
350.399	15.36
350.61	80.89
350.822	21.5
351.034	60.42
351.246	11.26
351.458	9.22
351.669	84.99
351.881	27.65
352.093	23.55
352.305	89.09
352.517	39.94
352.728	39.94
352.94	41.98
353.152	119.81
353.363	23.55
353.575	60.42
353.787	-27.65
353.999	13.31
354.21	132.09
354.422	15.36
354.633	29.7
354.845	58.37
355.057	54.27
355.268	-33.79
355.48	76.8
355.692	31.74
355.903	58.37
356.115	3.07
356.326	37.89
356.538	-1.02
356.749	54.27
356.961	68.61
357.172	50.18
357.384	41.98
357.595	105.47
357.807	39.94
358.018	7.17
358.23	7.17
358.441	80.89
358.653	19.46
358.864	54.27
359.075	-5.12
359.287	21.5
359.498	105.47
359.709	68.61
359.921	70.65
360.132	62.46
360.344	109.57
360.555	27.65
360.766	74.75
360.977	1.02
361.189	9.22
361.4	93.18
361.611	95.23
361.823	99.33
362.034	-23.55
362.245	35.84
362.456	-17.41
362.667	107.52
362.879	56.32
363.09	27.65
363.301	31.74
363.512	52.22
363.723	113.66
363.935	105.47
364.146	82.94
364.357	3.07
364.568	29.7
364.779	33.79
364.99	50.18
365.201	-11.26
365.412	50.18
365.623	46.08
365.834	58.37
366.045	-23.55
366.256	74.75
366.467	46.08
366.678	50.18
366.889	78.85
367.1	13.31
367.311	37.89
367.522	58.37
367.733	91.13
367.944	101.37
368.155	72.7
368.366	17.41
368.577	21.5
368.788	37.89
368.999	113.66
369.209	74.75
369.42	87.04
369.631	78.85
369.842	62.46
370.053	62.46
370.264	23.55
370.474	58.37
370.685	93.18
370.896	123.9
371.107	23.55
371.317	62.46
371.528	66.56
371.739	107.52
371.95	33.79
372.16	78.85
372.371	76.8
372.582	27.65
372.792	82.94
373.003	41.98
373.214	33.79
373.424	68.61
373.635	17.41
373.846	82.94
374.056	121.85
374.267	44.03
374.477	91.13
374.688	91.13
374.898	35.84
375.109	76.8
375.319	62.46
375.53	52.22
375.74	5.12
375.951	54.27
376.161	-3.07
376.372	105.47
376.582	64.51
376.793	142.33
377.003	9.22
377.214	52.22
377.424	64.51
377.635	17.41
377.845	99.33
378.055	93.18
378.266	31.74
378.476	64.51
378.686	37.89
378.897	82.94
379.107	41.98
379.317	66.56
379.528	78.85
379.738	80.89
379.948	33.79
380.158	91.13
380.369	60.42
380.579	58.37
380.789	-60.42
380.999	97.28
381.21	66.56
381.42	68.61
381.63	111.61
381.84	82.94
382.05	21.5
382.261	82.94
382.471	140.29
382.681	89.09
382.891	105.47
383.101	56.32
383.311	33.79
383.521	52.22
383.731	66.56
383.941	70.65
384.151	125.95
384.361	48.13
384.571	58.37
384.781	68.61
384.991	80.89
385.201	171.01
385.411	125.95
385.621	-19.46
385.831	87.04
386.041	46.08
386.251	41.98
386.461	89.09
386.671	93.18
386.881	48.13
387.091	62.46
387.301	87.04
387.511	107.52
387.72	117.76
387.93	84.99
388.14	62.46
388.35	39.94
388.56	142.33
388.769	50.18
388.979	111.61
389.189	50.18
389.399	41.98
389.609	82.94
389.818	105.47
390.028	74.75
390.238	-11.26
390.447	52.22
390.657	33.79
390.867	17.41
391.076	13.31
391.286	84.99
391.496	52.22
391.705	82.94
391.915	117.76
392.125	74.75
392.334	29.7
392.544	78.85
392.753	76.8
392.963	19.46
393.172	142.33
393.382	58.37
393.591	105.47
393.801	82.94
394.01	21.5
394.22	76.8
394.429	99.33
394.639	87.04
394.848	56.32
395.058	142.33
395.267	175.1
395.477	115.71
395.686	99.33
395.895	164.86
396.105	146.43
396.314	111.61
396.524	134.14
396.733	60.42
396.942	95.23
397.152	146.43
397.361	173.05
397.57	117.76
397.78	97.28
397.989	99.33
398.198	211.96
398.407	156.67
398.617	58.37
398.826	50.18
399.035	132.09
399.244	54.27
399.453	123.9
399.663	89.09
399.872	138.24
400.081	148.48
400.29	142.33
400.499	99.33
400.708	107.52
400.917	150.53
401.127	115.71
401.336	56.32
401.545	140.29
401.754	27.65
401.963	111.61
402.172	66.56
402.381	144.38
402.59	64.51
402.799	144.38
403.008	148.48
403.217	175.1
403.426	158.72
403.635	74.75
403.844	189.44
404.053	175.1
404.262	130.05
404.471	171.01
404.68	121.85
404.888	166.91
405.097	211.96
405.306	205.82
405.515	156.67
405.724	197.63
405.933	179.2
406.142	109.57
406.35	234.49
406.559	175.1
406.768	246.78
406.977	285.69
407.185	242.68
407.394	205.82
407.603	205.82
407.812	209.92
408.02	224.25
408.229	308.22
408.438	304.12
408.646	218.11
408.855	279.55
409.064	316.41
409.272	328.7
409.481	287.74
409.69	343.03
409.898	330.75
410.107	277.5
410.315	402.43
410.524	392.19
410.733	373.75
410.941	365.56
411.15	453.63
411.358	449.53
411.567	443.39
411.775	394.23
411.984	439.29
412.192	500.73
412.401	480.25
412.609	474.1
412.818	529.4
413.026	523.26
413.234	502.78
413.443	566.26
413.651	617.46
413.86	648.18
414.068	678.9
414.276	670.71
414.485	666.61
414.693	689.14
414.901	807.92
415.11	748.53
415.318	771.06
415.526	842.74
415.734	875.51
415.943	984.05
416.151	916.47
416.359	922.61
416.567	947.19
416.776	986.1
416.984	1156.08
417.192	1031.15
417.4	1051.63
417.608	1090.54
417.817	1199.09
418.025	1174.51
418.233	1311.72
418.441	1274.86
418.649	1352.68
418.857	1405.93
419.065	1446.89
419.273	1448.94
419.481	1549.29
419.689	1547.24
419.897	1696.74
420.105	1690.6
420.313	1760.23
420.521	1680.36
420.729	1881.06
420.937	1909.73
421.145	2018.27
421.353	2130.91
421.561	2221.02
421.769	2200.54
421.977	2300.89
422.185	2315.23
422.393	2376.67
422.601	2501.59
422.809	2560.98
423.017	2526.17
423.224	2667.48
423.432	2765.78
423.64	2741.21
423.848	3036.11
424.056	2946
424.263	3191.76
424.471	3060.69
424.679	3251.15
424.887	3443.66
425.094	3580.87
425.302	3707.85
425.51	3711.94
425.718	3707.85
425.925	3849.16
426.133	3969.99
426.341	4207.55
426.548	4293.57
426.756	4420.54
426.964	4506.56
427.171	4772.79
427.379	4983.73
427.586	4899.77
427.794	5180.34
428.001	5399.47
428.209	5659.56
428.417	5389.23
428.624	5845.93
428.832	5843.88
429.039	5962.66
429.247	5985.19
429.454	6372.25
429.662	6583.2
429.869	6448.03
430.076	6845.34
430.284	6644.63
430.491	6921.11
430.699	7185.3
430.906	7361.42
431.114	7371.66
431.321	7857.03
431.528	7848.84
431.736	8133.51
431.943	8563.58
432.15	8524.67
432.358	8420.22
432.565	9057.14
432.772	9208.69
432.979	9550.7
433.187	9616.24
433.394	9704.3
433.601	10281.83
433.808	10527.58
434.016	10470.24
434.223	10679.13
434.43	11357.01
434.637	10953.56
434.844	11840.33
435.052	12010.31
435.259	11862.86
435.466	12426.05
435.673	12045.13
435.88	12698.43
436.087	13304.63
436.294	13335.35
436.501	13075.26
436.708	13470.51
436.915	13896.49
437.122	14523.17
437.329	14410.53
437.537	15047.45
437.743	15291.16
437.95	15248.15
438.157	15801.1
438.364	16372.49
438.571	16225.03
438.778	16364.29
438.985	17998.57
439.192	17197.82
439.399	17822.45
439.606	17625.84
439.813	18596.58
440.02	19684.05
440.227	19426.01
440.433	19004.13
440.64	19610.32
440.847	19641.04
441.054	20136.65
441.261	21430.97
441.467	21199.55
441.674	21711.54
441.881	22119.09
442.088	22205.1
442.294	22018.74
442.501	22842.02
442.708	23231.13
442.914	24275.6
443.121	25121.41
443.328	24597.13
443.534	26395.25
443.741	25522.81
443.948	25238.14
444.154	26894.95
444.361	26985.06
444.568	26989.16
444.774	27179.62
444.981	27601.5
445.187	28277.33
445.394	29293.12
445.6	29119.04
445.807	31988.25
446.013	30394.93
446.22	31234.6
446.426	32328.21
446.633	32582.16
446.839	33585.66
447.046	32080.41
447.252	33958.39
447.459	34066.94
447.665	34238.97
447.871	35514.85
448.078	37304.77
448.284	35512.8
448.491	36694.48
448.697	37939.65
448.903	38302.14
449.11	38609.33
449.316	37890.49
449.522	38580.66
449.728	39768.48
449.935	40038.81
450.141	39723.43
450.347	40800.66
450.553	39864.74
450.76	40280.47
450.966	41496.97
451.172	41052.56
451.378	41912.7
451.584	41326.99
451.791	42539.38
451.997	41789.83
452.203	42789.24
452.409	43141.49
452.615	42746.23
452.821	41230.73
453.027	41027.98
453.233	43030.9
453.44	41394.57
453.646	41656.71
453.852	42025.34
454.058	42928.5
454.264	41126.28
454.47	42252.67
454.676	41347.47
454.882	42396.03
455.088	38947.25
455.294	39381.42
455.5	40221.08
455.705	40511.89
455.911	38898.09
456.117	38076.86
456.323	37519.81
456.529	35914.2
456.735	37560.77
456.941	36311.51
457.147	35867.1
457.352	34812.4
457.558	33915.39
457.764	34671.09
457.97	34081.27
458.176	32995.85
458.381	33155.59
458.587	31445.54
458.793	31375.91
458.999	29807.16
459.204	31998.49
459.41	31031.85
459.616	28879.43
459.821	28840.52
460.027	29155.91
460.233	28514.89
460.438	27357.79
460.644	27167.33
460.85	25940.6
461.055	25870.97
461.261	25506.43
461.466	23648.92
461.672	23272.09
461.878	24554.12
462.083	23034.53
462.289	22819.49
462.494	22426.28
462.7	21512.89
462.905	20867.78
463.111	21430.97
463.316	21584.57
463.522	21357.24
463.727	21310.14
463.932	21027.52
464.138	20789.95
464.343	20830.91
464.549	20273.87
464.754	20835.01
464.959	21060.29
465.165	20685.51
465.37	20103.89
465.575	19399.38
465.781	20234.96
465.986	20134.6
466.191	19528.41
466.397	18881.25
466.602	18270.95
466.807	19053.28
467.012	19213.02
467.218	18598.63
467.423	18696.93
467.628	18975.45
467.833	19475.16
468.038	18766.56
468.244	18152.17
468.449	19026.65
468.654	18205.42
468.859	18340.58
469.064	17918.7
469.269	17273.59
469.474	17441.53
469.679	18178.79
469.885	17560.31
470.09	17535.73
470.295	17468.15
470.5	17058.56
470.705	17060.6
470.91	17005.31
471.115	16726.78
471.32	16806.66
471.525	16851.71
471.73	16368.39
471.935	16354.05
472.139	15891.21
472.344	15842.06
472.549	15717.14
472.754	15686.42
472.959	15125.27
473.164	14918.43
473.369	15117.08
473.574	15330.07
473.778	15135.51
473.983	15065.88
474.188	15155.99
474.393	14295.85
474.598	14693.15
474.802	14236.45
475.007	14287.65
475.212	14197.54
475.417	13839.15
475.621	13644.59
475.826	13536.05
476.031	13456.18
476.235	13321.01
476.44	13646.64
476.645	13101.88
476.849	13333.3
477.054	13173.56
477.259	12673.85
477.463	13052.73
477.668	12591.94
477.872	12686.14
478.077	12426.05
478.282	12235.59
478.486	12264.26
478.691	12223.3
478.895	11973.45
479.1	11969.35
479.304	12104.52
479.509	11653.97
479.713	11973.45
479.918	11672.4
480.122	11422.55
480.326	11766.6
480.531	11803.47
480.735	11545.42
480.94	11457.36
481.144	11791.18
481.348	11006.81
481.553	11189.08
481.757	10990.42
481.961	11250.52
482.166	11232.08
482.37	11023.19
482.574	11144.02
482.778	11084.63
482.983	11459.41
483.187	10920.79
483.391	11311.96
483.595	11227.99
483.8	11041.62
484.004	11148.12
484.208	11246.42
484.412	11150.17
484.616	11137.88
484.821	11015
485.025	10978.14
485.229	11250.52
485.433	10875.74
485.637	10986.33
485.841	10959.7
486.045	10869.59
486.249	11162.45
486.453	10994.52
486.657	11121.49
486.861	11195.22
487.065	10998.62
487.269	11121.49
487.473	10898.27
487.677	11107.16
487.881	11158.36
488.085	11076.44
488.289	11137.88
488.493	11156.31
488.697	11162.45
488.901	11162.45
489.105	11320.15
489.309	11309.91
489.512	11350.87
489.716	11400.02
489.92	11223.89
490.124	11273.04
490.328	11473.74
490.531	11303.76
490.735	11434.83
490.939	11541.33
491.143	11516.75
491.346	11420.5
491.55	11791.18
491.754	11649.87
491.958	11877.19
492.161	11897.67
492.365	11971.4
492.569	11715.41
492.772	11938.63
492.976	12081.99
493.18	11993.93
493.383	12106.57
493.587	12389.19
493.79	12493.63
493.994	11914.06
494.197	12383.04
494.401	12561.22
494.605	12643.14
494.808	12749.63
495.012	12806.97
495.215	12768.06
495.419	12772.16
495.622	12729.15
495.825	13054.78
496.029	13058.87
496.232	13542.19
496.436	13263.67
496.639	13620.02
496.843	13529.91
497.046	14168.87
497.249	13951.79
497.453	14316.33
497.656	14232.36
497.859	14285.61
498.063	14199.59
498.266	14852.89
498.469	14480.16
498.673	14965.53
498.876	15160.09
499.079	15731.47
499.282	15264.54
499.485	15768.34
499.689	15620.88
499.892	16007.95
500.095	16075.53
500.298	16433.93
500.501	16184.07
500.705	16823.04
500.908	16780.03
501.111	16911.1
501.314	17353.46
501.517	17425.14
501.72	17871.6
501.923	17404.66
502.126	18170.6
502.329	18391.78
502.532	18557.67
502.735	18336.49
502.938	18774.75
503.141	19170.01
503.344	19167.96
503.547	19305.18
503.75	19655.38
503.953	20146.89
504.156	20091.6
504.359	20206.28
504.562	20257.48
504.765	20798.15
504.968	21131.97
505.17	21625.53
505.373	21498.55
505.576	21832.37
505.779	22110.89
505.982	22332.08
506.185	22665.89
506.387	22280.88
506.59	22684.33
506.793	23696.02
506.996	23147.17
507.198	23882.39
507.401	23663.25
507.604	24246.93
507.807	24461.96
508.009	24697.48
508.212	24584.84
508.415	24980.1
508.617	25555.58
508.82	25651.83
509.022	25526.91
509.225	26100.34
509.428	26266.22
509.63	26524.27
509.833	26813.03
510.035	27628.12
510.238	27382.37
510.44	27775.58
510.643	28326.48
510.845	28252.75
511.048	28080.72
511.25	28482.13
511.453	29069.89
511.655	29905.46
511.858	29628.99
512.06	29698.62
512.262	30155.32
512.465	29874.74
512.667	30886.44
512.87	30825
513.072	30978.6
513.274	31582.75
513.477	31750.68
513.679	32115.22
513.881	32490
514.084	32612.88
514.286	32770.57
514.488	32897.55
514.69	33747.45
514.893	34155
515.095	34150.9
515.297	34783.73
515.499	34595.31
515.701	34955.75
515.904	35150.31
516.106	35420.64
516.308	35828.19
516.51	35996.12
516.712	36360.66
516.914	36549.07
517.116	37120.46
517.318	37196.23
517.52	37196.23
517.722	37413.32
517.925	37984.7
518.127	38627.76
518.329	38709.68
518.531	38699.44
518.733	39227.82
518.935	39682.47
519.136	39602.6
519.338	40477.08
519.54	40470.93
519.742	40962.45
519.944	40716.69
520.146	41744.77
520.348	41734.53
520.55	41638.28
520.752	41611.65
520.954	42678.64
521.155	42271.1
521.357	42813.81
521.559	43161.97
521.761	43659.62
521.963	43630.95
522.164	43811.17
522.366	44208.48
522.568	44335.45
522.77	44644.69
522.971	45076.82
523.173	44816.72
523.375	45320.52
523.576	45488.46
523.778	45156.69
523.98	45906.24
524.181	46307.65
524.383	45875.52
524.584	46655.8
524.786	46760.25
524.988	46711.1
525.189	47556.91
525.391	47712.55
525.592	47718.7
525.794	47579.43
525.995	47630.63
526.197	47931.68
526.398	48046.37
526.6	48728.34
526.801	48765.21
527.003	48359.71
527.204	48533.79
527.406	49219.86
527.607	48984.34
527.808	49404.17
528.01	48539.93
528.211	49404.17
528.412	50315.52
528.614	49578.25
528.815	49438.99
529.016	50581.76
529.218	49697.03
529.419	49912.07
529.62	49846.54
529.822	49891.59
530.023	49625.35
530.224	50106.63
530.425	50153.73
530.626	49899.78
530.828	49666.31
531.029	50579.71
531.23	50186.5
531.431	50426.11
531.632	50387.2
531.833	50999.54
532.035	50450.69
532.236	50684.15
532.437	50784.51
532.638	50182.4
532.839	50981.11
533.04	50817.27
533.241	50659.58
533.442	51337.46
533.643	50995.45
533.844	50596.09
534.045	51284.21
534.246	50563.32
534.447	51353.84
534.648	50964.73
534.849	50841.85
535.05	50489.6
535.251	51046.65
535.451	50962.68
535.652	51106.04
535.853	51114.23
536.054	51075.32
536.255	51020.02
536.456	50381.06
536.657	51407.09
536.857	50854.14
537.058	50850.04
537.259	51075.32
537.46	51030.26
537.66	50723.07
537.861	50913.53
538.062	50825.46
538.263	50997.49
538.463	50473.21
538.664	50675.96
538.865	51065.08
539.065	50964.73
539.266	50499.84
539.466	51099.89
539.667	50432.25
539.868	51472.62
540.068	51108.08
540.269	50637.05
540.469	50678.01
540.67	50749.69
540.87	50831.61
541.071	50635
541.271	51347.7
541.472	50532.6
541.672	50497.79
541.873	50358.53
542.073	50241.79
542.274	51056.88
542.474	50696.44
542.675	50178.31
542.875	51300.59
543.075	50608.38
543.276	50258.18
543.476	51017.97
543.676	50247.94
543.877	51071.22
544.077	50798.84
544.277	50350.34
544.478	50512.13
544.678	50735.35
544.878	50524.41
545.078	50706.68
545.279	50145.54
545.479	50141.44
545.679	50774.27
545.879	50737.4
546.079	49959.17
546.28	50659.58
546.48	50141.44
546.68	50385.15
546.88	50731.26
547.08	50415.87
547.28	50096.39
547.48	49920.26
547.68	50209.03
547.88	49494.28
548.081	50366.72
548.281	50024.71
548.481	49916.17
548.681	50780.41
548.881	50270.46
549.081	50323.71
549.28	50047.24
549.48	50295.04
549.68	50235.65
549.88	50583.8
550.08	49846.54
550.28	50428.16
550.48	49365.26
550.68	50417.92
550.88	49869.06
551.08	49932.55
551.279	49723.66
551.479	49916.17
551.679	49901.83
551.879	50284.8
552.079	50311.42
552.278	49735.95
552.478	49699.08
552.678	49991.94
552.878	50249.99
553.077	50217.22
553.277	49178.9
553.477	50309.38
553.676	49320.21
553.876	49496.33
554.076	49473.81
554.275	49201.43
554.475	48838.93
554.674	50123.01
554.874	49719.56
555.074	49266.96
555.273	49406.22
555.473	49719.56
555.672	49176.85
555.872	49193.23
556.071	49441.04
556.271	49498.38
556.47	48976.15
556.67	48709.91
556.869	49213.71
557.068	49522.96
557.268	49254.67
557.467	49604.88
557.667	48957.72
557.866	48869.65
558.065	48859.41
558.265	49056.02
558.464	48535.84
558.663	49060.12
558.863	48476.44
559.062	49367.31
559.261	48472.35
559.461	48888.09
559.66	48140.58
559.859	48341.28
560.058	48040.23
560.258	48634.14
560.457	47880.49
560.656	48458.01
560.855	48089.38
561.054	48525.6
561.253	47851.81
561.453	48245.02
561.652	47978.79
561.851	48126.24
562.05	47620.39
562.249	47913.25
562.448	48408.86
562.647	47702.31
562.846	47601.96
563.045	47921.44
563.244	47411.5
563.443	48212.26
563.642	46926.13
563.841	47438.12
564.04	47147.31
564.239	47677.74
564.438	47149.36
564.637	47614.25
564.836	47159.6
565.035	46778.68
565.234	47266.09
565.432	47155.5
565.631	46651.7
565.83	46850.36
566.029	46870.84
566.228	46745.91
566.427	46854.45
566.625	46266.69
566.824	45939.01
567.023	46852.41
567.222	45877.57
567.42	46825.78
567.619	46152
567.818	46778.68
568.016	46098.75
568.215	46385.47
568.414	45936.96
568.612	46362.94
568.811	46090.56
569.01	45740.36
569.208	44869.97
569.407	46172.48
569.605	45298
569.804	45982.02
570.002	45314.38
570.201	45748.55
570.4	45134.16
570.598	45291.85
570.797	44841.3
570.995	45439.31
571.193	44550.49
571.392	45234.51
571.59	44585.3
571.789	44534.1
571.987	44409.18
572.186	44493.15
572.384	44396.89
572.582	44722.52
572.781	44927.31
572.979	43637.09
573.177	44595.54
573.376	44472.67
573.574	43997.54
573.772	44466.52
573.971	44085.6
574.169	43845.99
574.367	43714.92
574.565	43678.05
574.763	43444.59
574.962	43207.02
575.16	43196.78
575.358	43790.69
575.556	42701.17
575.754	43618.66
575.952	42625.4
576.151	43364.71
576.349	42680.69
576.547	43034.99
576.745	42883.44
576.943	42955.12
577.141	42908.02
577.339	42682.74
577.537	42406.26
577.735	42453.37
577.933	41812.35
578.131	42066.3
578.329	42092.93
578.527	41888.13
578.725	41951.62
578.923	41806.21
579.121	41746.82
579.319	41593.22
579.516	41986.43
579.714	41410.95
579.912	41216.4
580.11	41216.4
580.308	40960.4
580.506	41091.47
580.704	40370.58
580.901	40968.59
581.099	41251.21
581.297	40694.16
581.495	40649.11
581.692	40448.41
581.89	40221.08
582.088	40544.66
582.285	39930.27
582.483	40348.06
582.681	40331.67
582.878	40421.78
583.076	39553.44
583.274	39864.74
583.471	39250.35
583.669	39901.6
583.866	39422.37
584.064	39315.88
584.262	39008.68
584.459	39225.77
584.657	38996.4
584.854	39201.19
585.052	38410.68
585.249	39035.31
585.447	38912.43
585.644	38289.85
585.841	38547.89
586.039	38597.04
586.236	38209.98
586.434	38156.73
586.631	38115.77
586.828	38252.98
587.026	38185.4
587.223	37808.58
587.42	37532.1
587.618	37861.82
587.815	37433.8
588.012	37702.08
588.21	37626.31
588.407	38128.06
588.604	36886.99
588.801	37050.83
588.999	37196.23
589.196	37079.5
589.393	36708.82
589.59	36774.35
589.787	36413.91
589.984	36585.94
590.182	36319.7
590.379	36465.11
590.576	36129.24
590.773	36116.95
590.97	36186.58
591.167	36217.3
591.364	35756.51
591.561	35367.4
591.758	35553.76
591.955	35604.96
592.152	35383.78
592.349	35068.39
592.546	35707.36
592.743	34748.91
592.94	35031.53
593.137	34834.92
593.334	35033.58
593.531	34652.66
593.727	34656.75
593.924	34537.97
594.121	34341.36
594.318	34583.02
594.515	34347.51
594.712	34583.02
594.908	33802.75
595.105	34415.09
595.302	33665.53
595.499	33870.33
595.696	33890.81
595.892	33487.36
596.089	33679.87
596.286	33536.51
596.482	33296.9
596.679	33106.44
596.876	33290.76
597.072	33106.44
597.269	33229.32
597.466	32584.21
597.662	32813.58
597.859	32907.79
598.055	32905.74
598.252	32670.22
598.448	32492.05
598.645	32387.6
598.841	32311.83
599.038	32322.07
599.234	32088.6
599.431	31629.85
599.627	32129.56
599.824	31943.19
600.02	31762.97
600.217	31797.79
600.413	31568.41
600.609	31541.79
600.806	30999.08
601.002	31390.24
601.198	30851.63
601.395	30806.57
601.591	30855.72
601.787	30954.02
601.984	30648.88
602.18	31068.71
602.376	30186.04
602.572	30523.95
602.769	30458.42
602.965	30339.63
603.161	30194.23
603.357	30175.8
603.553	30009.91
603.75	30429.74
603.946	29665.85
604.142	30161.46
604.338	29628.99
604.534	29598.27
604.73	29299.26
604.926	29364.8
605.122	29405.76
605.318	29051.46
605.514	29485.63
605.71	28865.1
605.906	29164.1
606.102	29014.6
606.298	28990.02
606.494	28852.81
606.69	29180.48
606.886	28713.55
607.082	28373.58
607.278	28838.47
607.474	28377.68
607.67	28815.94
607.866	28244.56
608.062	28672.59
608.257	28074.58
608.453	28355.15
608.649	28152.4
608.845	28068.44
609.041	27839.06
609.236	27955.8
609.432	27847.26
609.628	27746.9
609.824	27974.23
610.019	27597.4
610.215	27677.27
610.411	27744.86
610.606	27478.62
610.802	27576.92
610.998	27638.36
611.193	27425.37
611.389	27544.16
611.584	26972.77
611.78	27169.38
611.976	26884.71
612.171	27472.48
612.367	27079.27
612.562	27120.23
612.758	26647.15
612.953	26677.86
613.149	26894.95
613.344	26890.85
613.539	27265.63
613.735	26552.94
613.93	26731.11
614.126	26749.54
614.321	26819.17
614.517	26686.06
614.712	26550.89
614.907	26323.57
615.103	26532.46
615.298	26073.71
615.493	26524.27
615.688	26311.28
615.884	26587.75
616.079	26217.07
616.274	26368.62
616.47	25995.89
616.665	26077.81
616.86	26059.38
617.055	25952.88
617.25	26055.28
617.445	25911.92
617.641	25432.7
617.836	25823.86
618.031	25563.77
618.226	25727.61
618.421	25342.59
618.616	25264.77
618.811	24887.94
619.006	25291.39
619.201	24607.37
619.396	24879.75
619.591	24677
619.786	25375.36
619.981	24562.31
620.176	25041.54
620.371	24398.48
620.566	24451.72
620.761	24203.92
620.956	24056.46
621.151	23884.44
621.346	24124.05
621.541	23716.5
621.735	23937.68
621.93	23431.83
622.125	23581.34
622.32	23130.78
622.515	23546.52
622.709	23163.55
622.904	23093.92
623.099	23075.49
623.294	22915.75
623.488	22536.87
623.683	22631.08
623.878	22153.9
624.072	22506.15
624.267	22274.73
624.462	22110.89
624.656	21963.44
624.851	21977.78
625.046	21969.58
625.24	21750.45
625.435	21449.4
625.629	21545.66
625.824	21183.16
626.018	21234.36
626.213	20705.99
626.407	20900.55
626.602	20656.84
626.796	20802.24
626.991	20931.26
627.185	20480.71
627.38	20503.24
627.574	20204.24
627.768	20234.96
627.963	19935.95
628.157	20024.01
628.352	19751.63
628.546	19323.61
628.74	19608.28
628.935	19550.93
629.129	19643.09
629.323	19249.88
629.517	19192.54
629.712	19350.23
629.906	19288.79
630.1	18715.36
630.294	19051.23
630.489	18768.61
630.683	18780.9
630.877	18442.98
631.071	18502.37
631.265	18389.74
631.459	18342.63
631.653	17971.95
631.848	18211.56
632.042	18088.68
632.236	18240.23
632.43	17799.92
632.624	17871.6
632.818	17576.69
633.012	17552.12
633.206	17545.97
633.4	17464.05
633.594	17330.94
633.788	17371.89
633.982	17277.69
634.176	16954.11
634.369	16704.26
634.563	16775.94
634.757	16745.22
634.951	16763.65
635.145	16708.35
635.339	16642.82
635.533	16378.63
635.726	16399.11
635.92	16204.55
636.114	16354.05
636.308	16171.79
636.501	16194.31
636.695	15899.41
636.889	15981.32
637.083	15633.17
637.276	15567.63
637.47	15563.54
637.664	15500.05
637.857	15575.83
638.051	15436.56
638.244	15276.82
638.438	15229.72
638.632	15186.71
638.825	15049.5
639.019	15319.83
639.212	14760.73
639.406	14734.11
639.599	14570.27
639.793	14676.77
639.986	14461.73
640.18	14557.99
640.373	14443.3
640.567	14189.35
640.76	14345
640.954	13955.88
641.147	13919.02
641.34	13982.51
641.534	14089
641.727	13871.92
641.92	13773.61
642.114	13587.25
642.307	13722.41
642.5	13413.17
642.694	13157.18
642.887	13241.14
643.08	13419.32
643.273	13286.2
643.467	13239.09
643.66	13013.82
643.853	13073.21
644.046	12702.53
644.239	12911.42
644.432	12888.89
644.626	12706.62
644.819	12520.26
645.012	12606.27
645.205	12647.23
645.398	12659.52
645.591	12358.47
645.784	12127.05
645.977	12231.49
646.17	12256.07
646.363	12006.22
646.556	11791.18
646.749	11834.19
646.942	12004.17
647.135	11817.8
647.328	11883.34
647.521	11690.83
647.714	11547.47
647.907	11688.78
648.099	11397.97
648.292	11572.05
648.485	11449.17
648.678	11426.64
648.871	11295.57
649.064	11279.19
649.256	11170.65
649.449	11268.95
649.642	10867.55
649.835	10998.62
650.027	10896.22
650.22	10951.51
650.413	10652.51
650.605	10621.79
650.798	10863.45
650.991	10617.69
651.183	10691.42
651.376	10464.1
651.568	10525.54
651.761	10558.3
651.954	10570.59
652.146	10306.4
652.339	10365.79
652.531	10247.01
652.724	10134.37
652.916	10011.5
653.109	9984.87
653.301	10132.33
653.494	9812.84
653.686	9669.48
653.879	10023.78
654.071	9628.53
654.263	9808.75
654.456	9601.9
654.648	9425.78
654.84	9479.02
655.033	9376.62
655.225	9458.54
655.417	9212.79
655.61	9315.19
655.802	9278.32
655.994	9030.52
656.186	9229.17
656.379	9227.12
656.571	8926.07
656.763	9018.23
656.955	9075.57
657.148	8960.89
657.34	9028.47
657.532	8862.58
657.724	8586.11
657.916	8692.6
658.108	8559.49
658.3	8489.85
658.492	8672.12
658.684	8446.85
658.876	8366.98
659.068	8459.13
659.26	8295.3
659.452	8539.01
659.644	8328.06
659.836	8246.15
660.028	8205.19
660.22	8170.37
660.412	8051.59
660.604	8088.45
660.796	8084.36
660.988	8022.92
661.18	7820.17
661.372	7826.31
661.563	7912.33
661.755	7854.98
661.947	7861.13
662.139	7553.93
662.331	7658.38
662.522	7654.28
662.714	7631.76
662.906	7500.69
663.097	7482.25
663.289	7424.91
663.481	7304.08
663.673	7353.23
663.864	7383.95
664.056	7177.11
664.247	7306.13
664.439	6939.54
664.631	7205.78
664.822	7050.13
665.014	7027.6
665.205	6976.41
665.397	7078.8
665.588	7103.38
665.78	6798.23
665.971	6644.63
666.163	6843.29
666.354	6724.51
666.546	6667.16
666.737	6620.06
666.929	6820.76
667.12	6642.59
667.311	6564.76
667.503	6525.85
667.694	6511.52
667.885	6552.48
668.077	6384.54
668.268	6402.97
668.459	6450.08
668.651	6292.38
668.842	6206.37
669.033	6257.57
669.224	6237.09
669.416	6454.17
669.607	6255.52
669.798	6232.99
669.989	6222.75
670.18	5989.28
670.371	6028.2
670.563	6054.82
670.754	6071.2
670.945	5995.43
671.136	5917.61
671.327	5880.74
671.518	5923.75
671.709	5960.61
671.9	5815.21
672.091	5790.63
672.282	5727.14
672.473	5573.55
672.664	5596.07
672.855	5630.89
673.046	5741.48
673.237	5553.07
673.428	5675.95
673.619	5569.45
673.809	5479.34
674	5479.34
674.191	5559.21
674.382	5563.31
674.573	5403.57
674.764	5553.07
674.954	5508.01
675.145	5508.01
675.336	5438.38
675.527	5352.37
675.717	5317.55
675.908	5317.55
676.099	5327.79
676.289	5282.74
676.48	5209.01
676.671	5215.15
676.861	5292.98
677.052	5299.12
677.243	5315.5
677.433	5286.83
677.624	5297.07
677.814	5094.32
678.005	5143.47
678.195	5071.79
678.386	5272.5
678.576	5075.89
678.767	5098.42
678.957	5000.12
679.148	5186.48
679.338	5000.12
679.529	5120.95
679.719	5116.85
679.909	4981.68
680.1	5016.5
680.29	4918.2
680.481	5041.08
680.671	4989.88
680.861	4930.48
681.052	4916.15
681.242	4910.01
681.432	4930.48
681.622	4705.21
681.813	4791.22
682.003	4877.24
682.193	4836.28
682.383	4733.88
682.573	4918.2
682.764	4729.78
682.954	4787.13
683.144	4881.33
683.334	4821.94
683.524	4699.06
683.714	4807.61
683.904	4680.63
684.094	4805.56
684.284	4760.5
684.474	4797.37
684.664	4735.93
684.854	4713.4
685.044	4633.53
685.234	4547.51
685.424	4651.96
685.614	4606.91
685.804	4621.24
685.994	4684.73
686.184	4627.39
686.374	4600.76
686.564	4547.51
686.753	4502.46
686.943	4551.61
687.133	4635.58
687.323	4637.63
687.513	4445.12
687.702	4465.6
687.892	4578.23
688.082	4348.86
688.272	4596.67
688.461	4484.03
688.651	4361.15
688.841	4361.15
689.03	4377.53
689.22	4408.25
689.41	4350.91
689.599	4295.61
689.789	4285.37
689.979	4287.42
690.168	4254.66
690.358	4373.44
690.547	4211.65
690.737	4197.31
690.926	4041.67
691.116	4039.62
691.305	4056
691.495	4064.19
691.684	4170.69
691.874	4082.63
692.063	4021.19
692.252	3998.66
692.442	4078.53
692.631	3969.99
692.82	3982.28
693.01	3933.12
693.199	3924.93
693.388	3871.68
693.578	4008.9
693.767	3773.38
693.956	3922.88
694.146	3724.23
694.335	3810.25
694.524	3826.63
694.713	3660.74
694.902	3826.63
695.092	3828.68
695.281	3670.98
695.47	3609.54
695.659	3689.42
695.848	3646.41
696.037	3642.31
696.226	3691.46
696.415	3695.56
696.604	3484.62
696.793	3638.22
696.982	3478.47
697.171	3627.98
697.36	3519.43
697.549	3544.01
697.738	3419.08
697.927	3464.14
698.116	3417.04
698.305	3445.71
698.494	3523.53
698.683	3460.04
698.872	3429.32
699.061	3345.36
699.25	3328.97
699.438	3384.27
699.627	3367.88
699.816	3419.08
700.005	3169.23
700.193	3419.08
700.382	3369.93
700.571	3208.14
700.76	3269.58
700.948	3265.49
701.137	3251.15
701.326	3228.62
701.514	3146.7
701.703	3099.6
701.892	3202
702.08	3234.77
702.269	3171.28
702.457	3066.83
702.646	3273.68
702.834	3128.27
703.023	3077.07
703.212	3165.14
703.4	3056.59
703.589	3013.59
703.777	3126.22
703.965	2993.11
704.154	3089.36
704.342	2943.96
704.531	3105.74
704.719	3025.87
704.907	3113.94
705.096	3003.35
705.284	3070.93
705.472	3032.02
705.661	2997.2
705.849	3025.87
706.037	2925.52
706.226	2954.19
706.414	2960.34
706.602	2909.14
706.79	3003.35
706.979	2986.96
707.167	2874.32
707.355	2870.23
707.543	2917.33
707.731	3015.63
707.919	2941.91
708.107	2823.12
708.296	2855.89
708.484	2829.27
708.672	2845.65
708.86	2730.97
709.048	2864.08
709.236	2894.8
709.424	2962.39
709.612	2819.03
709.8	2888.66
709.988	2814.93
710.176	2769.88
710.364	2841.56
710.551	2753.49
710.739	2720.73
710.927	2823.12
711.115	2741.21
711.303	2776.02
711.491	2767.83
711.679	2753.49
711.866	2728.92
712.054	2755.54
712.242	2577.37
712.43	2812.89
712.617	2778.07
712.805	2733.01
712.993	2816.98
713.181	2683.86
713.368	2716.63
713.556	2694.1
713.744	2665.43
713.931	2702.29
714.119	2728.92
714.306	2669.53
714.494	2675.67
714.682	2730.97
714.869	2733.01
715.057	2767.83
715.244	2536.41
715.432	2730.97
715.619	2647
715.807	2747.35
715.994	2667.48
716.182	2675.67
716.369	2647
716.556	2696.15
716.744	2587.61
716.931	2671.58
717.119	2655.19
717.306	2702.29
717.493	2644.95
717.681	2575.32
717.868	2571.22
718.055	2671.58
718.242	2517.98
718.43	2696.15
718.617	2614.23
718.804	2634.71
718.991	2542.55
719.179	2653.14
719.366	2673.62
719.553	2552.79
719.74	2708.44
719.927	2517.98
720.114	2593.75
720.301	2517.98
720.488	2589.66
720.676	2560.98
720.863	2634.71
721.05	2669.53
721.237	2603.99
721.424	2603.99
721.611	2548.7
721.798	2583.51
721.985	2556.89
722.172	2491.35
722.358	2554.84
722.545	2497.5
722.732	2630.62
722.919	2620.38
723.106	2536.41
723.293	2522.07
723.48	2618.33
723.667	2530.27
723.853	2520.03
724.04	2472.92
724.227	2472.92
724.414	2589.66
724.6	2587.61
724.787	2376.67
724.974	2528.22
725.161	2552.79
725.347	2534.36
725.534	2499.55
725.72	2524.12
725.907	2560.98
726.094	2655.19
726.28	2511.83
726.467	2501.59
726.653	2421.72
726.84	2456.54
727.027	2579.42
727.213	2511.83
727.4	2509.79
727.586	2524.12
727.773	2522.07
727.959	2450.39
728.145	2448.35
728.332	2540.51
728.518	2546.65
728.705	2560.98
728.891	2618.33
729.077	2434.01
729.264	2507.74
729.45	2515.93
729.636	2335.71
729.823	2427.87
730.009	2524.12
730.195	2581.46
730.382	2501.59
730.568	2429.91
730.754	2440.15
730.94	2436.06
731.126	2515.93
731.313	2540.51
731.499	2468.83
731.685	2327.52
731.871	2425.82
732.057	2446.3
732.243	2603.99
732.429	2462.68
732.615	2425.82
732.801	2411.48
732.987	2472.92
733.173	2503.64
733.359	2417.63
733.545	2388.96
733.731	2444.25
733.917	2409.44
734.103	2503.64
734.289	2425.82
734.475	2391
734.661	2448.35
734.847	2464.73
735.033	2497.5
735.219	2337.76
735.404	2477.02
735.59	2366.43
735.776	2378.72
735.962	2429.91
736.148	2450.39
736.333	2307.04
736.519	2481.11
736.705	2409.44
736.89	2368.48
737.076	2415.58
737.262	2270.17
737.447	2343.9
737.633	2304.99
737.819	2317.28
738.004	2243.55
738.19	2362.33
738.375	2325.47
738.561	2247.65
738.747	2325.47
738.932	2192.35
739.118	2335.71
739.303	2382.81
739.489	2204.64
739.674	2274.27
739.859	2302.94
740.045	2294.75
740.23	2227.17
740.416	2292.7
740.601	2223.07
740.786	2171.87
740.972	2147.3
741.157	2175.97
741.342	2304.99
741.528	2259.93
741.713	2173.92
741.898	2067.42
742.084	2190.3
742.269	2194.4
742.454	2270.17
742.639	2225.12
742.824	2264.03
743.01	2175.97
743.195	2135.01
743.38	2167.77
743.565	2028.51
743.75	2071.52
743.935	2048.99
744.12	2116.58
744.305	2096.1
744.49	2114.53
744.675	2046.94
744.86	2055.14
745.045	2032.61
745.23	1995.75
745.415	2036.7
745.6	2034.66
745.785	2063.33
745.97	1887.2
746.155	1997.79
746.34	1942.5
746.525	1971.17
746.71	2018.27
746.895	1915.87
747.079	1950.69
747.264	1895.4
747.449	1842.15
747.634	1946.59
747.819	1924.07
748.003	1844.2
748.188	1977.31
748.373	1930.21
748.557	1864.68
748.742	1805.28
748.927	1838.05
749.111	1844.2
749.296	1745.89
749.481	1829.86
749.665	1766.37
749.85	1801.19
750.034	1774.56
750.219	1741.8
750.404	1700.84
750.588	1698.79
750.773	1715.17
750.957	1690.6
751.141	1686.5
751.326	1725.41
751.51	1596.39
751.695	1676.26
751.879	1670.12
752.064	1631.21
752.248	1647.59
752.432	1559.53
752.617	1584.1
752.801	1582.06
752.985	1543.14
753.17	1580.01
753.354	1565.67
753.538	1557.48
753.722	1473.51
753.907	1528.81
754.091	1539.05
754.275	1512.42
754.459	1489.9
754.643	1549.29
754.828	1410.03
755.012	1420.27
755.196	1524.71
755.38	1485.8
755.564	1414.12
755.748	1336.3
755.932	1450.99
756.116	1448.94
756.3	1393.64
756.484	1426.41
756.668	1348.59
756.852	1389.55
757.036	1356.78
757.22	1303.53
757.404	1321.96
757.588	1364.97
757.772	1373.16
757.956	1295.34
758.14	1317.87
758.323	1272.81
758.507	1278.96
758.691	1332.2
758.875	1262.57
759.059	1268.72
759.242	1299.44
759.426	1211.37
759.61	1233.9
759.794	1170.41
759.977	1315.82
760.161	1145.84
760.345	1205.23
760.528	1240.05
760.712	1192.94
760.895	1141.74
761.079	1160.17
761.263	1135.6
761.446	1127.41
761.63	1164.27
761.813	1119.21
761.997	1137.65
762.18	1143.79
762.364	1127.41
762.547	1102.83
762.731	1139.69
762.914	1096.69
763.098	1063.92
763.281	1037.3
763.464	1147.89
763.648	1129.45
763.831	1168.37
764.015	1008.62
764.198	1115.12
764.381	1029.1
764.564	1194.99
764.748	986.1
764.931	1047.54
765.114	1123.31
765.297	1006.58
765.481	1094.64
765.664	1108.98
765.847	1020.91
766.03	1051.63
766.213	1092.59
766.397	1029.1
766.58	1061.87
766.763	1084.4
766.946	1010.67
767.129	1002.48
767.312	977.91
767.495	1086.45
767.678	996.34
767.861	971.76
768.044	1041.39
768.227	918.51
768.41	936.95
768.593	918.51
768.776	975.86
768.959	982
769.142	932.85
769.324	953.33
769.507	967.67
769.69	1006.58
769.873	951.28
770.056	1029.1
770.239	994.29
770.421	961.52
770.604	816.12
770.787	840.69
770.97	908.27
771.152	873.46
771.335	893.94
771.518	912.37
771.7	902.13
771.883	861.17
772.066	934.9
772.248	891.89
772.431	848.88
772.613	793.59
772.796	846.84
772.978	941.04
773.161	922.61
773.343	941.04
773.526	957.43
773.708	807.92
773.891	848.88
774.073	865.27
774.256	812.02
774.438	844.79
774.621	873.46
774.803	764.92
774.985	680.95
775.168	762.87
775.35	828.4
775.532	805.88
775.715	754.68
775.897	744.44
776.079	734.2
776.261	713.72
776.444	773.11
776.626	775.16
776.808	734.2
776.99	734.2
777.173	732.15
777.355	746.48
777.537	662.52
777.719	715.77
777.901	617.46
778.083	646.13
778.265	732.15
778.447	726
778.629	685.05
778.811	711.67
778.993	664.57
779.175	678.9
779.357	693.24
779.539	631.8
779.721	678.9
779.903	617.46
780.085	580.6
780.267	672.76
780.449	744.44
780.631	695.29
780.812	668.66
780.994	672.76
781.176	596.98
781.358	596.98
781.54	592.89
781.721	658.42
781.903	623.61
782.085	586.74
782.267	543.74
782.448	562.17
782.63	584.7
782.812	613.37
782.993	547.83
783.175	596.98
783.357	564.22
783.538	623.61
783.72	496.63
783.901	572.41
784.083	553.98
784.264	527.35
784.446	525.3
784.627	504.82
784.809	527.35
784.99	521.21
785.172	545.78
785.353	531.45
785.535	416.76
785.716	529.4
785.897	459.77
786.079	416.76
786.26	484.34
786.441	484.34
786.623	519.16
786.804	506.87
786.985	498.68
787.167	488.44
787.348	445.43
787.529	506.87
787.71	521.21
787.891	424.95
788.073	427
788.254	488.44
788.435	433.15
788.616	416.76
788.797	386.04
788.978	406.52
789.159	435.19
789.34	343.03
789.522	427
789.703	379.9
789.884	400.38
790.065	404.47
790.246	424.95
790.427	324.6
790.607	420.86
790.788	455.67
790.969	396.28
791.15	359.42
791.331	420.86
791.512	336.89
791.693	353.27
791.874	291.84
792.054	386.04
792.235	371.71
792.416	291.84
792.597	427
792.778	355.32
792.958	343.03
793.139	367.61
793.32	427
793.5	306.17
793.681	308.22
793.862	349.18
794.042	361.47
794.223	398.33
794.404	408.57
794.584	343.03
794.765	361.47
794.945	324.6
795.126	361.47
795.306	336.89
795.487	310.27
795.667	328.7
795.848	349.18
796.028	300.03
796.209	306.17
796.389	367.61
796.57	334.84
796.75	340.99
796.93	259.07
797.111	365.56
797.291	277.5
797.471	340.99
797.652	275.45
797.832	289.79
798.012	297.98
798.192	308.22
798.373	369.66
798.553	285.69
798.733	306.17
798.913	232.44
799.093	322.56
799.274	304.12
799.454	310.27
799.634	291.84
799.814	244.73
799.994	320.51
800.174	336.89
800.354	277.5
800.534	312.32
800.714	248.83
800.894	300.03
801.074	246.78
801.254	273.4
801.434	250.88
801.614	265.21
801.794	273.4
801.974	639.99
802.154	254.97
802.334	279.55
802.514	189.44
802.693	322.56
802.873	214.01
803.053	330.75
803.233	222.2
803.413	240.64
803.592	189.44
803.772	191.49
803.952	246.78
804.131	244.73
804.311	214.01
804.491	265.21
804.67	216.06
804.85	142.33
805.03	230.4
805.209	230.4
805.389	185.34
805.568	216.06
805.748	242.68
805.928	183.29
806.107	246.78
806.287	226.3
806.466	158.72
806.646	175.1
806.825	199.68
807.004	152.57
807.184	173.05
807.363	242.68
807.543	128
807.722	289.79
807.901	275.45
808.081	191.49
808.26	228.35
808.439	181.25
808.619	199.68
808.798	242.68
808.977	193.53
809.156	197.63
809.336	248.83
809.515	136.19
809.694	226.3
809.873	265.21
810.052	121.85
810.231	242.68
810.411	189.44
810.59	166.91
810.769	214.01
810.948	222.2
811.127	177.15
811.306	234.49
811.485	187.39
811.664	216.06
811.843	209.92
812.022	166.91
812.201	191.49
812.38	113.66
812.559	160.77
812.737	248.83
812.916	150.53
813.095	203.77
813.274	138.24
813.453	181.25
813.632	119.81
813.811	224.25
813.989	82.94
814.168	199.68
814.347	189.44
814.526	132.09
814.704	115.71
814.883	181.25
815.062	138.24
815.24	156.67
815.419	97.28
815.598	171.01
815.776	105.47
815.955	148.48
816.133	144.38
816.312	138.24
816.49	109.57
816.669	103.42
816.847	99.33
817.026	183.29
817.204	115.71
817.383	146.43
817.561	187.39
817.74	136.19
817.918	78.85
818.097	179.2
818.275	164.86
818.453	154.62
818.632	115.71
818.81	171.01
818.988	95.23
819.167	130.05
819.345	154.62
819.523	134.14
819.701	203.77
819.879	193.53
820.058	144.38
820.236	195.58
820.414	80.89
820.592	109.57
820.77	99.33
820.948	111.61
821.127	148.48
821.305	119.81
821.483	91.13
821.661	144.38
821.839	125.95
822.017	136.19
822.195	-3.07
822.373	74.75
822.551	44.03
822.729	109.57
822.907	138.24
823.085	154.62
823.262	128
823.44	171.01
823.618	179.2
823.796	62.46
823.974	99.33
824.152	105.47
824.329	113.66
824.507	97.28
824.685	37.89
824.863	87.04
825.04	58.37
825.218	173.05
825.396	130.05
825.574	173.05
825.751	72.7
825.929	105.47
826.107	146.43
826.284	87.04
826.462	62.46
826.639	105.47
826.817	62.46
826.994	113.66
827.172	70.65
827.349	191.49
827.527	158.72
827.704	54.27
827.882	89.09
828.059	101.37
828.237	119.81
828.414	105.47
828.591	84.99
828.769	119.81
828.946	115.71
829.124	179.2
829.301	101.37
829.478	78.85
829.655	93.18
829.833	93.18
830.01	62.46
830.187	107.52
830.364	56.32
830.542	93.18
830.719	107.52
830.896	179.2
831.073	9.22
831.25	72.7
831.427	50.18
831.604	50.18
831.782	117.76
831.959	35.84
832.136	82.94
832.313	138.24
832.49	44.03
832.667	103.42
832.844	97.28
833.021	37.89
833.198	44.03
833.374	66.56
833.551	99.33
833.728	87.04
833.905	72.7
834.082	107.52
834.259	31.74
834.436	103.42
834.612	115.71
834.789	91.13
834.966	93.18
835.143	74.75
835.319	56.32
835.496	97.28
835.673	35.84
835.85	72.7
836.026	91.13
836.203	62.46
836.38	91.13
836.556	168.96
836.733	31.74
836.909	80.89
837.086	80.89
837.262	7.17
837.439	78.85
837.616	91.13
837.792	166.91
837.968	21.5
838.145	17.41
838.321	82.94
838.498	62.46
838.674	56.32
838.851	56.32
839.027	66.56
839.203	84.99
839.38	-3.07
839.556	33.79
839.732	125.95
839.909	66.56
840.085	84.99
840.261	95.23
840.437	64.51
840.614	62.46
840.79	60.42
840.966	-1.02
841.142	35.84
841.318	33.79
841.494	132.09
841.671	17.41
841.847	119.81
842.023	35.84
842.199	103.42
842.375	25.6
842.551	58.37
842.727	-9.22
842.903	97.28
843.079	35.84
843.255	35.84
843.431	82.94
843.607	64.51
843.783	5.12
843.959	25.6
844.134	50.18
844.31	78.85
844.486	46.08
844.662	128
844.838	7.17
845.013	37.89
845.189	7.17
845.365	9.22
845.541	23.55
845.716	82.94
845.892	46.08
846.068	44.03
846.244	-1.02
846.419	44.03
846.595	60.42
846.77	74.75
846.946	103.42
847.122	52.22
847.297	48.13
847.473	99.33
847.648	5.12
847.824	27.65
847.999	109.57
848.175	-15.36
848.35	15.36
848.526	44.03
848.701	-60.42
848.876	33.79
849.052	72.7
849.227	-9.22
849.403	97.28
849.578	54.27
849.753	29.7
849.929	91.13
850.104	9.22
850.279	66.56
850.454	1.02
850.63	68.61
850.805	66.56
850.98	72.7
851.155	35.84
851.33	41.98
851.505	-7.17
851.681	25.6
851.856	74.75
852.031	70.65
852.206	50.18
852.381	11.26
852.556	74.75
852.731	93.18
852.906	-15.36
853.081	95.23
853.256	64.51
853.431	56.32
853.606	97.28
853.781	111.61
853.956	-25.6
854.131	7.17
854.305	9.22
854.48	76.8
854.655	-7.17
854.83	9.22
855.005	31.74
855.18	9.22
855.354	64.51
855.529	74.75
855.704	78.85
855.879	91.13
856.053	9.22
856.228	35.84
856.403	37.89
856.577	64.51
856.752	-11.26
856.926	1.02
857.101	-1.02
857.276	101.37
857.45	60.42
857.625	50.18
857.799	46.08
857.974	91.13
858.148	33.79
858.323	7.17
858.497	41.98
858.672	5.12
858.846	50.18
859.02	13.31
859.195	33.79
859.369	23.55
859.543	87.04
859.718	56.32
859.892	-37.89
860.066	35.84
860.241	37.89
860.415	99.33
860.589	-56.32
860.763	70.65
860.938	-44.03
861.112	-39.94
861.286	25.6
861.46	78.85
861.634	37.89
861.808	60.42
861.982	-7.17
862.157	-23.55
862.331	13.31
862.505	39.94
862.679	37.89
862.853	78.85
863.027	41.98
863.201	15.36
863.375	33.79
863.549	44.03
863.722	25.6
863.896	27.65
864.07	7.17
864.244	66.56
864.418	-29.7
864.592	19.46
864.766	48.13
864.939	17.41
865.113	5.12
865.287	93.18
865.461	-54.27
865.634	27.65
865.808	56.32
865.982	13.31
866.156	23.55
866.329	35.84
866.503	25.6
866.676	58.37
866.85	-21.5
867.024	-13.31
867.197	60.42
867.371	39.94
867.544	17.41
867.718	-27.65
867.891	-39.94
868.065	-33.79
868.238	-13.31
868.412	11.26
868.585	-1.02
868.759	-41.98
868.932	23.55
869.105	58.37
869.279	-50.18
869.452	60.42
869.625	-13.31
869.799	1.02
869.972	-13.31
870.145	33.79
870.319	-9.22
870.492	39.94
870.665	9.22
870.838	29.7
871.011	-21.5
871.185	1.02
871.358	3.07
871.531	-15.36
871.704	64.51
871.877	68.61
872.05	-17.41
872.223	-21.5
872.396	37.89
872.569	-31.74
872.742	-27.65
872.915	44.03
873.088	48.13
873.261	56.32
873.434	41.98
873.607	-62.46
873.78	5.12
873.953	-39.94
874.126	-5.12
874.299	39.94
874.471	-15.36
874.644	-39.94
874.817	-15.36
874.99	39.94
875.163	-25.6
875.335	58.37
875.508	72.7
875.681	82.94
875.853	-9.22
876.026	78.85
876.199	1.02
876.371	-11.26
876.544	-44.03
876.717	15.36
876.889	105.47
877.062	-29.7
877.234	46.08
877.407	23.55
877.579	50.18
877.752	41.98
877.924	74.75
878.097	29.7
878.269	25.6
878.442	7.17
878.614	66.56
878.786	27.65
878.959	60.42
879.131	17.41
879.303	1.02
879.476	31.74
879.648	64.51
879.82	41.98
879.993	29.7
880.165	72.7
880.337	-7.17
880.509	41.98
880.681	9.22
880.854	7.17
881.026	62.46
881.198	-13.31
881.37	19.46
881.542	9.22
881.714	82.94
881.886	58.37
882.058	-46.08
882.23	-52.22
882.402	-44.03
882.574	1.02
882.746	39.94
882.918	101.37
883.09	5.12
883.262	-17.41
883.434	58.37
883.606	21.5
883.778	-33.79
883.95	70.65
884.122	39.94
884.293	119.81
884.465	-5.12
884.637	3.07
884.809	-11.26
884.98	46.08
885.152	58.37
885.324	76.8
885.496	-7.17
885.667	37.89
885.839	33.79
886.011	74.75
886.182	-33.79
886.354	56.32
886.525	-23.55
886.697	-72.7
886.869	82.94
887.04	33.79
887.212	41.98
887.383	54.27
887.555	-13.31
887.726	-1.02
887.897	23.55
888.069	66.56
888.24	64.51
888.412	-35.84
888.583	13.31
888.754	17.41
888.926	1.02
889.097	15.36
889.268	-23.55
889.44	87.04
889.611	15.36
889.782	5.12
889.953	35.84
890.125	15.36
890.296	-58.37
890.467	54.27
890.638	-3.07
890.809	-19.46
890.98	-7.17
891.151	7.17
891.323	93.18
891.494	7.17
891.665	-13.31
891.836	41.98
892.007	1.02
892.178	58.37
892.349	84.99
892.52	5.12
892.691	-52.22
892.862	-109.57
893.032	-72.7
893.203	25.6
893.374	-33.79
893.545	56.32
893.716	-21.5
893.887	25.6
894.057	-50.18
894.228	17.41
894.399	-56.32
894.57	25.6
894.74	-19.46
894.911	76.8
895.082	70.65
895.253	56.32
895.423	11.26
895.594	23.55
895.764	-21.5
895.935	-23.55
896.106	25.6
896.276	-15.36
896.447	52.22
896.617	44.03
896.788	-23.55
896.958	25.6
897.129	37.89
897.299	-27.65
897.47	23.55
897.64	-33.79
897.81	9.22
897.981	9.22
898.151	13.31
898.322	121.85
898.492	7.17
898.662	-19.46
898.832	5.12
899.003	17.41
899.173	7.17
899.343	-3.07
899.513	44.03
