Data from USB4F104151__89__11-37-52-737.txt Node

Date: Fri Mar 14 11:37:52 EDT 2025
User: louis
Spectrometer: USB4F10415
Trigger mode: 4
Integration Time (sec): 2.000000E-2
Scans to average: 1
Electric dark correction enabled: true
Nonlinearity correction enabled: false
Boxcar width: 0
XAxis mode: Wavelengths
Number of Pixels in Spectrum: 3648
>>>>>Begin Spectral Data<<<<<
178.204	-30.38
178.424	-30.38
178.644	-30.38
178.864	-67.24
179.084	24.92
179.304	8.53
179.524	31.06
179.744	-63.15
179.964	12.63
180.184	2.39
180.404	29.01
180.624	24.92
180.844	33.11
181.064	-50.86
181.283	-1.71
181.503	-50.86
181.723	24.92
181.943	-18.09
182.163	78.16
182.383	59.73
182.602	43.35
182.822	72.02
183.042	14.68
183.262	33.11
183.482	49.49
183.701	61.78
183.921	61.78
184.141	-3.75
184.361	33.11
184.58	-5.8
184.8	80.21
185.02	18.77
185.239	37.2
185.459	145.75
185.679	92.5
185.898	33.11
186.118	74.07
186.338	10.58
186.557	55.64
186.777	24.92
186.997	47.44
187.216	18.77
187.436	57.68
187.655	-9.9
187.875	49.49
188.095	53.59
188.314	74.07
188.534	158.03
188.753	-5.8
188.973	2.39
189.192	37.2
189.412	8.53
189.631	78.16
189.851	65.88
190.07	90.45
190.29	59.73
190.509	104.79
190.729	-7.85
190.948	26.96
191.168	196.95
191.387	35.16
191.607	51.54
191.826	80.21
192.045	80.21
192.265	-18.09
192.484	26.96
192.704	12.63
192.923	-46.76
193.142	112.98
193.362	53.59
193.581	63.83
193.8	108.88
194.02	55.64
194.239	45.4
194.458	88.4
194.678	43.35
194.897	98.64
195.116	47.44
195.335	39.25
195.555	-9.9
195.774	16.73
195.993	53.59
196.212	72.02
196.432	-7.85
196.651	84.31
196.87	92.5
197.089	4.44
197.308	2.39
197.528	33.11
197.747	-7.85
197.966	112.98
198.185	47.44
198.404	-9.9
198.623	4.44
198.842	2.39
199.062	78.16
199.281	88.4
199.5	39.25
199.719	-22.19
199.938	47.44
200.157	106.84
200.376	74.07
200.595	-24.23
200.814	45.4
201.033	59.73
201.252	26.96
201.471	-46.76
201.69	102.74
201.909	49.49
202.128	20.82
202.347	149.84
202.566	31.06
202.785	-16.04
203.004	-9.9
203.223	127.32
203.442	45.4
203.661	29.01
203.879	63.83
204.098	53.59
204.317	-7.85
204.536	104.79
204.755	51.54
204.974	39.25
205.193	65.88
205.411	55.64
205.63	31.06
205.849	82.26
206.068	80.21
206.287	20.82
206.505	82.26
206.724	43.35
206.943	26.96
207.162	47.44
207.381	90.45
207.599	31.06
207.818	67.92
208.037	39.25
208.255	20.82
208.474	55.64
208.693	104.79
208.911	96.6
209.13	92.5
209.349	12.63
209.567	59.73
209.786	37.2
210.005	53.59
210.223	51.54
210.442	18.77
210.661	22.87
210.879	47.44
211.098	67.92
211.316	24.92
211.535	16.73
211.753	98.64
211.972	51.54
212.191	10.58
212.409	33.11
212.628	49.49
212.846	4.44
213.065	86.36
213.283	67.92
213.502	-52.91
213.72	31.06
213.938	39.25
214.157	74.07
214.375	4.44
214.594	37.2
214.812	80.21
215.031	76.12
215.249	8.53
215.467	82.26
215.686	131.41
215.904	92.5
216.122	59.73
216.341	55.64
216.559	65.88
216.778	24.92
216.996	59.73
217.214	59.73
217.432	22.87
217.651	41.3
217.869	59.73
218.087	67.92
218.306	45.4
218.524	108.88
218.742	29.01
218.96	43.35
219.179	35.16
219.397	69.97
219.615	65.88
219.833	51.54
220.051	88.4
220.27	108.88
220.488	88.4
220.706	51.54
220.924	47.44
221.142	-34.47
221.36	-46.76
221.578	4.44
221.796	-1.71
222.015	108.88
222.233	76.12
222.451	78.16
222.669	10.58
222.887	121.17
223.105	84.31
223.323	14.68
223.541	22.87
223.759	33.11
223.977	55.64
224.195	78.16
224.413	43.35
224.631	125.27
224.849	31.06
225.067	65.88
225.285	67.92
225.503	63.83
225.721	4.44
225.939	18.77
226.157	39.25
226.375	123.22
226.592	39.25
226.81	-28.33
227.028	59.73
227.246	55.64
227.464	-69.29
227.682	-5.8
227.9	24.92
228.117	41.3
228.335	61.78
228.553	-1.71
228.771	88.4
228.989	92.5
229.206	4.44
229.424	18.77
229.642	72.02
229.86	141.65
230.077	45.4
230.295	63.83
230.513	8.53
230.731	14.68
230.948	106.84
231.166	45.4
231.384	8.53
231.601	43.35
231.819	12.63
232.037	59.73
232.254	-36.52
232.472	104.79
232.689	22.87
232.907	86.36
233.125	98.64
233.342	55.64
233.56	22.87
233.777	69.97
233.995	69.97
234.213	72.02
234.43	72.02
234.648	53.59
234.865	-18.09
235.083	80.21
235.3	8.53
235.518	39.25
235.735	96.6
235.953	16.73
236.17	74.07
236.388	35.16
236.605	57.68
236.822	100.69
237.04	53.59
237.257	29.01
237.475	39.25
237.692	76.12
237.909	-69.29
238.127	-40.62
238.344	131.41
238.562	80.21
238.779	6.49
238.996	-36.52
239.214	94.55
239.431	121.17
239.648	10.58
239.865	51.54
240.083	33.11
240.3	57.68
240.517	8.53
240.735	53.59
240.952	125.27
241.169	24.92
241.386	43.35
241.603	72.02
241.821	-13.99
242.038	35.16
242.255	29.01
242.472	39.25
242.689	84.31
242.907	24.92
243.124	26.96
243.341	-7.85
243.558	39.25
243.775	78.16
243.992	76.12
244.209	-40.62
244.426	119.12
244.643	53.59
244.86	43.35
245.078	14.68
245.295	59.73
245.512	151.89
245.729	72.02
245.946	43.35
246.163	55.64
246.38	35.16
246.597	65.88
246.814	33.11
247.031	43.35
247.248	57.68
247.464	92.5
247.681	92.5
247.898	39.25
248.115	49.49
248.332	61.78
248.549	51.54
248.766	88.4
248.983	31.06
249.2	-5.8
249.417	35.16
249.633	110.93
249.85	67.92
250.067	104.79
250.284	-3.75
250.501	14.68
250.717	47.44
250.934	37.2
251.151	51.54
251.368	53.59
251.585	33.11
251.801	80.21
252.018	31.06
252.235	22.87
252.451	26.96
252.668	39.25
252.885	69.97
253.102	31.06
253.318	31.06
253.535	35.16
253.752	43.35
253.968	-5.8
254.185	43.35
254.401	43.35
254.618	72.02
254.835	67.92
255.051	29.01
255.268	22.87
255.484	108.88
255.701	51.54
255.917	-5.8
256.134	117.08
256.351	39.25
256.567	-24.23
256.784	-20.14
257	6.49
257.217	96.6
257.433	37.2
257.65	137.56
257.866	43.35
258.082	33.11
258.299	65.88
258.515	61.78
258.732	137.56
258.948	-11.95
259.165	51.54
259.381	90.45
259.597	63.83
259.814	-16.04
260.03	18.77
260.246	76.12
260.463	55.64
260.679	110.93
260.895	39.25
261.112	69.97
261.328	63.83
261.544	63.83
261.761	47.44
261.977	41.3
262.193	49.49
262.409	76.12
262.626	108.88
262.842	86.36
263.058	16.73
263.274	53.59
263.49	29.01
263.707	39.25
263.923	51.54
264.139	78.16
264.355	29.01
264.571	51.54
264.787	-34.47
265.004	12.63
265.22	-1.71
265.436	82.26
265.652	39.25
265.868	47.44
266.084	43.35
266.3	49.49
266.516	22.87
266.732	82.26
266.948	76.12
267.164	74.07
267.38	20.82
267.596	104.79
267.812	35.16
268.028	112.98
268.244	51.54
268.46	86.36
268.676	8.53
268.892	104.79
269.108	51.54
269.324	43.35
269.54	72.02
269.756	78.16
269.972	-20.14
270.188	45.4
270.403	-54.95
270.619	14.68
270.835	51.54
271.051	43.35
271.267	20.82
271.483	127.32
271.698	127.32
271.914	-44.71
272.13	16.73
272.346	12.63
272.562	35.16
272.777	16.73
272.993	-40.62
273.209	26.96
273.425	29.01
273.64	65.88
273.856	137.56
274.072	35.16
274.287	-16.04
274.503	31.06
274.719	117.08
274.934	16.73
275.15	57.68
275.366	98.64
275.581	18.77
275.797	16.73
276.012	49.49
276.228	67.92
276.444	59.73
276.659	39.25
276.875	88.4
277.09	94.55
277.306	72.02
277.521	143.7
277.737	41.3
277.952	143.7
278.168	-16.04
278.383	45.4
278.599	41.3
278.814	112.98
279.03	29.01
279.245	45.4
279.461	59.73
279.676	65.88
279.892	39.25
280.107	22.87
280.322	20.82
280.538	84.31
280.753	92.5
280.969	102.74
281.184	78.16
281.399	61.78
281.615	14.68
281.83	0.34
282.045	-24.23
282.26	65.88
282.476	65.88
282.691	59.73
282.906	61.78
283.122	-5.8
283.337	-44.71
283.552	67.92
283.767	-38.57
283.983	41.3
284.198	-38.57
284.413	14.68
284.628	49.49
284.843	63.83
285.058	123.22
285.274	63.83
285.489	22.87
285.704	37.2
285.919	37.2
286.134	-13.99
286.349	-5.8
286.564	49.49
286.779	112.98
286.995	18.77
287.21	47.44
287.425	76.12
287.64	0.34
287.855	92.5
288.07	35.16
288.285	31.06
288.5	59.73
288.715	76.12
288.93	14.68
289.145	92.5
289.36	12.63
289.575	129.36
289.79	137.56
290.004	-26.28
290.219	43.35
290.434	10.58
290.649	59.73
290.864	0.34
291.079	26.96
291.294	139.6
291.509	33.11
291.724	72.02
291.938	55.64
292.153	6.49
292.368	39.25
292.583	72.02
292.798	41.3
293.012	43.35
293.227	59.73
293.442	69.97
293.657	-11.95
293.871	61.78
294.086	59.73
294.301	47.44
294.516	59.73
294.73	12.63
294.945	14.68
295.16	43.35
295.374	90.45
295.589	121.17
295.804	31.06
296.018	115.03
296.233	96.6
296.447	123.22
296.662	6.49
296.877	41.3
297.091	8.53
297.306	-3.75
297.52	-22.19
297.735	6.49
297.949	88.4
298.164	82.26
298.378	41.3
298.593	4.44
298.807	8.53
299.022	115.03
299.236	16.73
299.451	57.68
299.665	72.02
299.88	31.06
300.094	35.16
300.309	141.65
300.523	14.68
300.737	76.12
300.952	61.78
301.166	59.73
301.381	33.11
301.595	47.44
301.809	61.78
302.024	76.12
302.238	39.25
302.452	104.79
302.667	-50.86
302.881	88.4
303.095	53.59
303.309	43.35
303.524	2.39
303.738	4.44
303.952	61.78
304.166	69.97
304.381	10.58
304.595	37.2
304.809	90.45
305.023	55.64
305.237	78.16
305.452	76.12
305.666	67.92
305.88	43.35
306.094	10.58
306.308	43.35
306.522	72.02
306.736	92.5
306.95	43.35
307.164	80.21
307.379	22.87
307.593	108.88
307.807	104.79
308.021	0.34
308.235	26.96
308.449	90.45
308.663	29.01
308.877	72.02
309.091	98.64
309.305	14.68
309.519	53.59
309.733	63.83
309.947	53.59
310.161	43.35
310.374	20.82
310.588	88.4
310.802	-9.9
311.016	82.26
311.23	104.79
311.444	63.83
311.658	41.3
311.872	110.93
312.085	84.31
312.299	119.12
312.513	47.44
312.727	69.97
312.941	26.96
313.154	76.12
313.368	24.92
313.582	129.36
313.796	20.82
314.009	115.03
314.223	74.07
314.437	43.35
314.651	158.03
314.864	61.78
315.078	6.49
315.292	29.01
315.505	112.98
315.719	47.44
315.933	39.25
316.146	86.36
316.36	76.12
316.573	61.78
316.787	69.97
317.001	45.4
317.214	14.68
317.428	170.32
317.641	16.73
317.855	135.51
318.068	57.68
318.282	100.69
318.495	35.16
318.709	80.21
318.922	39.25
319.136	92.5
319.349	96.6
319.563	55.64
319.776	20.82
319.99	92.5
320.203	-1.71
320.417	102.74
320.63	59.73
320.843	102.74
321.057	51.54
321.27	82.26
321.483	125.27
321.697	65.88
321.91	14.68
322.124	151.89
322.337	86.36
322.55	80.21
322.763	18.77
322.977	12.63
323.19	67.92
323.403	72.02
323.617	37.2
323.83	33.11
324.043	59.73
324.256	80.21
324.469	39.25
324.683	63.83
324.896	137.56
325.109	29.01
325.322	-20.14
325.535	84.31
325.748	51.54
325.962	-5.8
326.175	92.5
326.388	6.49
326.601	51.54
326.814	112.98
327.027	6.49
327.24	110.93
327.453	51.54
327.666	78.16
327.879	2.39
328.092	53.59
328.305	65.88
328.518	26.96
328.731	20.82
328.944	72.02
329.157	-1.71
329.37	80.21
329.583	117.08
329.796	137.56
330.009	8.53
330.222	76.12
330.435	63.83
330.648	43.35
330.861	139.6
331.073	35.16
331.286	86.36
331.499	35.16
331.712	37.2
331.925	-5.8
332.138	0.34
332.35	98.64
332.563	96.6
332.776	41.3
332.989	43.35
333.202	57.68
333.414	82.26
333.627	10.58
333.84	135.51
334.053	67.92
334.265	45.4
334.478	43.35
334.691	90.45
334.903	72.02
335.116	22.87
335.329	61.78
335.541	82.26
335.754	80.21
335.966	67.92
336.179	63.83
336.392	63.83
336.604	108.88
336.817	47.44
337.029	92.5
337.242	39.25
337.454	65.88
337.667	31.06
337.88	84.31
338.092	72.02
338.305	45.4
338.517	53.59
338.729	-7.85
338.942	72.02
339.154	59.73
339.367	43.35
339.579	125.27
339.792	82.26
340.004	47.44
340.217	67.92
340.429	39.25
340.641	20.82
340.854	33.11
341.066	69.97
341.278	51.54
341.491	63.83
341.703	55.64
341.915	57.68
342.128	84.31
342.34	100.69
342.552	4.44
342.764	22.87
342.977	131.41
343.189	72.02
343.401	119.12
343.613	43.35
343.826	131.41
344.038	29.01
344.25	90.45
344.462	55.64
344.674	108.88
344.886	47.44
345.099	102.74
345.311	35.16
345.523	88.4
345.735	-18.09
345.947	72.02
346.159	43.35
346.371	100.69
346.583	55.64
346.795	98.64
347.007	41.3
347.219	69.97
347.431	108.88
347.643	151.89
347.855	51.54
348.067	119.12
348.279	49.49
348.491	69.97
348.703	37.2
348.915	67.92
349.127	65.88
349.339	106.84
349.551	100.69
349.763	90.45
349.975	67.92
350.187	63.83
350.399	121.17
350.61	69.97
350.822	110.93
351.034	49.49
351.246	29.01
351.458	76.12
351.669	72.02
351.881	10.58
352.093	39.25
352.305	63.83
352.517	63.83
352.728	112.98
352.94	141.65
353.152	59.73
353.363	26.96
353.575	-3.75
353.787	47.44
353.999	86.36
354.21	51.54
354.422	49.49
354.633	76.12
354.845	78.16
355.057	104.79
355.268	94.55
355.48	102.74
355.692	51.54
355.903	-30.38
356.115	53.59
356.326	-61.1
356.538	106.84
356.749	61.78
356.961	63.83
357.172	55.64
357.384	96.6
357.595	125.27
357.807	133.46
358.018	63.83
358.23	72.02
358.441	53.59
358.653	49.49
358.864	35.16
359.075	117.08
359.287	61.78
359.498	88.4
359.709	86.36
359.921	119.12
360.132	135.51
360.344	67.92
360.555	78.16
360.766	49.49
360.977	94.55
361.189	110.93
361.4	108.88
361.611	153.94
361.823	63.83
362.034	125.27
362.245	-9.9
362.456	92.5
362.667	41.3
362.879	133.46
363.09	6.49
363.301	104.79
363.512	55.64
363.723	121.17
363.935	43.35
364.146	57.68
364.357	14.68
364.568	14.68
364.779	31.06
364.99	121.17
365.201	49.49
365.412	39.25
365.623	37.2
365.834	92.5
366.045	59.73
366.256	94.55
366.467	63.83
366.678	59.73
366.889	10.58
367.1	29.01
367.311	69.97
367.522	94.55
367.733	31.06
367.944	31.06
368.155	24.92
368.366	94.55
368.577	92.5
368.788	26.96
368.999	2.39
369.209	84.31
369.42	141.65
369.631	137.56
369.842	16.73
370.053	67.92
370.264	76.12
370.474	84.31
370.685	90.45
370.896	141.65
371.107	51.54
371.317	55.64
371.528	108.88
371.739	125.27
371.95	78.16
372.16	86.36
372.371	41.3
372.582	92.5
372.792	24.92
373.003	55.64
373.214	90.45
373.424	147.8
373.635	137.56
373.846	20.82
374.056	76.12
374.267	76.12
374.477	84.31
374.688	55.64
374.898	110.93
375.109	22.87
375.319	121.17
375.53	125.27
375.74	33.11
375.951	57.68
376.161	112.98
376.372	69.97
376.582	37.2
376.793	147.8
377.003	67.92
377.214	117.08
377.424	74.07
377.635	90.45
377.845	94.55
378.055	106.84
378.266	110.93
378.476	65.88
378.686	100.69
378.897	119.12
379.107	-13.99
379.317	168.27
379.528	108.88
379.738	106.84
379.948	55.64
380.158	65.88
380.369	-30.38
380.579	47.44
380.789	82.26
380.999	92.5
381.21	112.98
381.42	59.73
381.63	63.83
381.84	162.13
382.05	86.36
382.261	45.4
382.471	69.97
382.681	69.97
382.891	135.51
383.101	67.92
383.311	37.2
383.521	100.69
383.731	55.64
383.941	117.08
384.151	104.79
384.361	104.79
384.571	119.12
384.781	72.02
384.991	80.21
385.201	96.6
385.411	59.73
385.621	147.8
385.831	14.68
386.041	76.12
386.251	76.12
386.461	119.12
386.671	96.6
386.881	51.54
387.091	63.83
387.301	166.23
387.511	98.64
387.72	158.03
387.93	110.93
388.14	135.51
388.35	90.45
388.56	63.83
388.769	10.58
388.979	92.5
389.189	80.21
389.399	53.59
389.609	69.97
389.818	94.55
390.028	72.02
390.238	33.11
390.447	26.96
390.657	96.6
390.867	84.31
391.076	131.41
391.286	65.88
391.496	110.93
391.705	57.68
391.915	55.64
392.125	108.88
392.334	90.45
392.544	78.16
392.753	80.21
392.963	86.36
393.172	69.97
393.382	88.4
393.591	135.51
393.801	78.16
394.01	139.6
394.22	67.92
394.429	125.27
394.639	78.16
394.848	47.44
395.058	112.98
395.267	90.45
395.477	57.68
395.686	96.6
395.895	133.46
396.105	168.27
396.314	90.45
396.524	182.61
396.733	104.79
396.942	143.7
397.152	121.17
397.361	211.28
397.57	182.61
397.78	78.16
397.989	121.17
398.198	127.32
398.407	137.56
398.617	61.78
398.826	117.08
399.035	135.51
399.244	141.65
399.453	110.93
399.663	141.65
399.872	196.95
400.081	115.03
400.29	184.66
400.499	145.75
400.708	149.84
400.917	76.12
401.127	139.6
401.336	129.36
401.545	166.23
401.754	158.03
401.963	176.47
402.172	96.6
402.381	178.51
402.59	147.8
402.799	223.57
403.008	143.7
403.217	127.32
403.426	180.56
403.635	184.66
403.844	147.8
404.053	166.23
404.262	215.38
404.471	194.9
404.68	170.32
404.888	246.1
405.097	145.75
405.306	186.71
405.515	217.43
405.724	192.85
405.933	188.75
406.142	149.84
406.35	223.57
406.559	162.13
406.768	182.61
406.977	235.86
407.185	246.1
407.394	256.34
407.603	219.47
407.812	313.68
408.02	207.19
408.229	194.9
408.438	299.34
408.646	233.81
408.855	274.77
409.064	342.35
409.272	227.67
409.481	276.82
409.69	272.72
409.898	289.1
410.107	379.22
410.315	375.12
410.524	328.02
410.733	371.02
410.941	358.74
411.15	362.83
411.358	350.54
411.567	498
411.775	338.26
411.984	450.89
412.192	516.43
412.401	346.45
412.609	573.77
412.818	520.53
413.026	543.05
413.234	483.66
413.443	645.45
413.651	526.67
413.86	567.63
414.068	588.11
414.276	645.45
414.485	698.7
414.693	637.26
414.901	741.71
415.11	727.37
415.318	747.85
415.526	672.08
415.734	784.71
415.943	774.47
416.151	909.64
416.359	837.96
416.567	909.64
416.776	1003.85
416.984	954.69
417.192	971.08
417.4	921.93
417.608	1038.66
417.817	1098.05
418.025	1204.55
418.233	1204.55
418.441	1218.88
418.649	1220.93
418.857	1288.51
419.065	1345.86
419.273	1366.34
419.481	1378.62
419.689	1442.11
419.897	1505.6
420.105	1616.19
420.313	1546.56
420.521	1732.92
420.729	1614.14
420.937	1677.63
421.145	1730.87
421.353	1702.2
421.561	2023.73
421.769	1896.76
421.977	2124.08
422.185	2079.03
422.393	2298.16
422.601	2263.35
422.809	2373.94
423.017	2269.49
423.224	2521.39
423.432	2459.95
423.64	2564.4
423.848	2709.8
424.056	2752.81
424.263	2904.36
424.471	2904.36
424.679	2986.28
424.887	3105.06
425.094	3299.62
425.302	3105.06
425.51	3359.01
425.718	3576.09
425.925	3531.04
426.133	3492.13
426.341	3703.07
426.548	3928.35
426.756	3948.83
426.964	3938.59
427.171	4321.56
427.379	4495.63
427.586	4380.95
427.794	4614.41
428.001	4765.96
428.209	5024.01
428.417	4927.75
428.624	5294.34
428.832	5384.45
429.039	5296.39
429.247	5343.49
429.454	5818.62
429.662	6082.81
429.869	5697.79
430.076	6232.31
430.284	6037.75
430.491	6226.17
430.699	6613.23
430.906	6656.24
431.114	6674.67
431.321	6949.1
431.528	7074.03
431.736	7506.15
431.943	7813.34
432.15	7799.01
432.358	7553.25
432.565	8069.34
432.772	8091.87
432.979	8607.95
433.187	8644.82
433.394	8734.93
433.601	9314.5
433.808	9459.91
434.016	9236.68
434.223	9701.57
434.43	10268.86
434.637	10119.35
434.844	10619.06
435.052	11014.32
435.259	10987.69
435.466	10868.91
435.673	10997.93
435.88	11309.22
436.087	12163.23
436.294	12191.9
436.501	11827.36
436.708	11997.34
436.915	12710.04
437.122	13119.63
437.329	13117.58
437.537	13551.75
437.743	13539.46
437.95	13592.71
438.157	14475.38
438.364	14774.39
438.571	14696.57
438.778	14858.35
438.985	16216.16
439.192	15667.3
439.399	16232.54
439.606	15849.57
439.813	16535.64
440.02	17659.98
440.227	17487.95
440.433	17373.26
440.64	17827.91
440.847	17733.7
441.054	18235.46
441.261	19226.67
441.467	18899
441.674	19449.9
441.881	19851.3
442.088	20330.53
442.294	19785.77
442.501	20666.39
442.708	20922.39
442.914	21639.18
443.121	22282.24
443.328	22140.93
443.534	23633.9
443.741	23021.56
443.948	22794.23
444.154	24479.71
444.361	24299.49
444.568	24526.82
444.774	24537.05
444.981	24848.35
445.187	25571.28
445.394	26800.06
445.6	25888.71
445.807	28565.41
446.013	27619.25
446.22	27912.11
446.426	29185.94
446.633	29618.07
446.839	30285.7
447.046	29294.49
447.252	30601.09
447.459	30791.55
447.665	30441.35
447.871	32155.5
448.078	33662.8
448.284	32038.76
448.491	32997.21
448.697	34393.93
448.903	34830.15
449.11	34703.17
449.316	34176.84
449.522	34641.73
449.728	35673.91
449.935	35995.44
450.141	36052.78
450.347	37363.48
450.553	35780.4
450.76	36392.75
450.966	37482.27
451.172	37175.07
451.378	38067.98
451.584	37281.56
451.791	38065.94
451.997	38121.23
452.203	38651.66
452.409	39020.29
452.615	38686.47
452.821	37209.89
453.027	36941.6
453.233	38690.57
453.44	37512.98
453.646	37603.1
453.852	38295.31
454.058	38682.38
454.264	37392.15
454.47	38207.25
454.676	37152.54
454.882	38403.85
455.088	35049.28
455.294	35641.14
455.5	36362.03
455.705	36601.64
455.911	35120.96
456.117	34621.25
456.323	34182.99
456.529	32044.91
456.735	33570.65
456.941	32724.83
457.147	32401.25
457.352	31526.77
457.558	30830.46
457.764	31272.82
457.97	30732.16
458.176	29757.33
458.381	30168.97
458.587	28458.92
458.793	28254.12
458.999	27019.19
459.204	29030.3
459.41	28211.11
459.616	26288.07
459.821	26619.84
460.027	26468.29
460.233	25442.26
460.438	24391.65
460.644	24676.32
460.85	23631.85
461.055	23078.9
461.261	23324.66
461.466	21645.32
461.672	20762.65
461.878	22212.61
462.083	20633.63
462.289	20414.49
462.494	20271.14
462.7	19507.24
462.905	18825.27
463.111	19456.04
463.316	19632.17
463.522	19023.92
463.727	19423.28
463.932	18903.09
464.138	18536.51
464.343	18745.4
464.549	18251.84
464.754	18999.35
464.959	18948.15
465.165	18968.63
465.37	17735.75
465.575	17449.04
465.781	18358.33
465.986	18468.92
466.191	17590.34
466.397	17565.77
466.602	16439.39
466.807	16941.14
467.012	17326.16
467.218	16996.43
467.423	17006.67
467.628	17098.83
467.833	17389.64
468.038	16973.91
468.244	16683.09
468.449	17334.35
468.654	16713.81
468.859	16476.25
469.064	16670.81
469.269	15767.65
469.474	15798.37
469.679	16107.62
469.885	15468.65
470.09	15888.48
470.295	15951.97
470.5	15335.53
470.705	15497.32
470.91	15145.07
471.115	15044.72
471.32	15403.11
471.525	14882.93
471.73	14833.78
471.935	14878.83
472.139	14127.23
472.344	14616.69
472.549	14510.2
472.754	14110.85
472.959	13959.3
473.164	13381.77
473.369	13404.3
473.574	13944.96
473.778	13860.99
473.983	13488.26
474.188	13635.72
474.393	13109.39
474.598	13213.84
474.802	12935.31
475.007	12869.78
475.212	13189.26
475.417	12335.26
475.621	12540.05
475.826	12603.54
476.031	12222.62
476.235	12099.74
476.44	12214.43
476.645	11907.23
476.849	12126.36
477.054	12140.7
477.259	11653.28
477.463	11509.93
477.668	11430.05
477.872	11489.45
478.077	11321.51
478.282	11038.89
478.486	10838.19
478.691	10995.89
478.895	10946.73
479.1	10821.81
479.304	10803.38
479.509	10576.05
479.713	10725.55
479.918	10598.58
480.122	10385.59
480.326	10555.57
480.531	10594.48
480.735	10397.88
480.94	10129.59
481.144	10594.48
481.348	10135.74
481.553	10070.2
481.757	9967.81
481.961	10125.5
482.166	10449.08
482.37	10199.23
482.574	9912.51
482.778	10053.82
482.983	10348.73
483.187	10160.31
483.391	10336.44
483.595	10016.96
483.8	9873.6
484.004	10006.72
484.208	10172.6
484.412	10049.72
484.616	10332.34
484.821	9998.52
485.025	10023.1
485.229	10049.72
485.433	10084.54
485.637	9955.52
485.841	9986.24
486.045	9943.23
486.249	10029.24
486.453	10000.57
486.657	10035.39
486.861	9945.28
487.065	9812.16
487.269	10084.54
487.473	9926.85
487.677	10019
487.881	10256.57
488.085	9951.42
488.289	10084.54
488.493	10035.39
488.697	10113.21
488.901	10234.04
489.105	10219.71
489.309	10279.1
489.512	10336.44
489.716	10336.44
489.92	10197.18
490.124	10213.56
490.328	10483.89
490.531	10193.08
490.735	10305.72
490.939	10422.45
491.143	10356.92
491.346	10121.4
491.55	10688.69
491.754	10574
491.958	10770.61
492.161	10473.65
492.365	10662.07
492.569	10553.52
492.772	10715.31
492.976	10858.67
493.18	10789.04
493.383	10999.98
493.587	11075.76
493.79	11049.13
493.994	10975.41
494.197	11139.24
494.401	11225.26
494.605	11268.27
494.808	11391.14
495.012	11528.36
495.215	11692.19
495.419	11790.5
495.622	11747.49
495.825	12011.68
496.029	11929.76
496.232	12040.35
496.436	12120.22
496.639	12308.63
496.843	12112.03
497.046	12533.91
497.249	12755.09
497.453	12650.64
497.656	12875.92
497.859	13072.53
498.063	13041.81
498.266	13312.14
498.469	13379.72
498.673	13365.39
498.876	13711.49
499.079	13971.58
499.282	13678.72
499.485	14254.2
499.689	14223.48
499.892	14340.22
500.095	14528.63
500.298	14813.3
500.501	14825.59
500.705	15120.49
500.908	15177.84
501.111	15444.07
501.314	15442.03
501.517	15704.17
501.72	15990.88
501.923	15859.81
502.126	16345.18
502.329	16660.57
502.532	16615.51
502.735	16779.35
502.938	16986.19
503.141	16955.47
503.344	17469.51
503.547	17258.57
503.75	17721.41
503.953	17963.08
504.156	18051.14
504.359	18468.92
504.562	18493.5
504.765	18997.3
504.968	19251.25
505.17	19304.49
505.373	19169.33
505.576	19505.2
505.779	19882.02
505.982	19701.8
506.185	20348.96
506.387	20334.62
506.59	20434.97
506.793	21295.12
506.996	20815.9
507.198	21393.42
507.401	21262.35
507.604	21626.89
507.807	21850.12
508.009	22267.91
508.212	22577.15
508.415	22917.11
508.617	23119.86
508.82	23218.16
509.022	22913.02
509.225	23607.28
509.428	23810.03
509.63	23748.59
509.833	24156.13
510.035	24803.29
510.238	24563.68
510.44	24965.08
510.643	25356.24
510.845	25587.66
511.048	25491.41
511.25	25704.4
511.453	25843.66
511.655	26685.37
511.858	26580.93
512.06	26996.67
512.262	26841.02
512.465	27129.78
512.667	27674.54
512.87	27811.76
513.072	27967.4
513.274	28651.42
513.477	29063.07
513.679	29071.26
513.881	29355.93
514.084	29392.79
514.286	29796.24
514.488	29585.3
514.69	30660.48
514.893	30715.78
515.095	30644.1
515.297	31031.16
515.499	31252.34
515.701	31289.21
515.904	31598.45
516.106	32161.64
516.308	32165.74
516.51	32702.31
516.712	32563.04
516.914	33273.69
517.116	33982.29
517.318	33613.65
517.52	33851.22
517.722	33840.98
517.925	34604.87
518.127	34578.25
518.329	35393.34
518.531	34987.84
518.733	35338.04
518.935	36073.26
519.136	35770.16
519.338	36114.22
519.54	36515.62
519.742	36644.65
519.944	36951.84
520.146	37377.82
520.348	37592.86
520.55	37553.94
520.752	38088.46
520.954	38350.6
521.155	38518.54
521.357	38850.31
521.559	39122.69
521.761	39595.77
521.963	39599.87
522.164	39823.09
522.366	39806.71
522.568	40339.18
522.77	40255.22
522.971	40953.57
523.173	40650.47
523.375	41371.36
523.576	41049.83
523.778	41541.34
523.98	41785.05
524.181	42061.52
524.383	41617.11
524.584	42251.98
524.786	42712.78
524.988	41995.99
525.189	42831.56
525.391	42839.75
525.592	43030.21
525.794	43138.76
525.995	43128.52
526.197	43540.16
526.398	43703.99
526.6	43976.37
526.801	43970.23
527.003	44324.53
527.204	44152.5
527.406	44641.96
527.607	44363.44
527.808	44867.24
528.01	44375.73
528.211	44586.67
528.412	45278.88
528.614	45082.28
528.815	44664.49
529.016	45604.51
529.218	45194.92
529.419	45260.45
529.62	45547.17
529.822	45350.56
530.023	45584.03
530.224	45561.5
530.425	45176.48
530.626	45344.42
530.828	45295.27
531.029	46411.41
531.23	45473.44
531.431	45737.63
531.632	46231.19
531.833	46235.28
532.035	46212.76
532.236	45956.76
532.437	46710.41
532.638	45758.11
532.839	46458.51
533.04	46073.49
533.241	45842.07
533.442	46816.91
533.643	46294.67
533.844	46202.52
534.045	46497.42
534.246	45958.81
534.447	46667.41
534.648	46147.22
534.849	46567.05
535.05	46194.32
535.251	46458.51
535.451	46161.56
535.652	46653.07
535.853	46575.25
536.054	46366.35
536.255	46392.98
536.456	45981.34
536.657	46558.86
536.857	46294.67
537.058	46169.75
537.259	46859.91
537.46	46587.53
537.66	45934.23
537.861	46681.74
538.062	46374.55
538.263	46853.77
538.463	46542.48
538.664	46096.02
538.865	46614.16
539.065	46526.1
539.266	45657.76
539.466	46710.41
539.667	45983.38
539.868	46880.39
540.068	46083.73
540.269	46274.2
540.469	46743.18
540.67	45831.83
540.87	46261.91
541.071	45760.16
541.271	46524.05
541.472	46374.55
541.672	46071.45
541.873	46020.25
542.073	45549.21
542.274	46724.75
542.474	45983.38
542.675	45471.39
542.875	46163.6
543.075	46245.52
543.276	45416.1
543.476	46145.17
543.676	45563.55
543.877	46188.18
544.077	46349.97
544.277	45883.03
544.478	46243.48
544.678	46182.04
544.878	45758.11
545.078	46235.28
545.279	46223
545.479	46190.23
545.679	46438.03
545.879	46096.02
546.079	45547.17
546.28	45909.66
546.48	45930.14
546.68	46401.17
546.88	46046.87
547.08	45919.9
547.28	45743.77
547.48	45366.95
547.68	45840.03
547.88	45635.23
548.081	46085.78
548.281	45745.82
548.481	45600.41
548.681	45923.99
548.881	45590.17
549.081	45749.92
549.28	45403.81
549.48	45432.48
549.68	45745.82
549.88	46030.49
550.08	45473.44
550.28	45663.9
550.48	45541.02
550.68	45913.75
550.88	45166.24
551.08	45432.48
551.279	45858.46
551.479	45162.15
551.679	45489.82
551.879	45395.62
552.079	45727.39
552.278	45211.3
552.478	45600.41
552.678	45248.16
552.878	45731.48
553.077	45026.98
553.277	45274.79
553.477	45672.09
553.676	45209.25
553.876	45321.89
554.076	45145.76
554.275	45192.87
554.475	44650.16
554.674	45352.61
554.874	45325.99
555.074	45061.8
555.273	45002.41
555.473	45409.95
555.672	44684.97
555.872	44965.54
556.071	45407.9
556.271	45153.96
556.47	44920.49
556.67	44986.02
556.869	44545.71
557.068	44588.72
557.268	44490.41
557.467	44834.47
557.667	44492.46
557.866	44955.3
558.065	44863.14
558.265	43968.18
558.464	44467.89
558.663	44637.87
558.863	43763.39
559.062	44453.55
559.261	44308.15
559.461	44514.99
559.66	43898.55
559.859	44035.77
560.058	43755.19
560.258	43833.02
560.457	43769.53
560.656	44142.26
560.855	43900.6
561.054	43990.71
561.253	43697.85
561.453	43867.83
561.652	43980.47
561.851	43898.55
562.05	43775.67
562.249	43364.03
562.448	44043.96
562.647	43697.85
562.846	43826.87
563.045	43296.45
563.244	42958.53
563.443	43515.58
563.642	42862.28
563.841	43292.35
564.04	43081.41
564.239	43687.61
564.438	42704.59
564.637	43359.94
564.836	42946.25
565.035	42536.65
565.234	42917.57
565.432	42540.75
565.631	42614.48
565.83	42403.53
566.029	42518.22
566.228	42200.79
566.427	42143.44
566.625	42467.02
566.824	41783
567.023	42565.32
567.222	41506.52
567.42	42501.84
567.619	42034.9
567.818	42139.35
568.016	42084.05
568.215	42665.67
568.414	41617.11
568.612	42215.12
568.811	41965.27
569.01	41742.04
569.208	41453.28
569.407	41610.97
569.605	41195.23
569.804	41557.72
570.002	41303.78
570.201	41737.94
570.4	41058.02
570.598	41225.95
570.797	40922.85
570.995	41344.73
571.193	40791.78
571.392	40904.42
571.59	40408.81
571.789	40355.57
571.987	40609.51
572.186	40519.4
572.384	40515.31
572.582	40623.85
572.781	40529.64
572.979	39988.98
573.177	40185.58
573.376	40062.71
573.574	39782.13
573.772	39755.51
573.971	39851.77
574.169	39603.96
574.367	38946.56
574.565	39919.35
574.763	39161.6
574.962	39274.24
575.16	38936.32
575.358	39569.15
575.556	39028.48
575.754	39450.36
575.952	38911.75
576.151	39446.27
576.349	38539.02
576.547	38428.43
576.745	38872.84
576.943	38586.12
577.141	38285.07
577.339	38567.69
577.537	38498.06
577.735	38076.18
577.933	37754.65
578.131	38225.68
578.329	37955.35
578.527	37498.65
578.725	37863.19
578.923	38248.21
579.121	37662.49
579.319	37549.85
579.516	37742.36
579.714	37281.56
579.912	37375.77
580.11	37050.14
580.308	37265.18
580.506	37248.8
580.704	36753.19
580.901	37201.69
581.099	37007.14
581.297	36544.3
581.495	36661.03
581.692	36433.71
581.89	36149.04
582.088	36718.37
582.285	36339.5
582.483	36478.76
582.681	36558.63
582.878	36276.01
583.076	35852.08
583.274	35833.65
583.471	35798.84
583.669	35979.06
583.866	35499.83
584.064	35503.93
584.262	35141.44
584.459	35596.09
584.657	34934.59
584.854	35389.24
585.052	35047.23
585.249	35438.39
585.447	35018.56
585.644	34715.46
585.841	34981.7
586.039	35333.95
586.236	34070.35
586.434	34502.47
586.631	34457.42
586.828	34365.26
587.026	34275.15
587.223	34275.15
587.42	33914.7
587.618	34307.91
587.815	33810.26
588.012	33714
588.21	33754.96
588.407	33980.24
588.604	33935.18
588.801	33468.25
588.999	33554.26
589.196	33525.59
589.393	33490.77
589.59	33316.7
589.787	33257.31
589.984	32984.93
590.182	32493.41
590.379	32974.69
590.576	32561
590.773	32714.59
590.97	32540.52
591.167	32692.07
591.364	32008.04
591.561	32657.25
591.758	32014.19
591.955	32081.77
592.152	32292.71
592.349	31954.8
592.546	32106.35
592.743	31815.54
592.94	31469.43
593.137	31561.59
593.334	31940.46
593.531	30998.4
593.727	31444.85
593.924	31522.68
594.121	30783.36
594.318	30945.15
594.515	31051.64
594.712	31008.64
594.908	30963.58
595.105	30830.46
595.302	30476.16
595.499	30566.27
595.696	30363.53
595.892	30332.81
596.089	30316.42
596.286	30408.58
596.482	30234.5
596.679	30080.91
596.876	29986.7
597.072	29816.72
597.269	29742.99
597.466	29806.48
597.662	29552.53
597.859	29669.26
598.055	29687.7
598.252	29460.37
598.448	29384.6
598.645	29187.99
598.841	29085.59
599.038	29450.13
599.234	29319.06
599.431	28915.61
599.627	28673.95
599.824	28970.91
600.02	28721.06
600.217	28632.99
600.413	28321.7
600.609	28403.62
600.806	28245.93
601.002	28311.46
601.198	27854.76
601.395	27719.6
601.591	28051.37
601.787	27881.39
601.984	27668.4
602.18	28151.72
602.376	27594.67
602.572	27346.87
602.769	27815.85
602.965	27086.78
603.161	27396.02
603.357	27189.17
603.553	26783.68
603.75	27047.86
603.946	26929.08
604.142	26914.75
604.338	26818.49
604.534	26865.6
604.73	26933.18
604.926	26734.53
605.122	26738.62
605.318	26232.77
605.514	26550.21
605.71	26660.8
605.906	26263.49
606.102	26159.05
606.298	25982.92
606.494	26128.33
606.69	26003.4
606.886	25974.73
607.082	25501.65
607.278	26089.42
607.474	25237.46
607.67	25835.47
607.866	25257.94
608.062	25845.71
608.257	25239.51
608.453	25556.94
608.649	25483.22
608.845	25386.96
609.041	25333.71
609.236	25425.87
609.432	25159.64
609.628	25161.69
609.824	25292.76
610.019	25110.49
610.215	24950.74
610.411	25059.29
610.606	24721.37
610.802	24690.65
610.998	24954.84
611.193	24940.5
611.389	24365.03
611.584	24700.89
611.78	24631.26
611.976	24328.16
612.171	24612.83
612.367	24471.52
612.562	24195.04
612.758	24115.17
612.953	24254.44
613.149	24512.48
613.344	23836.65
613.539	24086.5
613.735	24227.81
613.93	23984.1
614.126	23930.86
614.321	24188.9
614.517	23994.34
614.712	23601.13
614.907	23947.24
615.103	23721.96
615.298	23416.82
615.493	23748.59
615.688	23293.94
615.884	23709.68
616.079	23267.31
616.274	23984.1
616.47	23404.53
616.665	23437.3
616.86	23224.31
617.055	23384.05
617.25	23257.07
617.445	23275.51
617.641	23037.94
617.836	23248.88
618.031	22775.8
618.226	22923.26
618.421	22820.86
618.616	22994.93
618.811	22491.13
619.006	22460.41
619.201	22427.65
619.396	22427.65
619.591	22099.97
619.786	22528
619.981	22069.25
620.176	22345.73
620.371	22128.64
620.566	21936.13
620.761	21841.93
620.956	22085.64
621.151	21489.68
621.346	21604.36
621.541	21379.09
621.735	21604.36
621.93	21229.59
622.125	21295.12
622.32	21086.23
622.515	20994.07
622.709	20953.11
622.904	20713.5
623.099	20891.67
623.294	20766.74
623.488	20338.72
623.683	20414.49
623.878	20316.19
624.072	20086.82
624.267	20066.34
624.462	20043.81
624.656	19709.99
624.851	19808.3
625.046	19796.01
625.24	19259.44
625.435	19617.83
625.629	19163.18
625.824	19077.17
626.018	19277.87
626.213	18845.75
626.407	19025.97
626.602	18569.27
626.796	18839.61
626.991	18778.17
627.185	18464.83
627.38	18141.25
627.574	18268.22
627.768	18182.21
627.963	18133.06
628.157	17985.6
628.352	17934.4
628.546	17840.2
628.74	17989.7
628.935	17492.04
629.129	17541.19
629.323	17307.73
629.517	17391.69
629.712	17080.4
629.906	17242.19
630.1	16891.99
630.294	16994.39
630.489	16920.66
630.683	16842.84
630.877	16881.75
631.071	16644.18
631.265	16502.87
631.459	16455.77
631.653	16392.28
631.848	16308.32
632.042	16296.03
632.236	16523.35
632.43	15949.92
632.624	16138.34
632.818	15796.32
633.012	15937.63
633.206	15884.39
633.4	15560.81
633.594	15755.36
633.788	15396.97
633.982	15550.57
634.176	15335.53
634.369	15478.89
634.563	15175.79
634.757	15308.91
634.951	14956.66
635.145	14917.75
635.339	15179.89
635.533	14794.87
635.726	14891.12
635.92	14653.56
636.114	14790.77
636.308	14465.14
636.501	14459
636.695	14434.43
636.889	14198.91
637.083	14121.09
637.276	14258.3
637.47	14336.12
637.664	14030.98
637.857	13901.95
638.051	13869.19
638.244	13799.55
638.438	13734.02
638.632	13596.81
638.825	13641.86
639.019	13430.92
639.212	13424.78
639.406	13428.87
639.599	13459.59
639.793	13219.98
639.986	12963.98
640.18	13072.53
640.373	12775.57
640.567	12871.82
640.76	13056.14
640.954	12546.2
641.147	12597.4
641.34	12634.26
641.534	12523.67
641.727	12357.78
641.92	12441.75
642.114	12603.54
642.307	12380.31
642.5	12277.91
642.694	12073.12
642.887	12099.74
643.08	12013.73
643.273	12071.07
643.467	11954.33
643.66	11892.9
643.853	11767.97
644.046	11544.74
644.239	11765.92
644.432	11542.69
644.626	11667.62
644.819	11610.28
645.012	11473.06
645.205	11391.14
645.398	11501.73
645.591	11131.05
645.784	11137.2
645.977	11167.91
646.17	10948.78
646.363	11057.32
646.556	10868.91
646.749	10805.42
646.942	10864.82
647.135	10672.31
647.328	10713.27
647.521	10672.31
647.714	10496.18
647.907	10545.33
648.099	10234.04
648.292	10424.5
648.485	10438.84
648.678	10260.66
648.871	10481.85
649.064	10127.55
649.256	10119.35
649.449	10006.72
649.642	9924.8
649.835	10008.76
650.027	10012.86
650.22	9740.48
650.413	9814.21
650.605	9728.19
650.798	9685.19
650.991	9658.56
651.183	9582.79
651.376	9484.48
651.568	9500.87
651.761	9509.06
651.954	9265.35
652.146	9414.85
652.339	9199.82
652.531	9273.54
652.724	9222.34
652.916	9205.96
653.109	9052.36
653.301	9044.17
653.494	9117.9
653.686	8771.79
653.879	9099.47
654.071	8804.56
654.263	8661.2
654.456	8712.4
654.648	8650.96
654.84	8523.99
655.033	8493.27
655.225	8564.95
655.417	8716.5
655.61	8433.88
655.802	8425.68
655.994	8208.6
656.186	8519.89
656.379	8087.77
656.571	8235.22
656.763	8118.49
656.955	8192.22
657.148	8069.34
657.34	8241.37
657.532	8038.62
657.724	8007.9
657.916	7872.73
658.108	7950.56
658.3	7633.12
658.492	7831.77
658.684	7502.05
658.876	7614.69
659.068	7710.94
659.26	7604.45
659.452	7583.97
659.644	7506.15
659.836	7434.47
660.028	7540.96
660.22	7405.8
660.412	7401.7
660.604	7227.62
660.796	7250.15
660.988	7205.1
661.18	7190.76
661.372	7051.5
661.563	7389.41
661.755	7125.22
661.947	6998.25
662.139	7047.4
662.331	6990.06
662.522	6883.56
662.714	6920.43
662.906	6727.92
663.097	6697.2
663.289	6691.06
663.481	6715.63
663.673	6758.64
663.864	6451.44
664.056	6598.9
664.247	6486.26
664.439	6406.39
664.631	6379.76
664.822	6357.24
665.014	6287.61
665.205	6308.09
665.397	6363.38
665.588	6441.2
665.78	6279.41
665.971	6142.2
666.163	6148.34
666.354	6170.87
666.546	6099.19
666.737	6035.71
666.929	6035.71
667.12	6107.38
667.311	5822.72
667.503	5939.45
667.694	5832.96
667.885	5892.35
668.077	5804.28
668.268	5732.61
668.459	6004.99
668.651	5685.5
668.842	5566.72
669.033	5808.38
669.224	5685.5
669.416	5607.68
669.607	5540.1
669.798	5511.43
669.989	5492.99
670.18	5318.92
670.371	5501.19
670.563	5505.28
670.754	5439.75
670.945	5239.05
671.136	5335.3
671.327	5308.68
671.518	5372.16
671.709	5398.79
671.9	5314.82
672.091	5337.35
672.282	5286.15
672.473	5366.02
672.664	5349.64
672.855	5093.64
673.046	5259.53
673.237	5179.65
673.428	5046.54
673.619	5159.17
673.809	5171.46
674	5120.26
674.191	4985.1
674.382	5081.35
674.573	5089.54
674.764	4931.85
674.954	4892.94
675.145	4888.84
675.336	4978.95
675.527	4677.9
675.717	4880.65
675.908	4765.96
676.099	4929.8
676.289	4970.76
676.48	4778.25
676.671	4878.6
676.861	4894.99
677.052	4786.44
677.243	4759.82
677.433	4847.88
677.624	4655.37
677.814	4763.92
678.005	4741.39
678.195	4761.87
678.386	4559.12
678.576	4720.91
678.767	4626.7
678.957	4718.86
679.148	4593.94
679.338	4759.82
679.529	4577.55
679.719	4518.16
679.909	4657.42
680.1	4612.37
680.29	4655.37
680.481	4602.13
680.671	4526.35
680.861	4501.78
681.052	4536.59
681.242	4485.39
681.432	4516.11
681.622	4405.52
681.813	4542.74
682.003	4595.98
682.193	4380.95
682.383	4636.94
682.573	4477.2
682.764	4473.11
682.954	4303.12
683.144	4473.11
683.334	4354.32
683.524	4485.39
683.714	4276.5
683.904	4395.28
684.094	4331.8
684.284	4454.67
684.474	4346.13
684.664	4247.83
684.854	4370.71
685.044	4268.31
685.234	4159.77
685.424	4407.57
685.614	4256.02
685.804	4204.82
685.994	4296.98
686.184	4186.39
686.374	4112.66
686.564	4178.2
686.753	4153.62
686.943	4088.09
687.133	4063.51
687.323	4057.37
687.513	4143.38
687.702	4122.9
687.892	4239.64
688.082	4065.56
688.272	4002.07
688.461	4036.89
688.651	3977.5
688.841	4055.32
689.03	3854.62
689.22	3959.06
689.41	4090.13
689.599	3907.87
689.789	3909.91
689.979	3705.12
690.168	3858.71
690.358	3805.47
690.547	3797.28
690.737	3881.24
690.926	3725.6
691.116	3782.94
691.305	3768.6
691.495	3660.06
691.684	3711.26
691.874	3658.01
692.063	3707.16
692.252	3664.16
692.442	3678.49
692.631	3576.09
692.82	3621.15
693.01	3528.99
693.199	3615.01
693.388	3666.21
693.578	3449.12
693.767	3467.55
693.956	3559.71
694.146	3653.92
694.335	3438.88
694.524	3453.22
694.713	3479.84
694.902	3453.22
695.092	3432.74
695.281	3406.11
695.47	3379.49
695.659	3459.36
695.848	3430.69
696.037	3461.41
696.226	3299.62
696.415	3279.14
696.604	3297.57
696.793	3154.21
696.982	3340.58
697.171	3348.77
697.36	3316
697.549	3072.29
697.738	3307.81
697.927	3217.7
698.116	3119.4
698.305	3072.29
698.494	3270.95
698.683	3060.01
698.872	3311.91
699.061	3115.3
699.25	2988.33
699.438	3191.08
699.627	3229.99
699.816	3088.68
700.005	3078.44
700.193	3152.17
700.382	2994.47
700.571	3017
700.76	3055.91
700.948	3002.66
701.137	3041.57
701.326	3031.34
701.514	2928.94
701.703	3041.57
701.892	2914.6
702.08	3082.53
702.269	2988.33
702.457	2914.6
702.646	2867.5
702.834	2910.5
703.023	2867.5
703.212	2849.07
703.4	2916.65
703.589	2861.35
703.777	2867.5
703.965	2791.72
704.154	2853.16
704.342	2810.15
704.531	2859.31
704.719	2674.99
704.907	2838.83
705.096	2746.67
705.284	2734.38
705.472	2752.81
705.661	2820.39
705.849	2836.78
706.037	2822.44
706.226	2756.91
706.414	2734.38
706.602	2761
706.79	2746.67
706.979	2806.06
707.167	2713.9
707.355	2769.2
707.543	2728.24
707.731	2713.9
707.919	2734.38
708.107	2693.42
708.296	2588.97
708.484	2748.72
708.672	2734.38
708.86	2705.71
709.048	2789.67
709.236	2652.46
709.424	2603.31
709.612	2765.1
709.8	2767.15
709.988	2631.98
710.176	2576.69
710.364	2599.21
710.551	2550.06
710.739	2574.64
710.927	2599.21
711.115	2609.45
711.303	2601.26
711.491	2607.41
711.679	2601.26
711.866	2464.05
712.054	2482.48
712.242	2466.1
712.43	2656.56
712.617	2674.99
712.805	2631.98
712.993	2631.98
713.181	2412.85
713.368	2603.31
713.556	2593.07
713.744	2511.15
713.931	2677.04
714.119	2519.34
714.306	2568.49
714.494	2535.73
714.682	2648.36
714.869	2427.18
715.057	2576.69
715.244	2492.72
715.432	2588.97
715.619	2369.84
715.807	2699.56
715.994	2574.64
716.182	2511.15
716.369	2570.54
716.556	2502.96
716.744	2482.48
716.931	2480.43
717.119	2558.25
717.306	2511.15
717.493	2574.64
717.681	2580.78
717.868	2447.66
718.055	2421.04
718.242	2525.49
718.43	2443.57
718.617	2486.58
718.804	2480.43
718.991	2631.98
719.179	2490.67
719.366	2545.97
719.553	2494.77
719.74	2642.22
719.927	2560.3
720.114	2443.57
720.301	2486.58
720.488	2437.42
720.676	2513.2
720.863	2449.71
721.05	2445.62
721.237	2484.53
721.424	2441.52
721.611	2562.35
721.798	2408.75
721.985	2416.94
722.172	2474.29
722.358	2593.07
722.545	2470.19
722.732	2388.27
722.919	2498.86
723.106	2359.6
723.293	2552.11
723.48	2494.77
723.667	2359.6
723.853	2425.14
724.04	2480.43
724.227	2484.53
724.414	2423.09
724.6	2478.38
724.787	2545.97
724.974	2560.3
725.161	2533.68
725.347	2277.68
725.534	2523.44
725.72	2443.57
725.907	2464.05
726.094	2468.14
726.28	2412.85
726.467	2404.66
726.653	2402.61
726.84	2388.27
727.027	2378.03
727.213	2390.32
727.4	2398.51
727.586	2402.61
727.773	2408.75
727.959	2494.77
728.145	2396.46
728.332	2382.13
728.518	2505.01
728.705	2543.92
728.891	2412.85
729.077	2404.66
729.264	2414.9
729.45	2392.37
729.636	2375.99
729.823	2238.77
730.009	2300.21
730.195	2445.62
730.382	2414.9
730.568	2296.11
730.754	2410.8
730.94	2451.76
731.126	2378.03
731.313	2478.38
731.499	2292.02
731.685	2437.42
731.871	2375.99
732.057	2351.41
732.243	2330.93
732.429	2386.22
732.615	2332.98
732.801	2435.38
732.987	2421.04
733.173	2341.17
733.359	2462
733.545	2421.04
733.731	2269.49
733.917	2404.66
734.103	2414.9
734.289	2375.99
734.475	2283.83
734.661	2257.2
734.847	2332.98
735.033	2361.65
735.219	2335.03
735.404	2365.75
735.59	2396.46
735.776	2310.45
735.962	2347.31
736.148	2519.34
736.333	2431.28
736.519	2351.41
736.705	2355.51
736.89	2267.44
737.076	2355.51
737.262	2136.37
737.447	2326.83
737.633	2296.11
737.819	2287.92
738.004	2373.94
738.19	2357.55
738.375	2324.79
738.561	2244.92
738.747	2218.29
738.932	2249.01
739.118	2249.01
739.303	2240.82
739.489	2177.33
739.674	2234.68
739.859	2206
740.045	2283.83
740.23	2099.51
740.416	2267.44
740.601	2195.76
740.786	2111.8
740.972	2126.13
741.157	2251.06
741.342	2119.99
741.528	2103.61
741.713	2128.18
741.898	2167.09
742.084	2230.58
742.269	2060.6
742.454	2216.24
742.639	2261.3
742.824	2187.57
743.01	2013.49
743.195	2085.17
743.38	2107.7
743.565	2167.09
743.75	1993.01
743.935	2173.24
744.12	2083.13
744.305	2046.26
744.49	2070.84
744.675	1997.11
744.86	2029.88
745.045	2011.45
745.23	2113.85
745.415	1982.78
745.6	1988.92
745.785	1964.34
745.97	2029.88
746.155	2042.17
746.34	1980.73
746.525	2007.35
746.71	2017.59
746.895	1898.81
747.079	1894.71
747.264	1980.73
747.449	1886.52
747.634	1917.24
747.819	1845.56
748.003	1888.57
748.188	1810.75
748.373	1876.28
748.557	1786.17
748.742	1765.69
748.927	1820.99
749.111	1892.66
749.296	1673.53
749.481	1802.55
749.665	1726.78
749.85	1644.86
750.034	1765.69
750.219	1694.01
750.404	1634.62
750.588	1759.55
750.773	1644.86
750.957	1751.35
751.141	1659.2
751.326	1653.05
751.51	1603.9
751.695	1601.85
751.879	1667.39
752.064	1620.28
752.248	1624.38
752.432	1587.52
752.617	1530.17
752.801	1620.28
752.985	1616.19
753.17	1638.72
753.354	1562.94
753.538	1562.94
753.722	1476.93
753.907	1448.26
754.091	1567.04
754.275	1452.35
754.459	1538.37
754.643	1524.03
754.828	1485.12
755.012	1487.17
755.196	1421.63
755.38	1364.29
755.564	1415.49
755.748	1354.05
755.932	1388.86
756.116	1427.78
756.3	1354.05
756.484	1524.03
756.668	1337.66
756.852	1270.08
757.036	1349.95
757.22	1241.41
757.404	1356.1
757.588	1274.18
757.772	1284.42
757.956	1284.42
758.14	1329.47
758.323	1294.66
758.507	1270.08
758.691	1325.38
758.875	1386.82
759.059	1284.42
759.242	1202.5
759.426	1265.99
759.61	1274.18
759.794	1235.27
759.977	1298.75
760.161	1268.03
760.345	1225.03
760.528	1171.78
760.712	1050.95
760.895	1128.77
761.079	1114.44
761.263	1116.48
761.446	1145.16
761.63	1196.36
761.813	1171.78
761.997	1132.87
762.18	1136.96
762.364	1120.58
762.547	1075.52
762.731	1110.34
762.914	1118.53
763.098	1151.3
763.281	1022.28
763.464	1096
763.648	1093.96
763.831	1141.06
764.015	1071.43
764.198	1005.89
764.381	1030.47
764.564	1108.29
764.748	1055.05
764.931	1030.47
765.114	1022.28
765.297	987.46
765.481	962.89
765.664	1053
765.847	1057.09
766.03	1059.14
766.213	1026.37
766.397	1075.52
766.58	956.74
766.763	1044.81
766.946	1005.89
767.129	1093.96
767.312	1085.76
767.495	995.65
767.678	1016.13
767.861	1009.99
768.044	958.79
768.227	952.65
768.41	954.69
768.593	907.59
768.776	905.54
768.959	952.65
769.142	985.41
769.324	938.31
769.507	928.07
769.69	934.22
769.873	942.41
770.056	950.6
770.239	960.84
770.421	936.26
770.604	954.69
770.787	844.1
770.97	938.31
771.152	840.01
771.335	926.02
771.518	854.34
771.7	942.41
771.883	880.97
772.066	837.96
772.248	842.06
772.431	866.63
772.613	930.12
772.796	923.98
772.978	864.58
773.161	932.17
773.343	913.74
773.526	842.06
773.708	899.4
773.891	815.43
774.073	809.29
774.256	850.25
774.438	854.34
774.621	862.54
774.803	792.91
774.985	930.12
775.168	756.04
775.35	846.15
775.532	780.62
775.715	760.14
775.897	848.2
776.079	782.67
776.261	762.19
776.444	708.94
776.626	690.51
776.808	751.95
776.99	710.99
777.173	774.47
777.355	825.67
777.537	674.12
777.719	743.75
777.901	717.13
778.083	753.99
778.265	751.95
778.447	778.57
778.629	674.12
778.811	698.7
778.993	694.6
779.175	600.4
779.357	672.08
779.539	629.07
779.721	733.51
779.903	751.95
780.085	708.94
780.267	624.97
780.449	610.64
780.631	635.21
780.812	629.07
780.994	676.17
781.176	555.34
781.358	667.98
781.54	602.44
781.721	604.49
781.903	586.06
782.085	627.02
782.267	573.77
782.448	534.86
782.63	584.01
782.812	549.2
782.993	553.29
783.175	571.72
783.357	598.35
783.538	526.67
783.72	473.42
783.901	473.42
784.083	559.44
784.264	614.73
784.446	491.85
784.627	559.44
784.809	541.01
784.99	532.81
785.172	541.01
785.353	469.33
785.535	469.33
785.716	516.43
785.897	452.94
786.079	416.08
786.26	506.19
786.441	485.71
786.623	452.94
786.804	459.09
786.985	555.34
787.167	457.04
787.348	452.94
787.529	473.42
787.71	481.61
787.891	493.9
788.073	422.22
788.254	526.67
788.435	434.51
788.616	479.57
788.797	373.07
788.978	532.81
789.159	471.37
789.34	430.41
789.522	493.9
789.703	420.17
789.884	454.99
790.065	432.46
790.246	373.07
790.427	414.03
790.607	371.02
790.788	420.17
790.969	389.46
791.15	489.81
791.331	454.99
791.512	373.07
791.693	274.77
791.874	403.79
792.054	493.9
792.235	395.6
792.416	336.21
792.597	315.73
792.778	428.37
792.958	387.41
793.139	332.11
793.32	405.84
793.5	397.65
793.681	416.08
793.862	305.49
794.042	321.87
794.223	366.93
794.404	393.55
794.584	332.11
794.765	305.49
794.945	268.63
795.126	383.31
795.306	293.2
795.487	332.11
795.667	325.97
795.848	319.82
796.028	264.53
796.209	379.22
796.389	325.97
796.57	364.88
796.75	237.91
796.93	342.35
797.111	282.96
797.291	282.96
797.471	346.45
797.652	309.58
797.832	276.82
798.012	375.12
798.192	266.58
798.373	389.46
798.553	348.5
798.733	332.11
798.913	323.92
799.093	289.1
799.274	266.58
799.454	301.39
799.634	268.63
799.814	342.35
799.994	325.97
800.174	297.3
800.354	285.01
800.534	307.54
800.714	172.37
800.894	325.97
801.074	254.29
801.254	299.34
801.434	328.02
801.614	362.83
801.794	317.78
801.974	588.11
802.154	336.21
802.334	244.05
802.514	258.39
802.693	248.15
802.873	141.65
803.053	244.05
803.233	233.81
803.413	315.73
803.592	192.85
803.772	270.67
803.952	266.58
804.131	272.72
804.311	252.24
804.491	276.82
804.67	162.13
804.85	190.8
805.03	307.54
805.209	215.38
805.389	233.81
805.568	297.3
805.748	268.63
805.928	209.23
806.107	256.34
806.287	276.82
806.466	250.19
806.646	237.91
806.825	217.43
807.004	227.67
807.184	260.43
807.363	266.58
807.543	291.15
807.722	198.99
807.901	248.15
808.081	186.71
808.26	143.7
808.439	190.8
808.619	170.32
808.798	221.52
808.977	233.81
809.156	213.33
809.336	151.89
809.515	149.84
809.694	155.99
809.873	201.04
810.052	231.76
810.231	246.1
810.411	192.85
810.59	188.75
810.769	219.47
810.948	178.51
811.127	174.42
811.306	190.8
811.485	209.23
811.664	96.6
811.843	268.63
812.022	227.67
812.201	248.15
812.38	119.12
812.559	162.13
812.737	215.38
812.916	92.5
813.095	108.88
813.274	149.84
813.453	155.99
813.632	209.23
813.811	178.51
813.989	121.17
814.168	196.95
814.347	190.8
814.526	178.51
814.704	217.43
814.883	217.43
815.062	217.43
815.24	227.67
815.419	174.42
815.598	174.42
815.776	123.22
815.955	250.19
816.133	168.27
816.312	168.27
816.49	178.51
816.669	119.12
816.847	127.32
817.026	88.4
817.204	194.9
817.383	180.56
817.561	180.56
817.74	166.23
817.918	160.08
818.097	110.93
818.275	139.6
818.453	141.65
818.632	143.7
818.81	135.51
818.988	176.47
819.167	141.65
819.345	186.71
819.523	131.41
819.701	119.12
819.879	133.46
820.058	121.17
820.236	174.42
820.414	129.36
820.592	198.99
820.77	182.61
820.948	139.6
821.127	129.36
821.305	147.8
821.483	104.79
821.661	225.62
821.839	182.61
822.017	160.08
822.195	137.56
822.373	178.51
822.551	139.6
822.729	131.41
822.907	164.18
823.085	129.36
823.262	100.69
823.44	135.51
823.618	112.98
823.796	125.27
823.974	143.7
824.152	104.79
824.329	67.92
824.507	119.12
824.685	67.92
824.863	86.36
825.04	51.54
825.218	104.79
825.396	86.36
825.574	162.13
825.751	108.88
825.929	158.03
826.107	170.32
826.284	110.93
826.462	184.66
826.639	108.88
826.817	86.36
826.994	158.03
827.172	129.36
827.349	166.23
827.527	162.13
827.704	143.7
827.882	106.84
828.059	84.31
828.237	194.9
828.414	112.98
828.591	127.32
828.769	141.65
828.946	80.21
829.124	69.97
829.301	158.03
829.478	78.16
829.655	129.36
829.833	170.32
830.01	92.5
830.187	45.4
830.364	88.4
830.542	117.08
830.719	125.27
830.896	125.27
831.073	104.79
831.25	137.56
831.427	104.79
831.604	90.45
831.782	92.5
831.959	143.7
832.136	86.36
832.313	147.8
832.49	112.98
832.667	76.12
832.844	137.56
833.021	178.51
833.198	92.5
833.374	110.93
833.551	84.31
833.728	80.21
833.905	69.97
834.082	43.35
834.259	117.08
834.436	121.17
834.612	69.97
834.789	108.88
834.966	106.84
835.143	102.74
835.319	168.27
835.496	164.18
835.673	69.97
835.85	119.12
836.026	69.97
836.203	141.65
836.38	88.4
836.556	94.55
836.733	121.17
836.909	55.64
837.086	55.64
837.262	29.01
837.439	96.6
837.616	139.6
837.792	76.12
837.968	131.41
838.145	14.68
838.321	26.96
838.498	98.64
838.674	49.49
838.851	96.6
839.027	129.36
839.203	45.4
839.38	78.16
839.556	125.27
839.732	96.6
839.909	51.54
840.085	137.56
840.261	194.9
840.437	141.65
840.614	76.12
840.79	102.74
840.966	63.83
841.142	55.64
841.318	41.3
841.494	86.36
841.671	72.02
841.847	76.12
842.023	76.12
842.199	145.75
842.375	166.23
842.551	20.82
842.727	24.92
842.903	129.36
843.079	72.02
843.255	170.32
843.431	104.79
843.607	106.84
843.783	18.77
843.959	55.64
844.134	29.01
844.31	55.64
844.486	102.74
844.662	84.31
844.838	102.74
845.013	63.83
845.189	26.96
845.365	72.02
845.541	55.64
845.716	112.98
845.892	96.6
846.068	31.06
846.244	45.4
846.419	76.12
846.595	43.35
846.77	26.96
846.946	69.97
847.122	84.31
847.297	57.68
847.473	170.32
847.648	47.44
847.824	69.97
847.999	67.92
848.175	149.84
848.35	74.07
848.526	29.01
848.701	112.98
848.876	137.56
849.052	57.68
849.227	45.4
849.403	22.87
849.578	47.44
849.753	96.6
849.929	137.56
850.104	39.25
850.279	74.07
850.454	72.02
850.63	90.45
850.805	80.21
850.98	151.89
851.155	55.64
851.33	35.16
851.505	47.44
851.681	125.27
851.856	31.06
852.031	80.21
852.206	98.64
852.381	88.4
852.556	94.55
852.731	-65.19
852.906	-3.75
853.081	96.6
853.256	88.4
853.431	49.49
853.606	88.4
853.781	135.51
853.956	145.75
854.131	84.31
854.305	61.78
854.48	45.4
854.655	100.69
854.83	-34.47
855.005	47.44
855.18	53.59
855.354	51.54
855.529	102.74
855.704	43.35
855.879	100.69
856.053	20.82
856.228	57.68
856.403	20.82
856.577	26.96
856.752	31.06
856.926	14.68
857.101	22.87
857.276	31.06
857.45	90.45
857.625	104.79
857.799	-1.71
857.974	39.25
858.148	43.35
858.323	51.54
858.497	76.12
858.672	61.78
858.846	12.63
859.02	69.97
859.195	43.35
859.369	43.35
859.543	18.77
859.718	-26.28
859.892	51.54
860.066	88.4
860.241	55.64
860.415	61.78
860.589	65.88
860.763	59.73
860.938	106.84
861.112	49.49
861.286	55.64
861.46	43.35
861.634	22.87
861.808	72.02
861.982	35.16
862.157	43.35
862.331	0.34
862.505	35.16
862.679	-7.85
862.853	45.4
863.027	55.64
863.201	168.27
863.375	51.54
863.549	121.17
863.722	47.44
863.896	31.06
864.07	-7.85
864.244	90.45
864.418	76.12
864.592	55.64
864.766	-1.71
864.939	35.16
865.113	-13.99
865.287	92.5
865.461	-16.04
865.634	76.12
865.808	20.82
865.982	57.68
866.156	80.21
866.329	47.44
866.503	72.02
866.676	26.96
866.85	14.68
867.024	37.2
867.197	51.54
867.371	67.92
867.544	65.88
867.718	51.54
867.891	31.06
868.065	-18.09
868.238	76.12
868.412	33.11
868.585	20.82
868.759	35.16
868.932	-24.23
869.105	6.49
869.279	-20.14
869.452	26.96
869.625	63.83
869.799	121.17
869.972	-20.14
870.145	31.06
870.319	127.32
870.492	45.4
870.665	-34.47
870.838	80.21
871.011	49.49
871.185	31.06
871.358	55.64
871.531	39.25
871.704	67.92
871.877	31.06
872.05	72.02
872.223	39.25
872.396	-1.71
872.569	65.88
872.742	-48.81
872.915	8.53
873.088	-28.33
873.261	8.53
873.434	72.02
873.607	82.26
873.78	59.73
873.953	72.02
874.126	-32.43
874.299	55.64
874.471	-1.71
874.644	33.11
874.817	29.01
874.99	80.21
875.163	8.53
875.335	-9.9
875.508	2.39
875.681	45.4
875.853	20.82
876.026	8.53
876.199	26.96
876.371	14.68
876.544	18.77
876.717	14.68
876.889	-13.99
877.062	22.87
877.234	59.73
877.407	61.78
877.579	61.78
877.752	-7.85
877.924	67.92
878.097	63.83
878.269	55.64
878.442	-11.95
878.614	47.44
878.786	74.07
878.959	45.4
879.131	106.84
879.303	61.78
879.476	43.35
879.648	57.68
879.82	14.68
879.993	31.06
880.165	49.49
880.337	2.39
880.509	45.4
880.681	16.73
880.854	2.39
881.026	22.87
881.198	63.83
881.37	53.59
881.542	100.69
881.714	63.83
881.886	69.97
882.058	-28.33
882.23	119.12
882.402	-22.19
882.574	82.26
882.746	-26.28
882.918	80.21
883.09	24.92
883.262	-9.9
883.434	41.3
883.606	49.49
883.778	-18.09
883.95	63.83
884.122	45.4
884.293	153.94
884.465	8.53
884.637	-9.9
884.809	37.2
884.98	26.96
885.152	8.53
885.324	63.83
885.496	12.63
885.667	10.58
885.839	53.59
886.011	112.98
886.182	31.06
886.354	117.08
886.525	55.64
886.697	31.06
886.869	24.92
887.04	57.68
887.212	39.25
887.383	14.68
887.555	37.2
887.726	0.34
887.897	37.2
888.069	108.88
888.24	-3.75
888.412	16.73
888.583	67.92
888.754	88.4
888.926	4.44
889.097	-5.8
889.268	-40.62
889.44	24.92
889.611	61.78
889.782	74.07
889.953	41.3
890.125	51.54
890.296	18.77
890.467	26.96
890.638	53.59
890.809	72.02
890.98	39.25
891.151	31.06
891.323	43.35
891.494	72.02
891.665	-3.75
891.836	108.88
892.007	20.82
892.178	72.02
892.349	6.49
892.52	18.77
892.691	47.44
892.862	16.73
893.032	4.44
893.203	-1.71
893.374	121.17
893.545	147.8
893.716	-7.85
893.887	43.35
894.057	-38.57
894.228	37.2
894.399	43.35
894.57	53.59
894.74	29.01
894.911	78.16
895.082	80.21
895.253	2.39
895.423	43.35
895.594	55.64
895.764	84.31
895.935	-22.19
896.106	53.59
896.276	-26.28
896.447	2.39
896.617	61.78
896.788	45.4
896.958	-5.8
897.129	-5.8
897.299	-5.8
897.47	69.97
897.64	24.92
897.81	-5.8
897.981	29.01
898.151	55.64
898.322	98.64
898.492	49.49
898.662	16.73
898.832	-7.85
899.003	26.96
899.173	78.16
899.343	63.83
899.513	-7.85
