Data from USB4F104151__99__11-38-01-897.txt Node

Date: Fri Mar 14 11:38:01 EDT 2025
User: louis
Spectrometer: USB4F10415
Trigger mode: 4
Integration Time (sec): 2.000000E-2
Scans to average: 1
Electric dark correction enabled: true
Nonlinearity correction enabled: false
Boxcar width: 0
XAxis mode: Wavelengths
Number of Pixels in Spectrum: 3648
>>>>>Begin Spectral Data<<<<<
178.204	-77.65
178.424	-77.65
178.644	-77.65
178.864	-10.07
179.084	-81.75
179.304	-61.27
179.524	-147.28
179.744	63.66
179.964	55.47
180.184	61.61
180.404	-22.36
180.624	-12.12
180.844	77.99
181.064	-61.27
181.283	-16.21
181.503	8.36
181.723	53.42
181.943	-30.55
182.163	65.71
182.383	39.08
182.602	47.27
182.822	49.32
183.042	45.23
183.262	-18.26
183.482	98.47
183.701	0.17
183.921	-40.79
184.141	-44.88
184.361	39.08
184.58	45.23
184.8	12.46
185.02	20.65
185.239	26.79
185.459	4.27
185.679	51.37
185.898	12.46
186.118	26.79
186.338	73.9
186.557	57.51
186.777	45.23
186.997	-44.88
187.216	47.27
187.436	-26.45
187.655	12.46
187.875	22.7
188.095	-18.26
188.314	14.51
188.534	69.8
188.753	41.13
188.973	59.56
189.192	57.51
189.412	37.03
189.631	-1.88
189.851	0.17
190.07	26.79
190.29	16.55
190.509	-5.97
190.729	47.27
190.948	8.36
191.168	118.95
191.387	112.81
191.607	51.37
191.826	-16.21
192.045	-53.08
192.265	-12.12
192.484	30.89
192.704	45.23
192.923	28.84
193.142	10.41
193.362	10.41
193.581	20.65
193.8	6.31
194.02	49.32
194.239	-22.36
194.458	18.6
194.678	8.36
194.897	-10.07
195.116	49.32
195.335	-57.17
195.555	22.7
195.774	30.89
195.993	0.17
196.212	26.79
196.432	10.41
196.651	30.89
196.87	-16.21
197.089	53.42
197.308	14.51
197.528	53.42
197.747	-3.93
197.966	-10.07
198.185	2.22
198.404	47.27
198.623	65.71
198.842	80.04
199.062	28.84
199.281	49.32
199.5	-34.64
199.719	49.32
199.938	49.32
200.157	49.32
200.376	37.03
200.595	0.17
200.814	-5.97
201.033	-57.17
201.252	75.95
201.471	57.51
201.69	-5.97
201.909	102.57
202.128	-22.36
202.347	20.65
202.566	8.36
202.785	-51.03
203.004	-44.88
203.223	37.03
203.442	114.86
203.661	57.51
203.879	24.75
204.098	55.47
204.317	-20.31
204.536	18.6
204.755	-20.31
204.974	10.41
205.193	22.7
205.411	12.46
205.63	20.65
205.849	34.99
206.068	121
206.287	-32.6
206.505	41.13
206.724	86.19
206.943	-48.98
207.162	-8.02
207.381	-18.26
207.599	59.56
207.818	-36.69
208.037	47.27
208.255	41.13
208.474	55.47
208.693	51.37
208.911	84.14
209.13	-3.93
209.349	43.18
209.567	-8.02
209.786	-38.74
210.005	12.46
210.223	-55.12
210.442	32.94
210.661	45.23
210.879	16.55
211.098	32.94
211.316	-1.88
211.535	73.9
211.753	22.7
211.972	-3.93
212.191	-26.45
212.409	0.17
212.628	41.13
212.846	-8.02
213.065	28.84
213.283	55.47
213.502	16.55
213.72	73.9
213.938	14.51
214.157	73.9
214.375	37.03
214.594	71.85
214.812	63.66
215.031	-8.02
215.249	0.17
215.467	16.55
215.686	-30.55
215.904	98.47
216.122	-22.36
216.341	30.89
216.559	65.71
216.778	67.75
216.996	-8.02
217.214	-3.93
217.432	28.84
217.651	75.95
217.869	14.51
218.087	39.08
218.306	-5.97
218.524	108.71
218.742	59.56
218.96	77.99
219.179	-26.45
219.397	20.65
219.615	4.27
219.833	22.7
220.051	57.51
220.27	2.22
220.488	61.61
220.706	28.84
220.924	-48.98
221.142	92.33
221.36	67.75
221.578	-18.26
221.796	-73.56
222.015	10.41
222.233	57.51
222.451	12.46
222.669	-8.02
222.887	16.55
223.105	34.99
223.323	4.27
223.541	-22.36
223.759	118.95
223.977	16.55
224.195	65.71
224.413	69.8
224.631	51.37
224.849	49.32
225.067	45.23
225.285	-32.6
225.503	39.08
225.721	-32.6
225.939	-51.03
226.157	69.8
226.375	69.8
226.592	2.22
226.81	84.14
227.028	45.23
227.246	8.36
227.464	67.75
227.682	-8.02
227.9	65.71
228.117	24.75
228.335	2.22
228.553	37.03
228.771	-5.97
228.989	-16.21
229.206	69.8
229.424	14.51
229.642	-12.12
229.86	41.13
230.077	12.46
230.295	90.28
230.513	104.62
230.731	37.03
230.948	77.99
231.166	92.33
231.384	20.65
231.601	-40.79
231.819	49.32
232.037	-69.46
232.254	-40.79
232.472	10.41
232.689	69.8
232.907	14.51
233.125	67.75
233.342	-48.98
233.56	34.99
233.777	20.65
233.995	39.08
234.213	-22.36
234.43	-12.12
234.648	61.61
234.865	-8.02
235.083	39.08
235.3	-16.21
235.518	37.03
235.735	-28.5
235.953	30.89
236.17	-18.26
236.388	2.22
236.605	-18.26
236.822	67.75
237.04	104.62
237.257	41.13
237.475	16.55
237.692	69.8
237.909	20.65
238.127	51.37
238.344	71.85
238.562	-12.12
238.779	20.65
238.996	32.94
239.214	-1.88
239.431	61.61
239.648	0.17
239.865	16.55
240.083	-38.74
240.3	20.65
240.517	-3.93
240.735	106.67
240.952	47.27
241.169	86.19
241.386	53.42
241.603	55.47
241.821	28.84
242.038	94.38
242.255	4.27
242.472	18.6
242.689	37.03
242.907	63.66
243.124	37.03
243.341	-36.69
243.558	14.51
243.775	-59.22
243.992	-51.03
244.209	-16.21
244.426	-3.93
244.643	-5.97
244.86	-26.45
245.078	20.65
245.295	-79.7
245.512	80.04
245.729	57.51
245.946	51.37
246.163	53.42
246.38	47.27
246.597	-73.56
246.814	141.48
247.031	22.7
247.248	104.62
247.464	32.94
247.681	43.18
247.898	4.27
248.115	-12.12
248.332	22.7
248.549	-14.17
248.766	24.75
248.983	41.13
249.2	6.31
249.417	41.13
249.633	-40.79
249.85	43.18
250.067	57.51
250.284	20.65
250.501	20.65
250.717	-5.97
250.934	-59.22
251.151	-3.93
251.368	-12.12
251.585	10.41
251.801	86.19
252.018	26.79
252.235	14.51
252.451	-28.5
252.668	-51.03
252.885	-10.07
253.102	110.76
253.318	-8.02
253.535	6.31
253.752	55.47
253.968	16.55
254.185	63.66
254.401	0.17
254.618	26.79
254.835	32.94
255.051	106.67
255.268	24.75
255.484	18.6
255.701	43.18
255.917	12.46
256.134	61.61
256.351	18.6
256.567	69.8
256.784	77.99
257	47.27
257.217	73.9
257.433	77.99
257.65	37.03
257.866	16.55
258.082	8.36
258.299	16.55
258.515	53.42
258.732	8.36
258.948	8.36
259.165	61.61
259.381	-10.07
259.597	53.42
259.814	39.08
260.03	28.84
260.246	112.81
260.463	0.17
260.679	-40.79
260.895	24.75
261.112	34.99
261.328	16.55
261.544	2.22
261.761	71.85
261.977	53.42
262.193	-22.36
262.409	18.6
262.626	61.61
262.842	8.36
263.058	-83.8
263.274	47.27
263.49	0.17
263.707	67.75
263.923	-38.74
264.139	24.75
264.355	10.41
264.571	80.04
264.787	55.47
265.004	63.66
265.22	24.75
265.436	32.94
265.652	8.36
265.868	4.27
266.084	26.79
266.3	69.8
266.516	-20.31
266.732	45.23
266.948	30.89
267.164	77.99
267.38	8.36
267.596	20.65
267.812	47.27
268.028	69.8
268.244	71.85
268.46	82.09
268.676	51.37
268.892	41.13
269.108	12.46
269.324	-89.94
269.54	10.41
269.756	24.75
269.972	-24.4
270.188	2.22
270.403	-36.69
270.619	30.89
270.835	59.56
271.051	63.66
271.267	37.03
271.483	100.52
271.698	28.84
271.914	26.79
272.13	32.94
272.346	51.37
272.562	47.27
272.777	39.08
272.993	139.43
273.209	63.66
273.425	-10.07
273.64	-36.69
273.856	22.7
274.072	-48.98
274.287	-10.07
274.503	100.52
274.719	49.32
274.934	28.84
275.15	20.65
275.366	-24.4
275.581	18.6
275.797	12.46
276.012	43.18
276.228	71.85
276.444	20.65
276.659	45.23
276.875	24.75
277.09	47.27
277.306	-8.02
277.521	102.57
277.737	24.75
277.952	32.94
278.168	22.7
278.383	28.84
278.599	53.42
278.814	57.51
279.03	4.27
279.245	59.56
279.461	-14.17
279.676	30.89
279.892	47.27
280.107	-5.97
280.322	2.22
280.538	77.99
280.753	-83.8
280.969	49.32
281.184	-36.69
281.399	90.28
281.615	37.03
281.83	69.8
282.045	-18.26
282.26	82.09
282.476	37.03
282.691	-30.55
282.906	55.47
283.122	100.52
283.337	-8.02
283.552	75.95
283.767	14.51
283.983	32.94
284.198	-14.17
284.413	4.27
284.628	10.41
284.843	-3.93
285.058	80.04
285.274	69.8
285.489	-3.93
285.704	92.33
285.919	90.28
286.134	86.19
286.349	12.46
286.564	57.51
286.779	63.66
286.995	77.99
287.21	-5.97
287.425	53.42
287.64	26.79
287.855	2.22
288.07	4.27
288.285	28.84
288.5	4.27
288.715	65.71
288.93	24.75
289.145	37.03
289.36	118.95
289.575	32.94
289.79	123.05
290.004	65.71
290.219	18.6
290.434	12.46
290.649	-5.97
290.864	77.99
291.079	49.32
291.294	14.51
291.509	57.51
291.724	80.04
291.938	-18.26
292.153	16.55
292.368	0.17
292.583	2.22
292.798	51.37
293.012	-10.07
293.227	14.51
293.442	28.84
293.657	51.37
293.871	51.37
294.086	37.03
294.301	-42.84
294.516	8.36
294.73	-5.97
294.945	14.51
295.16	-18.26
295.374	82.09
295.589	28.84
295.804	100.52
296.018	24.75
296.233	12.46
296.447	57.51
296.662	-69.46
296.877	45.23
297.091	16.55
297.306	75.95
297.52	71.85
297.735	34.99
297.949	63.66
298.164	-22.36
298.378	84.14
298.593	4.27
298.807	-12.12
299.022	10.41
299.236	80.04
299.451	28.84
299.665	53.42
299.88	0.17
300.094	0.17
300.309	41.13
300.523	86.19
300.737	2.22
300.952	98.47
301.166	67.75
301.381	86.19
301.595	-10.07
301.809	82.09
302.024	34.99
302.238	-20.31
302.452	26.79
302.667	45.23
302.881	-34.64
303.095	75.95
303.309	-59.22
303.524	-46.93
303.738	16.55
303.952	32.94
304.166	4.27
304.381	-22.36
304.595	6.31
304.809	49.32
305.023	57.51
305.237	80.04
305.452	45.23
305.666	32.94
305.88	34.99
306.094	-14.17
306.308	32.94
306.522	88.23
306.736	10.41
306.95	22.7
307.164	4.27
307.379	-40.79
307.593	22.7
307.807	14.51
308.021	43.18
308.235	71.85
308.449	28.84
308.663	88.23
308.877	41.13
309.091	2.22
309.305	67.75
309.519	16.55
309.733	69.8
309.947	82.09
310.161	63.66
310.374	47.27
310.588	6.31
310.802	51.37
311.016	75.95
311.23	80.04
311.444	14.51
311.658	4.27
311.872	92.33
312.085	59.56
312.299	63.66
312.513	32.94
312.727	28.84
312.941	34.99
313.154	41.13
313.368	47.27
313.582	51.37
313.796	24.75
314.009	28.84
314.223	16.55
314.437	47.27
314.651	41.13
314.864	51.37
315.078	71.85
315.292	6.31
315.505	80.04
315.719	-30.55
315.933	51.37
316.146	24.75
316.36	43.18
316.573	63.66
316.787	-8.02
317.001	98.47
317.214	2.22
317.428	-5.97
317.641	-51.03
317.855	37.03
318.068	45.23
318.282	4.27
318.495	155.82
318.709	41.13
318.922	-32.6
319.136	43.18
319.349	45.23
319.563	-5.97
319.776	26.79
319.99	43.18
320.203	22.7
320.417	86.19
320.63	20.65
320.843	39.08
321.057	49.32
321.27	77.99
321.483	-14.17
321.697	16.55
321.91	-44.88
322.124	69.8
322.337	-5.97
322.55	6.31
322.763	28.84
322.977	32.94
323.19	37.03
323.403	16.55
323.617	28.84
323.83	37.03
324.043	-5.97
324.256	51.37
324.469	57.51
324.683	86.19
324.896	24.75
325.109	-8.02
325.322	22.7
325.535	114.86
325.748	4.27
325.962	41.13
326.175	14.51
326.388	63.66
326.601	16.55
326.814	59.56
327.027	-14.17
327.24	102.57
327.453	32.94
327.666	67.75
327.879	47.27
328.092	102.57
328.305	14.51
328.518	51.37
328.731	90.28
328.944	73.9
329.157	12.46
329.37	16.55
329.583	82.09
329.796	63.66
330.009	-24.4
330.222	12.46
330.435	0.17
330.648	45.23
330.861	43.18
331.073	34.99
331.286	102.57
331.499	-10.07
331.712	-48.98
331.925	84.14
332.138	82.09
332.35	12.46
332.563	65.71
332.776	41.13
332.989	53.42
333.202	77.99
333.414	49.32
333.627	71.85
333.84	82.09
334.053	65.71
334.265	102.57
334.478	16.55
334.691	73.9
334.903	123.05
335.116	0.17
335.329	22.7
335.541	73.9
335.754	53.42
335.966	49.32
336.179	63.66
336.392	55.47
336.604	69.8
336.817	30.89
337.029	80.04
337.242	28.84
337.454	12.46
337.667	14.51
337.88	92.33
338.092	2.22
338.305	24.75
338.517	-14.17
338.729	127.14
338.942	4.27
339.154	73.9
339.367	-40.79
339.579	71.85
339.792	32.94
340.004	2.22
340.217	20.65
340.429	98.47
340.641	67.75
340.854	34.99
341.066	24.75
341.278	80.04
341.491	75.95
341.703	77.99
341.915	47.27
342.128	41.13
342.34	39.08
342.552	0.17
342.764	4.27
342.977	114.86
343.189	102.57
343.401	30.89
343.613	57.51
343.826	106.67
344.038	96.43
344.25	26.79
344.462	-12.12
344.674	22.7
344.886	127.14
345.099	43.18
345.311	94.38
345.523	-3.93
345.735	49.32
345.947	61.61
346.159	14.51
346.371	12.46
346.583	18.6
346.795	26.79
347.007	-42.84
347.219	69.8
347.431	26.79
347.643	51.37
347.855	14.51
348.067	51.37
348.279	-8.02
348.491	57.51
348.703	28.84
348.915	2.22
349.127	59.56
349.339	65.71
349.551	28.84
349.763	37.03
349.975	6.31
350.187	63.66
350.399	24.75
350.61	41.13
350.822	-53.08
351.034	51.37
351.246	20.65
351.458	6.31
351.669	53.42
351.881	43.18
352.093	22.7
352.305	67.75
352.517	-26.45
352.728	106.67
352.94	-3.93
353.152	71.85
353.363	12.46
353.575	67.75
353.787	-18.26
353.999	4.27
354.21	10.41
354.422	24.75
354.633	16.55
354.845	37.03
355.057	-53.08
355.268	73.9
355.48	65.71
355.692	10.41
355.903	10.41
356.115	47.27
356.326	24.75
356.538	73.9
356.749	28.84
356.961	92.33
357.172	2.22
357.384	22.7
357.595	73.9
357.807	100.52
358.018	-44.88
358.23	49.32
358.441	34.99
358.653	57.51
358.864	-53.08
359.075	67.75
359.287	63.66
359.498	67.75
359.709	28.84
359.921	51.37
360.132	84.14
360.344	114.86
360.555	-10.07
360.766	26.79
360.977	-22.36
361.189	-24.4
361.4	45.23
361.611	84.14
361.823	41.13
362.034	104.62
362.245	-10.07
362.456	51.37
362.667	28.84
362.879	90.28
363.09	47.27
363.301	106.67
363.512	43.18
363.723	69.8
363.935	67.75
364.146	69.8
364.357	10.41
364.568	104.62
364.779	14.51
364.99	61.61
365.201	41.13
365.412	55.47
365.623	28.84
365.834	77.99
366.045	26.79
366.256	26.79
366.467	86.19
366.678	106.67
366.889	63.66
367.1	41.13
367.311	84.14
367.522	12.46
367.733	61.61
367.944	39.08
368.155	63.66
368.366	41.13
368.577	84.14
368.788	73.9
368.999	-30.55
369.209	86.19
369.42	114.86
369.631	133.29
369.842	110.76
370.053	63.66
370.264	2.22
370.474	37.03
370.685	32.94
370.896	37.03
371.107	41.13
371.317	57.51
371.528	92.33
371.739	39.08
371.95	73.9
372.16	-28.5
372.371	47.27
372.582	24.75
372.792	77.99
373.003	82.09
373.214	12.46
373.424	131.24
373.635	71.85
373.846	82.09
374.056	32.94
374.267	59.56
374.477	45.23
374.688	80.04
374.898	-18.26
375.109	37.03
375.319	90.28
375.53	96.43
375.74	4.27
375.951	55.47
376.161	-46.93
376.372	53.42
376.582	90.28
376.793	73.9
377.003	28.84
377.214	2.22
377.424	71.85
377.635	49.32
377.845	16.55
378.055	102.57
378.266	106.67
378.476	45.23
378.686	47.27
378.897	28.84
379.107	41.13
379.317	61.61
379.528	57.51
379.738	12.46
379.948	26.79
380.158	110.76
380.369	65.71
380.579	96.43
380.789	90.28
380.999	12.46
381.21	92.33
381.42	77.99
381.63	86.19
381.84	12.46
382.05	6.31
382.261	34.99
382.471	32.94
382.681	67.75
382.891	41.13
383.101	73.9
383.311	127.14
383.521	-59.22
383.731	114.86
383.941	92.33
384.151	82.09
384.361	-16.21
384.571	61.61
384.781	63.66
384.991	63.66
385.201	32.94
385.411	73.9
385.621	82.09
385.831	49.32
386.041	57.51
386.251	-42.84
386.461	49.32
386.671	39.08
386.881	84.14
387.091	59.56
387.301	59.56
387.511	73.9
387.72	82.09
387.93	59.56
388.14	12.46
388.35	90.28
388.56	75.95
388.769	45.23
388.979	82.09
389.189	20.65
389.399	32.94
389.609	-1.88
389.818	100.52
390.028	28.84
390.238	139.43
390.447	63.66
390.657	69.8
390.867	82.09
391.076	104.62
391.286	-14.17
391.496	0.17
391.705	96.43
391.915	80.04
392.125	24.75
392.334	55.47
392.544	49.32
392.753	8.36
392.963	20.65
393.172	149.67
393.382	32.94
393.591	98.47
393.801	57.51
394.01	98.47
394.22	51.37
394.429	121
394.639	8.36
394.848	106.67
395.058	24.75
395.267	102.57
395.477	108.71
395.686	100.52
395.895	114.86
396.105	166.06
396.314	137.38
396.524	110.76
396.733	98.47
396.942	49.32
397.152	112.81
397.361	104.62
397.57	125.1
397.78	127.14
397.989	88.23
398.198	77.99
398.407	164.01
398.617	96.43
398.826	71.85
399.035	45.23
399.244	63.66
399.453	55.47
399.663	28.84
399.872	127.14
400.081	114.86
400.29	88.23
400.499	141.48
400.708	45.23
400.917	86.19
401.127	135.34
401.336	96.43
401.545	65.71
401.754	131.24
401.963	139.43
402.172	106.67
402.381	69.8
402.59	98.47
402.799	98.47
403.008	145.58
403.217	123.05
403.426	123.05
403.635	73.9
403.844	172.2
404.053	112.81
404.262	147.62
404.471	133.29
404.68	151.72
404.888	184.49
405.097	106.67
405.306	123.05
405.515	159.91
405.724	123.05
405.933	198.82
406.142	166.06
406.35	188.58
406.559	188.58
406.768	145.58
406.977	254.12
407.185	180.39
407.394	186.54
407.603	131.24
407.812	225.45
408.02	164.01
408.229	213.16
408.438	254.12
408.646	227.5
408.855	256.17
409.064	268.45
409.272	204.97
409.481	297.13
409.69	260.26
409.898	299.17
410.107	290.98
410.315	303.27
410.524	270.5
410.733	303.27
410.941	241.83
411.15	403.62
411.358	319.65
411.567	436.39
411.775	387.24
411.984	307.37
412.192	397.48
412.401	391.33
412.609	395.43
412.818	473.25
413.026	422.05
413.234	516.26
413.443	544.93
413.651	483.49
413.86	438.44
414.068	542.88
414.276	589.99
414.485	575.65
414.693	710.82
414.901	694.43
415.11	659.62
415.318	653.47
415.526	690.34
415.734	757.92
415.943	741.54
416.151	807.07
416.359	759.97
416.567	886.94
416.776	721.06
416.984	1005.72
417.192	848.03
417.4	946.33
417.608	882.85
417.817	999.58
418.025	1030.3
418.233	1003.68
418.441	1015.96
418.649	1104.03
418.857	1144.99
419.065	1204.38
419.273	1196.18
419.481	1224.86
419.689	1296.53
419.897	1339.54
420.105	1400.98
420.313	1398.93
420.521	1568.91
420.729	1540.24
420.937	1515.67
421.145	1636.5
421.353	1722.51
421.561	1843.34
421.769	1722.51
421.977	2015.37
422.185	1777.81
422.393	1970.32
422.601	2056.33
422.809	2113.67
423.017	2130.06
423.224	2136.2
423.432	2322.57
423.64	2265.22
423.848	2349.19
424.056	2390.15
424.263	2588.8
424.471	2728.07
424.679	2707.59
424.887	2973.82
425.094	2904.19
425.302	2846.85
425.51	3055.74
425.718	3250.3
425.925	3143.8
426.133	3209.34
426.341	3514.49
426.548	3647.6
426.756	3573.88
426.964	3709.04
427.171	3797.1
427.379	3993.71
427.586	4077.68
427.794	4139.12
428.001	4313.19
428.209	4634.72
428.417	4315.24
428.624	4663.4
428.832	4644.96
429.039	4780.13
429.247	4700.26
429.454	5253.21
429.662	5546.07
429.869	5124.19
430.076	5521.49
430.284	5507.16
430.491	5515.35
430.699	5881.94
430.906	6027.34
431.114	6172.75
431.321	6256.72
431.528	6338.63
431.736	6635.59
431.943	7108.67
432.15	6957.12
432.358	6942.78
432.565	7225.4
432.772	7180.35
432.979	7671.86
433.187	7714.87
433.394	7897.14
433.601	8529.96
433.808	8452.14
434.016	8421.42
434.223	8843.3
434.43	9246.75
434.637	9084.96
434.844	9623.58
435.052	9832.47
435.259	9648.15
435.466	9930.77
435.673	9768.98
435.88	10348.56
436.087	10903.56
436.294	10977.28
436.501	10559.5
436.708	10870.79
436.915	11085.83
437.122	11784.18
437.329	11749.37
437.537	11964.4
437.743	12347.37
437.95	12255.22
438.157	13000.68
438.364	13359.07
438.571	13324.26
438.778	13434.85
438.985	14444.49
439.192	13991.89
439.399	14358.48
439.606	14032.85
439.813	14907.34
440.02	15775.67
440.227	15650.75
440.433	15656.89
440.64	16043.96
440.847	15933.37
441.054	16330.67
441.261	17276.84
441.467	17287.07
441.674	17473.44
441.881	18005.91
442.088	17985.43
442.294	18141.08
442.501	18331.54
442.708	18583.44
442.914	19371.91
443.121	20139.9
443.328	19484.55
443.534	21241.7
443.741	20416.37
443.948	20574.06
444.154	21696.35
444.361	21589.86
444.568	21964.64
444.774	21712.74
444.981	22120.28
445.187	22531.92
445.394	23897.92
445.6	23435.08
445.807	25874.21
446.013	24512.31
446.22	24971.05
446.426	25921.31
446.633	26545.94
446.839	27350.79
447.046	26177.31
447.252	27506.44
447.459	27744
447.665	27223.82
447.871	28772.08
448.078	29972.19
448.284	28710.64
448.491	29073.14
448.697	30340.83
448.903	31219.41
449.11	31106.77
449.316	30586.58
449.522	31289.04
449.728	31848.13
449.935	32235.2
450.141	32429.76
450.347	33089.2
450.553	32380.6
450.76	32345.79
450.966	33476.27
451.172	33105.59
451.378	33898.15
451.584	33793.7
451.791	34485.92
451.997	34096.8
452.203	34469.53
452.409	34647.71
452.615	34418.33
452.821	33257.14
453.027	32786.1
453.233	34408.09
453.44	33244.85
453.646	33779.37
453.852	33752.74
454.058	34227.87
454.264	33013.43
454.47	34000.55
454.676	33353.39
454.882	34406.05
455.088	31549.13
455.294	32057.03
455.5	32227.01
455.705	32634.55
455.911	31663.82
456.117	30584.54
456.323	30066.4
456.529	28802.8
456.735	29898.47
456.941	29597.42
457.147	28845.81
457.352	27850.5
457.558	27508.49
457.764	27604.74
457.97	26980.11
458.176	26814.23
458.381	26427.16
458.587	25292.58
458.793	25450.28
458.999	23828.29
459.204	25646.88
459.41	24772.4
459.616	23412.55
459.821	23562.05
460.027	23314.25
460.233	22820.69
460.438	21522.27
460.644	22064.99
460.85	21010.28
461.055	20737.9
461.261	20756.33
461.466	19089.29
461.672	18487.18
461.878	19529.6
462.083	18335.63
462.289	18005.91
462.494	17958.81
462.7	17336.23
462.905	16658.35
463.111	17008.55
463.316	17268.64
463.522	17074.09
463.727	16926.63
463.932	17115.05
464.138	16736.17
464.343	16779.18
464.549	16236.47
464.754	16664.49
464.959	16707.5
465.165	16514.99
465.37	15822.78
465.575	15851.45
465.781	16175.03
465.986	16211.89
466.191	15626.17
466.397	15507.39
466.602	14583.76
466.807	15028.17
467.012	14974.92
467.218	14876.62
467.423	14741.45
467.628	15073.22
467.833	15558.59
468.038	14985.16
468.244	14534.6
468.449	15212.48
468.654	14774.22
468.859	14833.61
469.064	14585.8
469.269	13955.03
469.474	14006.23
469.679	14426.06
469.885	14026.71
470.09	13887.45
470.295	14004.18
470.5	13729.75
470.705	13674.46
470.91	13434.85
471.115	13354.97
471.32	13455.33
471.525	13395.93
471.73	13336.54
471.935	12939.24
472.139	12636.14
472.344	12871.65
472.549	13068.26
472.754	12851.17
472.959	12400.62
473.164	12017.65
473.369	12208.11
473.574	12277.74
473.778	12296.18
473.983	11755.51
474.188	11898.87
474.393	11409.4
474.598	11454.46
474.802	11237.38
475.007	11137.02
475.212	11278.33
475.417	10809.35
475.621	11200.51
475.826	11048.96
476.031	10627.08
476.235	10756.1
476.44	10893.32
476.645	10665.99
476.849	10625.03
477.054	10453
477.259	10252.3
477.463	10364.94
477.668	10014.74
477.872	10174.48
478.077	10000.4
478.282	9580.57
478.486	9791.51
478.691	9441.31
478.895	9666.58
479.1	9568.28
479.304	9617.43
479.509	9285.66
479.713	9310.24
479.918	9254.94
480.122	9009.19
480.326	9140.26
480.531	9189.41
480.735	8945.7
480.94	9328.67
481.144	9240.61
481.348	8851.49
481.553	9254.94
481.757	8773.67
481.961	8980.51
482.166	8988.71
482.37	8884.26
482.574	8892.45
482.778	8779.81
482.983	8861.73
483.187	8831.01
483.391	9021.47
483.595	8861.73
483.8	8773.67
484.004	8841.25
484.208	8953.89
484.412	8777.76
484.616	8871.97
484.821	8847.4
485.025	8593.45
485.229	8749.09
485.433	8683.56
485.637	8919.07
485.841	8798.24
486.045	8671.27
486.249	8810.53
486.453	8745
486.657	8886.31
486.861	8964.13
487.065	8693.8
487.269	8968.23
487.473	8732.71
487.677	8937.51
487.881	8828.96
488.085	8779.81
488.289	8798.24
488.493	8980.51
488.697	8914.98
488.901	9003.04
489.105	8869.92
489.309	8921.12
489.512	9080.86
489.716	8966.18
489.92	8820.77
490.124	8935.46
490.328	9056.29
490.531	9142.3
490.735	9013.28
490.939	9416.73
491.143	9263.13
491.346	9162.78
491.55	9160.73
491.754	9226.27
491.958	9359.39
492.161	9535.51
492.365	9240.61
492.569	9406.49
492.772	9293.85
492.976	9398.3
493.18	9625.62
493.383	9541.66
493.587	9629.72
493.79	9779.22
493.994	9547.8
494.197	9846.8
494.401	9865.24
494.605	9867.28
494.808	10029.07
495.012	10106.9
495.215	10158.1
495.419	10205.2
495.622	9969.68
495.825	10237.97
496.029	10561.55
496.232	10719.24
496.436	10620.94
496.639	10897.41
496.843	10817.54
497.046	10971.14
497.249	11003.91
497.453	11218.94
497.656	11128.83
497.859	11216.9
498.063	11401.21
498.266	11763.7
498.469	11802.61
498.673	11606.01
498.876	11991.03
499.079	12185.58
499.282	12062.71
499.485	12451.82
499.689	12351.47
499.892	12634.09
500.095	12662.76
500.298	12730.34
500.501	13037.54
500.705	13305.82
500.908	13225.95
501.111	13314.02
501.314	13615.07
501.517	13934.55
501.72	14002.13
501.923	13809.62
502.126	14165.97
502.329	14610.38
502.532	14292.94
502.735	14432.21
502.938	14725.07
503.141	14958.53
503.344	15321.02
503.547	15157.19
503.75	15425.47
503.953	15534.01
504.156	15706.04
504.359	15878.07
504.562	15779.77
504.765	16117.68
504.968	16242.61
505.17	16627.63
505.373	16611.25
505.576	16875.43
505.779	17029.03
505.982	17334.18
506.185	17434.53
506.387	17674.14
506.59	17588.13
506.793	18036.63
506.996	18073.49
507.198	18560.91
507.401	18374.55
507.604	18665.36
507.807	19111.82
508.009	19029.9
508.212	19203.97
508.415	19666.81
508.617	19785.6
508.82	19558.27
509.022	19982.2
509.225	20127.61
509.428	20404.08
509.63	20612.98
509.833	20655.98
510.035	21184.36
510.238	21241.7
510.44	21276.52
510.643	21819.23
510.845	21927.77
511.048	21897.05
511.25	22284.12
511.453	22380.37
511.655	23072.59
511.858	23039.82
512.06	23246.66
512.262	23334.73
512.465	23422.79
512.667	23932.73
512.87	24004.41
513.072	24244.02
513.274	24522.55
513.477	24751.92
513.679	24725.3
513.881	25057.07
514.084	25308.97
514.286	25311.02
514.488	25689.89
514.69	26224.41
514.893	26142.49
515.095	26435.35
515.297	26666.77
515.499	26625.81
515.701	27301.64
515.904	27150.09
516.106	27612.93
516.308	27449.1
516.51	27963.14
516.712	27739.91
516.914	28460.79
517.116	28645.11
517.318	28827.38
517.52	29003.5
517.722	29058.8
517.925	29445.87
518.127	29605.61
518.329	30074.59
518.531	29853.41
518.733	30406.36
518.935	30680.79
519.136	30461.66
519.338	31045.33
519.54	30912.21
519.742	31739.59
519.944	31639.24
520.146	31983.3
520.348	32245.44
520.55	32374.46
520.752	32351.93
520.954	32757.43
521.155	32702.14
521.357	33261.23
521.559	33447.6
521.761	33912.49
521.963	33765.03
522.164	33564.33
522.366	33801.89
522.568	34571.93
522.77	34524.83
522.971	35055.25
523.173	34956.95
523.375	35290.77
523.576	35147.41
523.778	35223.19
523.98	35391.12
524.181	35620.49
524.383	35665.55
524.584	35950.21
524.786	36095.62
524.988	36230.79
525.189	36312.7
525.391	36578.94
525.592	36763.26
525.794	37176.95
525.995	37088.88
526.197	36933.24
526.398	37037.69
526.6	37445.23
526.801	37527.15
527.003	37594.73
527.204	37693.04
527.406	38086.25
527.607	37844.59
527.808	38141.54
528.01	37572.21
528.211	38147.68
528.412	39028.31
528.614	38422.11
528.815	38669.92
529.016	38887
529.218	38176.36
529.419	39118.42
529.62	38991.45
529.822	38893.15
530.023	38893.15
530.224	38966.87
530.425	39186
530.626	38999.64
530.828	38678.11
531.029	39659.09
531.23	38999.64
531.431	39183.96
531.632	39239.25
531.833	39480.91
532.035	39671.37
532.236	39437.9
532.437	39870.03
532.638	39249.49
532.839	39650.89
533.04	39958.09
533.241	39216.72
533.442	40130.12
533.643	39863.88
533.844	39579.21
534.045	39929.42
534.246	39374.42
534.447	39876.17
534.648	39452.24
534.849	39695.95
535.05	39720.52
535.251	39861.83
535.451	39538.26
535.652	40083.02
535.853	39870.03
536.054	39786.06
536.255	40232.52
536.456	39642.7
536.657	40351.3
536.857	39831.11
537.058	39784.01
537.259	39988.81
537.46	39753.29
537.66	39843.4
537.861	39937.61
538.062	39652.94
538.263	39439.95
538.463	39634.51
538.664	39652.94
538.865	39999.05
539.065	39831.11
539.266	39315.03
539.466	39968.33
539.667	39470.67
539.868	40046.15
540.068	39661.13
540.269	39804.49
540.469	40078.92
540.67	39669.33
540.87	39788.11
541.071	39671.37
541.271	40019.53
541.472	39515.73
541.672	39704.14
541.873	39837.26
542.073	39616.08
542.274	39843.4
542.474	39573.07
542.675	39091.8
542.875	40093.25
543.075	39771.72
543.276	39210.58
543.476	39843.4
543.676	39128.66
543.877	39853.64
544.077	39898.7
544.277	39358.03
544.478	39880.27
544.678	39503.44
544.878	39515.73
545.078	39902.79
545.279	39499.34
545.479	39417.43
545.679	39413.33
545.879	39511.63
546.079	39341.65
546.28	39353.94
546.48	39192.15
546.68	39302.74
546.88	39323.22
547.08	39630.41
547.28	39556.69
547.48	39196.24
547.68	39245.4
547.88	39083.61
548.081	39700.04
548.281	39257.68
548.481	39183.96
548.681	39462.48
548.881	39355.99
549.081	39566.93
549.28	39331.41
549.48	39366.23
549.68	39054.93
549.88	39515.73
550.08	39007.83
550.28	39161.43
550.48	39095.89
550.68	39429.71
550.88	39274.07
551.08	38766.17
551.279	39138.9
551.479	38946.39
551.679	38897.24
551.879	39231.06
552.079	39155.29
552.278	39095.89
552.478	39122.52
552.678	38843.99
552.878	39179.86
553.077	39218.77
553.277	38598.24
553.477	39159.38
553.676	38803.03
553.876	38954.58
554.076	38944.34
554.275	38735.45
554.475	38407.78
554.674	39097.94
554.874	39124.57
555.074	38542.94
555.273	38848.09
555.473	38815.32
555.672	38170.21
555.872	38618.72
556.071	38997.59
556.271	38559.33
556.47	38104.68
556.67	38465.12
556.869	38278.75
557.068	38798.94
557.268	38456.93
557.467	38657.63
557.667	38364.77
557.866	38127.2
558.065	38426.21
558.265	38119.01
558.464	38028.9
558.663	38395.49
558.863	37875.3
559.062	38405.73
559.261	37729.9
559.461	38461.02
559.66	37713.52
559.859	37922.41
560.058	37678.7
560.258	37815.91
560.457	37396.08
560.656	37711.47
560.855	37723.76
561.054	37930.6
561.253	37203.57
561.453	37482.09
561.652	37555.82
561.851	37332.59
562.05	37351.02
562.249	37209.71
562.448	37228.15
562.647	37529.2
562.846	36810.36
563.045	36900.47
563.244	36873.85
563.443	37678.7
563.642	37111.41
563.841	37189.24
564.04	37086.84
564.239	37332.59
564.438	37312.11
564.637	36656.76
564.836	36888.18
565.035	36720.25
565.234	36671.1
565.432	36621.95
565.631	36480.64
565.83	36687.48
566.029	36499.07
566.228	36038.28
566.427	36560.51
566.625	36220.55
566.824	35925.64
567.023	36261.51
567.222	35636.87
567.42	36372.1
567.619	35839.62
567.818	35757.71
568.016	35706.51
568.215	36103.81
568.414	35782.28
568.612	35972.74
568.811	35554.96
569.01	35499.66
569.208	35102.36
569.407	35690.12
569.605	34993.81
569.804	35430.03
570.002	35094.16
570.201	35069.59
570.4	35149.46
570.598	34881.17
570.797	34801.3
570.995	34840.22
571.193	34483.87
571.392	35075.73
571.59	34498.2
571.789	34754.2
571.987	34571.93
572.186	34504.35
572.384	34342.56
572.582	34295.46
572.781	34485.92
572.979	33597.1
573.177	34115.23
573.376	34229.92
573.574	33916.58
573.772	33965.73
573.971	34012.84
574.169	33787.56
574.367	33566.38
574.565	34066.08
574.763	33570.47
574.962	33683.11
575.16	33134.26
575.358	33625.77
575.556	33111.73
575.754	33609.39
575.952	32722.62
576.151	33412.78
576.349	33134.26
576.547	33097.39
576.745	33015.47
576.943	32835.25
577.141	32829.11
577.339	33285.81
577.537	32542.39
577.735	32657.08
577.933	32360.12
578.131	32886.45
578.329	32292.54
578.527	32407.23
578.725	32128.7
578.923	32190.14
579.121	32325.31
579.319	32145.09
579.516	32460.48
579.714	31542.99
579.912	31835.84
580.11	31602.38
580.308	32077.51
580.506	31637.19
580.704	31162.06
580.901	31493.83
581.099	31700.68
581.297	31231.69
581.495	31375.05
581.692	31182.54
581.89	31004.37
582.088	31000.27
582.285	30713.56
582.483	31373
582.681	30828.24
582.878	30572.25
583.076	30588.63
583.274	30592.73
583.471	30031.58
583.669	30293.72
583.866	30203.61
584.064	30471.9
584.262	30162.65
584.459	30490.33
584.657	30093.02
584.854	30164.7
585.052	29755.11
585.249	29681.38
585.447	30125.79
585.644	29370.09
585.841	29966.05
586.039	29920.99
586.236	29480.68
586.434	29394.67
586.631	29406.95
586.828	29695.72
587.026	29474.54
587.223	29544.17
587.42	29036.27
587.618	28856.05
587.815	28690.16
588.012	28692.21
588.21	28776.18
588.407	28989.17
588.604	28606.2
588.801	28505.85
588.999	28364.54
589.196	28454.65
589.393	28241.66
589.59	28397.31
589.787	28387.07
589.984	28200.7
590.182	27844.35
590.379	28258.04
590.576	27762.44
590.773	28165.88
590.97	27514.63
591.167	27666.18
591.364	27291.4
591.561	27528.97
591.758	27043.6
591.955	27268.87
592.152	27592.45
592.349	27219.72
592.546	27199.24
592.743	27201.29
592.94	26715.92
593.137	27244.3
593.334	26916.62
593.531	26535.7
593.727	26767.12
593.924	26879.76
594.121	26554.13
594.318	26906.38
594.515	25970.46
594.712	26890
594.908	25845.54
595.105	26382.1
595.302	26017.57
595.499	26269.47
595.696	26025.76
595.892	25851.68
596.089	25782.05
596.286	25949.98
596.482	25554.72
596.679	25702.18
596.876	25409.32
597.072	25372.46
597.269	25560.87
597.466	25184.04
597.662	25315.11
597.859	25321.26
598.055	25401.13
598.252	24813.36
598.448	25009.97
598.645	25026.35
598.841	24571.7
599.038	25034.54
599.234	25141.04
599.431	24596.28
599.627	24348.47
599.824	24729.39
600.02	24430.39
600.217	24198.97
600.413	24186.68
600.609	24010.56
600.806	23809.86
601.002	24153.91
601.198	23916.35
601.395	23738.18
601.591	23942.97
601.787	24033.08
601.984	23818.05
602.18	23660.35
602.376	23666.5
602.572	23469.89
602.769	23725.89
602.965	23166.79
603.161	23185.22
603.357	23068.49
603.553	23230.28
603.75	23564.1
603.946	22861.65
604.142	22978.38
604.338	22798.16
604.534	22718.29
604.73	22443.86
604.926	22550.35
605.122	22622.03
605.318	22689.62
605.514	22312.79
605.71	22413.14
605.906	22359.89
606.102	22155.1
606.298	22075.23
606.494	22099.8
606.69	22169.43
606.886	22132.57
607.082	21743.45
607.278	21823.33
607.474	21731.17
607.67	22032.22
607.866	21585.76
608.062	21849.95
608.257	21598.05
608.453	21708.64
608.649	21714.78
608.845	21761.89
609.041	21485.41
609.236	21708.64
609.432	21413.73
609.628	21313.38
609.824	21364.58
610.019	21378.92
610.215	21352.29
610.411	21591.91
610.606	21186.41
610.802	21270.37
610.998	20954.99
611.193	20991.85
611.389	20946.8
611.584	20768.62
611.78	20690.8
611.976	20604.78
612.171	20793.2
612.367	20926.32
612.562	20748.14
612.758	20516.72
612.953	20469.62
613.149	20690.8
613.344	20324.21
613.539	20883.31
613.735	20514.67
613.93	20545.39
614.126	20682.61
614.321	20561.78
614.517	20465.52
614.712	20199.29
614.907	20404.08
615.103	20342.64
615.298	20107.13
615.493	20348.79
615.688	20037.5
615.884	20385.65
616.079	19892.09
616.274	20213.62
616.47	20297.59
616.665	20139.9
616.86	19789.69
617.055	19902.33
617.25	19920.76
617.445	20299.64
617.641	19734.4
617.836	19955.58
618.031	19556.22
618.226	19855.23
618.421	19330.95
618.616	19715.97
618.811	19376
619.006	19855.23
619.201	19212.17
619.396	19089.29
619.591	19117.96
619.786	19214.21
619.981	18964.36
620.176	19044.23
620.371	18939.79
620.566	18984.84
620.761	18741.13
620.956	18718.61
621.151	18591.63
621.346	18431.89
621.541	18173.85
621.735	18483.09
621.93	18229.14
622.125	18161.56
622.32	18001.82
622.515	18059.16
622.709	18081.69
622.904	17856.41
623.099	17614.75
623.294	17794.97
623.488	17246.12
623.683	17403.81
623.878	17332.13
624.072	17332.13
624.267	17332.13
624.462	17260.45
624.656	16656.3
624.851	16924.58
625.046	16533.42
625.24	16715.69
625.435	16773.03
625.629	16611.25
625.824	16345.01
626.018	16277.43
626.213	16134.07
626.407	16400.3
626.602	16062.39
626.796	16039.86
626.991	16152.5
627.185	15826.87
627.38	15726.52
627.574	15738.81
627.768	15445.95
627.963	15353.79
628.157	15372.22
628.352	15423.42
628.546	15028.17
628.74	15069.12
628.935	15169.48
629.129	14813.13
629.323	14741.45
629.517	14794.7
629.712	14622.67
629.906	14680.01
630.1	14671.82
630.294	14438.35
630.489	14534.6
630.683	14487.5
630.877	14237.65
631.071	14346.19
631.265	14223.31
631.459	14055.38
631.653	14061.52
631.848	14143.44
632.042	13858.78
632.236	13995.99
632.43	13582.3
632.624	13733.85
632.818	13684.7
633.012	13463.52
633.206	13672.41
633.4	13524.96
633.594	13158.37
633.788	13348.83
633.982	13258.72
634.176	13242.34
634.369	12978.15
634.563	12939.24
634.757	12974.05
634.951	13078.5
635.145	12951.53
635.339	12836.84
635.533	12838.89
635.726	12728.3
635.92	12363.76
636.114	12541.93
636.308	12357.61
636.501	12460.01
636.695	12154.87
636.889	12316.65
637.083	12142.58
637.276	11954.16
637.47	11972.6
637.664	11917.3
637.857	12013.56
638.051	12009.46
638.244	11767.8
638.438	11847.67
638.632	11630.59
638.825	11657.21
639.019	11513.85
639.212	11399.16
639.406	11511.8
639.599	11220.99
639.793	11393.02
639.986	11030.53
640.18	11315.2
640.373	11114.5
640.567	11061.25
640.76	10969.09
640.954	10997.76
641.147	10819.59
641.34	10831.88
641.534	10956.8
641.727	10813.45
641.92	10653.7
642.114	10678.28
642.307	10395.66
642.5	10432.52
642.694	10227.73
642.887	10285.07
643.08	10493.96
643.273	10342.41
643.467	10131.47
643.66	10014.74
643.853	10276.88
644.046	9818.13
644.239	9852.95
644.432	9971.73
644.626	9859.09
644.819	9779.22
645.012	9932.82
645.205	9904.15
645.398	9658.39
645.591	9627.67
645.784	9621.53
645.977	9414.68
646.17	9386.01
646.363	9265.18
646.556	9365.53
646.749	9281.57
646.942	9379.87
647.135	9175.07
647.328	9369.63
647.521	9242.65
647.714	9125.92
647.907	9017.38
648.099	9236.51
648.292	9091.1
648.485	9115.68
648.678	8826.92
648.871	8788
649.064	8480.81
649.256	8706.09
649.449	8712.23
649.642	8591.4
649.835	8599.59
650.027	8478.76
650.22	8357.93
650.413	8572.97
650.605	8400.94
650.798	8175.66
650.991	8233.01
651.183	8194.09
651.376	8241.2
651.568	8140.85
651.761	8179.76
651.954	8106.03
652.146	8224.81
652.339	8177.71
652.531	7860.27
652.724	8015.92
652.916	7753.78
653.109	7673.91
653.301	7755.83
653.494	7850.03
653.686	7610.42
653.879	7606.33
654.071	7733.3
654.263	7505.98
654.456	7700.53
654.648	7757.88
654.84	7497.78
655.033	7544.89
655.225	7458.87
655.417	7299.13
655.61	7282.75
655.802	7307.32
655.994	7315.52
656.186	7290.94
656.379	7065.66
656.571	7104.57
656.763	6893.63
656.955	7100.48
657.148	6926.4
657.34	7020.61
657.532	6910.02
657.724	7000.13
657.916	6834.24
658.108	6867.01
658.3	6783.04
658.492	7034.94
658.684	6651.97
658.876	6737.99
659.068	6506.57
659.26	6586.44
659.452	6557.77
659.644	6549.57
659.836	6520.9
660.028	6453.32
660.22	6488.14
660.412	6445.13
660.604	6361.16
660.796	6535.24
660.988	6262.86
661.18	6271.05
661.372	6223.95
661.563	6252.62
661.755	6172.75
661.947	6144.08
662.139	6070.35
662.331	6148.17
662.522	6084.69
662.714	6029.39
662.906	5916.75
663.097	5914.7
663.289	5851.22
663.481	5941.33
663.673	5965.9
663.864	5714
664.056	5959.76
664.247	5814.35
664.439	5644.37
664.631	5595.22
664.822	5619.8
665.014	5625.94
665.205	5505.11
665.397	5574.74
665.588	5503.06
665.78	5492.82
665.971	5376.09
666.163	5607.51
666.354	5480.54
666.546	5314.65
666.737	5322.84
666.929	5269.59
667.12	5394.52
667.311	5259.35
667.503	4991.07
667.694	5163.1
667.885	5230.68
668.077	5247.07
668.268	5021.79
668.459	5146.72
668.651	4986.97
668.842	5046.37
669.033	5054.56
669.224	5003.36
669.416	5034.08
669.607	4888.67
669.798	4999.26
669.989	5075.04
670.18	4864.1
670.371	4855.9
670.563	4755.55
670.754	4882.53
670.945	4831.33
671.136	4716.64
671.327	4806.75
671.518	4679.78
671.709	4642.92
671.9	4708.45
672.091	4685.92
672.282	4653.16
672.473	4626.53
672.664	4649.06
672.855	4509.8
673.046	4517.99
673.237	4632.68
673.428	4509.8
673.619	4616.29
673.809	4546.66
674	4517.99
674.191	4587.62
674.382	4472.93
674.573	4487.27
674.764	4501.61
674.954	4460.65
675.145	4307.05
675.336	4354.15
675.527	4376.68
675.717	4368.49
675.908	4321.38
676.099	4302.95
676.289	4341.86
676.48	4255.85
676.671	4178.03
676.861	4227.18
677.052	4218.99
677.243	4214.89
677.433	4290.67
677.624	4257.9
677.814	4261.99
678.005	4186.22
678.195	4296.81
678.386	4192.36
678.576	4188.27
678.767	4157.55
678.957	4065.39
679.148	3905.65
679.338	4100.2
679.529	4141.16
679.719	4149.36
679.909	4114.54
680.1	4046.96
680.29	4079.72
680.481	4077.68
680.671	4087.92
680.861	3948.65
681.052	4030.57
681.242	4065.39
681.432	3999.85
681.622	3981.42
681.813	3930.22
682.003	3969.13
682.193	3983.47
682.383	3895.41
682.573	3944.56
682.764	3981.42
682.954	3958.89
683.144	3811.44
683.334	3895.41
683.524	3864.69
683.714	3797.1
683.904	3866.74
684.094	3862.64
684.284	3913.84
684.474	3973.23
684.664	3940.46
684.854	3985.52
685.044	3786.86
685.234	3725.43
685.424	3719.28
685.614	3717.23
685.804	3719.28
685.994	3686.51
686.184	3874.93
686.374	3743.86
686.564	3645.56
686.753	3731.57
686.943	3649.65
687.133	3733.62
687.323	3661.94
687.513	3612.79
687.702	3596.4
687.892	3672.18
688.082	3700.85
688.272	3670.13
688.461	3655.79
688.651	3549.3
688.841	3477.62
689.03	3489.91
689.22	3305.59
689.41	3473.53
689.599	3506.29
689.789	3561.59
689.979	3457.14
690.168	3463.29
690.358	3457.14
690.547	3489.91
690.737	3459.19
690.926	3207.29
691.116	3360.89
691.305	3301.5
691.495	3344.5
691.684	3293.3
691.874	3258.49
692.063	3287.16
692.252	3174.52
692.442	3283.06
692.631	3070.08
692.82	3125.37
693.01	3072.12
693.199	3113.08
693.388	3027.07
693.578	3131.51
693.767	3113.08
693.956	3022.97
694.146	3092.6
694.335	2951.29
694.524	3072.12
694.713	3098.75
694.902	2893.95
695.092	2926.72
695.281	2863.23
695.47	3010.68
695.659	3102.84
695.848	2955.39
696.037	2857.09
696.226	2924.67
696.415	2818.18
696.604	2816.13
696.793	2816.13
696.982	2900.09
697.171	2912.38
697.36	2754.69
697.549	2859.14
697.738	2818.18
697.927	2852.99
698.116	2711.68
698.305	2730.11
698.494	2705.54
698.683	2766.98
698.872	2756.74
699.061	2736.26
699.25	2668.67
699.438	2744.45
699.627	2588.8
699.816	2650.24
700.005	2795.65
700.193	2764.93
700.382	2683.01
700.571	2619.52
700.76	2726.02
700.948	2635.91
701.137	2650.24
701.326	2627.71
701.514	2637.95
701.703	2580.61
701.892	2611.33
702.08	2637.95
702.269	2658.43
702.457	2584.71
702.646	2578.56
702.834	2515.08
703.023	2443.4
703.212	2611.33
703.4	2558.08
703.589	2490.5
703.777	2529.41
703.965	2564.23
704.154	2498.69
704.342	2437.25
704.531	2447.49
704.719	2351.24
704.907	2523.27
705.096	2437.25
705.284	2449.54
705.472	2429.06
705.661	2334.86
705.849	2562.18
706.037	2478.21
706.226	2433.16
706.414	2474.12
706.602	2447.49
706.79	2537.6
706.979	2455.69
707.167	2470.02
707.355	2353.29
707.543	2504.84
707.731	2478.21
707.919	2461.83
708.107	2406.53
708.296	2357.38
708.484	2472.07
708.672	2427.01
708.86	2500.74
709.048	2390.15
709.236	2394.25
709.424	2347.14
709.612	2412.68
709.8	2363.53
709.988	2277.51
710.176	2357.38
710.364	2375.81
710.551	2386.05
710.739	2500.74
710.927	2371.72
711.115	2443.4
711.303	2424.97
711.491	2361.48
711.679	2343.05
711.866	2320.52
712.054	2343.05
712.242	2293.9
712.43	2476.16
712.617	2312.33
712.805	2412.68
712.993	2261.13
713.181	2338.95
713.368	2244.74
713.556	2400.39
713.744	2281.61
713.931	2459.78
714.119	2404.49
714.306	2332.81
714.494	2343.05
714.682	2361.48
714.869	2242.7
715.057	2351.24
715.244	2404.49
715.432	2408.58
715.619	2351.24
715.807	2318.47
715.994	2308.23
716.182	2402.44
716.369	2291.85
716.556	2398.34
716.744	2269.32
716.931	2439.3
717.119	2279.56
717.306	2318.47
717.493	2334.86
717.681	2287.75
717.868	2367.62
718.055	2310.28
718.242	2363.53
718.43	2400.39
718.617	2347.14
718.804	2277.51
718.991	2226.31
719.179	2361.48
719.366	2252.94
719.553	2384.01
719.74	2338.95
719.927	2379.91
720.114	2254.98
720.301	2199.69
720.488	2291.85
720.676	2365.57
720.863	2302.09
721.05	2281.61
721.237	2355.33
721.424	2355.33
721.611	2359.43
721.798	2308.23
721.985	2336.9
722.172	2236.55
722.358	2349.19
722.545	2347.14
722.732	2345.09
722.919	2322.57
723.106	2295.94
723.293	2304.14
723.48	2314.38
723.667	2351.24
723.853	2328.71
724.04	2351.24
724.227	2211.98
724.414	2375.81
724.6	2269.32
724.787	2457.73
724.974	2314.38
725.161	2228.36
725.347	2353.29
725.534	2332.81
725.72	2381.96
725.907	2332.81
726.094	2289.8
726.28	2283.66
726.467	2263.18
726.653	2232.46
726.84	2353.29
727.027	2416.77
727.213	2441.35
727.4	2328.71
727.586	2310.28
727.773	2435.21
727.959	2396.29
728.145	2343.05
728.332	2312.33
728.518	2318.47
728.705	2392.2
728.891	2367.62
729.077	2318.47
729.264	2211.98
729.45	2379.91
729.636	2297.99
729.823	2330.76
730.009	2349.19
730.195	2404.49
730.382	2324.62
730.568	2302.09
730.754	2248.84
730.94	2267.27
731.126	2384.01
731.313	2236.55
731.499	2347.14
731.685	2187.4
731.871	2314.38
732.057	2351.24
732.243	2318.47
732.429	2336.9
732.615	2252.94
732.801	2343.05
732.987	2328.71
733.173	2406.53
733.359	2349.19
733.545	2359.43
733.731	2254.98
733.917	2365.57
734.103	2353.29
734.289	2220.17
734.475	2304.14
734.661	2263.18
734.847	2365.57
735.033	2281.61
735.219	2347.14
735.404	2312.33
735.59	2277.51
735.776	2250.89
735.962	2267.27
736.148	2267.27
736.333	2277.51
736.519	2160.78
736.705	2181.26
736.89	2304.14
737.076	2259.08
737.262	2195.59
737.447	2242.7
737.633	2154.63
737.819	2302.09
738.004	2283.66
738.19	2236.55
738.375	2132.11
738.561	2353.29
738.747	2168.97
738.932	2275.46
739.118	2283.66
739.303	2160.78
739.489	2218.12
739.674	2117.77
739.859	2191.5
740.045	2138.25
740.23	2246.79
740.416	2107.53
740.601	2252.94
740.786	2076.81
740.972	2199.69
741.157	2179.21
741.342	2140.3
741.528	2144.39
741.713	2136.2
741.898	2189.45
742.084	2048.14
742.269	2105.48
742.454	2193.55
742.639	2082.95
742.824	2037.9
743.01	2134.15
743.195	2105.48
743.38	2027.66
743.565	2027.66
743.75	2037.9
743.935	1951.88
744.12	2072.72
744.305	2044.04
744.49	2039.95
744.675	2033.8
744.86	1972.36
745.045	2011.28
745.23	1931.41
745.415	1941.65
745.6	1880.21
745.785	1943.69
745.97	1990.8
746.155	1976.46
746.34	1874.06
746.525	1872.01
746.71	1927.31
746.895	1833.1
747.079	1908.88
747.264	1872.01
747.449	1751.18
747.634	1851.53
747.819	1892.49
748.003	1857.68
748.188	1810.58
748.373	1818.77
748.557	1859.73
748.742	1654.93
748.927	1798.29
749.111	1790.1
749.296	1708.18
749.481	1695.89
749.665	1714.32
749.85	1745.04
750.034	1656.98
750.219	1599.63
750.404	1702.03
750.588	1693.84
750.773	1718.42
750.957	1624.21
751.141	1702.03
751.326	1527.96
751.51	1675.41
751.695	1634.45
751.879	1568.91
752.064	1661.07
752.248	1636.5
752.432	1636.5
752.617	1675.41
752.801	1605.78
752.985	1622.16
753.17	1523.86
753.354	1532.05
753.538	1474.71
753.722	1437.84
753.907	1452.18
754.091	1429.65
754.275	1462.42
754.459	1415.32
754.643	1443.99
754.828	1448.08
755.012	1419.41
755.196	1349.78
755.38	1308.82
755.564	1392.79
755.748	1327.25
755.932	1345.69
756.116	1357.97
756.3	1249.43
756.484	1288.34
756.668	1274.01
756.852	1378.45
757.036	1290.39
757.22	1329.3
757.404	1239.19
757.588	1243.29
757.772	1192.09
757.956	1306.77
758.14	1296.53
758.323	1171.61
758.507	1177.75
758.691	1253.53
758.875	1210.52
759.059	1331.35
759.242	1226.9
759.426	1224.86
759.61	1161.37
759.794	1163.42
759.977	1192.09
760.161	1241.24
760.345	1187.99
760.528	1173.66
760.712	1194.14
760.895	1212.57
761.079	1257.62
761.263	1013.92
761.446	1130.65
761.63	1126.55
761.813	1142.94
761.997	1167.51
762.18	1089.69
762.364	1081.5
762.547	1024.16
762.731	1032.35
762.914	1212.57
763.098	1003.68
763.281	1044.63
763.464	1024.16
763.648	1079.45
763.831	1009.82
764.015	981.15
764.198	1114.27
764.381	983.2
764.564	1073.31
764.748	1038.49
764.931	1106.07
765.114	999.58
765.297	1011.87
765.481	991.39
765.664	1011.87
765.847	968.86
766.03	1061.02
766.213	1022.11
766.397	1020.06
766.58	966.81
766.763	989.34
766.946	954.52
767.129	938.14
767.312	1005.72
767.495	893.09
767.678	927.9
767.861	962.72
768.044	932
768.227	876.7
768.41	915.61
768.593	915.61
768.776	899.23
768.959	901.28
769.142	960.67
769.324	932
769.507	919.71
769.69	995.48
769.873	940.19
770.056	934.04
770.239	835.74
770.421	897.18
770.604	905.37
770.787	876.7
770.97	893.09
771.152	845.98
771.335	837.79
771.518	794.78
771.7	815.26
771.883	882.85
772.066	819.36
772.248	862.37
772.431	776.35
772.613	770.21
772.796	905.37
772.978	856.22
773.161	862.37
773.343	837.79
773.526	809.12
773.708	768.16
773.891	841.89
774.073	786.59
774.256	809.12
774.438	819.36
774.621	786.59
774.803	788.64
774.985	757.92
775.168	755.87
775.35	835.74
775.532	839.84
775.715	762.02
775.897	737.44
776.079	710.82
776.261	753.82
776.444	815.26
776.626	755.87
776.808	694.43
776.99	686.24
777.173	755.87
777.355	663.71
777.537	598.18
777.719	655.52
777.901	719.01
778.083	684.19
778.265	653.47
778.447	622.75
778.629	643.23
778.811	671.9
778.993	682.14
779.175	628.9
779.357	610.47
779.539	649.38
779.721	614.56
779.903	616.61
780.085	600.23
780.267	624.8
780.449	649.38
780.631	546.98
780.812	651.42
780.994	620.71
781.176	579.75
781.358	563.36
781.54	569.51
781.721	512.16
781.903	569.51
782.085	491.68
782.267	516.26
782.448	510.11
782.63	475.3
782.812	526.5
782.993	573.6
783.175	579.75
783.357	403.62
783.538	585.89
783.72	460.96
783.901	495.78
784.083	487.59
784.264	512.16
784.446	514.21
784.627	442.53
784.809	469.16
784.99	450.72
785.172	467.11
785.353	411.81
785.535	536.74
785.716	430.24
785.897	489.64
786.079	456.87
786.26	512.16
786.441	518.31
786.623	428.2
786.804	440.48
786.985	374.95
787.167	469.16
787.348	497.83
787.529	434.34
787.71	465.06
787.891	438.44
788.073	366.76
788.254	395.43
788.435	495.78
788.616	356.52
788.797	438.44
788.978	460.96
789.159	450.72
789.34	471.2
789.522	364.71
789.703	368.81
789.884	348.33
790.065	481.44
790.246	440.48
790.427	397.48
790.607	460.96
790.788	379.04
790.969	333.99
791.15	381.09
791.331	358.57
791.512	297.13
791.693	309.41
791.874	383.14
792.054	311.46
792.235	321.7
792.416	307.37
792.597	209.06
792.778	354.47
792.958	385.19
793.139	284.84
793.32	383.14
793.5	274.6
793.681	358.57
793.862	344.23
794.042	239.78
794.223	280.74
794.404	333.99
794.584	284.84
794.765	336.04
794.945	323.75
795.126	321.7
795.306	274.6
795.487	307.37
795.667	303.27
795.848	409.76
796.028	223.4
796.209	327.85
796.389	315.56
796.57	262.31
796.75	333.99
796.93	209.06
797.111	270.5
797.291	313.51
797.471	315.56
797.652	360.61
797.832	299.17
798.012	229.54
798.192	344.23
798.373	342.18
798.553	252.07
798.733	311.46
798.913	233.64
799.093	239.78
799.274	258.21
799.454	342.18
799.634	239.78
799.814	282.79
799.994	241.83
800.174	307.37
800.354	239.78
800.534	223.4
800.714	315.56
800.894	188.58
801.074	262.31
801.254	262.31
801.434	276.65
801.614	131.24
801.794	284.84
801.974	528.55
802.154	264.36
802.334	250.02
802.514	243.88
802.693	247.97
802.873	243.88
803.053	317.61
803.233	284.84
803.413	237.74
803.592	274.6
803.772	229.54
803.952	243.88
804.131	131.24
804.311	213.16
804.491	280.74
804.67	239.78
804.85	166.06
805.03	196.78
805.209	262.31
805.389	182.44
805.568	204.97
805.748	198.82
805.928	223.4
806.107	211.11
806.287	254.12
806.466	274.6
806.646	219.3
806.825	260.26
807.004	190.63
807.184	98.47
807.363	241.83
807.543	190.63
807.722	198.82
807.901	204.97
808.081	192.68
808.26	114.86
808.439	209.06
808.619	237.74
808.798	239.78
808.977	260.26
809.156	250.02
809.336	200.87
809.515	129.19
809.694	172.2
809.873	196.78
810.052	215.21
810.231	188.58
810.411	114.86
810.59	268.45
810.769	139.43
810.948	272.55
811.127	137.38
811.306	207.02
811.485	202.92
811.664	192.68
811.843	274.6
812.022	151.72
812.201	137.38
812.38	110.76
812.559	133.29
812.737	121
812.916	147.62
813.095	149.67
813.274	127.14
813.453	90.28
813.632	188.58
813.811	118.95
813.989	155.82
814.168	233.64
814.347	104.62
814.526	129.19
814.704	159.91
814.883	94.38
815.062	131.24
815.24	118.95
815.419	155.82
815.598	157.86
815.776	92.33
815.955	164.01
816.133	129.19
816.312	75.95
816.49	172.2
816.669	98.47
816.847	88.23
817.026	104.62
817.204	108.71
817.383	225.45
817.561	75.95
817.74	108.71
817.918	102.57
818.097	164.01
818.275	164.01
818.453	82.09
818.632	129.19
818.81	137.38
818.988	129.19
819.167	98.47
819.345	96.43
819.523	100.52
819.701	153.77
819.879	172.2
820.058	100.52
820.236	217.26
820.414	141.48
820.592	161.96
820.77	51.37
820.948	123.05
821.127	102.57
821.305	164.01
821.483	49.32
821.661	168.1
821.839	147.62
822.017	57.51
822.195	174.25
822.373	145.58
822.551	159.91
822.729	153.77
822.907	135.34
823.085	176.3
823.262	137.38
823.44	104.62
823.618	108.71
823.796	98.47
823.974	102.57
824.152	61.61
824.329	80.04
824.507	82.09
824.685	84.14
824.863	100.52
825.04	112.81
825.218	184.49
825.396	110.76
825.574	73.9
825.751	77.99
825.929	116.9
826.107	174.25
826.284	129.19
826.462	90.28
826.639	172.2
826.817	32.94
826.994	96.43
827.172	55.47
827.349	170.15
827.527	141.48
827.704	157.86
827.882	82.09
828.059	215.21
828.237	86.19
828.414	84.14
828.591	94.38
828.769	102.57
828.946	57.51
829.124	121
829.301	131.24
829.478	108.71
829.655	114.86
829.833	139.43
830.01	96.43
830.187	96.43
830.364	106.67
830.542	61.61
830.719	129.19
830.896	63.66
831.073	37.03
831.25	106.67
831.427	84.14
831.604	84.14
831.782	75.95
831.959	174.25
832.136	82.09
832.313	24.75
832.49	12.46
832.667	63.66
832.844	100.52
833.021	63.66
833.198	116.9
833.374	80.04
833.551	133.29
833.728	65.71
833.905	118.95
834.082	-30.55
834.259	32.94
834.436	106.67
834.612	82.09
834.789	34.99
834.966	147.62
835.143	69.8
835.319	80.04
835.496	67.75
835.673	96.43
835.85	77.99
836.026	82.09
836.203	137.38
836.38	49.32
836.556	102.57
836.733	65.71
836.909	114.86
837.086	53.42
837.262	30.89
837.439	-12.12
837.616	49.32
837.792	82.09
837.968	47.27
838.145	-14.17
838.321	90.28
838.498	73.9
838.674	39.08
838.851	51.37
839.027	98.47
839.203	90.28
839.38	-5.97
839.556	-10.07
839.732	-12.12
839.909	30.89
840.085	12.46
840.261	24.75
840.437	57.51
840.614	47.27
840.79	102.57
840.966	53.42
841.142	102.57
841.318	57.51
841.494	114.86
841.671	108.71
841.847	88.23
842.023	96.43
842.199	34.99
842.375	118.95
842.551	59.56
842.727	47.27
842.903	143.53
843.079	65.71
843.255	104.62
843.431	88.23
843.607	82.09
843.783	-48.98
843.959	94.38
844.134	37.03
844.31	92.33
844.486	53.42
844.662	55.47
844.838	53.42
845.013	41.13
845.189	116.9
845.365	-48.98
845.541	55.47
845.716	14.51
845.892	16.55
846.068	71.85
846.244	32.94
846.419	110.76
846.595	92.33
846.77	-16.21
846.946	47.27
847.122	114.86
847.297	-5.97
847.473	129.19
847.648	-10.07
847.824	69.8
847.999	75.95
848.175	80.04
848.35	114.86
848.526	63.66
848.701	12.46
848.876	-40.79
849.052	92.33
849.227	-22.36
849.403	20.65
849.578	75.95
849.753	47.27
849.929	34.99
850.104	47.27
850.279	47.27
850.454	26.79
850.63	49.32
850.805	45.23
850.98	61.61
851.155	59.56
851.33	-8.02
851.505	30.89
851.681	55.47
851.856	-34.64
852.031	14.51
852.206	88.23
852.381	-8.02
852.556	69.8
852.731	20.65
852.906	51.37
853.081	53.42
853.256	32.94
853.431	24.75
853.606	26.79
853.781	-32.6
853.956	-10.07
854.131	18.6
854.305	10.41
854.48	37.03
854.655	57.51
854.83	106.67
855.005	-8.02
855.18	71.85
855.354	37.03
855.529	-8.02
855.704	55.47
855.879	59.56
856.053	-30.55
856.228	88.23
856.403	53.42
856.577	24.75
856.752	8.36
856.926	0.17
857.101	39.08
857.276	-3.93
857.45	41.13
857.625	22.7
857.799	39.08
857.974	28.84
858.148	51.37
858.323	61.61
858.497	61.61
858.672	39.08
858.846	8.36
859.02	34.99
859.195	-3.93
859.369	16.55
859.543	45.23
859.718	18.6
859.892	84.14
860.066	20.65
860.241	28.84
860.415	37.03
860.589	37.03
860.763	-24.4
860.938	32.94
861.112	6.31
861.286	-16.21
861.46	92.33
861.634	63.66
861.808	26.79
861.982	-5.97
862.157	6.31
862.331	43.18
862.505	14.51
862.679	55.47
862.853	-5.97
863.027	24.75
863.201	45.23
863.375	34.99
863.549	28.84
863.722	51.37
863.896	37.03
864.07	-48.98
864.244	71.85
864.418	14.51
864.592	18.6
864.766	37.03
864.939	-3.93
865.113	-71.51
865.287	-1.88
865.461	45.23
865.634	-12.12
865.808	-16.21
865.982	20.65
866.156	55.47
866.329	-34.64
866.503	26.79
866.676	116.9
866.85	30.89
867.024	-75.6
867.197	-1.88
867.371	57.51
867.544	121
867.718	0.17
867.891	0.17
868.065	-53.08
868.238	86.19
868.412	53.42
868.585	14.51
868.759	26.79
868.932	-3.93
869.105	-69.46
869.279	51.37
869.452	-22.36
869.625	84.14
869.799	145.58
869.972	0.17
870.145	-16.21
870.319	-22.36
870.492	-48.98
870.665	-22.36
870.838	45.23
871.011	-34.64
871.185	-40.79
871.358	45.23
871.531	71.85
871.704	14.51
871.877	14.51
872.05	63.66
872.223	-12.12
872.396	73.9
872.569	75.95
872.742	-10.07
872.915	61.61
873.088	20.65
873.261	28.84
873.434	39.08
873.607	53.42
873.78	110.76
873.953	-8.02
874.126	24.75
874.299	67.75
874.471	-26.45
874.644	30.89
874.817	104.62
874.99	-24.4
875.163	-8.02
875.335	49.32
875.508	8.36
875.681	-20.31
875.853	14.51
876.026	14.51
876.199	20.65
876.371	57.51
876.544	-1.88
876.717	14.51
876.889	-40.79
877.062	24.75
877.234	-24.4
877.407	32.94
877.579	22.7
877.752	32.94
877.924	57.51
878.097	69.8
878.269	-22.36
878.442	-5.97
878.614	4.27
878.786	-30.55
878.959	-12.12
879.131	4.27
879.303	-10.07
879.476	-18.26
879.648	26.79
879.82	4.27
879.993	4.27
880.165	22.7
880.337	-26.45
880.509	20.65
880.681	28.84
880.854	-3.93
881.026	-55.12
881.198	75.95
881.37	30.89
881.542	14.51
881.714	16.55
881.886	51.37
882.058	14.51
882.23	24.75
882.402	43.18
882.574	14.51
882.746	57.51
882.918	14.51
883.09	-26.45
883.262	28.84
883.434	-30.55
883.606	-8.02
883.778	-8.02
883.95	-20.31
884.122	-3.93
884.293	34.99
884.465	-38.74
884.637	-16.21
884.809	61.61
884.98	24.75
885.152	-61.27
885.324	24.75
885.496	18.6
885.667	57.51
885.839	37.03
886.011	53.42
886.182	-40.79
886.354	0.17
886.525	22.7
886.697	18.6
886.869	71.85
887.04	-55.12
887.212	49.32
887.383	59.56
887.555	6.31
887.726	37.03
887.897	16.55
888.069	-8.02
888.24	129.19
888.412	57.51
888.583	8.36
888.754	4.27
888.926	-75.6
889.097	37.03
889.268	110.76
889.44	-18.26
889.611	55.47
889.782	6.31
889.953	-28.5
890.125	73.9
890.296	37.03
890.467	16.55
890.638	53.42
890.809	16.55
890.98	24.75
891.151	-30.55
891.323	67.75
891.494	86.19
891.665	-3.93
891.836	-8.02
892.007	0.17
892.178	26.79
892.349	2.22
892.52	-16.21
892.691	14.51
892.862	-16.21
893.032	90.28
893.203	37.03
893.374	-57.17
893.545	14.51
893.716	-32.6
893.887	49.32
894.057	39.08
894.228	16.55
894.399	-24.4
894.57	-5.97
894.74	84.14
894.911	28.84
895.082	6.31
895.253	-5.97
895.423	39.08
895.594	-16.21
895.764	30.89
895.935	-28.5
896.106	-10.07
896.276	6.31
896.447	108.71
896.617	37.03
896.788	8.36
896.958	-53.08
897.129	2.22
897.299	-44.88
897.47	34.99
897.64	-5.97
897.81	-14.17
897.981	-51.03
898.151	-55.12
898.322	14.51
898.492	-18.26
898.662	47.27
898.832	-51.03
899.003	51.37
899.173	-36.69
899.343	-5.97
899.513	12.46
