Data from USB4F104151__6__11-36-20-448.txt Node

Date: Fri Mar 14 11:36:20 EDT 2025
User: louis
Spectrometer: USB4F10415
Trigger mode: 4
Integration Time (sec): 2.000000E-2
Scans to average: 1
Electric dark correction enabled: true
Nonlinearity correction enabled: false
Boxcar width: 0
XAxis mode: Wavelengths
Number of Pixels in Spectrum: 3648
>>>>>Begin Spectral Data<<<<<
178.204	-13.31
178.424	-13.31
178.644	-13.31
178.864	-37.89
179.084	-99.33
179.304	-44.03
179.524	15.36
179.744	37.89
179.964	35.84
180.184	19.46
180.404	46.08
180.624	-19.46
180.844	-5.12
181.064	-25.6
181.283	-13.31
181.503	-48.13
181.723	1.02
181.943	-64.51
182.163	27.65
182.383	25.6
182.602	13.31
182.822	50.18
183.042	70.65
183.262	3.07
183.482	99.33
183.701	-11.26
183.921	25.6
184.141	-23.55
184.361	35.84
184.58	27.65
184.8	-52.22
185.02	54.27
185.239	50.18
185.459	-11.26
185.679	19.46
185.898	-50.18
186.118	19.46
186.338	-37.89
186.557	-9.22
186.777	27.65
186.997	125.95
187.216	15.36
187.436	84.99
187.655	54.27
187.875	25.6
188.095	29.7
188.314	13.31
188.534	39.94
188.753	56.32
188.973	60.42
189.192	119.81
189.412	-54.27
189.631	93.18
189.851	33.79
190.07	33.79
190.29	1.02
190.509	23.55
190.729	-3.07
190.948	29.7
191.168	46.08
191.387	29.7
191.607	17.41
191.826	-52.22
192.045	-5.12
192.265	64.51
192.484	41.98
192.704	25.6
192.923	13.31
193.142	70.65
193.362	41.98
193.581	87.04
193.8	21.5
194.02	33.79
194.239	-3.07
194.458	58.37
194.678	46.08
194.897	-13.31
195.116	-3.07
195.335	1.02
195.555	95.23
195.774	-39.94
195.993	-9.22
196.212	70.65
196.432	-21.5
196.651	-3.07
196.87	19.46
197.089	74.75
197.308	27.65
197.528	46.08
197.747	58.37
197.966	70.65
198.185	121.85
198.404	48.13
198.623	80.89
198.842	41.98
199.062	11.26
199.281	35.84
199.5	11.26
199.719	82.94
199.938	39.94
200.157	68.61
200.376	-37.89
200.595	48.13
200.814	11.26
201.033	-27.65
201.252	-11.26
201.471	76.8
201.69	103.42
201.909	37.89
202.128	44.03
202.347	54.27
202.566	9.22
202.785	-23.55
203.004	-48.13
203.223	107.52
203.442	58.37
203.661	93.18
203.879	46.08
204.098	39.94
204.317	-35.84
204.536	46.08
204.755	-3.07
204.974	-9.22
205.193	93.18
205.411	37.89
205.63	48.13
205.849	33.79
206.068	72.7
206.287	3.07
206.505	58.37
206.724	-5.12
206.943	-27.65
207.162	25.6
207.381	-3.07
207.599	-7.17
207.818	-11.26
208.037	93.18
208.255	21.5
208.474	5.12
208.693	-19.46
208.911	23.55
209.13	-11.26
209.349	56.32
209.567	21.5
209.786	50.18
210.005	3.07
210.223	70.65
210.442	-31.74
210.661	68.61
210.879	13.31
211.098	74.75
211.316	62.46
211.535	56.32
211.753	-33.79
211.972	54.27
212.191	-23.55
212.409	130.05
212.628	-21.5
212.846	82.94
213.065	-3.07
213.283	9.22
213.502	-27.65
213.72	74.75
213.938	9.22
214.157	-13.31
214.375	11.26
214.594	5.12
214.812	62.46
215.031	-35.84
215.249	87.04
215.467	-9.22
215.686	17.41
215.904	5.12
216.122	56.32
216.341	93.18
216.559	48.13
216.778	21.5
216.996	41.98
217.214	89.09
217.432	1.02
217.651	9.22
217.869	25.6
218.087	15.36
218.306	21.5
218.524	-11.26
218.742	11.26
218.96	-23.55
219.179	27.65
219.397	29.7
219.615	13.31
219.833	44.03
220.051	-41.98
220.27	1.02
220.488	91.13
220.706	44.03
220.924	60.42
221.142	37.89
221.36	7.17
221.578	54.27
221.796	37.89
222.015	74.75
222.233	105.47
222.451	7.17
222.669	3.07
222.887	3.07
223.105	15.36
223.323	35.84
223.541	-35.84
223.759	54.27
223.977	35.84
224.195	33.79
224.413	37.89
224.631	35.84
224.849	-17.41
225.067	35.84
225.285	11.26
225.503	66.56
225.721	56.32
225.939	70.65
226.157	41.98
226.375	72.7
226.592	46.08
226.81	50.18
227.028	-3.07
227.246	39.94
227.464	-21.5
227.682	82.94
227.9	35.84
228.117	35.84
228.335	-1.02
228.553	-23.55
228.771	25.6
228.989	46.08
229.206	5.12
229.424	23.55
229.642	-29.7
229.86	5.12
230.077	39.94
230.295	-9.22
230.513	58.37
230.731	17.41
230.948	54.27
231.166	19.46
231.384	9.22
231.601	25.6
231.819	35.84
232.037	54.27
232.254	64.51
232.472	44.03
232.689	39.94
232.907	46.08
233.125	25.6
233.342	9.22
233.56	-13.31
233.777	-68.61
233.995	48.13
234.213	62.46
234.43	54.27
234.648	62.46
234.865	21.5
235.083	68.61
235.3	-3.07
235.518	60.42
235.735	37.89
235.953	82.94
236.17	17.41
236.388	23.55
236.605	109.57
236.822	58.37
237.04	1.02
237.257	13.31
237.475	41.98
237.692	21.5
237.909	29.7
238.127	25.6
238.344	41.98
238.562	31.74
238.779	3.07
238.996	-13.31
239.214	54.27
239.431	-1.02
239.648	46.08
239.865	31.74
240.083	66.56
240.3	62.46
240.517	-3.07
240.735	11.26
240.952	15.36
241.169	74.75
241.386	5.12
241.603	-39.94
241.821	-29.7
242.038	33.79
242.255	44.03
242.472	9.22
242.689	80.89
242.907	44.03
243.124	72.7
243.341	15.36
243.558	89.09
243.775	5.12
243.992	46.08
244.209	44.03
244.426	140.29
244.643	29.7
244.86	-15.36
245.078	29.7
245.295	29.7
245.512	25.6
245.729	27.65
245.946	123.9
246.163	21.5
246.38	-35.84
246.597	27.65
246.814	25.6
247.031	54.27
247.248	56.32
247.464	19.46
247.681	119.81
247.898	50.18
248.115	-33.79
248.332	54.27
248.549	41.98
248.766	44.03
248.983	37.89
249.2	19.46
249.417	93.18
249.633	68.61
249.85	23.55
250.067	27.65
250.284	74.75
250.501	130.05
250.717	46.08
250.934	29.7
251.151	29.7
251.368	37.89
251.585	74.75
251.801	-3.07
252.018	-19.46
252.235	-3.07
252.451	17.41
252.668	37.89
252.885	15.36
253.102	87.04
253.318	80.89
253.535	31.74
253.752	91.13
253.968	-60.42
254.185	62.46
254.401	-35.84
254.618	-11.26
254.835	1.02
255.051	113.66
255.268	95.23
255.484	93.18
255.701	70.65
255.917	136.19
256.134	99.33
256.351	52.22
256.567	25.6
256.784	13.31
257	48.13
257.217	78.85
257.433	50.18
257.65	31.74
257.866	115.71
258.082	1.02
258.299	35.84
258.515	11.26
258.732	-23.55
258.948	50.18
259.165	29.7
259.381	54.27
259.597	93.18
259.814	-15.36
260.03	33.79
260.246	1.02
260.463	58.37
260.679	-5.12
260.895	54.27
261.112	66.56
261.328	-31.74
261.544	56.32
261.761	-5.12
261.977	5.12
262.193	-35.84
262.409	21.5
262.626	33.79
262.842	54.27
263.058	-1.02
263.274	3.07
263.49	52.22
263.707	21.5
263.923	68.61
264.139	-13.31
264.355	-48.13
264.571	78.85
264.787	41.98
265.004	46.08
265.22	52.22
265.436	50.18
265.652	46.08
265.868	37.89
266.084	-72.7
266.3	87.04
266.516	62.46
266.732	25.6
266.948	60.42
267.164	50.18
267.38	35.84
267.596	-9.22
267.812	21.5
268.028	-44.03
268.244	13.31
268.46	68.61
268.676	62.46
268.892	74.75
269.108	-1.02
269.324	15.36
269.54	17.41
269.756	11.26
269.972	60.42
270.188	29.7
270.403	-7.17
270.619	68.61
270.835	62.46
271.051	93.18
271.267	3.07
271.483	21.5
271.698	1.02
271.914	68.61
272.13	23.55
272.346	5.12
272.562	50.18
272.777	97.28
272.993	44.03
273.209	44.03
273.425	84.99
273.64	11.26
273.856	52.22
274.072	9.22
274.287	-37.89
274.503	27.65
274.719	21.5
274.934	-19.46
275.15	-15.36
275.366	-21.5
275.581	27.65
275.797	105.47
276.012	66.56
276.228	68.61
276.444	17.41
276.659	66.56
276.875	-5.12
277.09	21.5
277.306	-17.41
277.521	66.56
277.737	7.17
277.952	15.36
278.168	93.18
278.383	21.5
278.599	91.13
278.814	33.79
279.03	66.56
279.245	101.37
279.461	144.38
279.676	-80.89
279.892	78.85
280.107	9.22
280.322	-5.12
280.538	11.26
280.753	50.18
280.969	46.08
281.184	76.8
281.399	31.74
281.615	54.27
281.83	35.84
282.045	-3.07
282.26	56.32
282.476	25.6
282.691	5.12
282.906	31.74
283.122	-11.26
283.337	-13.31
283.552	80.89
283.767	58.37
283.983	91.13
284.198	-3.07
284.413	50.18
284.628	33.79
284.843	70.65
285.058	-11.26
285.274	27.65
285.489	9.22
285.704	84.99
285.919	87.04
286.134	1.02
286.349	19.46
286.564	60.42
286.779	54.27
286.995	41.98
287.21	-3.07
287.425	89.09
287.64	9.22
287.855	64.51
288.07	37.89
288.285	41.98
288.5	72.7
288.715	21.5
288.93	27.65
289.145	103.42
289.36	74.75
289.575	50.18
289.79	41.98
290.004	33.79
290.219	1.02
290.434	27.65
290.649	50.18
290.864	-7.17
291.079	52.22
291.294	68.61
291.509	-23.55
291.724	46.08
291.938	11.26
292.153	31.74
292.368	39.94
292.583	46.08
292.798	25.6
293.012	95.23
293.227	21.5
293.442	74.75
293.657	33.79
293.871	97.28
294.086	-60.42
294.301	37.89
294.516	58.37
294.73	7.17
294.945	44.03
295.16	82.94
295.374	87.04
295.589	68.61
295.804	87.04
296.018	119.81
296.233	37.89
296.447	-37.89
296.662	78.85
296.877	-62.46
297.091	37.89
297.306	15.36
297.52	31.74
297.735	72.7
297.949	56.32
298.164	89.09
298.378	-19.46
298.593	13.31
298.807	19.46
299.022	89.09
299.236	66.56
299.451	52.22
299.665	-3.07
299.88	-21.5
300.094	78.85
300.309	171.01
300.523	50.18
300.737	46.08
300.952	95.23
301.166	89.09
301.381	-3.07
301.595	52.22
301.809	9.22
302.024	46.08
302.238	27.65
302.452	87.04
302.667	70.65
302.881	21.5
303.095	105.47
303.309	72.7
303.524	21.5
303.738	44.03
303.952	13.31
304.166	66.56
304.381	37.89
304.595	93.18
304.809	54.27
305.023	27.65
305.237	-13.31
305.452	-15.36
305.666	58.37
305.88	72.7
306.094	15.36
306.308	21.5
306.522	70.65
306.736	44.03
306.95	33.79
307.164	-9.22
307.379	-19.46
307.593	68.61
307.807	50.18
308.021	52.22
308.235	62.46
308.449	-19.46
308.663	-1.02
308.877	46.08
309.091	41.98
309.305	74.75
309.519	41.98
309.733	76.8
309.947	-23.55
310.161	64.51
310.374	50.18
310.588	74.75
310.802	58.37
311.016	97.28
311.23	121.85
311.444	93.18
311.658	68.61
311.872	11.26
312.085	-29.7
312.299	25.6
312.513	78.85
312.727	50.18
312.941	44.03
313.154	54.27
313.368	23.55
313.582	-1.02
313.796	37.89
314.009	5.12
314.223	74.75
314.437	-13.31
314.651	44.03
314.864	1.02
315.078	35.84
315.292	37.89
315.505	80.89
315.719	39.94
315.933	19.46
316.146	76.8
316.36	25.6
316.573	31.74
316.787	91.13
317.001	5.12
317.214	93.18
317.428	54.27
317.641	70.65
317.855	3.07
318.068	62.46
318.282	37.89
318.495	97.28
318.709	62.46
318.922	-3.07
319.136	48.13
319.349	52.22
319.563	-31.74
319.776	87.04
319.99	-7.17
320.203	64.51
320.417	74.75
320.63	87.04
320.843	72.7
321.057	50.18
321.27	-11.26
321.483	27.65
321.697	78.85
321.91	11.26
322.124	9.22
322.337	35.84
322.55	58.37
322.763	76.8
322.977	17.41
323.19	29.7
323.403	-19.46
323.617	27.65
323.83	11.26
324.043	74.75
324.256	29.7
324.469	35.84
324.683	82.94
324.896	-19.46
325.109	62.46
325.322	21.5
325.535	27.65
325.748	62.46
325.962	3.07
326.175	44.03
326.388	70.65
326.601	82.94
326.814	31.74
327.027	60.42
327.24	107.52
327.453	15.36
327.666	35.84
327.879	117.76
328.092	33.79
328.305	87.04
328.518	19.46
328.731	25.6
328.944	33.79
329.157	89.09
329.37	-9.22
329.583	35.84
329.796	113.66
330.009	27.65
330.222	84.99
330.435	17.41
330.648	13.31
330.861	35.84
331.073	29.7
331.286	56.32
331.499	68.61
331.712	46.08
331.925	62.46
332.138	58.37
332.35	66.56
332.563	31.74
332.776	11.26
332.989	-9.22
333.202	54.27
333.414	27.65
333.627	39.94
333.84	27.65
334.053	70.65
334.265	68.61
334.478	64.51
334.691	23.55
334.903	-17.41
335.116	13.31
335.329	66.56
335.541	121.85
335.754	37.89
335.966	-23.55
336.179	37.89
336.392	25.6
336.604	95.23
336.817	-11.26
337.029	80.89
337.242	-27.65
337.454	84.99
337.667	60.42
337.88	66.56
338.092	-7.17
338.305	70.65
338.517	-3.07
338.729	76.8
338.942	58.37
339.154	33.79
339.367	-3.07
339.579	66.56
339.792	-15.36
340.004	52.22
340.217	44.03
340.429	33.79
340.641	31.74
340.854	78.85
341.066	46.08
341.278	-17.41
341.491	-27.65
341.703	33.79
341.915	37.89
342.128	23.55
342.34	44.03
342.552	33.79
342.764	54.27
342.977	50.18
343.189	39.94
343.401	82.94
343.613	46.08
343.826	76.8
344.038	35.84
344.25	84.99
344.462	54.27
344.674	15.36
344.886	27.65
345.099	39.94
345.311	25.6
345.523	95.23
345.735	-27.65
345.947	9.22
346.159	37.89
346.371	78.85
346.583	111.61
346.795	37.89
347.007	54.27
347.219	68.61
347.431	21.5
347.643	58.37
347.855	97.28
348.067	152.57
348.279	37.89
348.491	46.08
348.703	46.08
348.915	152.57
349.127	9.22
349.339	70.65
349.551	-39.94
349.763	76.8
349.975	-60.42
350.187	52.22
350.399	56.32
350.61	121.85
350.822	60.42
351.034	11.26
351.246	21.5
351.458	21.5
351.669	-27.65
351.881	25.6
352.093	103.42
352.305	23.55
352.517	62.46
352.728	33.79
352.94	25.6
353.152	87.04
353.363	7.17
353.575	70.65
353.787	74.75
353.999	39.94
354.21	105.47
354.422	39.94
354.633	35.84
354.845	89.09
355.057	66.56
355.268	-1.02
355.48	21.5
355.692	37.89
355.903	19.46
356.115	66.56
356.326	5.12
356.538	70.65
356.749	62.46
356.961	111.61
357.172	58.37
357.384	93.18
357.595	95.23
357.807	87.04
358.018	5.12
358.23	105.47
358.441	52.22
358.653	46.08
358.864	-19.46
359.075	52.22
359.287	13.31
359.498	50.18
359.709	97.28
359.921	1.02
360.132	103.42
360.344	-1.02
360.555	87.04
360.766	76.8
360.977	54.27
361.189	111.61
361.4	33.79
361.611	41.98
361.823	107.52
362.034	103.42
362.245	44.03
362.456	39.94
362.667	132.09
362.879	48.13
363.09	87.04
363.301	78.85
363.512	41.98
363.723	50.18
363.935	84.99
364.146	97.28
364.357	-33.79
364.568	76.8
364.779	27.65
364.99	23.55
365.201	29.7
365.412	54.27
365.623	1.02
365.834	5.12
366.045	74.75
366.256	5.12
366.467	101.37
366.678	46.08
366.889	113.66
367.1	84.99
367.311	68.61
367.522	97.28
367.733	99.33
367.944	119.81
368.155	74.75
368.366	68.61
368.577	64.51
368.788	78.85
368.999	11.26
369.209	95.23
369.42	64.51
369.631	82.94
369.842	58.37
370.053	76.8
370.264	93.18
370.474	54.27
370.685	41.98
370.896	78.85
371.107	-15.36
371.317	27.65
371.528	11.26
371.739	58.37
371.95	128
372.16	140.29
372.371	7.17
372.582	52.22
372.792	44.03
373.003	60.42
373.214	136.19
373.424	54.27
373.635	-3.07
373.846	95.23
374.056	101.37
374.267	72.7
374.477	68.61
374.688	35.84
374.898	33.79
375.109	70.65
375.319	56.32
375.53	54.27
375.74	84.99
375.951	25.6
376.161	27.65
376.372	44.03
376.582	-46.08
376.793	23.55
377.003	-29.7
377.214	-11.26
377.424	60.42
377.635	39.94
377.845	35.84
378.055	62.46
378.266	9.22
378.476	91.13
378.686	46.08
378.897	5.12
379.107	74.75
379.317	35.84
379.528	13.31
379.738	103.42
379.948	19.46
380.158	105.47
380.369	17.41
380.579	-1.02
380.789	80.89
380.999	80.89
381.21	37.89
381.42	111.61
381.63	76.8
381.84	119.81
382.05	60.42
382.261	97.28
382.471	68.61
382.681	5.12
382.891	99.33
383.101	1.02
383.311	64.51
383.521	54.27
383.731	13.31
383.941	74.75
384.151	97.28
384.361	119.81
384.571	95.23
384.781	52.22
384.991	13.31
385.201	128
385.411	128
385.621	87.04
385.831	74.75
386.041	50.18
386.251	25.6
386.461	60.42
386.671	89.09
386.881	101.37
387.091	62.46
387.301	89.09
387.511	93.18
387.72	15.36
387.93	183.29
388.14	-15.36
388.35	78.85
388.56	91.13
388.769	84.99
388.979	50.18
389.189	13.31
389.399	74.75
389.609	56.32
389.818	89.09
390.028	99.33
390.238	46.08
390.447	80.89
390.657	58.37
390.867	33.79
391.076	68.61
391.286	21.5
391.496	101.37
391.705	84.99
391.915	58.37
392.125	50.18
392.334	82.94
392.544	58.37
392.753	39.94
392.963	37.89
393.172	60.42
393.382	7.17
393.591	29.7
393.801	78.85
394.01	103.42
394.22	128
394.429	5.12
394.639	109.57
394.848	132.09
395.058	82.94
395.267	84.99
395.477	64.51
395.686	11.26
395.895	93.18
396.105	91.13
396.314	62.46
396.524	46.08
396.733	89.09
396.942	91.13
397.152	136.19
397.361	119.81
397.57	128
397.78	119.81
397.989	119.81
398.198	115.71
398.407	68.61
398.617	150.53
398.826	128
399.035	115.71
399.244	101.37
399.453	93.18
399.663	105.47
399.872	105.47
400.081	144.38
400.29	103.42
400.499	70.65
400.708	111.61
400.917	109.57
401.127	166.91
401.336	33.79
401.545	168.96
401.754	179.2
401.963	164.86
402.172	140.29
402.381	218.11
402.59	111.61
402.799	113.66
403.008	201.72
403.217	76.8
403.426	134.14
403.635	148.48
403.844	107.52
404.053	156.67
404.262	195.58
404.471	177.15
404.68	203.77
404.888	183.29
405.097	164.86
405.306	121.85
405.515	201.72
405.724	136.19
405.933	146.43
406.142	201.72
406.35	201.72
406.559	203.77
406.768	181.25
406.977	254.97
407.185	230.4
407.394	291.84
407.603	168.96
407.812	220.16
408.02	283.64
408.229	240.64
408.438	240.64
408.646	248.83
408.855	218.11
409.064	281.6
409.272	271.36
409.481	330.75
409.69	265.21
409.898	332.79
410.107	316.41
410.315	365.56
410.524	394.23
410.733	373.75
410.941	345.08
411.15	340.99
411.358	447.48
411.567	422.91
411.775	406.52
411.984	402.43
412.192	451.58
412.401	379.9
412.609	486.39
412.818	521.21
413.026	496.63
413.234	545.78
413.443	566.26
413.651	578.55
413.86	502.78
414.068	648.18
414.276	639.99
414.485	637.94
414.693	625.65
414.901	697.33
415.11	695.29
415.318	734.2
415.526	683
415.734	748.53
415.943	795.64
416.151	855.03
416.359	861.17
416.567	781.3
416.776	953.33
416.984	949.23
417.192	928.75
417.4	975.86
417.608	930.8
417.817	1025.01
418.025	1180.65
418.233	1215.47
418.441	1127.41
418.649	1231.85
418.857	1364.97
419.065	1350.64
419.273	1285.1
419.481	1375.21
419.689	1510.38
419.897	1645.54
420.105	1577.96
420.313	1582.06
420.521	1602.54
420.729	1672.17
420.937	1807.33
421.145	1881.06
421.353	1895.4
421.561	1926.11
421.769	1942.5
421.977	2053.09
422.185	2057.18
422.393	2192.35
422.601	2266.08
422.809	2319.32
423.017	2362.33
423.224	2477.02
423.432	2558.94
423.64	2655.19
423.848	2716.63
424.056	2671.58
424.263	2980.82
424.471	2853.84
424.679	3013.59
424.887	3027.92
425.094	3148.75
425.302	3144.66
425.51	3408.84
425.718	3464.14
425.925	3527.63
426.133	3623.88
426.341	3800.01
426.548	4088.77
426.756	3926.98
426.964	3843.01
427.171	4244.42
427.379	4469.69
427.586	4447.16
427.794	4617.15
428.001	4813.75
428.209	4983.73
428.417	4955.06
428.624	5422
428.832	5219.25
429.039	5288.88
429.247	5272.5
429.454	5784.49
429.662	6120.35
429.869	5778.34
430.076	6083.49
430.284	5856.17
430.491	6345.63
430.699	6550.43
430.906	6689.69
431.114	6671.26
431.321	7033.75
431.528	7097.24
431.736	7730.06
431.943	7895.94
432.15	7578.51
432.358	7754.63
432.565	8041.35
432.772	8067.97
432.979	8377.22
433.187	8479.61
433.394	8708.99
433.601	9288.56
433.808	9278.32
434.016	9288.56
434.223	9696.11
434.43	10306.4
434.637	10185.57
434.844	10564.45
435.052	10783.58
435.259	10703.71
435.466	11006.81
435.673	10703.71
435.88	11795.28
436.087	11998.02
436.294	12102.47
436.501	11873.1
436.708	12094.28
436.915	12370.76
437.122	13235
437.329	12774.21
437.537	13247.29
437.743	13626.16
437.95	13398.84
438.157	14293.8
438.364	14787.36
438.571	14639.9
438.778	14828.32
438.985	16048.91
439.192	15452.95
439.399	16147.21
439.606	15688.46
439.813	16376.58
440.02	17369.85
440.227	17275.64
440.433	17003.26
440.64	17885.94
440.847	17576.69
441.054	18023.15
441.261	19094.24
441.467	18969.31
441.674	19677.91
441.881	19892.94
442.088	20058.83
442.294	19927.76
442.501	20374.22
442.708	20810.43
442.914	21582.52
443.121	22608.55
443.328	21967.54
443.534	23655.06
443.741	22882.98
443.948	22500.01
444.154	24402.57
444.361	23913.11
444.568	24564.36
444.774	24150.67
444.981	24550.03
445.187	25387.64
445.394	26516.08
445.6	25889.4
445.807	28424.78
446.013	27384.41
446.22	27429.47
446.426	28666.44
446.633	28918.34
446.839	29899.32
447.046	28897.86
447.252	30388.78
447.459	30294.58
447.665	30474.8
447.871	31914.52
448.078	33301
448.284	31543.84
448.491	32315.92
448.697	33454.59
448.903	34261.49
449.11	34601.46
449.316	33640.96
449.522	34263.54
449.728	35248.61
449.935	35455.46
450.141	35664.35
450.347	36063.71
450.553	35527.14
450.76	35721.69
450.966	36901.32
451.172	36157.91
451.378	36995.53
451.584	36913.61
451.791	37593.54
451.997	37628.35
452.203	38083
452.409	38255.03
452.615	37577.15
452.821	36598.23
453.027	36098.52
453.233	38099.39
453.44	36362.71
453.646	36891.09
453.852	37190.09
454.058	37601.73
454.264	36358.61
454.47	37185.99
454.676	36469.2
454.882	37390.79
455.088	34314.74
455.294	34839.02
455.5	35504.61
455.705	35625.44
455.911	34150.9
456.117	33700.35
456.323	33372.67
456.529	31805.98
456.735	32928.27
456.941	32016.92
457.147	31697.44
457.352	30722.6
457.558	30245.43
457.764	30409.26
457.97	29264.45
458.176	28963.4
458.381	28779.08
458.587	27572.83
458.793	27753.05
458.999	26413.68
459.204	27939.41
459.41	27355.74
459.616	25492.09
459.821	25444.99
460.027	25791.09
460.233	24879.75
460.438	23605.91
460.644	24191.63
460.85	23032.48
461.055	22596.26
461.261	22647.46
461.466	20722.37
461.672	20013.77
461.878	21418.68
462.083	20189.9
462.289	19751.63
462.494	19778.26
462.7	18631.4
462.905	18316.01
463.111	18821.86
463.316	18891.49
463.522	18332.39
463.727	18481.89
463.932	18522.85
464.138	18399.98
464.343	18780.9
464.549	17742.58
464.754	18385.64
464.959	18297.58
465.165	17890.03
465.37	17326.84
465.575	16956.16
465.781	17791.73
465.986	17988.33
466.191	17079.04
466.397	16792.32
466.602	15727.38
466.807	16366.34
467.012	16622.34
467.218	16503.56
467.423	16001.8
467.628	16675.59
467.833	17017.6
468.038	16184.07
468.244	15981.32
468.449	16438.02
468.654	15837.97
468.859	15889.17
469.064	15708.94
469.269	15229.72
469.474	15479.57
469.679	15952.65
469.885	15143.7
470.09	15364.89
470.295	15418.13
470.5	14883.61
470.705	15037.21
470.91	14508.83
471.115	14635.81
471.32	14822.17
471.525	14750.49
471.73	14420.77
471.935	14039.85
472.139	13734.7
472.344	13806.38
472.549	13701.93
472.754	13558.58
472.959	13482.8
473.164	13144.89
473.369	12919.61
473.574	13519.67
473.778	13443.89
473.983	13269.81
474.188	13083.45
474.393	12520.26
474.598	12534.59
474.802	12555.07
475.007	12397.38
475.212	12444.48
475.417	11893.58
475.621	12084.04
475.826	12208.97
476.031	11774.8
476.235	11656.01
476.44	11709.26
476.645	11545.42
476.849	11453.27
477.054	11340.63
477.259	11332.44
477.463	11320.15
477.668	10771.29
477.872	11096.92
478.077	10865.5
478.282	10347.36
478.486	10609.5
478.691	10503.01
478.895	10589.02
479.1	10339.17
479.304	10472.29
479.509	10169.19
479.713	10158.95
479.918	10005.35
480.122	9988.97
480.326	10001.26
480.531	10079.08
480.735	9890.67
480.94	9800.55
481.144	10208.1
481.348	9896.81
481.553	9782.12
481.757	9649
481.961	9692.01
482.166	9845.61
482.37	9780.07
482.574	9728.88
482.778	9634.67
482.983	9933.67
483.187	9800.55
483.391	9884.52
483.595	9743.21
483.8	9616.24
484.004	9700.2
484.208	9841.51
484.412	9507.69
484.616	9616.24
484.821	9749.36
485.025	9562.99
485.229	9999.21
485.433	9542.51
485.637	9694.06
485.841	9487.22
486.045	9538.41
486.249	9450.35
486.453	9634.67
486.657	9499.5
486.861	9620.33
487.065	9575.28
487.269	9513.84
487.473	9395.06
487.677	9737.07
487.881	9595.76
488.085	9644.91
488.289	9638.76
488.493	9673.58
488.697	9587.57
488.901	9614.19
489.105	9833.32
489.309	9878.38
489.512	9818.99
489.716	9843.56
489.92	9739.12
490.124	9651.05
490.328	9853.8
490.531	9702.25
490.735	9939.82
490.939	9782.12
491.143	9868.14
491.346	9769.83
491.55	10126.18
491.754	10197.86
491.958	10115.94
492.161	10066.79
492.365	10079.08
492.569	10269.54
492.772	10279.78
492.976	10359.65
493.18	10425.18
493.383	10431.33
493.587	10457.95
493.79	10636.13
493.994	10197.86
494.197	10572.64
494.401	10783.58
494.605	10738.52
494.808	10939.23
495.012	10861.4
495.215	10961.75
495.419	11135.83
495.622	11047.77
495.825	11271
496.029	11348.82
496.232	11412.31
496.436	11262.8
496.639	11635.53
496.843	11518.8
497.046	11965.26
497.249	11871.05
497.453	12135.24
497.656	12143.43
497.859	12366.66
498.063	12383.04
498.266	12632.9
498.469	12471.11
498.673	12862.27
498.876	12874.56
499.079	12890.94
499.282	12940.09
499.485	13386.55
499.689	13374.26
499.892	13519.67
500.095	13681.46
500.298	14115.62
500.501	13851.44
500.705	14273.32
500.908	14545.7
501.111	14693.15
501.314	14619.42
501.517	14770.97
501.72	15094.55
501.923	15082.27
502.126	15502.1
502.329	15397.65
502.532	15500.05
502.735	15506.2
502.938	15887.12
503.141	15971.08
503.344	16171.79
503.547	16329.48
503.75	16495.36
503.953	16874.24
504.156	16941.82
504.359	17335.03
504.562	17179.39
504.765	17578.74
504.968	17769.2
505.17	18084.59
505.373	17758.96
505.576	18219.75
505.779	18451.17
505.982	18572
506.185	18987.74
506.387	18817.76
506.59	19210.97
506.793	19899.09
506.996	19253.98
507.198	19968.72
507.401	19684.05
507.604	20310.73
507.807	20712.13
508.009	20814.53
508.212	20830.91
508.415	21103.29
508.617	21334.71
508.82	21668.53
509.022	21480.12
509.225	22035.12
509.428	21777.08
509.63	22377.13
509.833	22158
510.035	23231.13
510.238	22905.51
510.44	23157.41
510.643	23317.15
510.845	23562.9
511.048	23691.93
511.25	24224.4
511.453	24197.77
511.655	25150.08
511.858	24494.73
512.06	24951.43
512.262	24849.03
512.465	25109.12
512.667	25547.39
512.87	25733.75
513.072	25860.73
513.274	26399.34
513.477	26442.35
513.679	26573.42
513.881	26954.34
514.084	27353.69
514.286	27497.05
514.488	27736.66
514.69	28406.35
514.893	28408.4
515.095	28150.35
515.297	28781.13
515.499	28619.34
515.701	29010.5
515.904	29510.21
516.106	29663.8
516.308	29868.6
516.51	30140.98
516.712	30040.63
516.914	30597.68
517.116	30837.29
517.318	30988.84
517.52	31099.43
517.722	31210.02
517.925	31728.16
518.127	32100.89
518.329	31978.01
518.531	32174.61
518.733	32530.96
518.935	32979.46
519.136	33051.14
519.338	33645.05
519.54	33483.27
519.742	34150.9
519.944	34169.33
520.146	34755.05
520.348	34890.22
520.55	34687.47
520.752	34929.13
520.954	35555.81
521.155	35420.64
521.357	35594.72
521.559	36254.17
521.761	36428.24
521.963	36317.65
522.164	36489.68
522.366	36444.63
522.568	37192.14
522.77	37329.35
522.971	38040
523.173	37530.05
523.375	37749.18
523.576	37878.21
523.778	37861.82
523.98	38449.59
524.181	38529.46
524.383	38468.02
524.584	39074.22
524.786	39358.89
524.988	39246.25
525.189	39563.68
525.391	39870.88
525.592	39774.63
525.794	40106.4
525.995	39963.04
526.197	40223.13
526.398	40194.46
526.6	40548.76
526.801	40640.92
527.003	40739.22
527.204	40876.43
527.406	41292.17
527.607	40868.24
527.808	41492.87
528.01	40581.52
528.211	41034.13
528.412	42068.35
528.614	41609.61
528.815	41886.08
529.016	42008.96
529.218	41695.62
529.419	42084.73
529.62	42178.94
529.822	41965.95
530.023	41773.44
530.224	42072.45
530.425	42303.87
530.626	41816.45
530.828	41767.3
531.029	43073.9
531.23	42455.42
531.431	42512.76
531.632	42527.1
531.833	42996.08
532.035	42658.17
532.236	42895.73
532.437	43196.78
532.638	42789.24
532.839	42803.57
533.04	42969.46
533.241	42584.44
533.442	43510.12
533.643	43274.6
533.844	42932.59
534.045	42908.02
534.246	42682.74
534.447	43428.2
534.648	43082.09
534.849	43538.79
535.05	42824.05
535.251	42948.98
535.451	43090.29
535.652	43252.08
535.853	43225.45
536.054	43356.52
536.255	43610.47
536.456	43088.24
536.657	43630.95
536.857	43653.48
537.058	42797.43
537.259	43694.44
537.46	43014.51
537.66	42991.98
537.861	43161.97
538.062	42973.55
538.263	43639.14
538.463	42654.07
538.664	43000.18
538.865	43260.27
539.065	43434.35
539.266	42699.12
539.466	43608.42
539.667	42613.11
539.868	43653.48
540.068	43266.41
540.269	42895.73
540.469	43030.9
540.67	43098.48
540.87	42957.17
541.071	43153.77
541.271	43479.4
541.472	43254.12
541.672	42654.07
541.873	42764.66
542.073	42645.88
542.274	43008.37
542.474	42815.86
542.675	42766.71
542.875	43684.2
543.075	42871.15
543.276	42617.21
543.476	42631.54
543.676	43041.14
543.877	42944.88
544.077	42553.72
544.277	42793.33
544.478	43282.8
544.678	43186.54
544.878	42649.97
545.078	42924.4
545.279	42928.5
545.479	42504.57
545.679	42701.17
545.879	43219.31
546.079	42856.82
546.28	42709.36
546.48	42469.75
546.68	43078
546.88	42858.87
547.08	42758.52
547.28	42277.24
547.48	42228.09
547.68	43012.46
547.88	42617.21
548.081	43063.66
548.281	42723.7
548.481	42279.29
548.681	42578.29
548.881	42598.77
549.081	42735.99
549.28	42170.75
549.48	43075.95
549.68	42525.05
549.88	42877.3
550.08	42275.19
550.28	42547.57
550.48	42379.64
550.68	42826.1
550.88	42340.73
551.08	42045.82
551.279	42631.54
551.479	42164.6
551.679	42285.43
551.879	42029.44
552.079	42207.61
552.278	42633.59
552.478	42260.86
552.678	42297.72
552.878	42563.96
553.077	42006.91
553.277	41812.35
553.477	42406.26
553.676	41947.52
553.876	42004.86
554.076	41828.74
554.275	41689.48
554.475	41464.2
554.674	42123.65
554.874	41605.51
555.074	41812.35
555.273	42242.43
555.473	42019.2
555.672	41781.63
555.872	41947.52
556.071	42105.21
556.271	42121.6
556.47	41763.2
556.67	41298.31
556.869	42015.1
557.068	41644.42
557.268	41202.06
557.467	41243.02
557.667	41505.16
557.866	41826.69
558.065	41484.68
558.265	41009.55
558.464	41236.87
558.663	41673.09
558.863	40771.99
559.062	41122.19
559.261	40968.59
559.461	41214.35
559.66	40659.35
559.859	41187.72
560.058	40602
560.258	40817.04
560.457	40495.51
560.656	41249.16
560.855	40659.35
561.054	40790.42
561.253	40305.05
561.453	40950.16
561.652	40679.83
561.851	40608.15
562.05	40389.02
562.249	40040.86
562.448	40335.77
562.647	40384.92
562.846	40583.57
563.045	40372.63
563.244	40057.24
563.443	40004
563.642	39528.87
563.841	40171.93
564.04	40001.95
564.239	39848.35
564.438	39557.54
564.637	39641.51
564.836	39731.62
565.035	39066.03
565.234	39467.43
565.432	39596.45
565.631	39131.56
565.83	39776.67
566.029	39408.04
566.228	39178.67
566.427	38953.39
566.625	39154.09
566.824	38369.72
567.023	39197.1
567.222	38289.85
567.42	39287.21
567.619	38597.04
567.818	38842.8
568.016	38799.79
568.215	38752.69
568.414	38488.5
568.612	38601.14
568.811	38416.82
569.01	38513.08
569.208	37894.59
569.407	38572.47
569.605	37657.03
569.804	38468.02
570.002	37489.09
570.201	38306.23
570.4	38017.47
570.598	37827.01
570.797	37384.65
570.995	37867.97
571.193	37118.41
571.392	37921.21
571.59	36938.19
571.789	37335.49
571.987	36872.65
572.186	37128.65
572.384	36712.91
572.582	37030.35
572.781	36985.29
572.979	36706.77
573.177	36596.18
573.376	36850.13
573.574	36870.61
573.772	36784.59
573.971	36612.56
574.169	35979.74
574.367	35748.32
574.565	36463.06
574.763	36180.44
574.962	35723.74
575.16	35776.99
575.358	35684.83
575.556	35584.48
575.754	36016.6
575.952	35256.81
576.151	35746.27
576.349	35324.39
576.547	35666.4
576.745	35418.6
576.943	35625.44
577.141	35176.94
577.339	34929.13
577.537	35250.66
577.735	34810.35
577.933	34820.59
578.131	35027.43
578.329	34560.5
578.527	34677.23
578.725	34630.13
578.923	34744.81
579.121	34257.4
579.319	34515.44
579.516	34456.05
579.714	34408.95
579.912	34132.47
580.11	34138.62
580.308	33985.02
580.506	34116.09
580.704	33339.91
580.901	33968.63
581.099	33976.83
581.297	33446.4
581.495	33446.4
581.692	33294.85
581.89	33323.52
582.088	33544.7
582.285	33012.23
582.483	33612.29
582.681	33290.76
582.878	33036.81
583.076	32885.26
583.274	32903.69
583.471	32139.8
583.669	32625.17
583.866	32739.85
584.064	32475.66
584.262	32264.72
584.459	32573.97
584.657	32068.12
584.854	32334.35
585.052	31443.49
585.249	32514.58
585.447	32066.07
585.644	31793.69
585.841	31777.31
586.039	32012.82
586.236	31441.44
586.434	31517.22
586.631	31562.27
586.828	31562.27
587.026	31242.79
587.223	31375.91
587.42	31144.48
587.618	31076.9
587.815	30464.56
588.012	31007.27
588.21	30628.4
588.407	31099.43
588.604	31037.99
588.801	30358.06
588.999	30413.36
589.196	30458.42
589.393	30491.18
589.59	30161.46
589.787	30267.95
589.984	30175.8
590.182	29536.83
590.379	30114.36
590.576	29866.55
590.773	29698.62
590.97	29682.24
591.167	29755.96
591.364	29151.81
591.561	29497.92
591.758	29348.42
591.955	28996.17
592.152	29391.42
592.349	29002.31
592.546	28994.12
592.743	28891.72
592.94	28871.24
593.137	28596.81
593.334	28613.2
593.531	28551.76
593.727	28895.82
593.924	28621.39
594.121	28136.02
594.318	28549.71
594.515	28066.39
594.712	28457.55
594.908	28158.55
595.105	28254.8
595.302	28039.76
595.499	27968.09
595.696	27959.89
595.892	27558.49
596.089	27855.45
596.286	27814.49
596.482	27488.86
596.679	27165.28
596.876	27615.83
597.072	27296.35
597.269	27304.54
597.466	27470.43
597.662	27073.12
597.859	26657.39
598.055	26942.05
598.252	27056.74
598.448	26974.82
598.645	26585.71
598.841	26380.91
599.038	26526.32
599.234	26358.38
599.431	26159.73
599.627	26090.1
599.824	26253.94
600.02	26096.24
600.217	26344.05
600.413	25936.5
600.609	25799.29
600.806	25842.29
601.002	25905.78
601.198	25506.43
601.395	25703.03
601.591	25373.31
601.787	25000.58
601.984	25186.94
602.18	25479.8
602.376	25248.38
602.572	24941.19
602.769	25014.91
602.965	24498.83
603.161	24814.21
603.357	24812.17
603.553	24580.74
603.75	24783.49
603.946	24541.83
604.142	24435.34
604.338	23970.45
604.534	24334.99
604.73	24117.9
604.926	24140.43
605.122	24255.12
605.318	24064.66
605.514	23917.2
605.71	23691.93
605.906	23937.68
606.102	23724.69
606.298	24025.75
606.494	23530.14
606.69	23657.11
606.886	23431.83
607.082	23087.78
607.278	23505.56
607.474	23075.49
607.67	23601.82
607.866	22790.82
608.062	23358.11
608.257	23126.69
608.453	23091.87
608.649	23075.49
608.845	23009.95
609.041	22905.51
609.236	22895.27
609.432	22905.51
609.628	23212.7
609.824	22543.02
610.019	22735.53
610.215	22602.41
610.411	22835.88
610.606	22282.92
610.802	22835.88
610.998	22469.29
611.193	22647.46
611.389	22080.18
611.584	22651.56
611.78	22291.12
611.976	22461.1
612.171	22264.49
612.367	22096.56
612.562	22354.6
612.758	21619.38
612.953	21988.02
613.149	22180.53
613.344	21916.34
613.539	22074.03
613.735	21883.57
613.93	21930.67
614.126	21639.86
614.321	22086.32
614.517	21830.32
614.712	21723.83
614.907	21854.9
615.103	21820.08
615.298	21568.18
615.493	21842.61
615.688	21365.43
615.884	21734.07
616.079	21394.11
616.274	21349.05
616.47	21381.82
616.665	21379.77
616.86	21408.44
617.055	21316.28
617.25	21179.07
617.445	21277.37
617.641	20886.21
617.836	21146.3
618.031	20816.58
618.226	20918.98
618.421	20515.53
618.616	20908.74
618.811	20165.32
619.006	20828.87
619.201	20470.47
619.396	20468.42
619.591	20239.05
619.786	20773.57
619.981	20116.17
620.176	20159.18
620.371	19815.12
620.566	20034.25
620.761	19628.76
620.956	19962.58
621.151	19718.87
621.346	20112.08
621.541	19417.82
621.735	19546.84
621.93	19055.33
622.125	19442.39
622.32	18942.69
622.515	19204.83
622.709	19077.85
622.904	18797.28
623.099	19120.86
623.294	18674.4
623.488	18719.46
623.683	18510.57
623.878	18342.63
624.072	18262.76
624.267	18447.08
624.462	18264.81
624.656	17982.19
624.851	18143.98
625.046	17933.04
625.24	17941.23
625.435	17408.76
625.629	17564.4
625.824	17361.66
626.018	17652.47
626.213	17218.3
626.407	17365.75
626.602	17087.23
626.796	17187.58
626.991	16896.77
627.185	17019.64
627.38	16765.7
627.574	16429.83
627.768	16792.32
627.963	16663.3
628.157	16208.65
628.352	16370.44
628.546	16276.23
628.74	16141.07
628.935	15899.41
629.129	15842.06
629.323	15936.27
629.517	15665.94
629.712	15530.77
629.906	15557.39
630.1	15729.42
630.294	15545.11
630.489	15452.95
630.683	15379.22
630.877	15266.58
631.071	15100.7
631.265	15137.56
631.459	14936.86
631.653	14756.64
631.848	14854.94
632.042	14519.07
632.236	14740.26
632.43	14594.85
632.624	14680.86
632.818	14510.88
633.012	14304.04
633.206	14238.5
633.4	14218.02
633.594	14109.48
633.788	14039.85
633.982	14080.81
634.176	14045.99
634.369	13951.79
634.563	13857.58
634.757	13505.33
634.951	13628.21
635.145	13652.78
635.339	13513.52
635.533	13450.03
635.726	13337.4
635.92	13316.92
636.114	13437.75
636.308	13300.53
636.501	12960.57
636.695	13130.55
636.889	12970.81
637.083	12942.14
637.276	12778.3
637.47	12587.84
637.664	12622.66
637.857	12890.94
638.051	12634.94
638.244	12694.33
638.438	12376.9
638.632	12335.94
638.825	12301.12
639.019	12442.43
639.212	12211.01
639.406	12321.6
639.599	12034.89
639.793	12020.55
639.986	12028.74
640.18	12022.6
640.373	11971.4
640.567	11529.04
640.76	11635.53
640.954	11557.71
641.147	11531.09
641.34	11406.16
641.534	11510.61
641.727	11559.76
641.92	11457.36
642.114	11076.44
642.307	11404.11
642.5	11234.13
642.694	10998.62
642.887	10941.27
643.08	11103.06
643.273	11096.92
643.467	10943.32
643.66	10787.68
643.853	10711.9
644.046	10509.15
644.239	10810.2
644.432	10672.99
644.626	10333.03
644.819	10388.32
645.012	10261.35
645.205	10408.8
645.398	10453.86
645.591	10283.88
645.784	10138.47
645.977	10052.45
646.17	10077.03
646.363	9907.05
646.556	9892.71
646.749	9716.59
646.942	9919.34
647.135	9825.13
647.328	9698.16
647.521	9665.39
647.714	9462.64
647.907	9587.57
648.099	9481.07
648.292	9616.24
648.485	9544.56
648.678	9296.75
648.871	9403.25
649.064	9257.84
649.256	9298.8
649.449	9321.33
649.642	9196.4
649.835	9106.29
650.027	9053.05
650.22	8911.74
650.413	8909.69
650.605	8770.43
650.798	8747.9
650.991	8899.45
651.183	9005.94
651.376	8708.99
651.568	8778.62
651.761	8625.02
651.954	8735.61
652.146	8379.26
652.339	8500.09
652.531	8323.97
652.724	8422.27
652.916	8262.53
653.109	8346.5
653.301	8387.46
653.494	8307.59
653.686	8055.69
653.879	8194.95
654.071	8110.98
654.263	8008.58
654.456	7986.05
654.648	8100.74
654.84	7746.44
655.033	7818.12
655.225	7791.5
655.417	7867.27
655.61	7852.94
655.802	7742.35
655.994	7674.76
656.186	7611.28
656.379	7607.18
656.571	7713.67
656.763	7410.57
656.955	7566.22
657.148	7529.36
657.34	7699.34
657.532	7402.38
657.724	7222.16
657.916	7273.36
658.108	7330.7
658.3	7099.28
658.492	7220.11
658.684	7080.85
658.876	7031.7
659.068	7078.8
659.26	6787.99
659.452	7089.04
659.644	6947.73
659.836	6847.38
660.028	7019.41
660.22	6831
660.412	6847.38
660.604	6599.58
660.796	6845.34
660.988	6744.99
661.18	6546.33
661.372	6677.4
661.563	6507.42
661.755	6630.3
661.947	6521.76
662.139	6501.28
662.331	6556.57
662.522	6302.62
662.714	6220.71
662.906	6349.73
663.097	6323.1
663.289	6124.45
663.481	6073.25
663.673	6255.52
663.864	6089.64
664.056	6116.26
664.247	6101.92
664.439	6083.49
664.631	5954.47
664.822	6067.11
665.014	6063.01
665.205	5938.09
665.397	5862.31
665.588	5856.17
665.78	5925.8
665.971	5661.61
666.163	5823.4
666.354	5809.06
666.546	5749.67
666.737	5663.66
666.929	5682.09
667.12	5639.08
667.311	5682.09
667.503	5616.55
667.694	5696.43
667.885	5622.7
668.077	5495.72
668.268	5338.03
668.459	5491.63
668.651	5409.71
668.842	5438.38
669.033	5239.73
669.224	5346.22
669.416	5485.48
669.607	5159.86
669.798	5319.6
669.989	5387.18
670.18	5264.3
670.371	5190.58
670.563	5198.77
670.754	5182.38
670.945	5022.64
671.136	5135.28
671.327	5172.15
671.518	5034.93
671.709	4981.68
671.9	4950.96
672.091	5047.22
672.282	5049.27
672.473	4936.63
672.664	4856.76
672.855	4965.3
673.046	4975.54
673.237	5098.42
673.428	4805.56
673.619	4760.5
673.809	4985.78
674	4721.59
674.191	4651.96
674.382	4780.98
674.573	4729.78
674.764	4660.15
674.954	4776.89
675.145	4508.6
675.336	4664.25
675.527	4705.21
675.717	4625.34
675.908	4654.01
676.099	4570.04
676.289	4588.47
676.48	4561.85
676.671	4594.62
676.861	4547.51
677.052	4438.97
677.243	4539.32
677.433	4637.63
677.624	4557.75
677.814	4598.71
678.005	4410.3
678.195	4477.88
678.386	4576.19
678.576	4359.1
678.767	4258.75
678.957	4494.27
679.148	4492.22
679.338	4328.38
679.529	4404.16
679.719	4373.44
679.909	4477.88
680.1	4223.94
680.29	4299.71
680.481	4332.48
680.671	4279.23
680.861	4232.13
681.052	4287.42
681.242	4301.76
681.432	4314.05
681.622	4254.66
681.813	4344.77
682.003	4244.42
682.193	4240.32
682.383	4162.5
682.573	4217.79
682.764	4080.58
682.954	4199.36
683.144	4121.54
683.334	4213.7
683.524	4053.95
683.714	4131.78
683.904	4027.33
684.094	4256.7
684.284	4060.1
684.474	4035.52
684.664	4084.67
684.854	4082.63
685.044	4139.97
685.234	3969.99
685.424	4150.21
685.614	4131.78
685.804	4109.25
685.994	4002.75
686.184	3879.88
686.374	3904.45
686.564	3963.84
686.753	3896.26
686.943	3873.73
687.133	3838.92
687.323	3836.87
687.513	3865.54
687.702	3765.19
687.892	3886.02
688.082	3693.51
688.272	3757
688.461	3849.16
688.651	3822.53
688.841	3722.18
689.03	3818.44
689.22	3761.09
689.41	3675.08
689.599	3642.31
689.789	3627.98
689.979	3658.7
690.168	3650.5
690.358	3660.74
690.547	3546.06
690.737	3591.11
690.926	3548.11
691.116	3498.95
691.305	3541.96
691.495	3513.29
691.684	3445.71
691.874	3380.17
692.063	3355.6
692.252	3400.65
692.442	3367.88
692.631	3314.64
692.82	3294.16
693.01	3269.58
693.199	3353.55
693.388	3302.35
693.578	3228.62
693.767	3341.26
693.956	3357.64
694.146	3247.05
694.335	3185.62
694.524	3242.96
694.713	3261.39
694.902	3216.33
695.092	3206.1
695.281	3193.81
695.47	3146.7
695.659	3075.03
695.848	3156.94
696.037	3089.36
696.226	3134.42
696.415	3062.74
696.604	3019.73
696.793	3058.64
696.982	2894.8
697.171	3040.21
697.36	3013.59
697.549	3034.07
697.738	3036.11
697.927	2960.34
698.116	3032.02
698.305	2993.11
698.494	3103.7
698.683	2859.99
698.872	2939.86
699.061	2878.42
699.25	2923.48
699.438	2859.99
699.627	3007.44
699.816	2911.19
700.005	2804.69
700.193	2882.52
700.382	2886.61
700.571	2737.11
700.76	2864.08
700.948	2921.43
701.137	2851.8
701.326	2694.1
701.514	2755.54
701.703	2859.99
701.892	2790.36
702.08	2882.52
702.269	2827.22
702.457	2878.42
702.646	2821.08
702.834	2810.84
703.023	2720.73
703.212	2667.48
703.4	2718.68
703.589	2651.1
703.777	2741.21
703.965	2673.62
704.154	2669.53
704.342	2782.17
704.531	2712.53
704.719	2665.43
704.907	2743.25
705.096	2663.38
705.284	2700.25
705.472	2761.69
705.661	2759.64
705.849	2716.63
706.037	2704.34
706.226	2755.54
706.414	2698.2
706.602	2634.71
706.79	2708.44
706.979	2599.9
707.167	2644.95
707.355	2569.18
707.543	2593.75
707.731	2790.36
707.919	2765.78
708.107	2751.45
708.296	2728.92
708.484	2599.9
708.672	2601.94
708.86	2663.38
709.048	2530.27
709.236	2550.75
709.424	2651.1
709.612	2593.75
709.8	2694.1
709.988	2563.03
710.176	2593.75
710.364	2560.98
710.551	2655.19
710.739	2626.52
710.927	2606.04
711.115	2558.94
711.303	2659.29
711.491	2563.03
711.679	2634.71
711.866	2583.51
712.054	2710.49
712.242	2515.93
712.43	2616.28
712.617	2565.08
712.805	2659.29
712.993	2520.03
713.181	2593.75
713.368	2548.7
713.556	2634.71
713.744	2526.17
713.931	2681.82
714.119	2698.2
714.306	2569.18
714.494	2552.79
714.682	2540.51
714.869	2610.14
715.057	2577.37
715.244	2606.04
715.432	2538.46
715.619	2677.72
715.807	2616.28
715.994	2573.27
716.182	2608.09
716.369	2790.36
716.556	2698.2
716.744	2589.66
716.931	2538.46
717.119	2577.37
717.306	2663.38
717.493	2630.62
717.681	2624.47
717.868	2575.32
718.055	2608.09
718.242	2495.45
718.43	2655.19
718.617	2608.09
718.804	2542.55
718.991	2593.75
719.179	2616.28
719.366	2630.62
719.553	2608.09
719.74	2558.94
719.927	2573.27
720.114	2548.7
720.301	2634.71
720.488	2505.69
720.676	2634.71
720.863	2571.22
721.05	2548.7
721.237	2550.75
721.424	2542.55
721.611	2571.22
721.798	2556.89
721.985	2548.7
722.172	2536.41
722.358	2669.53
722.545	2626.52
722.732	2528.22
722.919	2595.8
723.106	2675.67
723.293	2544.6
723.48	2597.85
723.667	2618.33
723.853	2497.5
724.04	2534.36
724.227	2577.37
724.414	2610.14
724.6	2397.15
724.787	2608.09
724.974	2696.15
725.161	2661.34
725.347	2548.7
725.534	2636.76
725.72	2589.66
725.907	2614.23
726.094	2659.29
726.28	2556.89
726.467	2427.87
726.653	2560.98
726.84	2556.89
727.027	2468.83
727.213	2581.46
727.4	2657.24
727.586	2712.53
727.773	2640.86
727.959	2577.37
728.145	2622.42
728.332	2603.99
728.518	2530.27
728.705	2669.53
728.891	2601.94
729.077	2464.73
729.264	2485.21
729.45	2350.04
729.636	2477.02
729.823	2618.33
730.009	2737.11
730.195	2524.12
730.382	2524.12
730.568	2536.41
730.754	2458.59
730.94	2597.85
731.126	2524.12
731.313	2595.8
731.499	2421.72
731.685	2495.45
731.871	2544.6
732.057	2626.52
732.243	2644.95
732.429	2536.41
732.615	2565.08
732.801	2436.06
732.987	2560.98
733.173	2552.79
733.359	2624.47
733.545	2479.07
733.731	2577.37
733.917	2565.08
734.103	2511.83
734.289	2411.48
734.475	2524.12
734.661	2581.46
734.847	2446.3
735.033	2489.31
735.219	2511.83
735.404	2565.08
735.59	2560.98
735.776	2497.5
735.962	2415.58
736.148	2462.68
736.333	2493.4
736.519	2532.31
736.705	2431.96
736.89	2544.6
737.076	2382.81
737.262	2474.97
737.447	2364.38
737.633	2450.39
737.819	2431.96
738.004	2446.3
738.19	2360.28
738.375	2382.81
738.561	2517.98
738.747	2511.83
738.932	2382.81
739.118	2405.34
739.303	2413.53
739.489	2413.53
739.674	2417.63
739.859	2477.02
740.045	2311.13
740.23	2370.52
740.416	2311.13
740.601	2380.76
740.786	2264.03
740.972	2327.52
741.157	2298.84
741.342	2102.24
741.528	2368.48
741.713	2341.85
741.898	2331.61
742.084	2319.32
742.269	2274.27
742.454	2339.8
742.639	2331.61
742.824	2270.17
743.01	2327.52
743.195	2157.54
743.38	2241.5
743.565	2296.8
743.75	2337.76
743.935	2159.58
744.12	2225.12
744.305	2081.76
744.49	2237.41
744.675	2132.96
744.86	2192.35
745.045	2032.61
745.23	2102.24
745.415	2102.24
745.6	2012.13
745.785	2126.82
745.97	2147.3
746.155	2130.91
746.34	2163.68
746.525	2040.8
746.71	2057.18
746.895	2059.23
747.079	2116.58
747.264	2073.57
747.449	1911.78
747.634	2018.27
747.819	1979.36
748.003	1879.01
748.188	1952.74
748.373	1958.88
748.557	2022.37
748.742	1901.54
748.927	1881.06
749.111	1870.82
749.296	1915.87
749.481	1909.73
749.665	1836
749.85	1774.56
750.034	1897.44
750.219	1954.79
750.404	1782.76
750.588	1864.68
750.773	1825.76
750.957	1842.15
751.141	1700.84
751.326	1754.09
751.51	1635.3
751.695	1694.69
751.879	1713.13
752.064	1774.56
752.248	1764.33
752.432	1647.59
752.617	1655.78
752.801	1639.4
752.985	1727.46
753.17	1688.55
753.354	1688.55
753.538	1580.01
753.722	1614.82
753.907	1563.62
754.091	1545.19
754.275	1430.51
754.459	1582.06
754.643	1547.24
754.828	1598.44
755.012	1483.75
755.196	1453.03
755.38	1610.73
755.564	1467.37
755.748	1565.67
755.932	1594.34
756.116	1487.85
756.3	1500.14
756.484	1524.71
756.668	1389.55
756.852	1450.99
757.036	1405.93
757.22	1403.88
757.404	1424.36
757.588	1373.16
757.772	1377.26
757.956	1317.87
758.14	1422.31
758.323	1283.05
758.507	1373.16
758.691	1330.16
758.875	1289.2
759.059	1242.09
759.242	1397.74
759.426	1285.1
759.61	1205.23
759.794	1211.37
759.977	1295.34
760.161	1274.86
760.345	1207.28
760.528	1330.16
760.712	1334.25
760.895	1254.38
761.079	1215.47
761.263	1194.99
761.446	1246.19
761.63	1248.24
761.813	1242.09
761.997	1131.5
762.18	1180.65
762.364	1231.85
762.547	1119.21
762.731	1180.65
762.914	1074.16
763.098	1211.37
763.281	1244.14
763.464	1102.83
763.648	1184.75
763.831	1133.55
764.015	1033.2
764.198	1117.17
764.381	1178.61
764.564	1121.26
764.748	1098.74
764.931	1180.65
765.114	1094.64
765.297	1190.89
765.481	1094.64
765.664	1121.26
765.847	1006.58
766.03	1068.02
766.213	1074.16
766.397	1086.45
766.58	1039.34
766.763	1123.31
766.946	1127.41
767.129	1004.53
767.312	1049.58
767.495	1092.59
767.678	1086.45
767.861	953.33
768.044	1074.16
768.227	975.86
768.41	1043.44
768.593	1025.01
768.776	1096.69
768.959	959.47
769.142	1041.39
769.324	998.38
769.507	945.14
769.69	1002.48
769.873	959.47
770.056	1049.58
770.239	979.95
770.421	1008.62
770.604	959.47
770.787	1002.48
770.97	1059.82
771.152	912.37
771.335	900.08
771.518	861.17
771.7	955.38
771.883	904.18
772.066	871.41
772.248	945.14
772.431	881.65
772.613	973.81
772.796	947.19
772.978	875.51
773.161	926.71
773.343	891.89
773.526	883.7
773.708	889.84
773.891	871.41
774.073	832.5
774.256	857.07
774.438	889.84
774.621	889.84
774.803	865.27
774.985	848.88
775.168	830.45
775.35	738.29
775.532	873.46
775.715	832.5
775.897	795.64
776.079	795.64
776.261	775.16
776.444	822.26
776.626	740.34
776.808	816.12
776.99	779.25
777.173	666.61
777.355	814.07
777.537	785.4
777.719	728.05
777.901	721.91
778.083	773.11
778.265	699.38
778.447	762.87
778.629	742.39
778.811	707.57
778.993	816.12
779.175	687.09
779.357	635.89
779.539	635.89
779.721	676.85
779.903	666.61
780.085	648.18
780.267	697.33
780.449	740.34
780.631	631.8
780.812	680.95
780.994	607.22
781.176	652.28
781.358	596.98
781.54	508.92
781.721	590.84
781.903	654.33
782.085	639.99
782.267	705.53
782.448	547.83
782.63	664.57
782.812	658.42
782.993	541.69
783.175	517.11
783.357	519.16
783.538	535.54
783.72	533.5
783.901	545.78
784.083	504.82
784.264	576.5
784.446	422.91
784.627	539.64
784.809	529.4
784.99	572.41
785.172	619.51
785.353	455.67
785.535	461.82
785.716	549.88
785.897	531.45
786.079	533.5
786.26	474.1
786.441	564.22
786.623	478.2
786.804	402.43
786.985	455.67
787.167	451.58
787.348	463.86
787.529	418.81
787.71	492.54
787.891	459.77
788.073	402.43
788.254	412.67
788.435	465.91
788.616	427
788.797	529.4
788.978	465.91
789.159	437.24
789.34	451.58
789.522	453.63
789.703	488.44
789.884	445.43
790.065	472.06
790.246	392.19
790.427	437.24
790.607	439.29
790.788	431.1
790.969	375.8
791.15	388.09
791.331	340.99
791.512	383.99
791.693	353.27
791.874	328.7
792.054	359.42
792.235	373.75
792.416	373.75
792.597	340.99
792.778	263.16
792.958	447.48
793.139	338.94
793.32	392.19
793.5	320.51
793.681	308.22
793.862	392.19
794.042	381.95
794.223	377.85
794.404	336.89
794.584	312.32
794.765	295.93
794.945	330.75
795.126	340.99
795.306	349.18
795.487	390.14
795.667	244.73
795.848	355.32
796.028	361.47
796.209	326.65
796.389	359.42
796.57	304.12
796.75	300.03
796.93	357.37
797.111	250.88
797.291	273.4
797.471	390.14
797.652	357.37
797.832	318.46
798.012	316.41
798.192	222.2
798.373	246.78
798.553	306.17
798.733	283.64
798.913	300.03
799.093	281.6
799.274	338.94
799.454	316.41
799.634	238.59
799.814	330.75
799.994	320.51
800.174	297.98
800.354	338.94
800.534	250.88
800.714	320.51
800.894	257.02
801.074	338.94
801.254	340.99
801.434	351.23
801.614	265.21
801.794	232.44
801.974	539.64
802.154	240.64
802.334	314.36
802.514	209.92
802.693	191.49
802.873	203.77
803.053	265.21
803.233	211.96
803.413	197.63
803.592	240.64
803.772	238.59
803.952	275.45
804.131	248.83
804.311	308.22
804.491	252.92
804.67	232.44
804.85	191.49
805.03	250.88
805.209	265.21
805.389	236.54
805.568	254.97
805.748	218.11
805.928	228.35
806.107	189.44
806.287	250.88
806.466	287.74
806.646	222.2
806.825	123.9
807.004	234.49
807.184	261.12
807.363	265.21
807.543	246.78
807.722	244.73
807.901	185.34
808.081	224.25
808.26	168.96
808.439	162.81
808.619	175.1
808.798	168.96
808.977	191.49
809.156	173.05
809.336	287.74
809.515	181.25
809.694	257.02
809.873	203.77
810.052	130.05
810.231	175.1
810.411	193.53
810.59	228.35
810.769	156.67
810.948	220.16
811.127	177.15
811.306	211.96
811.485	152.57
811.664	132.09
811.843	134.14
812.022	254.97
812.201	150.53
812.38	209.92
812.559	164.86
812.737	160.77
812.916	156.67
813.095	156.67
813.274	183.29
813.453	109.57
813.632	166.91
813.811	105.47
813.989	199.68
814.168	230.4
814.347	134.14
814.526	152.57
814.704	168.96
814.883	183.29
815.062	181.25
815.24	177.15
815.419	132.09
815.598	199.68
815.776	203.77
815.955	216.06
816.133	125.95
816.312	228.35
816.49	103.42
816.669	154.62
816.847	144.38
817.026	164.86
817.204	136.19
817.383	259.07
817.561	197.63
817.74	164.86
817.918	160.77
818.097	173.05
818.275	191.49
818.453	181.25
818.632	97.28
818.81	142.33
818.988	115.71
819.167	177.15
819.345	123.9
819.523	158.72
819.701	119.81
819.879	185.34
820.058	154.62
820.236	197.63
820.414	82.94
820.592	216.06
820.77	82.94
820.948	173.05
821.127	175.1
821.305	156.67
821.483	144.38
821.661	93.18
821.839	74.75
822.017	78.85
822.195	189.44
822.373	158.72
822.551	66.56
822.729	152.57
822.907	84.99
823.085	166.91
823.262	115.71
823.44	113.66
823.618	111.61
823.796	138.24
823.974	113.66
824.152	214.01
824.329	142.33
824.507	152.57
824.685	177.15
824.863	80.89
825.04	80.89
825.218	193.53
825.396	93.18
825.574	142.33
825.751	130.05
825.929	66.56
826.107	132.09
826.284	150.53
826.462	117.76
826.639	46.08
826.817	76.8
826.994	80.89
827.172	183.29
827.349	140.29
827.527	123.9
827.704	54.27
827.882	87.04
828.059	89.09
828.237	109.57
828.414	84.99
828.591	3.07
828.769	121.85
828.946	52.22
829.124	74.75
829.301	125.95
829.478	66.56
829.655	162.81
829.833	62.46
830.01	41.98
830.187	54.27
830.364	123.9
830.542	146.43
830.719	125.95
830.896	103.42
831.073	46.08
831.25	68.61
831.427	107.52
831.604	158.72
831.782	93.18
831.959	58.37
832.136	37.89
832.313	87.04
832.49	46.08
832.667	123.9
832.844	76.8
833.021	74.75
833.198	111.61
833.374	60.42
833.551	70.65
833.728	74.75
833.905	62.46
834.082	80.89
834.259	130.05
834.436	160.77
834.612	68.61
834.789	130.05
834.966	29.7
835.143	19.46
835.319	37.89
835.496	117.76
835.673	27.65
835.85	103.42
836.026	128
836.203	128
836.38	-9.22
836.556	78.85
836.733	13.31
836.909	52.22
837.086	60.42
837.262	113.66
837.439	97.28
837.616	101.37
837.792	41.98
837.968	158.72
838.145	37.89
838.321	119.81
838.498	91.13
838.674	37.89
838.851	107.52
839.027	54.27
839.203	17.41
839.38	25.6
839.556	54.27
839.732	48.13
839.909	87.04
840.085	93.18
840.261	9.22
840.437	70.65
840.614	27.65
840.79	117.76
840.966	82.94
841.142	97.28
841.318	60.42
841.494	97.28
841.671	93.18
841.847	11.26
842.023	9.22
842.199	132.09
842.375	70.65
842.551	54.27
842.727	138.24
842.903	109.57
843.079	-23.55
843.255	113.66
843.431	76.8
843.607	25.6
843.783	44.03
843.959	19.46
844.134	56.32
844.31	103.42
844.486	74.75
844.662	123.9
844.838	29.7
845.013	97.28
845.189	144.38
845.365	109.57
845.541	70.65
845.716	50.18
845.892	62.46
846.068	52.22
846.244	60.42
846.419	31.74
846.595	44.03
846.77	31.74
846.946	21.5
847.122	89.09
847.297	84.99
847.473	107.52
847.648	-21.5
847.824	87.04
847.999	52.22
848.175	54.27
848.35	99.33
848.526	29.7
848.701	66.56
848.876	68.61
849.052	13.31
849.227	13.31
849.403	44.03
849.578	13.31
849.753	68.61
849.929	3.07
850.104	11.26
850.279	-31.74
850.454	50.18
850.63	13.31
850.805	76.8
850.98	27.65
851.155	74.75
851.33	27.65
851.505	87.04
851.681	146.43
851.856	91.13
852.031	70.65
852.206	84.99
852.381	5.12
852.556	9.22
852.731	68.61
852.906	-41.98
853.081	7.17
853.256	58.37
853.431	109.57
853.606	31.74
853.781	-31.74
853.956	39.94
854.131	29.7
854.305	37.89
854.48	48.13
854.655	27.65
854.83	-25.6
855.005	62.46
855.18	3.07
855.354	64.51
855.529	7.17
855.704	19.46
855.879	35.84
856.053	44.03
856.228	87.04
856.403	76.8
856.577	89.09
856.752	3.07
856.926	130.05
857.101	52.22
857.276	52.22
857.45	-15.36
857.625	68.61
857.799	35.84
857.974	52.22
858.148	33.79
858.323	50.18
858.497	27.65
858.672	44.03
858.846	54.27
859.02	93.18
859.195	68.61
859.369	29.7
859.543	17.41
859.718	56.32
859.892	33.79
860.066	60.42
860.241	60.42
860.415	-17.41
860.589	13.31
860.763	23.55
860.938	-19.46
861.112	66.56
861.286	1.02
861.46	-3.07
861.634	9.22
861.808	3.07
861.982	-11.26
862.157	5.12
862.331	97.28
862.505	-11.26
862.679	-11.26
862.853	58.37
863.027	58.37
863.201	46.08
863.375	7.17
863.549	60.42
863.722	25.6
863.896	60.42
864.07	-11.26
864.244	54.27
864.418	-13.31
864.592	13.31
864.766	56.32
864.939	13.31
865.113	-9.22
865.287	66.56
865.461	56.32
865.634	39.94
865.808	-19.46
865.982	23.55
866.156	21.5
866.329	-11.26
866.503	48.13
866.676	103.42
866.85	5.12
867.024	1.02
867.197	-13.31
867.371	68.61
867.544	1.02
867.718	-35.84
867.891	41.98
868.065	-11.26
868.238	44.03
868.412	27.65
868.585	-3.07
868.759	62.46
868.932	142.33
869.105	95.23
869.279	-1.02
869.452	13.31
869.625	5.12
869.799	9.22
869.972	54.27
870.145	-37.89
870.319	50.18
870.492	-31.74
870.665	-60.42
870.838	-1.02
871.011	-44.03
871.185	91.13
871.358	-15.36
871.531	64.51
871.704	21.5
871.877	39.94
872.05	31.74
872.223	70.65
872.396	9.22
872.569	3.07
872.742	-27.65
872.915	5.12
873.088	21.5
873.261	41.98
873.434	21.5
873.607	-54.27
873.78	21.5
873.953	46.08
874.126	-64.51
874.299	89.09
874.471	41.98
874.644	3.07
874.817	13.31
874.99	84.99
875.163	7.17
875.335	29.7
875.508	17.41
875.681	107.52
875.853	13.31
876.026	46.08
876.199	76.8
876.371	27.65
876.544	27.65
876.717	31.74
876.889	48.13
877.062	25.6
877.234	-56.32
877.407	54.27
877.579	-15.36
877.752	31.74
877.924	-19.46
878.097	9.22
878.269	7.17
878.442	52.22
878.614	62.46
878.786	-1.02
878.959	33.79
879.131	78.85
879.303	52.22
879.476	5.12
879.648	13.31
879.82	29.7
879.993	19.46
880.165	-7.17
880.337	13.31
880.509	148.48
880.681	-23.55
880.854	-3.07
881.026	-48.13
881.198	76.8
881.37	-29.7
881.542	23.55
881.714	27.65
881.886	-48.13
882.058	-68.61
882.23	46.08
882.402	33.79
882.574	29.7
882.746	13.31
882.918	31.74
883.09	35.84
883.262	27.65
883.434	-1.02
883.606	50.18
883.778	-21.5
883.95	39.94
884.122	25.6
884.293	-15.36
884.465	19.46
884.637	37.89
884.809	-29.7
884.98	5.12
885.152	-7.17
885.324	68.61
885.496	25.6
885.667	31.74
885.839	15.36
886.011	23.55
886.182	-3.07
886.354	64.51
886.525	5.12
886.697	27.65
886.869	5.12
887.04	74.75
887.212	23.55
887.383	27.65
887.555	66.56
887.726	31.74
887.897	68.61
888.069	37.89
888.24	-3.07
888.412	97.28
888.583	7.17
888.754	58.37
888.926	25.6
889.097	13.31
889.268	-29.7
889.44	-48.13
889.611	-46.08
889.782	-17.41
889.953	-5.12
890.125	33.79
890.296	-7.17
890.467	78.85
890.638	17.41
890.809	21.5
890.98	-31.74
891.151	-3.07
891.323	35.84
891.494	-19.46
891.665	74.75
891.836	-3.07
892.007	21.5
892.178	95.23
892.349	-50.18
892.52	-5.12
892.691	-64.51
892.862	-1.02
893.032	3.07
893.203	39.94
893.374	-64.51
893.545	13.31
893.716	-5.12
893.887	101.37
894.057	-17.41
894.228	58.37
894.399	23.55
894.57	54.27
894.74	1.02
894.911	41.98
895.082	37.89
895.253	29.7
895.423	-25.6
895.594	9.22
895.764	11.26
895.935	19.46
896.106	37.89
896.276	-13.31
896.447	37.89
896.617	5.12
896.788	-13.31
896.958	13.31
897.129	-41.98
897.299	35.84
897.47	9.22
897.64	46.08
897.81	72.7
897.981	123.9
898.151	-13.31
898.322	-7.17
898.492	-23.55
898.662	39.94
898.832	1.02
899.003	25.6
899.173	1.02
899.343	-19.46
899.513	5.12
