Data from USB4F104151__72__11-37-34-740.txt Node

Date: Fri Mar 14 11:37:34 EDT 2025
User: louis
Spectrometer: USB4F10415
Trigger mode: 4
Integration Time (sec): 2.000000E-2
Scans to average: 1
Electric dark correction enabled: true
Nonlinearity correction enabled: false
Boxcar width: 0
XAxis mode: Wavelengths
Number of Pixels in Spectrum: 3648
>>>>>Begin Spectral Data<<<<<
178.204	-99.33
178.424	-99.33
178.644	-99.33
178.864	-50.18
179.084	-134.14
179.304	-35.84
179.524	52.22
179.744	19.46
179.964	37.89
180.184	-31.74
180.404	17.41
180.624	-5.12
180.844	-9.22
181.064	-35.84
181.283	-35.84
181.503	-5.12
181.723	31.74
181.943	-54.27
182.163	17.41
182.383	-13.31
182.602	56.32
182.822	68.61
183.042	-25.6
183.262	48.13
183.482	48.13
183.701	19.46
183.921	29.7
184.141	-5.12
184.361	109.57
184.58	44.03
184.8	93.18
185.02	-31.74
185.239	125.95
185.459	17.41
185.679	58.37
185.898	-58.37
186.118	-9.22
186.338	46.08
186.557	60.42
186.777	-29.7
186.997	7.17
187.216	29.7
187.436	130.05
187.655	-3.07
187.875	37.89
188.095	-13.31
188.314	54.27
188.534	72.7
188.753	5.12
188.973	37.89
189.192	91.13
189.412	-7.17
189.631	89.09
189.851	7.17
190.07	60.42
190.29	-9.22
190.509	3.07
190.729	3.07
190.948	-25.6
191.168	84.99
191.387	27.65
191.607	44.03
191.826	-15.36
192.045	17.41
192.265	11.26
192.484	35.84
192.704	80.89
192.923	-41.98
193.142	78.85
193.362	54.27
193.581	72.7
193.8	1.02
194.02	-17.41
194.239	-50.18
194.458	64.51
194.678	17.41
194.897	27.65
195.116	68.61
195.335	52.22
195.555	25.6
195.774	27.65
195.993	27.65
196.212	72.7
196.432	-46.08
196.651	19.46
196.87	-13.31
197.089	95.23
197.308	1.02
197.528	48.13
197.747	44.03
197.966	-19.46
198.185	64.51
198.404	11.26
198.623	33.79
198.842	52.22
199.062	-41.98
199.281	54.27
199.5	70.65
199.719	-1.02
199.938	44.03
200.157	-21.5
200.376	35.84
200.595	15.36
200.814	72.7
201.033	52.22
201.252	23.55
201.471	50.18
201.69	62.46
201.909	-37.89
202.128	39.94
202.347	23.55
202.566	-35.84
202.785	101.37
203.004	13.31
203.223	123.9
203.442	37.89
203.661	35.84
203.879	76.8
204.098	60.42
204.317	68.61
204.536	3.07
204.755	-17.41
204.974	-5.12
205.193	7.17
205.411	78.85
205.63	82.94
205.849	87.04
206.068	25.6
206.287	-25.6
206.505	41.98
206.724	-29.7
206.943	62.46
207.162	89.09
207.381	-15.36
207.599	41.98
207.818	15.36
208.037	-50.18
208.255	9.22
208.474	76.8
208.693	1.02
208.911	72.7
209.13	-27.65
209.349	48.13
209.567	-1.02
209.786	1.02
210.005	89.09
210.223	35.84
210.442	25.6
210.661	3.07
210.879	3.07
211.098	48.13
211.316	-62.46
211.535	-44.03
211.753	-13.31
211.972	-25.6
212.191	82.94
212.409	68.61
212.628	-39.94
212.846	35.84
213.065	9.22
213.283	60.42
213.502	23.55
213.72	44.03
213.938	66.56
214.157	68.61
214.375	-3.07
214.594	-13.31
214.812	15.36
215.031	31.74
215.249	15.36
215.467	3.07
215.686	60.42
215.904	11.26
216.122	-11.26
216.341	25.6
216.559	-5.12
216.778	136.19
216.996	64.51
217.214	21.5
217.432	27.65
217.651	-5.12
217.869	56.32
218.087	-13.31
218.306	1.02
218.524	33.79
218.742	-1.02
218.96	82.94
219.179	-31.74
219.397	54.27
219.615	60.42
219.833	-19.46
220.051	7.17
220.27	3.07
220.488	-9.22
220.706	50.18
220.924	68.61
221.142	78.85
221.36	105.47
221.578	-46.08
221.796	27.65
222.015	27.65
222.233	3.07
222.451	35.84
222.669	11.26
222.887	58.37
223.105	35.84
223.323	1.02
223.541	11.26
223.759	41.98
223.977	-19.46
224.195	70.65
224.413	3.07
224.631	17.41
224.849	15.36
225.067	121.85
225.285	44.03
225.503	39.94
225.721	-33.79
225.939	27.65
226.157	35.84
226.375	3.07
226.592	-5.12
226.81	-50.18
227.028	31.74
227.246	87.04
227.464	17.41
227.682	56.32
227.9	-7.17
228.117	-50.18
228.335	35.84
228.553	11.26
228.771	17.41
228.989	31.74
229.206	35.84
229.424	-1.02
229.642	29.7
229.86	54.27
230.077	66.56
230.295	11.26
230.513	56.32
230.731	9.22
230.948	35.84
231.166	-15.36
231.384	76.8
231.601	27.65
231.819	25.6
232.037	52.22
232.254	-31.74
232.472	23.55
232.689	52.22
232.907	15.36
233.125	93.18
233.342	19.46
233.56	3.07
233.777	-74.75
233.995	25.6
234.213	84.99
234.43	82.94
234.648	84.99
234.865	105.47
235.083	91.13
235.3	35.84
235.518	3.07
235.735	29.7
235.953	33.79
236.17	68.61
236.388	-46.08
236.605	15.36
236.822	11.26
237.04	66.56
237.257	-13.31
237.475	-7.17
237.692	39.94
237.909	29.7
238.127	23.55
238.344	-29.7
238.562	1.02
238.779	70.65
238.996	-41.98
239.214	39.94
239.431	31.74
239.648	-41.98
239.865	-23.55
240.083	35.84
240.3	15.36
240.517	-68.61
240.735	1.02
240.952	64.51
241.169	23.55
241.386	-66.56
241.603	-70.65
241.821	-7.17
242.038	3.07
242.255	44.03
242.472	-19.46
242.689	56.32
242.907	13.31
243.124	-13.31
243.341	1.02
243.558	-48.13
243.775	-7.17
243.992	-62.46
244.209	52.22
244.426	58.37
244.643	80.89
244.86	39.94
245.078	23.55
245.295	107.52
245.512	35.84
245.729	37.89
245.946	66.56
246.163	-37.89
246.38	-44.03
246.597	48.13
246.814	7.17
247.031	50.18
247.248	52.22
247.464	7.17
247.681	52.22
247.898	95.23
248.115	9.22
248.332	11.26
248.549	-25.6
248.766	25.6
248.983	60.42
249.2	84.99
249.417	44.03
249.633	23.55
249.85	15.36
250.067	-50.18
250.284	11.26
250.501	91.13
250.717	84.99
250.934	13.31
251.151	33.79
251.368	39.94
251.585	72.7
251.801	7.17
252.018	-41.98
252.235	113.66
252.451	70.65
252.668	39.94
252.885	-5.12
253.102	31.74
253.318	48.13
253.535	17.41
253.752	15.36
253.968	3.07
254.185	13.31
254.401	-17.41
254.618	-17.41
254.835	60.42
255.051	87.04
255.268	44.03
255.484	76.8
255.701	54.27
255.917	33.79
256.134	-74.75
256.351	48.13
256.567	-9.22
256.784	136.19
257	9.22
257.217	56.32
257.433	70.65
257.65	-31.74
257.866	41.98
258.082	19.46
258.299	52.22
258.515	37.89
258.732	52.22
258.948	3.07
259.165	17.41
259.381	46.08
259.597	-21.5
259.814	35.84
260.03	11.26
260.246	11.26
260.463	76.8
260.679	58.37
260.895	-70.65
261.112	44.03
261.328	78.85
261.544	19.46
261.761	-31.74
261.977	11.26
262.193	25.6
262.409	-17.41
262.626	54.27
262.842	-13.31
263.058	17.41
263.274	1.02
263.49	39.94
263.707	13.31
263.923	31.74
264.139	-41.98
264.355	11.26
264.571	56.32
264.787	35.84
265.004	11.26
265.22	72.7
265.436	15.36
265.652	27.65
265.868	5.12
266.084	-21.5
266.3	111.61
266.516	41.98
266.732	58.37
266.948	56.32
267.164	1.02
267.38	97.28
267.596	115.71
267.812	27.65
268.028	3.07
268.244	27.65
268.46	109.57
268.676	56.32
268.892	-19.46
269.108	93.18
269.324	46.08
269.54	7.17
269.756	82.94
269.972	-95.23
270.188	54.27
270.403	27.65
270.619	27.65
270.835	-29.7
271.051	44.03
271.267	58.37
271.483	7.17
271.698	23.55
271.914	-3.07
272.13	11.26
272.346	19.46
272.562	-11.26
272.777	76.8
272.993	64.51
273.209	-19.46
273.425	41.98
273.64	-19.46
273.856	50.18
274.072	39.94
274.287	-39.94
274.503	46.08
274.719	17.41
274.934	84.99
275.15	-33.79
275.366	3.07
275.581	109.57
275.797	37.89
276.012	-48.13
276.228	52.22
276.444	66.56
276.659	29.7
276.875	25.6
277.09	19.46
277.306	17.41
277.521	21.5
277.737	33.79
277.952	27.65
278.168	35.84
278.383	7.17
278.599	-41.98
278.814	66.56
279.03	64.51
279.245	74.75
279.461	37.89
279.676	7.17
279.892	1.02
280.107	35.84
280.322	50.18
280.538	95.23
280.753	33.79
280.969	9.22
281.184	105.47
281.399	72.7
281.615	11.26
281.83	99.33
282.045	48.13
282.26	44.03
282.476	27.65
282.691	37.89
282.906	-5.12
283.122	1.02
283.337	39.94
283.552	7.17
283.767	72.7
283.983	37.89
284.198	66.56
284.413	115.71
284.628	11.26
284.843	11.26
285.058	-5.12
285.274	23.55
285.489	58.37
285.704	23.55
285.919	3.07
286.134	27.65
286.349	80.89
286.564	44.03
286.779	87.04
286.995	-11.26
287.21	-1.02
287.425	52.22
287.64	27.65
287.855	-15.36
288.07	17.41
288.285	3.07
288.5	13.31
288.715	109.57
288.93	87.04
289.145	-15.36
289.36	89.09
289.575	3.07
289.79	19.46
290.004	9.22
290.219	13.31
290.434	58.37
290.649	31.74
290.864	56.32
291.079	80.89
291.294	62.46
291.509	35.84
291.724	60.42
291.938	-15.36
292.153	13.31
292.368	-15.36
292.583	84.99
292.798	-31.74
293.012	80.89
293.227	19.46
293.442	46.08
293.657	37.89
293.871	107.52
294.086	44.03
294.301	-9.22
294.516	58.37
294.73	58.37
294.945	7.17
295.16	74.75
295.374	41.98
295.589	56.32
295.804	-13.31
296.018	56.32
296.233	70.65
296.447	11.26
296.662	-13.31
296.877	80.89
297.091	41.98
297.306	1.02
297.52	7.17
297.735	80.89
297.949	-37.89
298.164	52.22
298.378	-15.36
298.593	48.13
298.807	56.32
299.022	87.04
299.236	17.41
299.451	27.65
299.665	93.18
299.88	15.36
300.094	5.12
300.309	68.61
300.523	46.08
300.737	62.46
300.952	29.7
301.166	46.08
301.381	19.46
301.595	64.51
301.809	78.85
302.024	11.26
302.238	80.89
302.452	21.5
302.667	3.07
302.881	87.04
303.095	35.84
303.309	3.07
303.524	-1.02
303.738	-1.02
303.952	27.65
304.166	74.75
304.381	15.36
304.595	64.51
304.809	48.13
305.023	19.46
305.237	25.6
305.452	41.98
305.666	46.08
305.88	99.33
306.094	33.79
306.308	76.8
306.522	31.74
306.736	44.03
306.95	97.28
307.164	15.36
307.379	-7.17
307.593	74.75
307.807	35.84
308.021	41.98
308.235	33.79
308.449	-9.22
308.663	50.18
308.877	93.18
309.091	35.84
309.305	7.17
309.519	-50.18
309.733	103.42
309.947	27.65
310.161	5.12
310.374	60.42
310.588	29.7
310.802	48.13
311.016	56.32
311.23	27.65
311.444	99.33
311.658	9.22
311.872	23.55
312.085	44.03
312.299	1.02
312.513	93.18
312.727	11.26
312.941	60.42
313.154	87.04
313.368	93.18
313.582	41.98
313.796	11.26
314.009	91.13
314.223	25.6
314.437	35.84
314.651	-5.12
314.864	-23.55
315.078	89.09
315.292	33.79
315.505	19.46
315.719	123.9
315.933	48.13
316.146	41.98
316.36	17.41
316.573	17.41
316.787	60.42
317.001	66.56
317.214	54.27
317.428	5.12
317.641	-13.31
317.855	31.74
318.068	33.79
318.282	50.18
318.495	70.65
318.709	48.13
318.922	1.02
319.136	78.85
319.349	27.65
319.563	-21.5
319.776	60.42
319.99	39.94
320.203	41.98
320.417	70.65
320.63	76.8
320.843	39.94
321.057	44.03
321.27	111.61
321.483	62.46
321.697	70.65
321.91	35.84
322.124	99.33
322.337	68.61
322.55	17.41
322.763	66.56
322.977	27.65
323.19	44.03
323.403	-50.18
323.617	15.36
323.83	48.13
324.043	39.94
324.256	58.37
324.469	-3.07
324.683	54.27
324.896	-3.07
325.109	35.84
325.322	52.22
325.535	21.5
325.748	101.37
325.962	19.46
326.175	52.22
326.388	31.74
326.601	35.84
326.814	23.55
327.027	29.7
327.24	31.74
327.453	-11.26
327.666	21.5
327.879	70.65
328.092	56.32
328.305	41.98
328.518	56.32
328.731	60.42
328.944	58.37
329.157	48.13
329.37	21.5
329.583	39.94
329.796	60.42
330.009	21.5
330.222	44.03
330.435	52.22
330.648	-13.31
330.861	31.74
331.073	7.17
331.286	27.65
331.499	37.89
331.712	-33.79
331.925	3.07
332.138	82.94
332.35	37.89
332.563	17.41
332.776	46.08
332.989	19.46
333.202	62.46
333.414	-17.41
333.627	84.99
333.84	17.41
334.053	7.17
334.265	23.55
334.478	72.7
334.691	-3.07
334.903	41.98
335.116	48.13
335.329	99.33
335.541	93.18
335.754	58.37
335.966	66.56
336.179	-25.6
336.392	66.56
336.604	31.74
336.817	39.94
337.029	35.84
337.242	-7.17
337.454	41.98
337.667	-9.22
337.88	62.46
338.092	25.6
338.305	33.79
338.517	44.03
338.729	60.42
338.942	82.94
339.154	27.65
339.367	9.22
339.579	46.08
339.792	35.84
340.004	39.94
340.217	58.37
340.429	58.37
340.641	-1.02
340.854	52.22
341.066	31.74
341.278	39.94
341.491	84.99
341.703	44.03
341.915	64.51
342.128	29.7
342.34	60.42
342.552	44.03
342.764	-15.36
342.977	74.75
343.189	21.5
343.401	-5.12
343.613	-11.26
343.826	91.13
344.038	50.18
344.25	62.46
344.462	9.22
344.674	76.8
344.886	31.74
345.099	-3.07
345.311	62.46
345.523	-5.12
345.735	7.17
345.947	46.08
346.159	68.61
346.371	3.07
346.583	37.89
346.795	138.24
347.007	13.31
347.219	29.7
347.431	-13.31
347.643	39.94
347.855	-17.41
348.067	105.47
348.279	-3.07
348.491	84.99
348.703	-7.17
348.915	15.36
349.127	3.07
349.339	58.37
349.551	-15.36
349.763	5.12
349.975	-3.07
350.187	23.55
350.399	60.42
350.61	31.74
350.822	48.13
351.034	76.8
351.246	89.09
351.458	-7.17
351.669	5.12
351.881	78.85
352.093	50.18
352.305	66.56
352.517	54.27
352.728	152.57
352.94	17.41
353.152	105.47
353.363	44.03
353.575	50.18
353.787	132.09
353.999	93.18
354.21	37.89
354.422	41.98
354.633	35.84
354.845	68.61
355.057	5.12
355.268	60.42
355.48	35.84
355.692	-19.46
355.903	89.09
356.115	109.57
356.326	44.03
356.538	44.03
356.749	-1.02
356.961	58.37
357.172	84.99
357.384	-31.74
357.595	35.84
357.807	9.22
358.018	21.5
358.23	54.27
358.441	48.13
358.653	58.37
358.864	74.75
359.075	80.89
359.287	91.13
359.498	23.55
359.709	72.7
359.921	37.89
360.132	3.07
360.344	101.37
360.555	56.32
360.766	33.79
360.977	78.85
361.189	23.55
361.4	23.55
361.611	13.31
361.823	29.7
362.034	64.51
362.245	60.42
362.456	33.79
362.667	29.7
362.879	105.47
363.09	44.03
363.301	68.61
363.512	41.98
363.723	62.46
363.935	21.5
364.146	103.42
364.357	58.37
364.568	41.98
364.779	27.65
364.99	54.27
365.201	56.32
365.412	164.86
365.623	41.98
365.834	5.12
366.045	29.7
366.256	52.22
366.467	56.32
366.678	35.84
366.889	103.42
367.1	87.04
367.311	19.46
367.522	72.7
367.733	132.09
367.944	60.42
368.155	52.22
368.366	-9.22
368.577	107.52
368.788	66.56
368.999	-33.79
369.209	107.52
369.42	115.71
369.631	99.33
369.842	70.65
370.053	19.46
370.264	60.42
370.474	-5.12
370.685	19.46
370.896	56.32
371.107	60.42
371.317	72.7
371.528	9.22
371.739	48.13
371.95	125.95
372.16	35.84
372.371	3.07
372.582	101.37
372.792	82.94
373.003	113.66
373.214	154.62
373.424	39.94
373.635	91.13
373.846	25.6
374.056	-13.31
374.267	93.18
374.477	56.32
374.688	-5.12
374.898	68.61
375.109	41.98
375.319	52.22
375.53	50.18
375.74	52.22
375.951	119.81
376.161	44.03
376.372	93.18
376.582	97.28
376.793	46.08
377.003	11.26
377.214	-64.51
377.424	27.65
377.635	41.98
377.845	33.79
378.055	33.79
378.266	68.61
378.476	58.37
378.686	105.47
378.897	50.18
379.107	103.42
379.317	97.28
379.528	-60.42
379.738	27.65
379.948	7.17
380.158	68.61
380.369	105.47
380.579	41.98
380.789	56.32
380.999	54.27
381.21	58.37
381.42	115.71
381.63	60.42
381.84	19.46
382.05	99.33
382.261	82.94
382.471	33.79
382.681	93.18
382.891	50.18
383.101	23.55
383.311	62.46
383.521	76.8
383.731	76.8
383.941	117.76
384.151	19.46
384.361	50.18
384.571	91.13
384.781	60.42
384.991	130.05
385.201	66.56
385.411	17.41
385.621	105.47
385.831	111.61
386.041	7.17
386.251	11.26
386.461	31.74
386.671	78.85
386.881	54.27
387.091	48.13
387.301	19.46
387.511	39.94
387.72	46.08
387.93	91.13
388.14	48.13
388.35	54.27
388.56	56.32
388.769	68.61
388.979	111.61
389.189	11.26
389.399	91.13
389.609	107.52
389.818	62.46
390.028	144.38
390.238	56.32
390.447	50.18
390.657	91.13
390.867	-11.26
391.076	44.03
391.286	56.32
391.496	107.52
391.705	84.99
391.915	68.61
392.125	146.43
392.334	84.99
392.544	78.85
392.753	93.18
392.963	64.51
393.172	5.12
393.382	76.8
393.591	101.37
393.801	76.8
394.01	95.23
394.22	74.75
394.429	44.03
394.639	107.52
394.848	35.84
395.058	113.66
395.267	37.89
395.477	70.65
395.686	164.86
395.895	107.52
396.105	123.9
396.314	93.18
396.524	33.79
396.733	74.75
396.942	93.18
397.152	58.37
397.361	87.04
397.57	148.48
397.78	87.04
397.989	64.51
398.198	123.9
398.407	121.85
398.617	142.33
398.826	62.46
399.035	148.48
399.244	7.17
399.453	138.24
399.663	130.05
399.872	148.48
400.081	44.03
400.29	111.61
400.499	44.03
400.708	166.91
400.917	76.8
401.127	103.42
401.336	160.77
401.545	113.66
401.754	209.92
401.963	103.42
402.172	136.19
402.381	66.56
402.59	156.67
402.799	154.62
403.008	160.77
403.217	128
403.426	121.85
403.635	146.43
403.844	228.35
404.053	128
404.262	187.39
404.471	183.29
404.68	193.53
404.888	158.72
405.097	164.86
405.306	171.01
405.515	222.2
405.724	191.49
405.933	224.25
406.142	205.82
406.35	220.16
406.559	195.58
406.768	181.25
406.977	236.54
407.185	191.49
407.394	281.6
407.603	216.06
407.812	152.57
408.02	216.06
408.229	283.64
408.438	224.25
408.646	263.16
408.855	234.49
409.064	230.4
409.272	306.17
409.481	330.75
409.69	318.46
409.898	357.37
410.107	320.51
410.315	371.71
410.524	334.84
410.733	357.37
410.941	314.36
411.15	474.1
411.358	461.82
411.567	451.58
411.775	375.8
411.984	437.24
412.192	519.16
412.401	474.1
412.609	535.54
412.818	607.22
413.026	472.06
413.234	551.93
413.443	621.56
413.651	568.31
413.86	588.79
414.068	674.81
414.276	650.23
414.485	760.82
414.693	744.44
414.901	730.1
415.11	771.06
415.318	801.78
415.526	773.11
415.734	871.41
415.943	855.03
416.151	988.14
416.359	1002.48
416.567	1008.62
416.776	1016.82
416.984	1129.45
417.192	1129.45
417.4	1117.17
417.608	1172.46
417.817	1133.55
418.025	1252.33
418.233	1305.58
418.441	1262.57
418.649	1352.68
418.857	1539.05
419.065	1485.8
419.273	1434.6
419.481	1522.66
419.689	1721.32
419.897	1694.69
420.105	1666.02
420.313	1731.56
420.521	1764.33
420.729	1909.73
420.937	2065.38
421.145	1940.45
421.353	2087.9
421.561	2202.59
421.769	2214.88
421.977	2317.28
422.185	2335.71
422.393	2446.3
422.601	2552.79
422.809	2657.24
423.017	2655.19
423.224	2784.21
423.432	2921.43
423.64	2911.19
423.848	3095.5
424.056	3054.55
424.263	3361.74
424.471	3267.53
424.679	3427.28
424.887	3517.39
425.094	3435.47
425.302	3636.17
425.51	3752.9
425.718	3859.4
425.925	3996.61
426.133	4056
426.341	4217.79
426.548	4438.97
426.756	4615.1
426.964	4555.71
427.171	4742.07
427.379	4893.62
427.586	5059.51
427.794	5204.91
428.001	5485.48
428.209	5741.48
428.417	5446.57
428.624	5942.18
428.832	6040.48
429.039	5876.65
429.247	5899.17
429.454	6484.89
429.662	6777.75
429.869	6355.87
430.076	6935.45
430.284	6736.79
430.491	7076.76
430.699	7433.1
430.906	7211.92
431.114	7361.42
431.321	7705.48
431.528	7998.34
431.736	8399.74
431.943	8708.99
432.15	8446.85
432.358	8704.89
432.565	9182.07
432.772	9233.27
432.979	9675.63
433.187	9827.18
433.394	9702.25
433.601	10363.75
433.808	10554.21
434.016	10365.79
434.223	10890.07
434.43	11393.87
434.637	11428.69
434.844	11989.83
435.052	12168.01
435.259	12208.97
435.466	12426.05
435.673	12110.66
435.88	12905.28
436.087	13447.99
436.294	13560.63
436.501	13194.04
436.708	13476.66
436.915	14021.42
437.122	14883.61
437.329	14760.73
437.537	15151.9
437.743	15276.82
437.95	15235.86
438.157	16087.82
438.364	16567.04
438.571	16407.3
438.778	16636.67
438.985	18205.42
439.192	17255.16
439.399	18133.74
439.606	17681.14
439.813	18705.12
440.02	19387.1
440.227	19251.93
440.433	19339.99
440.64	20210.38
440.847	19647.19
441.054	20232.91
441.261	21486.26
441.467	21213.88
441.674	21844.66
441.881	22569.64
442.088	22477.48
442.294	22330.03
442.501	23048.86
442.708	23038.62
442.914	24074.9
443.121	25344.64
443.328	24517.26
443.534	26428.01
443.741	25500.28
443.948	25127.55
444.154	26927.72
444.361	26780.26
444.568	27148.9
444.774	26937.96
444.981	27347.55
445.187	28193.36
445.394	29311.55
445.6	28803.66
445.807	31683.1
446.013	30198.32
446.22	31056.42
446.426	31885.85
446.633	32166.42
446.839	33020.42
447.046	31955.48
447.252	33772.03
447.459	33819.13
447.665	33600
447.871	35019.24
448.078	36583.89
448.284	34691.57
448.491	35938.78
448.697	37585.35
448.903	37867.97
449.11	37994.94
449.316	37132.75
449.522	38209.98
449.728	39086.51
449.935	39350.7
450.141	39305.64
450.347	40448.41
450.553	38869.42
450.76	39745.95
450.966	40821.14
451.172	40079.77
451.378	41492.87
451.584	40378.78
451.791	41607.56
451.997	41269.64
452.203	41963.9
452.409	41859.46
452.615	41689.48
452.821	40130.97
453.027	39936.41
453.233	41916.8
453.44	40200.6
453.646	40831.38
453.852	40685.97
454.058	41271.69
454.264	39973.28
454.47	40886.67
454.676	39858.59
454.882	41073.04
455.088	37749.18
455.294	38289.85
455.5	38906.29
455.705	39702.95
455.911	37812.67
456.117	36717.01
456.323	36678.1
456.529	34609.65
456.735	36041.18
456.941	35322.34
457.147	34474.48
457.352	33970.68
457.558	32827.92
457.764	33548.8
457.97	32578.06
458.176	31975.96
458.381	31863.32
458.587	30421.55
458.793	30390.83
458.999	28504.65
459.204	30851.63
459.41	30081.59
459.616	28193.36
459.821	27906.65
460.027	28097.11
460.233	27679.32
460.438	26208.88
460.644	26888.81
460.85	25037.44
461.055	25010.82
461.261	24627.85
461.466	22715.05
461.672	22217.39
461.878	23956.11
462.083	22487.72
462.289	22031.02
462.494	21371.58
462.7	20519.62
462.905	20122.32
463.111	20970.18
463.316	20859.59
463.522	20419.27
463.727	20458.18
463.932	20200.14
464.138	20069.07
464.343	20284.11
464.549	19665.62
464.754	20067.02
464.959	19843.79
465.165	20030.16
465.37	19198.68
465.575	18758.37
465.781	19256.03
465.986	19344.09
466.191	18916.06
466.397	18510.57
466.602	17451.77
466.807	17916.65
467.012	18049.77
467.218	18090.73
467.423	18023.15
467.628	18215.66
467.833	18537.19
468.038	18100.97
468.244	17482.49
468.449	18062.06
468.654	17720.05
468.859	17642.23
469.064	17353.46
469.269	16857.85
469.474	16997.12
469.679	17445.62
469.885	16593.67
470.09	16999.16
470.295	16743.17
470.5	16319.24
470.705	16405.25
470.91	16329.48
471.115	16032.52
471.32	16200.46
471.525	15981.32
471.73	15743.76
471.935	15966.99
472.139	15155.99
472.344	15414.04
472.549	15315.73
472.754	15018.78
472.959	14844.7
473.164	14422.82
473.369	14281.51
473.574	14531.36
473.778	14404.39
473.983	14453.54
474.188	14310.18
474.393	13552.43
474.598	13923.12
474.802	13765.42
475.007	13632.3
475.212	13429.56
475.417	13050.68
475.621	13267.77
475.826	13235
476.031	12809.02
476.235	12444.48
476.44	12827.45
476.645	12524.35
476.849	12557.12
477.054	12208.97
477.259	12198.73
477.463	12219.21
477.668	11789.13
477.872	12202.82
478.077	11709.26
478.282	11570
478.486	11623.25
478.691	11404.11
478.895	11397.97
479.1	11406.16
479.304	11248.47
479.509	11150.17
479.713	11475.79
479.918	11070.3
480.122	10969.94
480.326	10935.13
480.531	10838.87
480.735	10623.84
480.94	10734.43
481.144	10961.75
481.348	10490.72
481.553	10881.88
481.757	10521.44
481.961	10568.54
482.166	10838.87
482.37	10812.25
482.574	10537.82
482.778	10447.71
482.983	10783.58
483.187	10480.48
483.391	10646.37
483.595	10283.88
483.8	10279.78
484.004	10537.82
484.208	10443.62
484.412	10466.14
484.616	10525.54
484.821	10500.96
485.025	10238.82
485.229	10519.39
485.433	10312.55
485.637	10507.1
485.841	10269.54
486.045	10521.44
486.249	10664.8
486.453	10228.58
486.657	10351.46
486.861	10601.31
487.065	10107.75
487.269	10328.93
487.473	10161
487.677	10554.21
487.881	10584.93
488.085	10369.89
488.289	10468.19
488.493	10298.21
488.697	10646.37
488.901	10593.12
489.105	10296.16
489.309	10666.85
489.512	10558.3
489.716	10726.24
489.92	10554.21
490.124	10681.18
490.328	10705.76
490.531	10683.23
490.735	10908.51
490.939	10967.9
491.143	10730.33
491.346	10883.93
491.55	10873.69
491.754	10828.63
491.958	11051.86
492.161	10842.97
492.365	10832.73
492.569	10718.04
492.772	10822.49
492.976	11213.65
493.18	11066.2
493.383	11283.28
493.587	11492.18
493.79	11541.33
493.994	11131.73
494.197	11391.83
494.401	11656.01
494.605	11629.39
494.808	11674.45
495.012	11725.65
495.215	11776.84
495.419	11914.06
495.622	11746.12
495.825	11957.07
496.029	12106.57
496.232	12471.11
496.436	12434.24
496.639	12622.66
496.843	12630.85
497.046	12749.63
497.249	12942.14
497.453	12983.1
497.656	12962.62
497.859	13028.15
498.063	13224.76
498.266	13421.36
498.469	13349.68
498.673	13546.29
498.876	13861.68
499.079	13804.33
499.282	13957.93
499.485	14050.09
499.689	14279.46
499.892	14529.31
500.095	14502.69
500.298	14852.89
500.501	14572.32
500.705	15231.77
500.908	15426.32
501.111	15328.02
501.314	15584.02
501.517	15764.24
501.72	15919.89
501.923	15840.01
502.126	16315.14
502.329	16468.74
502.532	16519.94
502.735	16894.72
502.938	17093.37
503.141	16810.75
503.344	17431.29
503.547	17056.51
503.75	17531.64
503.953	17572.6
504.156	18172.65
504.359	18123.5
504.562	18176.75
504.765	18492.13
504.968	18592.48
505.17	18776.8
505.373	19014.37
505.576	19344.09
505.779	19469.01
505.982	19501.78
506.185	20005.58
506.387	19843.79
506.59	20144.84
506.793	20458.18
506.996	20421.32
507.198	21121.73
507.401	21052.09
507.604	21123.77
507.807	21564.09
508.009	21568.18
508.212	21856.95
508.415	22074.03
508.617	22645.41
508.82	22299.31
509.022	22170.29
509.225	22817.44
509.428	22973.09
509.63	23292.57
509.833	23493.27
510.035	24033.94
510.238	23771.8
510.44	24328.84
510.643	24666.76
510.845	24574.6
511.048	24609.42
511.25	24824.45
511.453	25258.62
511.655	25774.71
511.858	25522.81
512.06	25559.67
512.262	26098.29
512.465	26036.85
512.667	26444.4
512.87	26870.37
513.072	26765.93
513.274	27279.97
513.477	27406.94
513.679	27556.44
513.881	27953.75
514.084	28176.98
514.286	28346.96
514.488	28193.36
514.69	29123.14
514.893	28947.01
515.095	29643.32
515.297	29635.13
515.499	29780.54
515.701	30317.11
515.904	30499.37
516.106	30437.94
516.308	30765.61
516.51	31169.06
516.712	31140.39
516.914	31461.92
517.116	31930.9
517.318	31961.62
517.52	32156.18
517.722	32141.85
517.925	32549.39
518.127	32907.79
518.329	33139.21
518.531	33444.35
518.733	33337.86
518.935	33884.67
519.136	33927.67
519.338	34554.35
519.54	34386.42
519.742	35074.54
519.944	34732.53
520.146	35215.85
520.348	35330.53
520.55	35957.21
520.752	35867.1
520.954	36479.44
521.155	36155.86
521.357	36979.15
521.559	37079.5
521.761	37444.04
521.963	37398.98
522.164	37333.45
522.366	37634.5
522.568	37884.35
522.77	38490.55
522.971	38582.71
523.173	38459.83
523.375	38480.31
523.576	38988.21
523.778	38994.35
523.98	39057.84
524.181	39283.11
524.383	39543.2
524.584	40042.91
524.786	39952.8
524.988	39784.86
525.189	40384.92
525.391	40477.08
525.592	40749.46
525.794	40704.4
525.995	41097.61
526.197	40712.59
526.398	41070.99
526.6	41259.4
526.801	41625.99
527.003	42115.45
527.204	41724.29
527.406	41849.22
527.607	42103.17
527.808	42506.62
528.01	41603.46
528.211	42158.46
528.412	43133.29
528.614	42477.94
528.815	42332.54
529.016	42856.82
529.218	42510.71
529.419	42527.1
529.62	43055.47
529.822	43024.75
530.023	43049.33
530.224	43172.21
530.425	43428.2
530.626	42727.8
530.828	42436.98
531.029	44013.92
531.23	43041.14
531.431	42922.35
531.632	43618.66
531.833	43794.79
532.035	43606.37
532.236	43794.79
532.437	43215.21
532.638	43755.88
532.839	43956.58
533.04	43852.13
533.241	43739.49
533.442	44257.63
533.643	43237.74
533.844	43868.51
534.045	43938.15
534.246	43585.89
534.447	44118.37
534.648	43630.95
534.849	43858.27
535.05	43796.84
535.251	44110.17
535.451	43934.05
535.652	44353.88
535.853	43721.06
536.054	43938.15
536.255	43809.12
536.456	43356.52
536.657	44353.88
536.857	43788.64
537.058	43839.84
537.259	44280.16
537.46	44491.1
537.66	43696.49
537.861	44167.52
538.062	43995.49
538.263	44169.57
538.463	43510.12
538.664	43700.58
538.865	43921.76
539.065	43948.39
539.266	43551.08
539.466	44364.12
539.667	43088.24
539.868	44390.75
540.068	43905.38
540.269	43676.01
540.469	44067.17
540.67	43755.88
540.87	43475.3
541.071	44009.82
541.271	43915.62
541.472	43891.04
541.672	43366.76
541.873	43680.1
542.073	43141.49
542.274	44206.43
542.474	43499.88
542.675	43143.53
542.875	43630.95
543.075	43520.36
543.276	43102.57
543.476	43954.53
543.676	43282.8
543.877	43596.13
544.077	43708.77
544.277	43673.96
544.478	43266.41
544.678	43942.24
544.878	43733.35
545.078	43401.58
545.279	43094.38
545.479	43510.12
545.679	43594.09
545.879	43448.68
546.079	43663.72
546.28	43536.74
546.48	43047.28
546.68	43250.03
546.88	43260.27
547.08	43405.67
547.28	43159.92
547.48	42762.61
547.68	43305.32
547.88	42856.82
548.081	43559.27
548.281	43483.5
548.481	43084.14
548.681	43544.94
548.881	43407.72
549.081	43100.53
549.28	42961.26
549.48	43637.09
549.68	43110.77
549.88	43888.99
550.08	43295.08
550.28	42987.89
550.48	43082.09
550.68	43415.91
550.88	43053.42
551.08	42946.93
551.279	42957.17
551.479	42709.36
551.679	43405.67
551.879	42817.91
552.079	43514.22
552.278	42998.13
552.478	43032.94
552.678	43102.57
552.878	43307.37
553.077	43061.61
553.277	42113.41
553.477	43311.47
553.676	42809.71
553.876	43049.33
554.076	42908.02
554.275	43196.78
554.475	42355.07
554.674	43034.99
554.874	42916.21
555.074	42541.43
555.273	42576.25
555.473	42645.88
555.672	42533.24
555.872	42502.52
556.071	42402.17
556.271	42811.76
556.47	42254.72
556.67	42170.75
556.869	42314.11
557.068	42180.99
557.268	42076.54
557.467	42312.06
557.667	42234.24
557.866	42201.47
558.065	41982.34
558.265	42049.92
558.464	41652.61
558.663	42422.65
558.863	41953.66
559.062	42205.56
559.261	41212.3
559.461	42226.04
559.66	41468.3
559.859	41881.98
560.058	41326.99
560.258	41744.77
560.457	41345.42
560.656	41433.48
560.855	41376.14
561.054	41005.45
561.253	41083.28
561.453	41097.61
561.652	41388.42
561.851	41468.3
562.05	41507.21
562.249	40810.9
562.448	41398.66
562.647	40728.98
562.846	40909.2
563.045	41017.74
563.244	40499.61
563.443	40950.16
563.642	40212.89
563.841	40657.3
564.04	40468.89
564.239	41109.9
564.438	40583.57
564.637	40337.82
564.836	40665.49
565.035	39924.13
565.234	40294.81
565.432	40208.79
565.631	39987.61
565.83	40108.44
566.029	39924.13
566.228	39782.82
566.427	40049.05
566.625	40034.72
566.824	38977.97
567.023	39797.15
567.222	39178.67
567.42	39684.51
567.619	39467.43
567.818	39408.04
568.016	39383.46
568.215	39522.72
568.414	39090.6
568.612	39807.39
568.811	39186.86
569.01	39141.8
569.208	38515.12
569.407	39004.59
569.605	38334.9
569.804	38760.88
570.002	38261.18
570.201	38867.37
570.4	38197.69
570.598	38394.29
570.797	37933.5
570.995	38455.73
571.193	37718.46
571.392	38273.46
571.59	37648.83
571.789	37759.42
571.987	37564.87
572.186	37777.86
572.384	37507.52
572.582	37669.31
572.781	37800.38
572.979	37575.11
573.177	37708.22
573.376	37341.64
573.574	37452.23
573.772	37360.07
573.971	37274.06
574.169	37179.85
574.367	36721.1
574.565	37091.79
574.763	36989.39
574.962	36721.1
575.16	36446.68
575.358	36585.94
575.556	36139.48
575.754	36708.82
575.952	36305.37
576.151	36510.16
576.349	35820
576.547	35742.17
576.745	36172.25
576.943	36049.37
577.141	36073.95
577.339	35844.57
577.537	35774.94
577.735	36098.52
577.933	35484.13
578.131	35588.58
578.329	35516.9
578.527	34986.47
578.725	35254.76
578.923	35453.41
579.121	34839.02
579.319	34793.97
579.516	35185.13
579.714	34705.9
579.912	34836.97
580.11	34843.12
580.308	34666.99
580.506	34828.78
580.704	34062.84
580.901	34578.93
581.099	34634.22
581.297	33888.76
581.495	34517.49
581.692	34087.42
581.89	33798.65
582.088	34241.01
582.285	33886.71
582.483	33927.67
582.681	33554.94
582.878	33602.05
583.076	33585.66
583.274	33765.88
583.471	33214.98
583.669	33276.42
583.866	33186.31
584.064	33198.6
584.262	33006.09
584.459	33233.41
584.657	32702.99
584.854	33057.29
585.052	32078.36
585.249	32762.38
585.447	32801.29
585.644	32158.23
585.841	32379.41
586.039	32438.8
586.236	31855.13
586.434	32018.97
586.631	31871.51
586.828	32248.34
587.026	32168.47
587.223	31748.64
587.42	31476.26
587.618	31687.2
587.815	31636
588.012	31238.69
588.21	31420.96
588.407	31629.85
588.604	30970.41
588.801	30915.11
588.999	30906.92
589.196	31101.48
589.393	31232.55
589.59	30831.15
589.787	30564.91
589.984	30315.06
590.182	30405.17
590.379	30714.41
590.576	30059.06
590.773	30126.64
590.97	29788.73
591.167	30087.73
591.364	29905.46
591.561	30079.54
591.758	29604.41
591.955	29667.9
592.152	29864.5
592.349	29708.86
592.546	29606.46
592.743	29579.84
592.94	29430.33
593.137	29383.23
593.334	29456.96
593.531	29067.84
593.727	29321.79
593.924	29254.21
594.121	28912.2
594.318	29307.46
594.515	28744.27
594.712	28967.49
594.908	28404.3
595.105	29157.96
595.302	28234.32
595.499	28742.22
595.696	28318.29
595.892	28088.92
596.089	28162.64
596.286	28160.59
596.482	28074.58
596.679	27939.41
596.876	28035.67
597.072	27449.95
597.269	27701.85
597.466	27525.72
597.662	27595.35
597.859	27517.53
598.055	27343.45
598.252	26876.52
598.448	27198.05
598.645	27019.88
598.841	26886.76
599.038	26968.68
599.234	27081.31
599.431	26524.27
599.627	26577.51
599.824	26899.05
600.02	26542.7
600.217	26704.49
600.413	26088.05
600.609	26311.28
600.806	26049.14
601.002	26239.6
601.198	25836.15
601.395	26077.81
601.591	26120.82
601.787	25827.96
601.984	25653.88
602.18	26010.23
602.376	25473.66
602.572	25399.93
602.769	25457.28
602.965	25332.35
603.161	25700.98
603.357	25531
603.553	25105.02
603.75	25289.34
603.946	25133.7
604.142	24994.43
604.338	24705.67
604.534	25012.87
604.73	24584.84
604.926	24734.34
605.122	24711.81
605.318	24115.86
605.514	24132.24
605.71	24365.71
605.906	24203.92
606.102	24547.98
606.298	24275.6
606.494	24083.09
606.69	24326.8
606.886	24191.63
607.082	23749.27
607.278	24048.27
607.474	23825.04
607.67	23917.2
607.866	23718.55
608.062	23954.07
608.257	23556.76
608.453	23618.2
608.649	23636.63
608.845	23419.55
609.041	23493.27
609.236	23454.36
609.432	23284.38
609.628	23487.13
609.824	23409.31
610.019	23122.59
610.215	23018.14
610.411	23292.57
610.606	22866.6
610.802	23206.56
610.998	23007.9
611.193	23190.17
611.389	22856.36
611.584	22735.53
611.78	22905.51
611.976	22934.18
612.171	22647.46
612.367	22487.72
612.562	22600.36
612.758	22467.24
612.953	22588.07
613.149	22557.35
613.344	22452.91
613.539	22665.89
613.735	22309.55
613.93	22235.82
614.126	22641.32
614.321	22399.66
614.517	22356.65
614.712	22295.21
614.907	22198.96
615.103	22452.91
615.298	22082.22
615.493	22340.27
615.688	21813.94
615.884	22420.14
616.079	21723.83
616.274	22143.66
616.47	21945.01
616.665	22063.79
616.86	21996.21
617.055	21777.08
617.25	21832.37
617.445	21904.05
617.641	21383.87
617.836	21594.81
618.031	21344.95
618.226	21752.5
618.421	21320.38
618.616	21519.03
618.811	21011.14
619.006	21492.41
619.201	20957.89
619.396	21017.28
619.591	20773.57
619.786	21201.6
619.981	20705.99
620.176	20703.94
620.371	20218.57
620.566	20728.52
620.761	20452.04
620.956	20556.49
621.151	20110.03
621.346	20415.18
621.541	20091.6
621.735	20179.66
621.93	19612.37
622.125	20138.7
622.32	19534.55
622.515	19706.58
622.709	19405.53
622.904	19339.99
623.099	19417.82
623.294	19292.89
623.488	18860.77
623.683	19256.03
623.878	18672.36
624.072	18864.86
624.267	18748.13
624.462	18404.07
624.656	18711.27
624.851	18291.43
625.046	18379.5
625.24	18338.54
625.435	18010.86
625.629	18158.31
625.824	17851.12
626.018	18236.14
626.213	17701.62
626.407	17838.83
626.602	17462.01
626.796	17709.81
626.991	17672.95
627.185	17410.81
627.38	17240.82
627.574	17158.91
627.768	16798.46
627.963	16937.73
628.157	16534.28
628.352	17009.4
628.546	16585.47
628.74	16792.32
628.935	16524.04
629.129	16554.76
629.323	16118.54
629.517	16210.7
629.712	16298.76
629.906	16292.62
630.1	15682.32
630.294	15803.15
630.489	15739.66
630.683	15856.4
630.877	15362.84
631.071	15301.4
631.265	15694.61
631.459	15565.59
631.653	15207.19
631.848	15416.08
632.042	15065.88
632.236	15102.75
632.43	15106.84
632.624	14887.71
632.818	14920.48
633.012	14639.9
633.206	14609.19
633.4	14879.52
633.594	14506.79
633.788	14420.77
633.982	14504.74
634.176	14478.12
634.369	14242.6
634.563	14371.62
634.757	14392.1
634.951	14041.9
635.145	14078.76
635.339	13929.26
635.533	13732.65
635.726	13738.8
635.92	13554.48
636.114	13488.95
636.308	13529.91
636.501	13544.24
636.695	13617.97
636.889	13255.48
637.083	13298.49
637.276	13208.37
637.47	13015.87
637.664	12856.12
637.857	13249.33
638.051	13155.13
638.244	12538.69
638.438	12815.16
638.632	12897.08
638.825	12872.51
639.019	12618.56
639.212	12612.42
639.406	12417.86
639.599	12501.83
639.793	12323.65
639.986	12215.11
640.18	12278.6
640.373	12348.23
640.567	12256.07
640.76	12282.69
640.954	12075.85
641.147	11950.92
641.34	11668.3
641.534	11678.54
641.727	11758.41
641.92	11641.68
642.114	11668.3
642.307	11668.3
642.5	11504.46
642.694	11168.6
642.887	11279.19
643.08	11320.15
643.273	11236.18
643.467	11264.85
643.66	11017.05
643.853	11119.45
644.046	11119.45
644.239	11137.88
644.432	10920.79
644.626	10847.07
644.819	10873.69
645.012	10787.68
645.205	10642.27
645.398	10662.75
645.591	10539.87
645.784	10589.02
645.977	10482.53
646.17	10384.23
646.363	10177.38
646.556	10208.1
646.749	10142.57
646.942	10183.52
647.135	10156.9
647.328	10085.22
647.521	9980.78
647.714	9997.16
647.907	9747.31
648.099	10009.45
648.292	10081.13
648.485	9788.27
648.678	9767.79
648.871	9847.66
649.064	9560.94
649.256	9577.33
649.449	9710.44
649.642	9585.52
649.835	9429.87
650.027	9243.51
650.22	9216.88
650.413	9118.58
650.605	9419.63
650.798	9255.79
650.991	9089.91
651.183	9214.84
651.376	8999.8
651.568	8969.08
651.761	8788.86
651.954	8874.87
652.146	8897.4
652.339	8874.87
652.531	8790.91
652.724	8760.19
652.916	8665.98
653.109	8780.67
653.301	8530.81
653.494	8590.2
653.686	8356.74
653.879	8655.74
654.071	8575.87
654.263	8366.98
654.456	8553.34
654.648	8309.63
654.84	8108.93
655.033	8203.14
655.225	7986.05
655.417	7916.42
655.61	7857.03
655.802	8012.68
655.994	7711.63
656.186	7998.34
656.379	7873.42
656.571	7920.52
656.763	7764.87
656.955	7859.08
657.148	7895.94
657.34	7785.35
657.532	7605.13
657.724	7566.22
657.916	7635.85
658.108	7654.28
658.3	7390.1
658.492	7429.01
658.684	7506.83
658.876	7246.74
659.068	7248.79
659.26	7285.65
659.452	7205.78
659.644	7216.02
659.836	7228.31
660.028	7226.26
660.22	6943.64
660.412	7043.99
660.604	7148.43
660.796	6878.1
660.988	6767.51
661.18	6720.41
661.372	6796.18
661.563	6957.97
661.755	6818.71
661.947	6691.74
662.139	6626.2
662.331	6740.89
662.522	6597.53
662.714	6648.73
662.906	6648.73
663.097	6693.79
663.289	6726.55
663.481	6445.98
663.673	6448.03
663.864	6400.93
664.056	6478.75
664.247	6419.36
664.439	6200.23
664.631	6218.66
664.822	6220.71
665.014	6419.36
665.205	6232.99
665.397	6230.94
665.588	6077.35
665.78	6042.53
665.971	6177.7
666.163	6067.11
666.354	5997.48
666.546	5938.09
666.737	5866.41
666.929	5878.69
667.12	5952.42
667.311	5764.01
667.503	5753.77
667.694	5809.06
667.885	5716.9
668.077	5854.12
668.268	5708.71
668.459	5567.4
668.651	5553.07
668.842	5698.47
669.033	5688.23
669.224	5647.27
669.416	5651.37
669.607	5612.46
669.798	5616.55
669.989	5653.42
670.18	5637.03
670.371	5411.76
670.563	5319.6
670.754	5405.61
670.945	5348.27
671.136	5313.45
671.327	5393.33
671.518	5209.01
671.709	5424.05
671.9	5280.69
672.091	5245.87
672.282	5295.02
672.473	5043.12
672.664	5290.93
672.855	5120.95
673.046	5254.06
673.237	5135.28
673.428	5014.45
673.619	4998.07
673.809	4975.54
674	4948.92
674.191	5000.12
674.382	4981.68
674.573	5034.93
674.764	4875.19
674.954	5090.23
675.145	4856.76
675.336	4772.79
675.527	4850.61
675.717	4869.05
675.908	4885.43
676.099	4856.76
676.289	4850.61
676.48	4662.2
676.671	4690.87
676.861	4852.66
677.052	4651.96
677.243	4664.25
677.433	4701.11
677.624	4756.41
677.814	4742.07
678.005	4688.82
678.195	4694.97
678.386	4430.78
678.576	4488.12
678.767	4684.73
678.957	4475.84
679.148	4582.33
679.338	4625.34
679.529	4631.48
679.719	4441.02
679.909	4697.02
680.1	4412.35
680.29	4504.51
680.481	4398.01
680.671	4449.21
680.861	4326.33
681.052	4455.36
681.242	4328.38
681.432	4326.33
681.622	4346.81
681.813	4291.52
682.003	4221.89
682.193	4406.2
682.383	4215.74
682.573	4295.61
682.764	4228.03
682.954	4344.77
683.144	4293.57
683.334	4154.3
683.524	4281.28
683.714	4158.4
683.904	4318.14
684.094	4223.94
684.284	4041.67
684.474	4275.13
684.664	4174.78
684.854	4164.54
685.044	4105.15
685.234	4078.53
685.424	4195.26
685.614	4137.92
685.804	3984.32
685.994	4021.19
686.184	3931.08
686.374	3822.53
686.564	3933.12
686.753	3926.98
686.943	3843.01
687.133	3888.07
687.323	3869.64
687.513	3902.4
687.702	3890.12
687.892	3935.17
688.082	3881.92
688.272	3759.05
688.461	3775.43
688.651	3875.78
688.841	3709.9
689.03	3732.42
689.22	3845.06
689.41	3746.76
689.599	3605.45
689.789	3595.21
689.979	3640.26
690.168	3611.59
690.358	3607.5
690.547	3554.25
690.737	3492.81
690.926	3642.31
691.116	3433.42
691.305	3472.33
691.495	3445.71
691.684	3371.98
691.874	3480.52
692.063	3392.46
692.252	3304.4
692.442	3292.11
692.631	3343.31
692.82	3419.08
693.01	3376.08
693.199	3193.81
693.388	3394.51
693.578	3341.26
693.767	3267.53
693.956	3183.57
694.146	3193.81
694.335	3228.62
694.524	3257.29
694.713	3195.86
694.902	3240.91
695.092	3328.97
695.281	3193.81
695.47	3267.53
695.659	3118.03
695.848	3021.78
696.037	3134.42
696.226	2974.67
696.415	3091.41
696.604	3107.79
696.793	3042.26
696.982	3089.36
697.171	2915.28
697.36	2995.15
697.549	2946
697.738	2819.03
697.927	2927.57
698.116	2970.58
698.305	2868.18
698.494	3001.3
698.683	2935.76
698.872	2884.56
699.061	2894.8
699.25	2720.73
699.438	3009.49
699.627	2892.76
699.816	2851.8
700.005	2759.64
700.193	2855.89
700.382	2976.72
700.571	2812.89
700.76	2794.45
700.948	2714.58
701.137	2925.52
701.326	2776.02
701.514	2837.46
701.703	2667.48
701.892	2841.56
702.08	2866.13
702.269	2866.13
702.457	2692.05
702.646	2849.75
702.834	2700.25
703.023	2741.21
703.212	2745.3
703.4	2829.27
703.589	2776.02
703.777	2747.35
703.965	2722.77
704.154	2606.04
704.342	2628.57
704.531	2767.83
704.719	2773.97
704.907	2726.87
705.096	2702.29
705.284	2669.53
705.472	2745.3
705.661	2603.99
705.849	2767.83
706.037	2724.82
706.226	2735.06
706.414	2806.74
706.602	2706.39
706.79	2710.49
706.979	2771.93
707.167	2726.87
707.355	2790.36
707.543	2599.9
707.731	2612.18
707.919	2632.66
708.107	2782.17
708.296	2624.47
708.484	2616.28
708.672	2749.4
708.86	2677.72
709.048	2628.57
709.236	2661.34
709.424	2708.44
709.612	2753.49
709.8	2741.21
709.988	2642.9
710.176	2638.81
710.364	2626.52
710.551	2720.73
710.739	2614.23
710.927	2702.29
711.115	2718.68
711.303	2712.53
711.491	2755.54
711.679	2587.61
711.866	2595.8
712.054	2653.14
712.242	2569.18
712.43	2739.16
712.617	2647
712.805	2571.22
712.993	2708.44
713.181	2505.69
713.368	2616.28
713.556	2649.05
713.744	2614.23
713.931	2620.38
714.119	2622.42
714.306	2573.27
714.494	2620.38
714.682	2655.19
714.869	2544.6
715.057	2661.34
715.244	2579.42
715.432	2692.05
715.619	2591.7
715.807	2563.03
715.994	2804.69
716.182	2487.26
716.369	2644.95
716.556	2663.38
716.744	2468.83
716.931	2665.43
717.119	2526.17
717.306	2556.89
717.493	2620.38
717.681	2595.8
717.868	2567.13
718.055	2632.66
718.242	2595.8
718.43	2612.18
718.617	2694.1
718.804	2595.8
718.991	2632.66
719.179	2515.93
719.366	2624.47
719.553	2673.62
719.74	2542.55
719.927	2655.19
720.114	2601.94
720.301	2556.89
720.488	2614.23
720.676	2620.38
720.863	2665.43
721.05	2698.2
721.237	2581.46
721.424	2618.33
721.611	2548.7
721.798	2560.98
721.985	2540.51
722.172	2542.55
722.358	2560.98
722.545	2575.32
722.732	2454.49
722.919	2603.99
723.106	2524.12
723.293	2421.72
723.48	2554.84
723.667	2575.32
723.853	2419.68
724.04	2550.75
724.227	2517.98
724.414	2483.16
724.6	2560.98
724.787	2622.42
724.974	2536.41
725.161	2563.03
725.347	2472.92
725.534	2560.98
725.72	2501.59
725.907	2567.13
726.094	2528.22
726.28	2477.02
726.467	2677.72
726.653	2460.63
726.84	2515.93
727.027	2540.51
727.213	2503.64
727.4	2538.46
727.586	2483.16
727.773	2579.42
727.959	2606.04
728.145	2501.59
728.332	2520.03
728.518	2511.83
728.705	2649.05
728.891	2485.21
729.077	2571.22
729.264	2552.79
729.45	2423.77
729.636	2581.46
729.823	2558.94
730.009	2548.7
730.195	2540.51
730.382	2624.47
730.568	2431.96
730.754	2540.51
730.94	2526.17
731.126	2597.85
731.313	2464.73
731.499	2487.26
731.685	2495.45
731.871	2491.35
732.057	2472.92
732.243	2515.93
732.429	2452.44
732.615	2507.74
732.801	2542.55
732.987	2298.84
733.173	2393.05
733.359	2423.77
733.545	2411.48
733.731	2401.24
733.917	2431.96
734.103	2366.43
734.289	2481.11
734.475	2368.48
734.661	2434.01
734.847	2436.06
735.033	2542.55
735.219	2411.48
735.404	2491.35
735.59	2397.15
735.776	2413.53
735.962	2477.02
736.148	2474.97
736.333	2460.63
736.519	2495.45
736.705	2350.04
736.89	2450.39
737.076	2409.44
737.262	2417.63
737.447	2464.73
737.633	2393.05
737.819	2335.71
738.004	2399.2
738.19	2296.8
738.375	2368.48
738.561	2354.14
738.747	2302.94
738.932	2288.61
739.118	2382.81
739.303	2218.97
739.489	2321.37
739.674	2288.61
739.859	2221.02
740.045	2339.8
740.23	2278.37
740.416	2237.41
740.601	2395.1
740.786	2206.69
740.972	2147.3
741.157	2327.52
741.342	2239.45
741.528	2130.91
741.713	2110.43
741.898	2149.34
742.084	2163.68
742.269	2247.65
742.454	2243.55
742.639	2186.21
742.824	2061.28
743.01	2225.12
743.195	2141.15
743.38	2042.85
743.565	2155.49
743.75	2055.14
743.935	2124.77
744.12	2225.12
744.305	2038.75
744.49	2223.07
744.675	2149.34
744.86	1962.98
745.045	2096.1
745.23	2040.8
745.415	1985.51
745.6	2053.09
745.785	2026.47
745.97	2044.9
746.155	2081.76
746.34	2010.08
746.525	2020.32
746.71	1989.6
746.895	1934.31
747.079	1987.55
747.264	1825.76
747.449	1975.27
747.634	1852.39
747.819	1903.59
748.003	1909.73
748.188	1862.63
748.373	1954.79
748.557	1842.15
748.742	1846.24
748.927	1770.47
749.111	1774.56
749.296	1842.15
749.481	1756.13
749.665	1786.85
749.85	1729.51
750.034	1678.31
750.219	1836
750.404	1762.28
750.588	1743.85
750.773	1706.98
750.957	1711.08
751.141	1684.45
751.326	1651.69
751.51	1590.25
751.695	1649.64
751.879	1672.17
752.064	1604.58
752.248	1711.08
752.432	1616.87
752.617	1600.49
752.801	1586.15
752.985	1657.83
753.17	1682.41
753.354	1582.06
753.538	1481.71
753.722	1549.29
753.907	1502.19
754.091	1561.58
754.275	1549.29
754.459	1436.65
754.643	1455.08
754.828	1518.57
755.012	1508.33
755.196	1504.23
755.38	1440.75
755.564	1428.46
755.748	1412.07
755.932	1524.71
756.116	1393.64
756.3	1379.31
756.484	1367.02
756.668	1393.64
756.852	1356.78
757.036	1231.85
757.22	1250.28
757.404	1338.35
757.588	1252.33
757.772	1324.01
757.956	1313.77
758.14	1219.57
758.323	1227.76
758.507	1278.96
758.691	1252.33
758.875	1326.06
759.059	1293.29
759.242	1199.09
759.426	1248.24
759.61	1383.4
759.794	1180.65
759.977	1272.81
760.161	1268.72
760.345	1352.68
760.528	1194.99
760.712	1235.95
760.895	1244.14
761.079	1145.84
761.263	1227.76
761.446	1166.32
761.63	1178.61
761.813	1217.52
761.997	1158.13
762.18	1086.45
762.364	1147.89
762.547	1151.98
762.731	1113.07
762.914	1106.93
763.098	1143.79
763.281	1108.98
763.464	1119.21
763.648	1045.49
763.831	1164.27
764.015	1043.44
764.198	1108.98
764.381	1151.98
764.564	1047.54
764.748	1119.21
764.931	1053.68
765.114	1043.44
765.297	1168.37
765.481	990.19
765.664	1051.63
765.847	1014.77
766.03	1059.82
766.213	1076.21
766.397	1008.62
766.58	1070.06
766.763	1025.01
766.946	1008.62
767.129	996.34
767.312	953.33
767.495	982
767.678	973.81
767.861	998.38
768.044	1035.25
768.227	1010.67
768.41	1061.87
768.593	1010.67
768.776	1012.72
768.959	914.42
769.142	914.42
769.324	1094.64
769.507	922.61
769.69	941.04
769.873	963.57
770.056	1004.53
770.239	961.52
770.421	926.71
770.604	971.76
770.787	990.19
770.97	857.07
771.152	873.46
771.335	926.71
771.518	949.23
771.7	967.67
771.883	895.99
772.066	920.56
772.248	949.23
772.431	943.09
772.613	941.04
772.796	852.98
772.978	867.31
773.161	965.62
773.343	852.98
773.526	787.44
773.708	885.75
773.891	793.59
774.073	848.88
774.256	898.03
774.438	863.22
774.621	863.22
774.803	830.45
774.985	771.06
775.168	865.27
775.35	838.64
775.532	707.57
775.715	838.64
775.897	789.49
776.079	680.95
776.261	814.07
776.444	701.43
776.626	795.64
776.808	680.95
776.99	713.72
777.173	705.53
777.355	732.15
777.537	715.77
777.719	738.29
777.901	674.81
778.083	734.2
778.265	635.89
778.447	728.05
778.629	707.57
778.811	629.75
778.993	619.51
779.175	678.9
779.357	670.71
779.539	639.99
779.721	697.33
779.903	699.38
780.085	723.96
780.267	639.99
780.449	623.61
780.631	592.89
780.812	691.19
780.994	560.12
781.176	670.71
781.358	572.41
781.54	584.7
781.721	570.36
781.903	633.85
782.085	525.3
782.267	560.12
782.448	588.79
782.63	568.31
782.812	584.7
782.993	582.65
783.175	613.37
783.357	568.31
783.538	623.61
783.72	506.87
783.901	558.07
784.083	523.26
784.264	500.73
784.446	549.88
784.627	533.5
784.809	494.58
784.99	461.82
785.172	541.69
785.353	480.25
785.535	506.87
785.716	441.34
785.897	513.02
786.079	517.11
786.26	494.58
786.441	484.34
786.623	523.26
786.804	427
786.985	517.11
787.167	484.34
787.348	459.77
787.529	492.54
787.71	521.21
787.891	515.06
788.073	470.01
788.254	357.37
788.435	500.73
788.616	519.16
788.797	400.38
788.978	465.91
789.159	408.57
789.34	388.09
789.522	424.95
789.703	398.33
789.884	445.43
790.065	474.1
790.246	386.04
790.427	381.95
790.607	402.43
790.788	359.42
790.969	402.43
791.15	420.86
791.331	408.57
791.512	347.13
791.693	355.32
791.874	406.52
792.054	463.86
792.235	396.28
792.416	326.65
792.597	365.56
792.778	398.33
792.958	433.15
793.139	254.97
793.32	435.19
793.5	377.85
793.681	318.46
793.862	293.88
794.042	418.81
794.223	322.56
794.404	338.94
794.584	353.27
794.765	281.6
794.945	265.21
795.126	355.32
795.306	398.33
795.487	324.6
795.667	326.65
795.848	343.03
796.028	394.23
796.209	297.98
796.389	293.88
796.57	271.36
796.75	328.7
796.93	310.27
797.111	314.36
797.291	320.51
797.471	324.6
797.652	343.03
797.832	269.31
798.012	248.83
798.192	324.6
798.373	320.51
798.553	277.5
798.733	318.46
798.913	281.6
799.093	306.17
799.274	248.83
799.454	236.54
799.634	340.99
799.814	338.94
799.994	293.88
800.174	277.5
800.354	265.21
800.534	214.01
800.714	287.74
800.894	281.6
801.074	252.92
801.254	232.44
801.434	248.83
801.614	281.6
801.794	224.25
801.974	580.6
802.154	248.83
802.334	191.49
802.514	283.64
802.693	218.11
802.873	177.15
803.053	248.83
803.233	257.02
803.413	265.21
803.592	201.72
803.772	261.12
803.952	197.63
804.131	189.44
804.311	310.27
804.491	218.11
804.67	117.76
804.85	203.77
805.03	281.6
805.209	224.25
805.389	168.96
805.568	136.19
805.748	181.25
805.928	257.02
806.107	248.83
806.287	214.01
806.466	269.31
806.646	191.49
806.825	254.97
807.004	209.92
807.184	244.73
807.363	183.29
807.543	136.19
807.722	275.45
807.901	240.64
808.081	177.15
808.26	179.2
808.439	259.07
808.619	189.44
808.798	111.61
808.977	224.25
809.156	191.49
809.336	168.96
809.515	218.11
809.694	189.44
809.873	232.44
810.052	257.02
810.231	179.2
810.411	181.25
810.59	211.96
810.769	197.63
810.948	205.82
811.127	187.39
811.306	150.53
811.485	148.48
811.664	130.05
811.843	197.63
812.022	125.95
812.201	181.25
812.38	160.77
812.559	164.86
812.737	246.78
812.916	168.96
813.095	117.76
813.274	171.01
813.453	222.2
813.632	130.05
813.811	220.16
813.989	224.25
814.168	199.68
814.347	138.24
814.526	236.54
814.704	148.48
814.883	175.1
815.062	166.91
815.24	162.81
815.419	211.96
815.598	191.49
815.776	74.75
815.955	142.33
816.133	132.09
816.312	111.61
816.49	117.76
816.669	93.18
816.847	166.91
817.026	130.05
817.204	82.94
817.383	136.19
817.561	158.72
817.74	179.2
817.918	152.57
818.097	91.13
818.275	148.48
818.453	199.68
818.632	156.67
818.81	152.57
818.988	168.96
819.167	113.66
819.345	130.05
819.523	164.86
819.701	173.05
819.879	50.18
820.058	138.24
820.236	187.39
820.414	189.44
820.592	105.47
820.77	123.9
820.948	117.76
821.127	95.23
821.305	107.52
821.483	132.09
821.661	209.92
821.839	80.89
822.017	185.34
822.195	76.8
822.373	119.81
822.551	134.14
822.729	154.62
822.907	78.85
823.085	93.18
823.262	125.95
823.44	134.14
823.618	123.9
823.796	89.09
823.974	142.33
824.152	44.03
824.329	121.85
824.507	119.81
824.685	146.43
824.863	99.33
825.04	130.05
825.218	130.05
825.396	44.03
825.574	185.34
825.751	115.71
825.929	97.28
826.107	46.08
826.284	107.52
826.462	70.65
826.639	21.5
826.817	84.99
826.994	175.1
827.172	156.67
827.349	60.42
827.527	56.32
827.704	58.37
827.882	111.61
828.059	134.14
828.237	89.09
828.414	162.81
828.591	17.41
828.769	162.81
828.946	93.18
829.124	148.48
829.301	113.66
829.478	199.68
829.655	66.56
829.833	84.99
830.01	76.8
830.187	62.46
830.364	158.72
830.542	109.57
830.719	74.75
830.896	113.66
831.073	164.86
831.25	138.24
831.427	101.37
831.604	171.01
831.782	60.42
831.959	109.57
832.136	17.41
832.313	41.98
832.49	58.37
832.667	60.42
832.844	21.5
833.021	109.57
833.198	89.09
833.374	113.66
833.551	95.23
833.728	15.36
833.905	99.33
834.082	91.13
834.259	134.14
834.436	46.08
834.612	52.22
834.789	128
834.966	101.37
835.143	74.75
835.319	23.55
835.496	84.99
835.673	97.28
835.85	78.85
836.026	46.08
836.203	109.57
836.38	44.03
836.556	128
836.733	119.81
836.909	119.81
837.086	72.7
837.262	48.13
837.439	113.66
837.616	56.32
837.792	-1.02
837.968	64.51
838.145	128
838.321	130.05
838.498	179.2
838.674	64.51
838.851	68.61
839.027	56.32
839.203	44.03
839.38	136.19
839.556	164.86
839.732	111.61
839.909	78.85
840.085	76.8
840.261	87.04
840.437	125.95
840.614	50.18
840.79	105.47
840.966	109.57
841.142	56.32
841.318	56.32
841.494	72.7
841.671	93.18
841.847	89.09
842.023	-3.07
842.199	-9.22
842.375	33.79
842.551	9.22
842.727	-7.17
842.903	5.12
843.079	31.74
843.255	117.76
843.431	74.75
843.607	148.48
843.783	115.71
843.959	66.56
844.134	19.46
844.31	80.89
844.486	60.42
844.662	54.27
844.838	44.03
845.013	123.9
845.189	66.56
845.365	72.7
845.541	58.37
845.716	54.27
845.892	107.52
846.068	44.03
846.244	-21.5
846.419	107.52
846.595	19.46
846.77	41.98
846.946	87.04
847.122	39.94
847.297	89.09
847.473	80.89
847.648	23.55
847.824	74.75
847.999	5.12
848.175	48.13
848.35	37.89
848.526	95.23
848.701	101.37
848.876	105.47
849.052	52.22
849.227	72.7
849.403	68.61
849.578	11.26
849.753	87.04
849.929	48.13
850.104	9.22
850.279	66.56
850.454	5.12
850.63	64.51
850.805	54.27
850.98	48.13
851.155	48.13
851.33	60.42
851.505	54.27
851.681	84.99
851.856	101.37
852.031	44.03
852.206	35.84
852.381	39.94
852.556	39.94
852.731	-9.22
852.906	107.52
853.081	101.37
853.256	62.46
853.431	105.47
853.606	35.84
853.781	17.41
853.956	62.46
854.131	19.46
854.305	13.31
854.48	52.22
854.655	41.98
854.83	84.99
855.005	19.46
855.18	70.65
855.354	37.89
855.529	27.65
855.704	68.61
855.879	66.56
856.053	-9.22
856.228	44.03
856.403	13.31
856.577	17.41
856.752	39.94
856.926	1.02
857.101	5.12
857.276	23.55
857.45	-17.41
857.625	56.32
857.799	25.6
857.974	35.84
858.148	-17.41
858.323	87.04
858.497	56.32
858.672	39.94
858.846	13.31
859.02	105.47
859.195	15.36
859.369	33.79
859.543	17.41
859.718	58.37
859.892	15.36
860.066	41.98
860.241	-11.26
860.415	-27.65
860.589	80.89
860.763	-33.79
860.938	17.41
861.112	39.94
861.286	109.57
861.46	44.03
861.634	78.85
861.808	39.94
861.982	-7.17
862.157	-5.12
862.331	25.6
862.505	23.55
862.679	58.37
862.853	31.74
863.027	29.7
863.201	66.56
863.375	87.04
863.549	56.32
863.722	3.07
863.896	60.42
864.07	-29.7
864.244	39.94
864.418	-48.13
864.592	-9.22
864.766	78.85
864.939	15.36
865.113	-15.36
865.287	25.6
865.461	-54.27
865.634	68.61
865.808	56.32
865.982	44.03
866.156	-54.27
866.329	35.84
866.503	35.84
866.676	89.09
866.85	7.17
867.024	37.89
867.197	39.94
867.371	56.32
867.544	50.18
867.718	19.46
867.891	-27.65
868.065	72.7
868.238	9.22
868.412	33.79
868.585	44.03
868.759	84.99
868.932	17.41
869.105	-21.5
869.279	52.22
869.452	-13.31
869.625	33.79
869.799	74.75
869.972	-70.65
870.145	-46.08
870.319	25.6
870.492	44.03
870.665	-1.02
870.838	15.36
871.011	29.7
871.185	-1.02
871.358	-58.37
871.531	58.37
871.704	-39.94
871.877	9.22
872.05	17.41
872.223	-62.46
872.396	72.7
872.569	23.55
872.742	3.07
872.915	56.32
873.088	-82.94
873.261	29.7
873.434	-7.17
873.607	11.26
873.78	-11.26
873.953	-13.31
874.126	15.36
874.299	-41.98
874.471	-3.07
874.644	31.74
874.817	-1.02
874.99	80.89
875.163	21.5
875.335	54.27
875.508	3.07
875.681	68.61
875.853	39.94
876.026	27.65
876.199	-7.17
876.371	11.26
876.544	5.12
876.717	48.13
876.889	15.36
877.062	-21.5
877.234	-3.07
877.407	15.36
877.579	35.84
877.752	44.03
877.924	-27.65
878.097	17.41
878.269	-1.02
878.442	5.12
878.614	9.22
878.786	7.17
878.959	11.26
879.131	-23.55
879.303	3.07
879.476	21.5
879.648	46.08
879.82	80.89
879.993	64.51
880.165	15.36
880.337	35.84
880.509	37.89
880.681	-11.26
880.854	-5.12
881.026	-25.6
881.198	60.42
881.37	-21.5
881.542	60.42
881.714	50.18
881.886	50.18
882.058	-1.02
882.23	-5.12
882.402	-54.27
882.574	21.5
882.746	113.66
882.918	37.89
883.09	21.5
883.262	17.41
883.434	-35.84
883.606	60.42
883.778	-33.79
883.95	105.47
884.122	-27.65
884.293	39.94
884.465	7.17
884.637	93.18
884.809	39.94
884.98	-37.89
885.152	11.26
885.324	25.6
885.496	-1.02
885.667	48.13
885.839	-17.41
886.011	-13.31
886.182	-29.7
886.354	19.46
886.525	-37.89
886.697	-3.07
886.869	-33.79
887.04	3.07
887.212	17.41
887.383	5.12
887.555	44.03
887.726	37.89
887.897	19.46
888.069	1.02
888.24	29.7
888.412	48.13
888.583	44.03
888.754	35.84
888.926	-33.79
889.097	-35.84
889.268	3.07
889.44	48.13
889.611	-76.8
889.782	-5.12
889.953	15.36
890.125	-7.17
890.296	7.17
890.467	48.13
890.638	64.51
890.809	19.46
890.98	31.74
891.151	27.65
891.323	-64.51
891.494	52.22
891.665	44.03
891.836	-27.65
892.007	27.65
892.178	76.8
892.349	52.22
892.52	80.89
892.691	17.41
892.862	23.55
893.032	19.46
893.203	33.79
893.374	35.84
893.545	37.89
893.716	-9.22
893.887	-11.26
894.057	3.07
894.228	-31.74
894.399	52.22
894.57	56.32
894.74	37.89
894.911	25.6
895.082	17.41
895.253	35.84
895.423	50.18
895.594	-29.7
895.764	64.51
895.935	-7.17
896.106	52.22
896.276	56.32
896.447	41.98
896.617	-27.65
896.788	-44.03
896.958	-29.7
897.129	7.17
897.299	52.22
897.47	46.08
897.64	27.65
897.81	-33.79
897.981	48.13
898.151	-39.94
898.322	48.13
898.492	25.6
898.662	11.26
898.832	-46.08
899.003	-1.02
899.173	7.17
899.343	-9.22
899.513	3.07
