Data from USB4F104151__53__11-37-16-102.txt Node

Date: Fri Mar 14 11:37:16 EDT 2025
User: louis
Spectrometer: USB4F10415
Trigger mode: 4
Integration Time (sec): 2.000000E-2
Scans to average: 1
Electric dark correction enabled: true
Nonlinearity correction enabled: false
Boxcar width: 0
XAxis mode: Wavelengths
Number of Pixels in Spectrum: 3648
>>>>>Begin Spectral Data<<<<<
178.204	-50.69
178.424	-50.69
178.644	-50.69
178.864	-79.36
179.084	-30.21
179.304	51.71
179.524	-44.54
179.744	0.51
179.964	-3.58
180.184	16.9
180.404	-50.69
180.624	-26.11
180.844	55.81
181.064	-28.16
181.283	-36.35
181.503	35.33
181.723	29.18
181.943	0.51
182.163	25.09
182.383	-93.69
182.602	72.19
182.822	66.05
183.042	86.53
183.262	-9.73
183.482	43.52
183.701	31.23
183.921	12.8
184.141	49.66
184.361	2.56
184.58	10.75
184.8	47.62
185.02	0.51
185.239	-1.54
185.459	-3.58
185.679	14.85
185.898	-5.63
186.118	88.57
186.338	-32.26
186.557	-22.02
186.777	66.05
186.997	-26.11
187.216	-17.92
187.436	-28.16
187.655	43.52
187.875	86.53
188.095	23.04
188.314	20.99
188.534	70.14
188.753	53.76
188.973	39.42
189.192	27.14
189.412	43.52
189.631	-34.3
189.851	49.66
190.07	37.38
190.29	18.94
190.509	47.62
190.729	16.9
190.948	25.09
191.168	88.57
191.387	88.57
191.607	49.66
191.826	16.9
192.045	41.47
192.265	-13.82
192.484	27.14
192.704	33.28
192.923	-46.59
193.142	115.2
193.362	18.94
193.581	-1.54
193.8	98.81
194.02	10.75
194.239	55.81
194.458	45.57
194.678	12.8
194.897	16.9
195.116	100.86
195.335	74.24
195.555	-19.97
195.774	-3.58
195.993	78.33
196.212	47.62
196.432	-58.88
196.651	0.51
196.87	33.28
197.089	-3.58
197.308	55.81
197.528	80.38
197.747	41.47
197.966	70.14
198.185	2.56
198.404	25.09
198.623	8.7
198.842	80.38
199.062	64
199.281	-15.87
199.5	55.81
199.719	8.7
199.938	51.71
200.157	0.51
200.376	53.76
200.595	39.42
200.814	37.38
201.033	-7.68
201.252	25.09
201.471	16.9
201.69	68.09
201.909	-11.78
202.128	84.48
202.347	72.19
202.566	47.62
202.785	33.28
203.004	-54.78
203.223	98.81
203.442	14.85
203.661	66.05
203.879	49.66
204.098	-3.58
204.317	25.09
204.536	107.01
204.755	2.56
204.974	78.33
205.193	-7.68
205.411	78.33
205.63	20.99
205.849	20.99
206.068	12.8
206.287	72.19
206.505	100.86
206.724	107.01
206.943	33.28
207.162	23.04
207.381	-3.58
207.599	47.62
207.818	-40.45
208.037	47.62
208.255	29.18
208.474	18.94
208.693	76.29
208.911	8.7
209.13	61.95
209.349	125.44
209.567	-28.16
209.786	64
210.005	43.52
210.223	39.42
210.442	-17.92
210.661	49.66
210.879	-15.87
211.098	49.66
211.316	41.47
211.535	121.34
211.753	35.33
211.972	51.71
212.191	51.71
212.409	-28.16
212.628	72.19
212.846	41.47
213.065	35.33
213.283	33.28
213.502	-32.26
213.72	104.96
213.938	57.86
214.157	20.99
214.375	10.75
214.594	-11.78
214.812	74.24
215.031	27.14
215.249	35.33
215.467	18.94
215.686	51.71
215.904	10.75
216.122	20.99
216.341	43.52
216.559	68.09
216.778	27.14
216.996	41.47
217.214	14.85
217.432	-9.73
217.651	-13.82
217.869	-7.68
218.087	39.42
218.306	72.19
218.524	59.9
218.742	61.95
218.96	61.95
219.179	43.52
219.397	94.72
219.615	72.19
219.833	10.75
220.051	14.85
220.27	55.81
220.488	-44.54
220.706	49.66
220.924	59.9
221.142	94.72
221.36	6.66
221.578	35.33
221.796	-1.54
222.015	51.71
222.233	-7.68
222.451	-9.73
222.669	-7.68
222.887	76.29
223.105	39.42
223.323	84.48
223.541	33.28
223.759	-7.68
223.977	51.71
224.195	125.44
224.413	20.99
224.631	41.47
224.849	18.94
225.067	-5.63
225.285	55.81
225.503	47.62
225.721	-7.68
225.939	2.56
226.157	74.24
226.375	68.09
226.592	16.9
226.81	51.71
227.028	66.05
227.246	98.81
227.464	-13.82
227.682	64
227.9	-22.02
228.117	43.52
228.335	2.56
228.553	61.95
228.771	86.53
228.989	80.38
229.206	68.09
229.424	-19.97
229.642	16.9
229.86	6.66
230.077	70.14
230.295	16.9
230.513	8.7
230.731	55.81
230.948	84.48
231.166	27.14
231.384	51.71
231.601	35.33
231.819	4.61
232.037	-3.58
232.254	-3.58
232.472	45.57
232.689	25.09
232.907	10.75
233.125	-50.69
233.342	20.99
233.56	-15.87
233.777	59.9
233.995	59.9
234.213	76.29
234.43	31.23
234.648	14.85
234.865	0.51
235.083	10.75
235.3	39.42
235.518	8.7
235.735	16.9
235.953	57.86
236.17	-7.68
236.388	66.05
236.605	16.9
236.822	-19.97
237.04	20.99
237.257	37.38
237.475	-46.59
237.692	0.51
237.909	-17.92
238.127	49.66
238.344	68.09
238.562	57.86
238.779	18.94
238.996	10.75
239.214	-46.59
239.431	-3.58
239.648	55.81
239.865	47.62
240.083	10.75
240.3	31.23
240.517	-7.68
240.735	41.47
240.952	51.71
241.169	90.62
241.386	18.94
241.603	82.43
241.821	-9.73
242.038	2.56
242.255	53.76
242.472	33.28
242.689	43.52
242.907	16.9
243.124	-22.02
243.341	41.47
243.558	-44.54
243.775	-30.21
243.992	27.14
244.209	70.14
244.426	111.1
244.643	6.66
244.86	37.38
245.078	29.18
245.295	23.04
245.512	43.52
245.729	41.47
245.946	33.28
246.163	55.81
246.38	31.23
246.597	37.38
246.814	59.9
247.031	16.9
247.248	45.57
247.464	2.56
247.681	68.09
247.898	2.56
248.115	64
248.332	27.14
248.549	96.77
248.766	10.75
248.983	68.09
249.2	66.05
249.417	68.09
249.633	47.62
249.85	72.19
250.067	35.33
250.284	35.33
250.501	29.18
250.717	113.15
250.934	35.33
251.151	-62.98
251.368	4.61
251.585	64
251.801	104.96
252.018	-15.87
252.235	84.48
252.451	0.51
252.668	43.52
252.885	-9.73
253.102	-48.64
253.318	66.05
253.535	27.14
253.752	0.51
253.968	27.14
254.185	39.42
254.401	92.67
254.618	41.47
254.835	-32.26
255.051	37.38
255.268	10.75
255.484	37.38
255.701	25.09
255.917	113.15
256.134	49.66
256.351	35.33
256.567	47.62
256.784	-40.45
257	-46.59
257.217	37.38
257.433	16.9
257.65	53.76
257.866	47.62
258.082	64
258.299	76.29
258.515	35.33
258.732	-1.54
258.948	-15.87
259.165	78.33
259.381	57.86
259.597	72.19
259.814	4.61
260.03	27.14
260.246	80.38
260.463	10.75
260.679	82.43
260.895	88.57
261.112	61.95
261.328	39.42
261.544	6.66
261.761	68.09
261.977	47.62
262.193	-7.68
262.409	94.72
262.626	70.14
262.842	39.42
263.058	25.09
263.274	33.28
263.49	6.66
263.707	61.95
263.923	102.91
264.139	2.56
264.355	88.57
264.571	39.42
264.787	16.9
265.004	10.75
265.22	59.9
265.436	49.66
265.652	68.09
265.868	4.61
266.084	2.56
266.3	29.18
266.516	-38.4
266.732	61.95
266.948	-34.3
267.164	86.53
267.38	29.18
267.596	92.67
267.812	2.56
268.028	59.9
268.244	-38.4
268.46	-5.63
268.676	8.7
268.892	80.38
269.108	0.51
269.324	39.42
269.54	51.71
269.756	76.29
269.972	45.57
270.188	-34.3
270.403	-13.82
270.619	6.66
270.835	53.76
271.051	12.8
271.267	-1.54
271.483	-7.68
271.698	53.76
271.914	82.43
272.13	12.8
272.346	10.75
272.562	-38.4
272.777	72.19
272.993	25.09
273.209	64
273.425	2.56
273.64	82.43
273.856	25.09
274.072	-32.26
274.287	29.18
274.503	18.94
274.719	2.56
274.934	29.18
275.15	39.42
275.366	72.19
275.581	-58.88
275.797	61.95
276.012	74.24
276.228	-19.97
276.444	14.85
276.659	49.66
276.875	10.75
277.09	-36.35
277.306	29.18
277.521	25.09
277.737	-5.63
277.952	25.09
278.168	-13.82
278.383	12.8
278.599	23.04
278.814	51.71
279.03	53.76
279.245	-1.54
279.461	-75.26
279.676	49.66
279.892	125.44
280.107	-34.3
280.322	35.33
280.538	88.57
280.753	53.76
280.969	4.61
281.184	12.8
281.399	100.86
281.615	4.61
281.83	51.71
282.045	0.51
282.26	68.09
282.476	10.75
282.691	94.72
282.906	-42.5
283.122	49.66
283.337	6.66
283.552	10.75
283.767	18.94
283.983	25.09
284.198	49.66
284.413	37.38
284.628	117.25
284.843	78.33
285.058	0.51
285.274	45.57
285.489	66.05
285.704	74.24
285.919	-17.92
286.134	96.77
286.349	41.47
286.564	14.85
286.779	-13.82
286.995	41.47
287.21	53.76
287.425	61.95
287.64	0.51
287.855	98.81
288.07	-26.11
288.285	53.76
288.5	92.67
288.715	-44.54
288.93	2.56
289.145	74.24
289.36	57.86
289.575	92.67
289.79	6.66
290.004	2.56
290.219	2.56
290.434	43.52
290.649	43.52
290.864	37.38
291.079	33.28
291.294	-40.45
291.509	-28.16
291.724	39.42
291.938	20.99
292.153	43.52
292.368	33.28
292.583	10.75
292.798	2.56
293.012	31.23
293.227	-50.69
293.442	-34.3
293.657	37.38
293.871	86.53
294.086	35.33
294.301	51.71
294.516	104.96
294.73	-5.63
294.945	-7.68
295.16	70.14
295.374	66.05
295.589	82.43
295.804	6.66
296.018	45.57
296.233	39.42
296.447	-75.26
296.662	12.8
296.877	-1.54
297.091	141.82
297.306	29.18
297.52	10.75
297.735	-13.82
297.949	41.47
298.164	16.9
298.378	76.29
298.593	18.94
298.807	-22.02
299.022	-9.73
299.236	51.71
299.451	-11.78
299.665	14.85
299.88	96.77
300.094	68.09
300.309	39.42
300.523	98.81
300.737	96.77
300.952	137.73
301.166	49.66
301.381	-13.82
301.595	49.66
301.809	68.09
302.024	-1.54
302.238	12.8
302.452	94.72
302.667	18.94
302.881	31.23
303.095	29.18
303.309	68.09
303.524	14.85
303.738	115.2
303.952	20.99
304.166	31.23
304.381	16.9
304.595	41.47
304.809	74.24
305.023	43.52
305.237	41.47
305.452	33.28
305.666	45.57
305.88	127.49
306.094	59.9
306.308	78.33
306.522	12.8
306.736	-9.73
306.95	25.09
307.164	-32.26
307.379	0.51
307.593	88.57
307.807	102.91
308.021	76.29
308.235	117.25
308.449	59.9
308.663	27.14
308.877	43.52
309.091	31.23
309.305	41.47
309.519	41.47
309.733	39.42
309.947	-5.63
310.161	82.43
310.374	31.23
310.588	49.66
310.802	-28.16
311.016	43.52
311.23	84.48
311.444	45.57
311.658	4.61
311.872	-28.16
312.085	43.52
312.299	-30.21
312.513	57.86
312.727	66.05
312.941	2.56
313.154	66.05
313.368	43.52
313.582	14.85
313.796	18.94
314.009	64
314.223	102.91
314.437	68.09
314.651	74.24
314.864	51.71
315.078	-36.35
315.292	119.29
315.505	-40.45
315.719	51.71
315.933	76.29
316.146	16.9
316.36	18.94
316.573	31.23
316.787	80.38
317.001	18.94
317.214	0.51
317.428	18.94
317.641	18.94
317.855	27.14
318.068	45.57
318.282	55.81
318.495	100.86
318.709	100.86
318.922	16.9
319.136	-3.58
319.349	90.62
319.563	78.33
319.776	-28.16
319.99	49.66
320.203	51.71
320.417	2.56
320.63	35.33
320.843	47.62
321.057	31.23
321.27	88.57
321.483	16.9
321.697	80.38
321.91	45.57
322.124	2.56
322.337	66.05
322.55	0.51
322.763	12.8
322.977	49.66
323.19	8.7
323.403	6.66
323.617	45.57
323.83	61.95
324.043	10.75
324.256	-38.4
324.469	-26.11
324.683	25.09
324.896	55.81
325.109	117.25
325.322	-13.82
325.535	80.38
325.748	123.39
325.962	64
326.175	12.8
326.388	39.42
326.601	66.05
326.814	-22.02
327.027	76.29
327.24	66.05
327.453	66.05
327.666	35.33
327.879	98.81
328.092	121.34
328.305	10.75
328.518	72.19
328.731	18.94
328.944	6.66
329.157	10.75
329.37	41.47
329.583	25.09
329.796	59.9
330.009	16.9
330.222	29.18
330.435	18.94
330.648	51.71
330.861	-44.54
331.073	4.61
331.286	78.33
331.499	80.38
331.712	33.28
331.925	41.47
332.138	57.86
332.35	68.09
332.563	76.29
332.776	94.72
332.989	0.51
333.202	-30.21
333.414	12.8
333.627	96.77
333.84	72.19
334.053	-13.82
334.265	8.7
334.478	41.47
334.691	-1.54
334.903	-5.63
335.116	-38.4
335.329	47.62
335.541	76.29
335.754	55.81
335.966	35.33
336.179	8.7
336.392	49.66
336.604	88.57
336.817	4.61
337.029	35.33
337.242	39.42
337.454	43.52
337.667	53.76
337.88	55.81
338.092	16.9
338.305	74.24
338.517	10.75
338.729	35.33
338.942	84.48
339.154	20.99
339.367	18.94
339.579	53.76
339.792	14.85
340.004	45.57
340.217	0.51
340.429	-24.06
340.641	14.85
340.854	20.99
341.066	-28.16
341.278	18.94
341.491	16.9
341.703	55.81
341.915	80.38
342.128	72.19
342.34	113.15
342.552	59.9
342.764	43.52
342.977	33.28
343.189	27.14
343.401	-17.92
343.613	47.62
343.826	29.18
344.038	-3.58
344.25	6.66
344.462	2.56
344.674	55.81
344.886	76.29
345.099	-1.54
345.311	45.57
345.523	33.28
345.735	-3.58
345.947	55.81
346.159	-1.54
346.371	41.47
346.583	84.48
346.795	117.25
347.007	68.09
347.219	102.91
347.431	49.66
347.643	27.14
347.855	92.67
348.067	55.81
348.279	94.72
348.491	4.61
348.703	84.48
348.915	4.61
349.127	88.57
349.339	43.52
349.551	-11.78
349.763	64
349.975	-15.87
350.187	25.09
350.399	76.29
350.61	84.48
350.822	47.62
351.034	53.76
351.246	37.38
351.458	53.76
351.669	53.76
351.881	113.15
352.093	10.75
352.305	49.66
352.517	35.33
352.728	8.7
352.94	96.77
353.152	51.71
353.363	29.18
353.575	43.52
353.787	18.94
353.999	53.76
354.21	104.96
354.422	33.28
354.633	6.66
354.845	12.8
355.057	-11.78
355.268	-52.74
355.48	33.28
355.692	10.75
355.903	-15.87
356.115	78.33
356.326	-24.06
356.538	96.77
356.749	2.56
356.961	96.77
357.172	51.71
357.384	41.47
357.595	55.81
357.807	80.38
358.018	-26.11
358.23	37.38
358.441	68.09
358.653	74.24
358.864	51.71
359.075	57.86
359.287	45.57
359.498	51.71
359.709	37.38
359.921	55.81
360.132	88.57
360.344	64
360.555	4.61
360.766	59.9
360.977	59.9
361.189	35.33
361.4	59.9
361.611	37.38
361.823	39.42
362.034	92.67
362.245	33.28
362.456	14.85
362.667	8.7
362.879	72.19
363.09	25.09
363.301	49.66
363.512	39.42
363.723	33.28
363.935	47.62
364.146	4.61
364.357	33.28
364.568	98.81
364.779	-22.02
364.99	6.66
365.201	-11.78
365.412	107.01
365.623	4.61
365.834	39.42
366.045	43.52
366.256	51.71
366.467	70.14
366.678	72.19
366.889	45.57
367.1	70.14
367.311	0.51
367.522	76.29
367.733	-9.73
367.944	68.09
368.155	82.43
368.366	74.24
368.577	59.9
368.788	55.81
368.999	18.94
369.209	35.33
369.42	135.68
369.631	121.34
369.842	70.14
370.053	33.28
370.264	80.38
370.474	53.76
370.685	76.29
370.896	23.04
371.107	66.05
371.317	61.95
371.528	8.7
371.739	80.38
371.95	39.42
372.16	92.67
372.371	-22.02
372.582	49.66
372.792	66.05
373.003	74.24
373.214	-1.54
373.424	43.52
373.635	4.61
373.846	10.75
374.056	33.28
374.267	92.67
374.477	-5.63
374.688	0.51
374.898	10.75
375.109	43.52
375.319	23.04
375.53	98.81
375.74	-5.63
375.951	51.71
376.161	8.7
376.372	92.67
376.582	43.52
376.793	16.9
377.003	23.04
377.214	12.8
377.424	68.09
377.635	16.9
377.845	6.66
378.055	68.09
378.266	4.61
378.476	59.9
378.686	25.09
378.897	72.19
379.107	74.24
379.317	61.95
379.528	-7.68
379.738	96.77
379.948	-7.68
380.158	76.29
380.369	53.76
380.579	61.95
380.789	70.14
380.999	18.94
381.21	55.81
381.42	74.24
381.63	33.28
381.84	76.29
382.05	82.43
382.261	76.29
382.471	90.62
382.681	76.29
382.891	49.66
383.101	0.51
383.311	6.66
383.521	49.66
383.731	59.9
383.941	68.09
384.151	18.94
384.361	20.99
384.571	70.14
384.781	76.29
384.991	121.34
385.201	80.38
385.411	123.39
385.621	88.57
385.831	86.53
386.041	57.86
386.251	-1.54
386.461	72.19
386.671	25.09
386.881	64
387.091	27.14
387.301	53.76
387.511	-17.92
387.72	82.43
387.93	59.9
388.14	-7.68
388.35	68.09
388.56	20.99
388.769	86.53
388.979	4.61
389.189	-30.21
389.399	51.71
389.609	-24.06
389.818	57.86
390.028	59.9
390.238	59.9
390.447	35.33
390.657	117.25
390.867	64
391.076	29.18
391.286	76.29
391.496	156.16
391.705	133.63
391.915	125.44
392.125	102.91
392.334	61.95
392.544	139.77
392.753	90.62
392.963	82.43
393.172	117.25
393.382	113.15
393.591	27.14
393.801	39.42
394.01	139.77
394.22	117.25
394.429	84.48
394.639	74.24
394.848	139.77
395.058	68.09
395.267	84.48
395.477	82.43
395.686	64
395.895	92.67
396.105	107.01
396.314	125.44
396.524	121.34
396.733	-17.92
396.942	119.29
397.152	31.23
397.361	64
397.57	104.96
397.78	88.57
397.989	145.92
398.198	123.39
398.407	66.05
398.617	68.09
398.826	78.33
399.035	78.33
399.244	98.81
399.453	133.63
399.663	88.57
399.872	207.36
400.081	111.1
400.29	158.21
400.499	68.09
400.708	117.25
400.917	141.82
401.127	143.87
401.336	96.77
401.545	31.23
401.754	80.38
401.963	133.63
402.172	133.63
402.381	76.29
402.59	102.91
402.799	121.34
403.008	121.34
403.217	82.43
403.426	162.3
403.635	109.05
403.844	119.29
404.053	137.73
404.262	94.72
404.471	135.68
404.68	168.45
404.888	109.05
405.097	166.4
405.306	150.01
405.515	170.49
405.724	127.49
405.933	176.64
406.142	195.07
406.35	131.58
406.559	141.82
406.768	209.4
406.977	215.55
407.185	193.02
407.394	246.27
407.603	145.92
407.812	180.73
408.02	209.4
408.229	225.79
408.438	244.22
408.646	170.49
408.855	150.01
409.064	221.69
409.272	186.88
409.481	313.85
409.69	320
409.898	229.88
410.107	244.22
410.315	406.01
410.524	303.61
410.733	281.08
410.941	317.95
411.15	295.42
411.358	279.04
411.567	324.09
411.775	299.52
411.984	320
412.192	377.34
412.401	377.34
412.609	387.58
412.818	492.02
413.026	449.02
413.234	397.82
413.443	483.83
413.651	498.17
413.86	434.68
414.068	489.98
414.276	563.7
414.485	414.2
414.693	539.13
414.901	539.13
415.11	674.29
415.318	600.57
415.526	637.43
415.734	575.99
415.943	739.83
416.151	772.6
416.359	705.01
416.567	737.78
416.776	754.16
416.984	807.41
417.192	805.36
417.4	823.8
417.608	811.51
417.817	844.28
418.025	897.52
418.233	973.3
418.441	952.82
418.649	999.92
418.857	1096.18
419.065	1096.18
419.273	1147.37
419.481	1128.94
419.689	1278.44
419.897	1343.98
420.105	1135.09
420.313	1245.68
420.521	1227.25
420.729	1403.37
420.937	1456.62
421.145	1501.67
421.353	1442.28
421.561	1642.98
421.769	1608.17
421.977	1726.95
422.185	1595.88
422.393	1792.48
422.601	1884.64
422.809	1831.4
423.017	1919.46
423.224	1872.36
423.432	2001.38
423.64	2028
423.848	2253.28
424.056	2124.26
424.263	2382.3
424.471	2376.16
424.679	2453.98
424.887	2580.95
425.094	2656.73
425.302	2615.77
425.51	2722.26
425.718	2789.85
425.925	2873.81
426.133	2916.82
426.341	3138
426.548	3297.74
426.756	3160.53
426.964	3260.88
427.171	3424.72
427.379	3633.61
427.586	3592.65
427.794	3701.19
428.001	4180.42
428.209	4037.06
428.417	4024.77
428.624	4297.15
428.832	4317.63
429.039	4204.99
429.247	4311.49
429.454	4727.22
429.662	4972.98
429.869	4655.54
430.076	5056.95
430.284	4940.21
430.491	5067.19
430.699	5423.53
430.906	5409.2
431.114	5355.95
431.321	5591.47
431.528	5794.22
431.736	6029.73
431.943	6412.7
432.15	6132.13
432.358	6379.93
432.565	6597.02
432.772	6504.86
432.979	6830.49
433.187	7006.61
433.394	7166.35
433.601	7584.14
433.808	7446.93
434.016	7594.38
434.223	7946.63
434.43	8280.45
434.637	8274.31
434.844	8755.58
435.052	8905.08
435.259	8849.78
435.466	8851.83
435.673	8698.24
435.88	9355.63
436.087	10010.98
436.294	9851.24
436.501	9460.08
436.708	9924.97
436.915	10191.2
437.122	10490.21
437.329	10617.18
437.537	11067.74
437.743	11321.68
437.95	10951
438.157	11585.87
438.364	12017.99
438.571	12001.61
438.778	11895.11
438.985	13326.64
439.192	12624.19
439.399	13130.04
439.606	12831.04
439.813	13586.74
440.02	14184.74
440.227	13945.13
440.433	14016.81
440.64	14500.13
440.847	14457.12
441.054	14565.67
441.261	15538.45
441.467	15163.67
441.674	15722.77
441.881	16085.26
442.088	16208.14
442.294	16118.03
442.501	16406.79
442.708	16648.45
442.914	17256.7
443.121	17940.72
443.328	17656.05
443.534	18620.64
443.741	18696.42
443.948	18118.89
444.154	19566.81
444.361	19437.78
444.568	19515.61
444.774	19493.08
444.981	19869.9
445.187	20418.76
445.394	21178.56
445.6	20641.99
445.807	22954.15
446.013	22194.35
446.22	22294.7
446.426	23177.37
446.633	23419.03
446.839	24238.22
447.046	23347.36
447.252	24750.21
447.459	24443.02
447.665	24486.03
447.871	25313.41
448.078	26722.41
448.284	25358.46
448.491	25938.04
448.697	27170.91
448.903	27607.13
449.11	27136.1
449.316	27109.47
449.522	27455.58
449.728	28340.3
449.935	28631.12
450.141	28528.72
450.347	29210.69
450.553	28311.63
450.76	28692.55
450.966	29665.34
451.172	29247.55
451.378	30029.88
451.584	29411.39
451.791	30109.75
451.997	29765.69
452.203	30636.08
452.409	30625.84
452.615	30402.61
452.821	29300.8
453.027	29065.28
453.233	30316.59
453.44	29284.42
453.646	29640.76
453.852	29673.53
454.058	30068.79
454.264	29323.33
454.47	29859.9
454.676	29073.48
454.882	30144.56
455.088	27678.81
455.294	27904.09
455.5	28250.19
455.705	28627.02
455.911	27392.09
456.117	26878.05
456.323	26534
456.529	25292.93
456.735	26116.21
456.941	25503.87
457.147	25239.68
457.352	24395.92
457.558	24064.14
457.764	24064.14
457.97	23826.58
458.176	23337.12
458.381	23208.09
458.587	21825.71
458.793	22266.03
458.999	20670.66
459.204	22235.31
459.41	21930.16
459.616	20191.44
459.821	20224.2
460.027	20242.64
460.233	19917.01
460.438	18895.07
460.644	19087.58
460.85	18084.08
461.055	17983.73
461.261	17688.82
461.466	16597.25
461.672	16046.35
461.878	17432.82
462.083	16154.89
462.289	15825.17
462.494	15522.07
462.7	14905.63
462.905	14614.82
463.111	15122.71
463.316	15315.22
463.522	14524.71
463.727	14666.02
463.932	14815.52
464.138	14522.66
464.343	14786.85
464.549	14082.35
464.754	14663.97
464.959	14424.36
465.165	14729.5
465.37	13873.45
465.575	13484.34
465.781	14178.6
465.986	14123.3
466.191	13498.67
466.397	13275.45
466.602	12636.48
466.807	13238.58
467.012	13437.23
467.218	13007.16
467.423	13017.4
467.628	13246.77
467.833	13506.87
468.038	13060.41
468.244	12851.52
468.449	13197.62
468.654	12810.56
468.859	12781.88
469.064	12757.31
469.269	12130.63
469.474	12212.55
469.679	12601.66
469.885	12325.19
470.09	12345.67
470.295	12163.4
470.5	11780.43
470.705	11893.07
470.91	11635.02
471.115	11462.99
471.32	11919.69
471.525	11729.23
471.73	11508.05
471.935	11436.37
472.139	11088.21
472.344	11215.19
472.549	11045.21
472.754	10922.33
472.959	10588.51
473.164	10375.52
473.369	10396
473.574	10701.15
473.778	10764.64
473.983	10598.75
474.188	10496.35
474.393	10101.09
474.598	9935.21
474.802	9853.29
475.007	9929.06
475.212	10013.03
475.417	9503.09
475.621	9419.12
475.826	9699.69
476.031	9322.87
476.235	9167.22
476.44	9341.3
476.645	9070.97
476.849	9251.19
477.054	8806.78
477.259	8915.32
477.463	8892.79
477.668	8640.89
477.872	8685.95
478.077	8716.67
478.282	8417.66
478.486	8481.15
478.691	8345.98
478.895	8294.79
479.1	8169.86
479.304	8200.58
479.509	8081.8
479.713	8235.39
479.918	8116.61
480.122	7885.19
480.326	7973.25
480.531	8001.93
480.735	7897.48
480.94	7858.57
481.144	8024.45
481.348	7717.26
481.553	7696.78
481.757	7690.63
481.961	7702.92
482.166	7897.48
482.37	7717.26
482.574	7551.37
482.778	7584.14
482.983	7784.84
483.187	7680.39
483.391	7600.52
483.595	7588.24
483.8	7551.37
484.004	7571.85
484.208	7686.54
484.412	7678.35
484.616	7649.68
484.821	7623.05
485.025	7496.08
485.229	7592.33
485.433	7608.72
485.637	7676.3
485.841	7543.18
486.045	7430.54
486.249	7534.99
486.453	7516.56
486.657	7516.56
486.861	7666.06
487.065	7633.29
487.269	7645.58
487.473	7362.96
487.677	7637.39
487.881	7823.75
488.085	7489.93
488.289	7633.29
488.493	7598.48
488.697	7627.15
488.901	7635.34
489.105	7584.14
489.309	7518.61
489.512	7539.08
489.716	7608.72
489.92	7766.41
490.124	7588.24
490.328	7696.78
490.531	7686.54
490.735	7805.32
490.939	7702.92
491.143	7770.51
491.346	7788.94
491.55	7856.52
491.754	7911.82
491.958	8026.5
492.161	7817.61
492.365	8014.21
492.569	8155.52
492.772	7903.62
492.976	8214.91
493.18	8092.04
493.383	8216.96
493.587	8294.79
493.79	8229.25
493.994	8272.26
494.197	8411.52
494.401	8321.41
494.605	8434.05
494.808	8628.6
495.012	8630.65
495.215	8591.74
495.419	8776.06
495.622	8702.33
495.825	8927.61
496.029	8872.31
496.232	9116.02
496.436	8999.29
496.639	9222.52
496.843	9091.45
497.046	9365.87
497.249	9470.32
497.453	9439.6
497.656	9673.07
497.859	9533.81
498.063	9660.78
498.266	9773.42
498.469	9726.32
498.673	9929.06
498.876	10097
499.079	10154.34
499.282	10142.05
499.485	10441.06
499.689	10307.94
499.892	10668.38
500.095	10588.51
500.298	10758.49
500.501	10742.11
500.705	11065.69
500.908	11188.57
501.111	11290.96
501.314	11315.54
501.517	11413.84
501.72	11762
501.923	11524.43
502.126	11944.27
502.329	11981.13
502.532	11997.51
502.735	12136.77
502.938	12349.76
503.141	12345.67
503.344	12751.17
503.547	12654.91
503.75	12945.72
503.953	13109.56
504.156	13265.21
504.359	13314.36
504.562	13140.28
504.765	13895.98
504.968	13818.16
505.17	13943.08
505.373	13908.27
505.576	14078.25
505.779	14389.54
505.982	14489.89
506.185	14690.59
506.387	14631.2
506.59	14811.42
506.793	15075.61
506.996	15028.51
507.198	15606.03
507.401	15194.39
507.604	15591.7
507.807	15583.51
508.009	15804.69
508.212	15882.51
508.415	16138.51
508.617	16371.97
508.82	16738.56
509.022	16271.62
509.225	16967.93
509.428	16945.41
509.63	17010.94
509.833	17004.8
510.035	17846.51
510.238	17492.21
510.44	17713.39
510.643	17703.15
510.845	18178.28
511.048	17854.7
511.25	18309.35
511.453	18536.68
511.655	19106.01
511.858	18819.3
512.06	19050.72
512.262	19392.73
512.465	19030.24
512.667	19282.14
512.87	19781.84
513.072	19550.42
513.274	20201.68
513.477	20484.3
513.679	20523.21
513.881	20922.56
514.084	20979.9
514.286	20793.54
514.488	20945.09
514.69	21692.6
514.893	21756.08
515.095	21665.97
515.297	21921.97
515.499	21934.26
515.701	22116.53
515.904	22538.41
516.106	22429.87
516.308	22636.71
516.51	23165.09
516.712	23060.64
516.914	23400.6
517.116	23781.53
517.318	23693.46
517.52	23656.6
517.722	23873.68
517.925	24438.92
518.127	24311.95
518.329	24572.04
518.531	24602.76
518.733	25155.71
518.935	25071.75
519.136	25202.82
519.338	25706.62
519.54	25481.34
519.742	25831.54
519.944	25802.87
520.146	26083.44
520.348	26278
520.55	26570.86
520.752	26447.98
520.954	27033.7
521.155	26585.19
521.357	27132
521.559	27349.09
521.761	27514.97
521.963	27672.67
522.164	27678.81
522.366	27904.09
522.568	28117.07
522.77	28381.26
522.971	28887.11
523.173	28532.81
523.375	28721.23
523.576	28604.49
523.778	28729.42
523.98	29433.92
524.181	29837.37
524.383	29622.33
524.584	29284.42
524.786	30021.69
524.988	29517.89
525.189	30009.4
525.391	30167.09
525.592	30404.66
525.794	30462
525.995	30519.34
526.197	30410.8
526.398	30842.92
526.6	31060.01
526.801	30793.77
527.003	30838.83
527.204	31244.32
527.406	31391.78
527.607	31213.6
527.808	31850.52
528.01	31176.74
528.211	31297.57
528.412	31928.34
528.614	31754.27
528.815	31856.67
529.016	32083.99
529.218	31633.44
529.419	32069.65
529.62	31952.92
529.822	31903.77
530.023	32030.74
530.224	32403.47
530.425	32167.96
530.626	31639.58
530.828	32028.7
531.029	32743.44
531.23	32481.3
531.431	32092.18
531.632	32536.59
531.833	32630.8
532.035	32731.15
532.236	32526.35
532.437	32825.36
532.638	32763.92
532.839	32786.44
533.04	33021.96
533.241	32372.75
533.442	33538.05
533.643	32923.66
533.844	32722.96
534.045	32667.66
534.246	32653.33
534.447	33093.64
534.648	32956.43
534.849	33060.87
535.05	32706.57
535.251	32798.73
535.451	32550.93
535.652	33200.13
535.853	32653.33
536.054	32927.75
536.255	32798.73
536.456	32561.17
536.657	33361.92
536.857	32745.48
537.058	33067.02
537.259	33146.89
537.46	32739.34
537.66	32788.49
537.861	33062.92
538.062	32530.45
538.263	32923.66
538.463	32911.37
538.664	32925.71
538.865	33118.21
539.065	33044.49
539.266	32530.45
539.466	33181.7
539.667	32309.27
539.868	33069.06
540.068	32753.68
540.269	33005.58
540.469	32901.13
540.67	32520.21
540.87	32823.31
541.071	32671.76
541.271	32747.53
541.472	32747.53
541.672	32923.66
541.873	32837.64
542.073	32593.93
542.274	32751.63
542.474	32600.08
542.675	32751.63
542.875	32929.8
543.075	32798.73
543.276	32550.93
543.476	32931.85
543.676	32890.89
543.877	32755.72
544.077	32434.19
544.277	32923.66
544.478	32538.64
544.678	32661.52
544.878	32591.89
545.078	32942.09
545.279	32514.06
545.479	32561.17
545.679	32550.93
545.879	32266.26
546.079	32770.06
546.28	32653.33
546.48	32419.86
546.68	33060.87
546.88	32626.7
547.08	32784.4
547.28	32274.45
547.48	32335.89
547.68	32661.52
547.88	32305.17
548.081	32534.54
548.281	32520.21
548.481	32374.8
548.681	32339.99
548.881	32475.15
549.081	32133.14
549.28	32452.62
549.48	32354.32
549.68	32456.72
549.88	33056.78
550.08	31739.93
550.28	32286.74
550.48	32229.4
550.68	32339.99
550.88	32124.95
551.08	32538.64
551.279	32585.74
551.479	32221.2
551.679	32170.01
551.879	32587.79
552.079	32733.2
552.278	32434.19
552.478	31901.72
552.678	32135.19
552.878	32335.89
553.077	32004.12
553.277	31873.05
553.477	32382.99
553.676	32102.42
553.876	32024.6
554.076	32028.7
554.275	31946.78
554.475	31606.81
554.674	32344.08
554.874	32317.46
555.074	31936.54
555.273	31821.85
555.473	32106.52
555.672	32012.31
555.872	32122.9
556.071	31813.66
556.271	31887.39
556.47	31977.5
556.67	31531.04
556.869	31522.85
557.068	31584.29
557.268	31653.92
557.467	31696.92
557.667	31549.47
557.866	31787.03
558.065	31778.84
558.265	31293.47
558.464	31369.25
558.663	31655.96
558.863	31060.01
559.062	31664.16
559.261	31395.87
559.461	31711.26
559.66	31148.07
559.859	31348.77
560.058	30822.44
560.258	31260.71
560.457	30982.18
560.656	31254.56
560.855	31098.92
561.054	30847.02
561.253	30988.33
561.453	31002.66
561.652	30855.21
561.851	30937.13
562.05	30537.77
562.249	30394.42
562.448	30834.73
562.647	30679.08
562.846	30939.18
563.045	30556.21
563.244	30425.14
563.443	30554.16
563.642	30019.64
563.841	30464.05
564.04	30181.43
564.239	30378.03
564.438	29980.73
564.637	30244.91
564.836	30437.42
565.035	29843.51
565.234	30398.51
565.432	29642.81
565.631	29898.81
565.83	29773.88
566.029	29937.72
566.228	29857.85
566.427	29663.29
566.625	29505.6
566.824	29241.41
567.023	29909.05
567.222	29243.46
567.42	29724.73
567.619	29292.61
567.818	29390.91
568.016	29065.28
568.215	29489.21
568.414	28938.31
568.612	29399.1
568.811	29159.49
569.01	28938.31
569.208	28586.06
569.407	28969.03
569.605	28543.05
569.804	29175.87
570.002	28510.28
570.201	28727.37
570.4	28387.41
570.598	28364.88
570.797	28287.06
570.995	28727.37
571.193	28467.28
571.392	28778.57
571.59	28055.64
571.789	28379.21
571.987	28237.91
572.186	27687
572.384	27973.72
572.582	28041.3
572.781	28242
572.979	27588.7
573.177	27748.44
573.376	27730.01
573.574	27703.39
573.772	27973.72
573.971	27306.08
574.169	27416.67
574.367	27392.09
574.565	27175.01
574.763	27129.95
574.962	27351.13
575.16	26763.37
575.358	27222.11
575.556	26820.71
575.754	26962.02
575.952	26826.85
576.151	27080.8
576.349	26605.67
576.547	26792.04
576.745	26912.87
576.943	26753.13
577.141	26536.04
577.339	26560.62
577.537	26652.78
577.735	26615.91
577.933	26056.82
578.131	26296.43
578.329	26282.09
578.527	25999.48
578.725	26323.05
578.923	26191.98
579.121	26093.68
579.319	25948.28
579.516	25956.47
579.714	26089.59
579.912	25677.94
580.11	25651.32
580.308	25860.21
580.506	25696.38
580.704	25061.51
580.901	25557.11
581.099	25933.94
581.297	25553.02
581.495	25155.71
581.692	25243.77
581.89	25129.09
582.088	25266.3
582.285	25026.69
582.483	24887.43
582.681	25143.42
582.878	24950.92
583.076	24987.78
583.274	24903.81
583.471	24447.11
583.669	24901.76
583.866	24381.58
584.064	24785.03
584.262	24219.79
584.459	24524.94
584.657	24207.5
584.854	24447.11
585.052	24154.26
585.249	24283.28
585.447	24297.61
585.644	23945.36
585.841	23918.74
586.039	24203.41
586.236	24006.8
586.434	23836.82
586.631	23744.66
586.828	23914.64
587.026	23791.76
587.223	23638.17
587.42	23500.95
587.618	23261.34
587.815	23388.32
588.012	23011.49
588.21	22970.53
588.407	23216.29
588.604	22962.34
588.801	23038.11
588.999	22984.87
589.196	23044.26
589.393	23011.49
589.59	23259.29
589.787	22792.36
589.984	22642.85
590.182	22288.56
590.379	22667.43
590.576	22306.99
590.773	22556.84
590.97	22360.23
591.167	22352.04
591.364	22147.25
591.561	22485.16
591.758	21848.24
591.955	22266.03
592.152	22378.67
592.349	22040.75
592.546	21954.74
592.743	21819.57
592.94	21543.1
593.137	21803.19
593.334	21780.66
593.531	21518.52
593.727	21663.93
593.924	21543.1
594.121	21401.79
594.318	21289.15
594.515	21180.6
594.712	21551.29
594.908	21156.03
595.105	21401.79
595.302	21063.87
595.499	21027.01
595.696	21027.01
595.892	20773.06
596.089	21012.67
596.286	20824.26
596.482	20928.7
596.679	20730.05
596.876	20803.78
597.072	20420.81
597.269	20617.41
597.466	20408.52
597.662	20248.78
597.859	20273.35
598.055	20562.12
598.252	20013.26
598.448	20084.94
598.645	20107.47
598.841	19824.85
599.038	20050.13
599.234	20041.93
599.431	19652.82
599.627	20019.41
599.824	19876.05
600.02	19546.33
600.217	19622.1
600.413	19407.06
600.609	19411.16
600.806	19503.32
601.002	19226.84
601.198	19273.95
601.395	19448.02
601.591	19063.01
601.787	19493.08
601.984	19136.73
602.18	19292.38
602.376	18958.56
602.572	19189.98
602.769	18985.18
602.965	18776.29
603.161	18839.78
603.357	18682.08
603.553	18393.32
603.75	18409.7
603.946	18501.86
604.142	18458.85
604.338	18317.54
604.534	18608.36
604.73	18407.66
604.926	18282.73
605.122	18405.61
605.318	18004.21
605.514	18186.47
605.71	18249.96
605.906	18073.84
606.102	18163.95
606.298	18041.07
606.494	17828.08
606.69	17856.75
606.886	17944.81
607.082	17578.23
607.278	17866.99
607.474	17649.91
607.67	17576.18
607.866	17447.16
608.062	17832.18
608.257	17697.01
608.453	17447.16
608.649	17316.09
608.845	17344.76
609.041	17332.47
609.236	17066.24
609.432	17320.18
609.628	17195.26
609.824	17264.89
610.019	17367.29
610.215	17275.13
610.411	17316.09
610.606	17037.56
610.802	17178.87
610.998	17166.59
611.193	17174.78
611.389	16875.77
611.584	16834.82
611.78	16865.53
611.976	16908.54
612.171	16804.1
612.367	16959.74
612.562	16789.76
612.758	16474.37
612.953	16550.15
613.149	16920.83
613.344	16677.12
613.539	16728.32
613.735	16603.39
613.93	16709.89
614.126	16646.4
614.321	16566.53
614.517	16224.52
614.712	16437.51
614.907	16371.97
615.103	16623.87
615.298	16234.76
615.493	16419.08
615.688	16091.4
615.884	16535.81
616.079	16193.8
616.274	16376.07
616.47	16163.08
616.665	16308.49
616.86	16087.31
617.055	16052.49
617.25	15933.71
617.445	16046.35
617.641	15835.41
617.836	15970.57
618.031	15462.68
618.226	16118.03
618.421	15700.24
618.616	16161.03
618.811	15540.5
619.006	15905.04
619.201	15571.22
619.396	15503.64
619.591	15460.63
619.786	15343.89
619.981	15393.05
620.176	15558.93
620.371	15114.52
620.566	15352.09
620.761	15458.58
620.956	15051.03
621.151	14813.47
621.346	14934.3
621.541	14768.41
621.735	14801.18
621.93	14645.54
622.125	14778.65
622.32	14256.42
622.515	14723.36
622.709	14420.26
622.904	14334.25
623.099	14367.01
623.294	14369.06
623.488	13941.04
623.683	14201.13
623.878	14049.58
624.072	14090.54
624.267	13775.15
624.462	13816.11
624.656	13713.71
624.851	13783.34
625.046	13580.59
625.24	13470
625.435	13408.56
625.629	13521.2
625.824	13345.08
626.018	13498.67
626.213	13136.18
626.407	12937.53
626.602	12865.85
626.796	13041.98
626.991	13060.41
627.185	12826.94
627.38	12593.47
627.574	12626.24
627.768	12622.14
627.963	12679.49
628.157	12310.85
628.352	12265.8
628.546	12306.76
628.74	12233.03
628.935	12124.49
629.129	12468.55
629.323	11772.24
629.517	12069.19
629.712	12038.47
629.906	11766.09
630.1	11706.7
630.294	11755.85
630.489	11614.54
630.683	11682.13
630.877	11452.75
631.071	11417.94
631.265	11663.69
631.459	11419.99
631.653	11422.03
631.848	11323.73
632.042	11235.67
632.236	11174.23
632.43	10922.33
632.624	11137.37
632.818	11112.79
633.012	11022.68
633.206	11014.49
633.4	10981.72
633.594	10666.33
633.788	10944.86
633.982	10725.72
634.176	10838.36
634.369	10496.35
634.563	10559.84
634.757	10369.38
634.951	10701.15
635.145	10568.03
635.339	10291.55
635.533	10256.74
635.726	10281.32
635.92	9806.19
636.114	10131.81
636.308	9984.36
636.501	9888.11
636.695	10006.89
636.889	9933.16
637.083	9732.46
637.276	9630.06
637.47	9865.58
637.664	9734.51
637.857	9742.7
638.051	9521.52
638.244	9492.85
638.438	9529.71
638.632	9560.43
638.825	9269.62
639.019	9253.23
639.212	9390.45
639.406	9343.35
639.599	9249.14
639.793	9144.69
639.986	9154.93
640.18	9230.71
640.373	9021.81
640.567	8841.59
640.76	9021.81
640.954	8704.38
641.147	8759.67
641.34	8765.82
641.534	8581.5
641.727	8909.18
641.92	8636.8
642.114	8642.94
642.307	8563.07
642.5	8628.6
642.694	8214.91
642.887	8286.59
643.08	8483.2
643.273	8429.95
643.467	8229.25
643.66	8286.59
643.853	8251.78
644.046	8171.91
644.239	8188.29
644.432	8065.41
644.626	8255.87
644.819	8075.65
645.012	8016.26
645.205	7762.31
645.398	7885.19
645.591	7727.5
645.784	7874.95
645.977	7768.46
646.17	7707.02
646.363	7729.55
646.556	7647.63
646.749	7625.1
646.942	7614.86
647.135	7559.56
647.328	7510.41
647.521	7348.62
647.714	7389.58
647.907	7604.62
648.099	7238.03
648.292	7444.88
648.485	7281.04
648.678	7207.31
648.871	7258.51
649.064	7109.01
649.256	7158.16
649.449	6996.37
649.642	7106.96
649.835	6898.07
650.027	7004.57
650.22	6836.63
650.413	6652.31
650.605	6953.37
650.798	6861.21
650.991	6728.09
651.183	6701.47
651.376	6834.58
651.568	6750.62
651.761	6683.03
651.954	6580.64
652.146	6635.93
652.339	6668.7
652.531	6441.37
652.724	6523.29
652.916	6480.29
653.109	6513.05
653.301	6285.73
653.494	6451.61
653.686	6267.3
653.879	6236.58
654.071	6398.37
654.263	6404.51
654.456	6054.31
654.648	6119.84
654.84	6142.37
655.033	5994.92
655.225	6005.16
655.417	5956.01
655.61	6025.64
655.802	6027.68
655.994	5990.82
656.186	5747.11
656.379	5847.46
656.571	5902.76
656.763	5781.93
656.955	5753.26
657.148	5726.63
657.34	5687.72
657.532	5773.74
657.724	5691.82
657.916	5609.9
658.108	5575.08
658.3	5517.74
658.492	5652.91
658.684	5757.35
658.876	5554.6
659.068	5437.87
659.26	5446.06
659.452	5595.56
659.644	5261.74
659.836	5288.37
660.028	5269.94
660.22	5224.88
660.412	5251.5
660.604	5159.35
660.796	5247.41
660.988	5204.4
661.18	5226.93
661.372	5114.29
661.563	5138.87
661.755	5241.26
661.947	5106.1
662.139	5106.1
662.331	5024.18
662.522	4975.03
662.714	4999.6
662.906	5032.37
663.097	4985.27
663.289	4862.39
663.481	4805.05
663.673	4817.33
663.864	4829.62
664.056	4864.44
664.247	4835.77
664.439	4489.66
664.631	4733.37
664.822	4833.72
665.014	4798.9
665.205	4753.85
665.397	4512.19
665.588	4676.02
665.78	4637.11
665.971	4692.41
666.163	4544.95
666.354	4696.5
666.546	4792.76
666.737	4540.86
666.929	4368.83
667.12	4422.08
667.311	4473.28
667.503	4483.52
667.694	4383.17
667.885	4407.74
668.077	4266.43
668.268	4327.87
668.459	4188.61
668.651	4440.51
668.842	4360.64
669.033	4209.09
669.224	4262.33
669.416	4288.96
669.607	4254.14
669.798	4159.94
669.989	4301.25
670.18	4329.92
670.371	4172.22
670.563	3983.81
670.754	4174.27
670.945	4069.83
671.136	4184.51
671.327	4075.97
671.518	4063.68
671.709	4098.5
671.9	4090.31
672.091	4045.25
672.282	3949
672.473	4041.15
672.664	3803.59
672.855	4182.46
673.046	3918.28
673.237	3951.04
673.428	3922.37
673.619	3953.09
673.809	3965.38
674	3862.98
674.191	3752.39
674.382	3871.17
674.573	3840.45
674.764	3783.11
674.954	3860.93
675.145	3779.01
675.336	3791.3
675.527	3815.88
675.717	3703.24
675.908	3654.09
676.099	3705.29
676.289	3817.93
676.48	3766.73
676.671	3615.18
676.861	3611.08
677.052	3643.85
677.243	3721.67
677.433	3508.68
677.624	3766.73
677.814	3717.58
678.005	3555.79
678.195	3647.94
678.386	3723.72
678.576	3506.63
678.767	3678.66
678.957	3615.18
679.148	3549.64
679.338	3606.98
679.529	3441.1
679.719	3615.18
679.909	3658.18
680.1	3525.07
680.29	3606.98
680.481	3465.68
680.671	3469.77
680.861	3457.48
681.052	3451.34
681.242	3430.86
681.432	3414.48
681.622	3461.58
681.813	3439.05
682.003	3371.47
682.193	3518.92
682.383	3318.22
682.573	3467.72
682.764	3373.52
682.954	3299.79
683.144	3328.46
683.334	3418.57
683.524	3252.69
683.714	3365.32
683.904	3285.45
684.094	3447.24
684.284	3404.24
684.474	3408.33
684.664	3275.21
684.854	3357.13
685.044	3340.75
685.234	3242.45
685.424	3363.28
685.614	3178.96
685.804	3170.77
685.994	3310.03
686.184	3260.88
686.374	3277.26
686.564	3199.44
686.753	3156.43
686.943	3201.49
687.133	3082.7
687.323	3109.33
687.513	3135.95
687.702	3078.61
687.892	3035.6
688.082	3115.47
688.272	3090.9
688.461	3090.9
688.651	3037.65
688.841	2978.26
689.03	3025.36
689.22	3086.8
689.41	3047.89
689.599	2914.77
689.789	3105.23
689.979	2888.15
690.168	2957.78
690.358	2957.78
690.547	2955.73
690.737	2841.04
690.926	2812.37
691.116	2849.24
691.305	2855.38
691.495	2761.17
691.684	2789.85
691.874	2703.83
692.063	2734.55
692.252	2656.73
692.442	2709.97
692.631	2720.21
692.82	2687.45
693.01	2656.73
693.199	2638.3
693.388	2542.04
693.578	2658.78
693.767	2742.74
693.956	2550.23
694.146	2671.06
694.335	2658.78
694.524	2552.28
694.713	2521.56
694.902	2585.05
695.092	2542.04
695.281	2570.71
695.47	2564.57
695.659	2458.07
695.848	2443.74
696.037	2519.51
696.226	2468.31
696.415	2378.2
696.604	2431.45
696.793	2329.05
696.982	2503.13
697.171	2482.65
697.36	2384.35
697.549	2345.44
697.738	2269.66
697.927	2339.29
698.116	2365.92
698.305	2308.57
698.494	2304.48
698.683	2339.29
698.872	2337.24
699.061	2367.96
699.25	2247.13
699.438	2277.85
699.627	2382.3
699.816	2376.16
700.005	2318.81
700.193	2284
700.382	2197.98
700.571	2306.52
700.76	2224.61
700.948	2243.04
701.137	2163.17
701.326	2173.41
701.514	2173.41
701.703	2337.24
701.892	2230.75
702.08	2275.81
702.269	2236.89
702.457	2216.41
702.646	2230.75
702.834	2286.05
703.023	2107.87
703.212	2148.83
703.4	2163.17
703.589	2097.63
703.777	2214.37
703.965	2136.54
704.154	2154.98
704.342	2232.8
704.531	2140.64
704.719	2068.96
704.907	2304.48
705.096	2267.61
705.284	2144.74
705.472	2185.69
705.661	2200.03
705.849	2148.83
706.037	2103.78
706.226	2228.7
706.414	2210.27
706.602	2109.92
706.79	2085.34
706.979	2165.21
707.167	2107.87
707.355	2148.83
707.543	2216.41
707.731	2181.6
707.919	2099.68
708.107	2228.7
708.296	2126.3
708.484	2212.32
708.672	2118.11
708.86	2200.03
709.048	2140.64
709.236	2193.89
709.424	2161.12
709.612	2187.74
709.8	2177.5
709.988	2128.35
710.176	2152.93
710.364	2159.07
710.551	2048.48
710.739	2240.99
710.927	2206.17
711.115	2220.51
711.303	2132.45
711.491	2120.16
711.679	2187.74
711.866	2175.45
712.054	2122.21
712.242	2099.68
712.43	2263.52
712.617	2163.17
712.805	2171.36
712.993	2269.66
713.181	2310.62
713.368	2095.58
713.556	2187.74
713.744	2157.02
713.931	2173.41
714.119	2302.43
714.306	2171.36
714.494	2228.7
714.682	2202.08
714.869	2122.21
715.057	2150.88
715.244	2144.74
715.432	2189.79
715.619	2327
715.807	2148.83
715.994	2150.88
716.182	2146.78
716.369	2228.7
716.556	2183.65
716.744	2187.74
716.931	2240.99
717.119	2320.86
717.306	2169.31
717.493	2214.37
717.681	2191.84
717.868	2148.83
718.055	2132.45
718.242	2169.31
718.43	2288.09
718.617	2335.2
718.804	2132.45
718.991	2306.52
719.179	2300.38
719.366	2222.56
719.553	2240.99
719.74	2197.98
719.927	2230.75
720.114	2167.26
720.301	2372.06
720.488	2204.13
720.676	2288.09
720.863	2226.65
721.05	2279.9
721.237	2296.28
721.424	2146.78
721.611	2179.55
721.798	2238.94
721.985	2284
722.172	2232.8
722.358	2288.09
722.545	2370.01
722.732	2197.98
722.919	2300.38
723.106	2304.48
723.293	2359.77
723.48	2339.29
723.667	2306.52
723.853	2255.33
724.04	2370.01
724.227	2290.14
724.414	2402.78
724.6	2351.58
724.787	2277.85
724.974	2329.05
725.161	2402.78
725.347	2206.17
725.534	2501.08
725.72	2228.7
725.907	2435.55
726.094	2386.4
726.28	2406.88
726.467	2374.11
726.653	2302.43
726.84	2365.92
727.027	2386.4
727.213	2292.19
727.4	2193.89
727.586	2304.48
727.773	2292.19
727.959	2273.76
728.145	2308.57
728.332	2337.24
728.518	2361.82
728.705	2363.87
728.891	2370.01
729.077	2390.49
729.264	2253.28
729.45	2351.58
729.636	2404.83
729.823	2386.4
730.009	2300.38
730.195	2318.81
730.382	2402.78
730.568	2324.96
730.754	2460.12
730.94	2271.71
731.126	2370.01
731.313	2460.12
731.499	2429.4
731.685	2318.81
731.871	2267.61
732.057	2378.2
732.243	2238.94
732.429	2318.81
732.615	2458.07
732.801	2376.16
732.987	2327
733.173	2388.44
733.359	2349.53
733.545	2392.54
733.731	2376.16
733.917	2322.91
734.103	2480.6
734.289	2331.1
734.475	2339.29
734.661	2374.11
734.847	2247.13
735.033	2359.77
735.219	2341.34
735.404	2316.76
735.59	2286.05
735.776	2269.66
735.962	2470.36
736.148	2306.52
736.333	2419.16
736.519	2388.44
736.705	2425.31
736.89	2378.2
737.076	2197.98
737.262	2333.15
737.447	2400.73
737.633	2279.9
737.819	2253.28
738.004	2296.28
738.19	2408.92
738.375	2335.2
738.561	2300.38
738.747	2255.33
738.932	2193.89
739.118	2441.69
739.303	2370.01
739.489	2206.17
739.674	2255.33
739.859	2224.61
740.045	2191.84
740.23	2234.85
740.416	2218.46
740.601	2339.29
740.786	2324.96
740.972	2148.83
741.157	2154.98
741.342	2197.98
741.528	2255.33
741.713	2255.33
741.898	2204.13
742.084	2220.51
742.269	2202.08
742.454	2101.73
742.639	2374.11
742.824	2214.37
743.01	2152.93
743.195	2251.23
743.38	2163.17
743.565	2138.59
743.75	2214.37
743.935	2036.19
744.12	2130.4
744.305	2048.48
744.49	1962.47
744.675	2052.58
744.86	2138.59
745.045	2075.1
745.23	2058.72
745.415	2003.43
745.6	2019.81
745.785	1993.19
745.97	2071.01
746.155	2042.34
746.34	1952.23
746.525	2023.91
746.71	1993.19
746.895	1982.95
747.079	1984.99
747.264	1872.36
747.449	1941.99
747.634	1966.56
747.819	1939.94
748.003	1825.25
748.188	1890.79
748.373	1882.6
748.557	1909.22
748.742	1892.84
748.927	1810.92
749.111	1827.3
749.296	1855.97
749.481	1804.77
749.665	1839.59
749.85	1864.16
750.034	1688.04
750.219	1700.33
750.404	1710.57
750.588	1706.47
750.773	1655.27
750.957	1784.29
751.141	1692.13
751.326	1745.38
751.51	1614.31
751.695	1698.28
751.879	1614.31
752.064	1698.28
752.248	1577.45
752.432	1702.37
752.617	1626.6
752.801	1628.65
752.985	1579.5
753.17	1669.61
753.354	1567.21
753.538	1599.98
753.722	1595.88
753.907	1458.67
754.091	1489.39
754.275	1542.63
754.459	1565.16
754.643	1458.67
754.828	1509.86
755.012	1489.39
755.196	1516.01
755.38	1475.05
755.564	1440.23
755.748	1386.99
755.932	1386.99
756.116	1479.15
756.3	1395.18
756.484	1444.33
756.668	1487.34
756.852	1364.46
757.036	1346.03
757.22	1298.92
757.404	1303.02
757.588	1311.21
757.772	1358.32
757.956	1477.1
758.14	1300.97
758.323	1198.57
758.507	1329.64
758.691	1223.15
758.875	1235.44
759.059	1294.83
759.242	1323.5
759.426	1282.54
759.61	1229.29
759.794	1278.44
759.977	1194.48
760.161	1313.26
760.345	1196.53
760.528	1231.34
760.712	1219.05
760.895	1260.01
761.079	1126.89
761.263	1163.76
761.446	1276.4
761.63	1237.49
761.813	1194.48
761.997	1229.29
762.18	1163.76
762.364	1171.95
762.547	1133.04
762.731	1182.19
762.914	1061.36
763.098	1122.8
763.281	1092.08
763.464	1049.07
763.648	1077.74
763.831	1157.61
764.015	1141.23
764.198	983.54
764.381	1059.31
764.564	1087.98
764.748	1042.93
764.931	1026.54
765.114	1006.06
765.297	1051.12
765.481	1061.36
765.664	1032.69
765.847	983.54
766.03	1159.66
766.213	1012.21
766.397	1010.16
766.58	938.48
766.763	1042.93
766.946	1040.88
767.129	1036.78
767.312	989.68
767.495	995.82
767.678	1024.5
767.861	1022.45
768.044	969.2
768.227	1036.78
768.41	1030.64
768.593	952.82
768.776	967.15
768.959	969.2
769.142	952.82
769.324	872.95
769.507	1067.5
769.69	950.77
769.873	924.15
770.056	928.24
770.239	1042.93
770.421	901.62
770.604	897.52
770.787	827.89
770.97	874.99
771.152	922.1
771.335	950.77
771.518	967.15
771.7	913.91
771.883	850.42
772.066	907.76
772.248	879.09
772.431	825.84
772.613	887.28
772.796	866.8
772.978	940.53
773.161	834.04
773.343	868.85
773.526	895.47
773.708	793.08
773.891	846.32
774.073	805.36
774.256	829.94
774.438	872.95
774.621	754.16
774.803	868.85
774.985	715.25
775.168	805.36
775.35	696.82
775.532	754.16
775.715	717.3
775.897	774.64
776.079	827.89
776.261	768.5
776.444	696.82
776.626	690.68
776.808	743.92
776.99	748.02
777.173	768.5
777.355	719.35
777.537	776.69
777.719	786.93
777.901	682.49
778.083	739.83
778.265	649.72
778.447	770.55
778.629	696.82
778.811	594.42
778.993	711.16
779.175	727.54
779.357	629.24
779.539	639.48
779.721	772.6
779.903	616.95
780.085	633.33
780.267	643.57
780.449	635.38
780.631	657.91
780.812	610.81
780.994	629.24
781.176	631.29
781.358	586.23
781.54	653.81
781.721	592.37
781.903	619
782.085	657.91
782.267	559.61
782.448	565.75
782.63	639.48
782.812	633.33
782.993	580.09
783.175	569.85
783.357	471.54
783.538	522.74
783.72	526.84
783.901	551.42
784.083	492.02
784.264	561.66
784.446	467.45
784.627	492.02
784.809	516.6
784.99	475.64
785.172	532.98
785.353	541.18
785.535	465.4
785.716	461.3
785.897	426.49
786.079	500.22
786.26	424.44
786.441	473.59
786.623	397.82
786.804	530.94
786.985	479.74
787.167	479.74
787.348	512.5
787.529	449.02
787.71	436.73
787.891	461.3
788.073	436.73
788.254	496.12
788.435	352.76
788.616	403.96
788.797	360.95
788.978	358.91
789.159	397.82
789.34	442.87
789.522	467.45
789.703	477.69
789.884	387.58
790.065	444.92
790.246	455.16
790.427	285.18
790.607	446.97
790.788	332.28
790.969	367.1
791.15	379.39
791.331	350.71
791.512	307.71
791.693	326.14
791.874	305.66
792.054	438.78
792.235	342.52
792.416	301.56
792.597	389.63
792.778	326.14
792.958	391.67
793.139	352.76
793.32	307.71
793.5	303.61
793.681	297.47
793.862	379.39
794.042	334.33
794.223	244.22
794.404	340.47
794.584	354.81
794.765	369.15
794.945	287.23
795.126	385.53
795.306	338.43
795.487	332.28
795.667	320
795.848	326.14
796.028	326.14
796.209	315.9
796.389	305.66
796.57	305.66
796.75	238.08
796.93	320
797.111	254.46
797.291	317.95
797.471	307.71
797.652	367.1
797.832	207.36
798.012	303.61
798.192	315.9
798.373	285.18
798.553	256.51
798.733	260.6
798.913	195.07
799.093	317.95
799.274	250.36
799.454	219.64
799.634	336.38
799.814	311.8
799.994	268.8
800.174	342.52
800.354	223.74
800.534	272.89
800.714	287.23
800.894	250.36
801.074	260.6
801.254	147.97
801.434	162.3
801.614	264.7
801.794	252.41
801.974	584.18
802.154	233.98
802.334	221.69
802.514	291.32
802.693	229.88
802.873	260.6
803.053	260.6
803.233	219.64
803.413	240.12
803.592	256.51
803.772	154.11
803.952	254.46
804.131	174.59
804.311	231.93
804.491	268.8
804.67	240.12
804.85	272.89
805.03	225.79
805.209	279.04
805.389	285.18
805.568	188.93
805.748	248.32
805.928	199.16
806.107	229.88
806.287	238.08
806.466	162.3
806.646	231.93
806.825	227.84
807.004	233.98
807.184	174.59
807.363	207.36
807.543	182.78
807.722	219.64
807.901	197.12
808.081	203.26
808.26	190.97
808.439	186.88
808.619	219.64
808.798	203.26
808.977	209.4
809.156	227.84
809.336	188.93
809.515	279.04
809.694	197.12
809.873	274.94
810.052	207.36
810.231	162.3
810.411	256.51
810.59	246.27
810.769	223.74
810.948	166.4
811.127	137.73
811.306	254.46
811.485	203.26
811.664	246.27
811.843	150.01
812.022	205.31
812.201	205.31
812.38	170.49
812.559	135.68
812.737	180.73
812.916	205.31
813.095	141.82
813.274	113.15
813.453	131.58
813.632	195.07
813.811	145.92
813.989	201.21
814.168	90.62
814.347	223.74
814.526	133.63
814.704	199.16
814.883	197.12
815.062	199.16
815.24	119.29
815.419	178.69
815.598	150.01
815.776	115.2
815.955	100.86
816.133	158.21
816.312	117.25
816.49	188.93
816.669	119.29
816.847	186.88
817.026	117.25
817.204	246.27
817.383	188.93
817.561	129.53
817.74	188.93
817.918	109.05
818.097	113.15
818.275	150.01
818.453	107.01
818.632	150.01
818.81	172.54
818.988	184.83
819.167	219.64
819.345	107.01
819.523	166.4
819.701	150.01
819.879	164.35
820.058	125.44
820.236	137.73
820.414	150.01
820.592	145.92
820.77	190.97
820.948	178.69
821.127	166.4
821.305	152.06
821.483	109.05
821.661	164.35
821.839	107.01
822.017	37.38
822.195	84.48
822.373	168.45
822.551	121.34
822.729	123.39
822.907	117.25
823.085	94.72
823.262	178.69
823.44	129.53
823.618	143.87
823.796	199.16
823.974	82.43
824.152	51.71
824.329	74.24
824.507	141.82
824.685	109.05
824.863	68.09
825.04	205.31
825.218	96.77
825.396	80.38
825.574	74.24
825.751	117.25
825.929	90.62
826.107	125.44
826.284	174.59
826.462	86.53
826.639	53.76
826.817	121.34
826.994	135.68
827.172	78.33
827.349	182.78
827.527	113.15
827.704	158.21
827.882	72.19
828.059	109.05
828.237	90.62
828.414	137.73
828.591	57.86
828.769	100.86
828.946	78.33
829.124	145.92
829.301	133.63
829.478	98.81
829.655	109.05
829.833	137.73
830.01	55.81
830.187	61.95
830.364	150.01
830.542	141.82
830.719	100.86
830.896	88.57
831.073	139.77
831.25	197.12
831.427	147.97
831.604	174.59
831.782	35.33
831.959	98.81
832.136	102.91
832.313	64
832.49	18.94
832.667	78.33
832.844	100.86
833.021	121.34
833.198	57.86
833.374	164.35
833.551	115.2
833.728	80.38
833.905	168.45
834.082	51.71
834.259	139.77
834.436	168.45
834.612	64
834.789	117.25
834.966	100.86
835.143	117.25
835.319	76.29
835.496	125.44
835.673	127.49
835.85	125.44
836.026	147.97
836.203	59.9
836.38	37.38
836.556	-7.68
836.733	18.94
836.909	47.62
837.086	29.18
837.262	35.33
837.439	41.47
837.616	127.49
837.792	113.15
837.968	102.91
838.145	55.81
838.321	39.42
838.498	27.14
838.674	80.38
838.851	80.38
839.027	82.43
839.203	70.14
839.38	84.48
839.556	82.43
839.732	80.38
839.909	80.38
840.085	96.77
840.261	100.86
840.437	76.29
840.614	84.48
840.79	55.81
840.966	119.29
841.142	125.44
841.318	-28.16
841.494	12.8
841.671	76.29
841.847	96.77
842.023	23.04
842.199	141.82
842.375	51.71
842.551	10.75
842.727	70.14
842.903	121.34
843.079	66.05
843.255	61.95
843.431	57.86
843.607	45.57
843.783	39.42
843.959	76.29
844.134	49.66
844.31	123.39
844.486	72.19
844.662	86.53
844.838	80.38
845.013	35.33
845.189	29.18
845.365	16.9
845.541	-24.06
845.716	-1.54
845.892	29.18
846.068	57.86
846.244	6.66
846.419	104.96
846.595	43.52
846.77	25.09
846.946	2.56
847.122	100.86
847.297	147.97
847.473	31.23
847.648	-5.63
847.824	57.86
847.999	72.19
848.175	27.14
848.35	70.14
848.526	90.62
848.701	143.87
848.876	78.33
849.052	94.72
849.227	31.23
849.403	104.96
849.578	104.96
849.753	74.24
849.929	64
850.104	23.04
850.279	61.95
850.454	29.18
850.63	39.42
850.805	76.29
850.98	57.86
851.155	100.86
851.33	-17.92
851.505	88.57
851.681	68.09
851.856	23.04
852.031	80.38
852.206	102.91
852.381	-13.82
852.556	20.99
852.731	33.28
852.906	98.81
853.081	12.8
853.256	31.23
853.431	72.19
853.606	61.95
853.781	68.09
853.956	51.71
854.131	123.39
854.305	-36.35
854.48	86.53
854.655	117.25
854.83	51.71
855.005	61.95
855.18	-24.06
855.354	-26.11
855.529	84.48
855.704	20.99
855.879	-52.74
856.053	66.05
856.228	129.53
856.403	16.9
856.577	68.09
856.752	70.14
856.926	72.19
857.101	18.94
857.276	37.38
857.45	59.9
857.625	12.8
857.799	39.42
857.974	27.14
858.148	-3.58
858.323	39.42
858.497	14.85
858.672	59.9
858.846	57.86
859.02	86.53
859.195	2.56
859.369	-5.63
859.543	84.48
859.718	84.48
859.892	29.18
860.066	86.53
860.241	82.43
860.415	6.66
860.589	55.81
860.763	78.33
860.938	-5.63
861.112	31.23
861.286	4.61
861.46	55.81
861.634	68.09
861.808	59.9
861.982	-3.58
862.157	27.14
862.331	23.04
862.505	-34.3
862.679	102.91
862.853	66.05
863.027	37.38
863.201	82.43
863.375	-40.45
863.549	10.75
863.722	-40.45
863.896	-22.02
864.07	72.19
864.244	6.66
864.418	70.14
864.592	10.75
864.766	4.61
864.939	-1.54
865.113	43.52
865.287	47.62
865.461	27.14
865.634	57.86
865.808	37.38
865.982	57.86
866.156	37.38
866.329	66.05
866.503	70.14
866.676	49.66
866.85	70.14
867.024	10.75
867.197	-54.78
867.371	70.14
867.544	74.24
867.718	25.09
867.891	141.82
868.065	66.05
868.238	-5.63
868.412	2.56
868.585	-11.78
868.759	25.09
868.932	29.18
869.105	76.29
869.279	76.29
869.452	43.52
869.625	68.09
869.799	27.14
869.972	37.38
870.145	86.53
870.319	18.94
870.492	27.14
870.665	25.09
870.838	41.47
871.011	-13.82
871.185	94.72
871.358	27.14
871.531	68.09
871.704	39.42
871.877	51.71
872.05	37.38
872.223	23.04
872.396	49.66
872.569	84.48
872.742	-22.02
872.915	74.24
873.088	-32.26
873.261	14.85
873.434	53.76
873.607	27.14
873.78	66.05
873.953	-32.26
874.126	-48.64
874.299	68.09
874.471	6.66
874.644	-1.54
874.817	68.09
874.99	6.66
875.163	-62.98
875.335	27.14
875.508	59.9
875.681	2.56
875.853	23.04
876.026	-17.92
876.199	4.61
876.371	16.9
876.544	45.57
876.717	-77.31
876.889	-40.45
877.062	66.05
877.234	14.85
877.407	-24.06
877.579	57.86
877.752	10.75
877.924	64
878.097	20.99
878.269	-11.78
878.442	49.66
878.614	-17.92
878.786	-15.87
878.959	-24.06
879.131	39.42
879.303	59.9
879.476	53.76
879.648	100.86
879.82	20.99
879.993	33.28
880.165	35.33
880.337	47.62
880.509	49.66
880.681	23.04
880.854	51.71
881.026	-3.58
881.198	133.63
881.37	45.57
881.542	-19.97
881.714	8.7
881.886	-7.68
882.058	39.42
882.23	16.9
882.402	49.66
882.574	57.86
882.746	59.9
882.918	35.33
883.09	104.96
883.262	-28.16
883.434	53.76
883.606	37.38
883.778	-15.87
883.95	43.52
884.122	-5.63
884.293	8.7
884.465	-32.26
884.637	43.52
884.809	35.33
884.98	57.86
885.152	-7.68
885.324	-26.11
885.496	31.23
885.667	10.75
885.839	12.8
886.011	20.99
886.182	-15.87
886.354	90.62
886.525	27.14
886.697	31.23
886.869	0.51
887.04	25.09
887.212	47.62
887.383	96.77
887.555	10.75
887.726	-3.58
887.897	-32.26
888.069	23.04
888.24	84.48
888.412	2.56
888.583	78.33
888.754	-26.11
888.926	53.76
889.097	49.66
889.268	-9.73
889.44	33.28
889.611	23.04
889.782	-19.97
889.953	33.28
890.125	64
890.296	-44.54
890.467	-32.26
890.638	-7.68
890.809	39.42
890.98	55.81
891.151	51.71
891.323	23.04
891.494	2.56
891.665	-56.83
891.836	51.71
892.007	-50.69
892.178	39.42
892.349	-32.26
892.52	-5.63
892.691	16.9
892.862	-13.82
893.032	-19.97
893.203	12.8
893.374	-1.54
893.545	39.42
893.716	33.28
893.887	51.71
894.057	23.04
894.228	-17.92
894.399	-26.11
894.57	8.7
894.74	-9.73
894.911	-1.54
895.082	12.8
895.253	-11.78
895.423	29.18
895.594	18.94
895.764	6.66
895.935	39.42
896.106	0.51
896.276	-15.87
896.447	10.75
896.617	37.38
896.788	0.51
896.958	18.94
897.129	6.66
897.299	8.7
897.47	64
897.64	-13.82
897.81	-13.82
897.981	82.43
898.151	0.51
898.322	61.95
898.492	2.56
898.662	4.61
898.832	-22.02
899.003	-7.68
899.173	64
899.343	53.76
899.513	0.51
