Data from USB4F104151__50__11-37-04-263.txt Node

Date: Fri Mar 14 11:37:04 EDT 2025
User: louis
Spectrometer: USB4F10415
Trigger mode: 4
Integration Time (sec): 2.000000E-2
Scans to average: 1
Electric dark correction enabled: true
Nonlinearity correction enabled: false
Boxcar width: 0
XAxis mode: Wavelengths
Number of Pixels in Spectrum: 3648
>>>>>Begin Spectral Data<<<<<
178.204	-70.48
178.424	-70.48
178.644	-70.48
178.864	-58.2
179.084	-76.63
179.304	-0.85
179.524	-47.96
179.744	-54.1
179.964	-25.43
180.184	-21.33
180.404	-66.39
180.624	21.67
180.844	46.25
181.064	42.15
181.283	3.24
181.503	38.06
181.723	64.68
181.943	11.43
182.163	36.01
182.383	-37.72
182.602	-13.14
182.822	64.68
183.042	15.53
183.262	46.25
183.482	-2.9
183.701	60.59
183.921	101.55
184.141	46.25
184.361	11.43
184.58	-15.19
184.8	-9.05
185.02	-41.81
185.239	31.91
185.459	38.06
185.679	-2.9
185.898	-7
186.118	52.39
186.338	31.91
186.557	-11.09
186.777	54.44
186.997	-17.24
187.216	15.53
187.436	85.16
187.655	-15.19
187.875	-37.72
188.095	15.53
188.314	17.58
188.534	140.46
188.753	9.39
188.973	23.72
189.192	64.68
189.412	1.19
189.631	44.2
189.851	-47.96
190.07	9.39
190.29	21.67
190.509	-64.34
190.729	1.19
190.948	-0.85
191.168	85.16
191.387	-50
191.607	-31.57
191.826	-23.38
192.045	58.54
192.265	29.87
192.484	48.3
192.704	38.06
192.923	-37.72
193.142	-19.29
193.362	91.31
193.581	31.91
193.8	27.82
194.02	7.34
194.239	36.01
194.458	-11.09
194.678	-29.52
194.897	44.2
195.116	-41.81
195.335	-23.38
195.555	11.43
195.774	66.73
195.993	-70.48
196.212	44.2
196.432	-4.95
196.651	-41.81
196.87	54.44
197.089	36.01
197.308	5.29
197.528	-17.24
197.747	-86.87
197.966	-2.9
198.185	97.45
198.404	7.34
198.623	68.78
198.842	17.58
199.062	7.34
199.281	-15.19
199.5	54.44
199.719	13.48
199.938	9.39
200.157	40.11
200.376	50.35
200.595	66.73
200.814	-37.72
201.033	3.24
201.252	19.63
201.471	74.92
201.69	68.78
201.909	56.49
202.128	-25.43
202.347	52.39
202.566	-27.48
202.785	-25.43
203.004	-101.2
203.223	117.93
203.442	25.77
203.661	3.24
203.879	-4.95
204.098	52.39
204.317	-9.05
204.536	54.44
204.755	5.29
204.974	36.01
205.193	21.67
205.411	1.19
205.63	105.64
205.849	11.43
206.068	25.77
206.287	-21.33
206.505	40.11
206.724	50.35
206.943	85.16
207.162	60.59
207.381	-29.52
207.599	7.34
207.818	25.77
208.037	-15.19
208.255	56.49
208.474	42.15
208.693	105.64
208.911	17.58
209.13	48.3
209.349	21.67
209.567	-50
209.786	19.63
210.005	23.72
210.223	23.72
210.442	87.21
210.661	23.72
210.879	48.3
211.098	42.15
211.316	68.78
211.535	72.87
211.753	-17.24
211.972	-9.05
212.191	-13.14
212.409	31.91
212.628	7.34
212.846	33.96
213.065	-27.48
213.283	68.78
213.502	44.2
213.72	27.82
213.938	-0.85
214.157	-11.09
214.375	11.43
214.594	33.96
214.812	-0.85
215.031	3.24
215.249	-0.85
215.467	36.01
215.686	-70.48
215.904	40.11
216.122	-25.43
216.341	33.96
216.559	5.29
216.778	40.11
216.996	25.77
217.214	-25.43
217.432	9.39
217.651	40.11
217.869	54.44
218.087	19.63
218.306	17.58
218.524	15.53
218.742	-66.39
218.96	-37.72
219.179	44.2
219.397	31.91
219.615	5.29
219.833	3.24
220.051	19.63
220.27	-54.1
220.488	79.02
220.706	21.67
220.924	3.24
221.142	9.39
221.36	-7
221.578	9.39
221.796	27.82
222.015	56.49
222.233	-27.48
222.451	68.78
222.669	13.48
222.887	29.87
223.105	36.01
223.323	-64.34
223.541	48.3
223.759	-4.95
223.977	-9.05
224.195	48.3
224.413	83.11
224.631	70.83
224.849	74.92
225.067	68.78
225.285	5.29
225.503	-43.86
225.721	-19.29
225.939	7.34
226.157	9.39
226.375	117.93
226.592	-39.76
226.81	60.59
227.028	36.01
227.246	13.48
227.464	70.83
227.682	44.2
227.9	97.45
228.117	-54.1
228.335	-19.29
228.553	70.83
228.771	40.11
228.989	21.67
229.206	56.49
229.424	42.15
229.642	33.96
229.86	5.29
230.077	-17.24
230.295	27.82
230.513	52.39
230.731	99.5
230.948	25.77
231.166	54.44
231.384	72.87
231.601	9.39
231.819	54.44
232.037	-31.57
232.254	21.67
232.472	-19.29
232.689	-9.05
232.907	-17.24
233.125	-23.38
233.342	54.44
233.56	7.34
233.777	-17.24
233.995	-21.33
234.213	-0.85
234.43	-68.44
234.648	-19.29
234.865	-50
235.083	48.3
235.3	38.06
235.518	66.73
235.735	5.29
235.953	13.48
236.17	7.34
236.388	-7
236.605	-11.09
236.822	68.78
237.04	13.48
237.257	50.35
237.475	54.44
237.692	-4.95
237.909	-0.85
238.127	-27.48
238.344	64.68
238.562	-0.85
238.779	-39.76
238.996	23.72
239.214	27.82
239.431	44.2
239.648	-68.44
239.865	44.2
240.083	21.67
240.3	23.72
240.517	7.34
240.735	27.82
240.952	107.69
241.169	9.39
241.386	-56.15
241.603	44.2
241.821	19.63
242.038	-39.76
242.255	7.34
242.472	25.77
242.689	27.82
242.907	-25.43
243.124	87.21
243.341	27.82
243.558	25.77
243.775	38.06
243.992	-11.09
244.209	19.63
244.426	36.01
244.643	83.11
244.86	-17.24
245.078	130.22
245.295	72.87
245.512	-37.72
245.729	-47.96
245.946	89.26
246.163	76.97
246.38	3.24
246.597	7.34
246.814	-25.43
247.031	-29.52
247.248	27.82
247.464	-47.96
247.681	-0.85
247.898	52.39
248.115	44.2
248.332	27.82
248.549	-9.05
248.766	79.02
248.983	36.01
249.2	-107.35
249.417	74.92
249.633	7.34
249.85	-21.33
250.067	25.77
250.284	15.53
250.501	46.25
250.717	19.63
250.934	101.55
251.151	64.68
251.368	-45.91
251.585	93.35
251.801	-27.48
252.018	54.44
252.235	-72.53
252.451	-9.05
252.668	-33.62
252.885	-2.9
253.102	-0.85
253.318	-23.38
253.535	11.43
253.752	91.31
253.968	-11.09
254.185	-23.38
254.401	-4.95
254.618	50.35
254.835	-78.68
255.051	1.19
255.268	-27.48
255.484	70.83
255.701	48.3
255.917	25.77
256.134	-0.85
256.351	-41.81
256.567	-4.95
256.784	68.78
257	27.82
257.217	-27.48
257.433	54.44
257.65	62.63
257.866	29.87
258.082	-7
258.299	48.3
258.515	66.73
258.732	-11.09
258.948	93.35
259.165	31.91
259.381	21.67
259.597	48.3
259.814	38.06
260.03	40.11
260.246	-4.95
260.463	-21.33
260.679	42.15
260.895	54.44
261.112	44.2
261.328	36.01
261.544	29.87
261.761	-4.95
261.977	-11.09
262.193	-50
262.409	-27.48
262.626	23.72
262.842	-17.24
263.058	-9.05
263.274	56.49
263.49	64.68
263.707	36.01
263.923	-29.52
264.139	-58.2
264.355	58.54
264.571	19.63
264.787	27.82
265.004	31.91
265.22	74.92
265.436	-37.72
265.652	46.25
265.868	109.74
266.084	-19.29
266.3	33.96
266.516	68.78
266.732	101.55
266.948	79.02
267.164	52.39
267.38	27.82
267.596	68.78
267.812	62.63
268.028	48.3
268.244	72.87
268.46	70.83
268.676	-17.24
268.892	-15.19
269.108	-0.85
269.324	-45.91
269.54	38.06
269.756	64.68
269.972	-39.76
270.188	81.07
270.403	7.34
270.619	5.29
270.835	62.63
271.051	60.59
271.267	13.48
271.483	40.11
271.698	1.19
271.914	-25.43
272.13	-35.67
272.346	33.96
272.562	72.87
272.777	74.92
272.993	5.29
273.209	-9.05
273.425	29.87
273.64	-0.85
273.856	48.3
274.072	40.11
274.287	-78.68
274.503	9.39
274.719	-50
274.934	40.11
275.15	-33.62
275.366	97.45
275.581	5.29
275.797	-21.33
276.012	54.44
276.228	29.87
276.444	-2.9
276.659	15.53
276.875	74.92
277.09	31.91
277.306	54.44
277.521	68.78
277.737	33.96
277.952	72.87
278.168	54.44
278.383	-11.09
278.599	60.59
278.814	66.73
279.03	54.44
279.245	111.78
279.461	19.63
279.676	89.26
279.892	13.48
280.107	40.11
280.322	5.29
280.538	58.54
280.753	-0.85
280.969	-17.24
281.184	17.58
281.399	117.93
281.615	15.53
281.83	85.16
282.045	-17.24
282.26	7.34
282.476	70.83
282.691	31.91
282.906	-25.43
283.122	31.91
283.337	-103.25
283.552	89.26
283.767	21.67
283.983	52.39
284.198	7.34
284.413	33.96
284.628	-50
284.843	21.67
285.058	64.68
285.274	-41.81
285.489	44.2
285.704	3.24
285.919	64.68
286.134	33.96
286.349	52.39
286.564	7.34
286.779	11.43
286.995	-0.85
287.21	-0.85
287.425	-7
287.64	-27.48
287.855	52.39
288.07	-25.43
288.285	3.24
288.5	40.11
288.715	76.97
288.93	56.49
289.145	5.29
289.36	19.63
289.575	5.29
289.79	23.72
290.004	-74.58
290.219	93.35
290.434	23.72
290.649	15.53
290.864	-74.58
291.079	13.48
291.294	56.49
291.509	52.39
291.724	54.44
291.938	-0.85
292.153	23.72
292.368	-31.57
292.583	44.2
292.798	40.11
293.012	-7
293.227	76.97
293.442	1.19
293.657	-2.9
293.871	33.96
294.086	60.59
294.301	40.11
294.516	52.39
294.73	3.24
294.945	-37.72
295.16	70.83
295.374	27.82
295.589	3.24
295.804	27.82
296.018	23.72
296.233	21.67
296.447	3.24
296.662	-15.19
296.877	29.87
297.091	89.26
297.306	23.72
297.52	-19.29
297.735	50.35
297.949	-35.67
298.164	1.19
298.378	-45.91
298.593	50.35
298.807	11.43
299.022	31.91
299.236	152.74
299.451	62.63
299.665	38.06
299.88	-11.09
300.094	-37.72
300.309	54.44
300.523	-0.85
300.737	60.59
300.952	13.48
301.166	33.96
301.381	-31.57
301.595	-11.09
301.809	31.91
302.024	27.82
302.238	-11.09
302.452	48.3
302.667	27.82
302.881	11.43
303.095	56.49
303.309	72.87
303.524	33.96
303.738	56.49
303.952	-0.85
304.166	58.54
304.381	15.53
304.595	64.68
304.809	11.43
305.023	85.16
305.237	33.96
305.452	-11.09
305.666	44.2
305.88	79.02
306.094	36.01
306.308	40.11
306.522	-0.85
306.736	-15.19
306.95	-17.24
307.164	23.72
307.379	31.91
307.593	27.82
307.807	27.82
308.021	-52.05
308.235	-60.24
308.449	9.39
308.663	79.02
308.877	117.93
309.091	38.06
309.305	56.49
309.519	7.34
309.733	17.58
309.947	31.91
310.161	29.87
310.374	36.01
310.588	107.69
310.802	-25.43
311.016	-21.33
311.23	-9.05
311.444	-29.52
311.658	48.3
311.872	-4.95
312.085	64.68
312.299	44.2
312.513	83.11
312.727	-39.76
312.941	29.87
313.154	-13.14
313.368	87.21
313.582	9.39
313.796	11.43
314.009	15.53
314.223	38.06
314.437	76.97
314.651	19.63
314.864	46.25
315.078	-41.81
315.292	-11.09
315.505	-21.33
315.719	64.68
315.933	21.67
316.146	29.87
316.36	52.39
316.573	48.3
316.787	7.34
317.001	5.29
317.214	-17.24
317.428	44.2
317.641	-60.24
317.855	40.11
318.068	-9.05
318.282	-17.24
318.495	31.91
318.709	76.97
318.922	3.24
319.136	99.5
319.349	25.77
319.563	33.96
319.776	72.87
319.99	44.2
320.203	62.63
320.417	44.2
320.63	31.91
320.843	72.87
321.057	87.21
321.27	-50
321.483	48.3
321.697	27.82
321.91	-17.24
322.124	-9.05
322.337	-35.67
322.55	27.82
322.763	40.11
322.977	23.72
323.19	5.29
323.403	56.49
323.617	79.02
323.83	56.49
324.043	15.53
324.256	-37.72
324.469	62.63
324.683	-0.85
324.896	25.77
325.109	99.5
325.322	-11.09
325.535	64.68
325.748	97.45
325.962	66.73
326.175	-4.95
326.388	33.96
326.601	46.25
326.814	-17.24
327.027	56.49
327.24	87.21
327.453	40.11
327.666	19.63
327.879	40.11
328.092	44.2
328.305	31.91
328.518	27.82
328.731	-74.58
328.944	29.87
329.157	40.11
329.37	40.11
329.583	29.87
329.796	85.16
330.009	48.3
330.222	3.24
330.435	-11.09
330.648	-70.48
330.861	48.3
331.073	31.91
331.286	83.11
331.499	13.48
331.712	58.54
331.925	-13.14
332.138	-21.33
332.35	68.78
332.563	19.63
332.776	124.07
332.989	3.24
333.202	17.58
333.414	33.96
333.627	11.43
333.84	17.58
334.053	97.45
334.265	76.97
334.478	36.01
334.691	40.11
334.903	-21.33
335.116	15.53
335.329	-0.85
335.541	54.44
335.754	29.87
335.966	-72.53
336.179	36.01
336.392	-11.09
336.604	-41.81
336.817	23.72
337.029	33.96
337.242	97.45
337.454	13.48
337.667	31.91
337.88	66.73
338.092	13.48
338.305	36.01
338.517	56.49
338.729	40.11
338.942	40.11
339.154	-37.72
339.367	-21.33
339.579	97.45
339.792	15.53
340.004	36.01
340.217	13.48
340.429	33.96
340.641	33.96
340.854	-29.52
341.066	19.63
341.278	64.68
341.491	122.02
341.703	5.29
341.915	-33.62
342.128	74.92
342.34	36.01
342.552	-9.05
342.764	-19.29
342.977	54.44
343.189	25.77
343.401	13.48
343.613	7.34
343.826	33.96
344.038	19.63
344.25	58.54
344.462	-74.58
344.674	29.87
344.886	-0.85
345.099	46.25
345.311	50.35
345.523	-4.95
345.735	-9.05
345.947	91.31
346.159	31.91
346.371	-0.85
346.583	33.96
346.795	52.39
347.007	27.82
347.219	25.77
347.431	60.59
347.643	89.26
347.855	-37.72
348.067	-21.33
348.279	-7
348.491	48.3
348.703	15.53
348.915	48.3
349.127	-17.24
349.339	56.49
349.551	48.3
349.763	-0.85
349.975	-0.85
350.187	56.49
350.399	-2.9
350.61	29.87
350.822	-25.43
351.034	23.72
351.246	17.58
351.458	29.87
351.669	-43.86
351.881	9.39
352.093	23.72
352.305	33.96
352.517	-21.33
352.728	60.59
352.94	48.3
353.152	-58.2
353.363	-4.95
353.575	81.07
353.787	7.34
353.999	50.35
354.21	105.64
354.422	50.35
354.633	60.59
354.845	68.78
355.057	-25.43
355.268	13.48
355.48	-4.95
355.692	-11.09
355.903	13.48
356.115	60.59
356.326	7.34
356.538	87.21
356.749	15.53
356.961	46.25
357.172	54.44
357.384	72.87
357.595	33.96
357.807	27.82
358.018	31.91
358.23	42.15
358.441	48.3
358.653	-23.38
358.864	13.48
359.075	-17.24
359.287	33.96
359.498	25.77
359.709	81.07
359.921	97.45
360.132	70.83
360.344	25.77
360.555	56.49
360.766	40.11
360.977	27.82
361.189	-21.33
361.4	33.96
361.611	-25.43
361.823	23.72
362.034	29.87
362.245	19.63
362.456	7.34
362.667	76.97
362.879	-7
363.09	-35.67
363.301	-13.14
363.512	68.78
363.723	-33.62
363.935	38.06
364.146	60.59
364.357	11.43
364.568	33.96
364.779	70.83
364.99	68.78
365.201	3.24
365.412	58.54
365.623	21.67
365.834	48.3
366.045	17.58
366.256	91.31
366.467	13.48
366.678	-33.62
366.889	-41.81
367.1	-4.95
367.311	38.06
367.522	-0.85
367.733	111.78
367.944	5.29
368.155	46.25
368.366	-4.95
368.577	89.26
368.788	23.72
368.999	-45.91
369.209	44.2
369.42	107.69
369.631	101.55
369.842	44.2
370.053	42.15
370.264	3.24
370.474	38.06
370.685	23.72
370.896	38.06
371.107	111.78
371.317	11.43
371.528	40.11
371.739	38.06
371.95	1.19
372.16	13.48
372.371	76.97
372.582	-0.85
372.792	15.53
373.003	85.16
373.214	23.72
373.424	99.5
373.635	15.53
373.846	76.97
374.056	83.11
374.267	52.39
374.477	48.3
374.688	68.78
374.898	48.3
375.109	46.25
375.319	48.3
375.53	-4.95
375.74	62.63
375.951	-39.76
376.161	-56.15
376.372	31.91
376.582	62.63
376.793	70.83
377.003	-25.43
377.214	19.63
377.424	23.72
377.635	83.11
377.845	23.72
378.055	17.58
378.266	1.19
378.476	29.87
378.686	103.59
378.897	23.72
379.107	89.26
379.317	42.15
379.528	70.83
379.738	7.34
379.948	-19.29
380.158	11.43
380.369	74.92
380.579	76.97
380.789	60.59
380.999	83.11
381.21	-13.14
381.42	29.87
381.63	44.2
381.84	-21.33
382.05	27.82
382.261	79.02
382.471	103.59
382.681	50.35
382.891	50.35
383.101	-66.39
383.311	15.53
383.521	31.91
383.731	19.63
383.941	74.92
384.151	54.44
384.361	-37.72
384.571	54.44
384.781	105.64
384.991	70.83
385.201	1.19
385.411	66.73
385.621	89.26
385.831	44.2
386.041	89.26
386.251	42.15
386.461	-9.05
386.671	70.83
386.881	33.96
387.091	87.21
387.301	60.59
387.511	62.63
387.72	91.31
387.93	44.2
388.14	29.87
388.35	-19.29
388.56	93.35
388.769	46.25
388.979	15.53
389.189	-0.85
389.399	76.97
389.609	-4.95
389.818	66.73
390.028	9.39
390.238	38.06
390.447	52.39
390.657	91.31
390.867	115.88
391.076	126.12
391.286	58.54
391.496	5.29
391.705	19.63
391.915	36.01
392.125	111.78
392.334	11.43
392.544	195.75
392.753	79.02
392.963	15.53
393.172	31.91
393.382	50.35
393.591	-21.33
393.801	23.72
394.01	56.49
394.22	68.78
394.429	46.25
394.639	13.48
394.848	76.97
395.058	97.45
395.267	79.02
395.477	68.78
395.686	15.53
395.895	1.19
396.105	113.83
396.314	23.72
396.524	56.49
396.733	81.07
396.942	87.21
397.152	48.3
397.361	29.87
397.57	107.69
397.78	46.25
397.989	64.68
398.198	126.12
398.407	111.78
398.617	148.65
398.826	99.5
399.035	19.63
399.244	76.97
399.453	126.12
399.663	19.63
399.872	122.02
400.081	54.44
400.29	103.59
400.499	21.67
400.708	126.12
400.917	74.92
401.127	191.66
401.336	38.06
401.545	74.92
401.754	46.25
401.963	107.69
402.172	23.72
402.381	64.68
402.59	134.31
402.799	13.48
403.008	136.36
403.217	136.36
403.426	105.64
403.635	89.26
403.844	36.01
404.053	103.59
404.262	79.02
404.471	95.4
404.68	144.55
404.888	117.93
405.097	81.07
405.306	93.35
405.515	132.26
405.724	72.87
405.933	76.97
406.142	101.55
406.35	111.78
406.559	179.37
406.768	238.76
406.977	101.55
407.185	169.13
407.394	134.31
407.603	105.64
407.812	128.17
408.02	126.12
408.229	195.75
408.438	183.46
408.646	169.13
408.855	136.36
409.064	158.89
409.272	162.98
409.481	208.04
409.69	214.18
409.898	152.74
410.107	228.52
410.315	222.38
410.524	271.53
410.733	277.67
410.941	267.43
411.15	294.05
411.358	294.05
411.567	322.73
411.775	259.24
411.984	369.83
412.192	285.86
412.401	316.58
412.609	335.01
412.818	308.39
413.026	367.78
413.234	363.69
413.443	386.21
413.651	357.54
413.86	431.27
414.068	490.66
414.276	515.23
414.485	480.42
414.693	404.64
414.901	529.57
415.11	548
415.318	634.02
415.526	488.61
415.734	607.39
415.943	554.15
416.151	578.72
416.359	642.21
416.567	687.26
416.776	652.45
416.984	681.12
417.192	810.14
417.4	732.32
417.608	752.8
417.817	881.82
418.025	830.62
418.233	830.62
418.441	851.1
418.649	943.26
418.857	910.49
419.065	890.01
419.273	1047.71
419.481	1049.75
419.689	1029.27
419.897	1219.74
420.105	1162.39
420.313	1248.41
420.521	1221.78
420.729	1262.74
420.937	1268.89
421.145	1326.23
421.353	1422.48
421.561	1590.42
421.769	1445.01
421.977	1477.78
422.185	1649.81
422.393	1678.48
422.601	1741.97
422.809	1776.78
423.017	1756.3
423.224	1774.74
423.432	1920.14
423.64	1934.48
423.848	2126.99
424.056	2014.35
424.263	2110.6
424.471	2280.58
424.679	2256.01
424.887	2301.06
425.094	2356.36
425.302	2450.57
425.51	2473.09
425.718	2522.24
425.925	2657.41
426.133	2718.85
426.341	2851.97
426.548	2927.74
426.756	2899.07
426.964	2960.51
427.171	3177.59
427.379	3230.84
427.586	3325.05
427.794	3302.52
428.001	3550.32
428.209	3714.16
428.417	3624.05
428.624	3976.3
428.832	3974.25
429.039	3849.33
429.247	3843.18
429.454	4260.97
429.662	4465.77
429.869	4367.46
430.076	4488.29
430.284	4508.77
430.491	4729.95
430.699	4930.66
430.906	4840.54
431.114	5061.73
431.321	5184.6
431.528	5346.39
431.736	5514.33
431.943	5821.52
432.15	5612.63
432.358	5743.7
432.565	5885.01
432.772	5907.54
432.979	6231.12
433.187	6519.88
433.394	6636.61
433.601	6808.64
433.808	7044.16
434.016	6868.03
434.223	7216.19
434.43	7633.97
434.637	7507
434.844	7975.98
435.052	8201.26
435.259	8150.06
435.466	8133.68
435.673	7947.31
435.88	8518.7
436.087	9018.4
436.294	9065.5
436.501	8842.28
436.708	8965.15
436.915	9432.09
437.122	9845.78
437.329	9458.71
437.537	9925.65
437.743	10130.45
437.95	10146.83
438.157	10808.33
438.364	11015.17
438.571	10863.62
438.778	11090.95
438.985	11949.04
439.192	11508.73
439.399	11947
439.606	11637.75
439.813	12268.53
440.02	13050.85
440.227	12784.62
440.433	12798.95
440.64	13095.91
440.847	13044.71
441.054	13100
441.261	14185.43
441.467	14105.56
441.674	14363.6
441.881	15002.57
442.088	15035.33
442.294	14857.16
442.501	15197.12
442.708	15502.27
442.914	16018.36
443.121	16815.02
443.328	16198.58
443.534	17370.02
443.741	16995.24
443.948	16790.44
444.154	17736.6
444.361	17834.91
444.568	17851.29
444.774	18062.23
444.981	18144.15
445.187	18783.12
445.394	19714.94
445.6	19334.02
445.807	21175.14
446.013	19938.17
446.22	20566.9
446.426	21238.63
446.633	21166.95
446.839	22240.09
447.046	21271.4
447.252	22578
447.459	22438.74
447.665	22412.12
447.871	23425.86
448.078	24437.56
448.284	23231.3
448.491	23835.45
448.697	25000.75
448.903	25371.43
449.11	25359.14
449.316	25064.24
449.522	25498.41
449.728	25924.38
449.935	26188.57
450.141	26299.16
450.347	26856.21
450.553	25699.11
450.76	26542.87
450.966	27222.8
451.172	26839.83
451.378	27626.25
451.584	27159.31
451.791	27409.16
451.997	27095.82
452.203	28115.71
452.409	28439.29
452.615	28039.93
452.821	27142.92
453.027	26596.12
453.233	27974.4
453.44	26829.59
453.646	27233.04
453.852	27382.54
454.058	27792.13
454.264	26559.25
454.47	27507.46
454.676	26735.38
454.882	27648.77
455.088	25082.67
455.294	25914.14
455.5	26161.95
455.705	26307.35
455.911	25254.7
456.117	24793.9
456.323	24746.8
456.529	23288.65
456.735	24519.48
456.941	23653.19
457.147	23126.86
457.352	22469.46
457.558	22344.53
457.764	22274.9
457.97	21654.37
458.176	21359.46
458.381	21361.51
458.587	20364.15
458.793	20585.33
458.999	19293.06
459.204	20304.76
459.41	20020.09
459.616	18774.92
459.821	18625.42
460.027	18713.49
460.233	18355.09
460.438	17269.67
460.644	17384.35
460.85	16624.56
461.055	16626.6
461.261	16339.89
461.466	14965.7
461.672	14904.26
461.878	15795.13
462.083	14662.6
462.289	14705.61
462.494	14322.64
462.7	13839.32
462.905	13628.38
463.111	13925.33
463.316	13892.57
463.522	13614.04
463.727	13589.47
463.932	13585.37
464.138	13388.77
464.343	13411.29
464.549	12882.92
464.754	13769.69
464.959	13534.17
465.165	13378.53
465.37	12577.77
465.575	12372.97
465.781	12909.54
465.986	12956.64
466.191	12471.28
466.397	12303.34
466.602	11658.23
466.807	12352.49
467.012	12063.73
467.218	12020.72
467.423	11736.06
467.628	11869.17
467.833	12473.32
468.038	12217.33
468.244	11639.8
468.449	12243.95
468.654	11713.53
468.859	11699.19
469.064	11779.06
469.269	11179.01
469.474	11154.43
469.679	11486.2
469.885	11254.78
470.09	11191.3
470.295	11230.21
470.5	10589.19
470.705	10988.55
470.91	10877.96
471.115	10615.82
471.32	10843.14
471.525	10683.4
471.73	10523.66
471.935	10613.77
472.139	10054.67
472.344	10155.02
472.549	10361.87
472.754	10054.67
472.959	9724.95
473.164	9526.3
473.369	9643.03
473.574	9808.92
473.778	9681.94
473.983	9640.98
474.188	9528.35
474.393	9169.95
474.598	9335.84
474.802	9174.05
475.007	9102.37
475.212	9028.64
475.417	8721.45
475.621	8555.56
475.826	8684.58
476.031	8580.14
476.235	8434.73
476.44	8424.49
476.645	8363.05
476.849	8338.48
477.054	8469.55
477.259	8135.73
477.463	8264.75
477.668	7961.65
477.872	8078.38
478.077	8000.56
478.282	7582.77
478.486	7836.72
478.691	7707.7
478.895	7660.6
479.1	7584.82
479.304	7750.71
479.509	7285.82
479.713	7556.15
479.918	7212.09
480.122	7275.58
480.326	7435.32
480.531	7298.11
480.735	7371.83
480.94	7029.82
481.144	7388.22
481.348	7160.89
481.553	6999.1
481.757	7228.48
481.961	7089.21
482.166	7181.37
482.37	7097.41
482.574	6976.58
482.778	6970.43
482.983	7179.33
483.187	7169.09
483.391	6935.62
483.595	6999.1
483.8	6810.69
484.004	7107.65
484.208	7099.45
484.412	6855.75
484.616	6898.75
484.821	6900.8
485.025	6808.64
485.229	7091.26
485.433	6937.66
485.637	6982.72
485.841	7154.75
486.045	6855.75
486.249	6908.99
486.453	6960.19
486.657	6921.28
486.861	7142.46
487.065	6939.71
487.269	7236.67
487.473	7076.93
487.677	7066.69
487.881	7085.12
488.085	6921.28
488.289	6999.1
488.493	7021.63
488.697	7046.21
488.901	7195.71
489.105	7023.68
489.309	7048.26
489.512	7144.51
489.716	7238.72
489.92	7027.78
490.124	7117.89
490.328	7185.47
490.531	7109.69
490.735	7205.95
490.939	7251
491.143	7140.41
491.346	7308.35
491.55	7228.48
491.754	7099.45
491.958	7490.62
492.161	7158.85
492.365	7420.99
492.569	7392.31
492.772	7511.1
492.976	7423.03
493.18	7369.79
493.383	7539.77
493.587	7525.43
493.79	7640.12
493.994	7498.81
494.197	7613.49
494.401	7717.94
494.605	7840.82
494.808	7947.31
495.012	7951.41
495.215	7945.27
495.419	8098.86
495.622	7758.9
495.825	8207.41
496.029	8227.89
496.232	8305.71
496.436	8244.27
496.639	8451.11
496.843	8383.53
497.046	8578.09
497.249	8737.83
497.453	8811.56
497.656	8703.01
497.859	8848.42
498.063	8936.48
498.266	8838.18
498.469	9008.16
498.673	9260.06
498.876	9317.4
499.079	9450.52
499.282	9319.45
499.485	9571.35
499.689	9585.69
499.892	9808.92
500.095	9772.05
500.298	10159.12
500.501	9704.47
500.705	10124.3
500.908	10327.05
501.111	10476.55
501.314	10542.09
501.517	10554.38
501.72	10615.82
501.923	10613.77
502.126	11031.55
502.329	11318.27
502.532	11150.34
502.735	11183.1
502.938	11543.55
503.141	11342.85
503.344	11611.13
503.547	11637.75
503.75	11639.8
503.953	11983.86
504.156	12176.37
504.359	12037.11
504.562	12319.73
504.765	12473.32
504.968	12790.76
505.17	12590.06
505.373	12805.1
505.576	12895.21
505.779	13145.06
505.982	13186.02
506.185	13530.08
506.387	13333.47
506.59	13691.87
506.793	13984.73
506.996	13759.45
507.198	14277.58
507.401	14291.92
507.604	14392.27
507.807	14537.68
508.009	14570.44
508.212	14789.58
508.415	14879.69
508.617	14953.41
508.82	14969.8
509.022	15107.01
509.225	15244.23
509.428	15641.53
509.63	15868.86
509.833	15952.82
510.035	16231.35
510.238	15897.53
510.44	16196.53
510.643	16735.15
510.845	16567.21
511.048	16673.71
511.25	16731.05
511.453	16896.94
511.655	17578.91
511.858	17312.67
512.06	17558.43
512.262	17632.16
512.465	17476.51
512.667	18068.37
512.87	18021.27
513.072	18195.35
513.274	18635.66
513.477	18676.62
513.679	18860.94
513.881	18908.04
514.084	19116.93
514.286	19129.22
514.488	19229.57
514.69	19481.47
514.893	19835.77
515.095	19624.83
515.297	20069.24
515.499	19999.61
515.701	20417.4
515.904	20245.37
516.106	20681.58
516.308	20712.3
516.51	20833.13
516.712	20964.2
516.914	21324.65
517.116	21668.7
517.318	21648.22
517.52	21795.68
517.722	21814.11
517.925	22121.31
518.127	22205.27
518.329	22405.97
518.531	22541.14
518.733	22784.85
518.935	23098.19
519.136	23196.49
519.338	23317.32
519.54	23409.48
519.742	23608.13
519.944	23704.38
520.146	24093.5
520.348	24220.47
520.55	24517.43
520.752	24484.66
520.954	24916.78
521.155	24369.97
521.357	25166.63
521.559	25152.3
521.761	25705.25
521.963	25109.29
522.164	25535.27
522.366	25543.46
522.568	25940.77
522.77	26407.7
522.971	26419.99
523.173	26190.62
523.375	26530.58
523.576	26458.9
523.778	26921.74
523.98	26753.81
524.181	27093.77
524.383	27196.17
524.584	27124.49
524.786	27501.32
524.988	27130.64
525.189	27601.67
525.391	28160.76
525.592	27835.14
525.794	27874.05
525.995	27896.58
526.197	28097.28
526.398	28441.34
526.6	28310.27
526.801	28807.92
527.003	28562.17
527.204	28734.2
527.406	28979.95
527.607	28951.28
527.808	29043.44
528.01	28601.08
528.211	29231.85
528.412	29303.53
528.614	29364.97
528.815	29571.82
529.016	29928.16
529.218	28881.65
529.419	29788.9
529.62	29547.24
529.822	29692.65
530.023	29653.73
530.224	29663.97
530.425	29653.73
530.626	29616.87
530.828	30048.99
531.029	30259.93
531.23	30106.34
531.431	30026.46
531.632	30264.03
531.833	30206.69
532.035	30001.89
532.236	30272.22
532.437	30075.62
532.638	30323.42
532.839	30257.88
533.04	30356.19
533.241	29905.63
533.442	30694.1
533.643	30114.53
533.844	30331.61
534.045	30440.15
534.246	30005.98
534.447	30606.04
534.648	30409.43
534.849	30601.94
535.05	30368.48
535.251	30391
535.451	30192.35
535.652	30816.98
535.853	30548.7
536.054	30350.04
536.255	30702.29
536.456	30245.6
536.657	30663.38
536.857	30212.83
537.058	30245.6
537.259	30980.82
537.46	30454.49
537.66	30565.08
537.861	30593.75
538.062	30403.29
538.263	30851.8
538.463	30431.96
538.664	30485.21
538.865	30415.58
539.065	30687.96
539.266	29903.59
539.466	30618.33
539.667	30204.64
539.868	30671.57
540.068	30364.38
540.269	30456.54
540.469	30833.36
540.67	30552.79
540.87	30446.3
541.071	30536.41
541.271	30450.39
541.472	30599.9
541.672	30182.11
541.873	30352.09
542.073	29958.88
542.274	30503.64
542.474	30352.09
542.675	30331.61
542.875	30581.46
543.075	30710.49
543.276	30042.85
543.476	30229.21
543.676	30210.78
543.877	30411.48
544.077	30397.15
544.277	30323.42
544.478	30106.34
544.678	30415.58
544.878	30364.38
545.078	30229.21
545.279	30079.71
545.479	30042.85
545.679	30298.84
545.879	30169.82
546.079	30403.29
546.28	30178.01
546.48	29987.55
546.68	30198.49
546.88	30468.83
547.08	30077.66
547.28	30128.86
547.48	29948.64
547.68	29725.41
547.88	30171.87
548.081	30337.76
548.281	30192.35
548.481	29940.45
548.681	30409.43
548.881	30257.88
549.081	30128.86
549.28	29987.55
549.48	30589.66
549.68	29793
549.88	30499.55
550.08	30073.57
550.28	30237.41
550.48	29944.55
550.68	30239.45
550.88	29819.62
551.08	29684.45
551.279	30141.15
551.479	29881.06
551.679	29903.59
551.879	29678.31
552.079	29819.62
552.278	29936.35
552.478	29962.98
552.678	30128.86
552.878	29928.16
553.077	29592.3
553.277	29537
553.477	30178.01
553.676	29836
553.876	29655.78
554.076	29598.44
554.275	29719.27
554.475	29688.55
554.674	29758.18
554.874	29584.1
555.074	29764.32
555.273	29719.27
555.473	29633.25
555.672	29291.24
555.872	30005.98
556.071	29305.58
556.271	29840.1
556.47	29287.15
556.67	29356.78
556.869	29518.57
557.068	29555.43
557.268	29027.06
557.467	29037.3
557.667	29330.16
557.866	29151.98
558.065	28977.9
558.265	29102.83
558.464	29059.82
558.663	29184.75
558.863	28758.77
559.062	29588.2
559.261	28769.01
559.461	29285.1
559.66	28795.64
559.859	29197.04
560.058	28820.21
560.258	28689.14
560.457	28666.61
560.656	28889.84
560.855	28572.41
561.054	28486.39
561.253	28568.31
561.453	28476.15
561.652	28414.71
561.851	28685.04
562.05	28623.61
562.249	28320.51
562.448	28627.7
562.647	28228.35
562.846	28457.72
563.045	28076.8
563.244	28062.46
563.443	28787.44
563.642	28015.36
563.841	28103.42
564.04	28078.85
564.239	27982.59
564.438	27622.15
564.637	27929.34
564.836	28125.95
565.035	27757.32
565.234	27689.73
565.432	27468.55
565.631	27693.83
565.83	27683.59
566.029	27454.22
566.228	27456.26
566.427	27595.53
566.625	27235.08
566.824	27067.15
567.023	27138.83
567.222	26696.47
567.42	27147.02
567.619	27259.66
567.818	27190.03
568.016	26948.37
568.215	26858.26
568.414	27042.57
568.612	26874.64
568.811	26475.29
569.01	26692.37
569.208	26393.37
569.407	26755.86
569.605	26518.29
569.804	26735.38
570.002	26360.6
570.201	26243.87
570.4	26194.71
570.598	26039.07
570.797	26055.45
570.995	25826.08
571.193	26092.32
571.392	26184.48
571.59	25764.64
571.789	25688.87
571.987	25776.93
572.186	25641.76
572.384	25654.05
572.582	25668.39
572.781	26037.02
572.979	25180.97
573.177	25359.14
573.376	25350.95
573.574	25246.51
573.772	25516.84
573.971	25387.82
574.169	25033.52
574.367	25010.99
574.565	25430.82
574.763	24832.82
574.962	25164.59
575.16	24607.54
575.358	24787.76
575.556	24621.87
575.754	25066.28
575.952	24601.4
576.151	24871.73
576.349	24402.74
576.547	24705.84
576.745	24601.4
576.943	24404.79
577.141	24656.69
577.339	24228.66
577.537	24433.46
577.735	24099.64
577.933	24193.85
578.131	24343.35
578.329	24214.33
578.527	23952.19
578.725	23825.22
578.923	23984.96
579.121	23524.16
579.319	23690.05
579.516	23892.8
579.714	23688
579.912	23528.26
580.11	23540.55
580.308	23528.26
580.506	23499.59
580.704	22815.57
580.901	23053.13
581.099	23667.52
581.297	22979.4
581.495	23403.33
581.692	23151.43
581.89	23106.38
582.088	23558.98
582.285	23178.06
582.483	22911.82
582.681	23122.76
582.878	22637.39
583.076	22719.31
583.274	22952.78
583.471	22584.15
583.669	22455.12
583.866	22362.97
584.064	22690.64
584.262	22487.89
584.459	22309.72
584.657	22334.29
584.854	22494.04
585.052	22072.15
585.249	21877.6
585.447	22326.1
585.644	21896.03
585.841	22070.11
586.039	22356.82
586.236	21719.9
586.434	21871.45
586.631	21621.6
586.828	21807.97
587.026	21568.35
587.223	21838.69
587.42	21539.68
587.618	21511.01
587.815	21134.18
588.012	21336.93
588.21	21150.57
588.407	21273.45
588.604	21156.71
588.801	20740.97
588.999	20921.2
589.196	20898.67
589.393	20898.67
589.59	20925.29
589.787	20683.63
589.984	20747.12
590.182	20419.44
590.379	20878.19
590.576	20740.97
590.773	20284.28
590.97	20675.44
591.167	20716.4
591.364	19919.74
591.561	20605.81
591.758	20263.8
591.955	20190.07
592.152	20040.57
592.349	19768.19
592.546	20269.94
592.743	19948.41
592.94	19612.54
593.137	19790.72
593.334	19760
593.531	19735.42
593.727	19899.26
593.924	19942.27
594.121	19489.67
594.318	19704.7
594.515	19288.96
594.712	19692.41
594.908	19483.52
595.105	19522.43
595.302	19153.8
595.499	19475.33
595.696	19190.66
595.892	19215.24
596.089	19196.81
596.286	18873.23
596.482	18965.39
596.679	19096.46
596.876	18836.36
597.072	18946.95
597.269	18803.6
597.466	18647.95
597.662	18578.32
597.859	18615.18
598.055	18672.53
598.252	18432.91
598.448	18252.69
598.645	18432.91
598.841	18404.24
599.038	18359.19
599.234	18326.42
599.431	18097.05
599.627	17947.54
599.824	18062.23
600.02	18047.9
600.217	17785.76
600.413	17736.6
600.609	17736.6
600.806	17730.46
601.002	17826.71
601.198	17847.19
601.395	17466.27
601.591	17501.09
601.787	17476.51
601.984	17640.35
602.18	17611.68
602.376	17367.97
602.572	17234.85
602.769	17370.02
602.965	17046.44
603.161	17300.39
603.357	16935.85
603.553	17036.2
603.75	17177.51
603.946	16964.52
604.142	17093.54
604.338	16597.93
604.534	16874.41
604.73	16544.69
604.926	16522.16
605.122	16825.26
605.318	16653.23
605.514	16569.26
605.71	16530.35
605.906	16489.39
606.102	16415.66
606.298	16530.35
606.494	16139.19
606.69	16376.75
606.886	16149.43
607.082	16196.53
607.278	16288.69
607.474	16098.23
607.67	16319.41
607.866	16042.93
608.062	15989.69
608.257	15836.09
608.453	16098.23
608.649	16087.99
608.845	16006.07
609.041	15604.67
609.236	15735.74
609.432	15965.11
609.628	15451.07
609.824	15928.25
610.019	15506.37
610.215	15842.23
610.411	15727.55
610.606	15440.83
610.802	15756.22
610.998	15627.2
611.193	15901.62
611.389	15510.46
611.584	15406.02
611.78	15377.34
611.976	15301.57
612.171	15453.12
612.367	15324.1
612.562	15346.62
612.758	15229.89
612.953	15135.68
613.149	15408.06
613.344	15285.19
613.539	15213.51
613.735	15229.89
613.93	15107.01
614.126	15109.06
614.321	15281.09
614.517	15072.2
614.712	15037.38
614.907	15000.52
615.103	15133.64
615.298	14826.44
615.493	15070.15
615.688	14697.42
615.884	15150.02
616.079	14705.61
616.274	14918.6
616.47	14709.71
616.665	14945.22
616.86	14705.61
617.055	14750.67
617.25	14683.08
617.445	14748.62
617.641	14388.18
617.836	14502.86
618.031	14414.8
618.226	14543.82
618.421	14179.28
618.616	14592.97
618.811	14158.8
619.006	14410.7
619.201	14109.65
619.396	14339.02
619.591	13906.9
619.786	14164.95
619.981	13788.12
620.176	13794.26
620.371	13872.09
620.566	13980.63
620.761	13820.89
620.956	13831.13
621.151	13491.16
621.346	13874.13
621.541	13517.79
621.735	13378.53
621.93	13329.38
622.125	13489.12
622.32	13183.97
622.515	13356
622.709	13190.11
622.904	13120.48
623.099	13011.94
623.294	13081.57
623.488	12923.88
623.683	12936.17
623.878	12817.38
624.072	12815.34
624.267	12692.46
624.462	12626.92
624.656	12477.42
624.851	12448.75
625.046	12270.58
625.24	12401.65
625.435	12198.9
625.629	12157.94
625.824	12053.49
626.018	12151.79
626.213	11639.8
626.407	12213.23
626.602	11891.7
626.796	11697.14
626.991	11707.38
627.185	11910.13
627.38	11586.55
627.574	11539.45
627.768	11435
627.963	11615.23
628.157	11240.45
628.352	11463.68
628.546	11133.95
628.74	11287.55
628.935	11158.53
629.129	11004.93
629.323	10892.29
629.517	10978.31
629.712	10976.26
629.906	10982.4
630.1	10923.01
630.294	10828.81
630.489	10617.86
630.683	10691.59
630.877	10499.08
631.071	10468.36
631.265	10454.03
631.459	10439.69
631.653	10361.87
631.848	10269.71
632.042	9964.56
632.236	10218.51
632.43	10107.92
632.624	10343.44
632.818	10124.3
633.012	9841.68
633.206	9884.69
633.4	10071.06
633.594	9686.04
633.788	9833.49
633.982	9808.92
634.176	9843.73
634.369	9612.31
634.563	9528.35
634.757	9753.62
634.951	9683.99
635.145	9466.91
635.339	9403.42
635.533	9350.17
635.726	9210.91
635.92	9141.28
636.114	9403.42
636.308	9280.54
636.501	9180.19
636.695	9063.46
636.889	8860.71
637.083	9188.38
637.276	8791.08
637.47	9032.74
637.664	8895.52
637.857	9030.69
638.051	8803.36
638.244	8631.33
638.438	8573.99
638.632	8672.29
638.825	8621.1
639.019	8598.57
639.212	8477.74
639.406	8573.99
639.599	8313.9
639.793	8395.82
639.986	8326.19
640.18	8297.52
640.373	8387.63
640.567	8143.92
640.76	8223.79
640.954	8215.6
641.147	8078.38
641.34	8059.95
641.534	7869.49
641.727	7957.55
641.92	7957.55
642.114	7896.11
642.307	7775.28
642.5	7722.04
642.694	7541.82
642.887	7705.65
643.08	7760.95
643.273	7558.2
643.467	7547.96
643.66	7486.52
643.853	7502.9
644.046	7445.56
644.239	7570.49
644.432	7398.46
644.626	7586.87
644.819	7337.02
645.012	7463.99
645.205	7195.71
645.398	7287.87
645.591	7001.15
645.784	7189.56
645.977	7066.69
646.17	7162.94
646.363	7064.64
646.556	7033.92
646.749	6851.65
646.942	6964.29
647.135	6853.7
647.328	6786.12
647.521	6874.18
647.714	6767.68
647.907	6884.42
648.099	6913.09
648.292	6673.48
648.485	6607.94
648.678	6521.93
648.871	6601.8
649.064	6673.48
649.256	6526.02
649.449	6442.06
649.642	6356.04
649.835	6437.96
650.027	6382.67
650.22	6376.52
650.413	6325.32
650.605	6370.38
650.798	6130.77
650.991	6161.48
651.183	6216.78
651.376	6239.31
651.568	6188.11
651.761	6122.57
651.954	6204.49
652.146	6102.09
652.339	6120.53
652.531	5903.44
652.724	6020.17
652.916	5870.67
653.109	5805.14
653.301	5858.39
653.494	5925.97
653.686	5803.09
653.879	5846.1
654.071	5764.18
654.263	5577.81
654.456	5749.84
654.648	5737.56
654.84	5768.27
655.033	5602.39
655.225	5510.23
655.417	5454.94
655.61	5502.04
655.802	5342.3
655.994	5473.37
656.186	5446.74
656.379	5332.06
656.571	5172.32
656.763	5383.26
656.955	5323.87
657.148	5475.42
657.34	5438.55
657.532	5219.42
657.724	5287
657.916	5196.89
658.108	5172.32
658.3	5057.63
658.492	5127.26
658.684	5084.25
658.876	5147.74
659.068	5121.12
659.26	5000.29
659.452	5096.54
659.644	4865.12
659.836	4918.37
660.028	4942.94
660.22	4815.97
660.412	4852.83
660.604	4865.12
660.796	4797.54
660.988	4824.16
661.18	4758.63
661.372	4742.24
661.563	4654.18
661.755	4641.89
661.947	4736.1
662.139	4750.43
662.331	4545.64
662.522	4693.09
662.714	4615.27
662.906	4598.88
663.097	4607.08
663.289	4410.47
663.481	4373.61
663.673	4500.58
663.864	4547.69
664.056	4346.98
664.247	4396.14
664.439	4414.57
664.631	4424.81
664.822	4400.23
665.014	4349.03
665.205	4349.03
665.397	4197.48
665.588	4287.59
665.78	4164.72
665.971	4197.48
666.163	4449.38
666.354	4220.01
666.546	4211.82
666.737	4164.72
666.929	4232.3
667.12	4127.85
667.311	4029.55
667.503	4070.51
667.694	4174.95
667.885	3933.29
668.077	3957.87
668.268	3908.72
668.459	3923.05
668.651	4021.36
668.842	3972.21
669.033	3884.14
669.224	3927.15
669.416	3970.16
669.607	3892.34
669.798	3851.38
669.989	3880.05
670.18	3976.3
670.371	3789.94
670.563	3816.56
670.754	3830.9
670.945	3724.4
671.136	3767.41
671.327	3718.26
671.518	3841.14
671.709	3755.12
671.9	3726.45
672.091	3759.22
672.282	3644.53
672.473	3654.77
672.664	3583.09
672.855	3783.79
673.046	3689.59
673.237	3861.62
673.428	3626.1
673.619	3533.94
673.809	3636.34
674	3533.94
674.191	3603.57
674.382	3503.22
674.573	3693.68
674.764	3560.56
674.954	3654.77
675.145	3533.94
675.336	3632.24
675.527	3632.24
675.717	3452.02
675.908	3466.36
676.099	3560.56
676.289	3609.72
676.48	3488.89
676.671	3351.67
676.861	3542.13
677.052	3480.69
677.243	3447.93
677.433	3343.48
677.624	3370.1
677.814	3435.64
678.005	3511.41
678.195	3449.97
678.386	3284.09
678.576	3372.15
678.767	3363.96
678.957	3349.62
679.148	3376.25
679.338	3372.15
679.529	3325.05
679.719	3402.87
679.909	3415.16
680.1	3370.1
680.29	3425.4
680.481	3366.01
680.671	3308.66
680.861	3368.06
681.052	3222.65
681.242	3374.2
681.432	3234.94
681.622	3212.41
681.813	3361.91
682.003	3265.66
682.193	3247.23
682.383	3271.8
682.573	3249.27
682.764	3226.75
682.954	3275.9
683.144	3239.03
683.334	3253.37
683.524	3288.18
683.714	3210.36
683.904	3249.27
684.094	3267.7
684.284	3136.63
684.474	3230.84
684.664	3140.73
684.854	3171.45
685.044	3200.12
685.234	3112.06
685.424	3179.64
685.614	3181.69
685.804	3085.44
685.994	3017.85
686.184	3255.42
686.374	2987.13
686.564	2956.41
686.753	3099.77
686.943	2980.99
687.133	2985.09
687.323	2995.32
687.513	3015.8
687.702	3011.71
687.892	2778.24
688.082	2890.88
688.272	2952.32
688.461	2907.26
688.651	2927.74
688.841	2843.78
689.03	2827.39
689.22	2923.65
689.41	2913.41
689.599	2802.82
689.789	2890.88
689.979	2808.96
690.168	2794.62
690.358	2765.95
690.547	2696.32
690.737	2743.42
690.926	2688.13
691.116	2653.31
691.305	2604.16
691.495	2563.2
691.684	2694.27
691.874	2759.81
692.063	2657.41
692.252	2659.46
692.442	2604.16
692.631	2557.06
692.82	2620.55
693.01	2464.9
693.199	2587.78
693.388	2444.42
693.578	2526.34
693.767	2624.64
693.956	2542.72
694.146	2489.48
694.335	2415.75
694.524	2464.9
694.713	2423.94
694.902	2395.27
695.092	2337.93
695.281	2425.99
695.47	2409.61
695.659	2413.7
695.848	2339.97
696.037	2268.3
696.226	2452.61
696.415	2339.97
696.604	2423.94
696.793	2241.67
696.982	2280.58
697.171	2260.1
697.36	2436.23
697.549	2215.05
697.738	2227.34
697.927	2229.38
698.116	2159.75
698.305	2260.1
698.494	2319.5
698.683	2174.09
698.872	2258.06
699.061	2337.93
699.25	2243.72
699.438	2227.34
699.627	2120.84
699.816	2229.38
700.005	2081.93
700.193	2217.1
700.382	2223.24
700.571	2192.52
700.76	2167.95
700.948	2290.82
701.137	2145.42
701.326	2180.23
701.514	2188.43
701.703	2237.58
701.892	2120.84
702.08	2141.32
702.269	2143.37
702.457	2047.12
702.646	2055.31
702.834	2153.61
703.023	2094.22
703.212	2124.94
703.4	2169.99
703.589	1944.72
703.777	2204.81
703.965	2100.36
704.154	2075.79
704.342	2165.9
704.531	2106.51
704.719	2040.97
704.907	2047.12
705.096	2096.27
705.284	2071.69
705.472	2083.98
705.661	2079.88
705.849	2227.34
706.037	2159.75
706.226	2118.79
706.414	2182.28
706.602	2147.47
706.79	2088.07
706.979	2059.4
707.167	2112.65
707.355	2213
707.543	2061.45
707.731	2141.32
707.919	2102.41
708.107	2083.98
708.296	2176.14
708.484	2049.16
708.672	2077.83
708.86	2129.03
709.048	2137.23
709.236	2073.74
709.424	2081.93
709.612	2165.9
709.8	2049.16
709.988	2063.5
710.176	2241.67
710.364	2241.67
710.551	2108.55
710.739	2086.03
710.927	2106.51
711.115	2014.35
711.303	2180.23
711.491	2167.95
711.679	2137.23
711.866	2094.22
712.054	2317.45
712.242	2006.16
712.43	2194.57
712.617	2065.55
712.805	2059.4
712.993	2098.31
713.181	2131.08
713.368	2143.37
713.556	2210.95
713.744	2178.19
713.931	2356.36
714.119	2184.33
714.306	2241.67
714.494	2225.29
714.682	2172.04
714.869	2133.13
715.057	2194.57
715.244	2264.2
715.432	2210.95
715.619	2342.02
715.807	2225.29
715.994	2169.99
716.182	2161.8
716.369	2319.5
716.556	2227.34
716.744	2202.76
716.931	2213
717.119	2233.48
717.306	2241.67
717.493	2323.59
717.681	2315.4
717.868	2260.1
718.055	2358.41
718.242	2280.58
718.43	2329.74
718.617	2280.58
718.804	2292.87
718.991	2313.35
719.179	2292.87
719.366	2301.06
719.553	2317.45
719.74	2313.35
719.927	2245.77
720.114	2256.01
720.301	2335.88
720.488	2309.26
720.676	2432.13
720.863	2227.34
721.05	2469
721.237	2309.26
721.424	2286.73
721.611	2305.16
721.798	2251.91
721.985	2266.25
722.172	2241.67
722.358	2346.12
722.545	2333.83
722.732	2342.02
722.919	2403.46
723.106	2350.21
723.293	2333.83
723.48	2395.27
723.667	2364.55
723.853	2405.51
724.04	2325.64
724.227	2395.27
724.414	2382.98
724.6	2370.69
724.787	2413.7
724.974	2432.13
725.161	2487.43
725.347	2354.31
725.534	2391.17
725.72	2436.23
725.907	2423.94
726.094	2442.37
726.28	2452.61
726.467	2395.27
726.653	2417.8
726.84	2382.98
727.027	2532.48
727.213	2344.07
727.4	2497.67
727.586	2405.51
727.773	2423.94
727.959	2462.85
728.145	2446.47
728.332	2485.38
728.518	2471.04
728.705	2419.85
728.891	2524.29
729.077	2540.68
729.264	2446.47
729.45	2352.26
729.636	2497.67
729.823	2430.09
730.009	2397.32
730.195	2446.47
730.382	2487.43
730.568	2434.18
730.754	2503.81
730.94	2489.48
731.126	2438.28
731.313	2559.11
731.499	2407.56
731.685	2456.71
731.871	2518.15
732.057	2567.3
732.243	2458.76
732.429	2456.71
732.615	2524.29
732.801	2638.98
732.987	2444.42
733.173	2509.96
733.359	2509.96
733.545	2423.94
733.731	2479.24
733.917	2444.42
734.103	2593.92
734.289	2518.15
734.475	2475.14
734.661	2499.72
734.847	2413.7
735.033	2499.72
735.219	2428.04
735.404	2430.09
735.59	2608.26
735.776	2538.63
735.962	2483.33
736.148	2565.25
736.333	2495.62
736.519	2382.98
736.705	2462.85
736.89	2456.71
737.076	2460.81
737.262	2444.42
737.447	2503.81
737.633	2356.36
737.819	2653.31
738.004	2466.95
738.19	2497.67
738.375	2460.81
738.561	2430.09
738.747	2456.71
738.932	2452.61
739.118	2499.72
739.303	2491.52
739.489	2397.32
739.674	2419.85
739.859	2409.61
740.045	2415.75
740.23	2364.55
740.416	2436.23
740.601	2493.57
740.786	2475.14
740.972	2409.61
741.157	2348.17
741.342	2325.64
741.528	2430.09
741.713	2339.97
741.898	2325.64
742.084	2374.79
742.269	2362.5
742.454	2249.86
742.639	2415.75
742.824	2249.86
743.01	2260.1
743.195	2317.45
743.38	2321.54
743.565	2399.37
743.75	2350.21
743.935	2176.14
744.12	2309.26
744.305	2296.97
744.49	2192.52
744.675	2184.33
744.86	2339.97
745.045	2192.52
745.23	2165.9
745.415	2194.57
745.6	2200.71
745.785	2139.27
745.97	2139.27
746.155	2161.8
746.34	2118.79
746.525	2133.13
746.71	2188.43
746.895	2032.78
747.079	2112.65
747.264	2096.27
747.449	2057.36
747.634	2083.98
747.819	2157.71
748.003	2071.69
748.188	1979.53
748.373	2049.16
748.557	1957
748.742	2022.54
748.927	1993.87
749.111	2030.73
749.296	2000.01
749.481	1938.57
749.665	2067.6
749.85	1975.44
750.034	1866.89
750.219	1932.43
750.404	1854.61
750.588	1916.05
750.773	1795.22
750.957	1807.5
751.141	1940.62
751.326	1907.85
751.51	1809.55
751.695	1768.59
751.879	1690.77
752.064	1832.08
752.248	1705.1
752.432	1774.74
752.617	1735.82
752.801	1684.62
752.985	1768.59
753.17	1625.23
753.354	1789.07
753.538	1662.1
753.722	1678.48
753.907	1629.33
754.091	1604.75
754.275	1545.36
754.459	1752.21
754.643	1604.75
754.828	1649.81
755.012	1576.08
755.196	1567.89
755.38	1588.37
755.564	1477.78
755.748	1512.6
755.932	1533.08
756.116	1514.64
756.3	1539.22
756.484	1404.05
756.668	1465.49
756.852	1518.74
757.036	1440.92
757.22	1508.5
757.404	1461.4
757.588	1385.62
757.772	1377.43
757.956	1406.1
758.14	1469.59
758.323	1414.29
758.507	1320.09
758.691	1383.57
758.875	1393.81
759.059	1244.31
759.242	1391.77
759.426	1344.66
759.61	1315.99
759.794	1305.75
759.977	1258.65
760.161	1281.18
760.345	1367.19
760.528	1291.41
760.712	1238.17
760.895	1236.12
761.079	1264.79
761.263	1197.21
761.446	1246.36
761.63	1221.78
761.813	1285.27
761.997	1232.02
762.18	1223.83
762.364	1266.84
762.547	1207.45
762.731	1227.93
762.914	1170.58
763.098	1105.05
763.281	1189.02
763.464	1215.64
763.648	1109.15
763.831	1059.99
764.015	1186.97
764.198	1148.06
764.381	1121.43
764.564	1057.95
764.748	1076.38
764.931	1039.51
765.114	1252.5
765.297	1232.02
765.481	1094.81
765.664	1184.92
765.847	1156.25
766.03	1109.15
766.213	1111.19
766.397	1092.76
766.58	1037.47
766.763	1168.54
766.946	982.17
767.129	1072.28
767.312	1125.53
767.495	1117.34
767.678	1047.71
767.861	1082.52
768.044	1047.71
768.227	1051.8
768.41	980.12
768.593	976.03
768.776	1025.18
768.959	1084.57
769.142	935.07
769.324	988.32
769.507	947.36
769.69	949.4
769.873	928.92
770.056	912.54
770.239	1016.99
770.421	1035.42
770.604	949.4
770.787	959.64
770.97	957.6
771.152	867.49
771.335	1010.84
771.518	892.06
771.7	842.91
771.883	935.07
772.066	922.78
772.248	967.84
772.431	849.05
772.613	855.2
772.796	900.25
772.978	840.86
773.161	836.77
773.343	799.9
773.526	914.59
773.708	842.91
773.891	883.87
774.073	826.53
774.256	916.64
774.438	898.2
774.621	797.85
774.803	847.01
774.985	896.16
775.168	795.81
775.35	746.66
775.532	765.09
775.715	763.04
775.897	783.52
776.079	783.52
776.261	812.19
776.444	726.18
776.626	724.13
776.808	752.8
776.99	693.41
777.173	783.52
777.355	748.7
777.537	689.31
777.719	758.94
777.901	791.71
778.083	674.98
778.265	666.78
778.447	713.89
778.629	687.26
778.811	654.5
778.993	746.66
779.175	717.98
779.357	646.3
779.539	615.59
779.721	638.11
779.903	711.84
780.085	668.83
780.267	625.83
780.449	619.68
780.631	588.96
780.812	662.69
780.994	636.06
781.176	644.26
781.358	603.3
781.54	627.87
781.721	529.57
781.903	634.02
782.085	615.59
782.267	541.86
782.448	580.77
782.63	552.1
782.812	617.63
782.993	498.85
783.175	613.54
783.357	488.61
783.538	603.3
783.72	504.99
783.901	482.47
784.083	558.24
784.264	511.14
784.446	480.42
784.627	646.3
784.809	461.99
784.99	468.13
785.172	513.19
785.353	521.38
785.535	466.08
785.716	457.89
785.897	496.8
786.079	431.27
786.26	441.51
786.441	468.13
786.623	470.18
786.804	455.84
786.985	521.38
787.167	486.56
787.348	482.47
787.529	472.23
787.71	447.65
787.891	390.31
788.073	455.84
788.254	421.03
788.435	431.27
788.616	416.93
788.797	384.16
788.978	464.04
789.159	400.55
789.34	464.04
789.522	371.88
789.703	355.49
789.884	431.27
790.065	447.65
790.246	355.49
790.427	441.51
790.607	408.74
790.788	427.17
790.969	371.88
791.15	433.32
791.331	339.11
791.512	402.6
791.693	402.6
791.874	392.36
792.054	371.88
792.235	425.12
792.416	365.73
792.597	269.48
792.778	306.34
792.958	363.69
793.139	365.73
793.32	429.22
793.5	287.91
793.681	343.21
793.862	355.49
794.042	373.92
794.223	322.73
794.404	335.01
794.584	328.87
794.765	337.06
794.945	408.74
795.126	322.73
795.306	402.6
795.487	312.49
795.667	335.01
795.848	339.11
796.028	294.05
796.209	339.11
796.389	306.34
796.57	343.21
796.75	357.54
796.93	343.21
797.111	306.34
797.291	289.96
797.471	249
797.652	335.01
797.832	326.82
798.012	261.29
798.192	277.67
798.373	320.68
798.553	408.74
798.733	261.29
798.913	306.34
799.093	283.81
799.274	310.44
799.454	318.63
799.634	249
799.814	281.77
799.994	242.85
800.174	281.77
800.354	265.38
800.534	265.38
800.714	261.29
800.894	210.09
801.074	240.81
801.254	230.57
801.434	216.23
801.614	226.47
801.794	216.23
801.974	511.14
802.154	242.85
802.334	353.45
802.514	228.52
802.693	218.28
802.873	162.98
803.053	216.23
803.233	193.7
803.413	285.86
803.592	269.48
803.772	236.71
803.952	171.18
804.131	179.37
804.311	222.38
804.491	224.42
804.67	298.15
804.85	205.99
805.03	308.39
805.209	273.57
805.389	191.66
805.568	222.38
805.748	162.98
805.928	210.09
806.107	212.14
806.287	224.42
806.466	195.75
806.646	238.76
806.825	185.51
807.004	298.15
807.184	228.52
807.363	238.76
807.543	273.57
807.722	226.47
807.901	228.52
808.081	261.29
808.26	224.42
808.439	236.71
808.619	201.9
808.798	236.71
808.977	220.33
809.156	224.42
809.336	257.19
809.515	171.18
809.694	119.98
809.873	195.75
810.052	183.46
810.231	228.52
810.411	162.98
810.59	130.22
810.769	160.94
810.948	195.75
811.127	122.02
811.306	236.71
811.485	205.99
811.664	150.7
811.843	142.5
812.022	181.42
812.201	173.22
812.38	218.28
812.559	144.55
812.737	185.51
812.916	62.63
813.095	142.5
813.274	111.78
813.453	152.74
813.632	220.33
813.811	242.85
813.989	138.41
814.168	115.88
814.347	185.51
814.526	179.37
814.704	142.5
814.883	191.66
815.062	146.6
815.24	234.66
815.419	162.98
815.598	62.63
815.776	156.84
815.955	171.18
816.133	187.56
816.312	136.36
816.49	224.42
816.669	105.64
816.847	160.94
817.026	171.18
817.204	56.49
817.383	144.55
817.561	48.3
817.74	148.65
817.918	119.98
818.097	138.41
818.275	119.98
818.453	185.51
818.632	93.35
818.81	105.64
818.988	162.98
819.167	138.41
819.345	158.89
819.523	113.83
819.701	91.31
819.879	171.18
820.058	144.55
820.236	197.8
820.414	64.68
820.592	154.79
820.77	119.98
820.948	154.79
821.127	50.35
821.305	103.59
821.483	154.79
821.661	146.6
821.839	140.46
822.017	113.83
822.195	93.35
822.373	134.31
822.551	68.78
822.729	156.84
822.907	105.64
823.085	79.02
823.262	1.19
823.44	15.53
823.618	158.89
823.796	109.74
823.974	72.87
824.152	113.83
824.329	52.39
824.507	103.59
824.685	132.26
824.863	130.22
825.04	40.11
825.218	113.83
825.396	48.3
825.574	113.83
825.751	64.68
825.929	93.35
826.107	31.91
826.284	152.74
826.462	93.35
826.639	74.92
826.817	29.87
826.994	107.69
827.172	87.21
827.349	128.17
827.527	148.65
827.704	87.21
827.882	54.44
828.059	89.26
828.237	150.7
828.414	66.73
828.591	103.59
828.769	111.78
828.946	128.17
829.124	105.64
829.301	101.55
829.478	113.83
829.655	132.26
829.833	115.88
830.01	79.02
830.187	95.4
830.364	44.2
830.542	85.16
830.719	134.31
830.896	101.55
831.073	117.93
831.25	138.41
831.427	167.08
831.604	91.31
831.782	50.35
831.959	64.68
832.136	74.92
832.313	62.63
832.49	117.93
832.667	70.83
832.844	60.59
833.021	122.02
833.198	134.31
833.374	70.83
833.551	76.97
833.728	19.63
833.905	154.79
834.082	36.01
834.259	62.63
834.436	48.3
834.612	-0.85
834.789	97.45
834.966	89.26
835.143	60.59
835.319	21.67
835.496	119.98
835.673	126.12
835.85	136.36
836.026	54.44
836.203	126.12
836.38	136.36
836.556	130.22
836.733	48.3
836.909	87.21
837.086	154.79
837.262	76.97
837.439	46.25
837.616	74.92
837.792	64.68
837.968	107.69
838.145	111.78
838.321	60.59
838.498	101.55
838.674	87.21
838.851	56.49
839.027	54.44
839.203	87.21
839.38	25.77
839.556	89.26
839.732	42.15
839.909	-15.19
840.085	154.79
840.261	89.26
840.437	42.15
840.614	87.21
840.79	11.43
840.966	36.01
841.142	113.83
841.318	40.11
841.494	66.73
841.671	68.78
841.847	23.72
842.023	27.82
842.199	76.97
842.375	50.35
842.551	97.45
842.727	1.19
842.903	62.63
843.079	-29.52
843.255	111.78
843.431	83.11
843.607	85.16
843.783	3.24
843.959	72.87
844.134	103.59
844.31	146.6
844.486	74.92
844.662	89.26
844.838	-2.9
845.013	64.68
845.189	15.53
845.365	126.12
845.541	52.39
845.716	81.07
845.892	62.63
846.068	17.58
846.244	23.72
846.419	115.88
846.595	-7
846.77	9.39
846.946	-0.85
847.122	44.2
847.297	5.29
847.473	66.73
847.648	29.87
847.824	60.59
847.999	44.2
848.175	-2.9
848.35	38.06
848.526	93.35
848.701	48.3
848.876	76.97
849.052	46.25
849.227	-21.33
849.403	83.11
849.578	76.97
849.753	-29.52
849.929	31.91
850.104	23.72
850.279	93.35
850.454	68.78
850.63	68.78
850.805	68.78
850.98	64.68
851.155	-35.67
851.33	11.43
851.505	21.67
851.681	48.3
851.856	-9.05
852.031	97.45
852.206	76.97
852.381	-2.9
852.556	31.91
852.731	-9.05
852.906	52.39
853.081	27.82
853.256	31.91
853.431	109.74
853.606	105.64
853.781	83.11
853.956	31.91
854.131	44.2
854.305	-33.62
854.48	13.48
854.655	7.34
854.83	-2.9
855.005	91.31
855.18	31.91
855.354	13.48
855.529	60.59
855.704	33.96
855.879	48.3
856.053	33.96
856.228	66.73
856.403	23.72
856.577	64.68
856.752	36.01
856.926	21.67
857.101	-9.05
857.276	85.16
857.45	64.68
857.625	62.63
857.799	85.16
857.974	27.82
858.148	23.72
858.323	83.11
858.497	70.83
858.672	7.34
858.846	3.24
859.02	36.01
859.195	5.29
859.369	81.07
859.543	-50
859.718	36.01
859.892	-4.95
860.066	3.24
860.241	-0.85
860.415	5.29
860.589	5.29
860.763	-27.48
860.938	48.3
861.112	7.34
861.286	11.43
861.46	83.11
861.634	3.24
861.808	87.21
861.982	68.78
862.157	5.29
862.331	-37.72
862.505	-45.91
862.679	9.39
862.853	1.19
863.027	64.68
863.201	48.3
863.375	-54.1
863.549	48.3
863.722	19.63
863.896	72.87
864.07	19.63
864.244	-7
864.418	31.91
864.592	56.49
864.766	58.54
864.939	46.25
865.113	56.49
865.287	42.15
865.461	52.39
865.634	50.35
865.808	11.43
865.982	-2.9
866.156	-11.09
866.329	-47.96
866.503	-9.05
866.676	38.06
866.85	11.43
867.024	11.43
867.197	-2.9
867.371	74.92
867.544	52.39
867.718	13.48
867.891	36.01
868.065	-35.67
868.238	-7
868.412	74.92
868.585	23.72
868.759	52.39
868.932	-11.09
869.105	-54.1
869.279	31.91
869.452	11.43
869.625	-25.43
869.799	-11.09
869.972	-60.24
870.145	-9.05
870.319	1.19
870.492	-99.16
870.665	72.87
870.838	11.43
871.011	-29.52
871.185	-25.43
871.358	52.39
871.531	70.83
871.704	56.49
871.877	48.3
872.05	15.53
872.223	1.19
872.396	144.55
872.569	-11.09
872.742	11.43
872.915	27.82
873.088	-25.43
873.261	19.63
873.434	-21.33
873.607	7.34
873.78	68.78
873.953	-21.33
874.126	27.82
874.299	66.73
874.471	11.43
874.644	27.82
874.817	7.34
874.99	111.78
875.163	36.01
875.335	66.73
875.508	7.34
875.681	-13.14
875.853	-27.48
876.026	7.34
876.199	7.34
876.371	11.43
876.544	17.58
876.717	-74.58
876.889	-4.95
877.062	87.21
877.234	-39.76
877.407	1.19
877.579	1.19
877.752	72.87
877.924	-39.76
878.097	40.11
878.269	29.87
878.442	21.67
878.614	-4.95
878.786	-0.85
878.959	50.35
879.131	-11.09
879.303	56.49
879.476	3.24
879.648	-0.85
879.82	-4.95
879.993	48.3
880.165	68.78
880.337	-4.95
880.509	29.87
880.681	31.91
880.854	27.82
881.026	42.15
881.198	-0.85
881.37	44.2
881.542	64.68
881.714	19.63
881.886	-7
882.058	-29.52
882.23	-2.9
882.402	40.11
882.574	29.87
882.746	-29.52
882.918	-52.05
883.09	-4.95
883.262	-19.29
883.434	-15.19
883.606	25.77
883.778	-25.43
883.95	99.5
884.122	19.63
884.293	23.72
884.465	25.77
884.637	1.19
884.809	-17.24
884.98	54.44
885.152	-13.14
885.324	1.19
885.496	48.3
885.667	-35.67
885.839	31.91
886.011	1.19
886.182	-19.29
886.354	23.72
886.525	36.01
886.697	23.72
886.869	-84.82
887.04	25.77
887.212	36.01
887.383	27.82
887.555	-11.09
887.726	21.67
887.897	-9.05
888.069	38.06
888.24	31.91
888.412	-84.82
888.583	-58.2
888.754	-4.95
888.926	-9.05
889.097	5.29
889.268	31.91
889.44	31.91
889.611	97.45
889.782	-60.24
889.953	40.11
890.125	29.87
890.296	3.24
890.467	48.3
890.638	17.58
890.809	-13.14
890.98	7.34
891.151	-19.29
891.323	25.77
891.494	25.77
891.665	50.35
891.836	25.77
892.007	-66.39
892.178	44.2
892.349	-25.43
892.52	-52.05
892.691	-2.9
892.862	46.25
893.032	-21.33
893.203	38.06
893.374	-11.09
893.545	44.2
893.716	-9.05
893.887	-15.19
894.057	44.2
894.228	19.63
894.399	15.53
894.57	15.53
894.74	5.29
894.911	-2.9
895.082	44.2
895.253	13.48
895.423	48.3
895.594	3.24
895.764	48.3
895.935	23.72
896.106	-4.95
896.276	33.96
896.447	9.39
896.617	-41.81
896.788	33.96
896.958	-29.52
897.129	-31.57
897.299	-13.14
897.47	11.43
897.64	58.54
897.81	-17.24
897.981	1.19
898.151	-4.95
898.322	-23.38
898.492	-50
898.662	1.19
898.832	13.48
899.003	-9.05
899.173	-17.24
899.343	1.19
899.513	5.29
