Data from USB4F104151__78__11-37-39-799.txt Node

Date: Fri Mar 14 11:37:39 EDT 2025
User: louis
Spectrometer: USB4F10415
Trigger mode: 4
Integration Time (sec): 2.000000E-2
Scans to average: 1
Electric dark correction enabled: true
Nonlinearity correction enabled: false
Boxcar width: 0
XAxis mode: Wavelengths
Number of Pixels in Spectrum: 3648
>>>>>Begin Spectral Data<<<<<
178.204	-93.01
178.424	-93.01
178.644	-93.01
178.864	-86.87
179.084	-74.58
179.304	25.77
179.524	42.15
179.744	19.63
179.964	113.83
180.184	-56.15
180.404	-33.62
180.624	-19.29
180.844	-95.06
181.064	-54.1
181.283	19.63
181.503	9.39
181.723	27.82
181.943	-35.67
182.163	58.54
182.383	9.39
182.602	31.91
182.822	56.49
183.042	-56.15
183.262	-52.05
183.482	21.67
183.701	-2.9
183.921	-7
184.141	-0.85
184.361	83.11
184.58	50.35
184.8	44.2
185.02	-7
185.239	9.39
185.459	23.72
185.679	-76.63
185.898	-47.96
186.118	27.82
186.338	23.72
186.557	1.19
186.777	-23.38
186.997	38.06
187.216	-13.14
187.436	64.68
187.655	27.82
187.875	5.29
188.095	-29.52
188.314	52.39
188.534	124.07
188.753	1.19
188.973	-13.14
189.192	-21.33
189.412	31.91
189.631	3.24
189.851	25.77
190.07	36.01
190.29	-0.85
190.509	-7
190.729	-37.72
190.948	-4.95
191.168	54.44
191.387	1.19
191.607	-50
191.826	36.01
192.045	42.15
192.265	36.01
192.484	-15.19
192.704	11.43
192.923	-131.92
193.142	-13.14
193.362	1.19
193.581	33.96
193.8	126.12
194.02	1.19
194.239	-11.09
194.458	11.43
194.678	-13.14
194.897	87.21
195.116	-43.86
195.335	60.59
195.555	56.49
195.774	76.97
195.993	29.87
196.212	-9.05
196.432	-13.14
196.651	38.06
196.87	-23.38
197.089	99.5
197.308	60.59
197.528	11.43
197.747	42.15
197.966	-9.05
198.185	68.78
198.404	19.63
198.623	54.44
198.842	56.49
199.062	27.82
199.281	33.96
199.5	19.63
199.719	58.54
199.938	31.91
200.157	19.63
200.376	68.78
200.595	17.58
200.814	13.48
201.033	-17.24
201.252	91.31
201.471	19.63
201.69	19.63
201.909	-70.48
202.128	-13.14
202.347	101.55
202.566	25.77
202.785	44.2
203.004	-78.68
203.223	42.15
203.442	68.78
203.661	60.59
203.879	-31.57
204.098	54.44
204.317	5.29
204.536	58.54
204.755	17.58
204.974	-25.43
205.193	-0.85
205.411	68.78
205.63	-9.05
205.849	36.01
206.068	27.82
206.287	7.34
206.505	85.16
206.724	-43.86
206.943	36.01
207.162	-19.29
207.381	9.39
207.599	58.54
207.818	-33.62
208.037	-37.72
208.255	-4.95
208.474	-0.85
208.693	31.91
208.911	-19.29
209.13	81.07
209.349	-23.38
209.567	-15.19
209.786	-9.05
210.005	-4.95
210.223	25.77
210.442	19.63
210.661	72.87
210.879	-13.14
211.098	1.19
211.316	-7
211.535	19.63
211.753	-2.9
211.972	42.15
212.191	-4.95
212.409	83.11
212.628	-4.95
212.846	52.39
213.065	15.53
213.283	64.68
213.502	-9.05
213.72	89.26
213.938	70.83
214.157	-2.9
214.375	25.77
214.594	97.45
214.812	5.29
215.031	50.35
215.249	-27.48
215.467	31.91
215.686	66.73
215.904	126.12
216.122	54.44
216.341	50.35
216.559	-27.48
216.778	-17.24
216.996	52.39
217.214	17.58
217.432	19.63
217.651	29.87
217.869	3.24
218.087	36.01
218.306	-50
218.524	36.01
218.742	-2.9
218.96	62.63
219.179	-4.95
219.397	52.39
219.615	42.15
219.833	42.15
220.051	33.96
220.27	27.82
220.488	-15.19
220.706	-33.62
220.924	13.48
221.142	-7
221.36	19.63
221.578	17.58
221.796	15.53
222.015	-27.48
222.233	7.34
222.451	109.74
222.669	-19.29
222.887	40.11
223.105	5.29
223.323	9.39
223.541	-29.52
223.759	19.63
223.977	-4.95
224.195	109.74
224.413	27.82
224.631	27.82
224.849	5.29
225.067	44.2
225.285	33.96
225.503	85.16
225.721	-13.14
225.939	-33.62
226.157	27.82
226.375	74.92
226.592	27.82
226.81	7.34
227.028	-0.85
227.246	79.02
227.464	33.96
227.682	33.96
227.9	60.59
228.117	81.07
228.335	-0.85
228.553	38.06
228.771	19.63
228.989	-7
229.206	11.43
229.424	42.15
229.642	-62.29
229.86	-7
230.077	-13.14
230.295	-4.95
230.513	-7
230.731	9.39
230.948	54.44
231.166	76.97
231.384	40.11
231.601	-9.05
231.819	25.77
232.037	25.77
232.254	42.15
232.472	-0.85
232.689	27.82
232.907	-19.29
233.125	58.54
233.342	7.34
233.56	13.48
233.777	48.3
233.995	-11.09
234.213	62.63
234.43	70.83
234.648	21.67
234.865	1.19
235.083	1.19
235.3	-25.43
235.518	54.44
235.735	-17.24
235.953	46.25
236.17	42.15
236.388	-7
236.605	42.15
236.822	81.07
237.04	27.82
237.257	-21.33
237.475	-0.85
237.692	72.87
237.909	23.72
238.127	38.06
238.344	17.58
238.562	3.24
238.779	-4.95
238.996	42.15
239.214	33.96
239.431	119.98
239.648	19.63
239.865	42.15
240.083	38.06
240.3	1.19
240.517	44.2
240.735	19.63
240.952	83.11
241.169	33.96
241.386	-31.57
241.603	31.91
241.821	60.59
242.038	-7
242.255	99.5
242.472	42.15
242.689	17.58
242.907	64.68
243.124	1.19
243.341	-9.05
243.558	-13.14
243.775	46.25
243.992	44.2
244.209	74.92
244.426	27.82
244.643	52.39
244.86	52.39
245.078	33.96
245.295	11.43
245.512	52.39
245.729	7.34
245.946	15.53
246.163	36.01
246.38	76.97
246.597	-37.72
246.814	17.58
247.031	60.59
247.248	27.82
247.464	-29.52
247.681	-35.67
247.898	15.53
248.115	62.63
248.332	-11.09
248.549	23.72
248.766	48.3
248.983	11.43
249.2	21.67
249.417	-19.29
249.633	-56.15
249.85	124.07
250.067	64.68
250.284	76.97
250.501	76.97
250.717	36.01
250.934	-0.85
251.151	-33.62
251.368	-37.72
251.585	40.11
251.801	-4.95
252.018	40.11
252.235	76.97
252.451	-29.52
252.668	27.82
252.885	64.68
253.102	19.63
253.318	-43.86
253.535	17.58
253.752	-4.95
253.968	-47.96
254.185	-2.9
254.401	1.19
254.618	56.49
254.835	-4.95
255.051	52.39
255.268	21.67
255.484	36.01
255.701	23.72
255.917	68.78
256.134	-39.76
256.351	56.49
256.567	11.43
256.784	105.64
257	-54.1
257.217	-9.05
257.433	31.91
257.65	66.73
257.866	-35.67
258.082	15.53
258.299	-37.72
258.515	72.87
258.732	-70.48
258.948	-7
259.165	-15.19
259.381	-7
259.597	58.54
259.814	31.91
260.03	109.74
260.246	33.96
260.463	21.67
260.679	40.11
260.895	-13.14
261.112	31.91
261.328	-15.19
261.544	-41.81
261.761	40.11
261.977	11.43
262.193	7.34
262.409	25.77
262.626	19.63
262.842	19.63
263.058	13.48
263.274	-21.33
263.49	48.3
263.707	27.82
263.923	60.59
264.139	44.2
264.355	33.96
264.571	19.63
264.787	23.72
265.004	85.16
265.22	9.39
265.436	27.82
265.652	7.34
265.868	21.67
266.084	-29.52
266.3	-25.43
266.516	-13.14
266.732	40.11
266.948	25.77
267.164	21.67
267.38	5.29
267.596	46.25
267.812	93.35
268.028	95.4
268.244	11.43
268.46	27.82
268.676	5.29
268.892	-11.09
269.108	-7
269.324	70.83
269.54	-19.29
269.756	7.34
269.972	-23.38
270.188	5.29
270.403	31.91
270.619	42.15
270.835	83.11
271.051	29.87
271.267	21.67
271.483	42.15
271.698	42.15
271.914	156.84
272.13	-23.38
272.346	15.53
272.562	33.96
272.777	15.53
272.993	91.31
273.209	-25.43
273.425	48.3
273.64	89.26
273.856	15.53
274.072	27.82
274.287	-64.34
274.503	33.96
274.719	3.24
274.934	40.11
275.15	11.43
275.366	36.01
275.581	33.96
275.797	21.67
276.012	15.53
276.228	31.91
276.444	42.15
276.659	56.49
276.875	-47.96
277.09	33.96
277.306	23.72
277.521	25.77
277.737	-35.67
277.952	36.01
278.168	48.3
278.383	15.53
278.599	44.2
278.814	38.06
279.03	29.87
279.245	-4.95
279.461	33.96
279.676	42.15
279.892	-39.76
280.107	-37.72
280.322	58.54
280.538	27.82
280.753	21.67
280.969	25.77
281.184	17.58
281.399	44.2
281.615	68.78
281.83	7.34
282.045	50.35
282.26	70.83
282.476	85.16
282.691	81.07
282.906	9.39
283.122	-25.43
283.337	-21.33
283.552	54.44
283.767	13.48
283.983	60.59
284.198	-2.9
284.413	-4.95
284.628	83.11
284.843	25.77
285.058	-21.33
285.274	109.74
285.489	23.72
285.704	25.77
285.919	-43.86
286.134	33.96
286.349	74.92
286.564	3.24
286.779	103.59
286.995	21.67
287.21	13.48
287.425	17.58
287.64	81.07
287.855	31.91
288.07	-7
288.285	-7
288.5	99.5
288.715	-0.85
288.93	3.24
289.145	40.11
289.36	19.63
289.575	97.45
289.79	72.87
290.004	-45.91
290.219	-9.05
290.434	-52.05
290.649	3.24
290.864	44.2
291.079	-7
291.294	111.78
291.509	54.44
291.724	29.87
291.938	-29.52
292.153	3.24
292.368	50.35
292.583	48.3
292.798	3.24
293.012	21.67
293.227	-13.14
293.442	-33.62
293.657	21.67
293.871	60.59
294.086	19.63
294.301	52.39
294.516	44.2
294.73	66.73
294.945	9.39
295.16	70.83
295.374	48.3
295.589	-35.67
295.804	17.58
296.018	-25.43
296.233	58.54
296.447	7.34
296.662	40.11
296.877	7.34
297.091	-4.95
297.306	13.48
297.52	44.2
297.735	25.77
297.949	15.53
298.164	33.96
298.378	23.72
298.593	-15.19
298.807	-27.48
299.022	72.87
299.236	3.24
299.451	9.39
299.665	58.54
299.88	23.72
300.094	68.78
300.309	-7
300.523	15.53
300.737	-23.38
300.952	44.2
301.166	9.39
301.381	-15.19
301.595	33.96
301.809	15.53
302.024	33.96
302.238	17.58
302.452	52.39
302.667	38.06
302.881	48.3
303.095	-47.96
303.309	105.64
303.524	13.48
303.738	19.63
303.952	50.35
304.166	-0.85
304.381	-9.05
304.595	-31.57
304.809	46.25
305.023	21.67
305.237	7.34
305.452	50.35
305.666	-27.48
305.88	52.39
306.094	-33.62
306.308	29.87
306.522	42.15
306.736	68.78
306.95	3.24
307.164	52.39
307.379	64.68
307.593	58.54
307.807	-4.95
308.021	9.39
308.235	64.68
308.449	-2.9
308.663	-23.38
308.877	91.31
309.091	42.15
309.305	60.59
309.519	48.3
309.733	62.63
309.947	17.58
310.161	76.97
310.374	93.35
310.588	46.25
310.802	21.67
311.016	13.48
311.23	58.54
311.444	99.5
311.658	52.39
311.872	42.15
312.085	52.39
312.299	7.34
312.513	31.91
312.727	50.35
312.941	-9.05
313.154	42.15
313.368	52.39
313.582	7.34
313.796	21.67
314.009	9.39
314.223	44.2
314.437	52.39
314.651	13.48
314.864	27.82
315.078	60.59
315.292	-33.62
315.505	-19.29
315.719	56.49
315.933	50.35
316.146	29.87
316.36	-13.14
316.573	11.43
316.787	25.77
317.001	23.72
317.214	9.39
317.428	79.02
317.641	60.59
317.855	91.31
318.068	9.39
318.282	1.19
318.495	64.68
318.709	15.53
318.922	38.06
319.136	72.87
319.349	3.24
319.563	-41.81
319.776	17.58
319.99	-31.57
320.203	42.15
320.417	52.39
320.63	-33.62
320.843	38.06
321.057	29.87
321.27	50.35
321.483	7.34
321.697	25.77
321.91	58.54
322.124	11.43
322.337	40.11
322.55	48.3
322.763	36.01
322.977	-9.05
323.19	-41.81
323.403	144.55
323.617	21.67
323.83	-45.91
324.043	23.72
324.256	19.63
324.469	-33.62
324.683	-7
324.896	3.24
325.109	64.68
325.322	7.34
325.535	19.63
325.748	11.43
325.962	-33.62
326.175	17.58
326.388	48.3
326.601	64.68
326.814	15.53
327.027	-11.09
327.24	-9.05
327.453	40.11
327.666	56.49
327.879	85.16
328.092	91.31
328.305	27.82
328.518	-2.9
328.731	42.15
328.944	115.88
329.157	-11.09
329.37	56.49
329.583	56.49
329.796	9.39
330.009	-29.52
330.222	1.19
330.435	89.26
330.648	40.11
330.861	31.91
331.073	-7
331.286	-35.67
331.499	-43.86
331.712	-7
331.925	44.2
332.138	36.01
332.35	5.29
332.563	25.77
332.776	72.87
332.989	15.53
333.202	42.15
333.414	-27.48
333.627	15.53
333.84	-29.52
334.053	15.53
334.265	-80.72
334.478	21.67
334.691	50.35
334.903	-21.33
335.116	3.24
335.329	64.68
335.541	52.39
335.754	76.97
335.966	25.77
336.179	-17.24
336.392	42.15
336.604	60.59
336.817	7.34
337.029	83.11
337.242	-35.67
337.454	-25.43
337.667	11.43
337.88	64.68
338.092	-0.85
338.305	-23.38
338.517	48.3
338.729	33.96
338.942	156.84
339.154	27.82
339.367	7.34
339.579	91.31
339.792	-50
340.004	33.96
340.217	1.19
340.429	56.49
340.641	44.2
340.854	21.67
341.066	9.39
341.278	91.31
341.491	85.16
341.703	31.91
341.915	81.07
342.128	64.68
342.34	68.78
342.552	1.19
342.764	17.58
342.977	27.82
343.189	38.06
343.401	91.31
343.613	27.82
343.826	-19.29
344.038	25.77
344.25	3.24
344.462	-33.62
344.674	1.19
344.886	42.15
345.099	-2.9
345.311	27.82
345.523	9.39
345.735	15.53
345.947	42.15
346.159	-17.24
346.371	91.31
346.583	-4.95
346.795	50.35
347.007	9.39
347.219	42.15
347.431	44.2
347.643	111.78
347.855	70.83
348.067	54.44
348.279	-2.9
348.491	1.19
348.703	58.54
348.915	93.35
349.127	19.63
349.339	21.67
349.551	3.24
349.763	76.97
349.975	33.96
350.187	33.96
350.399	50.35
350.61	119.98
350.822	117.93
351.034	23.72
351.246	70.83
351.458	33.96
351.669	56.49
351.881	56.49
352.093	17.58
352.305	42.15
352.517	25.77
352.728	1.19
352.94	11.43
353.152	81.07
353.363	-4.95
353.575	-2.9
353.787	21.67
353.999	36.01
354.21	138.41
354.422	7.34
354.633	13.48
354.845	54.44
355.057	-54.1
355.268	40.11
355.48	5.29
355.692	-0.85
355.903	36.01
356.115	50.35
356.326	25.77
356.538	38.06
356.749	79.02
356.961	76.97
357.172	52.39
357.384	11.43
357.595	70.83
357.807	-37.72
358.018	-23.38
358.23	-41.81
358.441	81.07
358.653	126.12
358.864	29.87
359.075	-21.33
359.287	19.63
359.498	38.06
359.709	-0.85
359.921	46.25
360.132	40.11
360.344	3.24
360.555	-11.09
360.766	85.16
360.977	19.63
361.189	21.67
361.4	91.31
361.611	36.01
361.823	-13.14
362.034	38.06
362.245	-56.15
362.456	19.63
362.667	70.83
362.879	81.07
363.09	27.82
363.301	68.78
363.512	40.11
363.723	113.83
363.935	52.39
364.146	3.24
364.357	113.83
364.568	5.29
364.779	64.68
364.99	56.49
365.201	52.39
365.412	19.63
365.623	33.96
365.834	79.02
366.045	89.26
366.256	52.39
366.467	74.92
366.678	36.01
366.889	7.34
367.1	60.59
367.311	64.68
367.522	1.19
367.733	3.24
367.944	21.67
368.155	54.44
368.366	17.58
368.577	79.02
368.788	11.43
368.999	68.78
369.209	42.15
369.42	167.08
369.631	107.69
369.842	5.29
370.053	64.68
370.264	3.24
370.474	62.63
370.685	3.24
370.896	27.82
371.107	19.63
371.317	25.77
371.528	99.5
371.739	36.01
371.95	54.44
372.16	62.63
372.371	-9.05
372.582	64.68
372.792	17.58
373.003	-19.29
373.214	97.45
373.424	17.58
373.635	89.26
373.846	101.55
374.056	9.39
374.267	17.58
374.477	-25.43
374.688	36.01
374.898	33.96
375.109	19.63
375.319	76.97
375.53	15.53
375.74	33.96
375.951	56.49
376.161	17.58
376.372	17.58
376.582	-7
376.793	58.54
377.003	-23.38
377.214	101.55
377.424	68.78
377.635	48.3
377.845	3.24
378.055	81.07
378.266	5.29
378.476	58.54
378.686	87.21
378.897	33.96
379.107	-13.14
379.317	138.41
379.528	3.24
379.738	66.73
379.948	81.07
380.158	15.53
380.369	95.4
380.579	1.19
380.789	36.01
380.999	62.63
381.21	11.43
381.42	76.97
381.63	-4.95
381.84	19.63
382.05	124.07
382.261	46.25
382.471	42.15
382.681	-62.29
382.891	79.02
383.101	3.24
383.311	15.53
383.521	64.68
383.731	91.31
383.941	33.96
384.151	66.73
384.361	68.78
384.571	48.3
384.781	17.58
384.991	89.26
385.201	66.73
385.411	93.35
385.621	72.87
385.831	36.01
386.041	66.73
386.251	50.35
386.461	101.55
386.671	5.29
386.881	97.45
387.091	-62.29
387.301	81.07
387.511	19.63
387.72	31.91
387.93	85.16
388.14	-4.95
388.35	60.59
388.56	40.11
388.769	56.49
388.979	52.39
389.189	42.15
389.399	33.96
389.609	103.59
389.818	85.16
390.028	95.4
390.238	91.31
390.447	56.49
390.657	132.26
390.867	-7
391.076	64.68
391.286	81.07
391.496	58.54
391.705	27.82
391.915	95.4
392.125	95.4
392.334	40.11
392.544	93.35
392.753	85.16
392.963	42.15
393.172	126.12
393.382	72.87
393.591	9.39
393.801	83.11
394.01	15.53
394.22	74.92
394.429	101.55
394.639	44.2
394.848	152.74
395.058	52.39
395.267	103.59
395.477	85.16
395.686	130.22
395.895	52.39
396.105	156.84
396.314	44.2
396.524	48.3
396.733	152.74
396.942	109.74
397.152	119.98
397.361	50.35
397.57	42.15
397.78	48.3
397.989	85.16
398.198	103.59
398.407	105.64
398.617	60.59
398.826	1.19
399.035	44.2
399.244	60.59
399.453	70.83
399.663	93.35
399.872	128.17
400.081	109.74
400.29	126.12
400.499	109.74
400.708	130.22
400.917	167.08
401.127	70.83
401.336	66.73
401.545	66.73
401.754	70.83
401.963	117.93
402.172	165.03
402.381	83.11
402.59	76.97
402.799	74.92
403.008	105.64
403.217	66.73
403.426	81.07
403.635	95.4
403.844	154.79
404.053	74.92
404.262	117.93
404.471	152.74
404.68	134.31
404.888	68.78
405.097	150.7
405.306	179.37
405.515	97.45
405.724	154.79
405.933	171.18
406.142	140.46
406.35	148.65
406.559	111.78
406.768	197.8
406.977	142.5
407.185	165.03
407.394	232.62
407.603	167.08
407.812	236.71
408.02	277.67
408.229	279.72
408.438	316.58
408.646	335.01
408.855	320.68
409.064	287.91
409.272	216.23
409.481	308.39
409.69	294.05
409.898	357.54
410.107	298.15
410.315	363.69
410.524	244.9
410.733	320.68
410.941	371.88
411.15	433.32
411.358	435.36
411.567	492.71
411.775	447.65
411.984	402.6
412.192	439.46
412.401	406.69
412.609	421.03
412.818	521.38
413.026	502.95
413.234	537.76
413.443	576.67
413.651	629.92
413.86	607.39
414.068	640.16
414.276	623.78
414.485	681.12
414.693	691.36
414.901	660.64
415.11	789.66
415.318	736.42
415.526	722.08
415.734	801.95
415.943	855.2
416.151	890.01
416.359	881.82
416.567	924.83
416.776	904.35
416.984	984.22
417.192	1045.66
417.4	1027.23
417.608	1037.47
417.817	1074.33
418.025	1189.02
418.233	1203.35
418.441	1160.34
418.649	1168.54
418.857	1268.89
419.065	1426.58
419.273	1344.66
419.481	1334.42
419.689	1539.22
419.897	1481.88
420.105	1510.55
420.313	1590.42
420.521	1688.72
420.729	1686.67
420.937	1733.78
421.145	1817.74
421.353	2008.2
421.561	2043.02
421.769	2020.49
421.977	2225.29
422.185	2141.32
422.393	2247.82
422.601	2407.56
422.809	2247.82
423.017	2399.37
423.224	2528.39
423.432	2555.01
423.64	2548.87
423.848	2833.54
424.056	2847.87
424.263	3005.56
424.471	3015.8
424.679	3056.76
424.887	3206.27
425.094	3335.29
425.302	3374.2
425.51	3476.6
425.718	3556.47
425.925	3550.32
426.133	3656.82
426.341	4054.12
426.548	4095.08
426.756	4125.8
426.964	4121.71
427.171	4424.81
427.379	4467.81
427.586	4557.93
427.794	4734.05
428.001	4889.7
428.209	5147.74
428.417	5160.03
428.624	5551.19
428.832	5411.93
429.039	5424.22
429.247	5405.78
429.454	5966.93
429.662	6188.11
429.869	5956.69
430.076	6423.62
430.284	6069.33
430.491	6456.39
430.699	6751.3
430.906	6982.72
431.114	6968.38
431.321	7160.89
431.528	7240.76
431.736	7638.07
431.943	8066.1
432.15	7736.37
432.358	7951.41
432.565	8426.54
432.772	8301.61
432.979	8737.83
433.187	8838.18
433.394	9020.45
433.601	9679.89
433.808	9587.74
434.016	9731.09
434.223	9956.37
434.43	10497.03
434.637	10398.73
434.844	10984.45
435.052	11246.59
435.259	11162.62
435.466	11301.89
435.673	11146.24
435.88	11731.96
436.087	12391.41
436.294	12520.43
436.501	12155.89
436.708	12422.13
436.915	12874.73
437.122	13603.8
437.329	13321.18
437.537	13849.56
437.743	14146.51
437.95	13880.28
438.157	14732.23
438.364	15143.88
438.571	15270.85
438.778	14990.28
438.985	16483.25
439.192	16155.57
439.399	16497.58
439.606	16090.04
439.813	17015.72
440.02	18271.12
440.227	17996.7
440.433	17709.98
440.64	18480.02
440.847	18230.16
441.054	18615.18
441.261	19665.79
441.467	19248
441.674	19886.97
441.881	20663.15
442.088	20763.5
442.294	20110.2
442.501	21029.74
442.708	21316.45
442.914	22014.81
443.121	22999.88
443.328	22582.1
443.534	24107.83
443.741	23184.2
443.948	23006.03
444.154	25037.61
444.361	24441.65
444.568	24699.7
444.774	24953.65
444.981	25068.33
445.187	25514.79
445.394	26929.94
445.6	26663.7
445.807	28748.53
446.013	27888.39
446.22	28453.62
446.426	29047.54
446.633	29711.08
446.839	30460.63
447.046	29455.08
447.252	30767.83
447.459	31005.39
447.665	30792.4
447.871	32238.27
448.078	33450.67
448.284	31969.99
448.491	32889.52
448.697	34294.43
448.903	34726.55
449.11	34976.4
449.316	34429.6
449.522	34972.31
449.728	35422.86
449.935	36196.99
450.141	35742.35
450.347	36819.58
450.553	35805.83
450.76	36248.19
450.966	37366.38
451.172	37007.99
451.378	37816.94
451.584	36790.91
451.791	37978.73
451.997	37945.96
452.203	38285.92
452.409	38230.63
452.615	38249.06
452.821	36541.05
453.027	36592.25
453.233	38562.4
453.44	36991.61
453.646	37368.43
453.852	37659.24
454.058	38355.55
454.264	36981.37
454.47	37677.68
454.676	36371.07
454.882	37730.92
455.088	34650.78
455.294	35283.6
455.5	35744.39
455.705	35846.79
455.911	34917.01
456.117	34196.13
456.323	33622.7
456.529	31767.24
456.735	33432.24
456.941	32279.23
457.147	31924.93
457.352	30874.32
457.558	30536.41
457.764	30503.64
457.97	30087.9
458.176	29379.31
458.381	29397.74
458.587	27949.82
458.793	27904.77
458.999	26397.46
459.204	28242.68
459.41	27781.89
459.616	25645.86
459.821	25932.57
460.027	25854.75
460.233	25518.89
460.438	24048.44
460.644	23853.89
460.85	23266.12
461.055	23180.1
461.261	22803.28
461.466	21144.42
461.672	20472.69
461.878	21996.38
462.083	20532.08
462.289	19846.01
462.494	19884.92
462.7	18932.62
462.905	18502.54
463.111	18936.71
463.316	19100.55
463.522	18650
463.727	18586.51
463.932	18664.33
464.138	18561.94
464.343	18746.25
464.549	17752.99
464.754	18803.6
464.959	18420.63
465.165	18447.25
465.37	17562.53
465.575	17142.69
465.781	17998.74
465.986	17759.13
466.191	17300.39
466.397	16944.04
466.602	15969.21
466.807	16569.26
467.012	16872.36
467.218	16436.14
467.423	16331.7
467.628	16493.49
467.833	17187.75
468.038	16556.97
468.244	16249.78
468.449	16839.59
468.654	16452.53
468.859	16360.37
469.064	15819.71
469.269	15348.67
469.474	15395.78
469.679	15709.11
469.885	15238.08
470.09	15573.95
470.295	15358.91
470.5	15213.51
470.705	15107.01
470.91	14689.23
471.115	14595.02
471.32	14986.18
471.525	14717.9
471.73	14318.54
471.935	14232.53
472.139	13853.66
472.344	14162.9
472.549	13865.94
472.754	13790.17
472.959	13458.4
473.164	13196.26
473.369	13102.05
473.574	13466.59
473.778	13568.99
473.983	13192.16
474.188	13351.9
474.393	12639.21
474.598	12815.34
474.802	12375.02
475.007	12602.35
475.212	12596.2
475.417	11918.32
475.621	12006.39
475.826	11889.65
476.031	11826.17
476.235	11463.68
476.44	11742.2
476.645	11535.35
476.849	11527.16
477.054	11467.77
477.259	11095.04
477.463	11121.66
477.668	10998.79
477.872	10871.81
478.077	10976.26
478.282	10685.45
478.486	10540.04
478.691	10417.16
478.895	10474.51
479.1	10480.65
479.304	10492.94
479.509	10163.22
479.713	10431.5
479.918	10001.43
480.122	9976.85
480.326	10095.63
480.531	10165.26
480.735	9911.32
480.94	9870.36
481.144	10054.67
481.348	9913.36
481.553	9561.11
481.757	9593.88
481.961	9886.74
482.166	9921.56
482.37	9952.27
482.574	9643.03
482.778	9591.83
482.983	9886.74
483.187	9557.02
483.391	9593.88
483.595	9600.02
483.8	9526.3
484.004	9616.41
484.208	9774.1
484.412	9618.46
484.616	9964.56
484.821	9677.85
485.025	9411.61
485.229	9718.81
485.433	9665.56
485.637	9737.24
485.841	9825.3
486.045	9616.41
486.249	9509.91
486.453	9440.28
486.657	9802.77
486.861	9727
487.065	9212.96
487.269	9700.37
487.473	9444.38
487.677	9473.05
487.881	9583.64
488.085	9712.66
488.289	9708.57
488.493	9483.29
488.697	9749.53
488.901	9739.29
489.105	9796.63
489.309	9628.7
489.512	9749.53
489.716	9683.99
489.92	9784.34
490.124	9661.46
490.328	10077.2
490.531	9808.92
490.735	9864.21
490.939	10224.65
491.143	9946.13
491.346	9700.37
491.55	10062.87
491.754	9964.56
491.958	10091.54
492.161	9917.46
492.365	10116.11
492.569	10128.4
492.772	10093.58
492.976	10273.81
493.18	10273.81
493.383	10228.75
493.587	10365.96
493.79	10574.86
493.994	10435.6
494.197	10562.57
494.401	10767.37
494.605	10597.38
494.808	10722.31
495.012	10763.27
495.215	10757.13
495.419	10750.98
495.622	10877.96
495.825	11365.37
496.029	10976.26
496.232	11271.17
496.436	11357.18
496.639	11791.35
496.843	11289.6
497.046	11744.25
497.249	11985.91
497.453	11944.95
497.656	11899.89
497.859	11860.98
498.063	11936.76
498.266	12360.69
498.469	12270.58
498.673	12563.43
498.876	12760.04
499.079	12790.76
499.282	12731.37
499.485	13186.02
499.689	13130.72
499.892	13353.95
500.095	13368.29
500.298	13640.67
500.501	13560.8
500.705	13880.28
500.908	13839.32
501.111	14169.04
501.314	14253.01
501.517	14367.7
501.72	14689.23
501.923	14414.8
502.126	14793.67
502.329	15272.9
502.532	15072.2
502.735	15449.02
502.938	15377.34
503.141	15655.87
503.344	16077.75
503.547	15698.88
503.75	16155.57
503.953	16227.25
504.156	16518.06
504.359	16751.53
504.562	16632.75
504.765	17040.29
504.968	17218.47
505.17	17212.32
505.373	17415.07
505.576	17861.53
505.779	17937.3
505.982	17779.61
506.185	18357.14
506.387	18434.96
506.59	18627.47
506.793	18867.08
506.996	19051.4
507.198	19143.56
507.401	19295.11
507.604	19506.05
507.807	20059
508.009	20018.04
508.212	20108.15
508.415	20345.72
508.617	20493.17
508.82	20908.91
509.022	20663.15
509.225	20960.11
509.428	21498.72
509.63	21408.61
509.833	21607.26
510.035	22227.8
510.238	22010.71
510.44	22221.66
510.643	22547.28
510.845	23096.14
511.048	22715.22
511.25	23235.4
511.453	23122.76
511.655	23935.81
511.858	23870.27
512.06	23878.46
512.262	24177.47
512.465	23878.46
512.667	24501.04
512.87	24834.86
513.072	24632.11
513.274	25078.57
513.477	25531.17
513.679	25457.45
513.881	25828.13
514.084	26301.21
514.286	26194.71
514.488	26286.87
514.69	27108.11
514.893	26936.08
515.095	27194.12
515.297	27521.8
515.499	27499.27
515.701	27712.26
515.904	28144.38
516.106	27917.06
516.308	28230.4
516.51	28746.48
516.712	28703.48
516.914	29121.26
517.116	29702.89
517.318	29760.23
517.52	29606.63
517.722	29881.06
517.925	30245.6
518.127	30391
518.329	30606.04
518.531	30313.18
518.733	31191.76
518.935	31392.46
519.136	31517.39
519.338	32051.91
519.54	32211.65
519.742	32076.48
519.944	32035.52
520.146	32844.47
520.348	32836.28
520.55	33034.93
520.752	33151.66
520.954	33831.59
521.155	33460.91
521.357	34278.05
521.559	34081.44
521.761	34650.78
521.963	34298.53
522.164	34626.2
522.366	34654.87
522.568	35191.44
522.77	35527.31
522.971	36076.16
523.173	35709.58
523.375	35951.24
523.576	36061.83
523.778	36399.74
523.98	36831.86
524.181	36676.22
524.383	36653.69
524.584	37225.07
524.786	36936.31
524.988	36852.34
525.189	37366.38
525.391	37403.25
525.592	37907.05
525.794	38339.17
525.995	37984.87
526.197	37599.85
526.398	38181.48
526.6	38148.71
526.801	38412.9
527.003	38769.24
527.204	38613.6
527.406	38935.13
527.607	38883.93
527.808	39297.62
528.01	38654.56
528.211	38943.32
528.412	39836.23
528.614	39363.15
528.815	39371.35
529.016	39813.71
529.218	39373.39
529.419	39613.01
529.62	39934.54
529.822	39733.84
530.023	39877.19
530.224	40163.91
530.425	39746.12
530.626	39961.16
530.828	39785.04
531.029	40778.3
531.23	39916.11
531.431	40227.4
531.632	40149.57
531.833	40524.35
532.035	40333.89
532.236	40518.21
532.437	40737.34
532.638	40010.31
532.839	40876.6
533.04	40751.68
533.241	40217.16
533.442	40919.61
533.643	40530.5
533.844	40661.57
534.045	40784.44
534.246	40137.29
534.447	40923.71
534.648	40364.61
534.849	40815.16
535.05	40710.72
535.251	40811.07
535.451	40444.48
535.652	40622.65
535.853	40325.7
536.054	40817.21
536.255	40870.46
536.456	40753.72
536.657	40935.99
536.857	40716.86
537.058	40669.76
537.259	40938.04
537.46	40956.47
537.66	40352.32
537.861	40614.46
538.062	40718.91
538.263	40710.72
538.463	40411.71
538.664	40624.7
538.865	40704.57
539.065	40841.79
539.266	40239.68
539.466	41243.19
539.667	40438.34
539.868	41089.59
540.068	40739.39
540.269	40684.09
540.469	40862.27
540.67	40610.37
540.87	40782.4
541.071	40579.65
541.271	40723.01
541.472	40493.63
541.672	40213.06
541.873	40301.12
542.073	39436.88
542.274	40897.08
542.474	40876.6
542.675	40217.16
542.875	40659.52
543.075	40424
543.276	40188.49
543.476	41001.53
543.676	40485.44
543.877	40211.01
544.077	40352.32
544.277	40540.74
544.478	40421.95
544.678	40249.92
544.878	40192.58
545.078	40378.95
545.279	39897.67
545.479	40174.15
545.679	40591.94
545.879	40530.5
546.079	40395.33
546.28	40432.19
546.48	40073.8
546.68	40401.47
546.88	40491.58
547.08	40008.26
547.28	39735.88
547.48	40278.6
547.68	39993.93
547.88	39981.64
548.081	40208.97
548.281	40026.7
548.481	40321.6
548.681	40303.17
548.881	40264.26
549.081	40028.74
549.28	39776.84
549.48	40231.49
549.68	40079.94
549.88	40886.84
550.08	39723.6
550.28	40041.03
550.48	40125
550.68	39850.57
550.88	40002.12
551.08	40059.46
551.279	39629.39
551.479	39672.4
551.679	40120.9
551.879	39672.4
552.079	40079.94
552.278	39502.42
552.478	39809.61
552.678	39926.35
552.878	39850.57
553.077	39547.47
553.277	39363.15
553.477	40260.16
553.676	39699.02
553.876	40032.84
554.076	39707.21
554.275	39561.81
554.475	39324.24
554.674	39866.95
554.874	39864.91
555.074	39623.25
555.273	39637.58
555.473	39682.64
555.672	39367.25
555.872	39760.46
556.071	39658.06
556.271	39385.68
556.47	39246.42
556.67	38890.07
556.869	39408.21
557.068	39256.66
557.268	39049.81
557.467	39385.68
557.667	39131.73
557.866	39101.01
558.065	39045.72
558.265	38947.42
558.464	38851.16
558.663	39068.25
558.863	38466.14
559.062	39297.62
559.261	38597.21
559.461	38875.74
559.66	38453.86
559.859	38683.23
560.058	38672.99
560.258	38371.94
560.457	38183.52
560.656	38810.2
560.855	38552.16
561.054	38873.69
561.253	38181.48
561.453	38548.06
561.652	38335.07
561.851	38462.05
562.05	37884.52
562.249	37808.75
562.448	38476.38
562.647	38208.1
562.846	37950.06
563.045	38158.95
563.244	38003.3
563.443	37905
563.642	37661.29
563.841	37714.54
564.04	37372.53
564.239	38347.36
564.438	37333.62
564.637	37616.24
564.836	37442.16
565.035	37077.62
565.234	37397.1
565.432	37302.9
565.631	37063.29
565.83	37263.99
566.029	37378.67
566.228	37014.13
566.427	36997.75
566.625	36751.99
566.824	36379.26
567.023	36930.17
567.222	36586.11
567.42	36997.75
567.619	36719.23
567.818	36188.8
568.016	36074.12
568.215	36772.47
568.414	36530.81
568.612	36485.76
568.811	35930.76
569.01	36215.43
569.208	36098.69
569.407	36303.49
569.605	36045.44
569.804	36270.72
570.002	35766.92
570.201	36190.85
570.4	35777.16
570.598	35340.94
570.797	35553.93
570.995	35648.14
571.193	35181.2
571.392	35744.39
571.59	35175.06
571.789	35361.42
571.987	35332.75
572.186	35144.34
572.384	34712.22
572.582	35201.68
572.781	35027.6
572.979	34380.45
573.177	34886.29
573.376	34857.62
573.574	34484.89
573.772	34779.8
573.971	34149.03
574.169	34439.84
574.367	34169.51
574.565	34255.52
574.763	33786.54
574.962	33825.45
575.16	33823.4
575.358	33950.37
575.556	33729.19
575.754	34108.07
575.952	33280.69
576.151	33989.28
576.349	33292.97
576.547	33366.7
576.745	33524.4
576.943	33407.66
577.141	33227.44
577.339	33688.23
577.537	33125.04
577.735	33313.45
577.933	33239.73
578.131	32795.32
578.329	32572.09
578.527	32725.69
578.725	32586.43
578.923	32842.42
579.121	32639.67
579.319	32783.03
579.516	32629.43
579.714	32334.53
579.912	32053.95
580.11	31980.23
580.308	32432.83
580.506	32262.85
580.704	31494.86
580.901	31740.61
581.099	32178.88
581.297	31531.72
581.495	31363.79
581.692	31763.14
581.89	31328.97
582.088	31519.43
582.285	31257.29
582.483	31544.01
582.681	31318.73
582.878	31038.16
583.076	30929.62
583.274	31369.93
583.471	30726.87
583.669	30976.72
583.866	30507.74
584.064	31343.31
584.262	30454.49
584.459	30767.83
584.657	30352.09
584.854	30704.34
585.052	30135.01
585.249	30489.31
585.447	30378.72
585.644	29782.76
585.841	30135.01
586.039	30409.43
586.236	29778.66
586.434	29821.67
586.631	29682.41
586.828	29573.86
587.026	29563.62
587.223	29790.95
587.42	29104.88
587.618	29248.24
587.815	29092.59
588.012	29072.11
588.21	28615.41
588.407	29242.09
588.604	28934.9
588.801	28898.03
588.999	28736.24
589.196	28547.83
589.393	28447.48
589.59	28680.95
589.787	28703.48
589.984	28754.68
590.182	28154.62
590.379	28322.55
590.576	27837.19
590.773	27996.93
590.97	27865.86
591.167	27998.98
591.364	27947.78
591.561	27980.54
591.758	27513.61
591.955	27953.92
592.152	27718.4
592.349	27638.53
592.546	27499.27
592.743	27575.05
592.94	26721.04
593.137	27437.83
593.334	27597.57
593.531	26819.35
593.727	27130.64
593.924	27200.27
594.121	26319.64
594.318	26946.32
594.515	26458.9
594.712	26802.96
594.908	26612.5
595.105	26641.17
595.302	26440.47
595.499	26278.68
595.696	26426.14
595.892	26233.63
596.089	26172.19
596.286	25895.71
596.482	26123.04
596.679	26012.45
596.876	25842.46
597.072	25836.32
597.269	25766.69
597.466	25615.14
597.662	25631.52
597.859	25334.57
598.055	25350.95
598.252	25479.97
598.448	25299.75
598.645	25078.57
598.841	24791.86
599.038	25056.04
599.234	24902.45
599.431	24822.58
599.627	24677.17
599.824	24992.56
600.02	24458.04
600.217	24613.68
600.413	24253.24
600.609	24480.57
600.806	24359.73
601.002	24333.11
601.198	24277.82
601.395	23968.57
601.591	23874.37
601.787	24152.89
601.984	23921.47
602.18	24062.78
602.376	23636.8
602.572	23786.3
602.769	23821.12
602.965	23489.35
603.161	23442.24
603.357	23345.99
603.553	23395.14
603.75	23321.41
603.946	23022.41
604.142	23518.02
604.338	22797.13
604.534	23241.54
604.73	22815.57
604.926	22956.88
605.122	23026.51
605.318	22537.04
605.514	22516.56
605.71	22555.47
605.906	22563.67
606.102	22469.46
606.298	22549.33
606.494	22354.77
606.69	22420.31
606.886	22420.31
607.082	22455.12
607.278	22039.39
607.474	21838.69
607.67	22129.5
607.866	21713.76
608.062	22113.11
608.257	21865.31
608.453	21908.32
608.649	22035.29
608.845	21701.47
609.041	21801.82
609.236	21891.93
609.432	21578.59
609.628	21736.29
609.824	21441.38
610.019	21328.74
610.215	21433.19
610.411	21527.39
610.606	21326.69
610.802	21494.63
610.998	21224.29
611.193	21109.61
611.389	21011.31
611.584	21013.35
611.78	20706.16
611.976	20919.15
612.171	21117.8
612.367	21222.25
612.562	21068.65
612.758	20888.43
612.953	21007.21
613.149	20857.71
613.344	20831.08
613.539	21132.14
613.735	20671.34
613.93	20738.93
614.126	20513.65
614.321	20611.95
614.517	20740.97
614.712	20808.56
614.907	20386.68
615.103	20599.66
615.298	20298.61
615.493	20693.87
615.688	20452.21
615.884	20411.25
616.079	20069.24
616.274	20562.8
616.47	20181.88
616.665	20419.44
616.86	20237.17
617.055	20009.85
617.25	19977.08
617.445	20372.34
617.641	20075.38
617.836	20145.02
618.031	19704.7
618.226	20044.66
618.421	19673.98
618.616	20171.64
618.811	19549.06
619.006	19714.94
619.201	19067.78
619.396	19667.84
619.591	19225.48
619.786	19458.95
619.981	18985.86
620.176	19438.47
620.371	19032.97
620.566	19229.57
620.761	18795.4
620.956	19022.73
621.151	18650
621.346	18813.84
621.541	18676.62
621.735	18600.85
621.93	18254.74
622.125	18514.83
622.32	18312.08
622.515	18307.99
622.709	18111.38
622.904	17984.41
623.099	17871.77
623.294	17730.46
623.488	17851.29
623.683	17652.64
623.878	17529.76
624.072	17464.22
624.267	17365.92
624.462	17130.41
624.656	17132.45
624.851	17329.06
625.046	16944.04
625.24	16788.39
625.435	16710.57
625.629	16898.98
625.824	16595.89
626.018	16686
626.213	16296.88
626.407	16434.1
626.602	16051.13
626.796	16202.68
626.991	16268.21
627.185	16321.46
627.38	15770.55
627.574	15987.64
627.768	15821.75
627.963	15641.53
628.157	15504.32
628.352	15520.7
628.546	15342.53
628.74	15524.8
628.935	15348.67
629.129	15276.99
629.323	15049.67
629.517	15186.88
629.712	15010.76
629.906	15139.78
630.1	14672.84
630.294	14883.78
630.489	14672.84
630.683	14865.35
630.877	14410.7
631.071	14316.5
631.265	14404.56
631.459	14261.2
631.653	14183.38
631.848	14046.16
632.042	13951.96
632.236	13990.87
632.43	13908.95
632.624	13751.26
632.818	13810.65
633.012	13560.8
633.206	13614.04
633.4	13525.98
633.594	13335.52
633.788	13542.36
633.982	13407.2
634.176	13229.02
634.369	13347.81
634.563	13167.59
634.757	12989.41
634.951	13083.62
635.145	13124.58
635.339	12944.36
635.533	12829.67
635.726	12829.67
635.92	12456.94
636.114	12602.35
636.308	12545
636.501	12702.7
636.695	12362.73
636.889	12461.04
637.083	12256.24
637.276	12157.94
637.47	12313.58
637.664	12213.23
637.857	12039.15
638.051	11947
638.244	11848.69
638.438	11920.37
638.632	11955.19
638.825	11867.13
639.019	11555.83
639.212	11480.06
639.406	11629.56
639.599	11734.01
639.793	11604.99
639.986	11478.01
640.18	11486.2
640.373	11209.73
640.567	11004.93
640.76	11111.43
640.954	11049.99
641.147	11142.14
641.34	11025.41
641.534	10980.36
641.727	10896.39
641.92	10904.58
642.114	10527.75
642.307	10839.05
642.5	10818.57
642.694	10499.08
642.887	10529.8
643.08	10533.9
643.273	10185.74
643.467	10234.89
643.66	10316.81
643.853	10400.78
644.046	10122.26
644.239	10185.74
644.432	10234.89
644.626	10052.63
644.819	10181.65
645.012	9892.88
645.205	9800.73
645.398	9896.98
645.591	9784.34
645.784	9888.79
645.977	9634.84
646.17	9614.36
646.363	9436.19
646.556	9559.06
646.749	9366.56
646.942	9415.71
647.135	9374.75
647.328	9284.64
647.521	9307.16
647.714	9260.06
647.907	9405.47
648.099	9233.44
648.292	9225.25
648.485	9251.87
648.678	9032.74
648.871	8944.67
649.064	9018.4
649.256	8991.78
649.449	8905.76
649.642	8789.03
649.835	8764.45
650.027	8862.76
650.22	8674.34
650.413	8655.91
650.605	8666.15
650.798	8696.87
650.991	8252.46
651.183	8502.31
651.376	8297.52
651.568	8303.66
651.761	8309.8
651.954	8143.92
652.146	8328.24
652.339	8074.29
652.531	8164.4
652.724	7889.97
652.916	7998.51
653.109	7932.98
653.301	8080.43
653.494	8033.33
653.686	7855.15
653.879	7838.77
654.071	7887.92
654.263	7797.81
654.456	7763
654.648	7799.86
654.84	7572.54
655.033	7515.19
655.225	7482.42
655.417	7345.21
655.61	7294.01
655.802	7318.59
655.994	7345.21
656.186	7296.06
656.379	7291.96
656.571	7210.04
656.763	7312.44
656.955	7203.9
657.148	7031.87
657.34	7216.19
657.532	7029.82
657.724	7097.41
657.916	7107.65
658.108	7212.09
658.3	6972.48
658.492	7023.68
658.684	6900.8
658.876	6841.41
659.068	6927.42
659.26	6839.36
659.452	6683.72
659.644	6693.96
659.836	6822.98
660.028	6513.74
660.22	6583.37
660.412	6556.74
660.604	6415.43
660.796	6444.1
660.988	6528.07
661.18	6517.83
661.372	6298.7
661.563	6427.72
661.755	6302.79
661.947	6181.96
662.139	6366.28
662.331	6394.95
662.522	6085.71
662.714	6186.06
662.906	6143.05
663.097	6075.47
663.289	5968.98
663.481	5995.6
663.673	6034.51
663.864	5938.26
664.056	5952.59
664.247	5923.92
664.439	5704.79
664.631	5897.3
664.822	5964.88
665.014	5807.19
665.205	5854.29
665.397	5803.09
665.588	5878.86
665.78	5860.43
665.971	5815.38
666.163	5749.84
666.354	5467.22
666.546	5606.49
666.737	5768.27
666.929	5504.09
667.12	5596.25
667.311	5426.26
667.503	5411.93
667.694	5278.81
667.885	5344.35
668.077	5459.03
668.268	5471.32
668.459	5182.56
668.651	5272.67
668.842	5465.18
669.033	5243.99
669.224	5217.37
669.416	5287
669.607	5266.52
669.798	5067.87
669.989	5229.66
670.18	5123.16
670.371	5096.54
670.563	4971.61
670.754	4953.18
670.945	5022.81
671.136	5061.73
671.327	5047.39
671.518	5022.81
671.709	4895.84
671.9	4985.95
672.091	4842.59
672.282	4746.34
672.473	4783.2
672.664	4914.27
672.855	4848.74
673.046	4797.54
673.237	4836.45
673.428	4756.58
673.619	4648.04
673.809	4660.32
674	4615.27
674.191	4627.56
674.382	4641.89
674.573	4799.59
674.764	4693.09
674.954	4529.25
675.145	4584.55
675.336	4711.52
675.527	4557.93
675.717	4725.86
675.908	4551.78
676.099	4467.81
676.289	4473.96
676.48	4609.12
676.671	4342.89
676.861	4295.79
677.052	4480.1
677.243	4359.27
677.433	4492.39
677.624	4279.4
677.814	4455.53
678.005	4365.42
678.195	4349.03
678.386	4334.7
678.576	4293.74
678.767	4129.9
678.957	4230.25
679.148	4420.71
679.338	4322.41
679.529	4295.79
679.719	4336.74
679.909	4342.89
680.1	4301.93
680.29	4230.25
680.481	4134
680.671	4068.46
680.861	4291.69
681.052	4164.72
681.242	4179.05
681.432	4113.52
681.622	3974.25
681.813	4099.18
682.003	4074.6
682.193	4129.9
682.383	3951.73
682.573	4086.89
682.764	4041.84
682.954	4095.08
683.144	4074.6
683.334	4025.45
683.524	3918.96
683.714	4090.99
683.904	3931.25
684.094	3955.82
684.284	3896.43
684.474	3959.92
684.664	3918.96
684.854	3851.38
685.044	3914.86
685.234	3839.09
685.424	3761.27
685.614	3687.54
685.804	3798.13
685.994	3804.27
686.184	3929.2
686.374	3763.31
686.564	3794.03
686.753	3634.29
686.943	3671.15
687.133	3738.74
687.323	3712.11
687.513	3658.87
687.702	3796.08
687.892	3546.23
688.082	3654.77
688.272	3591.28
688.461	3523.7
688.651	3554.42
688.841	3617.91
689.03	3515.51
689.22	3452.02
689.41	3490.93
689.599	3433.59
689.789	3390.58
689.979	3458.17
690.168	3376.25
690.358	3196.03
690.547	3337.34
690.737	3363.96
690.926	3384.44
691.116	3128.44
691.305	3214.46
691.495	3206.27
691.684	3361.91
691.874	3279.99
692.063	3257.46
692.252	3251.32
692.442	3204.22
692.631	3034.24
692.82	3161.21
693.01	3226.75
693.199	3124.35
693.388	3017.85
693.578	2993.28
693.767	3089.53
693.956	2976.89
694.146	3071.1
694.335	2972.8
694.524	3021.95
694.713	3087.48
694.902	2987.13
695.092	2999.42
695.281	3032.19
695.47	2942.08
695.659	2935.93
695.848	2829.44
696.037	2884.73
696.226	2876.54
696.415	2886.78
696.604	2843.78
696.793	2731.14
696.982	2919.55
697.171	2866.3
697.36	2862.21
697.549	2813.06
697.738	2681.99
697.927	2798.72
698.116	2802.82
698.305	2737.28
698.494	2727.04
698.683	2790.53
698.872	2813.06
699.061	2749.57
699.25	2718.85
699.438	2772.1
699.627	2825.34
699.816	2657.41
700.005	2833.54
700.193	2641.03
700.382	2714.75
700.571	2585.73
700.76	2761.86
700.948	2600.07
701.137	2626.69
701.326	2593.92
701.514	2632.83
701.703	2800.77
701.892	2665.6
702.08	2645.12
702.269	2598.02
702.457	2555.01
702.646	2536.58
702.834	2458.76
703.023	2555.01
703.212	2673.79
703.4	2608.26
703.589	2587.78
703.777	2573.44
703.965	2509.96
704.154	2546.82
704.342	2622.59
704.531	2677.89
704.719	2499.72
704.907	2598.02
705.096	2524.29
705.284	2641.03
705.472	2546.82
705.661	2561.16
705.849	2667.65
706.037	2569.35
706.226	2534.53
706.414	2471.04
706.602	2440.33
706.79	2581.64
706.979	2387.08
707.167	2526.34
707.355	2507.91
707.543	2555.01
707.731	2557.06
707.919	2544.77
708.107	2483.33
708.296	2540.68
708.484	2514.05
708.672	2530.44
708.86	2571.4
709.048	2430.09
709.236	2499.72
709.424	2669.7
709.612	2509.96
709.8	2477.19
709.988	2442.37
710.176	2485.38
710.364	2567.3
710.551	2436.23
710.739	2526.34
710.927	2507.91
711.115	2544.77
711.303	2491.52
711.491	2522.24
711.679	2473.09
711.866	2440.33
712.054	2593.92
712.242	2477.19
712.43	2522.24
712.617	2544.77
712.805	2452.61
712.993	2520.2
713.181	2395.27
713.368	2493.57
713.556	2550.92
713.744	2469
713.931	2632.83
714.119	2514.05
714.306	2540.68
714.494	2501.76
714.682	2507.91
714.869	2438.28
715.057	2479.24
715.244	2395.27
715.432	2638.98
715.619	2469
715.807	2509.96
715.994	2397.32
716.182	2407.56
716.369	2507.91
716.556	2479.24
716.744	2520.2
716.931	2579.59
717.119	2585.73
717.306	2417.8
717.493	2479.24
717.681	2507.91
717.868	2456.71
718.055	2464.9
718.242	2569.35
718.43	2436.23
718.617	2501.76
718.804	2509.96
718.991	2401.41
719.179	2419.85
719.366	2532.48
719.553	2552.96
719.74	2518.15
719.927	2425.99
720.114	2292.87
720.301	2542.72
720.488	2479.24
720.676	2409.61
720.863	2555.01
721.05	2501.76
721.237	2612.35
721.424	2516.1
721.611	2524.29
721.798	2477.19
721.985	2335.88
722.172	2288.78
722.358	2471.04
722.545	2481.28
722.732	2321.54
722.919	2423.94
723.106	2409.61
723.293	2501.76
723.48	2477.19
723.667	2385.03
723.853	2342.02
724.04	2520.2
724.227	2514.05
724.414	2333.83
724.6	2458.76
724.787	2458.76
724.974	2450.57
725.161	2382.98
725.347	2462.85
725.534	2509.96
725.72	2366.6
725.907	2362.5
726.094	2407.56
726.28	2483.33
726.467	2499.72
726.653	2546.82
726.84	2432.13
727.027	2540.68
727.213	2339.97
727.4	2415.75
727.586	2376.84
727.773	2419.85
727.959	2342.02
728.145	2401.41
728.332	2483.33
728.518	2464.9
728.705	2528.39
728.891	2425.99
729.077	2387.08
729.264	2419.85
729.45	2348.17
729.636	2352.26
729.823	2428.04
730.009	2366.6
730.195	2450.57
730.382	2370.69
730.568	2415.75
730.754	2315.4
730.94	2309.26
731.126	2514.05
731.313	2399.37
731.499	2368.65
731.685	2286.73
731.871	2401.41
732.057	2442.37
732.243	2350.21
732.429	2362.5
732.615	2395.27
732.801	2368.65
732.987	2444.42
733.173	2415.75
733.359	2333.83
733.545	2370.69
733.731	2335.88
733.917	2362.5
734.103	2333.83
734.289	2274.44
734.475	2428.04
734.661	2370.69
734.847	2301.06
735.033	2307.21
735.219	2358.41
735.404	2315.4
735.59	2286.73
735.776	2200.71
735.962	2280.58
736.148	2423.94
736.333	2354.31
736.519	2217.1
736.705	2346.12
736.89	2352.26
737.076	2235.53
737.262	2280.58
737.447	2202.76
737.633	2311.3
737.819	2313.35
738.004	2151.56
738.19	2288.78
738.375	2276.49
738.561	2276.49
738.747	2337.93
738.932	2176.14
739.118	2202.76
739.303	2145.42
739.489	2204.81
739.674	2219.14
739.859	2108.55
740.045	2180.23
740.23	2247.82
740.416	2180.23
740.601	2169.99
740.786	2122.89
740.972	2192.52
741.157	2149.51
741.342	2047.12
741.528	2139.27
741.713	2126.99
741.898	2204.81
742.084	2032.78
742.269	2206.86
742.454	2110.6
742.639	2069.64
742.824	2143.37
743.01	2030.73
743.195	2043.02
743.38	2006.16
743.565	2057.36
743.75	2018.44
743.935	2028.68
744.12	2106.51
744.305	2024.59
744.49	1879.18
744.675	2028.68
744.86	1920.14
745.045	1981.58
745.23	1975.44
745.415	1944.72
745.6	1969.29
745.785	1893.52
745.97	1954.96
746.155	1944.72
746.34	1977.48
746.525	1961.1
746.71	1938.57
746.895	1797.26
747.079	1838.22
747.264	1875.09
747.449	1864.85
747.634	1897.61
747.819	1873.04
748.003	1870.99
748.188	1817.74
748.373	1813.65
748.557	1811.6
748.742	1690.77
748.927	1719.44
749.111	1803.41
749.296	1793.17
749.481	1741.97
749.665	1672.34
749.85	1703.06
750.034	1748.11
750.219	1635.47
750.404	1690.77
750.588	1655.95
750.773	1633.43
750.957	1670.29
751.141	1549.46
751.326	1559.7
751.51	1619.09
751.695	1668.24
751.879	1592.47
752.064	1627.28
752.248	1637.52
752.432	1600.66
752.617	1498.26
752.801	1520.79
752.985	1498.26
753.17	1547.41
753.354	1522.84
753.538	1528.98
753.722	1402.01
753.907	1506.45
754.091	1387.67
754.275	1447.06
754.459	1475.73
754.643	1338.52
754.828	1510.55
755.012	1479.83
755.196	1418.39
755.38	1315.99
755.564	1363.09
755.748	1379.48
755.932	1348.76
756.116	1305.75
756.3	1326.23
756.484	1352.85
756.668	1379.48
756.852	1285.27
757.036	1367.19
757.22	1272.98
757.404	1264.79
757.588	1266.84
757.772	1277.08
757.956	1313.94
758.14	1270.94
758.323	1330.33
758.507	1258.65
758.691	1195.16
758.875	1279.13
759.059	1195.16
759.242	1217.69
759.426	1182.87
759.61	1186.97
759.794	1107.1
759.977	1109.15
760.161	1289.37
760.345	1184.92
760.528	1215.64
760.712	1229.98
760.895	1154.2
761.079	1121.43
761.263	1062.04
761.446	1100.95
761.63	1084.57
761.813	1150.11
761.997	1107.1
762.18	1074.33
762.364	1180.82
762.547	1074.33
762.731	1051.8
762.914	1168.54
763.098	1141.91
763.281	1023.13
763.464	1039.51
763.648	988.32
763.831	961.69
764.015	1057.95
764.198	976.03
764.381	965.79
764.564	1029.27
764.748	1053.85
764.931	1014.94
765.114	1031.32
765.297	1059.99
765.481	984.22
765.664	973.98
765.847	1098.91
766.03	990.36
766.213	1043.61
766.397	992.41
766.58	959.64
766.763	998.56
766.946	945.31
767.129	1002.65
767.312	912.54
767.495	928.92
767.678	881.82
767.861	967.84
768.044	933.02
768.227	996.51
768.41	941.21
768.593	933.02
768.776	869.53
768.959	998.56
769.142	910.49
769.324	949.4
769.507	928.92
769.69	930.97
769.873	904.35
770.056	887.97
770.239	877.73
770.421	953.5
770.604	896.16
770.787	963.74
770.97	859.29
771.152	900.25
771.335	820.38
771.518	756.9
771.7	859.29
771.883	902.3
772.066	756.9
772.248	801.95
772.431	861.34
772.613	879.77
772.796	892.06
772.978	879.77
773.161	787.61
773.343	857.25
773.526	806.05
773.708	830.62
773.891	758.94
774.073	810.14
774.256	801.95
774.438	814.24
774.621	797.85
774.803	732.32
774.985	775.33
775.168	728.22
775.35	773.28
775.532	726.18
775.715	783.52
775.897	842.91
776.079	797.85
776.261	797.85
776.444	668.83
776.626	715.94
776.808	656.54
776.99	705.7
777.173	720.03
777.355	748.7
777.537	687.26
777.719	582.82
777.901	650.4
778.083	677.02
778.265	650.4
778.447	660.64
778.629	621.73
778.811	681.12
778.993	703.65
779.175	672.93
779.357	539.81
779.539	640.16
779.721	670.88
779.903	576.67
780.085	722.08
780.267	638.11
780.449	543.91
780.631	668.83
780.812	595.11
780.994	607.39
781.176	566.43
781.358	599.2
781.54	621.73
781.721	537.76
781.903	621.73
782.085	535.71
782.267	527.52
782.448	504.99
782.63	572.58
782.812	550.05
782.993	466.08
783.175	523.43
783.357	570.53
783.538	500.9
783.72	578.72
783.901	525.47
784.083	537.76
784.264	560.29
784.446	509.09
784.627	396.45
784.809	558.24
784.99	494.76
785.172	470.18
785.353	492.71
785.535	564.39
785.716	435.36
785.897	416.93
786.079	466.08
786.26	375.97
786.441	470.18
786.623	459.94
786.804	427.17
786.985	425.12
787.167	486.56
787.348	421.03
787.529	451.75
787.71	457.89
787.891	437.41
788.073	380.07
788.254	439.46
788.435	439.46
788.616	388.26
788.797	365.73
788.978	386.21
789.159	324.77
789.34	382.12
789.522	375.97
789.703	400.55
789.884	435.36
790.065	414.88
790.246	353.45
790.427	371.88
790.607	351.4
790.788	359.59
790.969	316.58
791.15	451.75
791.331	357.54
791.512	388.26
791.693	330.92
791.874	328.87
792.054	349.35
792.235	347.3
792.416	343.21
792.597	349.35
792.778	363.69
792.958	447.65
793.139	320.68
793.32	396.45
793.5	361.64
793.681	285.86
793.862	337.06
794.042	347.3
794.223	330.92
794.404	312.49
794.584	289.96
794.765	318.63
794.945	296.1
795.126	304.29
795.306	271.53
795.487	238.76
795.667	269.48
795.848	294.05
796.028	271.53
796.209	287.91
796.389	306.34
796.57	265.38
796.75	240.81
796.93	281.77
797.111	267.43
797.291	271.53
797.471	224.42
797.652	232.62
797.832	257.19
798.012	289.96
798.192	255.14
798.373	320.68
798.553	269.48
798.733	314.53
798.913	300.2
799.093	218.28
799.274	265.38
799.454	259.24
799.634	300.2
799.814	306.34
799.994	322.73
800.174	294.05
800.354	287.91
800.534	214.18
800.714	246.95
800.894	216.23
801.074	240.81
801.254	253.09
801.434	218.28
801.614	249
801.794	214.18
801.974	492.71
802.154	183.46
802.334	175.27
802.514	205.99
802.693	167.08
802.873	195.75
803.053	199.85
803.233	269.48
803.413	195.75
803.592	224.42
803.772	189.61
803.952	230.57
804.131	167.08
804.311	240.81
804.491	189.61
804.67	177.32
804.85	150.7
805.03	242.85
805.209	261.29
805.389	240.81
805.568	257.19
805.748	162.98
805.928	246.95
806.107	240.81
806.287	175.27
806.466	124.07
806.646	222.38
806.825	191.66
807.004	205.99
807.184	201.9
807.363	281.77
807.543	175.27
807.722	236.71
807.901	240.81
808.081	154.79
808.26	146.6
808.439	148.65
808.619	183.46
808.798	140.46
808.977	138.41
809.156	183.46
809.336	122.02
809.515	167.08
809.694	259.24
809.873	195.75
810.052	130.22
810.231	162.98
810.411	199.85
810.59	214.18
810.769	138.41
810.948	203.94
811.127	136.36
811.306	126.12
811.485	124.07
811.664	238.76
811.843	189.61
812.022	136.36
812.201	122.02
812.38	171.18
812.559	218.28
812.737	136.36
812.916	222.38
813.095	119.98
813.274	189.61
813.453	179.37
813.632	144.55
813.811	93.35
813.989	171.18
814.168	91.31
814.347	109.74
814.526	99.5
814.704	124.07
814.883	138.41
815.062	140.46
815.24	138.41
815.419	191.66
815.598	226.47
815.776	89.26
815.955	140.46
816.133	109.74
816.312	142.5
816.49	103.59
816.669	140.46
816.847	124.07
817.026	212.14
817.204	156.84
817.383	177.32
817.561	150.7
817.74	111.78
817.918	126.12
818.097	167.08
818.275	148.65
818.453	216.23
818.632	60.59
818.81	134.31
818.988	165.03
819.167	158.89
819.345	165.03
819.523	70.83
819.701	160.94
819.879	175.27
820.058	124.07
820.236	165.03
820.414	140.46
820.592	105.64
820.77	126.12
820.948	66.73
821.127	68.78
821.305	95.4
821.483	134.31
821.661	132.26
821.839	113.83
822.017	89.26
822.195	175.27
822.373	119.98
822.551	68.78
822.729	148.65
822.907	140.46
823.085	93.35
823.262	107.69
823.44	60.59
823.618	169.13
823.796	124.07
823.974	124.07
824.152	117.93
824.329	101.55
824.507	146.6
824.685	72.87
824.863	101.55
825.04	89.26
825.218	142.5
825.396	93.35
825.574	119.98
825.751	62.63
825.929	140.46
826.107	17.58
826.284	134.31
826.462	79.02
826.639	85.16
826.817	21.67
826.994	70.83
827.172	76.97
827.349	126.12
827.527	109.74
827.704	91.31
827.882	93.35
828.059	105.64
828.237	72.87
828.414	130.22
828.591	29.87
828.769	134.31
828.946	-13.14
829.124	76.97
829.301	130.22
829.478	136.36
829.655	62.63
829.833	95.4
830.01	33.96
830.187	76.97
830.364	68.78
830.542	132.26
830.719	117.93
830.896	103.59
831.073	76.97
831.25	115.88
831.427	70.83
831.604	74.92
831.782	56.49
831.959	76.97
832.136	56.49
832.313	103.59
832.49	72.87
832.667	50.35
832.844	107.69
833.021	109.74
833.198	38.06
833.374	15.53
833.551	76.97
833.728	66.73
833.905	64.68
834.082	58.54
834.259	-0.85
834.436	124.07
834.612	-2.9
834.789	48.3
834.966	74.92
835.143	-7
835.319	128.17
835.496	56.49
835.673	101.55
835.85	64.68
836.026	101.55
836.203	76.97
836.38	44.2
836.556	101.55
836.733	19.63
836.909	124.07
837.086	97.45
837.262	27.82
837.439	64.68
837.616	103.59
837.792	122.02
837.968	105.64
838.145	31.91
838.321	99.5
838.498	17.58
838.674	83.11
838.851	15.53
839.027	85.16
839.203	124.07
839.38	95.4
839.556	17.58
839.732	109.74
839.909	3.24
840.085	85.16
840.261	19.63
840.437	56.49
840.614	44.2
840.79	64.68
840.966	87.21
841.142	50.35
841.318	-33.62
841.494	42.15
841.671	158.89
841.847	60.59
842.023	25.77
842.199	36.01
842.375	40.11
842.551	19.63
842.727	62.63
842.903	-9.05
843.079	68.78
843.255	56.49
843.431	1.19
843.607	62.63
843.783	15.53
843.959	101.55
844.134	40.11
844.31	66.73
844.486	74.92
844.662	83.11
844.838	99.5
845.013	7.34
845.189	17.58
845.365	27.82
845.541	46.25
845.716	13.48
845.892	134.31
846.068	58.54
846.244	42.15
846.419	105.64
846.595	21.67
846.77	29.87
846.946	122.02
847.122	-17.24
847.297	15.53
847.473	17.58
847.648	52.39
847.824	31.91
847.999	42.15
848.175	27.82
848.35	3.24
848.526	85.16
848.701	17.58
848.876	54.44
849.052	79.02
849.227	27.82
849.403	-27.48
849.578	11.43
849.753	58.54
849.929	97.45
850.104	23.72
850.279	-15.19
850.454	11.43
850.63	-17.24
850.805	66.73
850.98	66.73
851.155	56.49
851.33	70.83
851.505	5.29
851.681	81.07
851.856	44.2
852.031	52.39
852.206	52.39
852.381	19.63
852.556	74.92
852.731	83.11
852.906	62.63
853.081	83.11
853.256	52.39
853.431	109.74
853.606	21.67
853.781	-45.91
853.956	25.77
854.131	76.97
854.305	36.01
854.48	-27.48
854.655	1.19
854.83	-13.14
855.005	60.59
855.18	-25.43
855.354	27.82
855.529	101.55
855.704	-0.85
855.879	36.01
856.053	31.91
856.228	27.82
856.403	50.35
856.577	31.91
856.752	13.48
856.926	-13.14
857.101	11.43
857.276	13.48
857.45	50.35
857.625	56.49
857.799	72.87
857.974	44.2
858.148	-7
858.323	52.39
858.497	60.59
858.672	-7
858.846	-13.14
859.02	-52.05
859.195	33.96
859.369	19.63
859.543	33.96
859.718	52.39
859.892	11.43
860.066	19.63
860.241	9.39
860.415	9.39
860.589	83.11
860.763	76.97
860.938	-33.62
861.112	27.82
861.286	11.43
861.46	-0.85
861.634	17.58
861.808	13.48
861.982	31.91
862.157	-39.76
862.331	17.58
862.505	1.19
862.679	11.43
862.853	50.35
863.027	-60.24
863.201	29.87
863.375	-11.09
863.549	36.01
863.722	-17.24
863.896	15.53
864.07	54.44
864.244	36.01
864.418	-25.43
864.592	-15.19
864.766	-23.38
864.939	72.87
865.113	-39.76
865.287	48.3
865.461	9.39
865.634	1.19
865.808	42.15
865.982	42.15
866.156	-33.62
866.329	11.43
866.503	3.24
866.676	13.48
866.85	25.77
867.024	74.92
867.197	-23.38
867.371	27.82
867.544	54.44
867.718	-50
867.891	-25.43
868.065	-11.09
868.238	29.87
868.412	81.07
868.585	-23.38
868.759	-21.33
868.932	-7
869.105	38.06
869.279	40.11
869.452	-25.43
869.625	-17.24
869.799	64.68
869.972	68.78
870.145	64.68
870.319	-17.24
870.492	27.82
870.665	11.43
870.838	-52.05
871.011	11.43
871.185	-9.05
871.358	3.24
871.531	-0.85
871.704	19.63
871.877	46.25
872.05	-95.06
872.223	-62.29
872.396	38.06
872.569	27.82
872.742	62.63
872.915	91.31
873.088	31.91
873.261	36.01
873.434	23.72
873.607	-9.05
873.78	52.39
873.953	25.77
874.126	21.67
874.299	25.77
874.471	58.54
874.644	27.82
874.817	58.54
874.99	25.77
875.163	-4.95
875.335	50.35
875.508	56.49
875.681	15.53
875.853	-17.24
876.026	60.59
876.199	1.19
876.371	3.24
876.544	27.82
876.717	27.82
876.889	74.92
877.062	27.82
877.234	25.77
877.407	-27.48
877.579	-4.95
877.752	-17.24
877.924	29.87
878.097	19.63
878.269	-78.68
878.442	105.64
878.614	21.67
878.786	-15.19
878.959	-21.33
879.131	-7
879.303	-19.29
879.476	7.34
879.648	19.63
879.82	3.24
879.993	17.58
880.165	60.59
880.337	40.11
880.509	-52.05
880.681	-68.44
880.854	5.29
881.026	-11.09
881.198	-2.9
881.37	-9.05
881.542	-31.57
881.714	44.2
881.886	48.3
882.058	11.43
882.23	83.11
882.402	-4.95
882.574	44.2
882.746	21.67
882.918	52.39
883.09	27.82
883.262	-47.96
883.434	-62.29
883.606	-17.24
883.778	-25.43
883.95	76.97
884.122	-13.14
884.293	19.63
884.465	60.59
884.637	3.24
884.809	15.53
884.98	23.72
885.152	11.43
885.324	9.39
885.496	19.63
885.667	-52.05
885.839	1.19
886.011	36.01
886.182	19.63
886.354	42.15
886.525	-13.14
886.697	33.96
886.869	-9.05
887.04	52.39
887.212	87.21
887.383	-9.05
887.555	-33.62
887.726	27.82
887.897	-9.05
888.069	15.53
888.24	-39.76
888.412	-33.62
888.583	9.39
888.754	-45.91
888.926	7.34
889.097	-11.09
889.268	48.3
889.44	-43.86
889.611	3.24
889.782	-70.48
889.953	15.53
890.125	-29.52
890.296	-74.58
890.467	17.58
890.638	3.24
890.809	46.25
890.98	122.02
891.151	36.01
891.323	-50
891.494	-11.09
891.665	-93.01
891.836	-0.85
892.007	58.54
892.178	-25.43
892.349	64.68
892.52	31.91
892.691	-13.14
892.862	72.87
893.032	-11.09
893.203	-23.38
893.374	-29.52
893.545	36.01
893.716	-7
893.887	-0.85
894.057	15.53
894.228	31.91
894.399	-45.91
894.57	-17.24
894.74	11.43
894.911	17.58
895.082	-9.05
895.253	-45.91
895.423	48.3
895.594	50.35
895.764	3.24
895.935	-19.29
896.106	-54.1
896.276	-33.62
896.447	-9.05
896.617	3.24
896.788	-13.14
896.958	-4.95
897.129	19.63
897.299	-0.85
897.47	-58.2
897.64	29.87
897.81	-0.85
897.981	-54.1
898.151	-2.9
898.322	33.96
898.492	97.45
898.662	-35.67
898.832	19.63
899.003	-7
899.173	-4.95
899.343	19.63
899.513	-21.33
