Data from USB4F104151__83__11-37-47-338.txt Node

Date: Fri Mar 14 11:37:47 EDT 2025
User: louis
Spectrometer: USB4F10415
Trigger mode: 4
Integration Time (sec): 2.000000E-2
Scans to average: 1
Electric dark correction enabled: true
Nonlinearity correction enabled: false
Boxcar width: 0
XAxis mode: Wavelengths
Number of Pixels in Spectrum: 3648
>>>>>Begin Spectral Data<<<<<
178.204	-132.26
178.424	-132.26
178.644	-132.26
178.864	-15.53
179.084	-89.26
179.304	-23.72
179.524	15.19
179.744	-54.44
179.964	13.14
180.184	-7.34
180.404	2.9
180.624	-54.44
180.844	39.76
181.064	-70.83
181.283	76.63
181.503	7
181.723	56.15
181.943	-9.39
182.163	-7.34
182.383	66.39
182.602	50
182.822	68.44
183.042	43.86
183.262	-7.34
183.482	107.35
183.701	68.44
183.921	-60.59
184.141	-33.96
184.361	25.43
184.58	-25.77
184.8	11.09
185.02	-5.29
185.239	-11.43
185.459	-7.34
185.679	-33.96
185.898	-15.53
186.118	64.34
186.338	-17.58
186.557	74.58
186.777	-5.29
186.997	0.85
187.216	-58.54
187.436	41.81
187.655	43.86
187.875	72.53
188.095	0.85
188.314	68.44
188.534	4.95
188.753	27.48
188.973	45.91
189.192	17.24
189.412	31.57
189.631	-9.39
189.851	43.86
190.07	68.44
190.29	2.9
190.509	31.57
190.729	37.72
190.948	62.29
191.168	-3.24
191.387	70.48
191.607	-38.06
191.826	93.01
192.045	0.85
192.265	11.09
192.484	35.67
192.704	-11.43
192.923	-29.87
193.142	95.06
193.362	97.11
193.581	13.14
193.8	-27.82
194.02	41.81
194.239	-52.39
194.458	31.57
194.678	-56.49
194.897	76.63
195.116	43.86
195.335	39.76
195.555	60.24
195.774	9.05
195.993	50
196.212	-40.11
196.432	7
196.651	-5.29
196.87	37.72
197.089	60.24
197.308	23.38
197.528	45.91
197.747	31.57
197.966	-21.67
198.185	-11.43
198.404	31.57
198.623	-11.43
198.842	-17.58
199.062	93.01
199.281	84.82
199.5	45.91
199.719	-9.39
199.938	-1.19
200.157	25.43
200.376	19.29
200.595	-9.39
200.814	19.29
201.033	64.34
201.252	-5.29
201.471	58.2
201.69	-7.34
201.909	31.57
202.128	25.43
202.347	-33.96
202.566	7
202.785	-25.77
203.004	-5.29
203.223	31.57
203.442	58.2
203.661	9.05
203.879	31.57
204.098	-23.72
204.317	-11.43
204.536	31.57
204.755	13.14
204.974	107.35
205.193	-9.39
205.411	62.29
205.63	25.43
205.849	17.24
206.068	33.62
206.287	113.49
206.505	35.67
206.724	39.76
206.943	33.62
207.162	-9.39
207.381	58.2
207.599	45.91
207.818	23.38
208.037	-15.53
208.255	-27.82
208.474	64.34
208.693	50
208.911	11.09
209.13	58.2
209.349	39.76
209.567	93.01
209.786	86.87
210.005	68.44
210.223	2.9
210.442	-9.39
210.661	56.15
210.879	47.96
211.098	11.09
211.316	2.9
211.535	103.25
211.753	93.01
211.972	47.96
212.191	17.24
212.409	74.58
212.628	39.76
212.846	7
213.065	105.3
213.283	58.2
213.502	9.05
213.72	-31.91
213.938	-31.91
214.157	2.9
214.375	58.2
214.594	23.38
214.812	15.19
215.031	-1.19
215.249	-19.63
215.467	27.48
215.686	39.76
215.904	-21.67
216.122	-42.15
216.341	2.9
216.559	58.2
216.778	25.43
216.996	-3.24
217.214	-13.48
217.432	-48.3
217.651	-31.91
217.869	-48.3
218.087	-1.19
218.306	-48.3
218.524	123.73
218.742	2.9
218.96	0.85
219.179	-3.24
219.397	43.86
219.615	88.92
219.833	43.86
220.051	-13.48
220.27	45.91
220.488	97.11
220.706	56.15
220.924	23.38
221.142	11.09
221.36	41.81
221.578	27.48
221.796	-13.48
222.015	-3.24
222.233	-13.48
222.451	93.01
222.669	-42.15
222.887	35.67
223.105	15.19
223.323	47.96
223.541	-29.87
223.759	31.57
223.977	7
224.195	23.38
224.413	2.9
224.631	101.2
224.849	39.76
225.067	93.01
225.285	9.05
225.503	15.19
225.721	-29.87
225.939	47.96
226.157	2.9
226.375	39.76
226.592	66.39
226.81	4.95
227.028	9.05
227.246	25.43
227.464	17.24
227.682	50
227.9	-13.48
228.117	4.95
228.335	43.86
228.553	31.57
228.771	17.24
228.989	-9.39
229.206	-7.34
229.424	27.48
229.642	52.05
229.86	23.38
230.077	86.87
230.295	105.3
230.513	31.57
230.731	58.2
230.948	4.95
231.166	7
231.384	37.72
231.601	-5.29
231.819	70.48
232.037	-5.29
232.254	-46.25
232.472	-5.29
232.689	21.33
232.907	78.68
233.125	-17.58
233.342	88.92
233.56	-9.39
233.777	31.57
233.995	66.39
234.213	64.34
234.43	-40.11
234.648	-7.34
234.865	64.34
235.083	27.48
235.3	52.05
235.518	64.34
235.735	27.48
235.953	54.1
236.17	31.57
236.388	-27.82
236.605	-17.58
236.822	-23.72
237.04	19.29
237.257	35.67
237.475	19.29
237.692	54.1
237.909	7
238.127	-19.63
238.344	-13.48
238.562	27.48
238.779	-7.34
238.996	-25.77
239.214	-1.19
239.431	37.72
239.648	25.43
239.865	35.67
240.083	56.15
240.3	60.24
240.517	-3.24
240.735	27.48
240.952	56.15
241.169	50
241.386	23.38
241.603	-17.58
241.821	4.95
242.038	37.72
242.255	15.19
242.472	-42.15
242.689	39.76
242.907	43.86
243.124	56.15
243.341	11.09
243.558	19.29
243.775	-9.39
243.992	-48.3
244.209	7
244.426	121.68
244.643	23.38
244.86	-27.82
245.078	27.48
245.295	80.72
245.512	13.14
245.729	-56.49
245.946	54.1
246.163	66.39
246.38	39.76
246.597	-17.58
246.814	27.48
247.031	-1.19
247.248	78.68
247.464	0.85
247.681	23.38
247.898	39.76
248.115	-9.39
248.332	-44.2
248.549	52.05
248.766	2.9
248.983	-23.72
249.2	82.77
249.417	0.85
249.633	7
249.85	50
250.067	33.62
250.284	-5.29
250.501	47.96
250.717	39.76
250.934	11.09
251.151	23.38
251.368	76.63
251.585	54.1
251.801	-68.78
252.018	-17.58
252.235	13.14
252.451	0.85
252.668	43.86
252.885	41.81
253.102	17.24
253.318	-31.91
253.535	-9.39
253.752	11.09
253.968	60.24
254.185	-62.63
254.401	11.09
254.618	25.43
254.835	-44.2
255.051	29.52
255.268	17.24
255.484	-38.06
255.701	-58.54
255.917	23.38
256.134	25.43
256.351	-15.53
256.567	-70.83
256.784	56.15
257	19.29
257.217	-11.43
257.433	23.38
257.65	43.86
257.866	31.57
258.082	9.05
258.299	80.72
258.515	0.85
258.732	68.44
258.948	-19.63
259.165	39.76
259.381	17.24
259.597	17.24
259.814	58.2
260.03	23.38
260.246	-13.48
260.463	-21.67
260.679	25.43
260.895	33.62
261.112	-15.53
261.328	15.19
261.544	47.96
261.761	27.48
261.977	-5.29
262.193	-27.82
262.409	-21.67
262.626	60.24
262.842	-17.58
263.058	47.96
263.274	95.06
263.49	47.96
263.707	19.29
263.923	35.67
264.139	41.81
264.355	66.39
264.571	35.67
264.787	2.9
265.004	117.59
265.22	-9.39
265.436	60.24
265.652	-44.2
265.868	54.1
266.084	-48.3
266.3	60.24
266.516	37.72
266.732	-19.63
266.948	19.29
267.164	43.86
267.38	-23.72
267.596	15.19
267.812	101.2
268.028	107.35
268.244	29.52
268.46	-1.19
268.676	23.38
268.892	54.1
269.108	-13.48
269.324	27.48
269.54	35.67
269.756	-15.53
269.972	27.48
270.188	15.19
270.403	-1.19
270.619	-29.87
270.835	80.72
271.051	50
271.267	70.48
271.483	2.9
271.698	39.76
271.914	29.52
272.13	-5.29
272.346	17.24
272.562	43.86
272.777	15.19
272.993	-7.34
273.209	47.96
273.425	41.81
273.64	-23.72
273.856	41.81
274.072	-15.53
274.287	9.05
274.503	43.86
274.719	60.24
274.934	56.15
275.15	-1.19
275.366	70.48
275.581	43.86
275.797	66.39
276.012	-56.49
276.228	9.05
276.444	19.29
276.659	2.9
276.875	39.76
277.09	27.48
277.306	-13.48
277.521	11.09
277.737	9.05
277.952	-29.87
278.168	50
278.383	-17.58
278.599	54.1
278.814	56.15
279.03	84.82
279.245	-27.82
279.461	84.82
279.676	97.11
279.892	11.09
280.107	82.77
280.322	41.81
280.538	50
280.753	-25.77
280.969	107.35
281.184	13.14
281.399	23.38
281.615	66.39
281.83	52.05
282.045	4.95
282.26	70.48
282.476	93.01
282.691	43.86
282.906	50
283.122	82.77
283.337	52.05
283.552	90.96
283.767	-68.78
283.983	41.81
284.198	56.15
284.413	39.76
284.628	-62.63
284.843	11.09
285.058	45.91
285.274	56.15
285.489	2.9
285.704	35.67
285.919	27.48
286.134	121.68
286.349	35.67
286.564	58.2
286.779	52.05
286.995	111.44
287.21	17.24
287.425	27.48
287.64	15.19
287.855	17.24
288.07	-19.63
288.285	45.91
288.5	-5.29
288.715	60.24
288.93	-5.29
289.145	52.05
289.36	27.48
289.575	-52.39
289.79	101.2
290.004	60.24
290.219	9.05
290.434	56.15
290.649	21.33
290.864	121.68
291.079	-5.29
291.294	-27.82
291.509	66.39
291.724	2.9
291.938	0.85
292.153	11.09
292.368	35.67
292.583	78.68
292.798	-13.48
293.012	54.1
293.227	27.48
293.442	25.43
293.657	74.58
293.871	72.53
294.086	19.29
294.301	52.05
294.516	47.96
294.73	-1.19
294.945	107.35
295.16	-3.24
295.374	101.2
295.589	109.4
295.804	41.81
296.018	-5.29
296.233	-19.63
296.447	43.86
296.662	50
296.877	35.67
297.091	56.15
297.306	45.91
297.52	80.72
297.735	64.34
297.949	109.4
298.164	47.96
298.378	2.9
298.593	39.76
298.807	47.96
299.022	11.09
299.236	93.01
299.451	17.24
299.665	7
299.88	25.43
300.094	88.92
300.309	25.43
300.523	-15.53
300.737	31.57
300.952	35.67
301.166	41.81
301.381	19.29
301.595	13.14
301.809	4.95
302.024	15.19
302.238	56.15
302.452	68.44
302.667	154.45
302.881	86.87
303.095	-5.29
303.309	-13.48
303.524	11.09
303.738	-5.29
303.952	68.44
304.166	47.96
304.381	-11.43
304.595	60.24
304.809	95.06
305.023	29.52
305.237	11.09
305.452	50
305.666	-23.72
305.88	25.43
306.094	9.05
306.308	84.82
306.522	19.29
306.736	33.62
306.95	64.34
307.164	9.05
307.379	9.05
307.593	25.43
307.807	25.43
308.021	19.29
308.235	82.77
308.449	19.29
308.663	82.77
308.877	127.83
309.091	7
309.305	86.87
309.519	9.05
309.733	-9.39
309.947	-40.11
310.161	9.05
310.374	43.86
310.588	68.44
310.802	45.91
311.016	43.86
311.23	66.39
311.444	-17.58
311.658	43.86
311.872	21.33
312.085	82.77
312.299	86.87
312.513	60.24
312.727	43.86
312.941	39.76
313.154	52.05
313.368	-9.39
313.582	80.72
313.796	68.44
314.009	7
314.223	35.67
314.437	27.48
314.651	27.48
314.864	62.29
315.078	-58.54
315.292	-1.19
315.505	-7.34
315.719	15.19
315.933	35.67
316.146	93.01
316.36	99.16
316.573	41.81
316.787	50
317.001	7
317.214	-17.58
317.428	52.05
317.641	43.86
317.855	-17.58
318.068	54.1
318.282	7
318.495	-19.63
318.709	54.1
318.922	64.34
319.136	56.15
319.349	105.3
319.563	-33.96
319.776	0.85
319.99	21.33
320.203	31.57
320.417	27.48
320.63	82.77
320.843	54.1
321.057	-13.48
321.27	95.06
321.483	-38.06
321.697	74.58
321.91	13.14
322.124	72.53
322.337	37.72
322.55	56.15
322.763	56.15
322.977	21.33
323.19	-13.48
323.403	19.29
323.617	41.81
323.83	25.43
324.043	31.57
324.256	-38.06
324.469	39.76
324.683	50
324.896	68.44
325.109	72.53
325.322	62.29
325.535	21.33
325.748	62.29
325.962	50
326.175	-56.49
326.388	31.57
326.601	25.43
326.814	58.2
327.027	19.29
327.24	47.96
327.453	66.39
327.666	17.24
327.879	15.19
328.092	52.05
328.305	2.9
328.518	-9.39
328.731	2.9
328.944	84.82
329.157	109.4
329.37	-79.02
329.583	11.09
329.796	101.2
330.009	23.38
330.222	72.53
330.435	70.48
330.648	-17.58
330.861	111.44
331.073	58.2
331.286	15.19
331.499	33.62
331.712	-1.19
331.925	84.82
332.138	70.48
332.35	99.16
332.563	7
332.776	60.24
332.989	-1.19
333.202	2.9
333.414	-9.39
333.627	101.2
333.84	-48.3
334.053	35.67
334.265	37.72
334.478	23.38
334.691	9.05
334.903	109.4
335.116	0.85
335.329	72.53
335.541	33.62
335.754	72.53
335.966	-62.63
336.179	15.19
336.392	21.33
336.604	-19.63
336.817	74.58
337.029	-21.67
337.242	-21.67
337.454	127.83
337.667	-1.19
337.88	56.15
338.092	-48.3
338.305	52.05
338.517	-15.53
338.729	78.68
338.942	76.63
339.154	80.72
339.367	-17.58
339.579	15.19
339.792	39.76
340.004	72.53
340.217	27.48
340.429	78.68
340.641	52.05
340.854	64.34
341.066	45.91
341.278	136.02
341.491	70.48
341.703	31.57
341.915	43.86
342.128	29.52
342.34	109.4
342.552	62.29
342.764	15.19
342.977	54.1
343.189	31.57
343.401	70.48
343.613	-17.58
343.826	27.48
344.038	25.43
344.25	19.29
344.462	37.72
344.674	58.2
344.886	37.72
345.099	41.81
345.311	52.05
345.523	-50.35
345.735	9.05
345.947	56.15
346.159	41.81
346.371	-15.53
346.583	0.85
346.795	170.83
347.007	-40.11
347.219	15.19
347.431	109.4
347.643	72.53
347.855	-31.91
348.067	11.09
348.279	21.33
348.491	19.29
348.703	-13.48
348.915	84.82
349.127	50
349.339	0.85
349.551	4.95
349.763	84.82
349.975	97.11
350.187	60.24
350.399	82.77
350.61	45.91
350.822	35.67
351.034	15.19
351.246	90.96
351.458	80.72
351.669	74.58
351.881	-38.06
352.093	66.39
352.305	35.67
352.517	19.29
352.728	72.53
352.94	39.76
353.152	21.33
353.363	47.96
353.575	-21.67
353.787	31.57
353.999	119.64
354.21	99.16
354.422	33.62
354.633	0.85
354.845	21.33
355.057	54.1
355.268	90.96
355.48	4.95
355.692	17.24
355.903	19.29
356.115	47.96
356.326	-33.96
356.538	125.78
356.749	84.82
356.961	25.43
357.172	60.24
357.384	-48.3
357.595	84.82
357.807	97.11
358.018	52.05
358.23	74.58
358.441	64.34
358.653	58.2
358.864	41.81
359.075	47.96
359.287	80.72
359.498	35.67
359.709	27.48
359.921	86.87
360.132	39.76
360.344	25.43
360.555	62.29
360.766	-17.58
360.977	2.9
361.189	-21.67
361.4	60.24
361.611	160.59
361.823	33.62
362.034	11.09
362.245	-17.58
362.456	113.49
362.667	125.78
362.879	25.43
363.09	-1.19
363.301	35.67
363.512	97.11
363.723	11.09
363.935	50
364.146	45.91
364.357	-1.19
364.568	68.44
364.779	78.68
364.99	15.19
365.201	60.24
365.412	113.49
365.623	76.63
365.834	39.76
366.045	31.57
366.256	64.34
366.467	-27.82
366.678	60.24
366.889	64.34
367.1	31.57
367.311	187.22
367.522	39.76
367.733	35.67
367.944	60.24
368.155	19.29
368.366	76.63
368.577	37.72
368.788	43.86
368.999	-21.67
369.209	93.01
369.42	50
369.631	103.25
369.842	109.4
370.053	56.15
370.264	39.76
370.474	-25.77
370.685	45.91
370.896	50
371.107	62.29
371.317	35.67
371.528	-1.19
371.739	88.92
371.95	45.91
372.16	56.15
372.371	39.76
372.582	68.44
372.792	23.38
373.003	58.2
373.214	50
373.424	11.09
373.635	103.25
373.846	52.05
374.056	11.09
374.267	80.72
374.477	52.05
374.688	50
374.898	45.91
375.109	84.82
375.319	-7.34
375.53	62.29
375.74	39.76
375.951	41.81
376.161	15.19
376.372	35.67
376.582	19.29
376.793	64.34
377.003	64.34
377.214	68.44
377.424	23.38
377.635	62.29
377.845	4.95
378.055	90.96
378.266	39.76
378.476	0.85
378.686	-13.48
378.897	84.82
379.107	68.44
379.317	66.39
379.528	13.14
379.738	123.73
379.948	19.29
380.158	84.82
380.369	95.06
380.579	56.15
380.789	60.24
380.999	66.39
381.21	39.76
381.42	121.68
381.63	29.52
381.84	-5.29
382.05	76.63
382.261	-9.39
382.471	52.05
382.681	54.1
382.891	39.76
383.101	101.2
383.311	-1.19
383.521	9.05
383.731	140.12
383.941	54.1
384.151	33.62
384.361	70.48
384.571	72.53
384.781	-13.48
384.991	129.88
385.201	62.29
385.411	35.67
385.621	43.86
385.831	56.15
386.041	43.86
386.251	45.91
386.461	131.92
386.671	37.72
386.881	82.77
387.091	-46.25
387.301	17.24
387.511	-42.15
387.72	84.82
387.93	101.2
388.14	56.15
388.35	113.49
388.56	129.88
388.769	109.4
388.979	101.2
389.189	-13.48
389.399	33.62
389.609	43.86
389.818	80.72
390.028	82.77
390.238	148.31
390.447	105.3
390.657	78.68
390.867	60.24
391.076	4.95
391.286	129.88
391.496	109.4
391.705	60.24
391.915	29.52
392.125	154.45
392.334	142.16
392.544	66.39
392.753	76.63
392.963	66.39
393.172	52.05
393.382	97.11
393.591	117.59
393.801	31.57
394.01	123.73
394.22	119.64
394.429	68.44
394.639	133.97
394.848	179.03
395.058	84.82
395.267	148.31
395.477	84.82
395.686	99.16
395.895	136.02
396.105	107.35
396.314	174.93
396.524	119.64
396.733	97.11
396.942	142.16
397.152	117.59
397.361	156.5
397.57	52.05
397.78	25.43
397.989	52.05
398.198	189.27
398.407	93.01
398.617	78.68
398.826	19.29
399.035	148.31
399.244	35.67
399.453	99.16
399.663	56.15
399.872	183.12
400.081	133.97
400.29	199.51
400.499	150.36
400.708	129.88
400.917	99.16
401.127	172.88
401.336	156.5
401.545	152.4
401.754	142.16
401.963	117.59
402.172	191.31
402.381	43.86
402.59	144.21
402.799	115.54
403.008	152.4
403.217	52.05
403.426	181.07
403.635	119.64
403.844	107.35
404.053	103.25
404.262	148.31
404.471	211.79
404.68	150.36
404.888	136.02
405.097	138.07
405.306	142.16
405.515	183.12
405.724	129.88
405.933	172.88
406.142	189.27
406.35	191.31
406.559	244.56
406.768	303.95
406.977	191.31
407.185	281.43
407.394	207.7
407.603	222.03
407.812	224.08
408.02	224.08
408.229	334.67
408.438	197.46
408.646	209.75
408.855	236.37
409.064	306
409.272	228.18
409.481	373.58
409.69	265.04
409.898	267.09
410.107	322.38
410.315	428.88
410.524	320.34
410.733	394.06
410.941	332.62
411.15	396.11
411.358	463.69
411.567	383.82
411.775	439.12
411.984	435.02
412.192	521.04
412.401	475.98
412.609	535.37
412.818	545.61
413.026	525.13
413.234	559.95
413.443	613.2
413.651	609.1
413.86	582.48
414.068	627.53
414.276	756.55
414.485	707.4
414.693	764.75
414.901	760.65
415.11	750.41
415.318	822.09
415.526	824.14
415.734	858.95
415.943	914.25
416.151	912.2
416.359	932.68
416.567	957.25
416.776	1131.33
416.984	1133.38
417.192	1123.14
417.4	1119.04
417.608	1133.38
417.817	1166.15
418.025	1174.34
418.233	1319.75
418.441	1215.3
418.649	1383.23
418.857	1436.48
419.065	1434.43
419.273	1424.19
419.481	1497.92
419.689	1565.5
419.897	1665.85
420.105	1715
420.313	1794.87
420.521	1897.27
420.729	1839.93
420.937	2005.81
421.145	2032.44
421.353	2128.69
421.561	2270
421.769	2120.5
421.977	2366.26
422.185	2315.06
422.393	2517.81
422.601	2632.49
422.809	2587.44
423.017	2564.91
423.224	2612.01
423.432	2923.3
423.64	2923.3
423.848	3255.08
424.056	2933.54
424.263	3400.48
424.471	3115.81
424.679	3265.32
424.887	3564.32
425.094	3492.64
425.302	3676.96
425.51	3638.05
425.718	3889.95
425.925	3777.31
426.133	4127.51
426.341	4123.41
426.548	4399.89
426.756	4379.41
426.964	4412.18
427.171	4670.22
427.379	4868.88
427.586	4922.12
427.794	5028.62
428.001	5376.77
428.209	5538.56
428.417	5456.64
428.624	5839.61
428.832	5892.86
429.039	5909.24
429.247	5806.84
429.454	6437.62
429.662	6861.55
429.869	6206.2
430.076	6697.71
430.284	6646.51
430.491	6787.82
430.699	7197.42
430.906	7387.88
431.114	7537.38
431.321	7617.25
431.528	7840.48
431.736	8434.39
431.943	8753.87
432.15	8514.26
432.358	8405.72
432.565	9061.07
432.772	8854.22
432.979	9151.18
433.187	9544.39
433.394	9685.7
433.601	10465.97
433.808	10427.06
434.016	10320.57
434.223	10672.82
434.43	11326.12
434.637	11264.68
434.844	11754.15
435.052	11981.47
435.259	11911.84
435.466	12028.57
435.673	12077.73
435.88	12567.19
436.087	13419.14
436.294	13552.26
436.501	13142.67
436.708	13376.14
436.915	13773.44
437.122	14617.21
437.329	14250.62
437.537	14862.96
437.743	15063.66
437.95	14899.83
438.157	15835.75
438.364	16317.02
438.571	16114.27
438.778	16310.88
438.985	17971.78
439.192	17281.61
439.399	17777.22
439.606	17418.83
439.813	18379.32
440.02	19640.87
440.227	19388.97
440.433	19141.17
440.64	19751.46
440.847	19466.8
441.054	20140.58
441.261	21492.24
441.467	21152.27
441.674	21666.31
441.881	22499.84
442.088	22383.1
442.294	22067.72
442.501	23087.61
442.708	23421.42
442.914	24140.26
443.121	25252.31
443.328	24709.6
443.534	26374.59
443.741	25514.45
443.948	25037.27
444.154	27079.1
444.361	27124.15
444.568	27161.01
444.774	26950.07
444.981	27476.4
445.187	28316.07
445.394	29354.39
445.6	29137.3
445.807	31830.38
446.013	30521.73
446.22	30790.02
446.426	32051.56
446.633	32493.93
446.839	33671.51
447.046	32346.47
447.252	34263.37
447.459	34287.95
447.665	34302.28
447.871	35498.3
448.078	37130.53
448.284	35389.75
448.491	36370.73
448.697	37808.4
448.903	38367.5
449.11	38736.13
449.316	38326.54
449.522	38701.32
449.728	39678.2
449.935	40100.08
450.141	39907.57
450.347	40941.8
450.553	39532.79
450.76	40177.9
450.966	41525.47
451.172	40632.55
451.378	42606.8
451.584	41459.93
451.791	42207.44
451.997	42000.6
452.203	42936.52
452.409	42834.12
452.615	42717.39
452.821	41414.88
453.027	40669.42
453.233	43090.12
453.44	41472.22
453.646	41722.07
453.852	42203.35
454.058	42850.5
454.264	41292
454.47	42291.41
454.676	41150.69
454.882	42778.82
455.088	39110.91
455.294	39555.32
455.5	40065.27
455.705	40505.58
455.911	38957.31
456.117	38203.66
456.323	37542.17
456.529	35565.88
456.735	37114.14
456.941	36122.93
457.147	35676.47
457.352	34906.43
457.558	34158.92
457.764	34363.72
457.97	33702.23
458.176	33071.45
458.381	33108.32
458.587	31113.59
458.793	31349.11
458.999	30007.69
459.204	31949.17
459.41	31136.12
459.616	29266.33
459.821	28756.38
460.027	28950.94
460.233	28397.99
460.438	27214.26
460.644	27347.38
460.85	26012.1
461.055	25500.11
461.261	25498.06
461.466	23755.24
461.672	23171.57
461.878	24687.07
462.083	23101.94
462.289	22661.63
462.494	22565.37
462.7	21420.56
462.905	20810.26
463.111	21500.43
463.316	21490.19
463.522	21037.59
463.727	21084.69
463.932	21023.25
464.138	20683.29
464.343	21068.31
464.549	20431.39
464.754	20851.22
464.959	21180.95
465.165	20601.37
465.37	19937.83
465.575	19520.04
465.781	20331.04
465.986	20378.14
466.191	19333.68
466.397	19104.31
466.602	18059.84
466.807	18950.71
467.012	18958.9
467.218	19155.51
467.423	18600.51
467.628	19046.96
467.833	19712.55
468.038	18735.67
468.244	18063.94
468.449	19173.94
468.654	18270.78
468.859	18528.83
469.064	18131.52
469.269	17470.03
469.474	17683.02
469.679	17756.74
469.885	17304.14
470.09	17766.98
470.295	17384.01
470.5	17078.86
470.705	17193.55
470.91	16845.4
471.115	16564.82
471.32	17080.91
471.525	16761.43
471.73	16249.44
471.935	16403.04
472.139	15714.92
472.344	16018.02
472.549	15854.18
472.754	15774.31
472.959	15428.2
473.164	15094.38
473.369	14985.84
473.574	15497.83
473.778	15385.19
473.983	15094.38
474.188	15239.79
474.393	14320.25
474.598	14688.89
474.802	14285.44
475.007	14160.51
475.212	14424.7
475.417	13785.73
475.621	13765.25
475.826	13605.51
476.031	13701.76
476.235	13281.93
476.44	13445.77
476.645	13099.66
476.849	13347.47
477.054	13027.98
477.259	12624.53
477.463	13048.46
477.668	12638.87
477.872	12661.4
478.077	12472.98
478.282	12163.74
478.486	12237.47
478.691	12012.19
478.895	11950.75
479.1	12090.01
479.304	12102.3
479.509	11561.64
479.713	12030.62
479.918	11555.49
480.122	11479.72
480.326	11420.33
480.531	11600.55
480.735	11623.08
480.94	11612.84
481.144	11784.87
481.348	11205.29
481.553	11283.11
481.757	11225.77
481.961	11248.3
482.166	11518.63
482.37	11205.29
482.574	11158.19
482.778	11276.97
482.983	11418.28
483.187	11295.4
483.391	11150
483.595	11086.51
483.8	11025.07
484.004	11158.19
484.208	11219.63
484.412	11117.23
484.616	11154.09
484.821	11338.41
485.025	10816.18
485.229	11383.46
485.433	11037.36
485.637	11078.32
485.841	11246.25
486.045	10937.01
486.249	11029.17
486.453	11123.37
486.657	11061.93
486.861	11272.87
487.065	10988.21
487.269	11047.6
487.473	11053.74
487.677	11063.98
487.881	11162.28
488.085	11184.81
488.289	11117.23
488.493	11164.33
488.697	11281.07
488.901	11385.51
489.105	11340.46
489.309	11182.76
489.512	11078.32
489.716	11528.87
489.92	11258.54
490.124	11315.88
490.328	11401.9
490.531	11543.21
490.735	11502.25
490.939	11504.29
491.143	11371.18
491.346	11467.43
491.55	11580.07
491.754	11721.38
491.958	11942.56
492.161	11774.63
492.365	11821.73
492.569	11709.09
492.772	11758.24
492.976	11895.46
493.18	11803.3
493.383	12061.34
493.587	12071.58
493.79	12372.63
493.994	12288.67
494.197	12376.73
494.401	12319.39
494.605	12393.11
494.808	12604.05
495.012	12616.34
495.215	12720.79
495.419	12958.35
495.622	12806.8
495.825	12950.16
496.029	13195.92
496.232	13365.9
496.436	13413
496.639	13691.52
496.843	13517.45
497.046	13935.23
497.249	14150.27
497.453	13898.37
497.656	14336.63
497.859	14281.34
498.063	14660.21
498.266	14768.76
498.469	14606.97
498.673	14858.87
498.876	15088.24
499.079	15481.45
499.282	15469.16
499.485	15827.56
499.689	15721.06
499.892	15907.43
500.095	15950.43
500.298	16261.73
500.501	16343.64
500.705	16532.06
500.908	16888.4
501.111	17211.98
501.314	17222.22
501.517	17291.85
501.72	17564.23
501.923	17783.37
502.126	18035.27
502.329	18526.78
502.532	18504.25
502.735	18629.18
502.938	19040.82
503.141	19049.01
503.344	19354.16
503.547	19448.36
503.75	19573.29
503.953	19843.62
504.156	20154.91
504.359	20462.11
504.562	20398.62
504.765	20912.66
504.968	21000.72
505.17	21180.95
505.373	21420.56
505.576	21471.76
505.779	21858.82
505.982	21957.13
506.185	22471.17
506.387	22473.21
506.59	22788.6
506.793	23433.71
506.996	23327.22
507.198	23781.87
507.401	23767.53
507.604	24170.98
507.807	24394.21
508.009	24664.54
508.212	24605.15
508.415	25186.77
508.617	25549.26
508.82	25514.45
509.022	25440.72
509.225	26249.67
509.428	26491.33
509.63	26497.47
509.833	26358.21
510.035	27294.13
510.238	27425.2
510.44	27773.36
510.643	28193.19
510.845	28289.45
511.048	28410.28
511.25	28889.5
511.453	29043.1
511.655	29786.51
511.858	29391.25
512.06	29682.06
512.262	30036.36
512.465	30105.99
512.667	30574.98
512.87	31111.55
513.072	30839.17
513.274	31404.41
513.477	32080.24
513.679	32174.44
513.881	32665.95
514.084	32975.2
514.286	32862.56
514.488	32790.88
514.69	33868.11
514.893	33792.34
515.095	33913.17
515.297	34554.18
515.499	34584.9
515.701	35156.28
515.904	35389.75
516.106	35424.57
516.308	35535.16
516.51	36120.88
516.712	36227.37
516.914	36821.28
517.116	37005.6
517.318	37710.1
517.52	37439.77
517.722	37142.81
517.925	38191.37
518.127	38543.63
518.329	38766.85
518.531	38478.09
518.733	39239.93
518.935	39762.17
519.136	39622.9
519.338	40388.85
519.54	40268.01
519.742	40610.03
519.944	40859.88
520.146	41715.93
520.348	41201.89
520.55	41484.51
520.752	41674.97
520.954	42670.28
521.155	42234.06
521.357	43053.25
521.559	43106.5
521.761	43765.95
521.963	43782.33
522.164	43970.74
522.366	43833.53
522.568	44724.39
522.77	44619.95
522.971	44945.58
523.173	44763.31
523.375	45543.58
523.576	45322.4
523.778	45568.16
523.98	46131.35
524.181	46389.39
524.383	45983.9
524.584	46669.97
524.786	46796.94
524.988	46608.53
525.189	47407.23
525.391	47382.66
525.592	47769.72
525.794	47683.71
525.995	47229.06
526.197	47452.29
526.398	48132.21
526.6	48343.16
526.801	48181.37
527.003	48590.96
527.204	48359.54
527.406	49172.58
527.607	49238.12
527.808	49279.08
528.01	48369.78
528.211	48529.52
528.412	49584.22
528.614	49444.96
528.815	49711.2
529.016	50212.95
529.218	49516.64
529.419	49993.82
529.62	50110.55
529.822	50008.15
530.023	50210.9
530.224	50141.27
530.425	50229.33
530.626	49432.68
530.828	49629.28
531.029	50815.05
531.23	49872.99
531.431	50401.36
531.632	50288.73
531.833	50909.26
532.035	50522.19
532.236	50458.71
532.437	51015.75
532.638	50542.67
532.839	51056.71
533.04	50929.74
533.241	50745.42
533.442	51765.31
533.643	50802.77
533.844	50993.23
534.045	50710.61
534.246	50919.5
534.447	51040.33
534.648	50989.13
534.849	51179.59
535.05	50624.59
535.251	50843.73
535.451	50896.97
535.652	51224.65
535.853	51265.61
536.054	51134.54
536.255	51296.33
536.456	50354.26
536.657	51787.84
536.857	51036.23
537.058	50686.03
537.259	50982.99
537.46	50923.6
537.66	51105.87
537.861	51499.08
538.062	50561.11
538.263	51277.89
538.463	51017.8
538.664	50847.82
538.865	50774.09
539.065	50829.39
539.266	50583.63
539.466	51447.88
539.667	50630.74
539.868	51015.75
540.068	51013.71
540.269	50663.5
540.469	51224.65
540.67	50876.49
540.87	50995.28
541.071	50794.57
541.271	50892.88
541.472	50671.7
541.672	50364.5
541.873	50958.41
542.073	50221.14
542.274	51034.19
542.474	50821.2
542.675	50397.27
542.875	50761.81
543.075	50663.5
543.276	50241.62
543.476	51195.98
543.676	50663.5
543.877	50554.96
544.077	50413.65
544.277	50839.63
544.478	50069.59
544.678	50778.19
544.878	50661.46
545.078	51107.91
545.279	50237.53
545.479	50430.04
545.679	50479.19
545.879	50493.52
546.079	50344.02
546.28	50565.2
546.48	50114.65
546.68	50421.84
546.88	50430.04
547.08	50702.42
547.28	50180.18
547.48	49905.76
547.68	50868.3
547.88	49918.04
548.081	50534.48
548.281	50667.6
548.481	49977.43
548.681	50573.39
548.881	50288.73
549.081	50016.35
549.28	50014.3
549.48	50401.36
549.68	50243.67
549.88	50704.46
550.08	50057.31
550.28	50163.8
550.48	49899.61
550.68	50667.6
550.88	49872.99
551.08	49782.88
551.279	50384.98
551.479	49977.43
551.679	49930.33
551.879	49901.66
552.079	50223.19
552.278	49852.51
552.478	49844.32
552.678	49750.11
552.878	50061.4
553.077	49709.15
553.277	49711.2
553.477	50323.54
553.676	49428.58
553.876	49983.58
554.076	49541.22
554.275	49254.5
554.475	48736.37
554.674	49899.61
554.874	49653.86
555.074	49377.38
555.273	49827.93
555.473	49453.15
555.672	49207.4
555.872	49072.23
556.071	49184.87
556.271	49176.68
556.47	49121.38
556.67	49287.27
556.869	49213.54
557.068	49328.23
557.268	49143.91
557.467	48935.02
557.667	48806
557.866	48836.72
558.065	48490.61
558.265	48787.56
558.464	48693.36
558.663	48953.45
558.863	48359.54
559.062	49098.86
559.261	48056.44
559.461	48975.98
559.66	48189.56
559.859	48488.56
560.058	48210.04
560.258	48570.48
560.457	48019.58
560.656	48222.33
560.855	48339.06
561.054	48433.27
561.253	48212.09
561.453	48373.88
561.652	48324.72
561.851	47939.71
562.05	48009.34
562.249	47487.1
562.448	48324.72
562.647	47923.32
562.846	48113.78
563.045	47648.89
563.244	47296.64
563.443	48148.6
563.642	47505.54
563.841	47540.35
564.04	47317.12
564.239	47509.63
564.438	46928.01
564.637	47255.68
564.836	47177.86
565.035	46739.6
565.234	47110.28
565.432	46997.64
565.631	46743.69
565.83	46782.6
566.029	46983.3
566.228	46473.36
566.427	46739.6
566.625	46352.53
566.824	46227.6
567.023	46794.89
567.222	45930.65
567.42	46981.26
567.619	46454.93
567.818	46074.01
568.016	46354.58
568.215	46764.17
568.414	46108.82
568.612	46178.45
568.811	46106.77
569.01	46354.58
569.208	45484.19
569.407	46008.47
569.605	45494.43
569.804	45944.98
570.002	44990.63
570.201	45746.33
570.4	45256.87
570.598	45203.62
570.797	44974.25
570.995	45291.68
571.193	44724.39
571.392	45437.09
571.59	44622
571.789	44728.49
571.987	44742.83
572.186	44622
572.384	44216.5
572.582	44607.66
572.781	45013.16
572.979	44028.09
573.177	44214.45
573.376	44236.98
573.574	43978.93
573.772	44415.15
573.971	43813.05
574.169	43991.22
574.367	43712.7
574.565	43884.73
574.763	43264.19
574.962	43409.6
575.16	43331.78
575.358	43376.83
575.556	43065.54
575.754	43567.29
575.952	42522.83
576.151	42997.96
576.349	42660.04
576.547	42590.41
576.745	43004.1
576.943	42485.97
577.141	42324.18
577.339	42324.18
577.537	42475.73
577.735	42528.97
577.933	41947.35
578.131	42342.61
578.329	41685.21
578.527	41664.73
578.725	42102.99
578.923	42164.43
579.121	41591
579.319	41668.83
579.516	41642.2
579.714	41521.37
579.912	41267.42
580.11	41406.69
580.308	41275.62
580.506	40931.56
580.704	40941.8
580.901	41158.88
581.099	40847.59
581.297	40747.24
581.495	40435.95
581.692	40835.3
581.89	40507.63
582.088	40321.26
582.285	40274.16
582.483	40356.08
582.681	40100.08
582.878	40157.42
583.076	39799.03
583.274	39948.53
583.471	39457.02
583.669	39573.75
583.866	39254.27
584.064	39272.7
584.262	38897.92
584.459	38768.9
584.657	39153.92
584.854	39309.57
585.052	38750.47
585.249	39194.88
585.447	39006.47
585.644	38488.33
585.841	38787.33
586.039	38654.22
586.236	38154.51
586.434	38058.26
586.631	37857.56
586.828	38136.08
587.026	37916.95
587.223	37789.97
587.42	37519.64
587.618	37640.47
587.815	37302.56
588.012	37237.02
588.21	37343.52
588.407	37722.39
588.604	36825.38
588.801	36962.59
588.999	37241.12
589.196	36841.76
589.393	37034.27
589.59	37134.62
589.787	36561.19
589.984	36417.83
590.182	36067.63
590.379	36333.87
590.576	35995.95
590.773	36069.68
590.97	35819.83
591.167	35957.04
591.364	35451.19
591.561	35631.41
591.758	35246.4
591.955	35219.77
592.152	35860.79
592.349	35273.02
592.546	35193.15
592.743	35375.42
592.94	34900.29
593.137	34945.34
593.334	35119.42
593.531	34767.17
593.727	34904.38
593.924	34638.15
594.121	34804.03
594.318	34376.01
594.515	34333
594.712	34402.63
594.908	34001.23
595.105	34380.1
595.302	33919.31
595.499	33890.64
595.696	33753.43
595.892	33524.05
596.089	33853.78
596.286	33536.34
596.482	33601.88
596.679	33270.11
596.876	33804.63
597.072	33124.7
597.269	33010.01
597.466	32729.44
597.662	32780.64
597.859	32956.77
598.055	33042.78
598.252	32371.05
598.448	32821.6
598.645	32348.52
598.841	32225.64
599.038	32291.18
599.234	32315.75
599.431	31779.18
599.627	31668.59
599.824	31990.13
600.02	31560.05
600.217	31732.08
600.413	31338.87
600.609	31363.45
600.806	31142.27
601.002	31594.87
601.198	31115.64
601.395	30890.37
601.591	30994.81
601.787	30822.78
601.984	30628.23
602.18	30841.21
602.376	30374.28
602.572	30273.93
602.769	30456.2
602.965	29997.45
603.161	30667.14
603.357	29987.21
603.553	30015.88
603.75	30218.63
603.946	29895.05
604.142	30149
604.338	29329.81
604.534	29825.42
604.73	29620.63
604.926	29229.46
605.122	29344.15
605.318	29372.82
605.514	29292.95
605.71	29307.29
605.906	28920.22
606.102	28955.04
606.298	28686.75
606.494	28668.32
606.69	28869.02
606.886	28799.39
607.082	28680.61
607.278	28981.66
607.474	28045.74
607.67	28389.8
607.866	28486.05
608.062	28367.27
608.257	28080.55
608.453	28242.34
608.649	28213.67
608.845	27812.27
609.041	28015.02
609.236	27902.38
609.432	27902.38
609.628	28217.77
609.824	27625.9
610.019	27593.14
610.215	27435.44
610.411	27879.85
610.606	27392.44
610.802	27566.51
610.998	27582.9
611.193	27212.21
611.389	27480.5
611.584	27304.37
611.78	27300.28
611.976	27171.25
612.171	27185.59
612.367	27083.19
612.562	26544.58
612.758	26636.73
612.953	26864.06
613.149	27122.1
613.344	26837.44
613.539	27113.91
613.735	26665.41
613.93	26751.42
614.126	26384.83
614.321	26902.97
614.517	26614.21
614.712	26575.3
614.907	26448.32
615.103	26726.85
615.298	26581.44
615.493	26495.43
615.688	26128.84
615.884	26511.81
616.079	25844.17
616.274	26374.59
616.47	26210.76
616.665	26065.35
616.86	25622.99
617.055	25815.5
617.25	25844.17
617.445	25702.86
617.641	25311.7
617.836	25895.37
618.031	25297.36
618.226	25711.05
618.421	25192.92
618.616	25809.36
618.811	24955.35
619.006	25715.15
619.201	24783.32
619.396	25117.14
619.591	24623.58
619.786	24883.67
619.981	24523.23
620.176	24699.36
620.371	24281.57
620.566	24656.35
620.761	23957.99
620.956	24469.98
621.151	23986.66
621.346	23675.37
621.541	23759.34
621.735	23747.05
621.93	23407.09
622.125	23761.39
622.32	23198.2
622.515	23349.75
622.709	23130.61
622.904	23095.8
623.099	22999.54
623.294	22800.89
623.488	22755.83
623.683	22548.99
623.878	22362.62
624.072	22391.3
624.267	22469.12
624.462	22231.55
624.656	22061.57
624.851	21750.28
625.046	21707.27
625.24	21580.3
625.435	21428.75
625.629	21352.98
625.824	21187.09
626.018	21148.18
626.213	20652.57
626.407	20967.96
626.602	21027.35
626.796	21013.01
626.991	20771.35
627.185	20609.56
627.38	20421.15
627.574	20093.47
627.768	20343.33
627.963	19855.91
628.157	19866.15
628.352	19888.68
628.546	19649.07
628.74	19921.45
628.935	19321.39
629.129	19550.76
629.323	19010.1
629.517	19171.89
629.712	19229.23
629.906	19212.85
630.1	18655.8
630.294	19036.72
630.489	18678.33
630.683	18790.97
630.877	18410.04
631.071	18391.61
631.265	18561.59
631.459	18139.71
631.653	18358.85
631.848	18176.58
632.042	18205.25
632.236	17701.45
632.43	17807.94
632.624	17637.96
632.818	17506.89
633.012	17402.44
633.206	17361.48
633.4	17429.07
633.594	17166.93
633.788	17105.49
633.982	17412.68
634.176	16919.12
634.369	17267.28
634.563	16841.3
634.757	16691.8
634.951	16804.44
635.145	16542.3
635.339	16609.88
635.533	16579.16
635.726	16290.4
635.92	16056.93
636.114	16261.73
636.308	16104.03
636.501	15977.06
636.695	15968.87
636.889	15960.67
637.083	15618.66
637.276	15798.88
637.47	15407.72
637.664	15544.94
637.857	15635.05
638.051	15460.97
638.244	15305.32
638.438	15245.93
638.632	15227.5
638.825	14854.77
639.019	14887.54
639.212	14604.92
639.406	14895.73
639.599	14756.47
639.793	14658.17
639.986	14465.66
640.18	14416.51
640.373	14428.79
640.567	14195.32
640.76	14166.65
640.954	13892.23
641.147	13939.33
641.34	13974.14
641.534	13916.8
641.727	13947.52
641.92	13808.26
642.114	13470.34
642.307	13673.09
642.5	13703.81
642.694	13329.03
642.887	13556.36
643.08	13484.68
643.273	13396.62
643.467	13132.43
643.66	12901.01
643.853	13290.12
644.046	12923.54
644.239	12982.93
644.432	12991.12
644.626	12710.55
644.819	12735.12
645.012	12546.71
645.205	12823.19
645.398	12386.97
645.591	12276.38
645.784	12393.11
645.977	12192.41
646.17	12167.84
646.363	12075.68
646.556	12001.95
646.749	12077.73
646.942	12116.64
647.135	11963.04
647.328	11893.41
647.521	11831.97
647.714	11561.64
647.907	11539.11
648.099	11471.53
648.292	11504.29
648.485	11420.33
648.678	11381.42
648.871	11299.5
649.064	11199.15
649.256	11455.14
649.449	11150
649.642	11012.78
649.835	10877.62
650.027	10955.44
650.22	10828.46
650.413	10744.5
650.605	10777.26
650.798	10885.81
650.991	10496.69
651.183	10699.44
651.376	10443.45
651.568	10437.3
651.761	10504.89
651.954	10402.49
652.146	10416.82
652.339	10298.04
652.531	10216.12
652.724	10091.2
652.916	9976.51
653.109	10072.76
653.301	9999.04
653.494	9894.59
653.686	9620.16
653.879	9814.72
654.071	9732.8
654.263	9728.7
654.456	9640.64
654.648	9771.71
654.84	9470.66
655.033	9597.63
655.225	9571.01
655.417	9628.35
655.61	9181.9
655.802	9173.71
655.994	9128.65
656.186	9409.22
656.379	9011.92
656.571	9102.03
656.763	9069.26
656.955	8905.42
657.148	9251.53
657.34	8846.03
657.532	8768.21
657.724	8585.94
657.916	8813.26
658.108	8678.1
658.3	8624.85
658.492	8594.13
658.684	8569.55
658.876	8465.11
659.068	8608.47
659.26	8317.65
659.452	8403.67
659.644	8262.36
659.836	8108.76
660.028	8192.73
660.22	8166.1
660.412	8291.03
660.604	7981.79
660.796	8121.05
660.988	7940.83
661.18	7873.25
661.372	7727.84
661.563	7668.45
661.755	7703.26
661.947	7781.09
662.139	7899.87
662.331	7559.91
662.522	7592.67
662.714	7658.21
662.906	7539.43
663.097	7265
663.289	7375.59
663.481	7420.64
663.673	7226.09
663.864	7297.77
664.056	7150.31
664.247	7291.62
664.439	6879.98
664.631	7154.41
664.822	7127.78
665.014	6875.88
665.205	6898.41
665.397	6785.77
665.588	6972.14
665.78	6787.82
665.971	6789.87
666.163	6695.66
666.354	6769.39
666.546	6636.27
666.737	6728.43
666.929	6773.49
667.12	6695.66
667.311	6652.66
667.503	6341.36
667.694	6511.35
667.885	6390.52
668.077	6525.68
668.268	6329.08
668.459	6540.02
668.651	6236.92
668.842	6165.24
669.033	6290.17
669.224	6048.51
669.416	6138.62
669.607	6353.65
669.798	6212.34
669.989	6259.45
670.18	6247.16
670.371	5923.58
670.563	6042.36
670.754	6189.81
670.945	5929.72
671.136	5962.49
671.327	5876.48
671.518	5866.24
671.709	5749.5
671.9	5661.44
672.091	5765.89
672.282	5802.75
672.473	5647.1
672.664	5757.69
672.855	5606.14
673.046	5729.02
673.237	5640.96
673.428	5509.89
673.619	5733.12
673.809	5446.4
674	5606.14
674.191	5462.79
674.382	5327.62
674.573	5462.79
674.764	5446.4
674.954	5561.09
675.145	5468.93
675.336	5442.31
675.527	5253.89
675.717	5360.39
675.908	5372.68
676.099	5382.92
676.289	5425.92
676.48	5198.6
676.671	5257.99
676.861	5313.28
677.052	5296.9
677.243	5206.79
677.433	5090.06
677.624	5124.87
677.814	5190.41
678.005	5235.46
678.195	5223.17
678.386	5155.59
678.576	5161.73
678.767	4991.75
678.957	5016.33
679.148	5126.92
679.338	5032.71
679.529	4993.8
679.719	4889.35
679.909	5032.71
680.1	4895.5
680.29	4967.18
680.481	4991.75
680.671	4969.23
680.861	4879.11
681.052	5045
681.242	5032.71
681.432	5022.47
681.622	4930.31
681.813	4827.92
682.003	4889.35
682.193	4784.91
682.383	4746
682.573	4909.83
682.764	4805.39
682.954	4719.37
683.144	4881.16
683.334	4746
683.524	4809.48
683.714	4762.38
683.904	4907.79
684.094	4885.26
684.284	4543.25
684.474	4741.9
684.664	4621.07
684.854	4735.76
685.044	4682.51
685.234	4471.57
685.424	4631.31
685.614	4553.49
685.804	4678.41
685.994	4629.26
686.184	4543.25
686.374	4545.3
686.564	4559.63
686.753	4709.13
686.943	4430.61
687.133	4487.95
687.323	4627.21
687.513	4467.47
687.702	4604.69
687.892	4528.91
688.082	4395.79
688.272	4461.33
688.461	4379.41
688.651	4393.75
688.841	4365.07
689.03	4285.2
689.22	4385.55
689.41	4373.27
689.599	4195.09
689.789	4342.55
689.979	4199.19
690.168	4274.96
690.358	4231.96
690.547	4211.48
690.737	4193.05
690.926	4156.18
691.116	4047.64
691.305	4164.37
691.495	4080.41
691.684	4061.98
691.874	4051.74
692.063	3918.62
692.252	4012.82
692.442	3873.56
692.631	3947.29
692.82	3889.95
693.01	3873.56
693.199	3820.32
693.388	3851.03
693.578	3941.15
693.767	3914.52
693.956	3805.98
694.146	3879.71
694.335	3707.68
694.524	3736.35
694.713	3728.16
694.902	3697.44
695.092	3765.02
695.281	3765.02
695.47	3691.29
695.659	3681.05
695.848	3646.24
696.037	3670.81
696.226	3619.61
696.415	3509.02
696.604	3554.08
696.793	3582.75
696.982	3451.68
697.171	3617.57
697.36	3533.6
697.549	3578.65
697.738	3531.55
697.927	3377.95
698.116	3629.85
698.305	3502.88
698.494	3429.15
698.683	3519.26
698.872	3498.78
699.061	3412.77
699.25	3451.68
699.438	3437.34
699.627	3353.38
699.816	3410.72
700.005	3476.26
700.193	3289.89
700.382	3406.63
700.571	3230.5
700.76	3216.16
700.948	3283.75
701.137	3293.99
701.326	3287.84
701.514	3296.04
701.703	3279.65
701.892	3191.59
702.08	3144.49
702.269	3263.27
702.457	3195.68
702.646	3119.91
702.834	3033.9
703.023	3107.62
703.212	3148.58
703.4	3142.44
703.589	3031.85
703.777	3164.97
703.965	3113.77
704.154	3138.34
704.342	3033.9
704.531	3023.66
704.719	3144.49
704.907	2990.89
705.096	2908.97
705.284	3064.61
705.472	3023.66
705.661	3042.09
705.849	3013.42
706.037	2978.6
706.226	2943.78
706.414	2941.74
706.602	2919.21
706.79	2751.28
706.979	3017.51
707.167	2859.82
707.355	2743.08
707.543	2908.97
707.731	2911.02
707.919	2943.78
708.107	2734.89
708.296	2685.74
708.484	2820.91
708.672	2753.32
708.86	2902.83
709.048	2898.73
709.236	2804.52
709.424	2814.76
709.612	2878.25
709.8	2769.71
709.988	2734.89
710.176	2806.57
710.364	2892.59
710.551	2788.14
710.739	2837.29
710.927	2730.8
711.115	2788.14
711.303	2808.62
711.491	2835.24
711.679	2714.41
711.866	2759.47
712.054	2655.02
712.242	2730.8
712.43	2790.19
712.617	2779.95
712.805	2700.08
712.993	2720.56
713.181	2757.42
713.368	2722.6
713.556	2796.33
713.744	2532.14
713.931	2673.45
714.119	2683.69
714.306	2757.42
714.494	2724.65
714.682	2624.3
714.869	2556.72
715.057	2597.68
715.244	2710.32
715.432	2550.57
715.619	2652.97
715.807	2698.03
715.994	2663.21
716.182	2595.63
716.369	2634.54
716.556	2657.07
716.744	2638.64
716.931	2714.41
717.119	2618.16
717.306	2630.45
717.493	2564.91
717.681	2638.64
717.868	2751.28
718.055	2722.6
718.242	2644.78
718.43	2614.06
718.617	2661.16
718.804	2616.11
718.991	2564.91
719.179	2612.01
719.366	2581.29
719.553	2622.25
719.74	2689.84
719.927	2548.53
720.114	2648.88
720.301	2558.77
720.488	2607.92
720.676	2605.87
720.863	2577.2
721.05	2517.81
721.237	2655.02
721.424	2530.09
721.611	2485.04
721.798	2499.38
721.985	2638.64
722.172	2587.44
722.358	2593.58
722.545	2423.6
722.732	2528.05
722.919	2560.81
723.106	2497.33
723.293	2558.77
723.48	2407.22
723.667	2544.43
723.853	2439.98
724.04	2448.18
724.227	2517.81
724.414	2454.32
724.6	2544.43
724.787	2581.29
724.974	2521.9
725.161	2378.55
725.347	2294.58
725.534	2495.28
725.72	2499.38
725.907	2630.45
726.094	2456.37
726.28	2413.36
726.467	2552.62
726.653	2472.75
726.84	2507.57
727.027	2493.23
727.213	2394.93
727.4	2560.81
727.586	2425.65
727.773	2470.7
727.959	2501.42
728.145	2558.77
728.332	2417.46
728.518	2456.37
728.705	2491.18
728.891	2427.7
729.077	2394.93
729.264	2591.53
729.45	2435.89
729.636	2569.01
729.823	2503.47
730.009	2499.38
730.195	2433.84
730.382	2392.88
730.568	2505.52
730.754	2493.23
730.94	2532.14
731.126	2407.22
731.313	2409.26
731.499	2401.07
731.685	2394.93
731.871	2482.99
732.057	2497.33
732.243	2331.44
732.429	2405.17
732.615	2437.94
732.801	2439.98
732.987	2456.37
733.173	2349.87
733.359	2390.83
733.545	2276.15
733.731	2468.66
733.917	2335.54
734.103	2335.54
734.289	2325.3
734.475	2298.67
734.661	2466.61
734.847	2401.07
735.033	2442.03
735.219	2327.35
735.404	2403.12
735.59	2343.73
735.776	2321.2
735.962	2460.46
736.148	2362.16
736.333	2325.3
736.519	2376.5
736.705	2276.15
736.89	2315.06
737.076	2333.49
737.262	2306.87
737.447	2296.63
737.633	2442.03
737.819	2282.29
738.004	2358.07
738.19	2366.26
738.375	2286.39
738.561	2317.11
738.747	2300.72
738.932	2206.52
739.118	2263.86
739.303	2227
739.489	2181.94
739.674	2138.93
739.859	2222.9
740.045	2188.08
740.23	2319.15
740.416	2261.81
740.601	2214.71
740.786	2231.09
740.972	2110.26
741.157	2265.91
741.342	2155.32
741.528	2202.42
741.713	2208.56
741.898	2067.25
742.084	2024.25
742.269	2157.36
742.454	2161.46
742.639	2071.35
742.824	2118.45
743.01	2198.32
743.195	2134.84
743.38	2108.21
743.565	1999.67
743.75	1940.28
743.935	2108.21
744.12	2120.5
744.305	1985.34
744.49	2075.45
744.675	2003.77
744.86	1927.99
745.045	2007.86
745.23	2011.96
745.415	1983.29
745.6	2052.92
745.785	1966.9
745.97	1952.57
746.155	1975.1
746.34	1968.95
746.525	1862.46
746.71	1915.7
746.895	1930.04
747.079	1878.84
747.264	1962.81
747.449	1932.09
747.634	1821.5
747.819	1817.4
748.003	1887.03
748.188	1811.26
748.373	1803.07
748.557	1813.31
748.742	1856.31
748.927	1803.07
749.111	1825.59
749.296	1715
749.481	1780.54
749.665	1715
749.85	1682.24
750.034	1741.63
750.219	1796.92
750.404	1633.08
750.588	1592.13
750.773	1608.51
750.957	1622.84
751.141	1600.32
751.326	1659.71
751.51	1680.19
751.695	1581.89
751.879	1604.41
752.064	1616.7
752.248	1669.95
752.432	1608.51
752.617	1657.66
752.801	1612.6
752.985	1551.17
753.17	1588.03
753.354	1508.16
753.538	1555.26
753.722	1567.55
753.907	1542.97
754.091	1444.67
754.275	1559.36
754.459	1461.06
754.643	1405.76
754.828	1403.71
755.012	1436.48
755.196	1563.45
755.38	1387.33
755.564	1459.01
755.748	1434.43
755.932	1438.53
756.116	1418.05
756.3	1356.61
756.484	1325.89
756.668	1385.28
756.852	1356.61
757.036	1344.32
757.22	1272.64
757.404	1332.03
757.588	1157.96
757.772	1325.89
757.956	1354.56
758.14	1237.83
758.323	1268.55
758.507	1237.83
758.691	1250.11
758.875	1289.03
759.059	1342.27
759.242	1243.97
759.426	1182.53
759.61	1282.88
759.794	1313.6
759.977	1205.06
760.161	1170.24
760.345	1233.73
760.528	1125.19
760.712	1172.29
760.895	1117
761.079	1157.96
761.263	1135.43
761.446	1137.48
761.63	1131.33
761.813	1151.81
761.997	1084.23
762.18	1133.38
762.364	1117
762.547	1110.85
762.731	1117
762.914	1035.08
763.098	1133.38
763.281	1127.24
763.464	1051.46
763.648	1112.9
763.831	1084.23
764.015	1010.5
764.198	1039.17
764.381	1100.61
764.564	1057.61
764.748	1071.94
764.931	994.12
765.114	985.93
765.297	1049.41
765.481	1030.98
765.664	1053.51
765.847	1057.61
766.03	1043.27
766.213	1051.46
766.397	1080.13
766.58	975.69
766.763	1000.26
766.946	942.92
767.129	1082.18
767.312	1010.5
767.495	1051.46
767.678	969.54
767.861	924.49
768.044	949.06
768.227	904.01
768.41	916.3
768.593	977.73
768.776	1030.98
768.959	973.64
769.142	975.69
769.324	836.42
769.507	944.97
769.69	852.81
769.873	959.3
770.056	940.87
770.239	947.01
770.421	930.63
770.604	889.67
770.787	987.97
770.97	932.68
771.152	955.21
771.335	879.43
771.518	955.21
771.7	787.27
771.883	926.54
772.066	906.06
772.248	875.34
772.431	848.71
772.613	918.34
772.796	889.67
772.978	817.99
773.161	891.72
773.343	906.06
773.526	893.77
773.708	791.37
773.891	908.1
774.073	803.66
774.256	836.42
774.438	824.14
774.621	774.99
774.803	822.09
774.985	787.27
775.168	811.85
775.35	781.13
775.532	717.64
775.715	836.42
775.897	797.51
776.079	736.07
776.261	713.55
776.444	715.59
776.626	828.23
776.808	729.93
776.99	727.88
777.173	695.11
777.355	715.59
777.537	707.4
777.719	805.71
777.901	666.44
778.083	711.5
778.265	625.48
778.447	725.83
778.629	652.11
778.811	645.96
778.993	602.96
779.175	596.81
779.357	633.68
779.539	600.91
779.721	592.72
779.903	666.44
780.085	543.57
780.267	621.39
780.449	602.96
780.631	682.83
780.812	625.48
780.994	635.72
781.176	713.55
781.358	574.28
781.54	594.76
781.721	625.48
781.903	531.28
782.085	529.23
782.267	549.71
782.448	592.72
782.63	600.91
782.812	572.24
782.993	590.67
783.175	596.81
783.357	576.33
783.538	518.99
783.72	555.85
783.901	564.04
784.083	500.56
784.264	490.32
784.446	514.89
784.627	424.78
784.809	500.56
784.99	486.22
785.172	478.03
785.353	490.32
785.535	455.5
785.716	484.17
785.897	461.65
786.079	494.41
786.26	504.65
786.441	551.76
786.623	383.82
786.804	469.84
786.985	441.17
787.167	459.6
787.348	473.93
787.529	428.88
787.71	447.31
787.891	512.85
788.073	408.4
788.254	422.73
788.435	375.63
788.616	469.84
788.797	459.6
788.978	430.93
789.159	424.78
789.34	441.17
789.522	363.34
789.703	375.63
789.884	439.12
790.065	342.86
790.246	451.41
790.427	385.87
790.607	410.45
790.788	406.35
790.969	381.78
791.15	404.3
791.331	377.68
791.512	363.34
791.693	379.73
791.874	426.83
792.054	359.25
792.235	332.62
792.416	301.9
792.597	363.34
792.778	387.92
792.958	379.73
793.139	271.19
793.32	332.62
793.5	443.21
793.681	398.16
793.862	334.67
794.042	328.53
794.223	334.67
794.404	322.38
794.584	320.34
794.765	287.57
794.945	371.54
795.126	328.53
795.306	322.38
795.487	320.34
795.667	322.38
795.848	349.01
796.028	314.19
796.209	392.02
796.389	265.04
796.57	342.86
796.75	338.77
796.93	269.14
797.111	334.67
797.291	232.27
797.471	355.15
797.652	291.66
797.832	273.23
798.012	361.3
798.192	295.76
798.373	324.43
798.553	295.76
798.733	267.09
798.913	232.27
799.093	262.99
799.274	330.58
799.454	209.75
799.634	297.81
799.814	281.43
799.994	232.27
800.174	293.71
800.354	308.05
800.534	301.9
800.714	230.23
800.894	228.18
801.074	222.03
801.254	299.86
801.434	246.61
801.614	306
801.794	262.99
801.974	650.06
802.154	269.14
802.334	322.38
802.514	248.66
802.693	281.43
802.873	238.42
803.053	244.56
803.233	170.83
803.413	203.6
803.592	187.22
803.772	211.79
803.952	320.34
804.131	273.23
804.311	287.57
804.491	277.33
804.67	254.8
804.85	156.5
805.03	183.12
805.209	285.52
805.389	219.99
805.568	262.99
805.748	207.7
805.928	156.5
806.107	152.4
806.287	252.75
806.466	152.4
806.646	191.31
806.825	211.79
807.004	207.7
807.184	152.4
807.363	222.03
807.543	217.94
807.722	283.47
807.901	271.19
808.081	244.56
808.26	117.59
808.439	226.13
808.619	123.73
808.798	174.93
808.977	117.59
809.156	183.12
809.336	213.84
809.515	164.69
809.694	199.51
809.873	150.36
810.052	185.17
810.231	207.7
810.411	205.65
810.59	166.74
810.769	129.88
810.948	121.68
811.127	117.59
811.306	179.03
811.485	215.89
811.664	246.61
811.843	136.02
812.022	146.26
812.201	144.21
812.38	244.56
812.559	105.3
812.737	150.36
812.916	111.44
813.095	127.83
813.274	113.49
813.453	174.93
813.632	109.4
813.811	150.36
813.989	121.68
814.168	242.51
814.347	123.73
814.526	168.79
814.704	160.59
814.883	203.6
815.062	140.12
815.24	152.4
815.419	125.78
815.598	185.17
815.776	138.07
815.955	148.31
816.133	111.44
816.312	123.73
816.49	164.69
816.669	111.44
816.847	60.24
817.026	113.49
817.204	103.25
817.383	105.3
817.561	121.68
817.74	93.01
817.918	117.59
818.097	125.78
818.275	95.06
818.453	86.87
818.632	140.12
818.81	195.41
818.988	99.16
819.167	160.59
819.345	193.36
819.523	101.2
819.701	131.92
819.879	119.64
820.058	88.92
820.236	119.64
820.414	129.88
820.592	101.2
820.77	138.07
820.948	133.97
821.127	84.82
821.305	131.92
821.483	86.87
821.661	133.97
821.839	138.07
822.017	107.35
822.195	76.63
822.373	70.48
822.551	129.88
822.729	119.64
822.907	146.26
823.085	166.74
823.262	101.2
823.44	121.68
823.618	146.26
823.796	97.11
823.974	103.25
824.152	172.88
824.329	84.82
824.507	82.77
824.685	56.15
824.863	78.68
825.04	131.92
825.218	68.44
825.396	84.82
825.574	109.4
825.751	131.92
825.929	150.36
826.107	99.16
826.284	138.07
826.462	90.96
826.639	115.54
826.817	31.57
826.994	101.2
827.172	68.44
827.349	138.07
827.527	146.26
827.704	127.83
827.882	93.01
828.059	25.43
828.237	54.1
828.414	125.78
828.591	64.34
828.769	115.54
828.946	90.96
829.124	195.41
829.301	54.1
829.478	101.2
829.655	76.63
829.833	56.15
830.01	74.58
830.187	129.88
830.364	125.78
830.542	68.44
830.719	80.72
830.896	82.77
831.073	105.3
831.25	70.48
831.427	101.2
831.604	181.07
831.782	121.68
831.959	76.63
832.136	84.82
832.313	109.4
832.49	119.64
832.667	70.48
832.844	105.3
833.021	125.78
833.198	97.11
833.374	66.39
833.551	76.63
833.728	21.33
833.905	154.45
834.082	58.2
834.259	58.2
834.436	88.92
834.612	99.16
834.789	58.2
834.966	41.81
835.143	58.2
835.319	150.36
835.496	103.25
835.673	-1.19
835.85	115.54
836.026	0.85
836.203	144.21
836.38	35.67
836.556	60.24
836.733	4.95
836.909	105.3
837.086	23.38
837.262	93.01
837.439	33.62
837.616	47.96
837.792	133.97
837.968	133.97
838.145	78.68
838.321	60.24
838.498	4.95
838.674	62.29
838.851	101.2
839.027	62.29
839.203	39.76
839.38	60.24
839.556	9.05
839.732	41.81
839.909	15.19
840.085	66.39
840.261	60.24
840.437	68.44
840.614	68.44
840.79	27.48
840.966	109.4
841.142	31.57
841.318	37.72
841.494	45.91
841.671	35.67
841.847	9.05
842.023	93.01
842.199	74.58
842.375	101.2
842.551	25.43
842.727	-1.19
842.903	86.87
843.079	50
843.255	74.58
843.431	-21.67
843.607	129.88
843.783	2.9
843.959	78.68
844.134	-9.39
844.31	60.24
844.486	-31.91
844.662	86.87
844.838	66.39
845.013	78.68
845.189	35.67
845.365	72.53
845.541	47.96
845.716	19.29
845.892	43.86
846.068	76.63
846.244	47.96
846.419	60.24
846.595	39.76
846.77	101.2
846.946	105.3
847.122	23.38
847.297	-42.15
847.473	52.05
847.648	52.05
847.824	15.19
847.999	23.38
848.175	13.14
848.35	11.09
848.526	80.72
848.701	58.2
848.876	35.67
849.052	84.82
849.227	-23.72
849.403	9.05
849.578	-11.43
849.753	82.77
849.929	60.24
850.104	17.24
850.279	78.68
850.454	-5.29
850.63	56.15
850.805	35.67
850.98	-5.29
851.155	31.57
851.33	27.48
851.505	66.39
851.681	82.77
851.856	45.91
852.031	54.1
852.206	17.24
852.381	66.39
852.556	7
852.731	56.15
852.906	103.25
853.081	9.05
853.256	19.29
853.431	-44.2
853.606	29.52
853.781	-3.24
853.956	-13.48
854.131	-40.11
854.305	2.9
854.48	47.96
854.655	7
854.83	35.67
855.005	43.86
855.18	7
855.354	-38.06
855.529	60.24
855.704	23.38
855.879	80.72
856.053	50
856.228	101.2
856.403	0.85
856.577	-27.82
856.752	17.24
856.926	41.81
857.101	-36.01
857.276	2.9
857.45	56.15
857.625	78.68
857.799	19.29
857.974	37.72
858.148	101.2
858.323	4.95
858.497	-5.29
858.672	15.19
858.846	-36.01
859.02	47.96
859.195	50
859.369	50
859.543	-21.67
859.718	19.29
859.892	35.67
860.066	66.39
860.241	-93.35
860.415	-5.29
860.589	33.62
860.763	35.67
860.938	-1.19
861.112	70.48
861.286	-11.43
861.46	-3.24
861.634	60.24
861.808	82.77
861.982	25.43
862.157	52.05
862.331	78.68
862.505	-1.19
862.679	19.29
862.853	29.52
863.027	84.82
863.201	11.09
863.375	-3.24
863.549	66.39
863.722	2.9
863.896	11.09
864.07	21.33
864.244	60.24
864.418	19.29
864.592	60.24
864.766	11.09
864.939	93.01
865.113	4.95
865.287	47.96
865.461	9.05
865.634	19.29
865.808	0.85
865.982	9.05
866.156	19.29
866.329	29.52
866.503	-29.87
866.676	-5.29
866.85	39.76
867.024	-5.29
867.197	21.33
867.371	2.9
867.544	78.68
867.718	54.1
867.891	-9.39
868.065	37.72
868.238	-46.25
868.412	27.48
868.585	13.14
868.759	21.33
868.932	21.33
869.105	-48.3
869.279	-1.19
869.452	-13.48
869.625	43.86
869.799	-7.34
869.972	72.53
870.145	80.72
870.319	39.76
870.492	-3.24
870.665	86.87
870.838	-21.67
871.011	7
871.185	9.05
871.358	-29.87
871.531	29.52
871.704	33.62
871.877	90.96
872.05	-17.58
872.223	43.86
872.396	52.05
872.569	11.09
872.742	27.48
872.915	45.91
873.088	76.63
873.261	19.29
873.434	35.67
873.607	-3.24
873.78	-21.67
873.953	31.57
874.126	80.72
874.299	0.85
874.471	41.81
874.644	-3.24
874.817	-48.3
874.99	-7.34
875.163	0.85
875.335	23.38
875.508	-11.43
875.681	64.34
875.853	-60.59
876.026	-25.77
876.199	27.48
876.371	-13.48
876.544	7
876.717	50
876.889	25.43
877.062	-15.53
877.234	33.62
877.407	33.62
877.579	13.14
877.752	-33.96
877.924	17.24
878.097	47.96
878.269	19.29
878.442	45.91
878.614	25.43
878.786	-38.06
878.959	50
879.131	7
879.303	0.85
879.476	-50.35
879.648	19.29
879.82	-27.82
879.993	-11.43
880.165	78.68
880.337	-83.11
880.509	-3.24
880.681	13.14
880.854	19.29
881.026	68.44
881.198	21.33
881.37	11.09
881.542	54.1
881.714	-3.24
881.886	19.29
882.058	-15.53
882.23	25.43
882.402	-74.92
882.574	54.1
882.746	-17.58
882.918	21.33
883.09	-44.2
883.262	33.62
883.434	27.48
883.606	11.09
883.778	35.67
883.95	-19.63
884.122	-25.77
884.293	21.33
884.465	-21.67
884.637	15.19
884.809	-1.19
884.98	27.48
885.152	19.29
885.324	-79.02
885.496	76.63
885.667	84.82
885.839	-52.39
886.011	-36.01
886.182	11.09
886.354	39.76
886.525	-27.82
886.697	-29.87
886.869	23.38
887.04	25.43
887.212	95.06
887.383	-7.34
887.555	-17.58
887.726	-38.06
887.897	-54.44
888.069	-5.29
888.24	11.09
888.412	19.29
888.583	21.33
888.754	-54.44
888.926	76.63
889.097	47.96
889.268	-44.2
889.44	-29.87
889.611	-31.91
889.782	4.95
889.953	-3.24
890.125	-3.24
890.296	-15.53
890.467	43.86
890.638	17.24
890.809	21.33
890.98	-66.73
891.151	80.72
891.323	-60.59
891.494	35.67
891.665	17.24
891.836	-117.93
892.007	-13.48
892.178	45.91
892.349	19.29
892.52	-60.59
892.691	-23.72
892.862	-7.34
893.032	31.57
893.203	-36.01
893.374	-5.29
893.545	47.96
893.716	-11.43
893.887	-40.11
894.057	-19.63
894.228	-17.58
894.399	-21.67
894.57	70.48
894.74	0.85
894.911	43.86
895.082	19.29
895.253	-17.58
895.423	0.85
895.594	-54.44
895.764	74.58
895.935	-19.63
896.106	-52.39
896.276	95.06
896.447	-38.06
896.617	-56.49
896.788	-7.34
896.958	-15.53
897.129	-27.82
897.299	-9.39
897.47	72.53
897.64	-1.19
897.81	11.09
897.981	-3.24
898.151	-23.72
898.322	31.57
898.492	7
898.662	2.9
898.832	-5.29
899.003	25.43
899.173	31.57
899.343	-5.29
899.513	-38.06
