Data from USB4F104151__32__11-36-47-585.txt Node

Date: Fri Mar 14 11:36:47 EDT 2025
User: louis
Spectrometer: USB4F10415
Trigger mode: 4
Integration Time (sec): 2.000000E-2
Scans to average: 1
Electric dark correction enabled: true
Nonlinearity correction enabled: false
Boxcar width: 0
XAxis mode: Wavelengths
Number of Pixels in Spectrum: 3648
>>>>>Begin Spectral Data<<<<<
178.204	-66.56
178.424	-66.56
178.644	-66.56
178.864	-78.85
179.084	-78.85
179.304	-56.32
179.524	21.5
179.744	25.6
179.964	62.46
180.184	23.55
180.404	37.89
180.624	-56.32
180.844	-27.65
181.064	-13.31
181.283	-11.26
181.503	-11.26
181.723	5.12
181.943	-39.94
182.163	29.7
182.383	25.6
182.602	56.32
182.822	68.61
183.042	80.89
183.262	-115.71
183.482	52.22
183.701	72.7
183.921	25.6
184.141	37.89
184.361	74.75
184.58	35.84
184.8	72.7
185.02	-15.36
185.239	-3.07
185.459	66.56
185.679	50.18
185.898	-89.09
186.118	56.32
186.338	-27.65
186.557	39.94
186.777	-25.6
186.997	25.6
187.216	29.7
187.436	68.61
187.655	9.22
187.875	-13.31
188.095	97.28
188.314	-21.5
188.534	13.31
188.753	-52.22
188.973	-76.8
189.192	46.08
189.412	41.98
189.631	46.08
189.851	-27.65
190.07	60.42
190.29	-21.5
190.509	84.99
190.729	-48.13
190.948	-7.17
191.168	134.14
191.387	-1.02
191.607	13.31
191.826	-23.55
192.045	-15.36
192.265	-46.08
192.484	58.37
192.704	21.5
192.923	3.07
193.142	50.18
193.362	-23.55
193.581	13.31
193.8	39.94
194.02	58.37
194.239	70.65
194.458	54.27
194.678	54.27
194.897	17.41
195.116	82.94
195.335	5.12
195.555	29.7
195.774	1.02
195.993	39.94
196.212	5.12
196.432	89.09
196.651	68.61
196.87	58.37
197.089	50.18
197.308	1.02
197.528	25.6
197.747	5.12
197.966	-9.22
198.185	113.66
198.404	29.7
198.623	5.12
198.842	9.22
199.062	15.36
199.281	23.55
199.5	-66.56
199.719	21.5
199.938	58.37
200.157	21.5
200.376	44.03
200.595	136.19
200.814	31.74
201.033	-25.6
201.252	48.13
201.471	48.13
201.69	23.55
201.909	17.41
202.128	-56.32
202.347	-13.31
202.566	37.89
202.785	58.37
203.004	-66.56
203.223	-31.74
203.442	-35.84
203.661	5.12
203.879	-54.27
204.098	33.79
204.317	11.26
204.536	-58.37
204.755	5.12
204.974	11.26
205.193	33.79
205.411	144.38
205.63	27.65
205.849	11.26
206.068	-7.17
206.287	74.75
206.505	-31.74
206.724	19.46
206.943	11.26
207.162	11.26
207.381	66.56
207.599	58.37
207.818	74.75
208.037	33.79
208.255	5.12
208.474	68.61
208.693	-1.02
208.911	25.6
209.13	37.89
209.349	84.99
209.567	-9.22
209.786	9.22
210.005	25.6
210.223	-35.84
210.442	-35.84
210.661	54.27
210.879	13.31
211.098	58.37
211.316	-9.22
211.535	15.36
211.753	9.22
211.972	-25.6
212.191	37.89
212.409	-3.07
212.628	-9.22
212.846	-23.55
213.065	70.65
213.283	64.51
213.502	-9.22
213.72	-3.07
213.938	70.65
214.157	41.98
214.375	15.36
214.594	19.46
214.812	27.65
215.031	33.79
215.249	-80.89
215.467	15.36
215.686	-54.27
215.904	33.79
216.122	-9.22
216.341	17.41
216.559	39.94
216.778	-3.07
216.996	1.02
217.214	-23.55
217.432	60.42
217.651	17.41
217.869	21.5
218.087	25.6
218.306	9.22
218.524	3.07
218.742	-31.74
218.96	7.17
219.179	15.36
219.397	-11.26
219.615	66.56
219.833	-5.12
220.051	17.41
220.27	27.65
220.488	21.5
220.706	1.02
220.924	-39.94
221.142	29.7
221.36	39.94
221.578	82.94
221.796	60.42
222.015	23.55
222.233	41.98
222.451	58.37
222.669	-48.13
222.887	7.17
223.105	64.51
223.323	-7.17
223.541	27.65
223.759	-7.17
223.977	5.12
224.195	52.22
224.413	105.47
224.631	56.32
224.849	-15.36
225.067	11.26
225.285	-15.36
225.503	68.61
225.721	31.74
225.939	39.94
226.157	1.02
226.375	74.75
226.592	-39.94
226.81	54.27
227.028	7.17
227.246	87.04
227.464	-5.12
227.682	-7.17
227.9	-17.41
228.117	64.51
228.335	56.32
228.553	23.55
228.771	-21.5
228.989	13.31
229.206	3.07
229.424	50.18
229.642	29.7
229.86	11.26
230.077	1.02
230.295	1.02
230.513	-41.98
230.731	5.12
230.948	25.6
231.166	87.04
231.384	-54.27
231.601	3.07
231.819	58.37
232.037	-7.17
232.254	35.84
232.472	66.56
232.689	-3.07
232.907	113.66
233.125	1.02
233.342	19.46
233.56	37.89
233.777	-5.12
233.995	-15.36
234.213	39.94
234.43	91.13
234.648	46.08
234.865	58.37
235.083	21.5
235.3	15.36
235.518	19.46
235.735	80.89
235.953	78.85
236.17	9.22
236.388	21.5
236.605	89.09
236.822	62.46
237.04	68.61
237.257	-44.03
237.475	-7.17
237.692	31.74
237.909	13.31
238.127	3.07
238.344	17.41
238.562	-7.17
238.779	58.37
238.996	78.85
239.214	-1.02
239.431	41.98
239.648	46.08
239.865	37.89
240.083	56.32
240.3	-56.32
240.517	23.55
240.735	82.94
240.952	56.32
241.169	27.65
241.386	21.5
241.603	-39.94
241.821	-11.26
242.038	-3.07
242.255	54.27
242.472	-11.26
242.689	-5.12
242.907	-7.17
243.124	-37.89
243.341	66.56
243.558	29.7
243.775	82.94
243.992	25.6
244.209	37.89
244.426	58.37
244.643	-48.13
244.86	-46.08
245.078	33.79
245.295	23.55
245.512	-9.22
245.729	-31.74
245.946	78.85
246.163	46.08
246.38	7.17
246.597	80.89
246.814	56.32
247.031	35.84
247.248	17.41
247.464	54.27
247.681	44.03
247.898	-31.74
248.115	111.61
248.332	-33.79
248.549	58.37
248.766	48.13
248.983	31.74
249.2	-27.65
249.417	128
249.633	62.46
249.85	48.13
250.067	5.12
250.284	-9.22
250.501	-11.26
250.717	58.37
250.934	-1.02
251.151	89.09
251.368	-37.89
251.585	3.07
251.801	29.7
252.018	-11.26
252.235	21.5
252.451	48.13
252.668	3.07
252.885	29.7
253.102	-11.26
253.318	31.74
253.535	-15.36
253.752	-17.41
253.968	13.31
254.185	33.79
254.401	25.6
254.618	60.42
254.835	46.08
255.051	23.55
255.268	-9.22
255.484	7.17
255.701	62.46
255.917	35.84
256.134	56.32
256.351	31.74
256.567	-5.12
256.784	103.42
257	58.37
257.217	3.07
257.433	111.61
257.65	121.85
257.866	13.31
258.082	-11.26
258.299	-27.65
258.515	9.22
258.732	5.12
258.948	41.98
259.165	33.79
259.381	9.22
259.597	50.18
259.814	-19.46
260.03	-31.74
260.246	31.74
260.463	9.22
260.679	39.94
260.895	44.03
261.112	9.22
261.328	-5.12
261.544	19.46
261.761	9.22
261.977	7.17
262.193	17.41
262.409	19.46
262.626	64.51
262.842	29.7
263.058	9.22
263.274	76.8
263.49	68.61
263.707	-3.07
263.923	41.98
264.139	48.13
264.355	29.7
264.571	46.08
264.787	-46.08
265.004	25.6
265.22	72.7
265.436	31.74
265.652	-39.94
265.868	87.04
266.084	50.18
266.3	-5.12
266.516	-23.55
266.732	48.13
266.948	97.28
267.164	37.89
267.38	82.94
267.596	41.98
267.812	93.18
268.028	-15.36
268.244	17.41
268.46	-19.46
268.676	80.89
268.892	76.8
269.108	-13.31
269.324	17.41
269.54	-11.26
269.756	58.37
269.972	-23.55
270.188	58.37
270.403	-1.02
270.619	-7.17
270.835	25.6
271.051	84.99
271.267	-1.02
271.483	46.08
271.698	9.22
271.914	70.65
272.13	23.55
272.346	66.56
272.562	62.46
272.777	76.8
272.993	-9.22
273.209	78.85
273.425	-15.36
273.64	-7.17
273.856	33.79
274.072	-17.41
274.287	37.89
274.503	1.02
274.719	23.55
274.934	23.55
275.15	-17.41
275.366	56.32
275.581	-44.03
275.797	48.13
276.012	97.28
276.228	33.79
276.444	-35.84
276.659	11.26
276.875	41.98
277.09	35.84
277.306	17.41
277.521	19.46
277.737	48.13
277.952	56.32
278.168	78.85
278.383	-11.26
278.599	-3.07
278.814	37.89
279.03	56.32
279.245	58.37
279.461	-39.94
279.676	25.6
279.892	9.22
280.107	33.79
280.322	3.07
280.538	1.02
280.753	54.27
280.969	95.23
281.184	82.94
281.399	39.94
281.615	48.13
281.83	23.55
282.045	-9.22
282.26	13.31
282.476	-19.46
282.691	44.03
282.906	80.89
283.122	39.94
283.337	33.79
283.552	35.84
283.767	56.32
283.983	119.81
284.198	1.02
284.413	29.7
284.628	-11.26
284.843	9.22
285.058	9.22
285.274	50.18
285.489	58.37
285.704	5.12
285.919	89.09
286.134	11.26
286.349	72.7
286.564	46.08
286.779	93.18
286.995	17.41
287.21	-15.36
287.425	117.76
287.64	15.36
287.855	23.55
288.07	7.17
288.285	33.79
288.5	13.31
288.715	-31.74
288.93	52.22
289.145	-3.07
289.36	82.94
289.575	29.7
289.79	58.37
290.004	9.22
290.219	17.41
290.434	-44.03
290.649	-27.65
290.864	41.98
291.079	58.37
291.294	-27.65
291.509	62.46
291.724	76.8
291.938	56.32
292.153	39.94
292.368	3.07
292.583	107.52
292.798	33.79
293.012	-15.36
293.227	-27.65
293.442	19.46
293.657	-1.02
293.871	80.89
294.086	21.5
294.301	-17.41
294.516	31.74
294.73	50.18
294.945	-72.7
295.16	74.75
295.374	3.07
295.589	54.27
295.804	9.22
296.018	-41.98
296.233	97.28
296.447	-9.22
296.662	19.46
296.877	87.04
297.091	-27.65
297.306	95.23
297.52	-3.07
297.735	37.89
297.949	66.56
298.164	-23.55
298.378	66.56
298.593	-23.55
298.807	21.5
299.022	37.89
299.236	78.85
299.451	23.55
299.665	41.98
299.88	76.8
300.094	68.61
300.309	29.7
300.523	23.55
300.737	-48.13
300.952	76.8
301.166	-21.5
301.381	13.31
301.595	111.61
301.809	23.55
302.024	-21.5
302.238	-15.36
302.452	33.79
302.667	48.13
302.881	46.08
303.095	3.07
303.309	17.41
303.524	19.46
303.738	58.37
303.952	60.42
304.166	-25.6
304.381	-23.55
304.595	99.33
304.809	-23.55
305.023	13.31
305.237	-41.98
305.452	35.84
305.666	66.56
305.88	66.56
306.094	68.61
306.308	70.65
306.522	68.61
306.736	-62.46
306.95	15.36
307.164	56.32
307.379	21.5
307.593	56.32
307.807	103.42
308.021	19.46
308.235	-11.26
308.449	17.41
308.663	103.42
308.877	80.89
309.091	-17.41
309.305	46.08
309.519	-23.55
309.733	58.37
309.947	33.79
310.161	-13.31
310.374	74.75
310.588	50.18
310.802	41.98
311.016	25.6
311.23	99.33
311.444	1.02
311.658	50.18
311.872	80.89
312.085	56.32
312.299	35.84
312.513	123.9
312.727	105.47
312.941	41.98
313.154	95.23
313.368	80.89
313.582	78.85
313.796	-1.02
314.009	23.55
314.223	80.89
314.437	54.27
314.651	13.31
314.864	-13.31
315.078	-5.12
315.292	37.89
315.505	33.79
315.719	66.56
315.933	56.32
316.146	46.08
316.36	35.84
316.573	19.46
316.787	17.41
317.001	39.94
317.214	-7.17
317.428	46.08
317.641	31.74
317.855	3.07
318.068	62.46
318.282	17.41
318.495	52.22
318.709	82.94
318.922	13.31
319.136	68.61
319.349	9.22
319.563	-29.7
319.776	68.61
319.99	15.36
320.203	15.36
320.417	39.94
320.63	80.89
320.843	99.33
321.057	1.02
321.27	115.71
321.483	41.98
321.697	56.32
321.91	-5.12
322.124	87.04
322.337	54.27
322.55	13.31
322.763	23.55
322.977	48.13
323.19	48.13
323.403	-39.94
323.617	56.32
323.83	56.32
324.043	91.13
324.256	-11.26
324.469	9.22
324.683	17.41
324.896	41.98
325.109	-21.5
325.322	-11.26
325.535	-1.02
325.748	72.7
325.962	29.7
326.175	15.36
326.388	41.98
326.601	58.37
326.814	39.94
327.027	-23.55
327.24	91.13
327.453	74.75
327.666	68.61
327.879	41.98
328.092	74.75
328.305	52.22
328.518	48.13
328.731	41.98
328.944	52.22
329.157	46.08
329.37	9.22
329.583	-3.07
329.796	128
330.009	-5.12
330.222	125.95
330.435	41.98
330.648	76.8
330.861	44.03
331.073	-48.13
331.286	19.46
331.499	-9.22
331.712	39.94
331.925	115.71
332.138	33.79
332.35	29.7
332.563	-7.17
332.776	76.8
332.989	105.47
333.202	-3.07
333.414	50.18
333.627	37.89
333.84	29.7
334.053	60.42
334.265	39.94
334.478	58.37
334.691	37.89
334.903	17.41
335.116	29.7
335.329	48.13
335.541	-31.74
335.754	1.02
335.966	7.17
336.179	41.98
336.392	-15.36
336.604	-46.08
336.817	31.74
337.029	72.7
337.242	-31.74
337.454	56.32
337.667	5.12
337.88	68.61
338.092	11.26
338.305	121.85
338.517	25.6
338.729	33.79
338.942	23.55
339.154	7.17
339.367	3.07
339.579	21.5
339.792	-7.17
340.004	58.37
340.217	7.17
340.429	60.42
340.641	31.74
340.854	37.89
341.066	33.79
341.278	80.89
341.491	-1.02
341.703	91.13
341.915	37.89
342.128	74.75
342.34	50.18
342.552	21.5
342.764	68.61
342.977	13.31
343.189	62.46
343.401	66.56
343.613	48.13
343.826	13.31
344.038	37.89
344.25	27.65
344.462	1.02
344.674	29.7
344.886	-9.22
345.099	-5.12
345.311	31.74
345.523	70.65
345.735	37.89
345.947	78.85
346.159	50.18
346.371	44.03
346.583	91.13
346.795	27.65
347.007	29.7
347.219	119.81
347.431	7.17
347.643	107.52
347.855	15.36
348.067	62.46
348.279	13.31
348.491	64.51
348.703	-39.94
348.915	91.13
349.127	27.65
349.339	105.47
349.551	3.07
349.763	46.08
349.975	87.04
350.187	54.27
350.399	87.04
350.61	9.22
350.822	158.72
351.034	76.8
351.246	58.37
351.458	64.51
351.669	62.46
351.881	17.41
352.093	91.13
352.305	-19.46
352.517	82.94
352.728	70.65
352.94	128
353.152	56.32
353.363	5.12
353.575	-41.98
353.787	50.18
353.999	13.31
354.21	78.85
354.422	78.85
354.633	-19.46
354.845	66.56
355.057	44.03
355.268	111.61
355.48	-25.6
355.692	1.02
355.903	25.6
356.115	87.04
356.326	80.89
356.538	70.65
356.749	58.37
356.961	72.7
357.172	103.42
357.384	13.31
357.595	31.74
357.807	72.7
358.018	58.37
358.23	119.81
358.441	70.65
358.653	15.36
358.864	7.17
359.075	-23.55
359.287	78.85
359.498	54.27
359.709	70.65
359.921	58.37
360.132	62.46
360.344	-31.74
360.555	52.22
360.766	62.46
360.977	-7.17
361.189	58.37
361.4	107.52
361.611	97.28
361.823	91.13
362.034	56.32
362.245	58.37
362.456	41.98
362.667	19.46
362.879	91.13
363.09	7.17
363.301	17.41
363.512	56.32
363.723	-44.03
363.935	134.14
364.146	1.02
364.357	41.98
364.568	66.56
364.779	21.5
364.99	138.24
365.201	48.13
365.412	99.33
365.623	78.85
365.834	-3.07
366.045	52.22
366.256	64.51
366.467	54.27
366.678	62.46
366.889	56.32
367.1	146.43
367.311	15.36
367.522	-19.46
367.733	140.29
367.944	44.03
368.155	56.32
368.366	82.94
368.577	46.08
368.788	97.28
368.999	31.74
369.209	46.08
369.42	87.04
369.631	29.7
369.842	84.99
370.053	25.6
370.264	58.37
370.474	39.94
370.685	78.85
370.896	17.41
371.107	48.13
371.317	146.43
371.528	29.7
371.739	105.47
371.95	39.94
372.16	3.07
372.371	29.7
372.582	70.65
372.792	-23.55
373.003	91.13
373.214	-25.6
373.424	72.7
373.635	50.18
373.846	113.66
374.056	41.98
374.267	136.19
374.477	-1.02
374.688	87.04
374.898	-11.26
375.109	5.12
375.319	89.09
375.53	64.51
375.74	56.32
375.951	70.65
376.161	95.23
376.372	107.52
376.582	54.27
376.793	-15.36
377.003	15.36
377.214	31.74
377.424	91.13
377.635	66.56
377.845	44.03
378.055	66.56
378.266	-23.55
378.476	46.08
378.686	-15.36
378.897	113.66
379.107	82.94
379.317	91.13
379.528	72.7
379.738	74.75
379.948	109.57
380.158	99.33
380.369	13.31
380.579	80.89
380.789	31.74
380.999	60.42
381.21	103.42
381.42	80.89
381.63	82.94
381.84	48.13
382.05	35.84
382.261	119.81
382.471	48.13
382.681	80.89
382.891	37.89
383.101	82.94
383.311	66.56
383.521	58.37
383.731	91.13
383.941	89.09
384.151	15.36
384.361	132.09
384.571	95.23
384.781	93.18
384.991	68.61
385.201	109.57
385.411	78.85
385.621	97.28
385.831	99.33
386.041	66.56
386.251	33.79
386.461	-1.02
386.671	64.51
386.881	41.98
387.091	27.65
387.301	37.89
387.511	33.79
387.72	76.8
387.93	99.33
388.14	52.22
388.35	15.36
388.56	97.28
388.769	56.32
388.979	91.13
389.189	-44.03
389.399	64.51
389.609	56.32
389.818	115.71
390.028	60.42
390.238	74.75
390.447	23.55
390.657	111.61
390.867	52.22
391.076	50.18
391.286	91.13
391.496	52.22
391.705	87.04
391.915	134.14
392.125	97.28
392.334	76.8
392.544	107.52
392.753	107.52
392.963	11.26
393.172	123.9
393.382	27.65
393.591	173.05
393.801	50.18
394.01	76.8
394.22	82.94
394.429	29.7
394.639	115.71
394.848	142.33
395.058	101.37
395.267	84.99
395.477	121.85
395.686	91.13
395.895	95.23
396.105	117.76
396.314	136.19
396.524	123.9
396.733	54.27
396.942	107.52
397.152	93.18
397.361	89.09
397.57	138.24
397.78	74.75
397.989	19.46
398.198	160.77
398.407	93.18
398.617	152.57
398.826	101.37
399.035	166.91
399.244	87.04
399.453	35.84
399.663	95.23
399.872	66.56
400.081	115.71
400.29	130.05
400.499	17.41
400.708	111.61
400.917	99.33
401.127	134.14
401.336	123.9
401.545	93.18
401.754	185.34
401.963	179.2
402.172	89.09
402.381	87.04
402.59	121.85
402.799	160.77
403.008	115.71
403.217	148.48
403.426	152.57
403.635	70.65
403.844	74.75
404.053	263.16
404.262	121.85
404.471	177.15
404.68	123.9
404.888	140.29
405.097	271.36
405.306	156.67
405.515	140.29
405.724	138.24
405.933	224.25
406.142	195.58
406.35	103.42
406.559	275.45
406.768	142.33
406.977	218.11
407.185	203.77
407.394	240.64
407.603	228.35
407.812	230.4
408.02	252.92
408.229	308.22
408.438	254.97
408.646	246.78
408.855	252.92
409.064	248.83
409.272	300.03
409.481	281.6
409.69	353.27
409.898	373.75
410.107	314.36
410.315	367.61
410.524	451.58
410.733	351.23
410.941	408.57
411.15	447.48
411.358	355.32
411.567	433.15
411.775	326.65
411.984	402.43
412.192	472.06
412.401	461.82
412.609	459.77
412.818	513.02
413.026	541.69
413.234	523.26
413.443	568.31
413.651	515.06
413.86	502.78
414.068	648.18
414.276	648.18
414.485	689.14
414.693	744.44
414.901	701.43
415.11	750.58
415.318	719.86
415.526	705.53
415.734	816.12
415.943	711.67
416.151	855.03
416.359	850.93
416.567	963.57
416.776	967.67
416.984	1031.15
417.192	1088.5
417.4	932.85
417.608	1127.41
417.817	1078.26
418.025	1129.45
418.233	1217.52
418.441	1082.35
418.649	1328.11
418.857	1381.35
419.065	1358.83
419.273	1407.98
419.481	1420.27
419.689	1555.43
419.897	1618.92
420.105	1661.93
420.313	1545.19
420.521	1696.74
420.729	1657.83
420.937	1741.8
421.145	1706.98
421.353	1889.25
421.561	2024.42
421.769	2139.1
421.977	2153.44
422.185	2040.8
422.393	2259.93
422.601	2409.44
422.809	2343.9
423.017	2524.12
423.224	2548.7
423.432	2571.22
423.64	2726.87
423.848	2812.89
424.056	2786.26
424.263	3056.59
424.471	2886.61
424.679	3072.98
424.887	3197.9
425.094	3271.63
425.302	3386.32
425.51	3531.72
425.718	3625.93
425.925	3740.61
426.133	3802.05
426.341	4006.85
426.548	4223.94
426.756	4107.2
426.964	4346.81
427.171	4539.32
427.379	4567.99
427.586	4678.58
427.794	4774.84
428.001	4983.73
428.209	5231.54
428.417	4996.02
428.624	5544.88
428.832	5290.93
429.039	5448.62
429.247	5561.26
429.454	5931.94
429.662	6194.08
429.869	6050.72
430.076	6316.96
430.284	6142.88
430.491	6288.29
430.699	7011.22
430.906	6831
431.114	6929.3
431.321	7041.94
431.528	7324.56
431.736	7736.2
431.943	8192.9
432.15	7936.9
432.358	7990.15
432.565	8371.07
432.772	8389.5
432.979	8708.99
433.187	9071.48
433.394	8999.8
433.601	9732.97
433.808	9503.6
434.016	9761.64
434.223	10042.21
434.43	10455.9
434.637	10453.86
434.844	11154.26
435.052	11088.73
435.259	11090.77
435.466	11039.58
435.673	11041.62
435.88	11905.87
436.087	12600.13
436.294	12583.74
436.501	12061.51
436.708	12436.29
436.915	13087.54
437.122	13370.16
437.329	13708.08
437.537	13908.78
437.743	14177.06
437.95	14138.15
438.157	14678.82
438.364	15199
438.571	15233.82
438.778	15346.45
438.985	16732.93
439.192	16022.28
439.399	16433.93
439.606	16208.65
439.813	17208.06
440.02	18299.62
440.227	18035.44
440.433	17449.72
440.64	18186.99
440.847	18131.69
441.054	18674.4
441.261	20050.64
441.467	19704.53
441.674	20171.47
441.881	20626.12
442.088	20861.63
442.294	20366.03
442.501	21248.7
442.708	21539.51
442.914	22162.09
443.121	23077.54
443.328	22831.78
443.534	24361.61
443.741	23782.04
443.948	23243.42
444.154	25080.45
444.361	24545.93
444.568	25014.91
444.774	24990.34
444.981	25752.18
445.187	26307.18
445.394	27607.64
445.6	26905.19
445.807	29223.49
446.013	28160.59
446.22	28863.05
446.426	29737.53
446.633	30175.8
446.839	31072.81
447.046	29977.14
447.252	31457.82
447.459	31627.81
447.665	31466.02
447.871	32956.94
448.078	34378.23
448.284	32588.3
448.491	33470.98
448.697	35052.01
448.903	35287.53
449.11	35693.02
449.316	35219.94
449.522	35686.88
449.728	36835.79
449.935	36956.62
450.141	37067.21
450.347	37685.7
450.553	36471.25
450.76	36925.9
450.966	38238.65
451.172	37579.2
451.378	38496.69
451.584	37886.4
451.791	39217.58
451.997	38994.35
452.203	39666.08
452.409	39717.28
452.615	39154.09
452.821	37841.34
453.027	37554.63
453.233	39586.21
453.44	38169.02
453.646	38447.54
453.852	38652.34
454.058	39436.71
454.264	37874.11
454.47	38937.01
454.676	37974.46
454.882	39133.61
455.088	35731.93
455.294	36329.94
455.5	36639.18
455.705	37325.25
455.911	35480.03
456.117	35185.13
456.323	34492.91
456.529	32786.96
456.735	33946.11
456.941	33483.27
457.147	32403.99
457.352	31975.96
457.558	30956.07
457.764	31197.73
457.97	30976.55
458.176	30030.39
458.381	30206.52
458.587	28650.06
458.793	28543.56
458.999	27304.54
459.204	29225.54
459.41	28467.79
459.616	26585.71
459.821	26374.77
460.027	26370.67
460.233	25739.9
460.438	24699.53
460.644	24881.8
460.85	23800.47
461.055	23360.16
461.261	23657.11
461.466	21998.26
461.672	20988.61
461.878	22604.46
462.083	21109.44
462.289	20587.21
462.494	20335.31
462.7	19385.05
462.905	18856.67
463.111	19667.67
463.316	20073.17
463.522	19139.29
463.727	19350.23
463.932	19227.35
464.138	19040.99
464.343	19178.2
464.549	18633.44
464.754	19245.79
464.959	19028.7
465.165	19028.7
465.37	17924.85
465.575	17531.64
465.781	18277.1
465.986	18502.37
466.191	17881.84
466.397	17316.6
466.602	16728.83
466.807	17339.13
467.012	17236.73
467.218	17183.48
467.423	16589.57
467.628	17097.47
467.833	17578.74
468.038	16917.25
468.244	16659.2
468.449	17230.59
468.654	16620.29
468.859	16524.04
469.064	16225.03
469.269	15635.22
469.474	15811.34
469.679	16435.97
469.885	15799.05
470.09	16120.59
470.295	15899.41
470.5	15616.79
470.705	15643.41
470.91	15287.06
471.115	15203.1
471.32	15672.08
471.525	15332.12
471.73	14787.36
471.935	14703.39
472.139	14496.55
472.344	14500.64
472.549	14474.02
472.754	14086.95
472.959	14037.8
473.164	13689.65
473.369	13572.91
473.574	14187.3
473.778	13697.84
473.983	13851.44
474.188	13802.29
474.393	12983.1
474.598	13284.15
474.802	13060.92
475.007	12880.7
475.212	12935.99
475.417	12585.79
475.621	12583.74
475.826	12522.3
476.031	12172.1
476.235	11903.82
476.44	12415.81
476.645	12067.66
476.849	12100.42
477.054	11946.83
477.259	11635.53
477.463	11785.04
477.668	11262.8
477.872	11406.16
478.077	11301.72
478.282	10904.41
478.486	10943.32
478.691	10851.16
478.895	10941.27
479.1	10947.42
479.304	10984.28
479.509	10752.86
479.713	10736.48
479.918	10601.31
480.122	10425.18
480.326	10333.03
480.531	10460
480.735	10357.6
480.94	10341.22
481.144	10466.14
481.348	10142.57
481.553	10111.85
481.757	10148.71
481.961	10247.01
482.166	10402.66
482.37	10224.48
482.574	10070.89
482.778	10068.84
482.983	10373.99
483.187	10357.6
483.391	10292.07
483.595	9909.1
483.8	9966.44
484.004	10154.85
484.208	10247.01
484.412	10140.52
484.616	9986.92
484.821	9943.91
485.025	9870.19
485.229	10038.12
485.433	10081.13
485.637	10208.1
485.841	9706.35
486.045	10044.26
486.249	9986.92
486.453	9960.3
486.657	9915.24
486.861	9847.66
487.065	9827.18
487.269	9956.2
487.473	9771.88
487.677	10244.96
487.881	10009.45
488.085	10072.93
488.289	9986.92
488.493	10036.07
488.697	10154.85
488.901	10044.26
489.105	10062.69
489.309	10124.13
489.512	10220.39
489.716	10277.73
489.92	10171.24
490.124	10003.3
490.328	10318.69
490.531	10101.61
490.735	10548.06
490.939	10369.89
491.143	10318.69
491.346	10240.87
491.55	10455.9
491.754	10412.9
491.958	10672.99
492.161	10466.14
492.365	10724.19
492.569	10525.54
492.772	10548.06
492.976	10705.76
493.18	10879.83
493.383	10871.64
493.587	10885.98
493.79	11109.21
493.994	10789.72
494.197	11225.94
494.401	10892.12
494.605	11193.17
494.808	11271
495.012	11338.58
495.215	11684.69
495.419	11404.11
495.622	11598.67
495.825	11895.63
496.029	11653.97
496.232	11938.63
496.436	11819.85
496.639	12211.01
496.843	12215.11
497.046	12405.57
497.249	12307.27
497.453	12823.36
497.656	12688.19
497.859	12749.63
498.063	12804.92
498.266	13103.93
498.469	13196.09
498.673	13312.82
498.876	13560.63
499.079	13703.98
499.282	13462.32
499.485	13697.84
499.689	13996.84
499.892	14177.06
500.095	14000.94
500.298	14490.4
500.501	14422.82
500.705	14871.33
500.908	15201.05
501.111	15325.97
501.314	15483.67
501.517	15483.67
501.72	15704.85
501.923	15579.92
502.126	15923.98
502.329	16132.87
502.532	16306.95
502.735	16458.5
502.938	16718.59
503.141	16618.24
503.344	16964.35
503.547	17144.57
503.75	17259.26
503.953	17771.25
504.156	17773.3
504.359	17939.18
504.562	17871.6
504.765	18428.65
504.968	18455.27
505.17	18649.83
505.373	18340.58
505.576	19215.07
505.779	19200.73
505.982	19258.07
506.185	19829.46
506.387	19694.29
506.59	19847.89
506.793	20548.29
506.996	20449.99
507.198	20929.22
507.401	20617.93
507.604	20994.75
507.807	21463.74
508.009	21654.2
508.212	21756.6
508.415	22114.99
508.617	22403.75
508.82	22852.26
509.022	22700.71
509.225	22962.85
509.428	22870.69
509.63	23464.6
509.833	23509.66
510.035	23736.98
510.238	23913.11
510.44	24042.13
510.643	24455.82
510.845	24683.14
511.048	24507.02
511.25	24750.73
511.453	25098.88
511.655	25608.83
511.858	25438.84
512.06	25815.67
512.262	26102.39
512.465	25842.29
512.667	26653.29
512.87	27030.12
513.072	26684.01
513.274	27621.98
513.477	27535.96
513.679	27804.25
513.881	28219.99
514.084	28494.41
514.286	28609.1
514.488	28813.9
514.69	29223.49
514.893	29418.05
515.095	29741.63
515.297	29866.55
515.499	30046.77
515.701	30290.48
515.904	30345.78
516.106	30816.81
516.308	30915.11
516.51	31398.43
516.712	31402.53
516.914	31463.97
517.116	31945.24
517.318	32428.56
517.52	32551.44
517.722	32616.97
517.925	33014.28
518.127	33434.11
518.329	33473.03
518.531	33597.95
518.733	33966.59
518.935	34357.75
519.136	34277.88
519.338	34812.4
519.54	34976.23
519.742	35674.59
519.944	35244.52
520.146	36168.15
520.348	35916.25
520.55	35996.12
520.752	36155.86
520.954	36975.05
521.155	36432.34
521.357	37259.72
521.559	37077.45
521.761	37999.04
521.963	38074.81
522.164	37818.81
522.366	38130.11
522.568	38609.33
522.77	38676.91
522.971	39401.89
523.173	38754.74
523.375	39078.32
523.576	39395.75
523.778	39881.12
523.98	40059.29
524.181	40126.88
524.383	40167.84
524.584	40593.81
524.786	40581.52
524.988	40688.02
525.189	41167.24
525.391	41081.23
525.592	41427.34
525.794	41677.19
525.995	41286.03
526.197	41873.79
526.398	41771.39
526.6	41978.24
526.801	41976.19
527.003	42471.8
527.204	42152.32
527.406	42400.12
527.607	42711.41
527.808	43143.53
528.01	42037.63
528.211	42725.75
528.412	43352.43
528.614	43176.3
528.815	43084.14
529.016	43735.4
529.218	43243.88
529.419	43776.36
529.62	43082.09
529.822	43831.65
530.023	43362.67
530.224	43919.71
530.425	43743.59
530.626	43673.96
530.828	43360.62
531.029	44394.84
531.23	43770.21
531.431	44056.93
531.632	44202.33
531.833	44292.44
532.035	43841.89
532.236	44231.01
532.437	44718.42
532.638	43995.49
532.839	44329.31
533.04	44288.35
533.241	43837.8
533.442	44808.53
533.643	44722.52
533.844	44599.64
534.045	44398.94
534.246	43770.21
534.447	44593.5
534.648	43964.77
534.849	44144.99
535.05	44294.49
535.251	44413.27
535.451	44697.94
535.652	44534.1
535.853	44607.83
536.054	44583.26
536.255	44796.24
536.456	44065.12
536.657	44499.29
536.857	44681.56
537.058	44226.91
537.259	44792.15
537.46	44591.45
537.66	44253.53
537.861	44609.88
538.062	44880.21
538.263	44378.46
538.463	44231.01
538.664	44335.45
538.865	44368.22
539.065	44419.42
539.266	44073.31
539.466	44452.19
539.667	43925.86
539.868	44656.98
540.068	44525.91
540.269	44538.2
540.469	44743
540.67	44347.74
540.87	44460.38
541.071	44503.38
541.271	44765.52
541.472	43915.62
541.672	44247.39
541.873	43927.91
542.073	43716.96
542.274	44353.88
542.474	44407.13
542.675	43714.92
542.875	44644.69
543.075	44099.94
543.276	43835.75
543.476	44345.69
543.676	44118.37
543.877	44341.6
544.077	43938.15
544.277	44259.68
544.478	44341.6
544.678	44206.43
544.878	44108.13
545.078	44194.14
545.279	44003.68
545.479	43757.92
545.679	44175.71
545.879	43870.56
546.079	43901.28
546.28	43985.25
546.48	43841.89
546.68	44243.29
546.88	43989.34
547.08	44237.15
547.28	44063.07
547.48	43733.35
547.68	43702.63
547.88	43759.97
548.081	43921.76
548.281	43845.99
548.481	43661.67
548.681	44206.43
548.881	43878.75
549.081	44022.11
549.28	44001.63
549.48	44099.94
549.68	43802.98
549.88	43919.71
550.08	43563.37
550.28	43979.1
550.48	43487.59
550.68	43606.37
550.88	43663.72
551.08	43667.81
551.279	43800.93
551.479	43252.08
551.679	43997.54
551.879	43344.23
552.079	43727.2
552.278	43475.3
552.478	43288.94
552.678	43903.33
552.878	43250.03
553.077	43395.43
553.277	42987.89
553.477	43813.22
553.676	43125.1
553.876	43182.45
554.076	43387.24
554.275	43204.97
554.475	43028.85
554.674	43450.73
554.874	43186.54
555.074	43080.05
555.273	43325.8
555.473	42932.59
555.672	42883.44
555.872	42764.66
556.071	43340.14
556.271	42873.2
556.47	42756.47
556.67	42402.17
556.869	42703.22
557.068	42647.93
557.268	42563.96
557.467	42389.88
557.667	42756.47
557.866	42809.71
558.065	42318.2
558.265	42228.09
558.464	42375.55
558.663	42924.4
558.863	42133.89
559.062	42893.68
559.261	41795.97
559.461	42451.32
559.66	41605.51
559.859	42111.36
560.058	41892.22
560.258	42015.1
560.457	41976.19
560.656	42004.86
560.855	42021.25
561.054	41988.48
561.253	41683.33
561.453	42279.29
561.652	42019.2
561.851	42092.93
562.05	41843.07
562.249	41425.29
562.448	41593.22
562.647	41521.54
562.846	41337.23
563.045	41535.88
563.244	41470.34
563.443	41576.84
563.642	40886.67
563.841	41369.99
564.04	41054.61
564.239	41064.85
564.438	41038.22
564.637	40849.81
564.836	41240.97
565.035	40626.58
565.234	40767.89
565.432	40636.82
565.631	40364.44
565.83	41036.17
566.029	40671.64
566.228	40255.9
566.427	40487.32
566.625	39946.65
566.824	39770.53
567.023	40581.52
567.222	39594.4
567.42	40325.53
567.619	39883.17
567.818	39860.64
568.016	40137.12
568.215	40176.03
568.414	39786.91
568.612	40020.38
568.811	39342.5
569.01	39516.58
569.208	38830.51
569.407	39324.07
569.605	39086.51
569.804	39369.13
570.002	38853.04
570.201	39170.47
570.4	38994.35
570.598	38842.8
570.797	38429.11
570.995	38775.22
571.193	38420.92
571.392	39197.1
571.59	38443.45
571.789	38566.32
571.987	38287.8
572.186	38410.68
572.384	37935.55
572.582	38568.37
572.781	38701.49
572.979	37865.92
573.177	38453.69
573.376	38095.29
573.574	37638.59
573.772	37718.46
573.971	37259.72
574.169	37501.38
574.367	37206.47
574.565	37485
574.763	36944.33
574.962	37392.84
575.16	36882.89
575.358	37398.98
575.556	36491.73
575.754	37380.55
575.952	37157.32
576.151	37030.35
576.349	36825.55
576.547	36538.83
576.745	36465.11
576.943	36833.74
577.141	36387.28
577.339	36389.33
577.537	36383.19
577.735	36067.8
577.933	36059.61
578.131	36334.04
578.329	35887.58
578.527	35717.6
578.725	36211.16
578.923	35752.41
579.121	35740.13
579.319	35654.11
579.516	35598.82
579.714	35514.85
579.912	35193.32
580.11	35244.52
580.308	35504.61
580.506	35117.54
580.704	34722.29
580.901	35129.83
581.099	35074.54
581.297	34873.84
581.495	34793.97
581.692	34783.73
581.89	34363.89
582.088	34462.19
582.285	34408.95
582.483	34562.54
582.681	34367.99
582.878	34175.48
583.076	34126.33
583.274	34265.59
583.471	33419.78
583.669	33884.67
583.866	33505.79
584.064	33831.42
584.262	33395.2
584.459	33364.48
584.657	33372.67
584.854	33438.21
585.052	32954.89
585.249	33317.38
585.447	33286.66
585.644	33106.44
585.841	33143.3
586.039	33169.93
586.236	32672.27
586.434	32709.13
586.631	32078.36
586.828	32305.68
587.026	32477.71
587.223	32293.4
587.42	32326.16
587.618	32066.07
587.815	31791.64
588.012	31765.02
588.21	31793.69
588.407	31928.86
588.604	31719.96
588.801	31607.33
588.999	31625.76
589.196	31527.45
589.393	31672.86
589.59	31212.07
589.787	31326.75
589.984	31287.84
590.182	30687.79
590.379	31373.86
590.576	31324.71
590.773	30843.43
590.97	30640.68
591.167	30980.65
591.364	30401.07
591.561	30401.07
591.758	30079.54
591.955	30401.07
592.152	30439.98
592.349	30106.16
592.546	30231.09
592.743	30337.59
592.94	29569.6
593.137	29667.9
593.334	29895.22
593.531	29567.55
593.727	29669.95
593.924	29469.25
594.121	29121.09
594.318	29712.95
594.515	28973.64
594.712	29502.01
594.908	29018.69
595.105	29194.82
595.302	28801.61
595.499	29237.83
595.696	28518.99
595.892	28697.16
596.089	28492.37
596.286	28451.41
596.482	28564.04
596.679	28578.38
596.876	28559.95
597.072	28047.96
597.269	28326.48
597.466	27875.93
597.662	27908.69
597.859	28168.79
598.055	27998.8
598.252	27599.45
598.448	27544.16
598.645	27591.26
598.841	27386.46
599.038	27918.93
599.234	27437.66
599.431	27312.74
599.627	26894.95
599.824	27365.98
600.02	26757.74
600.217	26954.34
600.413	26741.35
600.609	26636.91
600.806	26667.63
601.002	26444.4
601.198	26438.25
601.395	26511.98
601.591	26688.1
601.787	26325.61
601.984	26483.31
602.18	26432.11
602.376	25995.89
602.572	25889.4
602.769	26227.31
602.965	25682.55
603.161	26114.67
603.357	25924.21
603.553	25571.96
603.75	25596.54
603.946	25561.72
604.142	25748.09
604.338	25373.31
604.534	25283.2
604.73	25412.22
604.926	24992.39
605.122	24791.69
605.318	25180.8
605.514	24808.07
605.71	24642.18
605.906	24394.38
606.102	24734.34
606.298	25037.44
606.494	24748.68
606.69	24554.12
606.886	24537.74
607.082	24521.35
607.278	24640.14
607.474	24189.58
607.67	24418.96
607.866	23964.31
608.062	24545.93
608.257	24074.9
608.453	24083.09
608.649	23798.42
608.845	23784.09
609.041	24013.46
609.236	23956.11
609.432	23995.03
609.628	23835.28
609.824	23888.53
610.019	23636.63
610.215	23650.97
610.411	23829.14
610.606	23341.72
610.802	23683.73
610.998	23124.64
611.193	23296.67
611.389	23204.51
611.584	23276.19
611.78	23052.96
611.976	23216.8
612.171	23124.64
612.367	22751.91
612.562	23235.23
612.758	22897.31
612.953	22885.03
613.149	22891.17
613.344	22960.8
613.539	22907.55
613.735	22573.74
613.93	22717.09
614.126	22596.26
614.321	22807.2
614.517	22731.43
614.712	22837.92
614.907	22379.18
615.103	22676.13
615.298	22151.85
615.493	22467.24
615.688	21959.34
615.884	22528.68
616.079	22207.15
616.274	22344.36
616.47	22219.44
616.665	21945.01
616.86	22018.74
617.055	21840.56
617.25	22297.26
617.445	22244.01
617.641	21750.45
617.836	21852.85
618.031	21416.63
618.226	21836.47
618.421	21621.43
618.616	21871.28
618.811	21508.79
619.006	21928.63
619.201	21146.3
619.396	21160.64
619.591	20634.31
619.786	21226.17
619.981	20712.13
620.176	20978.37
620.371	21015.23
620.566	21007.04
620.761	20611.78
620.956	20673.22
621.151	20253.39
621.346	20556.49
621.541	20419.27
621.735	20228.81
621.93	20169.42
622.125	20054.73
622.32	19761.87
622.515	20026.06
622.709	19620.56
622.904	19710.68
623.099	19780.31
623.294	19471.06
623.488	19204.83
623.683	19552.98
623.878	19081.95
624.072	19077.85
624.267	19170.01
624.462	18805.47
624.656	18496.23
624.851	18735.84
625.046	18223.85
625.24	18424.55
625.435	18393.83
625.629	18154.22
625.824	18137.84
626.018	18203.37
626.213	17718
626.407	18080.49
626.602	17781.49
626.796	17785.58
626.991	17738.48
627.185	17709.81
627.38	17396.47
627.574	17249.02
627.768	16890.62
627.963	17257.21
628.157	17029.88
628.352	16864
628.546	16796.42
628.74	16943.87
628.935	16599.81
629.129	16745.22
629.323	16571.14
629.517	16360.2
629.712	16227.08
629.906	16249.61
630.1	16022.28
630.294	16206.6
630.489	16083.72
630.683	16214.79
630.877	15717.14
631.071	15704.85
631.265	15706.9
631.459	15508.24
631.653	15774.48
631.848	15506.2
632.042	15381.27
632.236	15336.21
632.43	15233.82
632.624	15149.85
632.818	15008.54
633.012	14773.02
633.206	14834.46
633.4	15213.34
633.594	14721.82
633.788	14977.82
633.982	14820.13
634.176	14693.15
634.369	14490.4
634.563	14420.77
634.757	14316.33
634.951	14533.41
635.145	14144.3
635.339	14287.65
635.533	13867.82
635.726	14129.96
635.92	13783.85
636.114	13914.92
636.308	13679.41
636.501	13763.37
636.695	13568.82
636.889	13593.39
637.083	13468.47
637.276	13366.07
637.47	13312.82
637.664	13204.28
637.857	13511.47
638.051	13245.24
638.244	12948.28
638.438	13138.74
638.632	12964.67
638.825	12815.16
639.019	12933.95
639.212	12778.3
639.406	12612.42
639.599	12499.78
639.793	12714.81
639.986	12340.04
640.18	12313.41
640.373	12548.93
640.567	12041.03
640.76	12258.12
640.954	12020.55
641.147	12092.23
641.34	11995.98
641.534	12008.26
641.727	11959.11
641.92	11993.93
642.114	11944.78
642.307	11780.94
642.5	11662.16
642.694	11369.3
642.887	11432.79
643.08	11504.46
643.273	11344.72
643.467	11336.53
643.66	11137.88
643.853	11189.08
644.046	11037.53
644.239	11010.9
644.432	11094.87
644.626	11033.43
644.819	10853.21
645.012	10924.89
645.205	10961.75
645.398	10730.33
645.591	10539.87
645.784	10767.2
645.977	10529.63
646.17	10560.35
646.363	10466.14
646.556	10408.8
646.749	10339.17
646.942	10263.4
647.135	10161
647.328	10261.35
647.521	10228.58
647.714	9999.21
647.907	10021.74
648.099	9950.06
648.292	9876.33
648.485	9968.49
648.678	9874.28
648.871	9872.23
649.064	9544.56
649.256	9696.11
649.449	9638.76
649.642	9331.57
649.835	9522.03
650.027	9532.27
650.22	9378.67
650.413	9370.48
650.605	9513.84
650.798	9165.68
650.991	9134.96
651.183	9180.02
651.376	8987.51
651.568	8971.13
651.761	9223.03
651.954	9038.71
652.146	8913.78
652.339	8924.02
652.531	8700.8
652.724	8663.93
652.916	8549.25
653.109	8608.64
653.301	8708.99
653.494	8668.03
653.686	8391.55
653.879	8561.53
654.071	8375.17
654.263	8194.95
654.456	8498.05
654.648	8344.45
654.84	8188.8
655.033	8108.93
655.225	8301.44
655.417	8141.7
655.61	8106.88
655.802	8004.49
655.994	7957.38
656.186	8033.16
656.379	7904.14
656.571	7920.52
656.763	7844.74
656.955	7904.14
657.148	7678.86
657.34	7615.37
657.532	7639.95
657.724	7746.44
657.916	7805.83
658.108	7687.05
658.3	7447.44
658.492	7523.21
658.684	7437.2
658.876	7250.83
659.068	7484.3
659.26	7480.21
659.452	7273.36
659.644	7095.19
659.836	7291.79
660.028	7187.35
660.22	7130
660.412	7205.78
660.604	7005.08
660.796	6943.64
660.988	7074.71
661.18	6835.1
661.372	6904.73
661.563	6998.93
661.755	6787.99
661.947	6904.73
662.139	6675.35
662.331	6677.4
662.522	6532
662.714	6638.49
662.906	6650.78
663.097	6470.56
663.289	6443.93
663.481	6501.28
663.673	6316.96
663.864	6396.83
664.056	6405.02
664.247	6441.89
664.439	6372.25
664.631	6196.13
664.822	6235.04
665.014	6273.95
665.205	6278.05
665.397	6108.07
665.588	6175.65
665.78	5981.09
665.971	6056.87
666.163	6048.68
666.354	5946.28
666.546	5876.65
666.737	5987.24
666.929	5882.79
667.12	5874.6
667.311	5790.63
667.503	5921.7
667.694	5727.14
667.885	5694.38
668.077	5755.82
668.268	5594.03
668.459	5639.08
668.651	5718.95
668.842	5510.06
669.033	5684.14
669.224	5596.07
669.416	5600.17
669.607	5477.29
669.798	5436.33
669.989	5587.88
670.18	5483.44
670.371	5440.43
670.563	5501.87
670.754	5530.54
670.945	5321.65
671.136	5303.22
671.327	5239.73
671.518	5163.95
671.709	5260.21
671.9	5260.21
672.091	5204.91
672.282	5006.26
672.473	5211.06
672.664	5129.14
672.855	5112.75
673.046	5137.33
673.237	5108.66
673.428	4979.64
673.619	5112.75
673.809	4998.07
674	5039.03
674.191	5030.84
674.382	4875.19
674.573	4932.53
674.764	5024.69
674.954	4910.01
675.145	4920.24
675.336	4670.39
675.527	4924.34
675.717	4826.04
675.908	4883.38
676.099	4770.74
676.289	4647.87
676.48	4756.41
676.671	4604.86
676.861	4717.5
677.052	4549.56
677.243	4602.81
677.433	4567.99
677.624	4735.93
677.814	4678.58
678.005	4608.95
678.195	4545.47
678.386	4518.84
678.576	4608.95
678.767	4588.47
678.957	4557.75
679.148	4625.34
679.338	4420.54
679.529	4690.87
679.719	4584.38
679.909	4561.85
680.1	4461.5
680.29	4527.03
680.481	4375.49
680.671	4314.05
680.861	4348.86
681.052	4449.21
681.242	4375.49
681.432	4248.51
681.622	4373.44
681.813	4291.52
682.003	4375.49
682.193	4357.05
682.383	4410.3
682.573	4301.76
682.764	4291.52
682.954	4338.62
683.144	4240.32
683.334	4199.36
683.524	4209.6
683.714	4244.42
683.904	4187.07
684.094	4281.28
684.284	4154.3
684.474	4287.42
684.664	4293.57
684.854	4242.37
685.044	4203.46
685.234	3990.47
685.424	4217.79
685.614	4090.82
685.804	4299.71
685.994	4086.72
686.184	4123.59
686.374	4060.1
686.564	3947.46
686.753	4074.43
686.943	4047.81
687.133	3892.16
687.323	3914.69
687.513	4015.04
687.702	3926.98
687.892	3965.89
688.082	3808.2
688.272	3939.27
688.461	3959.75
688.651	3816.39
688.841	3851.21
689.03	3881.92
689.22	3855.3
689.41	3732.42
689.599	3777.48
689.789	3720.14
689.979	3713.99
690.168	3761.09
690.358	3668.94
690.547	3621.83
690.737	3761.09
690.926	3617.74
691.116	3625.93
691.305	3570.63
691.495	3681.22
691.684	3550.15
691.874	3554.25
692.063	3472.33
692.252	3546.06
692.442	3482.57
692.631	3351.5
692.82	3584.97
693.01	3419.08
693.199	3496.91
693.388	3267.53
693.578	3378.12
693.767	3535.82
693.956	3398.6
694.146	3314.64
694.335	3406.8
694.524	3337.17
694.713	3341.26
694.902	3115.98
695.092	3380.17
695.281	3144.66
695.47	3195.86
695.659	3193.81
695.848	3105.74
696.037	3079.12
696.226	3163.09
696.415	3150.8
696.604	3232.72
696.793	3191.76
696.982	3091.41
697.171	3152.85
697.36	3128.27
697.549	3003.35
697.738	2976.72
697.927	3034.07
698.116	3081.17
698.305	2956.24
698.494	2989.01
698.683	2960.34
698.872	3081.17
699.061	3060.69
699.25	2958.29
699.438	2925.52
699.627	3009.49
699.816	2935.76
700.005	2810.84
700.193	2962.39
700.382	2837.46
700.571	2878.42
700.76	2888.66
700.948	2929.62
701.137	2837.46
701.326	2835.41
701.514	2876.37
701.703	2872.28
701.892	2872.28
702.08	2837.46
702.269	2933.72
702.457	2816.98
702.646	2812.89
702.834	2724.82
703.023	2730.97
703.212	2778.07
703.4	2776.02
703.589	2751.45
703.777	2728.92
703.965	2814.93
704.154	2669.53
704.342	2798.55
704.531	2761.69
704.719	2687.96
704.907	2778.07
705.096	2663.38
705.284	2786.26
705.472	2661.34
705.661	2743.25
705.849	2728.92
706.037	2647
706.226	2677.72
706.414	2708.44
706.602	2710.49
706.79	2597.85
706.979	2651.1
707.167	2630.62
707.355	2546.65
707.543	2661.34
707.731	2700.25
707.919	2743.25
708.107	2569.18
708.296	2759.64
708.484	2560.98
708.672	2835.41
708.86	2651.1
709.048	2661.34
709.236	2587.61
709.424	2462.68
709.612	2530.27
709.8	2626.52
709.988	2630.62
710.176	2601.94
710.364	2655.19
710.551	2669.53
710.739	2550.75
710.927	2640.86
711.115	2655.19
711.303	2542.55
711.491	2563.03
711.679	2577.37
711.866	2483.16
712.054	2585.56
712.242	2556.89
712.43	2577.37
712.617	2497.5
712.805	2579.42
712.993	2391
713.181	2448.35
713.368	2583.51
713.556	2515.93
713.744	2436.06
713.931	2577.37
714.119	2575.32
714.306	2573.27
714.494	2532.31
714.682	2628.57
714.869	2495.45
715.057	2606.04
715.244	2517.98
715.432	2626.52
715.619	2546.65
715.807	2493.4
715.994	2552.79
716.182	2601.94
716.369	2679.77
716.556	2458.59
716.744	2610.14
716.931	2542.55
717.119	2573.27
717.306	2503.64
717.493	2608.09
717.681	2481.11
717.868	2556.89
718.055	2528.22
718.242	2517.98
718.43	2515.93
718.617	2673.62
718.804	2542.55
718.991	2460.63
719.179	2524.12
719.366	2546.65
719.553	2556.89
719.74	2487.26
719.927	2552.79
720.114	2616.28
720.301	2577.37
720.488	2460.63
720.676	2507.74
720.863	2499.55
721.05	2520.03
721.237	2511.83
721.424	2542.55
721.611	2577.37
721.798	2511.83
721.985	2485.21
722.172	2558.94
722.358	2589.66
722.545	2524.12
722.732	2683.86
722.919	2513.88
723.106	2483.16
723.293	2530.27
723.48	2524.12
723.667	2487.26
723.853	2522.07
724.04	2556.89
724.227	2499.55
724.414	2368.48
724.6	2489.31
724.787	2569.18
724.974	2530.27
725.161	2567.13
725.347	2517.98
725.534	2464.73
725.72	2511.83
725.907	2524.12
726.094	2491.35
726.28	2495.45
726.467	2429.91
726.653	2489.31
726.84	2495.45
727.027	2620.38
727.213	2554.84
727.4	2485.21
727.586	2446.3
727.773	2472.92
727.959	2608.09
728.145	2528.22
728.332	2575.32
728.518	2454.49
728.705	2511.83
728.891	2550.75
729.077	2640.86
729.264	2534.36
729.45	2532.31
729.636	2554.84
729.823	2497.5
730.009	2589.66
730.195	2481.11
730.382	2444.25
730.568	2397.15
730.754	2384.86
730.94	2499.55
731.126	2507.74
731.313	2540.51
731.499	2407.39
731.685	2477.02
731.871	2487.26
732.057	2466.78
732.243	2444.25
732.429	2440.15
732.615	2436.06
732.801	2610.14
732.987	2384.86
733.173	2454.49
733.359	2454.49
733.545	2444.25
733.731	2356.19
733.917	2450.39
734.103	2466.78
734.289	2450.39
734.475	2421.72
734.661	2366.43
734.847	2575.32
735.033	2425.82
735.219	2454.49
735.404	2542.55
735.59	2454.49
735.776	2460.63
735.962	2460.63
736.148	2440.15
736.333	2466.78
736.519	2401.24
736.705	2440.15
736.89	2405.34
737.076	2434.01
737.262	2393.05
737.447	2360.28
737.633	2257.89
737.819	2362.33
738.004	2315.23
738.19	2384.86
738.375	2446.3
738.561	2329.56
738.747	2354.14
738.932	2282.46
739.118	2319.32
739.303	2399.2
739.489	2442.2
739.674	2288.61
739.859	2370.52
740.045	2335.71
740.23	2266.08
740.416	2243.55
740.601	2180.06
740.786	2276.32
740.972	2272.22
741.157	2237.41
741.342	2214.88
741.528	2286.56
741.713	2251.74
741.898	2169.82
742.084	2163.68
742.269	2237.41
742.454	2198.49
742.639	2231.26
742.824	2239.45
743.01	2155.49
743.195	2167.77
743.38	2233.31
743.565	2155.49
743.75	2141.15
743.935	2163.68
744.12	2210.78
744.305	2167.77
744.49	2135.01
744.675	2106.34
744.86	2026.47
745.045	2089.95
745.23	2065.38
745.415	2092
745.6	2132.96
745.785	2024.42
745.97	2137.06
746.155	2061.28
746.34	2055.14
746.525	2024.42
746.71	1926.11
746.895	1946.59
747.079	1967.07
747.264	1909.73
747.449	1971.17
747.634	1975.27
747.819	1858.53
748.003	1895.4
748.188	2040.8
748.373	1913.83
748.557	1950.69
748.742	1790.95
748.927	1844.2
749.111	1858.53
749.296	1868.77
749.481	1846.24
749.665	1868.77
749.85	1782.76
750.034	1852.39
750.219	1815.52
750.404	1704.93
750.588	1700.84
750.773	1690.6
750.957	1827.81
751.141	1840.1
751.326	1752.04
751.51	1709.03
751.695	1635.3
751.879	1721.32
752.064	1729.51
752.248	1739.75
752.432	1655.78
752.617	1696.74
752.801	1674.21
752.985	1604.58
753.17	1641.45
753.354	1586.15
753.538	1635.3
753.722	1606.63
753.907	1543.14
754.091	1610.73
754.275	1481.71
754.459	1537
754.643	1516.52
754.828	1557.48
755.012	1577.96
755.196	1635.3
755.38	1524.71
755.564	1434.6
755.748	1412.07
755.932	1371.12
756.116	1391.59
756.3	1407.98
756.484	1434.6
756.668	1387.5
756.852	1405.93
757.036	1326.06
757.22	1367.02
757.404	1360.88
757.588	1338.35
757.772	1305.58
757.956	1313.77
758.14	1379.31
758.323	1254.38
758.507	1348.59
758.691	1364.97
758.875	1369.07
759.059	1311.72
759.242	1262.57
759.426	1274.86
759.61	1289.2
759.794	1307.63
759.977	1338.35
760.161	1244.14
760.345	1240.05
760.528	1231.85
760.712	1227.76
760.895	1106.93
761.079	1225.71
761.263	1168.37
761.446	1235.95
761.63	1176.56
761.813	1164.27
761.997	1209.33
762.18	1203.18
762.364	1137.65
762.547	1199.09
762.731	1096.69
762.914	1174.51
763.098	1151.98
763.281	1086.45
763.464	1225.71
763.648	1113.07
763.831	1092.59
764.015	1061.87
764.198	1139.69
764.381	1065.97
764.564	1025.01
764.748	1074.16
764.931	1074.16
765.114	1059.82
765.297	1031.15
765.481	1176.56
765.664	1055.73
765.847	1076.21
766.03	1088.5
766.213	963.57
766.397	992.24
766.58	998.38
766.763	1053.68
766.946	947.19
767.129	1010.67
767.312	965.62
767.495	945.14
767.678	1055.73
767.861	965.62
768.044	943.09
768.227	908.27
768.41	1045.49
768.593	1016.82
768.776	996.34
768.959	992.24
769.142	930.8
769.324	949.23
769.507	1029.1
769.69	1000.43
769.873	949.23
770.056	975.86
770.239	992.24
770.421	1000.43
770.604	938.99
770.787	820.21
770.97	926.71
771.152	873.46
771.335	969.71
771.518	932.85
771.7	959.47
771.883	834.55
772.066	906.23
772.248	857.07
772.431	926.71
772.613	926.71
772.796	920.56
772.978	891.89
773.161	850.93
773.343	844.79
773.526	840.69
773.708	834.55
773.891	861.17
774.073	785.4
774.256	777.2
774.438	863.22
774.621	801.78
774.803	803.83
774.985	771.06
775.168	766.96
775.35	834.55
775.532	758.77
775.715	771.06
775.897	803.83
776.079	795.64
776.261	732.15
776.444	697.33
776.626	820.21
776.808	769.01
776.99	779.25
777.173	822.26
777.355	738.29
777.537	680.95
777.719	750.58
777.901	650.23
778.083	719.86
778.265	666.61
778.447	656.37
778.629	672.76
778.811	728.05
778.993	621.56
779.175	693.24
779.357	717.81
779.539	609.27
779.721	699.38
779.903	713.72
780.085	668.66
780.267	615.41
780.449	637.94
780.631	639.99
780.812	609.27
780.994	672.76
781.176	637.94
781.358	599.03
781.54	574.46
781.721	650.23
781.903	523.26
782.085	549.88
782.267	613.37
782.448	547.83
782.63	584.7
782.812	537.59
782.993	545.78
783.175	605.17
783.357	510.97
783.538	560.12
783.72	533.5
783.901	498.68
784.083	510.97
784.264	556.02
784.446	553.98
784.627	508.92
784.809	455.67
784.99	443.39
785.172	523.26
785.353	556.02
785.535	441.34
785.716	549.88
785.897	482.3
786.079	455.67
786.26	443.39
786.441	500.73
786.623	336.89
786.804	427
786.985	476.15
787.167	443.39
787.348	386.04
787.529	418.81
787.71	562.17
787.891	424.95
788.073	467.96
788.254	496.63
788.435	457.72
788.616	400.38
788.797	363.51
788.978	377.85
789.159	392.19
789.34	414.71
789.522	410.62
789.703	371.71
789.884	392.19
790.065	357.37
790.246	459.77
790.427	429.05
790.607	400.38
790.788	361.47
790.969	330.75
791.15	367.61
791.331	336.89
791.512	365.56
791.693	351.23
791.874	402.43
792.054	345.08
792.235	369.66
792.416	353.27
792.597	267.26
792.778	402.43
792.958	400.38
793.139	340.99
793.32	381.95
793.5	375.8
793.681	295.93
793.862	320.51
794.042	367.61
794.223	308.22
794.404	369.66
794.584	263.16
794.765	357.37
794.945	320.51
795.126	367.61
795.306	347.13
795.487	375.8
795.667	330.75
795.848	408.57
796.028	259.07
796.209	281.6
796.389	379.9
796.57	336.89
796.75	306.17
796.93	295.93
797.111	263.16
797.291	289.79
797.471	320.51
797.652	279.55
797.832	334.84
798.012	281.6
798.192	222.2
798.373	300.03
798.553	250.88
798.733	293.88
798.913	279.55
799.093	324.6
799.274	310.27
799.454	265.21
799.634	373.75
799.814	304.12
799.994	244.73
800.174	287.74
800.354	267.26
800.534	267.26
800.714	236.54
800.894	285.69
801.074	205.82
801.254	232.44
801.434	263.16
801.614	205.82
801.794	295.93
801.974	572.41
802.154	295.93
802.334	269.31
802.514	326.65
802.693	242.68
802.873	220.16
803.053	283.64
803.233	300.03
803.413	254.97
803.592	154.62
803.772	222.2
803.952	271.36
804.131	193.53
804.311	216.06
804.491	220.16
804.67	224.25
804.85	316.41
805.03	254.97
805.209	168.96
805.389	201.72
805.568	263.16
805.748	222.2
805.928	269.31
806.107	261.12
806.287	220.16
806.466	201.72
806.646	236.54
806.825	168.96
807.004	246.78
807.184	156.67
807.363	220.16
807.543	156.67
807.722	205.82
807.901	254.97
808.081	230.4
808.26	156.67
808.439	160.77
808.619	211.96
808.798	263.16
808.977	179.2
809.156	189.44
809.336	140.29
809.515	254.97
809.694	195.58
809.873	136.19
810.052	211.96
810.231	187.39
810.411	214.01
810.59	207.87
810.769	132.09
810.948	279.55
811.127	193.53
811.306	185.34
811.485	136.19
811.664	187.39
811.843	240.64
812.022	113.66
812.201	238.59
812.38	156.67
812.559	156.67
812.737	148.48
812.916	189.44
813.095	224.25
813.274	148.48
813.453	191.49
813.632	109.57
813.811	230.4
813.989	152.57
814.168	148.48
814.347	154.62
814.526	173.05
814.704	152.57
814.883	171.01
815.062	115.71
815.24	156.67
815.419	154.62
815.598	209.92
815.776	148.48
815.955	230.4
816.133	203.77
816.312	177.15
816.49	113.66
816.669	171.01
816.847	197.63
817.026	113.66
817.204	142.33
817.383	156.67
817.561	125.95
817.74	160.77
817.918	140.29
818.097	115.71
818.275	91.13
818.453	132.09
818.632	156.67
818.81	121.85
818.988	130.05
819.167	134.14
819.345	168.96
819.523	117.76
819.701	99.33
819.879	72.7
820.058	56.32
820.236	60.42
820.414	68.61
820.592	91.13
820.77	134.14
820.948	175.1
821.127	82.94
821.305	97.28
821.483	93.18
821.661	171.01
821.839	132.09
822.017	121.85
822.195	173.05
822.373	195.58
822.551	201.72
822.729	134.14
822.907	168.96
823.085	111.61
823.262	123.9
823.44	68.61
823.618	78.85
823.796	103.42
823.974	109.57
824.152	142.33
824.329	132.09
824.507	103.42
824.685	115.71
824.863	48.13
825.04	78.85
825.218	130.05
825.396	173.05
825.574	60.42
825.751	66.56
825.929	101.37
826.107	119.81
826.284	84.99
826.462	64.51
826.639	132.09
826.817	68.61
826.994	46.08
827.172	121.85
827.349	91.13
827.527	115.71
827.704	91.13
827.882	117.76
828.059	74.75
828.237	74.75
828.414	23.55
828.591	7.17
828.769	66.56
828.946	115.71
829.124	132.09
829.301	115.71
829.478	113.66
829.655	91.13
829.833	140.29
830.01	99.33
830.187	146.43
830.364	91.13
830.542	58.37
830.719	144.38
830.896	125.95
831.073	107.52
831.25	111.61
831.427	132.09
831.604	121.85
831.782	76.8
831.959	107.52
832.136	-52.22
832.313	84.99
832.49	44.03
832.667	99.33
832.844	52.22
833.021	123.9
833.198	25.6
833.374	154.62
833.551	101.37
833.728	175.1
833.905	99.33
834.082	80.89
834.259	72.7
834.436	187.39
834.612	62.46
834.789	70.65
834.966	125.95
835.143	35.84
835.319	17.41
835.496	56.32
835.673	91.13
835.85	154.62
836.026	41.98
836.203	119.81
836.38	25.6
836.556	107.52
836.733	58.37
836.909	107.52
837.086	132.09
837.262	46.08
837.439	31.74
837.616	62.46
837.792	70.65
837.968	78.85
838.145	17.41
838.321	97.28
838.498	39.94
838.674	111.61
838.851	39.94
839.027	50.18
839.203	82.94
839.38	125.95
839.556	56.32
839.732	89.09
839.909	78.85
840.085	91.13
840.261	70.65
840.437	164.86
840.614	60.42
840.79	115.71
840.966	72.7
841.142	119.81
841.318	21.5
841.494	41.98
841.671	17.41
841.847	74.75
842.023	64.51
842.199	29.7
842.375	31.74
842.551	62.46
842.727	52.22
842.903	152.57
843.079	35.84
843.255	87.04
843.431	31.74
843.607	15.36
843.783	-17.41
843.959	91.13
844.134	54.27
844.31	50.18
844.486	33.79
844.662	58.37
844.838	115.71
845.013	50.18
845.189	84.99
845.365	48.13
845.541	5.12
845.716	25.6
845.892	82.94
846.068	119.81
846.244	80.89
846.419	62.46
846.595	-60.42
846.77	29.7
846.946	17.41
847.122	29.7
847.297	64.51
847.473	29.7
847.648	-13.31
847.824	11.26
847.999	-50.18
848.175	103.42
848.35	37.89
848.526	115.71
848.701	109.57
848.876	103.42
849.052	56.32
849.227	39.94
849.403	105.47
849.578	-3.07
849.753	64.51
849.929	62.46
850.104	70.65
850.279	5.12
850.454	1.02
850.63	58.37
850.805	48.13
850.98	9.22
851.155	5.12
851.33	35.84
851.505	29.7
851.681	74.75
851.856	29.7
852.031	99.33
852.206	9.22
852.381	23.55
852.556	29.7
852.731	37.89
852.906	29.7
853.081	60.42
853.256	64.51
853.431	23.55
853.606	1.02
853.781	11.26
853.956	21.5
854.131	58.37
854.305	3.07
854.48	56.32
854.655	41.98
854.83	76.8
855.005	17.41
855.18	60.42
855.354	58.37
855.529	52.22
855.704	-21.5
855.879	13.31
856.053	50.18
856.228	84.99
856.403	-1.02
856.577	-3.07
856.752	13.31
856.926	31.74
857.101	7.17
857.276	-5.12
857.45	19.46
857.625	87.04
857.799	35.84
857.974	3.07
858.148	-13.31
858.323	107.52
858.497	17.41
858.672	46.08
858.846	74.75
859.02	33.79
859.195	5.12
859.369	5.12
859.543	50.18
859.718	-19.46
859.892	37.89
860.066	84.99
860.241	25.6
860.415	3.07
860.589	-27.65
860.763	3.07
860.938	33.79
861.112	66.56
861.286	25.6
861.46	89.09
861.634	84.99
861.808	89.09
861.982	17.41
862.157	11.26
862.331	9.22
862.505	19.46
862.679	17.41
862.853	101.37
863.027	11.26
863.201	29.7
863.375	-15.36
863.549	19.46
863.722	52.22
863.896	109.57
864.07	37.89
864.244	41.98
864.418	-25.6
864.592	9.22
864.766	39.94
864.939	56.32
865.113	7.17
865.287	70.65
865.461	-44.03
865.634	3.07
865.808	35.84
865.982	-66.56
866.156	-17.41
866.329	-15.36
866.503	66.56
866.676	56.32
866.85	56.32
867.024	52.22
867.197	19.46
867.371	-44.03
867.544	31.74
867.718	41.98
867.891	9.22
868.065	29.7
868.238	58.37
868.412	-25.6
868.585	29.7
868.759	-3.07
868.932	21.5
869.105	-5.12
869.279	-1.02
869.452	-1.02
869.625	76.8
869.799	72.7
869.972	5.12
870.145	-19.46
870.319	44.03
870.492	58.37
870.665	25.6
870.838	23.55
871.011	-11.26
871.185	31.74
871.358	15.36
871.531	21.5
871.704	23.55
871.877	25.6
872.05	1.02
872.223	21.5
872.396	1.02
872.569	31.74
872.742	-39.94
872.915	60.42
873.088	-5.12
873.261	33.79
873.434	21.5
873.607	-31.74
873.78	13.31
873.953	-7.17
874.126	3.07
874.299	60.42
874.471	39.94
874.644	74.75
874.817	48.13
874.99	13.31
875.163	-33.79
875.335	82.94
875.508	5.12
875.681	115.71
875.853	5.12
876.026	99.33
876.199	37.89
876.371	-33.79
876.544	9.22
876.717	95.23
876.889	89.09
877.062	50.18
877.234	3.07
877.407	-72.7
877.579	11.26
877.752	66.56
877.924	33.79
878.097	-62.46
878.269	48.13
878.442	-17.41
878.614	37.89
878.786	-11.26
878.959	17.41
879.131	37.89
879.303	13.31
879.476	87.04
879.648	15.36
879.82	33.79
879.993	-3.07
880.165	-44.03
880.337	13.31
880.509	93.18
880.681	27.65
880.854	72.7
881.026	-35.84
881.198	107.52
881.37	9.22
881.542	17.41
881.714	41.98
881.886	-41.98
882.058	44.03
882.23	58.37
882.402	-13.31
882.574	64.51
882.746	50.18
882.918	44.03
883.09	13.31
883.262	15.36
883.434	-31.74
883.606	-29.7
883.778	46.08
883.95	-19.46
884.122	50.18
884.293	5.12
884.465	41.98
884.637	7.17
884.809	-7.17
884.98	-23.55
885.152	5.12
885.324	78.85
885.496	-33.79
885.667	41.98
885.839	-17.41
886.011	142.33
886.182	7.17
886.354	-15.36
886.525	41.98
886.697	50.18
886.869	-23.55
887.04	-25.6
887.212	23.55
887.383	37.89
887.555	72.7
887.726	5.12
887.897	33.79
888.069	-1.02
888.24	-13.31
888.412	-15.36
888.583	-5.12
888.754	23.55
888.926	-76.8
889.097	5.12
889.268	13.31
889.44	1.02
889.611	5.12
889.782	1.02
889.953	33.79
890.125	-23.55
890.296	9.22
890.467	7.17
890.638	-17.41
890.809	9.22
890.98	-27.65
891.151	-1.02
891.323	1.02
891.494	-5.12
891.665	11.26
891.836	19.46
892.007	-21.5
892.178	50.18
892.349	-25.6
892.52	-23.55
892.691	33.79
892.862	-9.22
893.032	-7.17
893.203	78.85
893.374	-27.65
893.545	39.94
893.716	-23.55
893.887	41.98
894.057	-80.89
894.228	5.12
894.399	-9.22
894.57	-39.94
894.74	58.37
894.911	-19.46
895.082	-52.22
895.253	41.98
895.423	-27.65
895.594	39.94
895.764	-35.84
895.935	-25.6
896.106	23.55
896.276	-13.31
896.447	5.12
896.617	31.74
896.788	-17.41
896.958	80.89
897.129	-3.07
897.299	39.94
897.47	27.65
897.64	17.41
897.81	23.55
897.981	-15.36
898.151	1.02
898.322	68.61
898.492	25.6
898.662	60.42
898.832	-33.79
899.003	-66.56
899.173	31.74
899.343	9.22
899.513	-3.07
