Data from USB4F104151__21__11-36-33-787.txt Node

Date: Fri Mar 14 11:36:33 EDT 2025
User: louis
Spectrometer: USB4F10415
Trigger mode: 4
Integration Time (sec): 2.000000E-2
Scans to average: 1
Electric dark correction enabled: true
Nonlinearity correction enabled: false
Boxcar width: 0
XAxis mode: Wavelengths
Number of Pixels in Spectrum: 3648
>>>>>Begin Spectral Data<<<<<
178.204	-80.72
178.424	-80.72
178.644	-80.72
178.864	-99.16
179.084	-111.44
179.304	21.67
179.524	-45.91
179.744	33.96
179.964	70.83
180.184	-7
180.404	-21.33
180.624	-7
180.844	-9.05
181.064	-37.72
181.283	7.34
181.503	19.63
181.723	-25.43
181.943	-2.9
182.163	76.97
182.383	5.29
182.602	31.91
182.822	-13.14
183.042	9.39
183.262	13.48
183.482	44.2
183.701	7.34
183.921	-27.48
184.141	-11.09
184.361	3.24
184.58	119.98
184.8	7.34
185.02	44.2
185.239	56.49
185.459	89.26
185.679	29.87
185.898	-76.63
186.118	29.87
186.338	9.39
186.557	27.82
186.777	52.39
186.997	52.39
187.216	-33.62
187.436	89.26
187.655	-13.14
187.875	97.45
188.095	50.35
188.314	27.82
188.534	-2.9
188.753	17.58
188.973	38.06
189.192	64.68
189.412	48.3
189.631	29.87
189.851	70.83
190.07	70.83
190.29	54.44
190.509	25.77
190.729	-54.1
190.948	36.01
191.168	138.41
191.387	-31.57
191.607	81.07
191.826	64.68
192.045	19.63
192.265	13.48
192.484	40.11
192.704	29.87
192.923	23.72
193.142	31.91
193.362	-43.86
193.581	15.53
193.8	3.24
194.02	54.44
194.239	52.39
194.458	95.4
194.678	33.96
194.897	15.53
195.116	-68.44
195.335	7.34
195.555	109.74
195.774	62.63
195.993	31.91
196.212	23.72
196.432	36.01
196.651	21.67
196.87	3.24
197.089	19.63
197.308	-45.91
197.528	48.3
197.747	-0.85
197.966	70.83
198.185	46.25
198.404	40.11
198.623	-2.9
198.842	62.63
199.062	42.15
199.281	44.2
199.5	13.48
199.719	3.24
199.938	97.45
200.157	62.63
200.376	3.24
200.595	19.63
200.814	31.91
201.033	-37.72
201.252	7.34
201.471	23.72
201.69	48.3
201.909	29.87
202.128	70.83
202.347	40.11
202.566	-23.38
202.785	-2.9
203.004	-9.05
203.223	74.92
203.442	74.92
203.661	9.39
203.879	3.24
204.098	52.39
204.317	19.63
204.536	48.3
204.755	27.82
204.974	40.11
205.193	91.31
205.411	79.02
205.63	68.78
205.849	-43.86
206.068	79.02
206.287	60.59
206.505	46.25
206.724	74.92
206.943	-13.14
207.162	-66.39
207.381	-13.14
207.599	29.87
207.818	44.2
208.037	17.58
208.255	48.3
208.474	3.24
208.693	-11.09
208.911	-35.67
209.13	38.06
209.349	9.39
209.567	64.68
209.786	113.83
210.005	103.59
210.223	40.11
210.442	15.53
210.661	-4.95
210.879	3.24
211.098	13.48
211.316	38.06
211.535	25.77
211.753	19.63
211.972	54.44
212.191	-4.95
212.409	27.82
212.628	3.24
212.846	-25.43
213.065	-27.48
213.283	46.25
213.502	44.2
213.72	40.11
213.938	27.82
214.157	-17.24
214.375	52.39
214.594	72.87
214.812	-9.05
215.031	23.72
215.249	64.68
215.467	1.19
215.686	-11.09
215.904	17.58
216.122	27.82
216.341	64.68
216.559	5.29
216.778	-60.24
216.996	31.91
217.214	11.43
217.432	-17.24
217.651	31.91
217.869	-4.95
218.087	70.83
218.306	-54.1
218.524	44.2
218.742	-2.9
218.96	64.68
219.179	48.3
219.397	-4.95
219.615	105.64
219.833	70.83
220.051	31.91
220.27	-4.95
220.488	50.35
220.706	76.97
220.924	62.63
221.142	-4.95
221.36	27.82
221.578	21.67
221.796	1.19
222.015	17.58
222.233	64.68
222.451	42.15
222.669	11.43
222.887	42.15
223.105	50.35
223.323	-19.29
223.541	27.82
223.759	21.67
223.977	-15.19
224.195	27.82
224.413	58.54
224.631	27.82
224.849	81.07
225.067	31.91
225.285	11.43
225.503	1.19
225.721	3.24
225.939	9.39
226.157	-31.57
226.375	58.54
226.592	29.87
226.81	36.01
227.028	101.55
227.246	76.97
227.464	11.43
227.682	1.19
227.9	-2.9
228.117	50.35
228.335	-7
228.553	11.43
228.771	15.53
228.989	48.3
229.206	40.11
229.424	27.82
229.642	-0.85
229.86	7.34
230.077	58.54
230.295	9.39
230.513	23.72
230.731	48.3
230.948	3.24
231.166	87.21
231.384	17.58
231.601	76.97
231.819	93.35
232.037	-0.85
232.254	23.72
232.472	-7
232.689	42.15
232.907	-29.52
233.125	7.34
233.342	-13.14
233.56	25.77
233.777	36.01
233.995	33.96
234.213	117.93
234.43	25.77
234.648	19.63
234.865	48.3
235.083	50.35
235.3	19.63
235.518	56.49
235.735	-58.2
235.953	68.78
236.17	46.25
236.388	27.82
236.605	-66.39
236.822	7.34
237.04	27.82
237.257	54.44
237.475	15.53
237.692	38.06
237.909	33.96
238.127	-7
238.344	50.35
238.562	19.63
238.779	3.24
238.996	-13.14
239.214	-58.2
239.431	68.78
239.648	-37.72
239.865	7.34
240.083	31.91
240.3	15.53
240.517	3.24
240.735	-29.52
240.952	89.26
241.169	-9.05
241.386	-4.95
241.603	31.91
241.821	-25.43
242.038	50.35
242.255	5.29
242.472	36.01
242.689	29.87
242.907	-9.05
243.124	23.72
243.341	-35.67
243.558	9.39
243.775	-25.43
243.992	-33.62
244.209	48.3
244.426	46.25
244.643	85.16
244.86	-25.43
245.078	-2.9
245.295	-45.91
245.512	-0.85
245.729	115.88
245.946	5.29
246.163	64.68
246.38	9.39
246.597	-19.29
246.814	-4.95
247.031	91.31
247.248	58.54
247.464	19.63
247.681	11.43
247.898	-2.9
248.115	48.3
248.332	27.82
248.549	15.53
248.766	13.48
248.983	97.45
249.2	66.73
249.417	60.59
249.633	23.72
249.85	52.39
250.067	54.44
250.284	48.3
250.501	-0.85
250.717	89.26
250.934	-4.95
251.151	3.24
251.368	3.24
251.585	13.48
251.801	-4.95
252.018	13.48
252.235	7.34
252.451	52.39
252.668	-35.67
252.885	-21.33
253.102	64.68
253.318	40.11
253.535	-25.43
253.752	25.77
253.968	-50
254.185	27.82
254.401	-90.96
254.618	15.53
254.835	50.35
255.051	52.39
255.268	7.34
255.484	5.29
255.701	68.78
255.917	-7
256.134	7.34
256.351	13.48
256.567	-74.58
256.784	1.19
257	19.63
257.217	33.96
257.433	52.39
257.65	-9.05
257.866	105.64
258.082	29.87
258.299	-7
258.515	60.59
258.732	-4.95
258.948	19.63
259.165	1.19
259.381	-4.95
259.597	56.49
259.814	-52.05
260.03	-17.24
260.246	64.68
260.463	52.39
260.679	3.24
260.895	21.67
261.112	76.97
261.328	19.63
261.544	31.91
261.761	68.78
261.977	9.39
262.193	-9.05
262.409	-7
262.626	19.63
262.842	-0.85
263.058	19.63
263.274	68.78
263.49	56.49
263.707	23.72
263.923	-66.39
264.139	-9.05
264.355	15.53
264.571	31.91
264.787	-9.05
265.004	40.11
265.22	79.02
265.436	-60.24
265.652	-0.85
265.868	25.77
266.084	-33.62
266.3	7.34
266.516	-25.43
266.732	-21.33
266.948	85.16
267.164	52.39
267.38	42.15
267.596	87.21
267.812	-15.19
268.028	64.68
268.244	31.91
268.46	-2.9
268.676	7.34
268.892	-0.85
269.108	-25.43
269.324	-39.76
269.54	91.31
269.756	95.4
269.972	27.82
270.188	-7
270.403	52.39
270.619	15.53
270.835	23.72
271.051	46.25
271.267	-9.05
271.483	15.53
271.698	70.83
271.914	42.15
272.13	15.53
272.346	72.87
272.562	60.59
272.777	83.11
272.993	-47.96
273.209	64.68
273.425	36.01
273.64	-11.09
273.856	48.3
274.072	42.15
274.287	-2.9
274.503	60.59
274.719	99.5
274.934	54.44
275.15	19.63
275.366	31.91
275.581	36.01
275.797	81.07
276.012	-35.67
276.228	21.67
276.444	48.3
276.659	25.77
276.875	23.72
277.09	-2.9
277.306	7.34
277.521	54.44
277.737	3.24
277.952	-29.52
278.168	-11.09
278.383	40.11
278.599	-9.05
278.814	-35.67
279.03	60.59
279.245	42.15
279.461	56.49
279.676	25.77
279.892	15.53
280.107	81.07
280.322	-15.19
280.538	15.53
280.753	72.87
280.969	46.25
281.184	-35.67
281.399	-37.72
281.615	76.97
281.83	31.91
282.045	44.2
282.26	7.34
282.476	-13.14
282.691	74.92
282.906	46.25
283.122	58.54
283.337	27.82
283.552	44.2
283.767	-23.38
283.983	17.58
284.198	23.72
284.413	91.31
284.628	48.3
284.843	-17.24
285.058	62.63
285.274	64.68
285.489	-11.09
285.704	31.91
285.919	48.3
286.134	79.02
286.349	-0.85
286.564	36.01
286.779	7.34
286.995	48.3
287.21	-13.14
287.425	48.3
287.64	-27.48
287.855	68.78
288.07	31.91
288.285	23.72
288.5	-2.9
288.715	58.54
288.93	-2.9
289.145	-37.72
289.36	29.87
289.575	56.49
289.79	111.78
290.004	21.67
290.219	1.19
290.434	60.59
290.649	13.48
290.864	-47.96
291.079	11.43
291.294	52.39
291.509	-7
291.724	-27.48
291.938	-13.14
292.153	83.11
292.368	76.97
292.583	48.3
292.798	29.87
293.012	-27.48
293.227	-17.24
293.442	36.01
293.657	-21.33
293.871	1.19
294.086	56.49
294.301	31.91
294.516	68.78
294.73	-11.09
294.945	-45.91
295.16	87.21
295.374	-45.91
295.589	17.58
295.804	54.44
296.018	64.68
296.233	64.68
296.447	13.48
296.662	23.72
296.877	130.22
297.091	44.2
297.306	-9.05
297.52	29.87
297.735	36.01
297.949	7.34
298.164	7.34
298.378	-2.9
298.593	79.02
298.807	-0.85
299.022	-25.43
299.236	50.35
299.451	21.67
299.665	-17.24
299.88	60.59
300.094	5.29
300.309	68.78
300.523	-21.33
300.737	89.26
300.952	76.97
301.166	79.02
301.381	19.63
301.595	27.82
301.809	-11.09
302.024	40.11
302.238	79.02
302.452	107.69
302.667	-0.85
302.881	76.97
303.095	3.24
303.309	48.3
303.524	56.49
303.738	31.91
303.952	64.68
304.166	15.53
304.381	21.67
304.595	-25.43
304.809	33.96
305.023	-60.24
305.237	31.91
305.452	36.01
305.666	79.02
305.88	-0.85
306.094	23.72
306.308	81.07
306.522	19.63
306.736	5.29
306.95	44.2
307.164	1.19
307.379	-11.09
307.593	97.45
307.807	-9.05
308.021	-2.9
308.235	40.11
308.449	-7
308.663	9.39
308.877	56.49
309.091	68.78
309.305	85.16
309.519	40.11
309.733	9.39
309.947	13.48
310.161	91.31
310.374	54.44
310.588	85.16
310.802	3.24
311.016	48.3
311.23	64.68
311.444	83.11
311.658	105.64
311.872	13.48
312.085	-9.05
312.299	38.06
312.513	9.39
312.727	38.06
312.941	13.48
313.154	70.83
313.368	-25.43
313.582	-35.67
313.796	97.45
314.009	40.11
314.223	60.59
314.437	-9.05
314.651	60.59
314.864	-25.43
315.078	-37.72
315.292	23.72
315.505	81.07
315.719	-35.67
315.933	-13.14
316.146	21.67
316.36	-33.62
316.573	95.4
316.787	19.63
317.001	115.88
317.214	60.59
317.428	56.49
317.641	11.43
317.855	-23.38
318.068	38.06
318.282	54.44
318.495	36.01
318.709	101.55
318.922	-9.05
319.136	122.02
319.349	56.49
319.563	-0.85
319.776	33.96
319.99	27.82
320.203	17.58
320.417	50.35
320.63	56.49
320.843	54.44
321.057	15.53
321.27	50.35
321.483	52.39
321.697	62.63
321.91	13.48
322.124	13.48
322.337	21.67
322.55	7.34
322.763	23.72
322.977	3.24
323.19	56.49
323.403	13.48
323.617	101.55
323.83	87.21
324.043	85.16
324.256	36.01
324.469	7.34
324.683	19.63
324.896	29.87
325.109	40.11
325.322	25.77
325.535	62.63
325.748	15.53
325.962	7.34
326.175	68.78
326.388	60.59
326.601	27.82
326.814	-21.33
327.027	-21.33
327.24	132.26
327.453	15.53
327.666	40.11
327.879	-4.95
328.092	52.39
328.305	-4.95
328.518	-9.05
328.731	93.35
328.944	83.11
329.157	13.48
329.37	23.72
329.583	3.24
329.796	42.15
330.009	56.49
330.222	91.31
330.435	56.49
330.648	19.63
330.861	81.07
331.073	79.02
331.286	56.49
331.499	66.73
331.712	33.96
331.925	19.63
332.138	-27.48
332.35	130.22
332.563	72.87
332.776	89.26
332.989	-21.33
333.202	13.48
333.414	-23.38
333.627	-52.05
333.84	46.25
334.053	-52.05
334.265	87.21
334.478	60.59
334.691	31.91
334.903	56.49
335.116	23.72
335.329	81.07
335.541	54.44
335.754	46.25
335.966	79.02
336.179	113.83
336.392	29.87
336.604	46.25
336.817	25.77
337.029	48.3
337.242	7.34
337.454	31.91
337.667	-33.62
337.88	13.48
338.092	52.39
338.305	60.59
338.517	29.87
338.729	76.97
338.942	97.45
339.154	17.58
339.367	23.72
339.579	5.29
339.792	-9.05
340.004	38.06
340.217	48.3
340.429	87.21
340.641	38.06
340.854	40.11
341.066	-13.14
341.278	7.34
341.491	48.3
341.703	70.83
341.915	56.49
342.128	56.49
342.34	48.3
342.552	-17.24
342.764	48.3
342.977	40.11
343.189	60.59
343.401	1.19
343.613	52.39
343.826	79.02
344.038	13.48
344.25	93.35
344.462	-68.44
344.674	17.58
344.886	72.87
345.099	165.03
345.311	9.39
345.523	68.78
345.735	54.44
345.947	52.39
346.159	27.82
346.371	81.07
346.583	-2.9
346.795	58.54
347.007	62.63
347.219	89.26
347.431	46.25
347.643	5.29
347.855	21.67
348.067	66.73
348.279	19.63
348.491	48.3
348.703	85.16
348.915	36.01
349.127	19.63
349.339	95.4
349.551	27.82
349.763	72.87
349.975	33.96
350.187	48.3
350.399	-2.9
350.61	70.83
350.822	33.96
351.034	27.82
351.246	31.91
351.458	46.25
351.669	21.67
351.881	72.87
352.093	74.92
352.305	11.43
352.517	134.31
352.728	87.21
352.94	44.2
353.152	13.48
353.363	-13.14
353.575	-19.29
353.787	19.63
353.999	-13.14
354.21	56.49
354.422	81.07
354.633	15.53
354.845	-13.14
355.057	5.29
355.268	56.49
355.48	56.49
355.692	36.01
355.903	66.73
356.115	29.87
356.326	-4.95
356.538	74.92
356.749	31.91
356.961	31.91
357.172	-4.95
357.384	54.44
357.595	89.26
357.807	44.2
358.018	62.63
358.23	36.01
358.441	50.35
358.653	107.69
358.864	-29.52
359.075	17.58
359.287	15.53
359.498	27.82
359.709	38.06
359.921	5.29
360.132	109.74
360.344	13.48
360.555	-23.38
360.766	64.68
360.977	44.2
361.189	29.87
361.4	9.39
361.611	50.35
361.823	7.34
362.034	-0.85
362.245	-17.24
362.456	74.92
362.667	9.39
362.879	-33.62
363.09	15.53
363.301	68.78
363.512	13.48
363.723	31.91
363.935	11.43
364.146	103.59
364.357	91.31
364.568	29.87
364.779	62.63
364.99	36.01
365.201	3.24
365.412	79.02
365.623	56.49
365.834	66.73
366.045	31.91
366.256	23.72
366.467	42.15
366.678	-33.62
366.889	87.21
367.1	66.73
367.311	81.07
367.522	7.34
367.733	27.82
367.944	50.35
368.155	-23.38
368.366	68.78
368.577	42.15
368.788	9.39
368.999	-37.72
369.209	27.82
369.42	76.97
369.631	56.49
369.842	36.01
370.053	15.53
370.264	44.2
370.474	31.91
370.685	81.07
370.896	33.96
371.107	48.3
371.317	31.91
371.528	48.3
371.739	70.83
371.95	-0.85
372.16	62.63
372.371	38.06
372.582	-33.62
372.792	-13.14
373.003	29.87
373.214	7.34
373.424	19.63
373.635	-15.19
373.846	48.3
374.056	97.45
374.267	60.59
374.477	81.07
374.688	76.97
374.898	105.64
375.109	38.06
375.319	11.43
375.53	31.91
375.74	64.68
375.951	-27.48
376.161	38.06
376.372	52.39
376.582	-0.85
376.793	31.91
377.003	-0.85
377.214	72.87
377.424	11.43
377.635	89.26
377.845	38.06
378.055	89.26
378.266	31.91
378.476	40.11
378.686	25.77
378.897	56.49
379.107	76.97
379.317	23.72
379.528	5.29
379.738	99.5
379.948	7.34
380.158	64.68
380.369	42.15
380.579	17.58
380.789	72.87
380.999	58.54
381.21	-19.29
381.42	126.12
381.63	44.2
381.84	23.72
382.05	111.78
382.261	27.82
382.471	103.59
382.681	56.49
382.891	146.6
383.101	9.39
383.311	25.77
383.521	68.78
383.731	5.29
383.941	-4.95
384.151	79.02
384.361	25.77
384.571	105.64
384.781	44.2
384.991	68.78
385.201	150.7
385.411	5.29
385.621	136.36
385.831	15.53
386.041	105.64
386.251	119.98
386.461	62.63
386.671	56.49
386.881	87.21
387.091	27.82
387.301	115.88
387.511	68.78
387.72	27.82
387.93	42.15
388.14	105.64
388.35	99.5
388.56	25.77
388.769	40.11
388.979	70.83
389.189	46.25
389.399	85.16
389.609	54.44
389.818	81.07
390.028	38.06
390.238	132.26
390.447	46.25
390.657	70.83
390.867	85.16
391.076	3.24
391.286	9.39
391.496	85.16
391.705	62.63
391.915	83.11
392.125	38.06
392.334	97.45
392.544	87.21
392.753	56.49
392.963	79.02
393.172	64.68
393.382	79.02
393.591	62.63
393.801	48.3
394.01	113.83
394.22	60.59
394.429	66.73
394.639	70.83
394.848	103.59
395.058	79.02
395.267	5.29
395.477	79.02
395.686	74.92
395.895	113.83
396.105	136.36
396.314	19.63
396.524	124.07
396.733	23.72
396.942	91.31
397.152	93.35
397.361	105.64
397.57	81.07
397.78	138.41
397.989	113.83
398.198	138.41
398.407	95.4
398.617	134.31
398.826	115.88
399.035	58.54
399.244	70.83
399.453	85.16
399.663	97.45
399.872	54.44
400.081	103.59
400.29	89.26
400.499	36.01
400.708	162.98
400.917	70.83
401.127	91.31
401.336	103.59
401.545	107.69
401.754	109.74
401.963	81.07
402.172	91.31
402.381	44.2
402.59	89.26
402.799	95.4
403.008	183.46
403.217	115.88
403.426	142.5
403.635	126.12
403.844	158.89
404.053	113.83
404.262	105.64
404.471	97.45
404.68	142.5
404.888	150.7
405.097	148.65
405.306	197.8
405.515	99.5
405.724	201.9
405.933	212.14
406.142	154.79
406.35	158.89
406.559	187.56
406.768	79.02
406.977	191.66
407.185	232.62
407.394	236.71
407.603	199.85
407.812	259.24
408.02	175.27
408.229	197.8
408.438	267.43
408.646	226.47
408.855	249
409.064	298.15
409.272	277.67
409.481	287.91
409.69	189.61
409.898	222.38
410.107	265.38
410.315	308.39
410.524	341.16
410.733	330.92
410.941	277.67
411.15	398.5
411.358	367.78
411.567	431.27
411.775	421.03
411.984	355.49
412.192	394.4
412.401	435.36
412.609	507.04
412.818	488.61
413.026	502.95
413.234	603.3
413.443	535.71
413.651	519.33
413.86	562.34
414.068	619.68
414.276	693.41
414.485	644.26
414.693	685.22
414.901	666.78
415.11	638.11
415.318	619.68
415.526	720.03
415.734	851.1
415.943	816.29
416.151	826.53
416.359	857.25
416.567	810.14
416.776	904.35
416.984	1053.85
417.192	1066.14
417.4	918.68
417.608	1111.19
417.817	1129.63
418.025	955.55
418.233	1127.58
418.441	1105.05
418.649	1191.06
418.857	1229.98
419.065	1408.15
419.273	1418.39
419.481	1399.96
419.689	1356.95
419.897	1604.75
420.105	1584.27
420.313	1633.43
420.521	1727.63
420.729	1619.09
420.937	1787.02
421.145	1858.7
421.353	1895.57
421.561	2030.73
421.769	1922.19
421.977	2126.99
422.185	2108.55
422.393	2116.75
422.601	2358.41
422.809	2428.04
423.017	2317.45
423.224	2380.93
423.432	2534.53
423.64	2579.59
423.848	2768
424.056	2589.83
424.263	2921.6
424.471	2935.93
424.679	2913.41
424.887	3171.45
425.094	3210.36
425.302	3339.38
425.51	3421.3
425.718	3503.22
425.925	3671.15
426.133	3589.24
426.341	3783.79
426.548	4031.6
426.756	4013.17
426.964	3994.73
427.171	4248.68
427.379	4494.44
427.586	4529.25
427.794	4615.27
428.001	4926.56
428.209	5037.15
428.417	5096.54
428.624	5420.12
428.832	5409.88
429.039	5280.86
429.247	5256.28
429.454	5827.67
429.662	6274.12
429.869	5846.1
430.076	6390.86
430.284	6093.9
430.491	6251.6
430.699	6640.71
430.906	6577.22
431.114	6671.43
431.321	6966.34
431.528	6972.48
431.736	7582.77
431.943	7896.11
432.15	7658.55
432.358	7658.55
432.565	8180.78
432.772	8156.21
432.979	8682.53
433.187	8936.48
433.394	8725.54
433.601	9421.85
433.808	9466.91
434.016	9376.8
434.223	9720.85
434.43	10255.37
434.637	10279.95
434.844	10771.46
435.052	10947.59
435.259	10910.72
435.466	11029.51
435.673	10851.33
435.88	11490.3
436.087	12213.23
436.294	12137.46
436.501	12159.99
436.708	12131.31
436.915	12837.86
437.122	13140.96
437.329	13181.92
437.537	13540.32
437.743	13730.78
437.95	13788.12
438.157	14210
438.364	14826.44
438.571	14756.81
438.778	14851.02
438.985	16360.37
439.192	15672.25
439.399	16208.82
439.606	15698.88
439.813	16675.76
440.02	17935.26
440.227	17576.86
440.433	17302.43
440.64	17959.83
440.847	17595.29
441.054	18211.73
441.261	19002.25
441.467	19274.63
441.674	19309.44
441.881	20155.26
442.088	19948.41
442.294	19813.24
442.501	20616.05
442.708	20855.66
442.914	21961.56
443.121	22647.63
443.328	22195.03
443.534	23216.97
443.741	22944.59
443.948	22451.03
444.154	24156.99
444.361	24126.27
444.568	24427.32
444.774	24384.31
444.981	24660.79
445.187	25244.46
445.394	26217.24
445.6	26262.3
445.807	28474.1
446.013	27261.71
446.22	27648.77
446.426	29008.62
446.633	28769.01
446.839	30005.98
447.046	29151.98
447.252	30534.36
447.459	30454.49
447.665	30255.84
447.871	31658.7
448.078	32930.48
448.284	31605.45
448.491	32010.95
448.697	33694.38
448.903	33833.64
449.11	34187.94
449.316	33772.2
449.522	34333.34
449.728	35324.56
449.935	35734.15
450.141	35322.51
450.347	36272.77
450.553	34955.93
450.76	35558.03
450.966	36860.54
451.172	36164.23
451.378	37388.91
451.584	36539.01
451.791	37259.89
451.997	37022.33
452.203	37945.96
452.409	38011.49
452.615	37225.07
452.821	36180.61
453.027	36016.77
453.233	37771.88
453.44	36170.37
453.646	36921.98
453.852	36862.58
454.058	37692.01
454.264	35947.14
454.47	36729.47
454.676	35828.36
454.882	37225.07
455.088	34001.57
455.294	34673.31
455.5	34917.01
455.705	35578.51
455.911	33854.12
456.117	33594.03
456.323	32869.05
456.529	31111.89
456.735	32539.32
456.941	31695.56
457.147	31210.19
457.352	30024.42
457.558	29747.94
457.764	30180.06
457.97	29305.58
458.176	28764.92
458.381	28758.77
458.587	27321.1
458.793	27511.56
458.999	25961.25
459.204	27851.52
459.41	26608.4
459.616	25297.7
459.821	25451.3
460.027	24931.12
460.233	24683.31
460.438	23509.83
460.644	23941.95
460.85	22373.21
461.055	22330.2
461.261	22430.55
461.466	20724.59
461.672	20050.81
461.878	21418.85
462.083	20022.14
462.289	19821.44
462.494	19637.12
462.7	18584.46
462.905	18054.04
463.111	18676.62
463.316	18693.01
463.522	18240.4
463.727	18459.54
463.932	18248.6
464.138	18039.7
464.343	18121.62
464.549	17638.3
464.754	18193.3
464.959	18013.08
465.165	18099.09
465.37	17183.65
465.575	16804.78
465.781	17265.57
465.986	17441.7
466.191	16917.42
466.397	16505.77
466.602	15741.88
466.807	16438.19
467.012	16106.42
467.218	16374.7
467.423	16190.39
467.628	16167.86
467.833	16675.76
468.038	16131
468.244	15469.5
468.449	16161.72
468.654	15899.58
468.859	15516.61
469.064	15604.67
469.269	15158.21
469.474	14947.27
469.679	15422.4
469.885	14953.41
470.09	15180.74
470.295	15184.83
470.5	14771.15
470.705	14656.46
470.91	14502.86
471.115	14195.67
471.32	14654.41
471.525	14597.07
471.73	13982.68
471.935	14150.61
472.139	13611.99
472.344	13583.32
472.549	13366.24
472.754	13546.46
472.959	13222.88
473.164	12846.05
473.369	12831.72
473.574	13300.7
473.778	13057
473.983	12905.45
474.188	12717.03
474.393	12463.08
474.598	12426.22
474.802	12246
475.007	12188.66
475.212	12170.22
475.417	11805.69
475.621	11719.67
475.826	11963.38
476.031	11510.78
476.235	11340.8
476.44	11549.69
476.645	11250.69
476.849	11152.38
477.054	11248.64
477.259	11138.05
477.463	11131.9
477.668	10558.47
477.872	10861.57
478.077	10482.7
478.282	10464.27
478.486	10302.48
478.691	10402.83
478.895	10202.13
479.1	10347.53
479.304	10109.97
479.509	9804.82
479.713	10023.95
479.918	9982.99
480.122	9710.61
480.326	10032.15
480.531	9982.99
480.735	9624.6
480.94	9661.46
481.144	9946.13
481.348	9511.96
481.553	9804.82
481.757	9389.08
481.961	9665.56
482.166	9651.22
482.37	9573.4
482.574	9487.39
482.778	9425.95
482.983	9550.87
483.187	9563.16
483.391	9729.05
483.595	9532.44
483.8	9188.38
484.004	9577.5
484.208	9632.79
484.412	9485.34
484.616	9434.14
484.821	9493.53
485.025	9229.34
485.229	9534.49
485.433	9307.16
485.637	9348.12
485.841	9163.81
486.045	9575.45
486.249	9466.91
486.453	9311.26
486.657	9296.92
486.861	9466.91
487.065	9258.01
487.269	9446.43
487.473	9321.5
487.677	9550.87
487.881	9620.5
488.085	9341.98
488.289	9454.62
488.493	9403.42
488.697	9436.19
488.901	9313.31
489.105	9602.07
489.309	9368.6
489.512	9415.71
489.716	9579.54
489.92	9526.3
490.124	9485.34
490.328	9905.17
490.531	9493.53
490.735	9647.13
490.939	9753.62
491.143	9731.09
491.346	9573.4
491.55	9698.33
491.754	9663.51
491.958	9856.02
492.161	9815.06
492.365	10017.81
492.569	9872.4
492.772	9770.01
492.976	10058.77
493.18	10095.63
493.383	10169.36
493.587	10095.63
493.79	10253.33
493.994	10212.37
494.197	10232.85
494.401	10476.55
494.605	10320.91
494.808	10642.44
495.012	10664.97
495.215	10478.6
495.419	10701.83
495.622	10771.46
495.825	10894.34
496.029	10933.25
496.232	10927.11
496.436	10935.3
496.639	11355.13
496.843	11062.27
497.046	11398.14
497.249	11545.59
497.453	11674.62
497.656	11797.49
497.859	11938.8
498.063	11750.39
498.266	12094.45
498.469	12137.46
498.673	12076.02
498.876	12299.25
499.079	12557.29
499.282	12610.54
499.485	12944.36
499.689	12837.86
499.892	13032.42
500.095	13204.45
500.298	13353.95
500.501	13489.12
500.705	13532.12
500.908	13990.87
501.111	13648.86
501.314	14166.99
501.517	14164.95
501.72	14306.26
501.923	14171.09
502.126	14855.11
502.329	14767.05
502.532	14889.93
502.735	14803.91
502.938	15354.82
503.141	15268.8
503.344	15481.79
503.547	15455.17
503.75	15981.49
503.953	16087.99
504.156	16161.72
504.359	16386.99
504.562	16386.99
504.765	16849.83
504.968	16872.36
505.17	17187.75
505.373	17079.21
505.576	17531.81
505.779	17640.35
505.982	17576.86
506.185	18250.64
506.387	18289.56
506.59	17914.78
506.793	18267.03
506.996	18502.54
507.198	18979.72
507.401	18862.99
507.604	19071.88
507.807	19520.38
508.009	19540.86
508.212	19805.05
508.415	20018.04
508.617	20380.53
508.82	20284.28
509.022	20095.86
509.225	20689.77
509.428	20788.08
509.63	21191.53
509.833	21265.25
510.035	21398.37
510.238	21414.76
510.44	21773.15
510.643	22174.55
510.845	22289.24
511.048	21803.87
511.25	22465.36
511.453	22829.9
511.655	23245.64
511.858	23190.34
512.06	23399.24
512.262	23825.22
512.465	23618.37
512.667	23796.54
512.87	24306.49
513.072	24335.16
513.274	24412.98
513.477	24947.5
513.679	25168.68
513.881	25365.29
514.084	25436.97
514.286	25592.61
514.488	25623.33
514.69	26710.8
514.893	25985.82
515.095	26364.7
515.297	26827.54
515.499	26837.78
515.701	26989.33
515.904	27239.18
516.106	27429.64
516.308	27798.27
516.51	28080.89
516.712	28183.29
516.914	28289.79
517.116	28705.52
517.318	28775.16
517.52	28560.12
517.722	28979.95
517.925	29387.5
518.127	30077.66
518.329	30030.56
518.531	29821.67
518.733	30198.49
518.935	30886.61
519.136	30804.69
519.338	30962.39
519.54	31036.11
519.742	31353.55
519.944	31285.97
520.146	32207.55
520.348	32219.84
520.55	32326.33
520.752	32301.76
520.954	32877.24
521.155	32584.38
521.357	33325.74
521.559	32953.01
521.761	33659.56
521.963	33694.38
522.164	33493.68
522.366	33985.19
522.568	34265.76
522.77	34333.34
522.971	34728.6
523.173	34603.67
523.375	34783.9
523.576	34443.93
523.778	34978.45
523.98	35474.06
524.181	35304.08
524.383	35238.54
524.584	35996.29
524.786	35906.18
524.988	35545.74
525.189	36414.08
525.391	36264.58
525.592	36549.24
525.794	36878.97
525.995	37067.38
526.197	36866.68
526.398	36766.33
526.6	36999.8
526.801	37390.96
527.003	37470.83
527.204	37094
527.406	37556.85
527.607	37818.99
527.808	37763.69
528.01	37415.54
528.211	37831.27
528.412	38740.57
528.614	38122.08
528.815	38275.68
529.016	38730.33
529.218	38267.49
529.419	38484.58
529.62	38359.65
529.822	38468.19
530.023	38181.48
530.224	38322.79
530.425	38732.38
530.626	38322.79
530.828	38326.88
531.029	39330.39
531.23	38664.8
531.431	38734.43
531.632	38881.88
531.833	38689.37
532.035	38814.3
532.236	38998.62
532.437	39199.32
532.638	39404.11
532.839	39461.46
533.04	39139.93
533.241	38867.55
533.442	39504.46
533.643	39271
533.844	39367.25
534.045	39277.14
534.246	39187.03
534.447	39471.7
534.648	39215.7
534.849	39453.26
535.05	39115.35
535.251	39150.17
535.451	39279.19
535.652	39367.25
535.853	39158.36
536.054	39713.36
536.255	39514.7
536.456	39088.73
536.657	39801.42
536.857	39209.56
537.058	38752.86
537.259	39389.78
537.46	39082.58
537.66	39389.78
537.861	39516.75
538.062	39266.9
538.263	39207.51
538.463	38838.87
538.664	39193.17
538.865	39658.06
539.065	39473.74
539.266	38873.69
539.466	39387.73
539.667	38558.3
539.868	39723.6
540.068	39137.88
540.269	39166.55
540.469	39019.1
540.67	39234.13
540.87	39008.86
541.071	38931.03
541.271	38945.37
541.472	38902.36
541.672	38773.34
541.873	39076.44
542.073	38971.99
542.274	39027.29
542.474	39078.49
542.675	38875.74
542.875	39184.98
543.075	39041.62
543.276	38806.11
543.476	38939.22
543.676	38849.11
543.877	38963.8
544.077	38937.18
544.277	38810.2
544.478	38767.2
544.678	38316.64
544.878	38810.2
545.078	39299.67
545.279	38513.25
545.479	38476.38
545.679	38953.56
545.879	39086.68
546.079	39004.76
546.28	38974.04
546.48	38687.32
546.68	38822.49
546.88	38845.02
547.08	38945.37
547.28	38720.09
547.48	38552.16
547.68	38642.27
547.88	38443.62
548.081	39113.3
548.281	38675.04
548.481	38433.38
548.681	38709.85
548.881	38601.31
549.081	38750.81
549.28	38210.15
549.48	38761.05
549.68	38529.63
549.88	38826.59
550.08	38339.17
550.28	38670.94
550.48	38503.01
550.68	38595.17
550.88	38122.08
551.08	38337.12
551.279	38265.44
551.479	38232.68
551.679	38154.85
551.879	38558.3
552.079	38541.92
552.278	38302.31
552.478	38310.5
552.678	38097.51
552.878	38480.48
553.077	38089.32
553.277	38152.8
553.477	38351.46
553.676	38355.55
553.876	38087.27
554.076	38187.62
554.275	37843.56
554.475	37562.99
554.674	38072.93
554.874	37794.41
555.074	37849.71
555.273	38230.63
555.473	38247.01
555.672	37579.37
555.872	38087.27
556.071	37755.5
556.271	37950.06
556.47	37761.64
556.67	37497.45
556.869	37749.35
557.068	37890.66
557.268	37522.03
557.467	37735.02
557.667	37409.39
557.866	37491.31
558.065	37548.65
558.265	37167.73
558.464	37137.01
558.663	37493.36
558.863	36948.6
559.062	37597.8
559.261	37130.87
559.461	37438.06
559.66	36776.57
559.859	37180.02
560.058	37012.09
560.258	36891.26
560.457	36606.59
560.656	36954.74
560.855	36786.81
561.054	37143.16
561.253	36735.61
561.453	36731.51
561.652	37003.89
561.851	37007.99
562.05	36743.8
562.249	36252.29
562.448	36702.84
562.647	36270.72
562.846	36487.81
563.045	36215.43
563.244	35971.72
563.443	36579.96
563.642	35840.65
563.841	36143.75
564.04	35824.26
564.239	36463.23
564.438	35977.86
564.637	36143.75
564.836	36000.39
565.035	35713.67
565.234	35799.69
565.432	35922.57
565.631	35490.45
565.83	35723.91
566.029	35558.03
566.228	35312.27
566.427	35535.5
566.625	35154.58
566.824	34595.48
567.023	35386
567.222	34941.59
567.42	35314.32
567.619	35220.11
567.818	35125.91
568.016	34706.07
568.215	35066.52
568.414	34964.12
568.612	35267.22
568.811	34976.4
569.01	35021.46
569.208	34724.5
569.407	34826.9
569.605	34419.36
569.804	34611.87
570.002	33950.37
570.201	34181.79
570.4	33989.28
570.598	34110.11
570.797	34032.29
570.995	34071.2
571.193	33669.8
571.392	34259.62
571.59	33796.77
571.789	33876.65
571.987	33931.94
572.186	33798.82
572.384	33442.48
572.582	33440.43
572.781	33890.98
572.979	32916.15
573.177	33188.53
573.376	33702.57
573.574	33030.83
573.772	33323.69
573.971	33020.59
574.169	32752.31
574.367	32727.74
574.565	32979.64
574.763	32686.78
574.962	32899.76
575.16	32596.67
575.358	32719.54
575.556	32563.9
575.754	32768.69
575.952	31859.4
576.151	32463.55
576.349	32334.53
576.547	32273.09
576.745	32328.38
576.943	32191.17
577.141	31926.98
577.339	32162.5
577.537	32027.33
577.735	32015.04
577.933	31648.46
578.131	31814.34
578.329	31728.33
578.527	31439.56
578.725	31302.35
578.923	31328.97
579.121	31292.11
579.319	31324.88
579.516	31034.07
579.714	30857.94
579.912	31011.54
580.11	31136.46
580.308	30864.08
580.506	30997.2
580.704	30458.59
580.901	30800.6
581.099	30900.95
581.297	30253.79
581.495	30911.19
581.692	30450.39
581.89	29979.36
582.088	30229.21
582.285	30407.39
582.483	30780.12
582.681	30245.6
582.878	29866.72
583.076	29735.65
583.274	29831.91
583.471	29520.62
583.669	29690.6
583.866	29700.84
584.064	29635.3
584.262	28971.76
584.459	29977.31
584.657	29549.29
584.854	29678.31
585.052	29000.43
585.249	29276.91
585.447	29410.03
585.644	28924.66
585.841	29059.82
586.039	28986.1
586.236	29039.34
586.434	28916.47
586.631	28416.76
586.828	28596.98
587.026	28730.1
587.223	28500.73
587.42	28099.33
587.618	28267.26
587.815	28168.96
588.012	28242.68
588.21	28123.9
588.407	28498.68
588.604	28248.83
588.801	27757.32
588.999	27710.21
589.196	27982.59
589.393	27867.91
589.59	27640.58
589.787	27638.53
589.984	27403.02
590.182	27079.44
590.379	27646.72
590.576	27118.35
590.773	27007.76
590.97	26940.18
591.167	27237.13
591.364	26358.55
591.561	27144.97
591.758	26624.79
591.955	26792.72
592.152	26708.76
592.349	26508.05
592.546	26712.85
592.743	26534.68
592.94	26247.96
593.137	26446.62
593.334	26510.1
593.531	26082.08
593.727	26604.31
593.924	26051.36
594.121	25494.31
594.318	25977.63
594.515	25934.62
594.712	25492.26
594.908	25688.87
595.105	25447.21
595.302	25647.91
595.499	25647.91
595.696	25381.67
595.892	24935.21
596.089	25236.27
596.286	25054
596.482	25180.97
596.679	25080.62
596.876	24826.67
597.072	24783.66
597.269	24681.27
597.466	24877.87
597.662	24453.94
597.859	24644.4
598.055	24896.3
598.252	24283.96
598.448	24021.82
598.645	24341.3
598.841	24079.16
599.038	24566.58
599.234	24216.38
599.431	23880.51
599.627	24148.79
599.824	23976.76
600.02	23769.92
600.217	23794.5
600.413	23626.56
600.609	23665.47
600.806	23778.11
601.002	23757.63
601.198	23143.24
601.395	23221.06
601.591	23042.89
601.787	23339.85
601.984	22899.53
602.18	23288.65
602.376	23184.2
602.572	22897.49
602.769	22870.86
602.965	22575.95
603.161	22664.02
603.357	22745.94
603.553	22666.06
603.75	22594.39
603.946	22410.07
604.142	22256.47
604.338	22045.53
604.534	22442.84
604.73	21969.76
604.926	21971.8
605.122	22049.63
605.318	21924.7
605.514	21736.29
605.71	21777.25
605.906	21642.08
606.102	21762.91
606.298	21732.19
606.494	21885.79
606.69	21965.66
606.886	22004.57
607.082	21474.15
607.278	21660.51
607.474	21470.05
607.67	21425
607.866	21007.21
608.062	21656.42
608.257	21095.27
608.453	21425
608.649	21408.61
608.845	21189.48
609.041	21343.08
609.236	21197.67
609.432	21048.17
609.628	21099.37
609.824	20681.58
610.019	20796.27
610.215	20693.87
610.411	20921.2
610.606	20601.71
610.802	20532.08
610.998	20675.44
611.193	20611.95
611.389	20646.77
611.584	20730.73
611.78	20478.83
611.976	20540.27
612.171	20102.01
612.367	20331.38
612.562	20358
612.758	20175.73
612.953	20056.95
613.149	20349.81
613.344	19972.99
613.539	20249.46
613.735	20130.68
613.93	20026.23
614.126	20175.73
614.321	20204.41
614.517	19913.59
614.712	19903.35
614.907	19975.03
615.103	20048.76
615.298	19901.31
615.493	20071.29
615.688	19549.06
615.884	19841.92
616.079	19727.23
616.274	19714.94
616.47	19551.1
616.665	19686.27
616.86	19524.48
617.055	19428.23
617.25	19469.19
617.445	19651.45
617.641	19143.56
617.836	19327.88
618.031	19069.83
618.226	19477.38
618.421	18924.43
618.616	19100.55
618.811	19090.31
619.006	19129.22
619.201	18824.08
619.396	19143.56
619.591	18451.35
619.786	18602.89
619.981	18609.04
620.176	18641.81
620.371	18359.19
620.566	18353.04
620.761	18271.12
620.956	18129.81
621.151	17963.93
621.346	18328.47
621.541	17863.58
621.735	18047.9
621.93	17808.28
622.125	17906.59
622.32	17372.07
622.515	17609.63
622.709	17595.29
622.904	17187.75
623.099	17386.4
623.294	17441.7
623.488	17423.26
623.683	17075.11
623.878	16980.9
624.072	16860.07
624.267	16786.35
624.462	16649.13
624.656	16737.2
624.851	16630.7
625.046	16686
625.24	16462.77
625.435	16427.95
625.629	16247.73
625.824	16174
626.018	16028.6
626.213	15555.52
626.407	16012.21
626.602	15535.04
626.796	15829.95
626.991	15680.44
627.185	15514.56
627.38	15444.93
627.574	15324.1
627.768	15250.37
627.963	15225.79
628.157	15215.55
628.352	15231.94
628.546	14994.37
628.74	15285.19
628.935	14797.77
629.129	14816.2
629.323	14439.37
629.517	14613.45
629.712	14615.5
629.906	14400.46
630.1	14158.8
630.294	14306.26
630.489	14097.36
630.683	13929.43
630.877	13894.61
631.071	13839.32
631.265	14107.6
631.459	13691.87
631.653	13798.36
631.848	13755.35
632.042	13454.3
632.236	13872.09
632.43	13693.91
632.624	13597.66
632.818	13532.12
633.012	13304.8
633.206	13243.36
633.4	13114.34
633.594	12866.53
633.788	13071.33
633.982	13054.95
634.176	12907.49
634.369	12811.24
634.563	12866.53
634.757	12714.98
634.951	12764.14
635.145	12864.49
635.339	12567.53
635.533	12497.9
635.726	12581.87
635.92	12426.22
636.114	12295.15
636.308	12252.14
636.501	12385.26
636.695	12039.15
636.889	11942.9
637.083	11992.05
637.276	11744.25
637.47	11865.08
637.664	11820.02
637.857	11742.2
638.051	11936.76
638.244	11678.71
638.438	11582.46
638.632	11346.94
638.825	11412.48
639.019	11338.75
639.212	11197.44
639.406	11478.01
639.599	10933.25
639.793	11082.75
639.986	10982.4
640.18	11084.8
640.373	10982.4
640.567	10894.34
640.76	11011.07
640.954	10689.54
641.147	10808.33
641.34	10873.86
641.534	10474.51
641.727	10611.72
641.92	10486.79
642.114	10429.45
642.307	10376.2
642.5	10208.27
642.694	10099.73
642.887	10077.2
643.08	10230.8
643.273	10146.83
643.467	10273.81
643.66	10019.86
643.853	9802.77
644.046	9907.22
644.239	9886.74
644.432	9817.11
644.626	9704.47
644.819	9759.77
645.012	9899.03
645.205	9636.89
645.398	9561.11
645.591	9698.33
645.784	9427.99
645.977	9346.08
646.17	9393.18
646.363	9471
646.556	9274.4
646.749	9182.24
646.942	9219.1
647.135	8979.49
647.328	9311.26
647.521	8889.38
647.714	8942.63
647.907	9024.54
648.099	8780.84
648.292	8877.09
648.485	8870.95
648.678	8829.99
648.871	8846.37
649.064	8768.55
649.256	8709.16
649.449	8739.88
649.642	8776.74
649.835	8461.35
650.027	8567.85
650.22	8367.15
650.413	8451.11
650.605	8272.94
650.798	8453.16
650.991	8260.65
651.183	8191.02
651.376	8201.26
651.568	8125.49
651.761	8090.67
651.954	7853.11
652.146	8016.94
652.339	7912.5
652.531	7875.63
652.724	7889.97
652.916	7824.44
653.109	7617.59
653.301	7662.65
653.494	7617.59
653.686	7519.29
653.879	7607.35
654.071	7564.34
654.263	7562.3
654.456	7607.35
654.648	7576.63
654.84	7312.44
655.033	7588.92
655.225	7234.62
655.417	7220.28
655.61	7154.75
655.802	7263.29
655.994	7244.86
656.186	7351.35
656.379	7148.61
656.571	7083.07
656.763	7078.97
656.955	6960.19
657.148	7146.56
657.34	6908.99
657.532	6908.99
657.724	6990.91
657.916	6947.9
658.108	6859.84
658.3	6704.2
658.492	6712.39
658.684	6732.87
658.876	6796.35
659.068	6808.64
659.26	6456.39
659.452	6716.48
659.644	6659.14
659.836	6310.99
660.028	6267.98
660.22	6394.95
660.412	6413.38
660.604	6284.36
660.796	6495.3
660.988	6341.71
661.18	6243.4
661.372	6270.03
661.563	6224.97
661.755	6198.35
661.947	6196.3
662.139	6132.81
662.331	6079.57
662.522	6224.97
662.714	5968.98
662.906	6083.66
663.097	6102.09
663.289	5897.3
663.481	5966.93
663.673	5977.17
663.864	5913.68
664.056	5805.14
664.247	5692.5
664.439	5655.64
664.631	5704.79
664.822	5719.12
665.014	5760.08
665.205	5669.97
665.397	5569.62
665.588	5567.57
665.78	5520.47
665.971	5561.43
666.163	5530.71
666.354	5631.06
666.546	5514.33
666.737	5450.84
666.929	5475.42
667.12	5483.61
667.311	5350.49
667.503	5248.09
667.694	5135.45
667.885	5190.75
668.077	5348.44
668.268	5190.75
668.459	5160.03
668.651	5182.56
668.842	5172.32
669.033	5305.43
669.224	5094.49
669.416	5145.69
669.607	5047.39
669.798	5110.88
669.989	5020.77
670.18	4981.85
670.371	5059.68
670.563	4883.55
670.754	5086.3
670.945	4901.98
671.136	4885.6
671.327	4854.88
671.518	4861.02
671.709	4811.87
671.9	4813.92
672.091	4797.54
672.282	4795.49
672.473	4654.18
672.664	4815.97
672.855	4858.98
673.046	4701.28
673.237	4820.07
673.428	4691.04
673.619	4611.17
673.809	4615.27
674	4674.66
674.191	4586.6
674.382	4676.71
674.573	4496.49
674.764	4602.98
674.954	4570.21
675.145	4510.82
675.336	4385.9
675.527	4443.24
675.717	4570.21
675.908	4430.95
676.099	4514.92
676.289	4414.57
676.48	4467.81
676.671	4402.28
676.861	4389.99
677.052	4256.87
677.243	4234.35
677.433	4451.43
677.624	4299.88
677.814	4312.17
678.005	4527.21
678.195	4123.76
678.386	4205.67
678.576	4211.82
678.767	4164.72
678.957	4340.84
679.148	4332.65
679.338	4363.37
679.529	4230.25
679.719	4150.38
679.909	4346.98
680.1	4127.85
680.29	4121.71
680.481	4193.39
680.671	4090.99
680.861	4168.81
681.052	4172.91
681.242	4232.3
681.432	4252.78
681.622	4127.85
681.813	4152.43
682.003	4025.45
682.193	4129.9
682.383	4097.13
682.573	4056.17
682.764	3873.9
682.954	3980.4
683.144	3947.63
683.334	3923.05
683.524	4041.84
683.714	3894.38
683.904	3931.25
684.094	4066.41
684.284	3783.79
684.474	3996.78
684.664	3968.11
684.854	3925.1
685.044	3918.96
685.234	3898.48
685.424	3783.79
685.614	3720.31
685.804	3794.03
685.994	3906.67
686.184	3777.65
686.374	3718.26
686.564	3765.36
686.753	3669.11
686.943	3622
687.133	3626.1
687.323	3611.76
687.513	3716.21
687.702	3763.31
687.892	3615.86
688.082	3515.51
688.272	3552.37
688.461	3685.49
688.651	3456.12
688.841	3478.65
689.03	3525.75
689.22	3511.41
689.41	3511.41
689.599	3368.06
689.789	3529.84
689.979	3443.83
690.168	3406.97
690.358	3222.65
690.547	3353.72
690.737	3269.75
690.926	3341.43
691.116	3259.51
691.305	3273.85
691.495	3273.85
691.684	3331.19
691.874	3210.36
692.063	3159.16
692.252	3271.8
692.442	3198.07
692.631	3146.87
692.82	3112.06
693.01	3161.21
693.199	3161.21
693.388	3060.86
693.578	3009.66
693.767	3091.58
693.956	2903.17
694.146	3124.35
694.335	2864.25
694.524	3026.04
694.713	2980.99
694.902	3060.86
695.092	3034.24
695.281	2884.73
695.47	2903.17
695.659	2948.22
695.848	2960.51
696.037	2847.87
696.226	2804.86
696.415	2821.25
696.604	2921.6
696.793	2808.96
696.982	2858.11
697.171	2739.33
697.36	2708.61
697.549	2870.4
697.738	2817.15
697.927	2665.6
698.116	2735.23
698.305	2813.06
698.494	2634.88
698.683	2667.65
698.872	2774.14
699.061	2659.46
699.25	2628.74
699.438	2561.16
699.627	2600.07
699.816	2735.23
700.005	2651.27
700.193	2571.4
700.382	2589.83
700.571	2479.24
700.76	2626.69
700.948	2522.24
701.137	2587.78
701.326	2571.4
701.514	2460.81
701.703	2458.76
701.892	2585.73
702.08	2546.82
702.269	2514.05
702.457	2442.37
702.646	2563.2
702.834	2595.97
703.023	2434.18
703.212	2530.44
703.4	2417.8
703.589	2385.03
703.777	2534.53
703.965	2391.17
704.154	2440.33
704.342	2464.9
704.531	2436.23
704.719	2387.08
704.907	2442.37
705.096	2382.98
705.284	2346.12
705.472	2423.94
705.661	2444.42
705.849	2477.19
706.037	2428.04
706.226	2413.7
706.414	2415.75
706.602	2313.35
706.79	2454.66
706.979	2456.71
707.167	2473.09
707.355	2253.96
707.543	2362.5
707.731	2505.86
707.919	2368.65
708.107	2450.57
708.296	2440.33
708.484	2352.26
708.672	2348.17
708.86	2380.93
709.048	2370.69
709.236	2350.21
709.424	2364.55
709.612	2346.12
709.8	2346.12
709.988	2333.83
710.176	2514.05
710.364	2475.14
710.551	2380.93
710.739	2378.89
710.927	2419.85
711.115	2239.62
711.303	2387.08
711.491	2446.47
711.679	2374.79
711.866	2514.05
712.054	2321.54
712.242	2329.74
712.43	2393.22
712.617	2346.12
712.805	2409.61
712.993	2389.13
713.181	2380.93
713.368	2423.94
713.556	2352.26
713.744	2264.2
713.931	2514.05
714.119	2317.45
714.306	2382.98
714.494	2520.2
714.682	2315.4
714.869	2210.95
715.057	2372.74
715.244	2385.03
715.432	2370.69
715.619	2419.85
715.807	2450.57
715.994	2382.98
716.182	2444.42
716.369	2413.7
716.556	2444.42
716.744	2512
716.931	2333.83
717.119	2389.13
717.306	2464.9
717.493	2364.55
717.681	2405.51
717.868	2393.22
718.055	2446.47
718.242	2415.75
718.43	2481.28
718.617	2391.17
718.804	2530.44
718.991	2374.79
719.179	2466.95
719.366	2413.7
719.553	2491.52
719.74	2432.13
719.927	2450.57
720.114	2612.35
720.301	2471.04
720.488	2395.27
720.676	2411.65
720.863	2491.52
721.05	2583.68
721.237	2497.67
721.424	2610.31
721.611	2503.81
721.798	2440.33
721.985	2419.85
722.172	2442.37
722.358	2421.89
722.545	2497.67
722.732	2348.17
722.919	2546.82
723.106	2385.03
723.293	2413.7
723.48	2503.81
723.667	2575.49
723.853	2514.05
724.04	2610.31
724.227	2526.34
724.414	2485.38
724.6	2579.59
724.787	2448.52
724.974	2512
725.161	2526.34
725.347	2509.96
725.534	2567.3
725.72	2540.68
725.907	2667.65
726.094	2550.92
726.28	2475.14
726.467	2436.23
726.653	2477.19
726.84	2483.33
727.027	2673.79
727.213	2475.14
727.4	2573.44
727.586	2514.05
727.773	2481.28
727.959	2505.86
728.145	2636.93
728.332	2567.3
728.518	2550.92
728.705	2612.35
728.891	2548.87
729.077	2344.07
729.264	2604.16
729.45	2344.07
729.636	2694.27
729.823	2563.2
730.009	2591.88
730.195	2452.61
730.382	2528.39
730.568	2624.64
730.754	2591.88
730.94	2512
731.126	2477.19
731.313	2540.68
731.499	2462.85
731.685	2546.82
731.871	2731.14
732.057	2593.92
732.243	2479.24
732.429	2530.44
732.615	2577.54
732.801	2620.55
732.987	2571.4
733.173	2526.34
733.359	2477.19
733.545	2567.3
733.731	2579.59
733.917	2536.58
734.103	2571.4
734.289	2544.77
734.475	2657.41
734.661	2608.26
734.847	2524.29
735.033	2626.69
735.219	2518.15
735.404	2589.83
735.59	2514.05
735.776	2514.05
735.962	2526.34
736.148	2692.23
736.333	2636.93
736.519	2487.43
736.705	2567.3
736.89	2569.35
737.076	2544.77
737.262	2487.43
737.447	2514.05
737.633	2481.28
737.819	2485.38
738.004	2495.62
738.19	2671.75
738.375	2555.01
738.561	2491.52
738.747	2473.09
738.932	2565.25
739.118	2550.92
739.303	2436.23
739.489	2546.82
739.674	2507.91
739.859	2454.66
740.045	2438.28
740.23	2577.54
740.416	2415.75
740.601	2477.19
740.786	2477.19
740.972	2454.66
741.157	2440.33
741.342	2509.96
741.528	2413.7
741.713	2452.61
741.898	2407.56
742.084	2342.02
742.269	2419.85
742.454	2462.85
742.639	2376.84
742.824	2432.13
743.01	2282.63
743.195	2378.89
743.38	2438.28
743.565	2438.28
743.75	2305.16
743.935	2321.54
744.12	2364.55
744.305	2210.95
744.49	2229.38
744.675	2366.6
744.86	2151.56
745.045	2169.99
745.23	2331.78
745.415	2288.78
745.6	2200.71
745.785	2215.05
745.97	2178.19
746.155	2126.99
746.34	2145.42
746.525	2153.61
746.71	2118.79
746.895	2141.32
747.079	2151.56
747.264	2206.86
747.449	2159.75
747.634	2126.99
747.819	2139.27
748.003	2067.6
748.188	1989.77
748.373	2090.12
748.557	2047.12
748.742	2002.06
748.927	2090.12
749.111	2008.2
749.296	1873.04
749.481	1977.48
749.665	2043.02
749.85	2010.25
750.034	1938.57
750.219	1907.85
750.404	1866.89
750.588	1963.15
750.773	1942.67
750.957	1954.96
751.141	1971.34
751.326	1809.55
751.51	1914
751.695	1805.46
751.879	1887.37
752.064	1832.08
752.248	1813.65
752.432	1879.18
752.617	1815.69
752.801	1836.17
752.985	1713.3
753.17	1752.21
753.354	1752.21
753.538	1791.12
753.722	1711.25
753.907	1602.71
754.091	1662.1
754.275	1625.23
754.459	1555.6
754.643	1670.29
754.828	1571.99
755.012	1576.08
755.196	1602.71
755.38	1580.18
755.564	1561.75
755.748	1576.08
755.932	1526.93
756.116	1635.47
756.3	1512.6
756.484	1563.79
756.668	1514.64
756.852	1514.64
757.036	1614.99
757.22	1371.29
757.404	1496.21
757.588	1496.21
757.772	1488.02
757.956	1492.12
758.14	1436.82
758.323	1473.68
758.507	1457.3
758.691	1420.44
758.875	1463.44
759.059	1447.06
759.242	1379.48
759.426	1399.96
759.61	1418.39
759.794	1490.07
759.977	1285.27
760.161	1438.87
760.345	1289.37
760.528	1252.5
760.712	1283.22
760.895	1326.23
761.079	1340.57
761.263	1268.89
761.446	1258.65
761.63	1297.56
761.813	1381.53
761.997	1383.57
762.18	1207.45
762.364	1256.6
762.547	1324.18
762.731	1285.27
762.914	1287.32
763.098	1172.63
763.281	1223.83
763.464	1166.49
763.648	1135.77
763.831	1170.58
764.015	1154.2
764.198	1143.96
764.381	1182.87
764.564	1139.87
764.748	1203.35
764.931	1125.53
765.114	1154.2
765.297	1156.25
765.481	1113.24
765.664	1035.42
765.847	1164.44
766.03	1086.62
766.213	1103
766.397	1174.68
766.58	1041.56
766.763	1113.24
766.946	1178.78
767.129	1092.76
767.312	1119.39
767.495	1070.23
767.678	1064.09
767.861	1109.15
768.044	1047.71
768.227	1066.14
768.41	1080.47
768.593	1055.9
768.776	1039.51
768.959	1000.6
769.142	1051.8
769.324	1051.8
769.507	1055.9
769.69	1062.04
769.873	1057.95
770.056	1047.71
770.239	1086.62
770.421	1016.99
770.604	1043.61
770.787	1043.61
770.97	961.69
771.152	922.78
771.335	1031.32
771.518	978.08
771.7	1010.84
771.883	990.36
772.066	933.02
772.248	900.25
772.431	920.73
772.613	935.07
772.796	832.67
772.978	998.56
773.161	959.64
773.343	902.3
773.526	955.55
773.708	910.49
773.891	912.54
774.073	851.1
774.256	832.67
774.438	900.25
774.621	838.81
774.803	849.05
774.985	861.34
775.168	965.79
775.35	814.24
775.532	869.53
775.715	814.24
775.897	865.44
776.079	830.62
776.261	826.53
776.444	769.18
776.626	842.91
776.808	773.28
776.99	777.37
777.173	871.58
777.355	699.55
777.537	787.61
777.719	810.14
777.901	775.33
778.083	777.37
778.265	726.18
778.447	760.99
778.629	707.74
778.811	709.79
778.993	717.98
779.175	752.8
779.357	674.98
779.539	734.37
779.721	687.26
779.903	699.55
780.085	703.65
780.267	717.98
780.449	746.66
780.631	695.46
780.812	734.37
780.994	670.88
781.176	703.65
781.358	677.02
781.54	603.3
781.721	611.49
781.903	601.25
782.085	652.45
782.267	687.26
782.448	601.25
782.63	605.35
782.812	660.64
782.993	654.5
783.175	699.55
783.357	668.83
783.538	591.01
783.72	545.95
783.901	588.96
784.083	640.16
784.264	564.39
784.446	545.95
784.627	529.57
784.809	554.15
784.99	531.62
785.172	531.62
785.353	478.37
785.535	543.91
785.716	457.89
785.897	519.33
786.079	613.54
786.26	478.37
786.441	627.87
786.623	490.66
786.804	535.71
786.985	496.8
787.167	494.76
787.348	511.14
787.529	539.81
787.71	492.71
787.891	523.43
788.073	390.31
788.254	410.79
788.435	478.37
788.616	486.56
788.797	447.65
788.978	445.6
789.159	449.7
789.34	447.65
789.522	400.55
789.703	453.8
789.884	449.7
790.065	400.55
790.246	443.56
790.427	437.41
790.607	441.51
790.788	375.97
790.969	371.88
791.15	453.8
791.331	478.37
791.512	406.69
791.693	367.78
791.874	289.96
792.054	392.36
792.235	482.47
792.416	388.26
792.597	363.69
792.778	382.12
792.958	441.51
793.139	427.17
793.32	425.12
793.5	447.65
793.681	384.16
793.862	337.06
794.042	449.7
794.223	332.97
794.404	384.16
794.584	326.82
794.765	259.24
794.945	398.5
795.126	320.68
795.306	314.53
795.487	367.78
795.667	359.59
795.848	359.59
796.028	322.73
796.209	332.97
796.389	343.21
796.57	330.92
796.75	316.58
796.93	367.78
797.111	285.86
797.291	365.73
797.471	392.36
797.652	341.16
797.832	310.44
798.012	314.53
798.192	259.24
798.373	289.96
798.553	269.48
798.733	371.88
798.913	304.29
799.093	259.24
799.274	275.62
799.454	294.05
799.634	294.05
799.814	289.96
799.994	285.86
800.174	285.86
800.354	349.35
800.534	240.81
800.714	269.48
800.894	183.46
801.074	294.05
801.254	312.49
801.434	292.01
801.614	212.14
801.794	154.79
801.974	545.95
802.154	203.94
802.334	212.14
802.514	281.77
802.693	296.1
802.873	175.27
803.053	312.49
803.233	197.8
803.413	300.2
803.592	236.71
803.772	273.57
803.952	201.9
804.131	208.04
804.311	253.09
804.491	287.91
804.67	244.9
804.85	244.9
805.03	216.23
805.209	244.9
805.389	179.37
805.568	199.85
805.748	263.33
805.928	109.74
806.107	244.9
806.287	228.52
806.466	199.85
806.646	158.89
806.825	113.83
807.004	222.38
807.184	212.14
807.363	199.85
807.543	220.33
807.722	187.56
807.901	277.67
808.081	208.04
808.26	167.08
808.439	189.61
808.619	179.37
808.798	210.09
808.977	197.8
809.156	253.09
809.336	220.33
809.515	173.22
809.694	203.94
809.873	228.52
810.052	222.38
810.231	228.52
810.411	224.42
810.59	265.38
810.769	218.28
810.948	187.56
811.127	181.42
811.306	191.66
811.485	251.05
811.664	197.8
811.843	154.79
812.022	234.66
812.201	152.74
812.38	144.55
812.559	154.79
812.737	160.94
812.916	122.02
813.095	122.02
813.274	181.42
813.453	236.71
813.632	158.89
813.811	187.56
813.989	220.33
814.168	185.51
814.347	154.79
814.526	195.75
814.704	212.14
814.883	218.28
815.062	203.94
815.24	203.94
815.419	171.18
815.598	140.46
815.776	156.84
815.955	165.03
816.133	144.55
816.312	230.57
816.49	138.41
816.669	122.02
816.847	105.64
817.026	154.79
817.204	72.87
817.383	179.37
817.561	117.93
817.74	160.94
817.918	138.41
818.097	128.17
818.275	128.17
818.453	122.02
818.632	142.5
818.81	187.56
818.988	130.22
819.167	187.56
819.345	228.52
819.523	128.17
819.701	107.69
819.879	171.18
820.058	83.11
820.236	144.55
820.414	201.9
820.592	148.65
820.77	89.26
820.948	158.89
821.127	115.88
821.305	238.76
821.483	130.22
821.661	105.64
821.839	126.12
822.017	83.11
822.195	101.55
822.373	113.83
822.551	54.44
822.729	158.89
822.907	115.88
823.085	136.36
823.262	187.56
823.44	162.98
823.618	146.6
823.796	152.74
823.974	136.36
824.152	105.64
824.329	195.75
824.507	111.78
824.685	132.26
824.863	58.54
825.04	140.46
825.218	177.32
825.396	154.79
825.574	99.5
825.751	146.6
825.929	195.75
826.107	79.02
826.284	183.46
826.462	74.92
826.639	81.07
826.817	44.2
826.994	83.11
827.172	44.2
827.349	81.07
827.527	154.79
827.704	62.63
827.882	68.78
828.059	99.5
828.237	70.83
828.414	185.51
828.591	68.78
828.769	105.64
828.946	-21.33
829.124	185.51
829.301	107.69
829.478	95.4
829.655	113.83
829.833	138.41
830.01	107.69
830.187	111.78
830.364	62.63
830.542	119.98
830.719	66.73
830.896	113.83
831.073	56.49
831.25	85.16
831.427	136.36
831.604	56.49
831.782	103.59
831.959	48.3
832.136	68.78
832.313	83.11
832.49	64.68
832.667	81.07
832.844	103.59
833.021	122.02
833.198	87.21
833.374	85.16
833.551	109.74
833.728	17.58
833.905	107.69
834.082	138.41
834.259	29.87
834.436	36.01
834.612	81.07
834.789	79.02
834.966	50.35
835.143	60.59
835.319	91.31
835.496	31.91
835.673	136.36
835.85	66.73
836.026	60.59
836.203	83.11
836.38	36.01
836.556	64.68
836.733	87.21
836.909	60.59
837.086	144.55
837.262	48.3
837.439	76.97
837.616	85.16
837.792	15.53
837.968	95.4
838.145	25.77
838.321	36.01
838.498	81.07
838.674	95.4
838.851	83.11
839.027	54.44
839.203	66.73
839.38	105.64
839.556	48.3
839.732	117.93
839.909	68.78
840.085	97.45
840.261	99.5
840.437	68.78
840.614	21.67
840.79	74.92
840.966	72.87
841.142	162.98
841.318	38.06
841.494	113.83
841.671	64.68
841.847	54.44
842.023	48.3
842.199	132.26
842.375	95.4
842.551	171.18
842.727	25.77
842.903	76.97
843.079	23.72
843.255	81.07
843.431	7.34
843.607	91.31
843.783	62.63
843.959	146.6
844.134	-0.85
844.31	89.26
844.486	103.59
844.662	23.72
844.838	81.07
845.013	17.58
845.189	23.72
845.365	93.35
845.541	42.15
845.716	48.3
845.892	91.31
846.068	70.83
846.244	48.3
846.419	72.87
846.595	-43.86
846.77	91.31
846.946	25.77
847.122	48.3
847.297	-2.9
847.473	81.07
847.648	38.06
847.824	113.83
847.999	15.53
848.175	42.15
848.35	117.93
848.526	62.63
848.701	52.39
848.876	15.53
849.052	33.96
849.227	3.24
849.403	31.91
849.578	48.3
849.753	62.63
849.929	21.67
850.104	48.3
850.279	122.02
850.454	1.19
850.63	36.01
850.805	23.72
850.98	89.26
851.155	109.74
851.33	11.43
851.505	-25.43
851.681	109.74
851.856	21.67
852.031	66.73
852.206	11.43
852.381	107.69
852.556	42.15
852.731	50.35
852.906	38.06
853.081	76.97
853.256	23.72
853.431	-9.05
853.606	3.24
853.781	46.25
853.956	70.83
854.131	44.2
854.305	74.92
854.48	42.15
854.655	27.82
854.83	38.06
855.005	7.34
855.18	70.83
855.354	15.53
855.529	97.45
855.704	38.06
855.879	3.24
856.053	5.29
856.228	93.35
856.403	5.29
856.577	5.29
856.752	40.11
856.926	38.06
857.101	23.72
857.276	31.91
857.45	40.11
857.625	101.55
857.799	-25.43
857.974	52.39
858.148	62.63
858.323	7.34
858.497	95.4
858.672	54.44
858.846	23.72
859.02	76.97
859.195	64.68
859.369	103.59
859.543	-17.24
859.718	52.39
859.892	44.2
860.066	21.67
860.241	-70.48
860.415	27.82
860.589	21.67
860.763	-23.38
860.938	-4.95
861.112	54.44
861.286	-0.85
861.46	7.34
861.634	27.82
861.808	-27.48
861.982	68.78
862.157	36.01
862.331	-19.29
862.505	-13.14
862.679	11.43
862.853	81.07
863.027	89.26
863.201	40.11
863.375	-11.09
863.549	56.49
863.722	9.39
863.896	70.83
864.07	64.68
864.244	-2.9
864.418	38.06
864.592	-27.48
864.766	60.59
864.939	40.11
865.113	-4.95
865.287	-4.95
865.461	33.96
865.634	64.68
865.808	38.06
865.982	31.91
866.156	13.48
866.329	52.39
866.503	36.01
866.676	91.31
866.85	-9.05
867.024	95.4
867.197	48.3
867.371	29.87
867.544	-11.09
867.718	7.34
867.891	62.63
868.065	17.58
868.238	40.11
868.412	50.35
868.585	-31.57
868.759	23.72
868.932	5.29
869.105	58.54
869.279	99.5
869.452	17.58
869.625	38.06
869.799	-45.91
869.972	3.24
870.145	23.72
870.319	-9.05
870.492	-74.58
870.665	-70.48
870.838	21.67
871.011	29.87
871.185	38.06
871.358	15.53
871.531	29.87
871.704	56.49
871.877	54.44
872.05	48.3
872.223	1.19
872.396	48.3
872.569	-7
872.742	-2.9
872.915	23.72
873.088	-31.57
873.261	19.63
873.434	-9.05
873.607	23.72
873.78	48.3
873.953	-4.95
874.126	-0.85
874.299	93.35
874.471	54.44
874.644	-19.29
874.817	29.87
874.99	60.59
875.163	-25.43
875.335	40.11
875.508	27.82
875.681	33.96
875.853	46.25
876.026	54.44
876.199	-80.72
876.371	50.35
876.544	60.59
876.717	-21.33
876.889	19.63
877.062	17.58
877.234	1.19
877.407	25.77
877.579	7.34
877.752	50.35
877.924	33.96
878.097	48.3
878.269	-58.2
878.442	-0.85
878.614	54.44
878.786	-2.9
878.959	-35.67
879.131	-76.63
879.303	21.67
879.476	68.78
879.648	25.77
879.82	7.34
879.993	-25.43
880.165	-33.62
880.337	56.49
880.509	29.87
880.681	-35.67
880.854	31.91
881.026	76.97
881.198	56.49
881.37	23.72
881.542	-11.09
881.714	-0.85
881.886	-45.91
882.058	50.35
882.23	62.63
882.402	36.01
882.574	3.24
882.746	62.63
882.918	15.53
883.09	-2.9
883.262	-29.52
883.434	17.58
883.606	19.63
883.778	-0.85
883.95	-15.19
884.122	-37.72
884.293	64.68
884.465	56.49
884.637	27.82
884.809	13.48
884.98	60.59
885.152	-27.48
885.324	44.2
885.496	21.67
885.667	74.92
885.839	17.58
886.011	27.82
886.182	31.91
886.354	-35.67
886.525	-33.62
886.697	42.15
886.869	62.63
887.04	70.83
887.212	58.54
887.383	23.72
887.555	-0.85
887.726	3.24
887.897	29.87
888.069	48.3
888.24	13.48
888.412	44.2
888.583	-27.48
888.754	31.91
888.926	56.49
889.097	15.53
889.268	68.78
889.44	-13.14
889.611	-9.05
889.782	46.25
889.953	-11.09
890.125	23.72
890.296	1.19
890.467	58.54
890.638	-15.19
890.809	13.48
890.98	-43.86
891.151	36.01
891.323	7.34
891.494	27.82
891.665	87.21
891.836	72.87
892.007	-7
892.178	42.15
892.349	3.24
892.52	-25.43
892.691	19.63
892.862	15.53
893.032	-21.33
893.203	3.24
893.374	44.2
893.545	52.39
893.716	56.49
893.887	87.21
894.057	-4.95
894.228	-35.67
894.399	56.49
894.57	25.77
894.74	21.67
894.911	31.91
895.082	74.92
895.253	-82.77
895.423	-35.67
895.594	50.35
895.764	64.68
895.935	60.59
896.106	40.11
896.276	44.2
896.447	-0.85
896.617	-35.67
896.788	31.91
896.958	7.34
897.129	-21.33
897.299	-13.14
897.47	5.29
897.64	48.3
897.81	-37.72
897.981	13.48
898.151	-0.85
898.322	-7
898.492	-4.95
898.662	-23.38
898.832	38.06
899.003	36.01
899.173	83.11
899.343	15.53
899.513	40.11
