Data from USB4F104151__79__11-37-40-307.txt Node

Date: Fri Mar 14 11:37:40 EDT 2025
User: louis
Spectrometer: USB4F10415
Trigger mode: 4
Integration Time (sec): 2.000000E-2
Scans to average: 1
Electric dark correction enabled: true
Nonlinearity correction enabled: false
Boxcar width: 0
XAxis mode: Wavelengths
Number of Pixels in Spectrum: 3648
>>>>>Begin Spectral Data<<<<<
178.204	-32.77
178.424	-32.77
178.644	-32.77
178.864	-81.92
179.084	-86.01
179.304	18.43
179.524	-57.34
179.744	-32.77
179.964	106.49
180.184	-16.38
180.404	-34.82
180.624	4.1
180.844	-0
181.064	-55.3
181.283	30.72
181.503	-32.77
181.723	69.63
181.943	-32.77
182.163	47.1
182.383	-30.72
182.602	-6.14
182.822	24.58
183.042	79.87
183.262	71.68
183.482	-90.11
183.701	-16.38
183.921	34.82
184.141	-36.86
184.361	57.34
184.58	38.91
184.8	43.01
185.02	49.15
185.239	108.54
185.459	38.91
185.679	24.58
185.898	-63.49
186.118	22.53
186.338	36.86
186.557	28.67
186.777	75.77
186.997	16.38
187.216	36.86
187.436	8.19
187.655	18.43
187.875	53.25
188.095	-32.77
188.314	38.91
188.534	4.1
188.753	38.91
188.973	26.62
189.192	45.06
189.412	8.19
189.631	65.53
189.851	-47.1
190.07	43.01
190.29	12.29
190.509	-8.19
190.729	-12.29
190.948	71.68
191.168	77.82
191.387	2.05
191.607	-43.01
191.826	-2.05
192.045	-30.72
192.265	59.39
192.484	20.48
192.704	59.39
192.923	10.24
193.142	-6.14
193.362	-43.01
193.581	6.14
193.8	81.92
194.02	-69.63
194.239	12.29
194.458	-24.58
194.678	-10.24
194.897	20.48
195.116	34.82
195.335	47.1
195.555	83.97
195.774	-8.19
195.993	-2.05
196.212	-30.72
196.432	-34.82
196.651	34.82
196.87	49.15
197.089	65.53
197.308	59.39
197.528	24.58
197.747	-0
197.966	38.91
198.185	2.05
198.404	-26.62
198.623	14.34
198.842	43.01
199.062	96.25
199.281	8.19
199.5	-22.53
199.719	83.97
199.938	28.67
200.157	98.3
200.376	53.25
200.595	18.43
200.814	28.67
201.033	26.62
201.252	22.53
201.471	-79.87
201.69	28.67
201.909	92.16
202.128	53.25
202.347	-34.82
202.566	-16.38
202.785	26.62
203.004	24.58
203.223	-8.19
203.442	-2.05
203.661	-24.58
203.879	59.39
204.098	-2.05
204.317	14.34
204.536	32.77
204.755	28.67
204.974	6.14
205.193	67.58
205.411	6.14
205.63	65.53
205.849	34.82
206.068	57.34
206.287	69.63
206.505	-36.86
206.724	-6.14
206.943	2.05
207.162	14.34
207.381	38.91
207.599	26.62
207.818	51.2
208.037	24.58
208.255	34.82
208.474	18.43
208.693	16.38
208.911	12.29
209.13	57.34
209.349	8.19
209.567	8.19
209.786	59.39
210.005	12.29
210.223	-10.24
210.442	8.19
210.661	83.97
210.879	69.63
211.098	34.82
211.316	61.44
211.535	-20.48
211.753	16.38
211.972	65.53
212.191	24.58
212.409	-8.19
212.628	-26.62
212.846	77.82
213.065	-14.34
213.283	18.43
213.502	-22.53
213.72	36.86
213.938	51.2
214.157	-2.05
214.375	-34.82
214.594	-69.63
214.812	32.77
215.031	16.38
215.249	26.62
215.467	-10.24
215.686	71.68
215.904	57.34
216.122	-22.53
216.341	34.82
216.559	18.43
216.778	12.29
216.996	75.77
217.214	36.86
217.432	65.53
217.651	55.3
217.869	22.53
218.087	55.3
218.306	10.24
218.524	20.48
218.742	-34.82
218.96	32.77
219.179	63.49
219.397	-14.34
219.615	86.01
219.833	10.24
220.051	-0
220.27	55.3
220.488	34.82
220.706	-8.19
220.924	26.62
221.142	8.19
221.36	65.53
221.578	-8.19
221.796	-18.43
222.015	2.05
222.233	47.1
222.451	98.3
222.669	38.91
222.887	57.34
223.105	-34.82
223.323	30.72
223.541	-0
223.759	49.15
223.977	57.34
224.195	47.1
224.413	49.15
224.631	16.38
224.849	-67.58
225.067	43.01
225.285	-49.15
225.503	24.58
225.721	-116.73
225.939	10.24
226.157	-49.15
226.375	53.25
226.592	-49.15
226.81	59.39
227.028	-26.62
227.246	-24.58
227.464	94.21
227.682	-16.38
227.9	18.43
228.117	55.3
228.335	120.83
228.553	102.4
228.771	118.78
228.989	8.19
229.206	57.34
229.424	55.3
229.642	81.92
229.86	40.96
230.077	20.48
230.295	-6.14
230.513	108.54
230.731	71.68
230.948	-34.82
231.166	83.97
231.384	14.34
231.601	2.05
231.819	67.58
232.037	24.58
232.254	-6.14
232.472	86.01
232.689	10.24
232.907	71.68
233.125	63.49
233.342	90.11
233.56	28.67
233.777	-4.1
233.995	32.77
234.213	40.96
234.43	81.92
234.648	-14.34
234.865	-14.34
235.083	92.16
235.3	47.1
235.518	81.92
235.735	-0
235.953	16.38
236.17	20.48
236.388	6.14
236.605	20.48
236.822	-10.24
237.04	-47.1
237.257	59.39
237.475	-12.29
237.692	2.05
237.909	-26.62
238.127	47.1
238.344	71.68
238.562	8.19
238.779	-55.3
238.996	-20.48
239.214	18.43
239.431	71.68
239.648	-12.29
239.865	69.63
240.083	6.14
240.3	-28.67
240.517	18.43
240.735	-0
240.952	92.16
241.169	43.01
241.386	51.2
241.603	24.58
241.821	-6.14
242.038	40.96
242.255	30.72
242.472	8.19
242.689	24.58
242.907	-0
243.124	-10.24
243.341	65.53
243.558	-8.19
243.775	-0
243.992	53.25
244.209	55.3
244.426	53.25
244.643	59.39
244.86	59.39
245.078	43.01
245.295	-38.91
245.512	55.3
245.729	75.77
245.946	53.25
246.163	75.77
246.38	12.29
246.597	-24.58
246.814	34.82
247.031	6.14
247.248	14.34
247.464	6.14
247.681	-16.38
247.898	10.24
248.115	8.19
248.332	-30.72
248.549	38.91
248.766	43.01
248.983	45.06
249.2	49.15
249.417	-12.29
249.633	-8.19
249.85	77.82
250.067	36.86
250.284	-0
250.501	-63.49
250.717	47.1
250.934	49.15
251.151	71.68
251.368	18.43
251.585	10.24
251.801	-30.72
252.018	79.87
252.235	-47.1
252.451	-8.19
252.668	45.06
252.885	20.48
253.102	22.53
253.318	118.78
253.535	55.3
253.752	18.43
253.968	14.34
254.185	75.77
254.401	2.05
254.618	-0
254.835	-34.82
255.051	49.15
255.268	8.19
255.484	16.38
255.701	10.24
255.917	49.15
256.134	-90.11
256.351	-20.48
256.567	57.34
256.784	63.49
257	20.48
257.217	26.62
257.433	32.77
257.65	79.87
257.866	18.43
258.082	34.82
258.299	43.01
258.515	18.43
258.732	83.97
258.948	65.53
259.165	30.72
259.381	4.1
259.597	-18.43
259.814	55.3
260.03	14.34
260.246	34.82
260.463	55.3
260.679	18.43
260.895	20.48
261.112	69.63
261.328	12.29
261.544	6.14
261.761	92.16
261.977	-57.34
262.193	24.58
262.409	10.24
262.626	30.72
262.842	32.77
263.058	40.96
263.274	-0
263.49	30.72
263.707	-30.72
263.923	-6.14
264.139	57.34
264.355	83.97
264.571	100.35
264.787	-14.34
265.004	96.25
265.22	98.3
265.436	81.92
265.652	16.38
265.868	-0
266.084	49.15
266.3	43.01
266.516	8.19
266.732	-24.58
266.948	22.53
267.164	40.96
267.38	18.43
267.596	40.96
267.812	53.25
268.028	-4.1
268.244	8.19
268.46	63.49
268.676	40.96
268.892	75.77
269.108	116.73
269.324	61.44
269.54	55.3
269.756	51.2
269.972	-36.86
270.188	-14.34
270.403	-12.29
270.619	22.53
270.835	43.01
271.051	51.2
271.267	92.16
271.483	-0
271.698	-47.1
271.914	-18.43
272.13	2.05
272.346	96.25
272.562	-16.38
272.777	34.82
272.993	6.14
273.209	30.72
273.425	-38.91
273.64	-2.05
273.856	67.58
274.072	75.77
274.287	67.58
274.503	-22.53
274.719	106.49
274.934	6.14
275.15	32.77
275.366	100.35
275.581	49.15
275.797	8.19
276.012	-12.29
276.228	-30.72
276.444	-26.62
276.659	61.44
276.875	-0
277.09	65.53
277.306	-6.14
277.521	26.62
277.737	8.19
277.952	96.25
278.168	-24.58
278.383	57.34
278.599	47.1
278.814	22.53
279.03	18.43
279.245	116.73
279.461	20.48
279.676	40.96
279.892	16.38
280.107	4.1
280.322	61.44
280.538	49.15
280.753	26.62
280.969	38.91
281.184	40.96
281.399	75.77
281.615	32.77
281.83	30.72
282.045	-22.53
282.26	98.3
282.476	-6.14
282.691	-32.77
282.906	38.91
283.122	26.62
283.337	4.1
283.552	28.67
283.767	26.62
283.983	43.01
284.198	2.05
284.413	86.01
284.628	-30.72
284.843	51.2
285.058	47.1
285.274	6.14
285.489	-61.44
285.704	65.53
285.919	79.87
286.134	-0
286.349	34.82
286.564	-43.01
286.779	10.24
286.995	43.01
287.21	18.43
287.425	92.16
287.64	2.05
287.855	-40.96
288.07	-51.2
288.285	51.2
288.5	63.49
288.715	10.24
288.93	43.01
289.145	2.05
289.36	22.53
289.575	6.14
289.79	49.15
290.004	79.87
290.219	4.1
290.434	20.48
290.649	55.3
290.864	36.86
291.079	38.91
291.294	-24.58
291.509	104.45
291.724	63.49
291.938	-59.39
292.153	61.44
292.368	26.62
292.583	71.68
292.798	18.43
293.012	38.91
293.227	-63.49
293.442	16.38
293.657	18.43
293.871	139.26
294.086	28.67
294.301	43.01
294.516	10.24
294.73	32.77
294.945	63.49
295.16	-47.1
295.374	67.58
295.589	45.06
295.804	-22.53
296.018	57.34
296.233	24.58
296.447	20.48
296.662	-14.34
296.877	98.3
297.091	-8.19
297.306	34.82
297.52	-8.19
297.735	49.15
297.949	4.1
298.164	34.82
298.378	20.48
298.593	92.16
298.807	36.86
299.022	4.1
299.236	53.25
299.451	-24.58
299.665	38.91
299.88	40.96
300.094	51.2
300.309	32.77
300.523	-4.1
300.737	20.48
300.952	-14.34
301.166	16.38
301.381	-34.82
301.595	16.38
301.809	43.01
302.024	47.1
302.238	-36.86
302.452	6.14
302.667	28.67
302.881	67.58
303.095	92.16
303.309	14.34
303.524	14.34
303.738	4.1
303.952	22.53
304.166	47.1
304.381	55.3
304.595	43.01
304.809	-2.05
305.023	-18.43
305.237	65.53
305.452	30.72
305.666	57.34
305.88	38.91
306.094	-0
306.308	71.68
306.522	77.82
306.736	59.39
306.95	65.53
307.164	24.58
307.379	-55.3
307.593	-28.67
307.807	71.68
308.021	14.34
308.235	16.38
308.449	67.58
308.663	79.87
308.877	-0
309.091	59.39
309.305	-36.86
309.519	55.3
309.733	65.53
309.947	24.58
310.161	102.4
310.374	71.68
310.588	43.01
310.802	40.96
311.016	12.29
311.23	51.2
311.444	45.06
311.658	20.48
311.872	-20.48
312.085	100.35
312.299	24.58
312.513	49.15
312.727	-0
312.941	18.43
313.154	-40.96
313.368	14.34
313.582	73.73
313.796	32.77
314.009	-0
314.223	18.43
314.437	63.49
314.651	-24.58
314.864	57.34
315.078	59.39
315.292	49.15
315.505	73.73
315.719	20.48
315.933	-0
316.146	16.38
316.36	20.48
316.573	92.16
316.787	20.48
317.001	79.87
317.214	-0
317.428	26.62
317.641	-12.29
317.855	43.01
318.068	43.01
318.282	114.69
318.495	88.06
318.709	16.38
318.922	38.91
319.136	32.77
319.349	8.19
319.563	96.25
319.776	45.06
319.99	8.19
320.203	-12.29
320.417	57.34
320.63	8.19
320.843	36.86
321.057	63.49
321.27	47.1
321.483	55.3
321.697	32.77
321.91	47.1
322.124	-61.44
322.337	49.15
322.55	36.86
322.763	96.25
322.977	47.1
323.19	-0
323.403	61.44
323.617	24.58
323.83	10.24
324.043	2.05
324.256	-26.62
324.469	12.29
324.683	14.34
324.896	75.77
325.109	26.62
325.322	-20.48
325.535	53.25
325.748	116.73
325.962	43.01
326.175	47.1
326.388	28.67
326.601	40.96
326.814	18.43
327.027	16.38
327.24	8.19
327.453	-61.44
327.666	26.62
327.879	26.62
328.092	53.25
328.305	18.43
328.518	2.05
328.731	18.43
328.944	-32.77
329.157	2.05
329.37	51.2
329.583	24.58
329.796	79.87
330.009	-90.11
330.222	59.39
330.435	75.77
330.648	118.78
330.861	-34.82
331.073	38.91
331.286	69.63
331.499	6.14
331.712	51.2
331.925	40.96
332.138	59.39
332.35	75.77
332.563	-14.34
332.776	43.01
332.989	-2.05
333.202	18.43
333.414	-18.43
333.627	79.87
333.84	-10.24
334.053	51.2
334.265	55.3
334.478	59.39
334.691	73.73
334.903	104.45
335.116	47.1
335.329	18.43
335.541	59.39
335.754	69.63
335.966	59.39
336.179	-22.53
336.392	28.67
336.604	16.38
336.817	51.2
337.029	2.05
337.242	65.53
337.454	40.96
337.667	63.49
337.88	57.34
338.092	16.38
338.305	63.49
338.517	10.24
338.729	83.97
338.942	38.91
339.154	53.25
339.367	34.82
339.579	45.06
339.792	12.29
340.004	14.34
340.217	75.77
340.429	57.34
340.641	38.91
340.854	28.67
341.066	-6.14
341.278	16.38
341.491	47.1
341.703	-6.14
341.915	-6.14
342.128	67.58
342.34	-14.34
342.552	88.06
342.764	106.49
342.977	18.43
343.189	30.72
343.401	63.49
343.613	6.14
343.826	61.44
344.038	24.58
344.25	8.19
344.462	40.96
344.674	12.29
344.886	8.19
345.099	57.34
345.311	30.72
345.523	83.97
345.735	8.19
345.947	71.68
346.159	22.53
346.371	40.96
346.583	49.15
346.795	59.39
347.007	8.19
347.219	-6.14
347.431	81.92
347.643	75.77
347.855	-71.68
348.067	104.45
348.279	28.67
348.491	14.34
348.703	83.97
348.915	-38.91
349.127	10.24
349.339	34.82
349.551	77.82
349.763	102.4
349.975	8.19
350.187	10.24
350.399	106.49
350.61	61.44
350.822	4.1
351.034	26.62
351.246	63.49
351.458	75.77
351.669	16.38
351.881	69.63
352.093	43.01
352.305	67.58
352.517	-20.48
352.728	34.82
352.94	36.86
353.152	43.01
353.363	38.91
353.575	77.82
353.787	-0
353.999	2.05
354.21	57.34
354.422	10.24
354.633	65.53
354.845	32.77
355.057	96.25
355.268	81.92
355.48	100.35
355.692	77.82
355.903	22.53
356.115	55.3
356.326	16.38
356.538	30.72
356.749	2.05
356.961	124.93
357.172	102.4
357.384	12.29
357.595	75.77
357.807	92.16
358.018	-16.38
358.23	73.73
358.441	10.24
358.653	32.77
358.864	-18.43
359.075	-40.96
359.287	51.2
359.498	86.01
359.709	61.44
359.921	90.11
360.132	98.3
360.344	8.19
360.555	116.73
360.766	86.01
360.977	-16.38
361.189	104.45
361.4	22.53
361.611	43.01
361.823	108.54
362.034	71.68
362.245	22.53
362.456	71.68
362.667	-4.1
362.879	67.58
363.09	16.38
363.301	71.68
363.512	67.58
363.723	63.49
363.935	-2.05
364.146	65.53
364.357	-6.14
364.568	55.3
364.779	67.58
364.99	59.39
365.201	53.25
365.412	129.02
365.623	79.87
365.834	-0
366.045	55.3
366.256	55.3
366.467	53.25
366.678	75.77
366.889	4.1
367.1	53.25
367.311	24.58
367.522	118.78
367.733	63.49
367.944	22.53
368.155	92.16
368.366	71.68
368.577	59.39
368.788	73.73
368.999	49.15
369.209	98.3
369.42	86.01
369.631	73.73
369.842	92.16
370.053	22.53
370.264	55.3
370.474	32.77
370.685	65.53
370.896	63.49
371.107	59.39
371.317	100.35
371.528	63.49
371.739	57.34
371.95	45.06
372.16	30.72
372.371	-28.67
372.582	45.06
372.792	36.86
373.003	71.68
373.214	38.91
373.424	137.21
373.635	55.3
373.846	104.45
374.056	53.25
374.267	-0
374.477	73.73
374.688	12.29
374.898	53.25
375.109	51.2
375.319	34.82
375.53	30.72
375.74	-16.38
375.951	57.34
376.161	12.29
376.372	32.77
376.582	90.11
376.793	141.31
377.003	47.1
377.214	38.91
377.424	57.34
377.635	20.48
377.845	59.39
378.055	51.2
378.266	43.01
378.476	141.31
378.686	83.97
378.897	45.06
379.107	94.21
379.317	53.25
379.528	-57.34
379.738	47.1
379.948	-14.34
380.158	114.69
380.369	71.68
380.579	55.3
380.789	45.06
380.999	40.96
381.21	40.96
381.42	59.39
381.63	-6.14
381.84	83.97
382.05	106.49
382.261	118.78
382.471	108.54
382.681	30.72
382.891	77.82
383.101	49.15
383.311	43.01
383.521	26.62
383.731	18.43
383.941	77.82
384.151	43.01
384.361	81.92
384.571	145.41
384.781	-2.05
384.991	38.91
385.201	120.83
385.411	112.64
385.621	57.34
385.831	-30.72
386.041	34.82
386.251	51.2
386.461	114.69
386.671	47.1
386.881	55.3
387.091	104.45
387.301	88.06
387.511	57.34
387.72	34.82
387.93	45.06
388.14	45.06
388.35	10.24
388.56	114.69
388.769	22.53
388.979	-6.14
389.189	108.54
389.399	55.3
389.609	108.54
389.818	75.77
390.028	90.11
390.238	55.3
390.447	24.58
390.657	92.16
390.867	51.2
391.076	67.58
391.286	65.53
391.496	24.58
391.705	67.58
391.915	34.82
392.125	139.26
392.334	28.67
392.544	129.02
392.753	94.21
392.963	69.63
393.172	83.97
393.382	30.72
393.591	100.35
393.801	51.2
394.01	118.78
394.22	83.97
394.429	69.63
394.639	102.4
394.848	137.21
395.058	55.3
395.267	34.82
395.477	94.21
395.686	116.73
395.895	69.63
396.105	149.5
396.314	71.68
396.524	106.49
396.733	79.87
396.942	92.16
397.152	38.91
397.361	106.49
397.57	75.77
397.78	75.77
397.989	151.55
398.198	124.93
398.407	47.1
398.617	151.55
398.826	172.03
399.035	96.25
399.244	120.83
399.453	67.58
399.663	129.02
399.872	149.5
400.081	106.49
400.29	75.77
400.499	135.17
400.708	157.69
400.917	143.36
401.127	77.82
401.336	102.4
401.545	133.12
401.754	133.12
401.963	182.27
402.172	114.69
402.381	180.22
402.59	106.49
402.799	71.68
403.008	155.65
403.217	167.93
403.426	176.13
403.635	135.17
403.844	94.21
404.053	178.17
404.262	81.92
404.471	172.03
404.68	147.45
404.888	155.65
405.097	139.26
405.306	235.52
405.515	182.27
405.724	227.32
405.933	198.65
406.142	227.32
406.35	165.89
406.559	180.22
406.768	258.04
406.977	192.51
407.185	245.76
407.394	229.37
407.603	135.17
407.812	247.8
408.02	215.04
408.229	258.04
408.438	167.93
408.646	305.15
408.855	276.48
409.064	327.67
409.272	272.38
409.481	251.9
409.69	292.86
409.898	313.34
410.107	299
410.315	339.96
410.524	337.91
410.733	385.02
410.941	344.06
411.15	368.63
411.358	432.12
411.567	432.12
411.775	391.16
411.984	468.98
412.192	466.94
412.401	473.08
412.609	487.42
412.818	618.49
413.026	534.52
413.234	524.28
413.443	571.38
413.651	602.1
413.86	622.58
414.068	645.11
414.276	591.86
414.485	706.55
414.693	681.97
414.901	690.17
415.11	724.98
415.318	720.88
415.526	727.03
415.734	737.27
415.943	804.85
416.151	890.87
416.359	872.43
416.567	919.54
416.776	929.78
416.984	989.17
417.192	1101.81
417.4	1007.6
417.608	987.12
417.817	1120.24
418.025	1093.62
418.233	1249.26
418.441	1107.95
418.649	1294.32
418.857	1376.23
419.065	1279.98
419.273	1380.33
419.481	1318.89
419.689	1533.93
419.897	1589.22
420.105	1597.42
420.313	1603.56
420.521	1753.06
420.729	1751.01
420.937	1777.64
421.145	1871.84
421.353	1953.76
421.561	2082.78
421.769	1912.8
421.977	1976.29
422.185	2101.22
422.393	2258.91
422.601	2336.73
422.809	2351.07
423.017	2220
423.224	2529.24
423.432	2602.97
423.64	2607.06
423.848	2897.88
424.056	2772.95
424.263	2926.55
424.471	3008.47
424.679	3057.62
424.887	3143.63
425.094	3203.02
425.302	3416.01
425.51	3520.46
425.718	3479.5
425.925	3606.47
426.133	3809.22
426.341	4016.07
426.548	4059.07
426.756	4106.18
426.964	4220.86
427.171	4564.92
427.379	4556.73
427.586	4616.12
427.794	4685.75
428.001	5044.15
428.209	5240.75
428.417	5097.39
428.624	5545.9
428.832	5408.69
429.039	5404.59
429.247	5527.47
429.454	6000.55
429.662	6252.45
429.869	5849
430.076	6516.64
430.284	6150.05
430.491	6277.02
430.699	6883.22
430.906	6823.83
431.114	6971.29
431.321	7085.97
431.528	7126.93
431.736	7862.15
431.943	8064.9
432.15	7749.51
432.358	7843.72
432.565	8357.76
432.772	8423.3
432.979	8879.99
433.187	9019.25
433.394	9090.93
433.601	9639.79
433.808	9588.59
434.016	9637.74
434.223	9914.22
434.43	10612.57
434.637	10284.9
434.844	11099.99
435.052	11263.83
435.259	11206.48
435.466	11233.11
435.673	11104.09
435.88	11890.51
436.087	12234.57
436.294	12250.95
436.501	12037.96
436.708	12384.07
436.915	12943.16
437.122	13416.24
437.329	13330.23
437.537	13784.88
437.743	13967.15
437.95	13856.56
438.157	14645.02
438.364	15060.76
438.571	15019.8
438.778	15259.42
438.985	16467.72
439.192	15908.62
439.399	16338.69
439.606	16324.36
439.813	17102.59
440.02	17991.41
440.227	17651.44
440.433	17379.06
440.64	17927.92
440.847	17821.42
441.054	18401
441.261	19818.19
441.467	19173.08
441.674	19953.36
441.881	20604.61
442.088	20352.71
442.294	20205.26
442.501	20797.12
442.708	21493.43
442.914	22146.73
443.121	23082.66
443.328	22423.21
443.534	24270.48
443.741	23248.54
443.948	23017.12
444.154	24602.25
444.361	24471.18
444.568	24528.52
444.774	24727.17
444.981	24821.38
445.187	25777.78
445.394	26863.21
445.6	26494.57
445.807	28849.74
446.013	27833.94
446.22	28470.86
446.426	29005.38
446.633	29775.42
446.839	30617.13
447.046	29089.35
447.252	30813.74
447.459	31165.99
447.665	31221.28
447.871	32208.4
448.078	33328.64
448.284	32103.96
448.491	32886.28
448.697	33986.04
448.903	34807.28
449.11	34993.64
449.316	34274.81
449.522	34954.73
449.728	36111.83
449.935	35829.21
450.141	35964.38
450.347	36955.6
450.553	35630.56
450.76	36322.77
450.966	37369.29
451.172	36756.94
451.378	37961.15
451.584	37060.04
451.791	38088.12
451.997	38221.24
452.203	38440.37
452.409	38114.75
452.615	38405.56
452.821	36949.45
453.027	36468.18
453.233	38372.79
453.44	36734.42
453.646	37416.39
453.852	37449.16
454.058	38315.45
454.264	36722.13
454.47	37514.69
454.676	36693.46
454.882	37842.37
455.088	34790.89
455.294	35198.44
455.5	35542.5
455.705	36167.13
455.911	34860.52
456.117	34594.29
456.323	33711.61
456.529	32153.11
456.735	33078.79
456.941	32310.8
457.147	31542.81
457.352	31376.93
457.558	30524.97
457.764	30897.7
457.97	30121.52
458.176	29630.01
458.381	29220.42
458.587	27860.57
458.793	27833.94
458.999	26658.41
459.204	28429.9
459.41	27700.83
459.616	25837.17
459.821	25781.88
460.027	25890.42
460.233	25206.4
460.438	23985.81
460.644	24354.44
460.85	23078.56
461.055	22779.56
461.261	22668.97
461.466	20944.58
461.672	20258.51
461.878	21788.34
462.083	20369.1
462.289	19955.41
462.494	20020.94
462.7	18960.09
462.905	18495.21
463.111	19093.21
463.316	19152.6
463.522	18835.17
463.727	18712.29
463.932	18779.87
464.138	18353.9
464.343	18818.78
464.549	17901.29
464.754	18628.32
464.959	18474.73
465.165	18403.05
465.37	17483.51
465.575	17282.81
465.781	17704.69
465.986	18032.36
466.191	17377.01
466.397	16969.47
466.602	16140.04
466.807	16856.83
467.012	16791.3
467.218	16557.83
467.423	16637.7
467.628	16529.16
467.833	17184.51
468.038	16557.83
468.244	16025.36
468.449	16918.27
468.654	16410.37
468.859	16135.95
469.064	15920.91
469.269	15494.93
469.474	15402.77
469.679	15836.94
469.885	15339.29
470.09	15386.39
470.295	15277.85
470.5	14987.04
470.705	15392.53
470.91	14810.91
471.115	14634.78
471.32	14845.73
471.525	14819.1
471.73	14448.42
471.935	14321.45
472.139	14020.39
472.344	14036.78
472.549	14034.73
472.754	13797.17
472.959	13492.02
473.164	13088.57
473.369	13272.89
473.574	13580.08
473.778	13315.89
473.983	13236.02
474.188	13289.27
474.393	12582.72
474.598	12584.77
474.802	12820.28
475.007	12674.88
475.212	12476.23
475.417	11921.23
475.621	12197.7
475.826	12083.02
476.031	11835.21
476.235	11667.28
476.44	11657.04
476.645	11597.65
476.849	11671.37
477.054	11415.38
477.259	11384.66
477.463	11366.23
477.668	10780.51
477.872	11241.3
478.077	10794.84
478.282	10807.13
478.486	10635.1
478.691	10614.62
478.895	10225.51
479.1	10458.98
479.304	10409.83
479.509	10086.25
479.713	10358.63
479.918	10301.28
480.122	9944.94
480.326	10166.12
480.531	10119.01
480.735	10123.11
480.94	10024.81
481.144	10241.89
481.348	9625.45
481.553	9873.26
481.757	9791.34
481.961	9701.23
482.166	9840.49
482.37	9729.9
482.574	9734
482.778	9451.38
482.983	10033
483.187	9750.38
483.391	9756.52
483.595	9467.76
483.8	9394.03
484.004	9664.36
484.208	9777
484.412	9797.48
484.616	9568.11
484.821	9740.14
485.025	9631.6
485.229	9660.27
485.433	9578.35
485.637	9660.27
485.841	9633.64
486.045	9463.66
486.249	9750.38
486.453	9363.31
486.657	9658.22
486.861	9676.65
487.065	9394.03
487.269	9650.03
487.473	9482.1
487.677	9951.08
487.881	9731.95
488.085	9686.89
488.289	9932.65
488.493	9641.84
488.697	9734
488.901	9643.88
489.105	9787.24
489.309	9611.12
489.512	9690.99
489.716	9838.44
489.92	9774.95
490.124	9756.52
490.328	9865.07
490.531	9707.37
490.735	9875.31
490.939	9615.21
491.143	9930.6
491.346	9736.04
491.55	10164.07
491.754	9940.84
491.958	10028.9
492.161	10127.21
492.365	10211.17
492.569	10147.69
492.772	10059.62
492.976	10141.54
493.18	10313.57
493.383	10168.16
493.587	10487.65
493.79	10506.08
493.994	10422.11
494.197	10651.49
494.401	10708.83
494.605	10682.2
494.808	10825.56
495.012	10737.5
495.215	10856.28
495.419	11114.33
495.622	10954.58
495.825	11077.46
496.029	11126.61
496.232	11378.51
496.436	11353.94
496.639	11806.54
496.843	11642.7
497.046	11777.87
497.249	11833.16
497.453	11808.59
497.656	12052.3
497.859	12134.21
498.063	12158.79
498.266	12359.49
498.469	12408.64
498.673	12650.3
498.876	12908.35
499.079	12836.67
499.282	12769.09
499.485	12969.79
499.689	12859.2
499.892	13209.4
500.095	13274.93
500.298	13797.17
500.501	13608.75
500.705	13926.19
500.908	14130.98
501.111	14167.85
501.314	14331.69
501.517	14632.74
501.72	14614.3
501.923	14624.54
502.126	14968.6
502.329	15099.67
502.532	15361.81
502.735	15343.38
502.938	15648.53
503.141	15607.57
503.344	15767.31
503.547	15949.58
503.75	16340.74
503.953	16514.82
504.156	16660.23
504.359	16764.67
504.562	16883.45
504.765	17366.78
504.968	17329.91
505.17	17489.65
505.373	17542.9
505.576	18140.91
505.779	17979.12
505.982	18071.28
506.185	18329.32
506.387	18534.12
506.59	18605.8
506.793	19007.2
506.996	18740.96
507.198	19365.59
507.401	19154.65
507.604	19756.75
507.807	20178.64
508.009	19934.93
508.212	20297.42
508.415	20596.42
508.617	20707.01
508.82	20823.75
509.022	20895.43
509.225	21055.17
509.428	21343.93
509.63	21593.78
509.833	21329.59
510.035	22062.77
510.238	22064.82
510.44	22191.79
510.643	22482.6
510.845	22666.92
511.048	22759.08
511.25	23226.01
511.453	23273.12
511.655	23789.21
511.858	23684.76
512.06	23727.77
512.262	24352.4
512.465	24161.94
512.667	24522.38
512.87	24936.07
513.072	24655.5
513.274	25376.38
513.477	25134.72
513.679	25486.97
513.881	26119.79
514.084	26044.02
514.286	26136.18
514.488	26230.38
514.69	27174.5
514.893	27047.52
515.095	27096.67
515.297	27446.88
515.499	27553.37
515.701	27842.14
515.904	28063.32
516.106	28120.66
516.308	28425.81
516.51	28687.95
516.712	28845.64
516.914	29126.21
517.116	29310.53
517.318	29673.02
517.52	29742.65
517.722	29916.73
517.925	30418.48
518.127	30463.54
518.329	30522.93
518.531	30447.15
518.733	31178.28
518.935	31551.01
519.136	31415.84
519.338	31890.97
519.54	32140.82
519.742	32052.76
519.944	32366.1
520.146	33048.07
520.348	33064.46
520.55	33107.46
520.752	33250.82
520.954	33842.68
521.155	33601.02
521.357	34027
521.559	34178.55
521.761	34395.64
521.963	34295.28
522.164	34614.77
522.366	34868.72
522.568	35354.08
522.77	35227.11
522.971	35943.9
523.173	35741.15
523.375	36017.63
523.576	36060.63
523.778	35890.65
523.98	36681.17
524.181	36617.68
524.383	36879.82
524.584	37332.42
524.786	37156.3
524.988	36779.47
525.189	37348.81
525.391	37289.42
525.592	37445.06
525.794	37799.36
525.995	38133.18
526.197	37817.79
526.398	38196.67
526.6	38227.38
526.801	38108.6
527.003	38550.96
527.204	38464.95
527.406	38903.21
527.607	38669.75
527.808	39216.55
528.01	38577.59
528.211	38663.6
528.412	39646.63
528.614	39419.3
528.815	39759.27
529.016	39841.18
529.218	39497.13
529.419	39892.38
529.62	39798.18
529.822	39919.01
530.023	40367.51
530.224	40164.76
530.425	39863.71
530.626	39826.85
530.828	39579.04
531.029	40826.26
531.23	39892.38
531.431	40431
531.632	40330.65
531.833	40580.5
532.035	40783.25
532.236	40435.1
532.437	41078.16
532.638	40318.36
532.839	40514.97
533.04	40799.63
533.241	40299.93
533.442	41403.78
533.643	40770.96
533.844	40502.68
534.045	40689.04
534.246	40541.59
534.447	41121.16
534.648	40277.4
534.849	40807.83
535.05	40824.21
535.251	40535.45
535.451	40562.07
535.652	41110.92
535.853	40973.71
536.054	40934.8
536.255	41233.8
536.456	40344.98
536.657	41108.88
536.857	40338.84
537.058	40684.95
537.259	41033.1
537.46	40502.68
537.66	40342.94
537.861	40820.11
538.062	40596.88
538.263	40816.02
538.463	40670.61
538.664	40680.85
538.865	40568.21
539.065	40732.05
539.266	40680.85
539.466	40850.83
539.667	40166.81
539.868	41153.93
540.068	40717.71
540.269	40422.81
540.469	40596.88
540.67	40398.23
540.87	40750.48
541.071	40701.33
541.271	40725.91
541.472	40547.73
541.672	40353.18
541.873	40291.74
542.073	40035.74
542.274	41203.08
542.474	40410.52
542.675	40654.23
542.875	40619.41
543.075	40684.95
543.276	40195.48
543.476	40844.69
543.676	40277.4
543.877	40762.77
544.077	40543.64
544.277	40353.18
544.478	40467.86
544.678	40695.19
544.878	40383.9
545.078	40422.81
545.279	40170.91
545.479	40160.67
545.679	40631.7
545.879	40474.01
546.079	40588.69
546.28	40623.51
546.48	40465.81
546.68	40269.21
546.88	40267.16
547.08	40256.92
547.28	40037.79
547.48	40045.98
547.68	40230.3
547.88	40015.26
548.081	40469.91
548.281	40265.11
548.481	40048.03
548.681	40459.67
548.881	40375.7
549.081	40035.74
549.28	39953.82
549.48	40336.79
549.68	39998.88
549.88	40218.01
550.08	40045.98
550.28	40431
550.48	39927.2
550.68	40324.5
550.88	39800.22
551.08	40000.93
551.279	40015.26
551.479	39562.66
551.679	40029.6
551.879	40017.31
552.079	39968.16
552.278	39832.99
552.478	39951.77
552.678	40048.03
552.878	40013.21
553.077	39949.73
553.277	39423.4
553.477	40334.74
553.676	39798.18
553.876	39701.92
554.076	39488.93
554.275	39327.14
554.475	39275.94
554.674	39863.71
554.874	39693.73
555.074	39505.32
555.273	39488.93
555.473	39947.68
555.672	39288.23
555.872	39091.63
556.071	39724.45
556.271	39785.89
556.47	39464.36
556.67	39357.86
556.869	39200.17
557.068	39366.06
557.268	38872.49
557.467	39519.65
557.667	39296.42
557.866	39271.85
558.065	39187.88
558.265	38692.27
558.464	39046.57
558.663	39161.26
558.863	38612.4
559.062	39200.17
559.261	38673.84
559.461	39093.68
559.66	38245.82
559.859	38727.09
560.058	38655.41
560.258	38270.39
560.457	38294.97
560.656	38620.59
560.855	38354.36
561.054	38503.86
561.253	38065.6
561.453	38661.55
561.652	38475.19
561.851	38442.42
562.05	38223.29
562.249	37850.56
562.448	38266.3
562.647	38641.07
562.846	38145.47
563.045	38286.78
563.244	38084.03
563.443	38364.6
563.642	37615.04
563.841	37875.13
564.04	37662.15
564.239	38018.49
564.438	37348.81
564.637	37322.18
564.836	37715.39
565.035	37127.63
565.234	37318.09
565.432	37348.81
565.631	37275.08
565.83	37334.47
566.029	37242.31
566.228	36754.9
566.427	36756.94
566.625	36879.82
566.824	36697.55
567.023	37303.75
567.222	36322.77
567.42	36867.53
567.619	36763.09
567.818	36482.52
568.016	36656.59
568.215	36818.38
568.414	36453.84
568.612	36677.07
568.811	36173.27
569.01	36158.94
569.208	35456.48
569.407	36017.63
569.605	35839.45
569.804	36361.69
570.002	35407.33
570.201	36009.43
570.4	35290.6
570.598	35757.53
570.797	35812.83
570.995	35769.82
571.193	35173.86
571.392	35614.18
571.59	35161.58
571.789	35165.67
571.987	35130.86
572.186	34954.73
572.384	34842.09
572.582	34672.11
572.781	35249.64
572.979	34743.79
573.177	34747.89
573.376	34690.54
573.574	34344.44
573.772	34760.17
573.971	34338.29
574.169	34338.29
574.367	34205.17
574.565	34383.35
574.763	33844.73
574.962	34192.89
575.16	33779.2
575.358	33885.69
575.556	33721.85
575.754	33740.29
575.952	33646.08
576.151	33988.09
576.349	33072.65
576.547	33549.82
576.745	33852.92
576.943	33431.04
577.141	33447.43
577.339	33283.59
577.537	33455.62
577.735	33320.45
577.933	33209.86
578.131	33216.01
578.329	32894.47
578.527	32572.94
578.725	32757.26
578.923	32886.28
579.121	32628.24
579.319	32509.46
579.516	32861.71
579.714	32830.99
579.912	32519.7
580.11	32095.77
580.308	32026.14
580.506	32187.92
580.704	31850.01
580.901	32204.31
581.099	32349.71
581.297	31751.71
581.495	31456.8
581.692	31768.09
581.89	31383.07
582.088	31809.05
582.285	31657.5
582.483	31624.73
582.681	31254.05
582.878	31163.94
583.076	31235.62
583.274	31295.01
583.471	30535.21
583.669	31079.97
583.866	30881.32
584.064	30602.8
584.262	30791.21
584.459	30578.22
584.657	30715.44
584.854	30619.18
585.052	30049.85
585.249	30182.96
585.447	30287.41
585.644	29851.19
585.841	30117.43
586.039	30320.18
586.236	29529.66
586.434	29994.55
586.631	29498.94
586.828	29826.62
587.026	29875.77
587.223	29550.14
587.42	29500.99
587.618	29486.65
587.815	29210.18
588.012	29156.93
588.21	29017.67
588.407	29167.17
588.604	29146.69
588.801	28642.89
588.999	28923.46
589.196	29161.03
589.393	29097.54
589.59	28382.8
589.787	28425.81
589.984	28536.4
590.182	28143.19
590.379	28622.41
590.576	27743.83
590.773	28100.18
590.97	27905.62
591.167	28118.61
591.364	27670.11
591.561	28008.02
591.758	27756.12
591.955	27702.87
592.152	27778.65
592.349	27414.11
592.546	27407.97
592.743	27338.33
592.94	26965.6
593.137	27352.67
593.334	27313.76
593.531	26936.93
593.727	27258.46
593.924	26812.01
594.121	27106.91
594.318	26617.45
594.515	26261.1
594.712	26615.4
594.908	26418.8
595.105	26725.99
595.302	26418.8
595.499	26500.72
595.696	26138.23
595.892	25994.87
596.089	26185.33
596.286	26418.8
596.482	25939.57
596.679	26070.64
596.876	25990.77
597.072	25349.76
597.269	25671.29
597.466	25446.01
597.662	25749.11
597.859	25691.77
598.055	25558.65
598.252	25284.22
598.448	25312.89
598.645	25489.02
598.841	25151.1
599.038	25136.77
599.234	24954.5
599.431	24753.8
599.627	24671.88
599.824	24825.48
600.02	24616.58
600.217	24661.64
600.413	24381.07
600.609	24618.63
600.806	24159.89
601.002	24583.82
601.198	24137.36
601.395	24176.27
601.591	23869.08
601.787	23910.04
601.984	23686.81
602.18	24178.32
602.376	24012.43
602.572	23686.81
602.769	23586.46
602.965	23533.21
603.161	23525.02
603.357	23344.8
603.553	23135.9
603.75	23531.16
603.946	23289.5
604.142	23553.69
604.338	23142.05
604.534	23199.39
604.73	22693.54
604.926	22802.08
605.122	22929.06
605.318	22916.77
605.514	22562.47
605.71	22673.06
605.906	22728.36
606.102	22660.77
606.298	22697.64
606.494	22392.49
606.69	22507.18
606.886	22503.08
607.082	22365.87
607.278	22279.85
607.474	21710.52
607.67	22120.11
607.866	21839.54
608.062	22027.95
608.257	22185.65
608.453	21892.79
608.649	22027.95
608.845	21862.07
609.041	21802.68
609.236	21636.79
609.432	21696.18
609.628	21698.23
609.824	21520.06
610.019	21532.34
610.215	21321.4
610.411	21561.01
610.606	21335.74
610.802	21579.45
610.998	21259.96
611.193	21356.22
611.389	21098.17
611.584	21149.37
611.78	20907.71
611.976	21255.87
612.171	21096.13
612.367	21036.74
612.562	20926.14
612.758	20833.99
612.953	20887.23
613.149	21077.69
613.344	20698.82
613.539	21137.09
613.735	21126.85
613.93	20807.36
614.126	20846.27
614.321	20997.82
614.517	20731.59
614.712	20752.07
614.907	20573.89
615.103	20448.97
615.298	20491.98
615.493	20610.76
615.688	20309.71
615.884	20727.49
616.079	20104.91
616.274	20582.09
616.47	20246.22
616.665	20319.95
616.86	20149.96
617.055	20244.17
617.25	19939.02
617.445	20244.17
617.641	20049.61
617.836	19879.63
618.031	19857.1
618.226	19881.68
618.421	19873.49
618.616	19982.03
618.811	19234.52
619.006	19660.5
619.201	19326.68
619.396	19373.78
619.591	19177.18
619.786	19375.83
619.981	18933.47
620.176	19085.02
620.371	18810.59
620.566	18949.85
620.761	18925.28
620.956	18962.14
621.151	18771.68
621.346	18724.58
621.541	18613.99
621.735	18491.11
621.93	18532.07
622.125	18357.99
622.32	18118.38
622.515	18159.34
622.709	18120.43
622.904	18269.93
623.099	17735.41
623.294	17897.2
623.488	17526.52
623.683	18061.04
623.878	17618.68
624.072	17665.78
624.267	17479.41
624.462	17182.46
624.656	17182.46
624.851	17143.55
625.046	17305.34
625.24	16985.85
625.435	17067.77
625.629	16903.93
625.824	16647.94
626.018	16527.11
626.213	16271.11
626.407	16602.88
626.602	16148.23
626.796	16336.65
626.991	16183.05
627.185	16150.28
627.38	16154.38
627.574	15779.6
627.768	15621.91
627.963	15666.96
628.157	15523.6
628.352	15841.04
628.546	15335.19
628.74	15580.95
628.935	15290.13
629.129	15286.04
629.323	14860.06
629.517	15122.2
629.712	14976.8
629.906	14917.4
630.1	14743.33
630.294	14743.33
630.489	14759.71
630.683	14735.14
630.877	14624.54
631.071	14128.94
631.265	14264.1
631.459	14395.17
631.653	14364.45
631.848	14270.25
632.042	13950.76
632.236	13965.1
632.43	14075.69
632.624	14010.15
632.818	13793.07
633.012	13799.21
633.206	13489.97
633.4	13668.14
633.594	13385.52
633.788	13467.44
633.982	13346.61
634.176	13199.16
634.369	13186.87
634.563	13207.35
634.757	13211.45
634.951	13092.66
635.145	13023.03
635.339	12881.72
635.533	12699.45
635.726	13002.55
635.92	12750.65
636.114	12697.41
636.308	12527.42
636.501	12513.09
636.695	12482.37
636.889	12443.46
637.083	12296
637.276	12138.31
637.47	12357.44
637.664	12064.58
637.857	12091.21
638.051	11917.13
638.244	12062.54
638.438	12056.39
638.632	11906.89
638.825	11773.77
639.019	11536.21
639.212	11626.32
639.406	11411.28
639.599	11493.2
639.793	11685.71
639.986	11085.65
640.18	11538.26
640.373	11312.98
640.567	11116.37
640.76	11276.12
640.954	10936.15
641.147	10872.67
641.34	11095.89
641.534	10956.63
641.727	10975.06
641.92	10905.43
642.114	10704.73
642.307	10807.13
642.5	10540.9
642.694	10467.17
642.887	10489.7
643.08	10557.28
643.273	10309.47
643.467	10301.28
643.66	10483.55
643.853	10258.28
644.046	10008.42
644.239	9936.74
644.432	9914.22
644.626	10229.6
644.819	10030.95
645.012	10022.76
645.205	10219.36
645.398	9873.26
645.591	9971.56
645.784	9734
645.977	9668.46
646.17	9717.61
646.363	9668.46
646.556	9416.56
646.749	9521.01
646.942	9389.94
647.135	9308.02
647.328	9457.52
647.521	9338.74
647.714	9283.44
647.907	9234.29
648.099	8898.42
648.292	9187.19
648.485	9162.61
648.678	8867.7
648.871	8828.79
649.064	8849.27
649.256	9097.08
649.449	8738.68
649.642	8755.07
649.835	8585.08
650.027	8687.48
650.22	8601.47
650.413	8415.1
650.605	8626.04
650.798	8525.69
650.991	8443.78
651.183	8427.39
651.376	8329.09
651.568	8494.97
651.761	8349.57
651.954	8157.06
652.146	8165.25
652.339	8085.38
652.531	8132.48
652.724	7911.3
652.916	7839.62
653.109	8165.25
653.301	7882.63
653.494	8069
653.686	7909.26
653.879	7808.9
654.071	7931.78
654.263	7757.71
654.456	8005.51
654.648	7702.41
654.84	7493.52
655.033	7698.31
655.225	7624.59
655.417	7380.88
655.61	7387.02
655.802	7282.58
655.994	7458.7
656.186	7444.37
656.379	7296.91
656.571	7456.65
656.763	7276.43
656.955	7133.08
657.148	7290.77
657.34	7200.66
657.532	7038.87
657.724	7053.2
657.916	7075.73
658.108	6961.05
658.3	6819.74
658.492	6940.57
658.684	6909.85
658.876	6838.17
659.068	6799.26
659.26	6698.91
659.452	6786.97
659.644	6803.35
659.836	6827.93
660.028	6627.23
660.22	6578.08
660.412	6748.06
660.604	6524.83
660.796	6645.66
660.988	6410.14
661.18	6463.39
661.372	6348.7
661.563	6285.22
661.755	6418.33
661.947	6262.69
662.139	6145.95
662.331	6272.93
662.522	6293.41
662.714	6184.87
662.906	6086.56
663.097	5978.02
663.289	5953.45
663.481	6041.51
663.673	5963.68
663.864	5998.5
664.056	5982.12
664.247	5990.31
664.439	5894.05
664.631	5732.26
664.822	5945.25
665.014	5812.14
665.205	5814.18
665.397	5844.9
665.588	5814.18
665.78	5566.38
665.971	5595.05
666.163	5695.4
666.354	5420.97
666.546	5519.28
666.737	5629.87
666.929	5580.71
667.12	5539.76
667.311	5584.81
667.503	5382.06
667.694	5554.09
667.885	5412.78
668.077	5486.51
668.268	5308.33
668.459	5322.67
668.651	5447.6
668.842	5242.8
669.033	5162.93
669.224	5152.69
669.416	5173.17
669.607	5255.09
669.798	5273.52
669.989	5253.04
670.18	5164.98
670.371	4941.75
670.563	5126.07
670.754	5033.91
670.945	5130.16
671.136	5138.35
671.327	5044.15
671.518	4958.13
671.709	5003.19
671.9	5040.05
672.091	4986.8
672.282	4882.36
672.473	4859.83
672.664	5025.72
672.855	4839.35
673.046	4679.61
673.237	4884.41
673.428	4878.26
673.619	4825.01
673.809	4767.67
674	4691.9
674.191	4810.68
674.382	4605.88
674.573	4640.7
674.764	4636.6
674.954	4583.35
675.145	4536.25
675.336	4419.52
675.527	4558.78
675.717	4448.19
675.908	4462.52
676.099	4511.68
676.289	4566.97
676.48	4468.67
676.671	4470.72
676.861	4495.29
677.052	4513.72
677.243	4394.94
677.433	4552.63
677.624	4358.08
677.814	4276.16
678.005	4435.9
678.195	4444.09
678.386	4296.64
678.576	4134.85
678.767	4448.19
678.957	4214.72
679.148	4265.92
679.338	4206.53
679.529	4263.87
679.719	4216.77
679.909	4351.93
680.1	4188.1
680.29	4298.69
680.481	4095.94
680.671	4233.15
680.861	4218.82
681.052	4157.38
681.242	4214.72
681.432	4050.88
681.622	4190.14
681.813	4071.36
682.003	4081.6
682.193	4198.34
682.383	4114.37
682.573	4077.51
682.764	4009.92
682.954	4048.83
683.144	3991.49
683.334	4173.76
683.524	3977.16
683.714	3960.77
683.904	3856.33
684.094	4040.64
684.284	3962.82
684.474	4028.35
684.664	3999.68
684.854	3844.04
685.044	3831.75
685.234	3870.66
685.424	3880.9
685.614	3864.52
685.804	3768.26
685.994	3733.45
686.184	3807.17
686.374	3747.78
686.564	3760.07
686.753	3725.26
686.943	3596.23
687.133	3686.34
687.323	3782.6
687.513	3633.1
687.702	3727.3
687.892	3702.73
688.082	3690.44
688.272	3696.58
688.461	3549.13
688.651	3653.58
688.841	3575.75
689.03	3483.59
689.22	3549.13
689.41	3381.2
689.599	3590.09
689.789	3588.04
689.979	3336.14
690.168	3448.78
690.358	3387.34
690.547	3276.75
690.737	3260.37
690.926	3262.41
691.116	3223.5
691.305	3373
691.495	3067.86
691.684	3246.03
691.874	3317.71
692.063	3219.41
692.252	3209.17
692.442	3162.06
692.631	3157.97
692.82	3215.31
693.01	3190.74
693.199	3114.96
693.388	3098.58
693.578	3008.47
693.767	3096.53
693.956	3057.62
694.146	3028.95
694.335	2967.51
694.524	2936.79
694.713	3078.1
694.902	2877.4
695.092	2975.7
695.281	2914.26
695.47	2889.68
695.659	2846.68
695.848	2940.88
696.037	2947.03
696.226	2932.69
696.415	2826.2
696.604	2942.93
696.793	2951.12
696.982	2912.21
697.171	2801.62
697.36	2795.48
697.549	2850.77
697.738	2852.82
697.927	2901.97
698.116	2826.2
698.305	2764.76
698.494	2738.13
698.683	2727.89
698.872	2754.52
699.061	2764.76
699.25	2699.22
699.438	2680.79
699.627	2762.71
699.816	2723.8
700.005	2586.58
700.193	2756.57
700.382	2654.17
700.571	2688.98
700.76	2670.55
700.948	2699.22
701.137	2590.68
701.326	2684.89
701.514	2613.21
701.703	2750.42
701.892	2623.45
702.08	2797.53
702.269	2600.92
702.457	2629.59
702.646	2590.68
702.834	2662.36
703.023	2609.11
703.212	2674.65
703.4	2514.91
703.589	2486.23
703.777	2541.53
703.965	2721.75
704.154	2551.77
704.342	2523.1
704.531	2539.48
704.719	2584.54
704.907	2582.49
705.096	2570.2
705.284	2631.64
705.472	2629.59
705.661	2533.34
705.849	2535.39
706.037	2693.08
706.226	2541.53
706.414	2547.67
706.602	2654.17
706.79	2490.33
706.979	2549.72
707.167	2541.53
707.355	2502.62
707.543	2570.2
707.731	2648.02
707.919	2480.09
708.107	2529.24
708.296	2523.1
708.484	2521.05
708.672	2533.34
708.86	2523.1
709.048	2629.59
709.236	2609.11
709.424	2488.28
709.612	2496.47
709.8	2549.72
709.988	2613.21
710.176	2592.73
710.364	2549.72
710.551	2553.82
710.739	2445.27
710.927	2510.81
711.115	2564.06
711.303	2580.44
711.491	2396.12
711.679	2443.23
711.866	2680.79
712.054	2635.74
712.242	2486.23
712.43	2613.21
712.617	2564.06
712.805	2459.61
712.993	2531.29
713.181	2443.23
713.368	2428.89
713.556	2570.2
713.744	2484.19
713.931	2510.81
714.119	2519
714.306	2609.11
714.494	2506.71
714.682	2574.3
714.869	2439.13
715.057	2514.91
715.244	2494.43
715.432	2482.14
715.619	2543.58
715.807	2506.71
715.994	2541.53
716.182	2439.13
716.369	2533.34
716.556	2586.58
716.744	2394.08
716.931	2426.84
717.119	2559.96
717.306	2463.71
717.493	2609.11
717.681	2482.14
717.868	2537.43
718.055	2496.47
718.242	2516.95
718.43	2611.16
718.617	2498.52
718.804	2537.43
718.991	2525.15
719.179	2490.33
719.366	2525.15
719.553	2435.03
719.74	2445.27
719.927	2471.9
720.114	2381.79
720.301	2473.95
720.488	2512.86
720.676	2568.15
720.863	2459.61
721.05	2465.75
721.237	2475.99
721.424	2598.87
721.611	2475.99
721.798	2527.19
721.985	2381.79
722.172	2486.23
722.358	2406.36
722.545	2402.27
722.732	2508.76
722.919	2553.82
723.106	2455.51
723.293	2547.67
723.48	2414.56
723.667	2332.64
723.853	2482.14
724.04	2437.08
724.227	2504.67
724.414	2389.98
724.6	2357.21
724.787	2367.45
724.974	2402.27
725.161	2461.66
725.347	2516.95
725.534	2496.47
725.72	2475.99
725.907	2615.26
726.094	2379.74
726.28	2531.29
726.467	2377.69
726.653	2422.75
726.84	2461.66
727.027	2451.42
727.213	2369.5
727.4	2514.91
727.586	2435.03
727.773	2461.66
727.959	2416.6
728.145	2467.8
728.332	2314.2
728.518	2441.18
728.705	2443.23
728.891	2389.98
729.077	2340.83
729.264	2494.43
729.45	2426.84
729.636	2420.7
729.823	2420.7
730.009	2510.81
730.195	2447.32
730.382	2377.69
730.568	2459.61
730.754	2484.19
730.94	2408.41
731.126	2332.64
731.313	2406.36
731.499	2441.18
731.685	2510.81
731.871	2414.56
732.057	2256.86
732.243	2406.36
732.429	2439.13
732.615	2398.17
732.801	2494.43
732.987	2353.12
733.173	2461.66
733.359	2289.63
733.545	2306.01
733.731	2367.45
733.917	2443.23
734.103	2478.04
734.289	2420.7
734.475	2312.16
734.661	2336.73
734.847	2369.5
735.033	2308.06
735.219	2400.22
735.404	2336.73
735.59	2303.96
735.776	2369.5
735.962	2236.38
736.148	2318.3
736.333	2234.33
736.519	2344.92
736.705	2312.16
736.89	2301.92
737.076	2394.08
737.262	2387.93
737.447	2318.3
737.633	2322.4
737.819	2222.05
738.004	2314.2
738.19	2365.4
738.375	2234.33
738.561	2215.9
738.747	2334.68
738.932	2250.72
739.118	2285.53
739.303	2234.33
739.489	2211.81
739.674	2226.14
739.859	2136.03
740.045	2336.73
740.23	2193.37
740.416	2265.05
740.601	2222.05
740.786	2220
740.972	2181.09
741.157	2324.44
741.342	2252.77
741.528	2138.08
741.713	2103.26
741.898	2115.55
742.084	2213.85
742.269	2154.46
742.454	2240.48
742.639	2224.09
742.824	2115.55
743.01	2088.93
743.195	2168.8
743.38	2074.59
743.565	2019.3
743.75	2043.87
743.935	2062.3
744.12	2047.97
744.305	2023.39
744.49	1988.58
744.675	1990.63
744.86	2045.92
745.045	2045.92
745.23	2041.82
745.415	1996.77
745.6	2070.5
745.785	1972.19
745.97	1941.47
746.155	2027.49
746.34	1984.48
746.525	1906.66
746.71	2078.69
746.895	1910.75
747.079	1933.28
747.264	1843.17
747.449	1892.32
747.634	1912.8
747.819	1918.95
748.003	1763.3
748.188	1804.26
748.373	1949.67
748.557	1863.65
748.742	1832.93
748.927	1738.73
749.111	1767.4
749.296	1714.15
749.481	1632.23
749.665	1804.26
749.85	1673.19
750.034	1820.64
750.219	1722.34
750.404	1626.09
750.588	1562.6
750.773	1642.47
750.957	1685.48
751.141	1621.99
751.326	1671.14
751.51	1673.19
751.695	1619.94
751.879	1673.19
752.064	1617.9
752.248	1599.46
752.432	1634.28
752.617	1576.94
752.801	1566.7
752.985	1540.07
753.17	1624.04
753.354	1495.02
753.538	1589.22
753.722	1480.68
753.907	1468.39
754.091	1497.07
754.275	1452.01
754.459	1447.91
754.643	1511.4
754.828	1415.15
755.012	1425.39
755.196	1452.01
755.38	1380.33
755.564	1384.43
755.748	1421.29
755.932	1437.67
756.116	1349.61
756.3	1382.38
756.484	1370.09
756.668	1320.94
756.852	1257.45
757.036	1275.88
757.22	1359.85
757.404	1398.76
757.588	1282.03
757.772	1253.36
757.956	1296.36
758.14	1296.36
758.323	1275.88
758.507	1232.88
758.691	1159.15
758.875	1288.17
759.059	1157.1
759.242	1204.21
759.426	1136.62
759.61	1257.45
759.794	1251.31
759.977	1196.01
760.161	1185.77
760.345	1136.62
760.528	1275.88
760.712	1130.48
760.895	1153.01
761.079	1173.49
761.263	1185.77
761.446	1087.47
761.63	1140.72
761.813	1064.94
761.997	1124.33
762.18	1218.54
762.364	1114.09
762.547	1064.94
762.731	1107.95
762.914	1042.42
763.098	1009.65
763.281	1028.08
763.464	1073.14
763.648	1042.42
763.831	1075.18
764.015	1091.57
764.198	1112.05
764.381	1105.9
764.564	1142.77
764.748	999.41
764.931	1013.74
765.114	1015.79
765.297	993.26
765.481	954.35
765.664	1034.22
765.847	1034.22
766.03	1052.66
766.213	980.98
766.397	1026.03
766.58	923.63
766.763	886.77
766.946	972.79
767.129	972.79
767.312	964.59
767.495	960.5
767.678	923.63
767.861	954.35
768.044	966.64
768.227	921.59
768.41	956.4
768.593	948.21
768.776	1001.46
768.959	976.88
769.142	923.63
769.324	946.16
769.507	870.39
769.69	915.44
769.873	868.34
770.056	991.22
770.239	833.52
770.421	931.83
770.604	825.33
770.787	833.52
770.97	905.2
771.152	921.59
771.335	849.91
771.518	888.82
771.7	849.91
771.883	804.85
772.066	884.72
772.248	802.8
772.431	925.68
772.613	767.99
772.796	872.43
772.978	774.13
773.161	927.73
773.343	862.19
773.526	806.9
773.708	772.08
773.891	827.38
774.073	686.07
774.256	727.03
774.438	823.28
774.621	770.04
774.803	800.76
774.985	733.17
775.168	884.72
775.35	776.18
775.532	811
775.715	751.6
775.897	722.93
776.079	733.17
776.261	731.12
776.444	706.55
776.626	780.28
776.808	659.45
776.99	684.02
777.173	731.12
777.355	686.07
777.537	743.41
777.719	645.11
777.901	663.54
778.083	811
778.265	622.58
778.447	667.64
778.629	720.88
778.811	710.65
778.993	641.01
779.175	710.65
779.357	600.05
779.539	595.96
779.721	641.01
779.903	600.05
780.085	600.05
780.267	600.05
780.449	638.97
780.631	626.68
780.812	606.2
780.994	604.15
781.176	579.58
781.358	577.53
781.54	583.67
781.721	571.38
781.903	530.42
782.085	538.62
782.267	526.33
782.448	571.38
782.63	518.14
782.812	587.77
782.993	563.19
783.175	520.18
783.357	542.71
783.538	550.9
783.72	546.81
783.901	511.99
784.083	495.61
784.264	491.51
784.446	464.89
784.627	495.61
784.809	540.66
784.99	509.94
785.172	456.7
785.353	497.66
785.535	555
785.716	468.98
785.897	524.28
786.079	434.17
786.26	479.22
786.441	466.94
786.623	483.32
786.804	487.42
786.985	452.6
787.167	419.83
787.348	436.22
787.529	417.79
787.71	456.7
787.891	442.36
788.073	376.83
788.254	477.18
788.435	452.6
788.616	511.99
788.797	403.45
788.978	374.78
789.159	352.25
789.34	385.02
789.522	444.41
789.703	339.96
789.884	385.02
790.065	489.46
790.246	460.79
790.427	403.45
790.607	401.4
790.788	434.17
790.969	425.98
791.15	325.63
791.331	337.91
791.512	329.72
791.693	292.86
791.874	372.73
792.054	376.83
792.235	270.33
792.416	278.52
792.597	315.39
792.778	346.11
792.958	387.07
793.139	346.11
793.32	376.83
793.5	342.01
793.681	442.36
793.862	354.3
794.042	352.25
794.223	274.43
794.404	278.52
794.584	352.25
794.765	323.58
794.945	354.3
795.126	335.87
795.306	313.34
795.487	264.19
795.667	313.34
795.848	358.39
796.028	239.61
796.209	266.24
796.389	307.2
796.57	253.95
796.75	333.82
796.93	317.44
797.111	219.13
797.291	311.29
797.471	245.76
797.652	264.19
797.832	378.87
798.012	245.76
798.192	221.18
798.373	327.67
798.553	313.34
798.733	200.7
798.913	223.23
799.093	288.76
799.274	262.14
799.454	313.34
799.634	276.48
799.814	337.91
799.994	288.76
800.174	249.85
800.354	223.23
800.534	260.09
800.714	299
800.894	251.9
801.074	239.61
801.254	227.32
801.434	294.91
801.614	311.29
801.794	280.57
801.974	591.86
802.154	245.76
802.334	276.48
802.514	292.86
802.693	249.85
802.873	200.7
803.053	237.56
803.233	315.39
803.413	215.04
803.592	178.17
803.772	198.65
803.952	145.41
804.131	202.75
804.311	206.84
804.491	258.04
804.67	155.65
804.85	276.48
805.03	272.38
805.209	198.65
805.389	288.76
805.568	272.38
805.748	139.26
805.928	239.61
806.107	186.37
806.287	167.93
806.466	184.32
806.646	219.13
806.825	155.65
807.004	241.66
807.184	186.37
807.363	264.19
807.543	196.6
807.722	151.55
807.901	131.07
808.081	180.22
808.26	161.79
808.439	262.14
808.619	182.27
808.798	81.92
808.977	262.14
809.156	178.17
809.336	206.84
809.515	204.8
809.694	163.84
809.873	133.12
810.052	137.21
810.231	212.99
810.411	145.41
810.59	133.12
810.769	204.8
810.948	217.08
811.127	139.26
811.306	296.96
811.485	219.13
811.664	188.41
811.843	200.7
812.022	237.56
812.201	204.8
812.38	141.31
812.559	151.55
812.737	167.93
812.916	188.41
813.095	110.59
813.274	141.31
813.453	120.83
813.632	157.69
813.811	215.04
813.989	215.04
814.168	200.7
814.347	139.26
814.526	178.17
814.704	63.49
814.883	223.23
815.062	165.89
815.24	172.03
815.419	122.88
815.598	184.32
815.776	124.93
815.955	141.31
816.133	174.08
816.312	110.59
816.49	141.31
816.669	186.37
816.847	139.26
817.026	151.55
817.204	217.08
817.383	182.27
817.561	96.25
817.74	114.69
817.918	169.98
818.097	98.3
818.275	98.3
818.453	102.4
818.632	141.31
818.81	114.69
818.988	73.73
819.167	129.02
819.345	196.6
819.523	137.21
819.701	139.26
819.879	169.98
820.058	51.2
820.236	75.77
820.414	120.83
820.592	88.06
820.77	165.89
820.948	116.73
821.127	100.35
821.305	116.73
821.483	71.68
821.661	180.22
821.839	149.5
822.017	40.96
822.195	67.58
822.373	102.4
822.551	133.12
822.729	196.6
822.907	147.45
823.085	116.73
823.262	120.83
823.44	100.35
823.618	180.22
823.796	92.16
823.974	100.35
824.152	55.3
824.329	38.91
824.507	161.79
824.685	43.01
824.863	129.02
825.04	116.73
825.218	129.02
825.396	75.77
825.574	106.49
825.751	145.41
825.929	120.83
826.107	98.3
826.284	161.79
826.462	102.4
826.639	67.58
826.817	24.58
826.994	120.83
827.172	65.53
827.349	108.54
827.527	143.36
827.704	120.83
827.882	92.16
828.059	167.93
828.237	141.31
828.414	141.31
828.591	116.73
828.769	155.65
828.946	104.45
829.124	124.93
829.301	67.58
829.478	159.74
829.655	65.53
829.833	75.77
830.01	69.63
830.187	24.58
830.364	51.2
830.542	169.98
830.719	174.08
830.896	83.97
831.073	73.73
831.25	157.69
831.427	63.49
831.604	88.06
831.782	129.02
831.959	73.73
832.136	133.12
832.313	161.79
832.49	-0
832.667	122.88
832.844	57.34
833.021	96.25
833.198	55.3
833.374	49.15
833.551	51.2
833.728	88.06
833.905	133.12
834.082	14.34
834.259	43.01
834.436	96.25
834.612	116.73
834.789	124.93
834.966	32.77
835.143	120.83
835.319	71.68
835.496	167.93
835.673	71.68
835.85	57.34
836.026	12.29
836.203	71.68
836.38	83.97
836.556	100.35
836.733	114.69
836.909	32.77
837.086	65.53
837.262	6.14
837.439	71.68
837.616	45.06
837.792	-24.58
837.968	157.69
838.145	63.49
838.321	53.25
838.498	108.54
838.674	98.3
838.851	67.58
839.027	100.35
839.203	55.3
839.38	133.12
839.556	110.59
839.732	141.31
839.909	32.77
840.085	112.64
840.261	32.77
840.437	75.77
840.614	83.97
840.79	104.45
840.966	-16.38
841.142	10.24
841.318	122.88
841.494	26.62
841.671	32.77
841.847	8.19
842.023	57.34
842.199	16.38
842.375	32.77
842.551	10.24
842.727	67.58
842.903	73.73
843.079	75.77
843.255	67.58
843.431	106.49
843.607	161.79
843.783	94.21
843.959	65.53
844.134	67.58
844.31	63.49
844.486	26.62
844.662	59.39
844.838	24.58
845.013	18.43
845.189	47.1
845.365	43.01
845.541	34.82
845.716	69.63
845.892	57.34
846.068	63.49
846.244	32.77
846.419	57.34
846.595	18.43
846.77	-0
846.946	63.49
847.122	63.49
847.297	-43.01
847.473	92.16
847.648	-16.38
847.824	59.39
847.999	45.06
848.175	47.1
848.35	26.62
848.526	75.77
848.701	14.34
848.876	83.97
849.052	22.53
849.227	-14.34
849.403	34.82
849.578	43.01
849.753	-4.1
849.929	100.35
850.104	32.77
850.279	88.06
850.454	59.39
850.63	10.24
850.805	34.82
850.98	102.4
851.155	-22.53
851.33	24.58
851.505	20.48
851.681	53.25
851.856	49.15
852.031	112.64
852.206	49.15
852.381	49.15
852.556	30.72
852.731	88.06
852.906	28.67
853.081	14.34
853.256	100.35
853.431	83.97
853.606	65.53
853.781	8.19
853.956	77.82
854.131	104.45
854.305	53.25
854.48	43.01
854.655	34.82
854.83	75.77
855.005	-28.67
855.18	51.2
855.354	81.92
855.529	28.67
855.704	-8.19
855.879	2.05
856.053	102.4
856.228	77.82
856.403	67.58
856.577	8.19
856.752	45.06
856.926	34.82
857.101	51.2
857.276	47.1
857.45	49.15
857.625	28.67
857.799	43.01
857.974	24.58
858.148	24.58
858.323	6.14
858.497	34.82
858.672	24.58
858.846	-14.34
859.02	81.92
859.195	-2.05
859.369	12.29
859.543	57.34
859.718	-22.53
859.892	40.96
860.066	75.77
860.241	-8.19
860.415	59.39
860.589	69.63
860.763	34.82
860.938	22.53
861.112	81.92
861.286	-55.3
861.46	96.25
861.634	18.43
861.808	16.38
861.982	8.19
862.157	-12.29
862.331	-16.38
862.505	55.3
862.679	38.91
862.853	-18.43
863.027	43.01
863.201	94.21
863.375	-47.1
863.549	14.34
863.722	38.91
863.896	90.11
864.07	-20.48
864.244	57.34
864.418	55.3
864.592	100.35
864.766	34.82
864.939	18.43
865.113	12.29
865.287	53.25
865.461	-8.19
865.634	8.19
865.808	28.67
865.982	-14.34
866.156	-53.25
866.329	-6.14
866.503	6.14
866.676	24.58
866.85	61.44
867.024	51.2
867.197	12.29
867.371	-32.77
867.544	-30.72
867.718	20.48
867.891	-22.53
868.065	49.15
868.238	49.15
868.412	67.58
868.585	16.38
868.759	16.38
868.932	69.63
869.105	57.34
869.279	22.53
869.452	6.14
869.625	36.86
869.799	77.82
869.972	-0
870.145	-90.11
870.319	10.24
870.492	59.39
870.665	38.91
870.838	-47.1
871.011	49.15
871.185	30.72
871.358	-47.1
871.531	57.34
871.704	-24.58
871.877	45.06
872.05	-51.2
872.223	63.49
872.396	45.06
872.569	96.25
872.742	-71.68
872.915	30.72
873.088	8.19
873.261	65.53
873.434	-40.96
873.607	22.53
873.78	26.62
873.953	63.49
874.126	24.58
874.299	14.34
874.471	-24.58
874.644	4.1
874.817	-14.34
874.99	38.91
875.163	-16.38
875.335	43.01
875.508	-16.38
875.681	59.39
875.853	-12.29
876.026	26.62
876.199	63.49
876.371	24.58
876.544	71.68
876.717	-8.19
876.889	24.58
877.062	10.24
877.234	-57.34
877.407	-24.58
877.579	-14.34
877.752	94.21
877.924	43.01
878.097	43.01
878.269	-16.38
878.442	18.43
878.614	30.72
878.786	-16.38
878.959	-22.53
879.131	-20.48
879.303	-43.01
879.476	26.62
879.648	77.82
879.82	26.62
879.993	63.49
880.165	88.06
880.337	14.34
880.509	4.1
880.681	-63.49
880.854	12.29
881.026	-22.53
881.198	30.72
881.37	-10.24
881.542	-10.24
881.714	-24.58
881.886	-20.48
882.058	59.39
882.23	83.97
882.402	10.24
882.574	38.91
882.746	22.53
882.918	-12.29
883.09	65.53
883.262	22.53
883.434	34.82
883.606	-38.91
883.778	-59.39
883.95	63.49
884.122	-2.05
884.293	16.38
884.465	-65.54
884.637	-14.34
884.809	-71.68
884.98	12.29
885.152	-14.34
885.324	73.73
885.496	16.38
885.667	-55.3
885.839	-0
886.011	49.15
886.182	-2.05
886.354	-32.77
886.525	63.49
886.697	-0
886.869	-18.43
887.04	51.2
887.212	38.91
887.383	-16.38
887.555	30.72
887.726	10.24
887.897	-24.58
888.069	-67.58
888.24	43.01
888.412	2.05
888.583	-18.43
888.754	86.01
888.926	-10.24
889.097	38.91
889.268	-30.72
889.44	-20.48
889.611	-57.34
889.782	-47.1
889.953	8.19
890.125	59.39
890.296	45.06
890.467	-34.82
890.638	36.86
890.809	-40.96
890.98	49.15
891.151	26.62
891.323	-16.38
891.494	4.1
891.665	38.91
891.836	38.91
892.007	34.82
892.178	30.72
892.349	-8.19
892.52	-81.92
892.691	-6.14
892.862	14.34
893.032	-22.53
893.203	-24.58
893.374	-2.05
893.545	16.38
893.716	-71.68
893.887	32.77
894.057	-4.1
894.228	2.05
894.399	-32.77
894.57	32.77
894.74	16.38
894.911	8.19
895.082	-47.1
895.253	34.82
895.423	30.72
895.594	34.82
895.764	-30.72
895.935	53.25
896.106	49.15
896.276	12.29
896.447	55.3
896.617	-86.01
896.788	-2.05
896.958	-26.62
897.129	-38.91
897.299	34.82
897.47	-14.34
897.64	34.82
897.81	-14.34
897.981	-20.48
898.151	81.92
898.322	-63.49
898.492	-2.05
898.662	14.34
898.832	-20.48
899.003	-59.39
899.173	-28.67
899.343	-12.29
899.513	16.38
