Data from USB4F104151__23__11-36-34-727.txt Node

Date: Fri Mar 14 11:36:34 EDT 2025
User: louis
Spectrometer: USB4F10415
Trigger mode: 4
Integration Time (sec): 2.000000E-2
Scans to average: 1
Electric dark correction enabled: true
Nonlinearity correction enabled: false
Boxcar width: 0
XAxis mode: Wavelengths
Number of Pixels in Spectrum: 3648
>>>>>Begin Spectral Data<<<<<
178.204	-61.44
178.424	-61.44
178.644	-61.44
178.864	-61.44
179.084	-38.91
179.304	73.73
179.524	8.19
179.744	-12.29
179.964	75.77
180.184	20.48
180.404	-69.63
180.624	-20.48
180.844	45.06
181.064	-40.96
181.283	-30.72
181.503	-53.25
181.723	4.1
181.943	-14.34
182.163	45.06
182.383	10.24
182.602	-6.14
182.822	-8.19
183.042	40.96
183.262	-16.38
183.482	18.43
183.701	-20.48
183.921	2.05
184.141	18.43
184.361	43.01
184.58	86.01
184.8	16.38
185.02	55.3
185.239	88.06
185.459	26.62
185.679	57.34
185.898	75.77
186.118	8.19
186.338	45.06
186.557	69.63
186.777	55.3
186.997	-24.58
187.216	26.62
187.436	57.34
187.655	65.53
187.875	32.77
188.095	90.11
188.314	122.88
188.534	-8.19
188.753	-6.14
188.973	43.01
189.192	40.96
189.412	26.62
189.631	81.92
189.851	83.97
190.07	88.06
190.29	28.67
190.509	-34.82
190.729	59.39
190.948	120.83
191.168	45.06
191.387	59.39
191.607	26.62
191.826	2.05
192.045	75.77
192.265	-20.48
192.484	6.14
192.704	28.67
192.923	92.16
193.142	43.01
193.362	45.06
193.581	65.53
193.8	65.53
194.02	53.25
194.239	-2.05
194.458	-24.58
194.678	-12.29
194.897	90.11
195.116	47.1
195.335	-16.38
195.555	-10.24
195.774	-18.43
195.993	133.12
196.212	-4.1
196.432	-32.77
196.651	77.82
196.87	-8.19
197.089	153.6
197.308	26.62
197.528	30.72
197.747	12.29
197.966	-55.3
198.185	86.01
198.404	2.05
198.623	26.62
198.842	73.73
199.062	124.93
199.281	151.55
199.5	-28.67
199.719	65.53
199.938	94.21
200.157	73.73
200.376	81.92
200.595	94.21
200.814	73.73
201.033	6.14
201.252	98.3
201.471	98.3
201.69	4.1
201.909	61.44
202.128	49.15
202.347	59.39
202.566	81.92
202.785	30.72
203.004	65.53
203.223	81.92
203.442	38.91
203.661	8.19
203.879	57.34
204.098	65.53
204.317	65.53
204.536	45.06
204.755	8.19
204.974	75.77
205.193	16.38
205.411	102.4
205.63	106.49
205.849	88.06
206.068	2.05
206.287	63.49
206.505	65.53
206.724	20.48
206.943	-51.2
207.162	57.34
207.381	40.96
207.599	24.58
207.818	45.06
208.037	6.14
208.255	73.73
208.474	108.54
208.693	36.86
208.911	77.82
209.13	-10.24
209.349	49.15
209.567	47.1
209.786	26.62
210.005	8.19
210.223	67.58
210.442	10.24
210.661	45.06
210.879	-22.53
211.098	16.38
211.316	69.63
211.535	65.53
211.753	43.01
211.972	53.25
212.191	-53.25
212.409	6.14
212.628	28.67
212.846	59.39
213.065	53.25
213.283	10.24
213.502	51.2
213.72	45.06
213.938	90.11
214.157	57.34
214.375	16.38
214.594	4.1
214.812	-12.29
215.031	6.14
215.249	69.63
215.467	106.49
215.686	24.58
215.904	88.06
216.122	126.97
216.341	10.24
216.559	26.62
216.778	81.92
216.996	67.58
217.214	-28.67
217.432	77.82
217.651	83.97
217.869	6.14
218.087	12.29
218.306	98.3
218.524	57.34
218.742	57.34
218.96	75.77
219.179	28.67
219.397	40.96
219.615	22.53
219.833	77.82
220.051	53.25
220.27	20.48
220.488	8.19
220.706	36.86
220.924	40.96
221.142	26.62
221.36	43.01
221.578	45.06
221.796	61.44
222.015	110.59
222.233	28.67
222.451	108.54
222.669	-26.62
222.887	67.58
223.105	10.24
223.323	45.06
223.541	12.29
223.759	-34.82
223.977	75.77
224.195	110.59
224.413	18.43
224.631	-2.05
224.849	57.34
225.067	159.74
225.285	47.1
225.503	28.67
225.721	38.91
225.939	45.06
226.157	16.38
226.375	135.17
226.592	-0
226.81	-40.96
227.028	45.06
227.246	77.82
227.464	36.86
227.682	53.25
227.9	98.3
228.117	4.1
228.335	-12.29
228.553	-4.1
228.771	61.44
228.989	-16.38
229.206	75.77
229.424	28.67
229.642	57.34
229.86	96.25
230.077	57.34
230.295	36.86
230.513	18.43
230.731	22.53
230.948	104.45
231.166	-14.34
231.384	32.77
231.601	18.43
231.819	34.82
232.037	14.34
232.254	-49.15
232.472	61.44
232.689	96.25
232.907	28.67
233.125	51.2
233.342	18.43
233.56	22.53
233.777	-24.58
233.995	57.34
234.213	55.3
234.43	28.67
234.648	55.3
234.865	110.59
235.083	75.77
235.3	61.44
235.518	96.25
235.735	79.87
235.953	40.96
236.17	34.82
236.388	36.86
236.605	26.62
236.822	51.2
237.04	-40.96
237.257	59.39
237.475	98.3
237.692	53.25
237.909	-2.05
238.127	75.77
238.344	49.15
238.562	77.82
238.779	55.3
238.996	-8.19
239.214	108.54
239.431	65.53
239.648	40.96
239.865	131.07
240.083	65.53
240.3	28.67
240.517	77.82
240.735	61.44
240.952	102.4
241.169	71.68
241.386	55.3
241.603	22.53
241.821	20.48
242.038	53.25
242.255	51.2
242.472	69.63
242.689	53.25
242.907	10.24
243.124	61.44
243.341	12.29
243.558	-43.01
243.775	-32.77
243.992	63.49
244.209	57.34
244.426	77.82
244.643	124.93
244.86	43.01
245.078	106.49
245.295	30.72
245.512	55.3
245.729	4.1
245.946	40.96
246.163	36.86
246.38	-0
246.597	22.53
246.814	67.58
247.031	16.38
247.248	26.62
247.464	73.73
247.681	86.01
247.898	-0
248.115	92.16
248.332	14.34
248.549	65.53
248.766	83.97
248.983	110.59
249.2	61.44
249.417	4.1
249.633	-4.1
249.85	28.67
250.067	47.1
250.284	47.1
250.501	118.78
250.717	83.97
250.934	45.06
251.151	8.19
251.368	24.58
251.585	-20.48
251.801	53.25
252.018	22.53
252.235	12.29
252.451	36.86
252.668	18.43
252.885	108.54
253.102	8.19
253.318	77.82
253.535	-18.43
253.752	124.93
253.968	90.11
254.185	-10.24
254.401	71.68
254.618	14.34
254.835	61.44
255.051	57.34
255.268	73.73
255.484	75.77
255.701	-4.1
255.917	36.86
256.134	32.77
256.351	38.91
256.567	34.82
256.784	55.3
257	2.05
257.217	81.92
257.433	-22.53
257.65	36.86
257.866	75.77
258.082	-6.14
258.299	20.48
258.515	69.63
258.732	-36.86
258.948	34.82
259.165	-0
259.381	36.86
259.597	86.01
259.814	28.67
260.03	-10.24
260.246	102.4
260.463	55.3
260.679	28.67
260.895	-28.67
261.112	-14.34
261.328	53.25
261.544	67.58
261.761	59.39
261.977	4.1
262.193	77.82
262.409	28.67
262.626	2.05
262.842	10.24
263.058	81.92
263.274	28.67
263.49	10.24
263.707	155.65
263.923	126.97
264.139	6.14
264.355	98.3
264.571	174.08
264.787	-36.86
265.004	-73.73
265.22	10.24
265.436	28.67
265.652	16.38
265.868	51.2
266.084	59.39
266.3	28.67
266.516	45.06
266.732	63.49
266.948	63.49
267.164	114.69
267.38	55.3
267.596	65.53
267.812	38.91
268.028	73.73
268.244	53.25
268.46	18.43
268.676	-8.19
268.892	86.01
269.108	73.73
269.324	94.21
269.54	-6.14
269.756	94.21
269.972	81.92
270.188	26.62
270.403	-10.24
270.619	36.86
270.835	81.92
271.051	24.58
271.267	32.77
271.483	59.39
271.698	83.97
271.914	73.73
272.13	-59.39
272.346	36.86
272.562	10.24
272.777	77.82
272.993	-24.58
273.209	-2.05
273.425	61.44
273.64	59.39
273.856	20.48
274.072	16.38
274.287	36.86
274.503	86.01
274.719	16.38
274.934	-6.14
275.15	-2.05
275.366	-6.14
275.581	36.86
275.797	-24.58
276.012	69.63
276.228	57.34
276.444	75.77
276.659	55.3
276.875	110.59
277.09	34.82
277.306	40.96
277.521	88.06
277.737	6.14
277.952	-30.72
278.168	92.16
278.383	20.48
278.599	20.48
278.814	90.11
279.03	59.39
279.245	61.44
279.461	6.14
279.676	49.15
279.892	43.01
280.107	43.01
280.322	-81.92
280.538	43.01
280.753	51.2
280.969	8.19
281.184	81.92
281.399	57.34
281.615	6.14
281.83	77.82
282.045	57.34
282.26	77.82
282.476	-0
282.691	51.2
282.906	10.24
283.122	110.59
283.337	10.24
283.552	86.01
283.767	4.1
283.983	65.53
284.198	34.82
284.413	79.87
284.628	14.34
284.843	159.74
285.058	-18.43
285.274	26.62
285.489	16.38
285.704	-10.24
285.919	116.73
286.134	8.19
286.349	81.92
286.564	43.01
286.779	57.34
286.995	32.77
287.21	14.34
287.425	53.25
287.64	51.2
287.855	30.72
288.07	55.3
288.285	-4.1
288.5	12.29
288.715	96.25
288.93	16.38
289.145	36.86
289.36	38.91
289.575	65.53
289.79	79.87
290.004	83.97
290.219	102.4
290.434	-28.67
290.649	102.4
290.864	-26.62
291.079	77.82
291.294	36.86
291.509	47.1
291.724	-16.38
291.938	-40.96
292.153	43.01
292.368	116.73
292.583	45.06
292.798	75.77
293.012	43.01
293.227	94.21
293.442	67.58
293.657	77.82
293.871	83.97
294.086	92.16
294.301	71.68
294.516	24.58
294.73	75.77
294.945	-94.21
295.16	-4.1
295.374	120.83
295.589	38.91
295.804	34.82
296.018	-8.19
296.233	65.53
296.447	57.34
296.662	16.38
296.877	61.44
297.091	22.53
297.306	28.67
297.52	86.01
297.735	53.25
297.949	65.53
298.164	30.72
298.378	10.24
298.593	18.43
298.807	45.06
299.022	-20.48
299.236	-22.53
299.451	18.43
299.665	2.05
299.88	108.54
300.094	6.14
300.309	10.24
300.523	12.29
300.737	-2.05
300.952	69.63
301.166	36.86
301.381	-22.53
301.595	61.44
301.809	61.44
302.024	71.68
302.238	120.83
302.452	38.91
302.667	83.97
302.881	32.77
303.095	69.63
303.309	14.34
303.524	61.44
303.738	81.92
303.952	94.21
304.166	98.3
304.381	-0
304.595	77.82
304.809	43.01
305.023	28.67
305.237	28.67
305.452	75.77
305.666	-10.24
305.88	77.82
306.094	-12.29
306.308	34.82
306.522	100.35
306.736	69.63
306.95	59.39
307.164	100.35
307.379	55.3
307.593	100.35
307.807	63.49
308.021	16.38
308.235	151.55
308.449	49.15
308.663	61.44
308.877	75.77
309.091	4.1
309.305	-0
309.519	18.43
309.733	53.25
309.947	2.05
310.161	26.62
310.374	40.96
310.588	83.97
310.802	-36.86
311.016	-8.19
311.23	4.1
311.444	77.82
311.658	65.53
311.872	102.4
312.085	22.53
312.299	22.53
312.513	12.29
312.727	-16.38
312.941	36.86
313.154	45.06
313.368	110.59
313.582	-0
313.796	90.11
314.009	-8.19
314.223	26.62
314.437	20.48
314.651	71.68
314.864	34.82
315.078	-14.34
315.292	-0
315.505	69.63
315.719	40.96
315.933	22.53
316.146	2.05
316.36	2.05
316.573	32.77
316.787	36.86
317.001	16.38
317.214	24.58
317.428	6.14
317.641	28.67
317.855	55.3
318.068	45.06
318.282	47.1
318.495	69.63
318.709	59.39
318.922	53.25
319.136	94.21
319.349	47.1
319.563	86.01
319.776	-16.38
319.99	-16.38
320.203	28.67
320.417	36.86
320.63	96.25
320.843	90.11
321.057	32.77
321.27	24.58
321.483	122.88
321.697	69.63
321.91	-18.43
322.124	75.77
322.337	32.77
322.55	88.06
322.763	51.2
322.977	55.3
323.19	34.82
323.403	36.86
323.617	-28.67
323.83	20.48
324.043	65.53
324.256	12.29
324.469	40.96
324.683	96.25
324.896	2.05
325.109	38.91
325.322	-43.01
325.535	49.15
325.748	-30.72
325.962	34.82
326.175	73.73
326.388	53.25
326.601	14.34
326.814	-2.05
327.027	24.58
327.24	94.21
327.453	100.35
327.666	59.39
327.879	24.58
328.092	122.88
328.305	36.86
328.518	47.1
328.731	20.48
328.944	86.01
329.157	75.77
329.37	49.15
329.583	92.16
329.796	108.54
330.009	-0
330.222	102.4
330.435	96.25
330.648	40.96
330.861	163.84
331.073	34.82
331.286	36.86
331.499	63.49
331.712	10.24
331.925	77.82
332.138	106.49
332.35	98.3
332.563	22.53
332.776	98.3
332.989	-6.14
333.202	45.06
333.414	26.62
333.627	79.87
333.84	65.53
334.053	110.59
334.265	-0
334.478	14.34
334.691	49.15
334.903	98.3
335.116	61.44
335.329	34.82
335.541	71.68
335.754	118.78
335.966	104.45
336.179	36.86
336.392	-53.25
336.604	88.06
336.817	57.34
337.029	53.25
337.242	32.77
337.454	34.82
337.667	4.1
337.88	126.97
338.092	118.78
338.305	55.3
338.517	73.73
338.729	96.25
338.942	57.34
339.154	16.38
339.367	-24.58
339.579	75.77
339.792	22.53
340.004	22.53
340.217	69.63
340.429	20.48
340.641	-32.77
340.854	30.72
341.066	83.97
341.278	71.68
341.491	18.43
341.703	83.97
341.915	53.25
342.128	73.73
342.34	79.87
342.552	90.11
342.764	36.86
342.977	51.2
343.189	77.82
343.401	77.82
343.613	43.01
343.826	47.1
344.038	26.62
344.25	102.4
344.462	81.92
344.674	94.21
344.886	36.86
345.099	102.4
345.311	4.1
345.523	67.58
345.735	53.25
345.947	110.59
346.159	90.11
346.371	43.01
346.583	108.54
346.795	131.07
347.007	106.49
347.219	135.17
347.431	32.77
347.643	61.44
347.855	61.44
348.067	83.97
348.279	77.82
348.491	79.87
348.703	83.97
348.915	-0
349.127	-2.05
349.339	118.78
349.551	67.58
349.763	14.34
349.975	30.72
350.187	61.44
350.399	4.1
350.61	51.2
350.822	81.92
351.034	32.77
351.246	36.86
351.458	98.3
351.669	98.3
351.881	79.87
352.093	28.67
352.305	14.34
352.517	-34.82
352.728	131.07
352.94	20.48
353.152	22.53
353.363	-12.29
353.575	61.44
353.787	75.77
353.999	79.87
354.21	116.73
354.422	8.19
354.633	75.77
354.845	53.25
355.057	40.96
355.268	69.63
355.48	190.46
355.692	71.68
355.903	71.68
356.115	75.77
356.326	69.63
356.538	67.58
356.749	137.21
356.961	96.25
357.172	106.49
357.384	4.1
357.595	120.83
357.807	-8.19
358.018	20.48
358.23	161.79
358.441	86.01
358.653	94.21
358.864	57.34
359.075	24.58
359.287	75.77
359.498	90.11
359.709	102.4
359.921	65.53
360.132	65.53
360.344	61.44
360.555	10.24
360.766	57.34
360.977	4.1
361.189	77.82
361.4	79.87
361.611	-2.05
361.823	45.06
362.034	106.49
362.245	28.67
362.456	36.86
362.667	53.25
362.879	49.15
363.09	110.59
363.301	92.16
363.512	108.54
363.723	36.86
363.935	18.43
364.146	61.44
364.357	36.86
364.568	73.73
364.779	10.24
364.99	102.4
365.201	28.67
365.412	57.34
365.623	40.96
365.834	86.01
366.045	24.58
366.256	108.54
366.467	34.82
366.678	57.34
366.889	22.53
367.1	26.62
367.311	86.01
367.522	30.72
367.733	155.65
367.944	92.16
368.155	67.58
368.366	34.82
368.577	45.06
368.788	79.87
368.999	-14.34
369.209	59.39
369.42	176.13
369.631	65.53
369.842	55.3
370.053	28.67
370.264	69.63
370.474	90.11
370.685	69.63
370.896	6.14
371.107	18.43
371.317	104.45
371.528	61.44
371.739	10.24
371.95	81.92
372.16	16.38
372.371	4.1
372.582	114.69
372.792	102.4
373.003	61.44
373.214	36.86
373.424	55.3
373.635	12.29
373.846	73.73
374.056	53.25
374.267	112.64
374.477	94.21
374.688	43.01
374.898	118.78
375.109	65.53
375.319	81.92
375.53	92.16
375.74	126.97
375.951	98.3
376.161	20.48
376.372	71.68
376.582	43.01
376.793	47.1
377.003	65.53
377.214	28.67
377.424	63.49
377.635	102.4
377.845	61.44
378.055	71.68
378.266	83.97
378.476	71.68
378.686	77.82
378.897	69.63
379.107	126.97
379.317	86.01
379.528	92.16
379.738	63.49
379.948	34.82
380.158	124.93
380.369	28.67
380.579	108.54
380.789	81.92
380.999	4.1
381.21	108.54
381.42	71.68
381.63	16.38
381.84	110.59
382.05	36.86
382.261	88.06
382.471	86.01
382.681	67.58
382.891	122.88
383.101	55.3
383.311	112.64
383.521	45.06
383.731	40.96
383.941	137.21
384.151	114.69
384.361	40.96
384.571	55.3
384.781	143.36
384.991	94.21
385.201	81.92
385.411	-24.58
385.621	20.48
385.831	6.14
386.041	124.93
386.251	65.53
386.461	32.77
386.671	32.77
386.881	90.11
387.091	49.15
387.301	114.69
387.511	32.77
387.72	114.69
387.93	86.01
388.14	47.1
388.35	69.63
388.56	120.83
388.769	65.53
388.979	108.54
389.189	30.72
389.399	83.97
389.609	114.69
389.818	98.3
390.028	71.68
390.238	32.77
390.447	47.1
390.657	79.87
390.867	90.11
391.076	34.82
391.286	57.34
391.496	59.39
391.705	47.1
391.915	104.45
392.125	32.77
392.334	81.92
392.544	159.74
392.753	75.77
392.963	83.97
393.172	110.59
393.382	53.25
393.591	67.58
393.801	122.88
394.01	116.73
394.22	96.25
394.429	40.96
394.639	77.82
394.848	77.82
395.058	32.77
395.267	147.45
395.477	83.97
395.686	83.97
395.895	129.02
396.105	172.03
396.314	86.01
396.524	92.16
396.733	36.86
396.942	126.97
397.152	106.49
397.361	133.12
397.57	32.77
397.78	112.64
397.989	67.58
398.198	143.36
398.407	77.82
398.617	165.89
398.826	88.06
399.035	147.45
399.244	81.92
399.453	118.78
399.663	126.97
399.872	67.58
400.081	38.91
400.29	184.32
400.499	102.4
400.708	61.44
400.917	149.5
401.127	86.01
401.336	139.26
401.545	217.08
401.754	102.4
401.963	186.37
402.172	155.65
402.381	135.17
402.59	122.88
402.799	155.65
403.008	190.46
403.217	196.6
403.426	135.17
403.635	159.74
403.844	186.37
404.053	92.16
404.262	92.16
404.471	157.69
404.68	169.98
404.888	110.59
405.097	137.21
405.306	159.74
405.515	155.65
405.724	192.51
405.933	256
406.142	200.7
406.35	208.89
406.559	198.65
406.768	245.76
406.977	247.8
407.185	221.18
407.394	270.33
407.603	245.76
407.812	174.08
408.02	317.44
408.229	335.87
408.438	221.18
408.646	249.85
408.855	264.19
409.064	348.15
409.272	294.91
409.481	374.78
409.69	337.91
409.898	307.2
410.107	417.79
410.315	303.1
410.524	339.96
410.733	358.39
410.941	309.24
411.15	401.4
411.358	438.27
411.567	452.6
411.775	352.25
411.984	475.13
412.192	415.74
412.401	444.41
412.609	530.42
412.818	522.23
413.026	485.37
413.234	538.62
413.443	567.29
413.651	524.28
413.86	628.73
414.068	675.83
414.276	630.77
414.485	657.4
414.693	673.78
414.901	681.97
415.11	727.03
415.318	757.75
415.526	755.7
415.734	767.99
415.943	811
416.151	897.01
416.359	827.38
416.567	843.76
416.776	892.91
416.984	923.63
417.192	978.93
417.4	1011.7
417.608	958.45
417.817	1044.46
418.025	1167.34
418.233	1257.45
418.441	1159.15
418.649	1216.49
418.857	1433.58
419.065	1288.17
419.273	1335.28
419.481	1316.84
419.689	1409
419.897	1490.92
420.105	1658.85
420.313	1589.22
420.521	1746.92
420.729	1642.47
420.937	1738.73
421.145	1802.21
421.353	1894.37
421.561	1994.72
421.769	2025.44
421.977	2230.24
422.185	2074.59
422.393	2277.34
422.601	2285.53
422.809	2359.26
423.017	2492.38
423.224	2363.36
423.432	2623.45
423.64	2531.29
423.848	2815.96
424.056	2752.47
424.263	3006.42
424.471	2947.03
424.679	3018.71
424.887	3153.87
425.094	3198.93
425.302	3280.85
425.51	3319.76
425.718	3348.43
425.925	3538.89
426.133	3669.96
426.341	3964.87
426.548	4095.94
426.756	3983.3
426.964	4169.66
427.171	4163.52
427.379	4388.8
427.586	4521.91
427.794	4396.99
428.001	4757.43
428.209	5173.17
428.417	5148.59
428.624	5384.11
428.832	5341.1
429.039	5242.8
429.247	5478.32
429.454	5779.37
429.662	6223.78
429.869	5805.99
430.076	6225.82
430.284	6016.93
430.491	6256.54
430.699	6705.05
430.906	6553.5
431.114	6829.98
431.321	7167.89
431.528	7214.99
431.736	7616.4
431.943	7903.11
432.15	7612.3
432.358	7714.7
432.565	8316.8
432.772	8370.05
432.979	8556.41
433.187	8863.61
433.394	8742.78
433.601	9258.87
433.808	9338.74
434.016	9404.27
434.223	9768.81
434.43	10178.4
434.637	10192.74
434.844	10817.37
435.052	11063.13
435.259	10841.95
435.466	10747.74
435.673	10940.25
435.88	11720.53
436.087	12273.48
436.294	12357.44
436.501	12058.44
436.708	12369.73
436.915	12762.94
437.122	13164.34
437.329	13281.08
437.537	13479.73
437.743	13721.39
437.95	13616.94
438.157	14327.59
438.364	14894.88
438.571	14960.41
438.778	14962.46
438.985	16293.64
439.192	15755.02
439.399	16250.63
439.606	15628.05
439.813	16795.39
440.02	17743.6
440.227	17274.62
440.433	17219.32
440.64	17934.06
440.847	17473.27
441.054	18110.19
441.261	19488.47
441.467	19209.95
441.674	19408.6
441.881	20385.48
442.088	20111.05
442.294	19701.46
442.501	20285.13
442.708	20942.53
442.914	21882.55
443.121	22566.57
443.328	22122.16
443.534	23512.73
443.741	22881.95
443.948	22671.01
444.154	24116.88
444.361	23850.64
444.568	24448.65
444.774	24309.39
444.981	24530.57
445.187	24997.51
445.394	26234.48
445.6	25736.82
445.807	28532.3
446.013	26992.23
446.22	27874.9
446.426	28855.88
446.633	29118.02
446.839	30486.06
447.046	28843.59
447.252	30178.87
447.459	30742.06
447.665	30283.31
447.871	31841.82
448.078	33064.46
448.284	31501.86
448.491	32695.82
448.697	33562.11
448.903	34313.72
449.11	34135.54
449.316	33789.44
449.522	34422.26
449.728	35306.98
449.935	35583.46
450.141	35429.86
450.347	36335.06
450.553	35268.07
450.76	35362.28
450.966	36613.59
451.172	36582.87
451.378	37043.66
451.584	36720.08
451.791	37217.74
451.997	37371.33
452.203	38139.32
452.409	37762.5
452.615	37512.64
452.821	36081.11
453.027	35538.4
453.233	37623.23
453.44	36310.49
453.646	36933.07
453.852	37027.27
454.058	37168.58
454.264	36599.25
454.47	37002.7
454.676	36011.48
454.882	37551.55
455.088	34012.66
455.294	34526.71
455.5	35079.66
455.705	35749.34
455.911	33924.6
456.117	33527.3
456.323	32826.89
456.529	31170.08
456.735	32613.9
456.941	31634.97
457.147	31137.32
457.352	30234.16
457.558	30021.17
457.764	30074.42
457.97	29472.32
458.176	28931.65
458.381	28812.87
458.587	27319.9
458.793	27508.32
458.999	25796.21
459.204	27840.09
459.41	26846.82
459.616	25378.43
459.821	25239.17
460.027	25312.89
460.233	24815.24
460.438	23240.35
460.644	23817.88
460.85	22757.03
461.055	22484.65
461.261	22091.44
461.466	20643.52
461.672	19893.97
461.878	21223.1
462.083	19828.43
462.289	19654.36
462.494	19240.67
462.7	18433.77
462.905	18015.98
463.111	18767.59
463.316	18902.75
463.522	18562.79
463.727	18390.76
463.932	18126.57
464.138	18198.25
464.343	18231.02
464.549	17657.59
464.754	18161.39
464.959	18188.01
465.165	17841.9
465.37	17245.94
465.575	16742.14
465.781	17393.4
465.986	17561.33
466.191	16826.11
466.397	16742.14
466.602	15669.01
466.807	16502.53
467.012	16553.73
467.218	16406.28
467.423	16281.35
467.628	15970.06
467.833	16793.34
468.038	15994.64
468.244	15728.4
468.449	16410.37
468.654	15861.52
468.859	15857.42
469.064	15658.77
469.269	14757.66
469.474	15208.22
469.679	15398.68
469.885	15044.38
470.09	15132.44
470.295	15060.76
470.5	14868.25
470.705	14923.55
470.91	14606.11
471.115	14145.32
471.32	14659.36
471.525	14571.3
471.73	14245.67
471.935	14016.3
472.139	13758.25
472.344	13641.52
472.549	13698.86
472.754	13543.22
472.959	13027.13
473.164	12771.13
473.369	12853.05
473.574	13436.72
473.778	13045.56
473.983	12975.93
474.188	12756.8
474.393	12386.11
474.598	12461.89
474.802	12115.78
475.007	12371.78
475.212	12214.09
475.417	11812.68
475.621	11757.39
475.826	11923.27
476.031	11485.01
476.235	11417.43
476.44	11423.57
476.645	11282.26
476.849	11411.28
477.054	11194.2
477.259	11149.14
477.463	11056.98
477.668	10723.16
477.872	10942.3
478.077	10608.48
478.282	10526.56
478.486	10358.63
478.691	10450.78
478.895	10227.56
479.1	10282.85
479.304	10342.24
479.509	9887.59
479.713	9881.45
479.918	9822.06
480.122	9826.15
480.326	9963.37
480.531	9815.91
480.735	9721.71
480.94	9664.36
481.144	9989.99
481.348	9445.23
481.553	9783.15
481.757	9510.77
481.961	9369.46
482.166	9723.76
482.37	9412.46
482.574	9320.31
482.778	9498.48
482.983	9715.56
483.187	9439.09
483.391	9357.17
483.595	9461.62
483.8	9166.71
484.004	9359.22
484.208	9455.47
484.412	9426.8
484.616	9418.61
484.821	9551.73
485.025	9191.28
485.229	9582.45
485.433	9371.5
485.637	9426.8
485.841	9240.43
486.045	9303.92
486.249	9488.24
486.453	9514.86
486.657	9494.38
486.861	9310.07
487.065	9138.04
487.269	9371.5
487.473	9125.75
487.677	9400.18
487.881	9475.95
488.085	9504.62
488.289	9490.29
488.493	9279.35
488.697	9557.87
488.901	9424.75
489.105	9461.62
489.309	9533.29
489.512	9555.82
489.716	9576.3
489.92	9715.56
490.124	9365.36
490.328	9596.78
490.531	9523.05
490.735	9555.82
490.939	9654.12
491.143	9670.51
491.346	9604.97
491.55	9807.72
491.754	9789.29
491.958	9881.45
492.161	9846.63
492.365	9924.46
492.569	9912.17
492.772	9783.15
492.976	10106.73
493.18	10301.28
493.383	10094.44
493.587	9963.37
493.79	10350.43
493.994	10295.14
494.197	10366.82
494.401	10389.35
494.605	10356.58
494.808	10800.99
495.012	10751.84
495.215	10608.48
495.419	10757.98
495.622	10694.49
495.825	11040.6
496.029	10823.51
496.232	11059.03
496.436	11061.08
496.639	11468.62
496.843	11339.6
497.046	11519.82
497.249	11528.02
497.453	11556.69
497.656	11794.25
497.859	11786.06
498.063	11919.18
498.266	12228.42
498.469	12109.64
498.673	12439.36
498.876	12535.62
499.079	12570.43
499.282	12357.44
499.485	12709.69
499.689	12898.11
499.892	12939.07
500.095	13150.01
500.298	13356.85
500.501	13319.99
500.705	13776.69
500.908	13848.36
501.111	13782.83
501.314	13946.67
501.517	14262.05
501.72	14606.11
501.923	14360.36
502.126	14741.28
502.329	14841.63
502.532	15066.91
502.735	15193.88
502.938	15228.7
503.141	15370.01
503.344	15716.11
503.547	15703.82
503.75	15800.08
503.953	16068.36
504.156	16209.67
504.359	16291.59
504.562	16285.45
504.765	16738.05
504.968	16916.22
505.17	17194.75
505.373	16992
505.576	17303.29
505.779	17452.79
505.982	17731.31
506.185	18046.7
506.387	18177.77
506.59	18085.61
506.793	18360.04
506.996	18554.6
507.198	19189.47
507.401	18824.93
507.604	19009.25
507.807	19443.42
508.009	19650.26
508.212	19592.92
508.415	19994.32
508.617	19904.21
508.82	20221.64
509.022	20229.84
509.225	20563.65
509.428	20782.79
509.63	21067.45
509.833	21286.59
510.035	21876.4
510.238	21466.81
510.44	21952.18
510.643	22081.2
510.845	22126.25
511.048	22068.91
511.25	22533.8
511.453	22394.54
511.655	23625.37
511.858	23006.88
512.06	23105.18
512.262	23264.92
512.465	23785.11
512.667	24104.59
512.87	24356.49
513.072	24041.11
513.274	24819.33
513.477	24723.08
513.679	25069.19
513.881	25073.28
514.084	25597.56
514.286	25400.96
514.488	25759.35
514.69	26363.5
514.893	26740.33
515.095	26254.96
515.297	26351.21
515.499	26984.04
515.701	26830.44
515.904	27223.65
516.106	27436.64
516.308	27668.06
516.51	28085.84
516.712	28046.93
516.914	28550.73
517.116	28718.67
517.318	28890.7
517.52	29130.31
517.722	28728.91
517.925	29218.37
518.127	29777.47
518.329	29957.69
518.531	29746.75
518.733	30449.2
518.935	30506.54
519.136	30737.96
519.338	30993.96
519.54	31147.56
519.742	30989.86
519.944	31524.38
520.146	31888.92
520.348	32235.03
520.55	32235.03
520.752	32294.42
520.954	32847.37
521.155	32716.3
521.357	32998.92
521.559	33121.8
521.761	33859.07
521.963	33811.96
522.164	33736.19
522.366	33609.22
522.568	34207.22
522.77	34512.37
522.971	34819.56
523.173	34446.83
523.375	35114.47
523.576	34833.9
523.778	34954.73
523.98	35669.47
524.181	35585.5
524.383	35575.27
524.584	35784.16
524.786	35913.18
524.988	36038.11
525.189	36296.15
525.391	36335.06
525.592	36576.72
525.794	36791.76
525.995	36777.42
526.197	36998.6
526.398	36896.2
526.6	37316.04
526.801	37453.25
527.003	37234.12
527.204	37227.98
527.406	37539.27
527.607	37834.17
527.808	38090.17
528.01	37352.9
528.211	37770.69
528.412	38383.03
528.614	38135.23
528.815	38198.71
529.016	38663.6
529.218	38450.61
529.419	38172.09
529.62	38358.45
529.822	38655.41
530.023	38882.73
530.224	38438.33
530.425	38698.42
530.626	38542.77
530.828	38430.13
531.029	39343.53
531.23	38485.43
531.431	38897.07
531.632	38913.45
531.833	39249.32
532.035	39155.11
532.236	38966.7
532.437	39386.53
532.638	39042.48
532.839	39198.12
533.04	39245.23
533.241	38737.33
533.442	39845.28
533.643	39101.87
533.844	39175.59
534.045	39329.19
534.246	39036.33
534.447	39441.83
534.648	38852.02
534.849	39202.22
535.05	39153.07
535.251	39341.48
535.451	39069.1
535.652	39337.38
535.853	39398.82
536.054	39337.38
536.255	39054.76
536.456	38751.66
536.657	39759.27
536.857	39144.87
537.058	38991.28
537.259	39505.32
537.46	39585.19
537.66	39343.53
537.861	39706.02
538.062	39579.04
538.263	39525.8
538.463	38925.74
538.664	39116.2
538.865	39773.6
539.065	39280.04
539.266	39390.63
539.466	39482.79
539.667	38966.7
539.868	39503.27
540.068	39275.94
540.269	39216.55
540.469	39277.99
540.67	38923.69
540.87	39421.35
541.071	39083.44
541.271	39364.01
541.472	38991.28
541.672	39073.2
541.873	38770.1
542.073	38809.01
542.274	39609.76
542.474	39026.09
542.675	38813.1
542.875	39773.6
543.075	39083.44
543.276	38346.17
543.476	39118.25
543.676	39036.33
543.877	38741.42
544.077	38901.17
544.277	39026.09
544.478	38538.68
544.678	39105.96
544.878	39204.27
545.078	39226.79
545.279	38788.53
545.479	38763.95
545.679	39081.39
545.879	38772.14
546.079	38917.55
546.28	38782.38
546.48	38780.34
546.68	38673.84
546.88	39067.05
547.08	38983.09
547.28	38745.52
547.48	38428.09
547.68	38692.27
547.88	38452.66
548.081	39087.53
548.281	38630.83
548.481	38710.71
548.681	38839.73
548.881	38540.72
549.081	38311.35
549.28	38495.67
549.48	38669.75
549.68	38204.86
549.88	38772.14
550.08	38104.51
550.28	38643.12
550.48	38442.42
550.68	38600.11
550.88	38450.61
551.08	38469.04
551.279	38622.64
551.479	38256.06
551.679	38563.25
551.879	38213.05
552.079	38432.18
552.278	38208.95
552.478	38436.28
552.678	38086.07
552.878	38811.06
553.077	38430.13
553.277	37842.37
553.477	38231.48
553.676	37995.96
553.876	38319.54
554.076	37858.75
554.275	38221.24
554.475	37752.26
554.674	38139.32
554.874	37926.33
555.074	38243.77
555.273	37948.86
555.473	38184.38
555.672	37873.09
555.872	37850.56
556.071	37764.54
556.271	37823.93
556.47	37838.27
556.67	37840.32
556.869	37533.12
557.068	37805.5
557.268	37682.62
557.467	37565.89
557.667	37926.33
557.866	37541.32
558.065	37408.2
558.265	37146.06
558.464	37289.41
558.663	37549.51
558.863	37004.75
559.062	37727.68
559.261	36863.44
559.461	37752.26
559.66	37002.7
559.859	37131.72
560.058	36902.35
560.258	37131.72
560.457	36578.77
560.656	37158.34
560.855	36527.57
561.054	36820.43
561.253	36513.23
561.453	36738.51
561.652	36748.75
561.851	37127.63
562.05	36857.29
562.249	36539.86
562.448	36853.2
562.647	36488.66
562.846	36470.23
563.045	36290.01
563.244	36060.63
563.443	36658.64
563.642	35993.05
563.841	36169.18
564.04	36109.78
564.239	36556.24
564.438	35716.57
564.637	35845.6
564.836	36046.3
565.035	35665.38
565.234	36169.18
565.432	35667.42
565.631	35632.61
565.83	35739.1
566.029	35452.39
566.228	35395.04
566.427	35573.22
566.625	35120.62
566.824	35055.08
567.023	35251.69
567.222	34690.54
567.42	35241.45
567.619	34835.95
567.818	35182.06
568.016	34983.4
568.215	35071.46
568.414	34489.84
568.612	35302.89
568.811	34821.61
569.01	34946.54
569.208	34170.36
569.407	34797.04
569.605	34211.32
569.804	34924.01
570.002	34395.64
570.201	34420.21
570.4	33969.66
570.598	34315.76
570.797	34041.34
570.995	34153.97
571.193	33740.29
571.392	33977.85
571.59	33969.66
571.789	33922.55
571.987	33570.3
572.186	33816.06
572.384	33259.01
572.582	34055.67
572.781	33588.74
572.979	33062.41
573.177	33441.28
573.376	33406.47
573.574	33039.88
573.772	33267.2
573.971	33304.07
574.169	33127.94
574.367	32927.24
574.565	33117.7
574.763	32792.08
574.962	32677.39
575.16	32200.21
575.358	32802.32
575.556	32149.01
575.754	32863.75
575.952	32343.57
576.151	32669.2
576.349	32372.24
576.547	31987.22
576.745	31880.73
576.943	32245.27
577.141	31972.89
577.339	32167.45
577.537	31675.93
577.735	31655.45
577.933	31802.91
578.131	31915.55
578.329	31428.13
578.527	31530.53
578.725	31522.33
578.923	31561.25
579.121	31436.32
579.319	31209
579.516	31192.61
579.714	31374.88
579.912	30998.06
580.11	31163.94
580.308	31204.9
580.506	30807.59
580.704	30565.93
580.901	30772.78
581.099	31202.85
581.297	30570.03
581.495	30352.94
581.692	30443.06
581.89	29822.52
582.088	30909.99
582.285	30166.58
582.483	30441.01
582.681	30107.19
582.878	30246.45
583.076	29795.9
583.274	30037.56
583.471	29627.96
583.669	29787.71
583.866	29695.55
584.064	29666.88
584.262	29484.61
584.459	29673.02
584.657	29187.65
584.854	29345.34
585.052	29111.88
585.249	29349.44
585.447	29111.88
585.644	28833.35
585.841	29005.38
586.039	29015.62
586.236	28239.44
586.434	28974.66
586.631	28499.53
586.828	28493.39
587.026	28638.79
587.223	28472.91
587.42	28284.5
587.618	28515.92
587.815	28327.5
588.012	28243.54
588.21	27876.95
588.407	28210.77
588.604	27756.12
588.801	27952.73
588.999	27377.25
589.196	27905.62
589.393	27567.71
589.59	27311.71
589.787	27571.8
589.984	27780.7
590.182	26930.79
590.379	27782.74
590.576	27035.24
590.773	27260.51
590.97	26846.82
591.167	27149.92
591.364	26844.77
591.561	27061.86
591.758	26752.62
591.955	26799.72
592.152	26652.27
592.349	26603.11
592.546	26769
592.743	26443.37
592.94	26119.79
593.137	26740.33
593.334	26377.84
593.531	25710.2
593.727	26441.32
593.924	26236.53
594.121	25771.64
594.318	25953.91
594.515	25507.45
594.712	25785.97
594.908	25636.47
595.105	25853.56
595.302	25581.18
595.499	25568.89
595.696	25464.44
595.892	25431.68
596.089	25165.44
596.286	25104
596.482	25126.53
596.679	24966.79
596.876	24850.05
597.072	24934.02
597.269	24974.98
597.466	24837.76
597.662	24391.31
597.859	24651.4
598.055	24360.59
598.252	24538.76
598.448	24397.45
598.645	24350.35
598.841	24401.55
599.038	24534.67
599.234	24200.85
599.431	23748.25
599.627	23875.22
599.824	23928.47
600.02	24043.15
600.217	23936.66
600.413	23570.07
600.609	23506.59
600.806	23385.76
601.002	23506.59
601.198	23060.13
601.395	23213.73
601.591	23297.69
601.787	23416.47
601.984	22914.72
602.18	23219.87
602.376	23078.56
602.572	22941.35
602.769	22761.12
602.965	22734.5
603.161	23019.17
603.357	22914.72
603.553	22433.45
603.75	22693.54
603.946	22595.24
604.142	22501.03
604.338	22265.52
604.534	22361.77
604.73	22152.88
604.926	22130.35
605.122	22202.03
605.318	22040.24
605.514	22013.62
605.71	21642.93
605.906	21841.59
606.102	21866.16
606.298	22013.62
606.494	21675.7
606.69	21608.12
606.886	21661.37
607.082	21431.99
607.278	21597.88
607.474	21479.1
607.67	21548.73
607.866	21302.97
608.062	21470.9
608.257	21145.28
608.453	21176
608.649	21272.25
608.845	21290.68
609.041	21264.06
609.236	21176
609.432	20881.09
609.628	21020.35
609.824	20735.68
610.019	20924.1
610.215	20780.74
610.411	20930.24
610.606	20729.54
610.802	20885.19
610.998	20518.6
611.193	20854.47
611.389	20518.6
611.584	20612.81
611.78	20227.79
611.976	20510.41
612.171	20393.67
612.367	20483.78
612.562	20317.9
612.758	20188.88
612.953	20117.2
613.149	20481.74
613.344	20143.82
613.539	20545.22
613.735	20049.61
613.93	20158.16
614.126	20037.33
614.321	20354.76
614.517	20002.51
614.712	20154.06
614.907	19840.72
615.103	20098.77
615.298	19873.49
615.493	20141.77
615.688	19463.9
615.884	20047.57
616.079	19529.43
616.274	19560.15
616.47	19789.52
616.665	19693.27
616.86	19695.32
617.055	19414.74
617.25	19445.46
617.445	19537.62
617.641	19244.76
617.836	19560.15
618.031	19142.36
618.226	19363.54
618.421	19179.23
618.616	19455.7
618.811	18976.48
619.006	19334.87
619.201	18517.73
619.396	18808.54
619.591	18274.03
619.786	18786.02
619.981	18364.14
620.176	18632.42
620.371	18372.33
620.566	18613.99
620.761	18374.38
620.956	18446.05
621.151	17932.01
621.346	18155.24
621.541	17950.45
621.735	18163.43
621.93	17805.04
622.125	17819.38
622.32	17579.76
622.515	17837.81
622.709	17551.09
622.904	17506.04
623.099	17360.63
623.294	17481.46
623.488	17487.61
623.683	17196.79
623.878	16895.74
624.072	17055.48
624.267	16832.26
624.462	17094.4
624.656	16881.41
624.851	16707.33
625.046	16408.33
625.24	16199.43
625.435	16344.84
625.629	16344.84
625.824	16211.72
626.018	16324.36
626.213	15871.76
626.407	16185.1
626.602	15742.74
626.796	16056.08
626.991	15757.07
627.185	15771.41
627.38	15437.59
627.574	15562.51
627.768	15179.54
627.963	15490.84
628.157	15195.93
628.352	15240.98
628.546	14892.83
628.74	15073.05
628.935	14640.93
629.129	14868.25
629.323	14499.62
629.517	14552.87
629.712	14473
629.906	14591.78
630.1	14245.67
630.294	14475.04
630.489	14290.73
630.683	14167.85
630.877	14141.22
631.071	13940.52
631.265	14198.57
631.459	13610.8
631.653	13948.72
631.848	13739.82
632.042	13854.51
632.236	13580.08
632.43	13403.96
632.624	13496.11
632.818	13498.16
633.012	13330.23
633.206	13193.01
633.4	13043.51
633.594	13084.47
633.788	12963.64
633.982	12937.02
634.176	13016.89
634.369	12791.61
634.563	12736.32
634.757	12535.62
634.951	12728.13
635.145	12826.43
635.339	12693.31
635.533	12500.8
635.726	12431.17
635.92	12179.27
636.114	12336.96
636.308	12347.2
636.501	12341.06
636.695	12023.62
636.889	12040.01
637.083	11992.9
637.276	11781.96
637.47	12083.02
637.664	12031.82
637.857	11632.46
638.051	11540.3
638.244	11542.35
638.438	11343.7
638.632	11462.48
638.825	11282.26
639.019	11253.59
639.212	11345.75
639.406	11403.09
639.599	11331.41
639.793	10956.63
639.986	10940.25
640.18	11108.18
640.373	11104.09
640.567	11044.7
640.76	10876.76
640.954	11065.18
641.147	10682.2
641.34	10846.04
641.534	10725.21
641.727	10626.91
641.92	10579.81
642.114	10551.14
642.307	10415.97
642.5	10366.82
642.694	10088.29
642.887	10301.28
643.08	10403.68
643.273	10250.08
643.467	10190.69
643.66	9934.7
643.853	9903.98
644.046	9832.3
644.239	9779.05
644.432	9893.74
644.626	9795.43
644.819	9660.27
645.012	9731.95
645.205	9676.65
645.398	9537.39
645.591	9500.53
645.784	9467.76
645.977	9584.49
646.17	9285.49
646.363	9277.3
646.556	9195.38
646.749	9224.05
646.942	9469.81
647.135	9246.58
647.328	9144.18
647.521	9086.84
647.714	9072.5
647.907	8902.52
648.099	9027.45
648.292	9047.93
648.485	8703.87
648.678	8851.32
648.871	8677.24
649.064	8761.21
649.256	8798.07
649.449	8767.35
649.642	8564.61
649.835	8580.99
650.027	8603.52
650.22	8476.54
650.413	8464.25
650.605	8331.14
650.798	8300.42
650.991	8281.99
651.183	8519.55
651.376	8142.72
651.568	8120.2
651.761	8234.88
651.954	7952.26
652.146	7966.6
652.339	7980.93
652.531	8011.65
652.724	7831.43
652.916	7677.83
653.109	7935.88
653.301	7847.82
653.494	7679.88
653.686	7546.76
653.879	7776.14
654.071	7653.26
654.263	7702.41
654.456	7626.64
654.648	7548.81
654.84	7432.08
655.033	7608.2
655.225	7450.51
655.417	7301.01
655.61	7473.04
655.802	7045.01
655.994	7253.91
656.186	7260.05
656.379	7352.21
656.571	7206.8
656.763	6956.95
656.955	7161.75
657.148	6872.98
657.34	7079.83
657.532	7036.82
657.724	6965.14
657.916	6942.61
658.108	6807.45
658.3	6832.02
658.492	6713.24
658.684	6668.19
658.876	6827.93
659.068	6590.36
659.26	6698.91
659.452	6596.51
659.644	6635.42
659.836	6639.51
660.028	6549.4
660.22	6508.44
660.412	6535.07
660.604	6170.53
660.796	6434.72
660.988	6287.26
661.18	6133.67
661.372	6033.32
661.563	6287.26
661.755	6141.86
661.947	6152.1
662.139	6061.99
662.331	6102.95
662.522	5941.16
662.714	6041.51
662.906	5949.35
663.097	5785.51
663.289	5910.44
663.481	5877.67
663.673	5996.45
663.864	5885.86
664.056	5693.35
664.247	5668.78
664.439	5607.34
664.631	5801.9
664.822	5687.21
665.014	5679.02
665.205	5795.75
665.397	5736.36
665.588	5564.33
665.78	5640.11
665.971	5457.84
666.163	5625.77
666.354	5504.94
666.546	5513.13
666.737	5500.84
666.929	5398.45
667.12	5320.62
667.311	5392.3
667.503	5369.77
667.694	5355.44
667.885	5164.98
668.077	5152.69
668.268	5273.52
668.459	5263.28
668.651	5072.82
668.842	5142.45
669.033	5283.76
669.224	5074.87
669.416	5085.11
669.607	5091.25
669.798	4964.28
669.989	5189.55
670.18	4958.13
670.371	4997.04
670.563	4876.21
670.754	5007.28
670.945	4884.41
671.136	4865.97
671.327	4968.37
671.518	5062.58
671.709	4913.08
671.9	4859.83
672.091	4825.01
672.282	4798.39
672.473	4812.73
672.664	4693.94
672.855	4743.1
673.046	4839.35
673.237	4589.5
673.428	4771.77
673.619	4769.72
673.809	4739
674	4538.3
674.191	4593.59
674.382	4569.02
674.573	4607.93
674.764	4526.01
674.954	4675.51
675.145	4468.67
675.336	4407.23
675.527	4495.29
675.717	4546.49
675.908	4442.04
676.099	4466.62
676.289	4427.71
676.48	4419.52
676.671	4401.08
676.861	4411.32
677.052	4474.81
677.243	4394.94
677.433	4386.75
677.624	4272.06
677.814	4276.16
678.005	4358.08
678.195	4331.45
678.386	4335.55
678.576	4272.06
678.767	4292.54
678.957	4237.25
679.148	4249.54
679.338	4222.91
679.529	4161.47
679.719	4161.47
679.909	4317.12
680.1	4298.69
680.29	4147.14
680.481	4259.77
680.671	4196.29
680.861	4263.87
681.052	4253.63
681.242	4122.56
681.432	4140.99
681.622	4147.14
681.813	4102.08
682.003	4085.7
682.193	4153.28
682.383	4061.12
682.573	4042.69
682.764	4065.22
682.954	4054.98
683.144	4044.74
683.334	4009.92
683.524	4061.12
683.714	3925.96
683.904	3993.54
684.094	3991.49
684.284	4046.79
684.474	3981.25
684.664	3903.43
684.854	3987.4
685.044	3844.04
685.234	3962.82
685.424	3733.45
685.614	3782.6
685.804	3741.64
685.994	3862.47
686.184	3891.14
686.374	3805.13
686.564	3805.13
686.753	3717.06
686.943	3727.3
687.133	3651.53
687.323	3643.34
687.513	3739.59
687.702	3672.01
687.892	3524.55
688.082	3594.19
688.272	3633.1
688.461	3629
688.651	3602.38
688.841	3598.28
689.03	3585.99
689.22	3612.62
689.41	3444.68
689.599	3344.33
689.789	3454.92
689.979	3506.12
690.168	3426.25
690.358	3360.72
690.547	3286.99
690.737	3368.91
690.926	3319.76
691.116	3266.51
691.305	3442.64
691.495	3241.93
691.684	3211.21
691.874	3330
692.063	3231.69
692.252	3248.08
692.442	3248.08
692.631	3102.67
692.82	3330
693.01	3203.02
693.199	3063.76
693.388	3026.9
693.578	3098.58
693.767	3084.24
693.956	3074
694.146	3047.38
694.335	2904.02
694.524	3071.95
694.713	3006.42
694.902	2990.03
695.092	3084.24
695.281	2944.98
695.47	2901.97
695.659	2928.6
695.848	2930.64
696.037	2871.25
696.226	2887.64
696.415	2744.28
696.604	2803.67
696.793	2930.64
696.982	2842.58
697.171	2822.1
697.36	2926.55
697.549	2754.52
697.738	2783.19
697.927	2783.19
698.116	2785.24
698.305	2740.18
698.494	2727.89
698.683	2729.94
698.872	2797.53
699.061	2641.88
699.25	2693.08
699.438	2631.64
699.627	2684.89
699.816	2682.84
700.005	2719.7
700.193	2699.22
700.382	2752.47
700.571	2562.01
700.76	2719.7
700.948	2744.28
701.137	2557.91
701.326	2609.11
701.514	2543.58
701.703	2549.72
701.892	2551.77
702.08	2641.88
702.269	2693.08
702.457	2482.14
702.646	2512.86
702.834	2572.25
703.023	2631.64
703.212	2551.77
703.4	2572.25
703.589	2572.25
703.777	2432.99
703.965	2531.29
704.154	2502.62
704.342	2361.31
704.531	2441.18
704.719	2541.53
704.907	2488.28
705.096	2461.66
705.284	2424.79
705.472	2402.27
705.661	2514.91
705.849	2437.08
706.037	2461.66
706.226	2461.66
706.414	2432.99
706.602	2498.52
706.79	2392.03
706.979	2475.99
707.167	2510.81
707.355	2416.6
707.543	2389.98
707.731	2445.27
707.919	2424.79
708.107	2459.61
708.296	2435.03
708.484	2447.32
708.672	2447.32
708.86	2420.7
709.048	2453.47
709.236	2328.54
709.424	2500.57
709.612	2375.64
709.8	2369.5
709.988	2400.22
710.176	2445.27
710.364	2566.1
710.551	2443.23
710.739	2435.03
710.927	2312.16
711.115	2463.71
711.303	2441.18
711.491	2418.65
711.679	2355.16
711.866	2457.56
712.054	2387.93
712.242	2351.07
712.43	2377.69
712.617	2445.27
712.805	2328.54
712.993	2430.94
713.181	2412.51
713.368	2510.81
713.556	2547.67
713.744	2326.49
713.931	2314.2
714.119	2398.17
714.306	2367.45
714.494	2359.26
714.682	2408.41
714.869	2496.47
715.057	2459.61
715.244	2471.9
715.432	2463.71
715.619	2437.08
715.807	2471.9
715.994	2432.99
716.182	2373.6
716.369	2408.41
716.556	2455.51
716.744	2449.37
716.931	2584.54
717.119	2514.91
717.306	2465.75
717.493	2519
717.681	2643.93
717.868	2527.19
718.055	2490.33
718.242	2455.51
718.43	2482.14
718.617	2617.3
718.804	2478.04
718.991	2592.73
719.179	2490.33
719.366	2596.82
719.553	2492.38
719.74	2426.84
719.927	2512.86
720.114	2500.57
720.301	2398.17
720.488	2430.94
720.676	2527.19
720.863	2648.02
721.05	2426.84
721.237	2369.5
721.424	2523.1
721.611	2539.48
721.798	2451.42
721.985	2457.56
722.172	2437.08
722.358	2506.71
722.545	2533.34
722.732	2445.27
722.919	2672.6
723.106	2504.67
723.293	2467.8
723.48	2541.53
723.667	2498.52
723.853	2598.87
724.04	2557.91
724.227	2547.67
724.414	2478.04
724.6	2484.19
724.787	2656.22
724.974	2645.98
725.161	2615.26
725.347	2582.49
725.534	2631.64
725.72	2500.57
725.907	2592.73
726.094	2600.92
726.28	2510.81
726.467	2592.73
726.653	2574.3
726.84	2510.81
727.027	2580.44
727.213	2531.29
727.4	2576.34
727.586	2648.02
727.773	2631.64
727.959	2605.02
728.145	2475.99
728.332	2611.16
728.518	2592.73
728.705	2621.4
728.891	2639.83
729.077	2584.54
729.264	2699.22
729.45	2588.63
729.636	2629.59
729.823	2459.61
730.009	2670.55
730.195	2541.53
730.382	2635.74
730.568	2611.16
730.754	2734.04
730.94	2641.88
731.126	2625.5
731.313	2590.68
731.499	2721.75
731.685	2615.26
731.871	2545.63
732.057	2617.3
732.243	2598.87
732.429	2627.54
732.615	2621.4
732.801	2641.88
732.987	2639.83
733.173	2658.26
733.359	2639.83
733.545	2553.82
733.731	2664.41
733.917	2744.28
734.103	2678.74
734.289	2645.98
734.475	2598.87
734.661	2625.5
734.847	2508.76
735.033	2510.81
735.219	2668.5
735.404	2541.53
735.59	2463.71
735.776	2539.48
735.962	2717.65
736.148	2699.22
736.333	2623.45
736.519	2670.55
736.705	2564.06
736.89	2523.1
737.076	2734.04
737.262	2543.58
737.447	2506.71
737.633	2523.1
737.819	2447.32
738.004	2564.06
738.19	2590.68
738.375	2557.91
738.561	2645.98
738.747	2617.3
738.932	2510.81
739.118	2531.29
739.303	2555.86
739.489	2557.91
739.674	2500.57
739.859	2527.19
740.045	2592.73
740.23	2588.63
740.416	2437.08
740.601	2547.67
740.786	2547.67
740.972	2457.56
741.157	2502.62
741.342	2432.99
741.528	2445.27
741.713	2420.7
741.898	2488.28
742.084	2519
742.269	2289.63
742.454	2420.7
742.639	2555.86
742.824	2428.89
743.01	2486.23
743.195	2459.61
743.38	2445.27
743.565	2398.17
743.75	2342.88
743.935	2445.27
744.12	2402.27
744.305	2369.5
744.49	2318.3
744.675	2342.88
744.86	2355.16
745.045	2369.5
745.23	2263.01
745.415	2340.83
745.6	2287.58
745.785	2306.01
745.97	2197.47
746.155	2228.19
746.34	2291.68
746.525	2166.75
746.71	2250.72
746.895	2181.09
747.079	2131.94
747.264	2228.19
747.449	2144.22
747.634	2213.85
747.819	2133.98
748.003	2109.41
748.188	2152.42
748.373	2150.37
748.557	2054.11
748.742	2074.59
748.927	2148.32
749.111	2117.6
749.296	1990.63
749.481	2072.54
749.665	1947.62
749.85	1906.66
750.034	2019.3
750.219	2029.54
750.404	1959.91
750.588	1996.77
750.773	1843.17
750.957	1871.84
751.141	1834.98
751.326	1918.95
751.51	1894.37
751.695	1867.75
751.879	1867.75
752.064	1939.43
752.248	1834.98
752.432	1769.44
752.617	1900.51
752.801	1871.84
752.985	1769.44
753.17	1839.08
753.354	1763.3
753.538	1865.7
753.722	1665
753.907	1839.08
754.091	1812.45
754.275	1748.97
754.459	1722.34
754.643	1693.67
754.828	1755.11
755.012	1648.61
755.196	1599.46
755.38	1689.57
755.564	1564.65
755.748	1634.28
755.932	1634.28
756.116	1589.22
756.3	1626.09
756.484	1593.32
756.668	1609.7
756.852	1587.18
757.036	1535.98
757.22	1615.85
757.404	1478.63
757.588	1519.59
757.772	1521.64
757.956	1540.07
758.14	1445.87
758.323	1552.36
758.507	1322.99
758.691	1421.29
758.875	1525.74
759.059	1447.91
759.242	1355.76
759.426	1470.44
759.61	1355.76
759.794	1433.58
759.977	1320.94
760.161	1384.43
760.345	1355.76
760.528	1341.42
760.712	1345.52
760.895	1351.66
761.079	1396.71
761.263	1329.13
761.446	1302.51
761.63	1249.26
761.813	1357.8
761.997	1284.08
762.18	1345.52
762.364	1279.98
762.547	1320.94
762.731	1286.12
762.914	1267.69
763.098	1404.91
763.281	1218.54
763.464	1327.08
763.648	1214.45
763.831	1286.12
764.015	1226.73
764.198	1218.54
764.381	1234.93
764.564	1155.05
764.748	1212.4
764.931	1171.44
765.114	1193.97
765.297	1136.62
765.481	1257.45
765.664	1185.77
765.847	1118.19
766.03	1177.58
766.213	1079.28
766.397	1107.95
766.58	1077.23
766.763	1157.1
766.946	1073.14
767.129	1097.71
767.312	1089.52
767.495	1087.47
767.678	1064.94
767.861	1128.43
768.044	1091.57
768.227	1056.75
768.41	1134.57
768.593	1048.56
768.776	1110
768.959	1083.38
769.142	1107.95
769.324	1028.08
769.507	1056.75
769.69	1040.37
769.873	1007.6
770.056	1052.66
770.239	1032.18
770.421	1036.27
770.604	942.07
770.787	1030.13
770.97	1038.32
771.152	954.35
771.335	970.74
771.518	974.83
771.7	1097.71
771.883	989.17
772.066	999.41
772.248	958.45
772.431	1034.22
772.613	925.68
772.796	937.97
772.978	913.39
773.161	950.26
773.343	878.58
773.526	944.11
773.708	960.5
773.891	862.19
774.073	888.82
774.256	892.91
774.438	874.48
774.621	894.96
774.803	903.15
774.985	921.59
775.168	821.24
775.35	933.87
775.532	876.53
775.715	958.45
775.897	798.71
776.079	841.72
776.261	862.19
776.444	790.52
776.626	724.98
776.808	833.52
776.99	839.67
777.173	864.24
777.355	845.81
777.537	786.42
777.719	739.32
777.901	784.37
778.083	825.33
778.265	802.8
778.447	798.71
778.629	843.76
778.811	747.51
778.993	743.41
779.175	788.47
779.357	780.28
779.539	774.13
779.721	688.12
779.903	712.69
780.085	698.36
780.267	727.03
780.449	667.64
780.631	684.02
780.812	710.65
780.994	686.07
781.176	745.46
781.358	669.69
781.54	681.97
781.721	610.29
781.903	684.02
782.085	643.06
782.267	692.21
782.448	739.32
782.63	630.77
782.812	681.97
782.993	495.61
783.175	624.63
783.357	612.34
783.538	589.81
783.72	673.78
783.901	569.34
784.083	577.53
784.264	567.29
784.446	503.8
784.627	579.58
784.809	591.86
784.99	565.24
785.172	563.19
785.353	571.38
785.535	573.43
785.716	530.42
785.897	544.76
786.079	514.04
786.26	571.38
786.441	550.9
786.623	487.42
786.804	483.32
786.985	438.27
787.167	413.69
787.348	413.69
787.529	436.22
787.71	565.24
787.891	503.8
788.073	460.79
788.254	444.41
788.435	536.57
788.616	520.18
788.797	405.5
788.978	516.09
789.159	450.55
789.34	454.65
789.522	499.7
789.703	520.18
789.884	444.41
790.065	505.85
790.246	393.21
790.427	368.63
790.607	444.41
790.788	493.56
790.969	401.4
791.15	458.74
791.331	434.17
791.512	409.59
791.693	438.27
791.874	360.44
792.054	374.78
792.235	479.22
792.416	413.69
792.597	348.15
792.778	442.36
792.958	481.27
793.139	411.64
793.32	372.73
793.5	329.72
793.681	446.46
793.862	327.67
794.042	411.64
794.223	354.3
794.404	356.35
794.584	380.92
794.765	331.77
794.945	380.92
795.126	380.92
795.306	333.82
795.487	401.4
795.667	368.63
795.848	391.16
796.028	337.91
796.209	333.82
796.389	434.17
796.57	311.29
796.75	331.77
796.93	417.79
797.111	321.53
797.291	327.67
797.471	329.72
797.652	323.58
797.832	395.26
798.012	344.06
798.192	294.91
798.373	253.95
798.553	290.81
798.733	260.09
798.913	229.37
799.093	258.04
799.274	266.24
799.454	327.67
799.634	356.35
799.814	348.15
799.994	292.86
800.174	325.63
800.354	354.3
800.534	280.57
800.714	315.39
800.894	225.28
801.074	251.9
801.254	327.67
801.434	307.2
801.614	290.81
801.794	280.57
801.974	632.82
802.154	227.32
802.334	294.91
802.514	247.8
802.693	221.18
802.873	196.6
803.053	321.53
803.233	253.95
803.413	229.37
803.592	284.67
803.772	235.52
803.952	229.37
804.131	206.84
804.311	225.28
804.491	280.57
804.67	249.85
804.85	262.14
805.03	202.75
805.209	376.83
805.389	317.44
805.568	231.42
805.748	286.72
805.928	251.9
806.107	309.24
806.287	247.8
806.466	266.24
806.646	223.23
806.825	337.91
807.004	219.13
807.184	225.28
807.363	294.91
807.543	264.19
807.722	212.99
807.901	176.13
808.081	249.85
808.26	225.28
808.439	208.89
808.619	258.04
808.798	256
808.977	280.57
809.156	184.32
809.336	266.24
809.515	210.94
809.694	217.08
809.873	303.1
810.052	192.51
810.231	212.99
810.411	161.79
810.59	192.51
810.769	167.93
810.948	182.27
811.127	223.23
811.306	260.09
811.485	143.36
811.664	223.23
811.843	229.37
812.022	206.84
812.201	208.89
812.38	178.17
812.559	178.17
812.737	196.6
812.916	163.84
813.095	194.56
813.274	202.75
813.453	204.8
813.632	225.28
813.811	217.08
813.989	143.36
814.168	184.32
814.347	206.84
814.526	176.13
814.704	212.99
814.883	276.48
815.062	249.85
815.24	161.79
815.419	104.45
815.598	208.89
815.776	204.8
815.955	184.32
816.133	200.7
816.312	169.98
816.49	204.8
816.669	182.27
816.847	77.82
817.026	155.65
817.204	77.82
817.383	200.7
817.561	133.12
817.74	165.89
817.918	96.25
818.097	184.32
818.275	174.08
818.453	192.51
818.632	126.97
818.81	229.37
818.988	176.13
819.167	137.21
819.345	114.69
819.523	88.06
819.701	167.93
819.879	202.75
820.058	131.07
820.236	149.5
820.414	81.92
820.592	133.12
820.77	139.26
820.948	147.45
821.127	100.35
821.305	165.89
821.483	208.89
821.661	167.93
821.839	106.49
822.017	120.83
822.195	149.5
822.373	161.79
822.551	153.6
822.729	196.6
822.907	141.31
823.085	83.97
823.262	149.5
823.44	159.74
823.618	83.97
823.796	104.45
823.974	190.46
824.152	129.02
824.329	110.59
824.507	102.4
824.685	196.6
824.863	190.46
825.04	106.49
825.218	147.45
825.396	126.97
825.574	176.13
825.751	122.88
825.929	184.32
826.107	108.54
826.284	2.05
826.462	155.65
826.639	124.93
826.817	86.01
826.994	110.59
827.172	98.3
827.349	141.31
827.527	153.6
827.704	114.69
827.882	151.55
828.059	167.93
828.237	79.87
828.414	112.64
828.591	69.63
828.769	124.93
828.946	172.03
829.124	139.26
829.301	126.97
829.478	118.78
829.655	94.21
829.833	69.63
830.01	98.3
830.187	147.45
830.364	69.63
830.542	4.1
830.719	81.92
830.896	192.51
831.073	98.3
831.25	139.26
831.427	69.63
831.604	92.16
831.782	94.21
831.959	106.49
832.136	69.63
832.313	165.89
832.49	79.87
832.667	131.07
832.844	75.77
833.021	129.02
833.198	45.06
833.374	147.45
833.551	71.68
833.728	8.19
833.905	141.31
834.082	174.08
834.259	151.55
834.436	153.6
834.612	79.87
834.789	114.69
834.966	45.06
835.143	65.53
835.319	167.93
835.496	124.93
835.673	126.97
835.85	92.16
836.026	86.01
836.203	124.93
836.38	61.44
836.556	61.44
836.733	65.53
836.909	104.45
837.086	77.82
837.262	149.5
837.439	104.45
837.616	94.21
837.792	141.31
837.968	139.26
838.145	51.2
838.321	102.4
838.498	174.08
838.674	90.11
838.851	61.44
839.027	75.77
839.203	24.58
839.38	67.58
839.556	102.4
839.732	133.12
839.909	57.34
840.085	43.01
840.261	83.97
840.437	61.44
840.614	16.38
840.79	110.59
840.966	51.2
841.142	83.97
841.318	114.69
841.494	73.73
841.671	67.58
841.847	36.86
842.023	49.15
842.199	45.06
842.375	114.69
842.551	71.68
842.727	45.06
842.903	145.41
843.079	6.14
843.255	104.45
843.431	92.16
843.607	14.34
843.783	108.54
843.959	69.63
844.134	81.92
844.31	71.68
844.486	-4.1
844.662	92.16
844.838	63.49
845.013	-16.38
845.189	92.16
845.365	32.77
845.541	73.73
845.716	28.67
845.892	96.25
846.068	40.96
846.244	59.39
846.419	45.06
846.595	57.34
846.77	32.77
846.946	104.45
847.122	55.3
847.297	98.3
847.473	69.63
847.648	28.67
847.824	69.63
847.999	-14.34
848.175	75.77
848.35	36.86
848.526	14.34
848.701	45.06
848.876	81.92
849.052	69.63
849.227	43.01
849.403	94.21
849.578	106.49
849.753	40.96
849.929	71.68
850.104	-12.29
850.279	94.21
850.454	98.3
850.63	61.44
850.805	96.25
850.98	18.43
851.155	67.58
851.33	47.1
851.505	71.68
851.681	106.49
851.856	102.4
852.031	102.4
852.206	49.15
852.381	94.21
852.556	51.2
852.731	67.58
852.906	45.06
853.081	57.34
853.256	77.82
853.431	108.54
853.606	45.06
853.781	26.62
853.956	34.82
854.131	45.06
854.305	49.15
854.48	32.77
854.655	71.68
854.83	108.54
855.005	81.92
855.18	38.91
855.354	122.88
855.529	47.1
855.704	67.58
855.879	83.97
856.053	22.53
856.228	45.06
856.403	6.14
856.577	94.21
856.752	-4.1
856.926	61.44
857.101	34.82
857.276	20.48
857.45	30.72
857.625	59.39
857.799	8.19
857.974	124.93
858.148	-12.29
858.323	16.38
858.497	104.45
858.672	36.86
858.846	2.05
859.02	51.2
859.195	-0
859.369	106.49
859.543	18.43
859.718	28.67
859.892	86.01
860.066	14.34
860.241	32.77
860.415	47.1
860.589	79.87
860.763	61.44
860.938	59.39
861.112	92.16
861.286	18.43
861.46	36.86
861.634	53.25
861.808	14.34
861.982	114.69
862.157	26.62
862.331	-10.24
862.505	61.44
862.679	43.01
862.853	8.19
863.027	98.3
863.201	73.73
863.375	-55.3
863.549	81.92
863.722	12.29
863.896	86.01
864.07	-8.19
864.244	22.53
864.418	61.44
864.592	53.25
864.766	24.58
864.939	51.2
865.113	51.2
865.287	49.15
865.461	-77.82
865.634	6.14
865.808	59.39
865.982	4.1
866.156	-12.29
866.329	69.63
866.503	71.68
866.676	114.69
866.85	106.49
867.024	94.21
867.197	-14.34
867.371	45.06
867.544	53.25
867.718	69.63
867.891	34.82
868.065	51.2
868.238	40.96
868.412	120.83
868.585	38.91
868.759	98.3
868.932	65.53
869.105	43.01
869.279	20.48
869.452	120.83
869.625	51.2
869.799	8.19
869.972	16.38
870.145	2.05
870.319	-18.43
870.492	49.15
870.665	36.86
870.838	67.58
871.011	4.1
871.185	16.38
871.358	47.1
871.531	71.68
871.704	-43.01
871.877	6.14
872.05	90.11
872.223	51.2
872.396	77.82
872.569	94.21
872.742	16.38
872.915	53.25
873.088	51.2
873.261	53.25
873.434	45.06
873.607	53.25
873.78	-34.82
873.953	14.34
874.126	-30.72
874.299	57.34
874.471	32.77
874.644	34.82
874.817	100.35
874.99	69.63
875.163	-40.96
875.335	28.67
875.508	8.19
875.681	94.21
875.853	-20.48
876.026	69.63
876.199	81.92
876.371	59.39
876.544	83.97
876.717	73.73
876.889	47.1
877.062	24.58
877.234	-4.1
877.407	-4.1
877.579	53.25
877.752	36.86
877.924	73.73
878.097	94.21
878.269	77.82
878.442	98.3
878.614	38.91
878.786	57.34
878.959	36.86
879.131	63.49
879.303	8.19
879.476	59.39
879.648	34.82
879.82	36.86
879.993	79.87
880.165	38.91
880.337	-22.53
880.509	8.19
880.681	94.21
880.854	65.53
881.026	40.96
881.198	79.87
881.37	53.25
881.542	63.49
881.714	12.29
881.886	8.19
882.058	-28.67
882.23	6.14
882.402	28.67
882.574	90.11
882.746	12.29
882.918	-20.48
883.09	102.4
883.262	28.67
883.434	47.1
883.606	-0
883.778	45.06
883.95	57.34
884.122	43.01
884.293	49.15
884.465	-16.38
884.637	-0
884.809	53.25
884.98	49.15
885.152	47.1
885.324	40.96
885.496	131.07
885.667	20.48
885.839	16.38
886.011	43.01
886.182	4.1
886.354	16.38
886.525	8.19
886.697	69.63
886.869	10.24
887.04	20.48
887.212	20.48
887.383	96.25
887.555	38.91
887.726	45.06
887.897	-22.53
888.069	32.77
888.24	4.1
888.412	57.34
888.583	-34.82
888.754	55.3
888.926	-6.14
889.097	40.96
889.268	-18.43
889.44	16.38
889.611	-20.48
889.782	12.29
889.953	86.01
890.125	102.4
890.296	-36.86
890.467	-8.19
890.638	-8.19
890.809	28.67
890.98	45.06
891.151	114.69
891.323	2.05
891.494	81.92
891.665	55.3
891.836	51.2
892.007	-10.24
892.178	24.58
892.349	34.82
892.52	96.25
892.691	65.53
892.862	32.77
893.032	-98.3
893.203	6.14
893.374	65.53
893.545	14.34
893.716	28.67
893.887	-4.1
894.057	-40.96
894.228	79.87
894.399	38.91
894.57	51.2
894.74	8.19
894.911	-4.1
895.082	-30.72
895.253	10.24
895.423	-51.2
895.594	59.39
895.764	-30.72
895.935	20.48
896.106	40.96
896.276	104.45
896.447	10.24
896.617	77.82
896.788	28.67
896.958	10.24
897.129	59.39
897.299	40.96
897.47	-4.1
897.64	61.44
897.81	47.1
897.981	98.3
898.151	79.87
898.322	83.97
898.492	28.67
898.662	40.96
898.832	53.25
899.003	45.06
899.173	4.1
899.343	53.25
899.513	18.43
