Data from USB4F104151__75__11-37-36-059.txt Node

Date: Fri Mar 14 11:37:36 EDT 2025
User: louis
Spectrometer: USB4F10415
Trigger mode: 4
Integration Time (sec): 2.000000E-2
Scans to average: 1
Electric dark correction enabled: true
Nonlinearity correction enabled: false
Boxcar width: 0
XAxis mode: Wavelengths
Number of Pixels in Spectrum: 3648
>>>>>Begin Spectral Data<<<<<
178.204	-90.79
178.424	-90.79
178.644	-90.79
178.864	-53.93
179.084	-96.94
179.304	36.18
179.524	50.52
179.744	32.08
179.964	1.37
180.184	-47.79
180.404	-60.07
180.624	44.37
180.844	-37.55
181.064	-62.12
181.283	7.51
181.503	15.7
181.723	19.8
181.943	-33.45
182.163	-0.68
182.383	48.47
182.602	25.94
182.822	64.85
183.042	62.8
183.262	1.37
183.482	-10.92
183.701	56.66
183.921	-10.92
184.141	-17.07
184.361	30.04
184.58	-33.45
184.8	34.13
185.02	36.18
185.239	64.85
185.459	-4.78
185.679	-10.92
185.898	5.46
186.118	68.95
186.338	-37.55
186.557	27.99
186.777	-21.16
186.997	89.43
187.216	-33.45
187.436	5.46
187.655	1.37
187.875	-4.78
188.095	-49.83
188.314	114
188.534	42.32
188.753	7.51
188.973	73.04
189.192	42.32
189.412	-17.07
189.631	7.51
189.851	19.8
190.07	101.72
190.29	-25.26
190.509	-41.64
190.729	-8.87
190.948	-39.59
191.168	79.19
191.387	46.42
191.607	44.37
191.826	-0.68
192.045	64.85
192.265	1.37
192.484	-35.5
192.704	-25.26
192.923	3.41
193.142	93.52
193.362	107.86
193.581	30.04
193.8	15.7
194.02	25.94
194.239	60.76
194.458	-6.83
194.678	3.41
194.897	56.66
195.116	77.14
195.335	27.99
195.555	-2.73
195.774	-6.83
195.993	30.04
196.212	13.65
196.432	15.7
196.651	-6.83
196.87	75.09
197.089	77.14
197.308	9.56
197.528	13.65
197.747	-2.73
197.966	5.46
198.185	30.04
198.404	-27.31
198.623	50.52
198.842	50.52
199.062	-37.55
199.281	1.37
199.5	-2.73
199.719	-6.83
199.938	-21.16
200.157	1.37
200.376	11.61
200.595	-19.11
200.814	42.32
201.033	7.51
201.252	58.71
201.471	-15.02
201.69	81.24
201.909	11.61
202.128	7.51
202.347	-4.78
202.566	42.32
202.785	50.52
203.004	-62.12
203.223	34.13
203.442	-47.79
203.661	58.71
203.879	36.18
204.098	114
204.317	-6.83
204.536	-8.87
204.755	44.37
204.974	15.7
205.193	56.66
205.411	38.23
205.63	-4.78
205.849	-33.45
206.068	-82.6
206.287	56.66
206.505	7.51
206.724	-31.4
206.943	50.52
207.162	-21.16
207.381	62.8
207.599	13.65
207.818	-47.79
208.037	-86.7
208.255	46.42
208.474	52.56
208.693	66.9
208.911	-70.31
209.13	93.52
209.349	-41.64
209.567	-6.83
209.786	15.7
210.005	58.71
210.223	-68.27
210.442	-23.21
210.661	44.37
210.879	40.28
211.098	-10.92
211.316	3.41
211.535	93.52
211.753	32.08
211.972	75.09
212.191	-47.79
212.409	-33.45
212.628	44.37
212.846	25.94
213.065	48.47
213.283	79.19
213.502	-27.31
213.72	66.9
213.938	40.28
214.157	48.47
214.375	1.37
214.594	-17.07
214.812	25.94
215.031	83.28
215.249	36.18
215.467	64.85
215.686	38.23
215.904	15.7
216.122	-47.79
216.341	140.63
216.559	-82.6
216.778	25.94
216.996	54.61
217.214	56.66
217.432	25.94
217.651	-23.21
217.869	-33.45
218.087	-0.68
218.306	3.41
218.524	25.94
218.742	-31.4
218.96	9.56
219.179	-15.02
219.397	-23.21
219.615	-17.07
219.833	44.37
220.051	27.99
220.27	83.28
220.488	23.89
220.706	-8.87
220.924	-23.21
221.142	52.56
221.36	-37.55
221.578	-19.11
221.796	-15.02
222.015	36.18
222.233	-35.5
222.451	27.99
222.669	-45.74
222.887	9.56
223.105	-6.83
223.323	91.48
223.541	-21.16
223.759	-43.69
223.977	42.32
224.195	1.37
224.413	-15.02
224.631	15.7
224.849	-4.78
225.067	30.04
225.285	3.41
225.503	34.13
225.721	34.13
225.939	40.28
226.157	-21.16
226.375	73.04
226.592	-55.98
226.81	46.42
227.028	42.32
227.246	-0.68
227.464	-49.83
227.682	11.61
227.9	-27.31
228.117	36.18
228.335	79.19
228.553	1.37
228.771	-6.83
228.989	40.28
229.206	-2.73
229.424	3.41
229.642	50.52
229.86	3.41
230.077	40.28
230.295	38.23
230.513	48.47
230.731	-12.97
230.948	38.23
231.166	-17.07
231.384	56.66
231.601	5.46
231.819	-21.16
232.037	-12.97
232.254	15.7
232.472	-39.59
232.689	11.61
232.907	130.39
233.125	62.8
233.342	-4.78
233.56	-53.93
233.777	64.85
233.995	107.86
234.213	60.76
234.43	23.89
234.648	9.56
234.865	-27.31
235.083	-27.31
235.3	79.19
235.518	23.89
235.735	-4.78
235.953	19.8
236.17	23.89
236.388	-8.87
236.605	7.51
236.822	50.52
237.04	40.28
237.257	83.28
237.475	23.89
237.692	1.37
237.909	-4.78
238.127	48.47
238.344	-62.12
238.562	40.28
238.779	-17.07
238.996	-45.74
239.214	7.51
239.431	54.61
239.648	-8.87
239.865	25.94
240.083	42.32
240.3	83.28
240.517	23.89
240.735	68.95
240.952	62.8
241.169	-21.16
241.386	19.8
241.603	46.42
241.821	-45.74
242.038	54.61
242.255	38.23
242.472	11.61
242.689	75.09
242.907	46.42
243.124	46.42
243.341	101.72
243.558	-10.92
243.775	17.75
243.992	-6.83
244.209	40.28
244.426	42.32
244.643	34.13
244.86	-23.21
245.078	5.46
245.295	-12.97
245.512	32.08
245.729	-23.21
245.946	-27.31
246.163	25.94
246.38	-41.64
246.597	50.52
246.814	32.08
247.031	-41.64
247.248	75.09
247.464	44.37
247.681	73.04
247.898	-41.64
248.115	73.04
248.332	107.86
248.549	-17.07
248.766	68.95
248.983	48.47
249.2	1.37
249.417	-23.21
249.633	46.42
249.85	60.76
250.067	44.37
250.284	5.46
250.501	-31.4
250.717	68.95
250.934	-37.55
251.151	79.19
251.368	46.42
251.585	42.32
251.801	56.66
252.018	-27.31
252.235	97.62
252.451	11.61
252.668	1.37
252.885	34.13
253.102	44.37
253.318	-10.92
253.535	-12.97
253.752	34.13
253.968	-0.68
254.185	40.28
254.401	66.9
254.618	9.56
254.835	-0.68
255.051	64.85
255.268	46.42
255.484	-0.68
255.701	36.18
255.917	27.99
256.134	44.37
256.351	23.89
256.567	19.8
256.784	-41.64
257	-2.73
257.217	-10.92
257.433	93.52
257.65	-0.68
257.866	48.47
258.082	25.94
258.299	5.46
258.515	-8.87
258.732	11.61
258.948	23.89
259.165	-29.35
259.381	87.38
259.597	64.85
259.814	75.09
260.03	-8.87
260.246	5.46
260.463	-12.97
260.679	91.48
260.895	30.04
261.112	56.66
261.328	9.56
261.544	-0.68
261.761	-23.21
261.977	23.89
262.193	13.65
262.409	7.51
262.626	38.23
262.842	-15.02
263.058	46.42
263.274	38.23
263.49	58.71
263.707	66.9
263.923	27.99
264.139	91.48
264.355	-41.64
264.571	46.42
264.787	58.71
265.004	81.24
265.22	-0.68
265.436	75.09
265.652	-43.69
265.868	13.65
266.084	66.9
266.3	36.18
266.516	-15.02
266.732	42.32
266.948	-4.78
267.164	9.56
267.38	-51.88
267.596	13.65
267.812	36.18
268.028	60.76
268.244	17.75
268.46	7.51
268.676	58.71
268.892	79.19
269.108	-23.21
269.324	97.62
269.54	1.37
269.756	36.18
269.972	-23.21
270.188	64.85
270.403	75.09
270.619	64.85
270.835	3.41
271.051	25.94
271.267	27.99
271.483	-8.87
271.698	-23.21
271.914	85.33
272.13	11.61
272.346	40.28
272.562	42.32
272.777	68.95
272.993	-35.5
273.209	44.37
273.425	60.76
273.64	15.7
273.856	-29.35
274.072	101.72
274.287	66.9
274.503	120.15
274.719	34.13
274.934	56.66
275.15	3.41
275.366	19.8
275.581	17.75
275.797	25.94
276.012	34.13
276.228	23.89
276.444	19.8
276.659	73.04
276.875	-31.4
277.09	73.04
277.306	11.61
277.521	93.52
277.737	68.95
277.952	114
278.168	11.61
278.383	71
278.599	-0.68
278.814	19.8
279.03	-0.68
279.245	40.28
279.461	-12.97
279.676	62.8
279.892	-4.78
280.107	-17.07
280.322	36.18
280.538	40.28
280.753	7.51
280.969	3.41
281.184	-62.12
281.399	77.14
281.615	32.08
281.83	54.61
282.045	-66.22
282.26	-19.11
282.476	58.71
282.691	91.48
282.906	23.89
283.122	-12.97
283.337	60.76
283.552	25.94
283.767	-25.26
283.983	58.71
284.198	38.23
284.413	62.8
284.628	-39.59
284.843	-19.11
285.058	75.09
285.274	-23.21
285.489	-41.64
285.704	-55.98
285.919	9.56
286.134	32.08
286.349	-21.16
286.564	-37.55
286.779	40.28
286.995	-2.73
287.21	-2.73
287.425	-82.6
287.64	23.89
287.855	-66.22
288.07	36.18
288.285	13.65
288.5	66.9
288.715	32.08
288.93	27.99
289.145	62.8
289.36	-15.02
289.575	-19.11
289.79	-2.73
290.004	7.51
290.219	13.65
290.434	38.23
290.649	-15.02
290.864	5.46
291.079	-23.21
291.294	9.56
291.509	64.85
291.724	13.65
291.938	-8.87
292.153	73.04
292.368	15.7
292.583	15.7
292.798	91.48
293.012	46.42
293.227	21.85
293.442	-58.03
293.657	50.52
293.871	9.56
294.086	-8.87
294.301	60.76
294.516	23.89
294.73	-29.35
294.945	21.85
295.16	5.46
295.374	60.76
295.589	5.46
295.804	97.62
296.018	27.99
296.233	19.8
296.447	54.61
296.662	64.85
296.877	58.71
297.091	21.85
297.306	44.37
297.52	-15.02
297.735	19.8
297.949	54.61
298.164	95.57
298.378	-4.78
298.593	-0.68
298.807	-64.17
299.022	71
299.236	19.8
299.451	25.94
299.665	-45.74
299.88	62.8
300.094	-0.68
300.309	-35.5
300.523	32.08
300.737	17.75
300.952	-0.68
301.166	17.75
301.381	40.28
301.595	58.71
301.809	-21.16
302.024	91.48
302.238	11.61
302.452	-19.11
302.667	25.94
302.881	58.71
303.095	15.7
303.309	56.66
303.524	15.7
303.738	21.85
303.952	9.56
304.166	66.9
304.381	17.75
304.595	9.56
304.809	-33.45
305.023	54.61
305.237	11.61
305.452	27.99
305.666	19.8
305.88	97.62
306.094	40.28
306.308	21.85
306.522	15.7
306.736	89.43
306.95	7.51
307.164	19.8
307.379	1.37
307.593	40.28
307.807	27.99
308.021	-64.17
308.235	9.56
308.449	-4.78
308.663	40.28
308.877	17.75
309.091	3.41
309.305	48.47
309.519	-55.98
309.733	36.18
309.947	60.76
310.161	-23.21
310.374	7.51
310.588	32.08
310.802	44.37
311.016	-37.55
311.23	56.66
311.444	38.23
311.658	71
311.872	103.76
312.085	56.66
312.299	101.72
312.513	44.37
312.727	66.9
312.941	68.95
313.154	44.37
313.368	21.85
313.582	60.76
313.796	-2.73
314.009	42.32
314.223	3.41
314.437	21.85
314.651	62.8
314.864	38.23
315.078	60.76
315.292	48.47
315.505	-8.87
315.719	97.62
315.933	64.85
316.146	25.94
316.36	81.24
316.573	30.04
316.787	5.46
317.001	13.65
317.214	30.04
317.428	21.85
317.641	81.24
317.855	73.04
318.068	19.8
318.282	19.8
318.495	11.61
318.709	25.94
318.922	58.71
319.136	3.41
319.349	85.33
319.563	-21.16
319.776	50.52
319.99	34.13
320.203	83.28
320.417	44.37
320.63	11.61
320.843	5.46
321.057	1.37
321.27	77.14
321.483	17.75
321.697	-51.88
321.91	-8.87
322.124	19.8
322.337	36.18
322.55	91.48
322.763	9.56
322.977	42.32
323.19	-0.68
323.403	73.04
323.617	11.61
323.83	36.18
324.043	21.85
324.256	-25.26
324.469	30.04
324.683	40.28
324.896	34.13
325.109	46.42
325.322	-6.83
325.535	9.56
325.748	-8.87
325.962	7.51
326.175	50.52
326.388	95.57
326.601	30.04
326.814	64.85
327.027	38.23
327.24	42.32
327.453	32.08
327.666	9.56
327.879	15.7
328.092	64.85
328.305	30.04
328.518	15.7
328.731	-6.83
328.944	-12.97
329.157	-27.31
329.37	56.66
329.583	68.95
329.796	56.66
330.009	40.28
330.222	19.8
330.435	87.38
330.648	15.7
330.861	17.75
331.073	19.8
331.286	34.13
331.499	42.32
331.712	19.8
331.925	85.33
332.138	60.76
332.35	60.76
332.563	-31.4
332.776	109.91
332.989	68.95
333.202	19.8
333.414	1.37
333.627	38.23
333.84	3.41
334.053	58.71
334.265	9.56
334.478	30.04
334.691	-31.4
334.903	-0.68
335.116	62.8
335.329	23.89
335.541	56.66
335.754	93.52
335.966	-4.78
336.179	109.91
336.392	-45.74
336.604	-2.73
336.817	44.37
337.029	34.13
337.242	42.32
337.454	93.52
337.667	52.56
337.88	-17.07
338.092	32.08
338.305	3.41
338.517	52.56
338.729	64.85
338.942	60.76
339.154	66.9
339.367	13.65
339.579	11.61
339.792	-29.35
340.004	46.42
340.217	64.85
340.429	89.43
340.641	17.75
340.854	-10.92
341.066	11.61
341.278	25.94
341.491	71
341.703	-4.78
341.915	52.56
342.128	116.05
342.34	17.75
342.552	-10.92
342.764	79.19
342.977	34.13
343.189	99.67
343.401	23.89
343.613	27.99
343.826	19.8
344.038	44.37
344.25	126.29
344.462	3.41
344.674	19.8
344.886	-4.78
345.099	85.33
345.311	79.19
345.523	114
345.735	-53.93
345.947	109.91
346.159	23.89
346.371	-0.68
346.583	-76.46
346.795	58.71
347.007	5.46
347.219	-29.35
347.431	34.13
347.643	75.09
347.855	77.14
348.067	32.08
348.279	58.71
348.491	56.66
348.703	-58.03
348.915	19.8
349.127	56.66
349.339	62.8
349.551	7.51
349.763	36.18
349.975	52.56
350.187	34.13
350.399	46.42
350.61	13.65
350.822	-2.73
351.034	40.28
351.246	-29.35
351.458	11.61
351.669	34.13
351.881	50.52
352.093	85.33
352.305	36.18
352.517	42.32
352.728	111.96
352.94	99.67
353.152	81.24
353.363	34.13
353.575	77.14
353.787	-17.07
353.999	52.56
354.21	50.52
354.422	54.61
354.633	1.37
354.845	36.18
355.057	99.67
355.268	17.75
355.48	36.18
355.692	38.23
355.903	-33.45
356.115	25.94
356.326	48.47
356.538	42.32
356.749	25.94
356.961	27.99
357.172	15.7
357.384	-35.5
357.595	73.04
357.807	21.85
358.018	27.99
358.23	-15.02
358.441	7.51
358.653	71
358.864	54.61
359.075	44.37
359.287	-6.83
359.498	56.66
359.709	75.09
359.921	25.94
360.132	44.37
360.344	103.76
360.555	44.37
360.766	68.95
360.977	-49.83
361.189	114
361.4	-19.11
361.611	116.05
361.823	11.61
362.034	93.52
362.245	17.75
362.456	19.8
362.667	21.85
362.879	126.29
363.09	44.37
363.301	-2.73
363.512	64.85
363.723	-29.35
363.935	81.24
364.146	101.72
364.357	1.37
364.568	32.08
364.779	30.04
364.99	58.71
365.201	-39.59
365.412	52.56
365.623	58.71
365.834	44.37
366.045	83.28
366.256	27.99
366.467	75.09
366.678	36.18
366.889	-31.4
367.1	19.8
367.311	56.66
367.522	38.23
367.733	97.62
367.944	66.9
368.155	30.04
368.366	54.61
368.577	19.8
368.788	85.33
368.999	30.04
369.209	15.7
369.42	54.61
369.631	62.8
369.842	25.94
370.053	42.32
370.264	44.37
370.474	42.32
370.685	32.08
370.896	17.75
371.107	34.13
371.317	91.48
371.528	58.71
371.739	3.41
371.95	75.09
372.16	15.7
372.371	-15.02
372.582	77.14
372.792	9.56
373.003	-0.68
373.214	-0.68
373.424	93.52
373.635	-17.07
373.846	52.56
374.056	40.28
374.267	64.85
374.477	19.8
374.688	-6.83
374.898	27.99
375.109	146.77
375.319	77.14
375.53	56.66
375.74	38.23
375.951	105.81
376.161	105.81
376.372	30.04
376.582	68.95
376.793	42.32
377.003	13.65
377.214	50.52
377.424	52.56
377.635	23.89
377.845	-82.6
378.055	-8.87
378.266	50.52
378.476	50.52
378.686	-6.83
378.897	93.52
379.107	79.19
379.317	91.48
379.528	89.43
379.738	126.29
379.948	-0.68
380.158	66.9
380.369	64.85
380.579	73.04
380.789	66.9
380.999	89.43
381.21	79.19
381.42	9.56
381.63	68.95
381.84	97.62
382.05	27.99
382.261	114
382.471	46.42
382.681	19.8
382.891	44.37
383.101	68.95
383.311	3.41
383.521	103.76
383.731	44.37
383.941	50.52
384.151	-15.02
384.361	27.99
384.571	85.33
384.781	50.52
384.991	25.94
385.201	85.33
385.411	71
385.621	114
385.831	7.51
386.041	27.99
386.251	107.86
386.461	54.61
386.671	13.65
386.881	95.57
387.091	101.72
387.301	60.76
387.511	32.08
387.72	21.85
387.93	3.41
388.14	77.14
388.35	52.56
388.56	97.62
388.769	46.42
388.979	95.57
389.189	60.76
389.399	103.76
389.609	32.08
389.818	93.52
390.028	71
390.238	46.42
390.447	5.46
390.657	34.13
390.867	3.41
391.076	64.85
391.286	68.95
391.496	97.62
391.705	54.61
391.915	50.52
392.125	60.76
392.334	93.52
392.544	105.81
392.753	44.37
392.963	60.76
393.172	64.85
393.382	109.91
393.591	52.56
393.801	95.57
394.01	85.33
394.22	32.08
394.429	126.29
394.639	81.24
394.848	109.91
395.058	66.9
395.267	60.76
395.477	93.52
395.686	21.85
395.895	52.56
396.105	130.39
396.314	126.29
396.524	109.91
396.733	93.52
396.942	159.06
397.152	109.91
397.361	44.37
397.57	97.62
397.78	85.33
397.989	79.19
398.198	152.92
398.407	97.62
398.617	93.52
398.826	42.32
399.035	93.52
399.244	75.09
399.453	77.14
399.663	87.38
399.872	126.29
400.081	105.81
400.29	73.04
400.499	36.18
400.708	140.63
400.917	140.63
401.127	101.72
401.336	107.86
401.545	148.82
401.754	142.68
401.963	75.09
402.172	48.47
402.381	159.06
402.59	189.78
402.799	140.63
403.008	142.68
403.217	148.82
403.426	177.49
403.635	111.96
403.844	114
404.053	120.15
404.262	154.96
404.471	214.35
404.68	118.1
404.888	122.2
405.097	144.72
405.306	171.35
405.515	83.28
405.724	109.91
405.933	208.21
406.142	173.39
406.35	148.82
406.559	271.7
406.768	224.59
406.977	279.89
407.185	163.15
407.394	238.93
407.603	216.4
407.812	234.83
408.02	283.99
408.229	191.83
408.438	253.27
408.646	257.36
408.855	320.85
409.064	392.53
409.272	267.6
409.481	257.36
409.69	224.59
409.898	302.42
410.107	378.19
410.315	324.94
410.524	294.22
410.733	363.86
410.941	380.24
411.15	433.49
411.358	427.34
411.567	458.06
411.775	441.68
411.984	458.06
412.192	482.64
412.401	480.59
412.609	503.12
412.818	599.37
413.026	595.28
413.234	511.31
413.443	585.04
413.651	587.08
413.86	599.37
414.068	652.62
414.276	716.11
414.485	757.07
414.693	720.2
414.901	781.64
415.11	716.11
415.318	820.55
415.526	888.14
415.734	894.28
415.943	900.42
416.151	994.63
416.359	937.29
416.567	941.38
416.776	1011.01
416.984	1148.23
417.192	1166.66
417.4	1178.95
417.608	1111.36
417.817	1197.38
418.025	1199.43
418.233	1267.01
418.441	1346.88
418.649	1301.83
418.857	1414.46
419.065	1406.27
419.273	1494.33
419.481	1639.74
419.689	1629.5
419.897	1758.52
420.105	1641.79
420.313	1791.29
420.521	1826.11
420.729	1838.39
420.937	1889.59
421.145	2051.38
421.353	2188.6
421.561	2219.32
421.769	2127.16
421.977	2336.05
422.185	2258.23
422.393	2405.68
422.601	2624.81
422.809	2514.22
423.017	2508.08
423.224	2800.94
423.432	2907.43
423.64	2862.38
423.848	3099.94
424.056	2964.78
424.263	3204.39
424.471	3286.31
424.679	3349.79
424.887	3583.26
425.094	3626.27
425.302	3726.62
425.51	3786.01
425.718	3921.18
425.925	3933.47
426.133	4060.44
426.341	4291.86
426.548	4496.66
426.756	4486.42
426.964	4482.32
427.171	4711.69
427.379	4922.63
427.586	4986.12
427.794	5332.23
428.001	5375.24
428.209	5643.52
428.417	5584.13
428.624	5922.04
428.832	6077.69
429.039	5856.51
429.247	5760.25
429.454	6417.65
429.662	6835.44
429.869	6343.92
430.076	6817.01
430.284	6880.49
430.491	7023.85
430.699	7361.77
430.906	7496.93
431.114	7498.98
431.321	7695.58
431.528	7943.39
431.736	8414.42
431.943	8926.41
432.15	8551.63
432.358	8664.27
432.565	9094.35
432.772	9155.79
432.979	9845.95
433.187	9776.32
433.394	9784.51
433.601	10493.11
433.808	10587.32
434.016	10251.45
434.223	10845.36
434.43	11498.66
434.637	11287.72
434.844	11973.79
435.052	12219.55
435.259	12256.41
435.466	12268.7
435.673	12104.86
435.88	12930.19
436.087	13878.4
436.294	13468.81
436.501	13497.48
436.708	13593.73
436.915	14013.57
437.122	14683.25
437.329	14695.54
437.537	15168.62
437.743	15338.6
437.95	15271.02
438.157	15912.03
438.364	16497.75
438.571	16514.14
438.778	16567.38
438.985	18293.82
439.192	17396.81
439.399	17996.87
439.606	17415.24
439.813	18682.94
440.02	19590.19
440.227	19217.46
440.433	19172.4
440.64	19788.84
440.847	19469.36
441.054	19977.25
441.261	21589
441.467	21500.94
441.674	21826.57
441.881	22631.42
442.088	22557.69
442.294	22107.14
442.501	22531.07
442.708	23225.33
442.914	24114.15
443.121	24996.82
443.328	24230.88
443.534	26512.32
443.741	25474
443.948	25363.41
444.154	27102.14
444.361	27251.64
444.568	26938.3
444.774	26858.43
444.981	27315.12
445.187	28033.96
445.394	28898.2
445.6	28998.55
445.807	31607.67
446.013	30303.11
446.22	30839.68
446.426	31949.68
446.633	31871.85
446.839	33358.68
447.046	31861.62
447.252	33512.28
447.459	33459.03
447.665	33334.1
447.871	35298.11
448.078	36283.18
448.284	35087.17
448.491	35881.78
448.697	37098.27
448.903	37759.77
449.11	37802.77
449.316	37059.36
449.522	37538.58
449.728	38818.57
449.935	39131.9
450.141	39084.8
450.347	40338.16
450.553	38892.29
450.76	39047.94
450.966	40325.87
451.172	40366.83
451.378	41140.96
451.584	40729.32
451.791	41140.96
451.997	41241.31
452.203	41603.8
452.409	41880.28
452.615	41362.14
452.821	40289.01
453.027	39252.73
453.233	41892.57
453.44	40381.17
453.646	40659.69
453.852	40983.27
454.058	41509.6
454.264	40166.13
454.47	41155.3
454.676	39805.69
454.882	41011.94
455.088	37683.99
455.294	38331.15
455.5	38990.59
455.705	39262.97
455.911	37749.53
456.117	37047.07
456.323	36569.9
456.529	34272.07
456.735	36256.56
456.941	35156.8
457.147	34812.74
457.352	33655.64
457.558	32930.65
457.764	33446.74
457.97	32744.29
458.176	31972.21
458.381	32181.1
458.587	30167.94
458.793	30262.15
458.999	28861.34
459.204	31112.06
459.41	30118.79
459.616	28099.5
459.821	28124.07
460.027	28056.49
460.233	27513.78
460.438	26229.7
460.644	26160.07
460.85	25164.76
461.055	25099.22
461.261	24677.34
461.466	22955
461.672	22025.22
461.878	23616.49
462.083	22371.33
462.289	21644.3
462.494	21437.45
462.7	20683.8
462.905	20067.36
463.111	20798.49
463.316	20839.45
463.522	20495.39
463.727	20180
463.932	20882.45
464.138	20272.16
464.343	20450.33
464.549	19758.12
464.754	20417.57
464.959	19868.71
465.165	19842.09
465.37	19033.14
465.575	18578.49
465.781	19538.99
465.986	19704.87
466.191	18785.33
466.397	18574.39
466.602	17667.14
466.807	18189.38
467.012	18146.37
467.218	17996.87
467.423	17945.67
467.628	18023.49
467.833	18615.35
468.038	17767.49
468.244	17697.86
468.449	18459.71
468.654	17480.78
468.859	17574.99
469.064	17208.4
469.269	16774.23
469.474	16614.49
469.679	17167.44
469.885	16624.73
470.09	16952.4
470.295	17007.7
470.5	16428.12
470.705	16471.13
470.91	16262.24
471.115	15852.64
471.32	16477.27
471.525	15936.61
471.73	15594.6
471.935	15524.97
472.139	15189.1
472.344	15416.43
472.549	15139.95
472.754	14988.4
472.959	14775.41
473.164	14263.42
473.369	14371.96
473.574	14873.71
473.778	14722.16
473.983	14728.31
474.188	14566.52
474.393	13503.62
474.598	13945.98
474.802	13876.35
475.007	13608.07
475.212	13651.08
475.417	12981.39
475.621	13108.37
475.826	13315.21
476.031	12741.78
476.235	12473.49
476.44	13024.4
476.645	12543.13
476.849	12508.31
477.054	12518.55
477.259	12016.8
477.463	12305.56
477.668	11840.67
477.872	12027.04
478.077	11943.07
478.282	11510.95
478.486	11668.64
478.691	11326.63
478.895	11404.46
479.1	11535.53
479.304	11388.07
479.509	10914.99
479.713	11312.3
479.918	10962.09
480.122	10620.08
480.326	11023.53
480.531	10925.23
480.735	10927.28
480.94	10808.5
481.144	10849.46
481.348	10581.17
481.553	10677.43
481.757	10333.37
481.961	10581.17
482.166	10491.06
482.37	10587.32
482.574	10296.5
482.778	10458.29
482.983	10757.3
483.187	10454.2
483.391	10611.89
483.595	10196.15
483.8	10245.3
484.004	10439.86
484.208	10536.12
484.412	10736.82
484.616	10255.54
484.821	10415.29
485.025	10226.87
485.229	10454.2
485.433	10210.49
485.637	10538.16
485.841	10474.68
486.045	10308.79
486.249	10294.46
486.453	10474.68
486.657	10507.44
486.861	10503.35
487.065	10108.09
487.269	10628.28
487.473	10175.67
487.677	10527.92
487.881	10480.82
488.085	10226.87
488.289	10513.59
488.493	10343.61
488.697	10550.45
488.901	10429.62
489.105	10480.82
489.309	10562.74
489.512	10470.58
489.716	10615.99
489.92	10448.05
490.124	10654.9
490.328	10611.89
490.531	10652.85
490.735	10706.1
490.939	10761.39
491.143	10677.43
491.346	10736.82
491.55	10964.14
491.754	10912.94
491.958	10632.37
492.161	10822.83
492.365	10849.46
492.569	10951.85
492.772	10898.61
492.976	11062.44
493.18	11001.01
493.383	11209.9
493.587	11257
493.79	11465.89
493.994	11459.75
494.197	11418.79
494.401	11603.11
494.605	11422.89
494.808	11664.55
495.012	11619.49
495.215	11885.73
495.419	11803.81
495.622	11748.51
495.825	12160.16
496.029	12229.79
496.232	12233.88
496.436	12323.99
496.639	12512.41
496.843	12412.06
497.046	12737.68
497.249	12995.73
497.453	12885.14
497.656	13112.46
497.859	13161.61
498.063	13057.17
498.266	13186.19
498.469	13335.69
498.673	13733
498.876	13636.74
499.079	13819.01
499.282	13771.91
499.485	14101.63
499.689	14408.83
499.892	14396.54
500.095	14642.29
500.298	15090.8
500.501	14752.88
500.705	15213.68
500.908	15369.32
501.111	15404.14
501.314	15402.09
501.517	15680.61
501.72	15846.5
501.923	15871.08
502.126	16190.56
502.329	16442.46
502.532	16540.76
502.735	16696.41
502.938	16852.05
503.141	17065.04
503.344	17339.47
503.547	17165.39
503.75	17499.21
503.953	17773.64
504.156	17714.25
504.359	17767.49
504.562	18295.87
504.765	18705.46
504.968	18873.4
505.17	18934.84
505.373	18852.92
505.576	19299.37
505.779	19489.84
505.982	19704.87
506.185	19885.09
506.387	19891.24
506.59	19770.41
506.793	20773.91
506.996	20106.27
507.198	20960.28
507.401	20853.78
507.604	21386.25
507.807	21703.69
508.009	21541.9
508.212	21953.54
508.415	21994.5
508.617	22490.11
508.82	22346.75
509.022	22127.62
509.225	22615.04
509.428	22596.6
509.63	23391.22
509.833	23466.99
510.035	23786.47
510.238	23798.76
510.44	24103.91
510.643	24400.86
510.845	24370.15
511.048	24366.05
511.25	25097.17
511.453	25043.93
511.655	25891.79
511.858	25715.66
512.06	25816.01
512.262	26035.14
512.465	26276.8
512.667	26477.51
512.87	26942.39
513.072	26969.02
513.274	27364.28
513.477	27356.08
513.679	27755.44
513.881	28009.39
514.084	28269.48
514.286	28343.2
514.488	28367.78
514.69	29322.13
514.893	29162.39
515.095	29332.37
515.297	29467.54
515.499	29756.3
515.701	30145.42
515.904	30423.94
516.106	30213
516.308	30661.51
516.51	31388.53
516.712	30856.06
516.914	31345.53
517.116	31851.38
517.318	31914.86
517.52	32121.71
517.722	32359.27
517.925	32768.87
518.127	33213.27
518.329	33207.13
518.531	32858.98
518.733	33561.43
518.935	33618.77
519.136	34145.1
519.338	34368.33
519.54	34263.88
519.742	34702.15
519.944	35322.68
520.146	35666.74
520.348	35693.36
520.55	35423.03
520.752	35644.21
520.954	36555.56
521.155	36115.25
521.357	36856.61
521.559	36875.04
521.761	37624.6
521.963	37550.87
522.164	37425.95
522.366	37604.12
522.568	37786.39
522.77	38200.08
522.971	38417.16
523.173	38316.81
523.375	38513.42
523.576	39140.1
523.778	39127.81
523.98	39230.21
524.181	39672.57
524.383	39416.57
524.584	39967.48
524.786	40102.64
524.988	39586.55
525.189	40397.55
525.391	40463.08
525.592	40710.89
525.794	40678.12
525.995	40637.16
526.197	40792.81
526.398	41100
526.6	41480.92
526.801	41226.98
527.003	42027.73
527.204	42062.55
527.406	41951.96
527.607	41902.81
527.808	42115.79
528.01	41603.8
528.211	42285.78
528.412	42635.98
528.614	42687.18
528.815	42629.83
529.016	43016.9
529.218	42705.61
529.419	42793.67
529.62	42517.2
529.822	42965.7
530.023	42791.62
530.224	42857.16
530.425	42908.36
530.626	42623.69
530.828	42904.26
531.029	43963.06
531.23	43111.11
531.431	43528.89
531.632	43250.37
531.833	43606.72
532.035	43537.08
532.236	43791.03
532.437	43614.91
532.638	43129.54
532.839	43616.96
533.04	43635.39
533.241	43711.16
533.442	44380.85
533.643	43936.44
533.844	43745.98
534.045	43743.93
534.246	43565.76
534.447	43922.1
534.648	43381.44
534.849	43954.87
535.05	43532.99
535.251	43965.11
535.451	43936.44
535.652	43856.57
535.853	43659.96
536.054	43444.93
536.255	44327.6
536.456	43651.77
536.657	44270.26
536.857	43750.07
537.058	43606.72
537.259	44298.93
537.46	44221.11
537.66	43909.82
537.861	44094.13
538.062	43573.95
538.263	43981.49
538.463	44044.98
538.664	43788.99
538.865	43752.12
539.065	44468.91
539.266	43463.36
539.466	43956.92
539.667	43479.74
539.868	44405.42
540.068	43586.24
540.269	43799.22
540.469	43850.42
540.67	43743.93
540.87	43735.74
541.071	43676.35
541.271	43918.01
541.472	43602.62
541.672	43434.69
541.873	43563.71
542.073	42988.23
542.274	44098.23
542.474	43643.58
542.675	43350.72
542.875	43930.29
543.075	43532.99
543.276	43248.32
543.476	43668.15
543.676	43463.36
543.877	43737.79
544.077	43870.9
544.277	43475.65
544.478	43432.64
544.678	43799.22
544.878	43219.65
545.078	43670.2
545.279	43375.3
545.479	43332.29
545.679	43233.99
545.879	43471.55
546.079	43453.12
546.28	43768.51
546.48	43324.1
546.68	43885.24
546.88	43625.15
547.08	43336.38
547.28	43537.08
547.48	43348.67
547.68	43580.09
547.88	42990.28
548.081	43160.26
548.281	43291.33
548.481	43223.75
548.681	43410.11
548.881	43031.24
549.081	43193.03
549.28	43098.82
549.48	43373.25
549.68	43023.04
549.88	43530.94
550.08	43147.97
550.28	43250.37
550.48	42613.45
550.68	43297.47
550.88	43143.88
551.08	42816.2
551.279	43186.88
551.479	43096.77
551.679	42820.3
551.879	42941.13
552.079	43264.71
552.278	43045.57
552.478	43053.76
552.678	43084.48
552.878	42982.09
553.077	42842.82
553.277	42615.5
553.477	43064
553.676	42803.91
553.876	42717.9
554.076	42347.22
554.275	42541.77
554.475	42390.22
554.674	42816.2
554.874	42779.34
555.074	42201.81
555.273	42373.84
555.473	42664.65
555.672	42502.86
555.872	42574.54
556.071	42492.62
556.271	42318.54
556.47	42328.78
556.67	41997.01
556.869	42062.55
557.068	42627.79
557.268	42164.95
557.467	42132.18
557.667	42042.07
557.866	41890.52
558.065	41988.82
558.265	41845.46
558.464	41360.09
558.663	42207.95
558.863	41607.9
559.062	42386.13
559.261	41546.46
559.461	42193.62
559.66	41308.9
559.859	41761.5
560.058	41482.97
560.258	41421.53
560.457	41194.21
560.656	41784.02
560.855	41577.18
561.054	41485.02
561.253	41286.37
561.453	41306.85
561.652	41444.06
561.851	41149.15
562.05	40893.16
562.249	41128.67
562.448	41450.2
562.647	41075.43
562.846	40643.31
563.045	41056.99
563.244	40467.18
563.443	41243.36
563.642	40393.45
563.841	40841.96
564.04	40483.56
564.239	40674.02
564.438	40346.35
564.637	40309.49
564.836	40458.99
565.035	40446.7
565.234	39938.8
565.432	39756.53
565.631	40217.33
565.83	40008.43
566.029	39928.56
566.228	40102.64
566.427	39725.82
566.625	39682.81
566.824	39797.49
567.023	40022.77
567.222	39189.25
567.42	39639.8
567.619	39318.27
567.818	39099.14
568.016	39076.61
568.215	39334.65
568.414	39133.95
568.612	39142.14
568.811	38957.83
569.01	38738.69
569.208	38671.11
569.407	39025.41
569.605	38388.49
569.804	39004.93
570.002	38540.04
570.201	38882.05
570.4	38118.16
570.598	38294.29
570.797	38091.54
570.995	38011.67
571.193	37692.18
571.392	38214.41
571.59	37565.21
571.789	37903.12
571.987	37468.95
572.186	37626.65
572.384	37352.22
572.582	37720.85
572.781	37378.84
572.979	37073.7
573.177	37399.32
573.376	37157.66
573.574	37085.98
573.772	37192.48
573.971	36815.65
574.169	36946.72
574.367	36340.52
574.565	37102.37
574.763	36477.74
574.962	36602.66
575.16	36279.08
575.358	36801.32
575.556	36377.39
575.754	36473.64
575.952	35998.51
576.151	36453.16
576.349	35789.62
576.547	35742.52
576.745	36279.08
576.943	36447.02
577.141	35971.89
577.339	35838.77
577.537	35758.9
577.735	35658.55
577.933	35459.9
578.131	35463.99
578.329	35162.94
578.527	34904.9
578.725	35371.83
578.923	35132.22
579.121	35021.63
579.319	34779.97
579.516	35226.43
579.714	35074.88
579.912	34511.69
580.11	34530.12
580.308	34894.66
580.506	34679.62
580.704	34237.26
580.901	34222.92
581.099	34460.49
581.297	34351.95
581.495	34294.6
581.692	33893.2
581.89	33581.91
582.088	34161.48
582.285	33794.9
582.483	34100.04
582.681	33706.83
582.878	33489.75
583.076	33002.33
583.274	33690.45
583.471	32861.02
583.669	33438.55
583.866	32777.06
584.064	32979.81
584.262	32779.11
584.459	33043.29
584.657	32555.88
584.854	32904.03
585.052	32201.58
585.249	32531.3
585.447	32514.92
585.644	32156.52
585.841	32303.98
586.039	32596.84
586.236	31982.45
586.434	32125.8
586.631	31949.68
586.828	32078.7
587.026	32187.24
587.223	32068.46
587.42	31439.73
587.618	31822.7
587.815	31400.82
588.012	31415.16
588.21	31103.87
588.407	31728.5
588.604	30937.98
588.801	30870.4
588.999	31265.66
589.196	30749.57
589.393	31042.43
589.59	30927.74
589.787	30589.83
589.984	30589.83
590.182	30172.04
590.379	30700.42
590.576	30296.97
590.773	30206.86
590.97	30169.99
591.167	30333.83
591.364	29821.84
591.561	29877.13
591.758	29766.54
591.955	29911.95
592.152	29870.99
592.349	29469.59
592.546	29647.76
592.743	29447.06
592.94	29176.73
593.137	29459.35
593.334	29602.71
593.531	28691.36
593.727	29166.49
593.924	28973.98
594.121	28826.53
594.318	28988.31
594.515	28748.7
594.712	28904.35
594.908	28353.44
595.105	28611.49
595.302	28355.49
595.499	28345.25
595.696	28283.81
595.892	28484.51
596.089	28218.28
596.286	28017.58
596.482	27737.01
596.679	27988.91
596.876	28251.05
597.072	27351.99
597.269	27771.82
597.466	27427.76
597.662	27284.4
597.859	27470.77
598.055	27577.26
598.252	27186.1
598.448	27149.24
598.645	27067.32
598.841	26686.4
599.038	26719.17
599.234	26893.24
599.431	26917.82
599.627	26715.07
599.824	26780.6
600.02	26774.46
600.217	26323.91
600.413	26495.94
600.609	26174.41
600.806	25965.51
601.002	26080.2
601.198	26358.72
601.395	25861.07
601.591	25631.69
601.787	26205.13
601.984	25678.8
602.18	25842.63
602.376	25560.02
602.572	25535.44
602.769	25318.35
602.965	25156.57
603.161	25435.09
603.357	25289.68
603.553	24978.39
603.75	25357.27
603.946	25355.22
604.142	25232.34
604.338	24781.79
604.534	25023.45
604.73	24701.92
604.926	24607.71
605.122	24771.55
605.318	24454.11
605.514	24370.15
605.71	24384.48
605.906	24351.71
606.102	24286.18
606.298	24423.39
606.494	23995.37
606.69	24034.28
606.886	24239.08
607.082	23991.27
607.278	24239.08
607.474	23518.19
607.67	24167.4
607.866	23333.87
608.062	24060.9
608.257	23290.87
608.453	24187.88
608.649	23604.21
608.845	23538.67
609.041	23239.67
609.236	23495.66
609.432	23374.83
609.628	23309.3
609.824	23110.64
610.019	23397.36
610.215	22979.57
610.411	23081.97
610.606	23206.9
610.802	23139.32
610.998	23032.82
611.193	23049.21
611.389	22735.87
611.584	22979.57
611.78	22617.08
611.976	22608.89
612.171	22891.51
612.367	22662.14
612.562	22770.68
612.758	22213.63
612.953	22238.21
613.149	22840.31
613.344	22156.29
613.539	22907.9
613.735	22477.82
613.93	22451.2
614.126	22221.83
614.321	22674.43
614.517	22223.87
614.712	22311.94
614.907	21945.35
615.103	22432.77
615.298	22152.2
615.493	22187.01
615.688	21711.88
615.884	22184.96
616.079	21763.08
616.274	21926.92
616.47	21812.23
616.665	21586.96
616.86	21963.78
617.055	21376.02
617.25	21701.64
617.445	21707.79
617.641	21472.27
617.836	21681.16
618.031	21134.35
618.226	21517.32
618.421	21343.25
618.616	21156.88
618.811	20882.45
619.006	21701.64
619.201	20872.21
619.396	20853.78
619.591	20677.66
619.786	21062.68
619.981	20577.31
620.176	20952.09
620.371	20571.16
620.566	20704.28
620.761	20208.67
620.956	20638.75
621.151	20266.02
621.346	20323.36
621.541	19860.52
621.735	20128.8
621.93	19909.67
622.125	19860.52
622.32	19305.52
622.515	19702.82
622.709	19319.85
622.904	19381.29
623.099	19455.02
623.294	19348.53
623.488	19033.14
623.683	19102.77
623.878	18566.2
624.072	18768.95
624.267	18975.8
624.462	18824.25
624.656	18476.09
624.851	18611.26
625.046	18320.45
625.24	18205.76
625.435	18263.1
625.629	17931.33
625.824	17865.8
626.018	17888.32
626.213	17675.34
626.407	17595.46
626.602	17390.67
626.796	17554.51
626.991	17355.85
627.185	17511.5
627.38	17284.17
627.574	16944.21
627.768	16921.68
627.963	16845.91
628.157	16716.89
628.352	16798.81
628.546	16434.27
628.74	16837.72
628.935	16319.58
629.129	16237.66
629.323	16118.88
629.517	16268.38
629.712	16295
629.906	16202.85
630.1	15645.8
630.294	15770.72
630.489	15697
630.683	16133.22
630.877	15416.43
631.071	15443.05
631.265	15490.15
631.459	15178.86
631.653	15383.66
631.848	15152.24
632.042	14920.82
632.236	15289.45
632.43	15027.31
632.624	14939.25
632.818	14759.03
633.012	14660.73
633.206	14918.77
633.4	14621.81
633.594	14386.3
633.788	14568.57
633.982	14564.47
634.176	14406.78
634.369	14349.43
634.563	14187.64
634.757	14103.68
634.951	13970.56
635.145	14122.11
635.339	13837.44
635.533	13700.23
635.726	13778.05
635.92	13528.2
636.114	13534.34
636.308	13667.46
636.501	13483.14
636.695	13347.98
636.889	13405.32
637.083	13087.89
637.276	13145.23
637.47	13081.74
637.664	12917.9
637.857	12977.3
638.051	13061.26
638.244	13100.17
638.438	12895.38
638.632	12878.99
638.825	12391.58
639.019	12528.79
639.212	12360.86
639.406	12510.36
639.599	12524.69
639.793	12463.26
639.986	12307.61
640.18	12041.37
640.373	12299.42
640.567	11873.44
640.76	11986.08
640.954	11902.11
641.147	12065.95
641.34	11730.08
641.534	11791.52
641.727	11750.56
641.92	11717.79
642.114	11564.2
642.307	11605.16
642.5	11461.8
642.694	11330.73
642.887	11148.46
643.08	11521.19
643.273	11343.02
643.467	11250.86
643.66	11107.5
643.853	10980.53
644.046	10931.37
644.239	11029.68
644.432	10761.39
644.626	10790.06
644.819	10861.74
645.012	10747.06
645.205	10878.13
645.398	10736.82
645.591	10583.22
645.784	10534.07
645.977	10398.9
646.17	10337.46
646.363	10276.02
646.556	10235.07
646.749	10220.73
646.942	10341.56
647.135	10005.69
647.328	10294.46
647.521	10144.95
647.714	9727.17
647.907	9968.83
648.099	9841.86
648.292	9813.18
648.485	9878.72
648.678	9778.37
648.871	9497.8
649.064	9712.83
649.256	9594.05
649.449	9585.86
649.642	9460.93
649.835	9485.51
650.027	9401.54
650.22	9469.12
650.413	9272.52
650.605	9442.5
650.798	9260.23
650.991	9114.83
651.183	9147.59
651.376	8948.94
651.568	9041.1
651.761	8899.79
651.954	8881.36
652.146	8807.63
652.339	8854.73
652.531	8772.82
652.724	8717.52
652.916	8715.47
653.109	8510.68
653.301	8701.14
653.494	8578.26
653.686	8445.14
653.879	8580.31
654.071	8408.28
654.263	8242.39
654.456	8252.63
654.648	8264.92
654.84	8168.66
655.033	8113.37
655.225	8045.79
655.417	8039.64
655.61	7980.25
655.802	7976.16
655.994	7961.82
656.186	8051.93
656.379	7955.68
656.571	7855.33
656.763	7699.68
656.955	7769.31
657.148	7754.97
657.34	7728.35
657.532	7572.71
657.724	7474.4
657.916	7527.65
658.108	7572.71
658.3	7636.19
658.492	7580.9
658.684	7347.43
658.876	7582.95
659.068	7294.18
659.26	7187.69
659.452	7285.99
659.644	7062.76
659.836	7095.53
660.028	7169.26
660.22	7169.26
660.412	6876.4
660.604	6741.23
660.796	6941.93
660.988	6843.63
661.18	7044.33
661.372	6876.4
661.563	7163.11
661.755	6943.98
661.947	6810.86
662.139	6712.56
662.331	6649.07
662.522	6647.02
662.714	6665.46
662.906	6520.05
663.097	6651.12
663.289	6454.51
663.481	6569.2
663.673	6345.97
663.864	6417.65
664.056	6325.49
664.247	6253.81
664.439	6247.67
664.631	6341.88
664.822	6337.78
665.014	6317.3
665.205	6132.98
665.397	6075.64
665.588	6135.03
665.78	6081.78
665.971	6159.61
666.163	6057.21
666.354	6102.26
666.546	6061.3
666.737	5864.7
666.929	5852.41
667.12	5862.65
667.311	5862.65
667.503	5797.12
667.694	5815.55
667.885	6012.15
668.077	5885.18
668.268	5666.05
668.459	5926.14
668.651	5625.09
668.842	5762.3
669.033	5604.61
669.224	5575.94
669.416	5602.56
669.607	5709.05
669.798	5463.3
669.989	5608.7
670.18	5434.63
670.371	5383.43
670.563	5313.8
670.754	5481.73
670.945	5362.95
671.136	5344.52
671.327	5381.38
671.518	5301.51
671.709	5371.14
671.9	5260.55
672.091	5287.17
672.282	5260.55
672.473	5356.8
672.664	5203.21
672.855	5111.05
673.046	5096.71
673.237	5106.95
673.428	5123.34
673.619	5072.14
673.809	5072.14
674	4957.45
674.191	4984.07
674.382	5084.42
674.573	4988.17
674.764	4922.63
674.954	5029.13
675.145	4924.68
675.336	4928.78
675.527	4941.07
675.717	4943.11
675.908	4779.28
676.099	4838.67
676.289	4832.52
676.48	4826.38
676.671	4721.93
676.861	5000.46
677.052	4766.99
677.243	4711.69
677.433	4719.89
677.624	4787.47
677.814	4732.17
678.005	4734.22
678.195	4668.69
678.386	4605.2
678.576	4660.49
678.767	4664.59
678.957	4435.22
679.148	4586.77
679.338	4488.46
679.529	4451.6
679.719	4467.99
679.909	4551.95
680.1	4554
680.29	4486.42
680.481	4498.7
680.671	4455.7
680.861	4326.68
681.052	4498.7
681.242	4359.44
681.432	4459.79
681.622	4363.54
681.813	4365.59
682.003	4328.72
682.193	4107.54
682.383	4367.63
682.573	4300.05
682.764	4353.3
682.954	4367.63
683.144	4154.65
683.334	4242.71
683.524	4343.06
683.714	4060.44
683.904	4166.93
684.094	4123.93
684.284	4310.29
684.474	4271.38
684.664	4285.72
684.854	4156.69
685.044	4056.34
685.234	4074.78
685.424	4189.46
685.614	4072.73
685.804	3988.76
685.994	4011.29
686.184	4064.54
686.374	4082.97
686.564	3874.07
686.753	3917.08
686.943	3869.98
687.133	3943.71
687.323	3804.44
687.513	3951.9
687.702	3820.83
687.892	3706.14
688.082	3929.37
688.272	3960.09
688.461	3861.79
688.651	3859.74
688.841	3767.58
689.03	3765.53
689.22	3745.05
689.41	3693.85
689.599	3781.92
689.789	3763.48
689.979	3607.84
690.168	3601.69
690.358	3669.28
690.547	3558.69
690.737	3570.97
690.926	3636.51
691.116	3491.1
691.305	3650.85
691.495	3450.14
691.684	3493.15
691.874	3351.84
692.063	3515.68
692.252	3302.69
692.442	3515.68
692.631	3288.36
692.82	3296.55
693.01	3419.43
693.199	3329.31
693.388	3296.55
693.578	3157.29
693.767	3286.31
693.956	3329.31
694.146	3163.43
694.335	3231.01
694.524	3167.53
694.713	3198.24
694.902	3165.48
695.092	3183.91
695.281	3085.61
695.47	3077.41
695.659	3093.8
695.848	3128.61
696.037	3149.09
696.226	3145
696.415	3108.13
696.604	2991.4
696.793	3050.79
696.982	3032.36
697.171	2975.02
697.36	2966.82
697.549	2921.77
697.738	2993.45
697.927	2946.34
698.116	2997.54
698.305	2970.92
698.494	2960.68
698.683	2845.99
698.872	2778.41
699.061	2907.43
699.25	2919.72
699.438	2923.82
699.627	2850.09
699.816	2860.33
700.005	2852.14
700.193	2870.57
700.382	2876.71
700.571	2686.25
700.76	2772.27
700.948	2864.43
701.137	2829.61
701.326	2827.56
701.514	2739.5
701.703	2700.59
701.892	2821.42
702.08	2901.29
702.269	2807.08
702.457	2620.72
702.646	2753.84
702.834	2719.02
703.023	2747.69
703.212	2813.23
703.4	2819.37
703.589	2628.91
703.777	2817.32
703.965	2700.59
704.154	2626.86
704.342	2792.75
704.531	2682.16
704.719	2827.56
704.907	2762.03
705.096	2669.87
705.284	2815.27
705.472	2616.62
705.661	2800.94
705.849	2733.36
706.037	2620.72
706.226	2678.06
706.414	2653.48
706.602	2786.6
706.79	2762.03
706.979	2747.69
707.167	2673.96
707.355	2612.53
707.543	2780.46
707.731	2669.87
707.919	2626.86
708.107	2624.81
708.296	2647.34
708.484	2628.91
708.672	2653.48
708.86	2651.44
709.048	2673.96
709.236	2731.31
709.424	2690.35
709.612	2706.73
709.8	2604.33
709.988	2616.62
710.176	2665.77
710.364	2598.19
710.551	2655.53
710.739	2583.85
710.927	2745.64
711.115	2653.48
711.303	2731.31
711.491	2614.57
711.679	2579.76
711.866	2784.55
712.054	2698.54
712.242	2592.05
712.43	2682.16
712.617	2626.86
712.805	2553.13
712.993	2735.4
713.181	2727.21
713.368	2628.91
713.556	2712.88
713.744	2708.78
713.931	2737.45
714.119	2616.62
714.306	2639.15
714.494	2618.67
714.682	2657.58
714.869	2565.42
715.057	2721.07
715.244	2633.01
715.432	2641.2
715.619	2649.39
715.807	2768.17
715.994	2626.86
716.182	2622.77
716.369	2604.33
716.556	2706.73
716.744	2444.59
716.931	2608.43
717.119	2680.11
717.306	2641.2
717.493	2655.53
717.681	2622.77
717.868	2577.71
718.055	2637.1
718.242	2606.38
718.43	2557.23
718.617	2657.58
718.804	2704.68
718.991	2571.57
719.179	2575.66
719.366	2708.78
719.553	2551.09
719.74	2653.48
719.927	2565.42
720.114	2596.14
720.301	2503.98
720.488	2596.14
720.676	2663.72
720.863	2633.01
721.05	2587.95
721.237	2610.48
721.424	2684.2
721.611	2745.64
721.798	2434.35
721.985	2612.53
722.172	2610.48
722.358	2639.15
722.545	2559.28
722.732	2530.61
722.919	2585.9
723.106	2594.09
723.293	2417.97
723.48	2561.33
723.667	2596.14
723.853	2432.3
724.04	2614.57
724.227	2489.65
724.414	2639.15
724.6	2590
724.787	2643.24
724.974	2579.76
725.161	2542.89
725.347	2516.27
725.534	2557.23
725.72	2553.13
725.907	2573.61
726.094	2510.13
726.28	2495.79
726.467	2522.41
726.653	2475.31
726.84	2563.37
727.027	2630.96
727.213	2444.59
727.4	2606.38
727.586	2592.05
727.773	2602.29
727.959	2555.18
728.145	2432.3
728.332	2579.76
728.518	2563.37
728.705	2579.76
728.891	2546.99
729.077	2680.11
729.264	2432.3
729.45	2542.89
729.636	2645.29
729.823	2514.22
730.009	2557.23
730.195	2436.4
730.382	2628.91
730.568	2452.78
730.754	2583.85
730.94	2620.72
731.126	2561.33
731.313	2520.37
731.499	2583.85
731.685	2557.23
731.871	2600.24
732.057	2602.29
732.243	2508.08
732.429	2534.7
732.615	2456.88
732.801	2540.85
732.987	2512.18
733.173	2573.61
733.359	2458.93
733.545	2489.65
733.731	2532.65
733.917	2469.17
734.103	2469.17
734.289	2420.02
734.475	2514.22
734.661	2438.45
734.847	2491.7
735.033	2360.63
735.219	2460.98
735.404	2428.21
735.59	2387.25
735.776	2471.22
735.962	2456.88
736.148	2372.91
736.333	2485.55
736.519	2438.45
736.705	2653.48
736.89	2530.61
737.076	2551.09
737.262	2329.91
737.447	2512.18
737.633	2481.46
737.819	2403.63
738.004	2442.54
738.19	2338.1
738.375	2385.2
738.561	2362.67
738.747	2284.85
738.932	2252.08
739.118	2379.06
739.303	2409.78
739.489	2321.71
739.674	2374.96
739.859	2327.86
740.045	2364.72
740.23	2262.32
740.416	2311.47
740.601	2346.29
740.786	2321.71
740.972	2190.64
741.157	2157.88
741.342	2149.68
741.528	2217.27
741.713	2172.21
741.898	2223.41
742.084	2188.6
742.269	2166.07
742.454	2192.69
742.639	2227.51
742.824	2118.97
743.01	2192.69
743.195	2243.89
743.38	2161.97
743.565	2080.05
743.75	2186.55
743.935	2129.2
744.12	2168.12
744.305	2121.01
744.49	2123.06
744.675	2102.58
744.86	2078.01
745.045	2225.46
745.23	2043.19
745.415	2057.53
745.6	2065.72
745.785	2100.53
745.97	2006.33
746.155	2002.23
746.34	2022.71
746.525	1967.42
746.71	1965.37
746.895	2026.81
747.079	1928.5
747.264	1936.7
747.449	1914.17
747.634	1871.16
747.819	1994.04
748.003	1932.6
748.188	1887.54
748.373	1914.17
748.557	1824.06
748.742	1838.39
748.927	1797.43
749.111	1865.02
749.296	1813.82
749.481	1832.25
749.665	1713.47
749.85	1701.18
750.034	1795.39
750.219	1762.62
750.404	1703.23
750.588	1678.65
750.773	1660.22
750.957	1723.71
751.141	1707.32
751.326	1674.56
751.51	1738.04
751.695	1594.69
751.879	1713.47
752.064	1684.8
752.248	1617.21
752.432	1629.5
752.617	1719.61
752.801	1568.06
752.985	1590.59
753.17	1609.02
753.354	1619.26
753.538	1555.77
753.722	1557.82
753.907	1523.01
754.091	1598.78
754.275	1568.06
754.459	1635.64
754.643	1514.81
754.828	1516.86
755.012	1510.72
755.196	1463.62
755.38	1383.74
755.564	1426.75
755.748	1449.28
755.932	1533.25
756.116	1389.89
756.3	1363.26
756.484	1336.64
756.668	1355.07
756.852	1338.69
757.036	1361.22
757.22	1389.89
757.404	1277.25
757.588	1271.11
757.772	1346.88
757.956	1320.26
758.14	1375.55
758.323	1326.4
758.507	1316.16
758.691	1248.58
758.875	1396.03
759.059	1393.98
759.242	1217.86
759.426	1154.37
759.61	1217.86
759.794	1158.47
759.977	1250.63
760.161	1365.31
760.345	1183.04
760.528	1232.19
760.712	1178.95
760.895	1131.84
761.079	1205.57
761.263	1097.03
761.446	1176.9
761.63	1181
761.813	1127.75
761.997	1160.52
762.18	1117.51
762.364	1068.36
762.547	1099.08
762.731	1109.32
762.914	1195.33
763.098	1150.28
763.281	1156.42
763.464	1109.32
763.648	1076.55
763.831	1101.12
764.015	1064.26
764.198	1154.37
764.381	1103.17
764.564	1041.73
764.748	1066.31
764.931	1109.32
765.114	1133.89
765.297	1107.27
765.481	1076.55
765.664	1058.12
765.847	902.47
766.03	1105.22
766.213	1078.6
766.397	1033.54
766.58	1031.49
766.763	1017.16
766.946	988.49
767.129	990.53
767.312	1074.5
767.495	986.44
767.678	908.62
767.861	1076.55
768.044	953.67
768.227	951.62
768.41	972.1
768.593	982.34
768.776	1023.3
768.959	935.24
769.142	886.09
769.324	963.91
769.507	1011.01
769.69	968.01
769.873	875.85
770.056	957.77
770.239	972.1
770.421	970.05
770.604	945.48
770.787	900.42
770.97	900.42
771.152	916.81
771.335	894.28
771.518	838.98
771.7	884.04
771.883	834.89
772.066	908.62
772.248	845.13
772.431	863.56
772.613	927.05
772.796	748.87
772.978	843.08
773.161	914.76
773.343	884.04
773.526	742.73
773.708	879.94
773.891	795.98
774.073	943.43
774.256	841.03
774.438	902.47
774.621	894.28
774.803	736.59
774.985	867.66
775.168	826.7
775.35	789.83
775.532	726.35
775.715	820.55
775.897	787.79
776.079	730.44
776.261	822.6
776.444	748.87
776.626	773.45
776.808	812.36
776.99	785.74
777.173	703.82
777.355	736.59
777.537	656.72
777.719	761.16
777.901	763.21
778.083	707.91
778.265	716.11
778.447	869.7
778.629	677.19
778.811	683.34
778.993	693.58
779.175	738.63
779.357	681.29
779.539	640.33
779.721	628.04
779.903	689.48
780.085	681.29
780.267	589.13
780.449	669
780.631	697.67
780.812	582.99
780.994	562.51
781.176	638.28
781.358	621.9
781.54	595.28
781.721	660.81
781.903	650.57
782.085	589.13
782.267	613.71
782.448	638.28
782.63	576.84
782.812	603.47
782.993	617.8
783.175	595.28
783.357	521.55
783.538	626
783.72	533.84
783.901	431.44
784.083	509.26
784.264	621.9
784.446	519.5
784.627	564.56
784.809	505.17
784.99	544.08
785.172	474.45
785.353	488.78
785.535	482.64
785.716	556.36
785.897	421.2
786.079	417.1
786.26	468.3
786.441	466.25
786.623	470.35
786.804	470.35
786.985	490.83
787.167	439.63
787.348	478.54
787.529	488.78
787.71	476.49
787.891	386.38
788.073	470.35
788.254	507.21
788.435	460.11
788.616	408.91
788.797	400.72
788.978	410.96
789.159	413.01
789.34	423.25
789.522	437.58
789.703	413.01
789.884	480.59
790.065	404.82
790.246	419.15
790.427	365.9
790.607	464.21
790.788	435.53
790.969	337.23
791.15	310.61
791.331	314.7
791.512	333.14
791.693	298.32
791.874	341.33
792.054	447.82
792.235	429.39
792.416	331.09
792.597	363.86
792.778	314.7
792.958	388.43
793.139	320.85
793.32	322.9
793.5	396.62
793.681	349.52
793.862	320.85
794.042	308.56
794.223	376.14
794.404	286.03
794.584	345.42
794.765	370
794.945	339.28
795.126	320.85
795.306	318.8
795.487	304.46
795.667	337.23
795.848	372.05
796.028	320.85
796.209	232.79
796.389	335.18
796.57	306.51
796.75	281.94
796.93	312.66
797.111	304.46
797.291	245.07
797.471	310.61
797.652	288.08
797.832	290.13
798.012	238.93
798.192	294.22
798.373	275.79
798.553	365.9
798.733	275.79
798.913	238.93
799.093	279.89
799.274	322.9
799.454	261.46
799.634	337.23
799.814	271.7
799.994	286.03
800.174	298.32
800.354	257.36
800.534	255.31
800.714	273.75
800.894	216.4
801.074	234.83
801.254	222.55
801.434	318.8
801.614	214.35
801.794	234.83
801.974	566.6
802.154	247.12
802.334	214.35
802.514	210.26
802.693	324.94
802.873	257.36
803.053	226.64
803.233	220.5
803.413	300.37
803.592	283.99
803.772	255.31
803.952	316.75
804.131	257.36
804.311	200.02
804.491	245.07
804.67	212.31
804.85	169.3
805.03	216.4
805.209	286.03
805.389	245.07
805.568	210.26
805.748	232.79
805.928	224.59
806.107	304.46
806.287	148.82
806.466	273.75
806.646	122.2
806.825	142.68
807.004	222.55
807.184	257.36
807.363	249.17
807.543	171.35
807.722	185.68
807.901	208.21
808.081	204.11
808.26	171.35
808.439	171.35
808.619	216.4
808.798	247.12
808.977	165.2
809.156	171.35
809.336	222.55
809.515	273.75
809.694	202.07
809.873	226.64
810.052	187.73
810.231	118.1
810.411	200.02
810.59	259.41
810.769	136.53
810.948	142.68
811.127	216.4
811.306	171.35
811.485	179.54
811.664	208.21
811.843	257.36
812.022	173.39
812.201	85.33
812.38	173.39
812.559	116.05
812.737	150.87
812.916	109.91
813.095	105.81
813.274	150.87
813.453	132.44
813.632	154.96
813.811	171.35
813.989	142.68
814.168	118.1
814.347	157.01
814.526	197.97
814.704	228.69
814.883	126.29
815.062	189.78
815.24	232.79
815.419	140.63
815.598	126.29
815.776	142.68
815.955	148.82
816.133	64.85
816.312	152.92
816.49	122.2
816.669	103.76
816.847	85.33
817.026	179.54
817.204	101.72
817.383	140.63
817.561	148.82
817.74	195.92
817.918	107.86
818.097	157.01
818.275	150.87
818.453	91.48
818.632	146.77
818.81	140.63
818.988	134.48
819.167	114
819.345	179.54
819.523	103.76
819.701	132.44
819.879	138.58
820.058	165.2
820.236	79.19
820.414	122.2
820.592	132.44
820.77	48.47
820.948	128.34
821.127	97.62
821.305	107.86
821.483	124.24
821.661	157.01
821.839	77.14
822.017	73.04
822.195	130.39
822.373	93.52
822.551	93.52
822.729	58.71
822.907	126.29
823.085	142.68
823.262	157.01
823.44	107.86
823.618	54.61
823.796	87.38
823.974	142.68
824.152	91.48
824.329	62.8
824.507	73.04
824.685	97.62
824.863	107.86
825.04	128.34
825.218	91.48
825.396	120.15
825.574	171.35
825.751	79.19
825.929	120.15
826.107	60.76
826.284	107.86
826.462	107.86
826.639	114
826.817	95.57
826.994	187.73
827.172	105.81
827.349	101.72
827.527	97.62
827.704	107.86
827.882	165.2
828.059	114
828.237	50.52
828.414	71
828.591	111.96
828.769	116.05
828.946	130.39
829.124	44.37
829.301	124.24
829.478	105.81
829.655	44.37
829.833	130.39
830.01	13.65
830.187	130.39
830.364	62.8
830.542	144.72
830.719	101.72
830.896	101.72
831.073	107.86
831.25	109.91
831.427	3.41
831.604	50.52
831.782	71
831.959	101.72
832.136	95.57
832.313	50.52
832.49	30.04
832.667	175.44
832.844	107.86
833.021	140.63
833.198	44.37
833.374	95.57
833.551	73.04
833.728	48.47
833.905	91.48
834.082	56.66
834.259	66.9
834.436	134.48
834.612	17.75
834.789	120.15
834.966	34.13
835.143	50.52
835.319	71
835.496	114
835.673	134.48
835.85	40.28
836.026	52.56
836.203	95.57
836.38	79.19
836.556	105.81
836.733	75.09
836.909	130.39
837.086	7.51
837.262	89.43
837.439	75.09
837.616	111.96
837.792	97.62
837.968	103.76
838.145	97.62
838.321	68.95
838.498	21.85
838.674	77.14
838.851	19.8
839.027	58.71
839.203	56.66
839.38	9.56
839.556	44.37
839.732	52.56
839.909	89.43
840.085	109.91
840.261	89.43
840.437	111.96
840.614	1.37
840.79	38.23
840.966	-19.11
841.142	105.81
841.318	68.95
841.494	15.7
841.671	32.08
841.847	56.66
842.023	66.9
842.199	77.14
842.375	89.43
842.551	-27.31
842.727	99.67
842.903	48.47
843.079	-23.21
843.255	99.67
843.431	-35.5
843.607	75.09
843.783	15.7
843.959	73.04
844.134	52.56
844.31	77.14
844.486	-25.26
844.662	91.48
844.838	52.56
845.013	13.65
845.189	107.86
845.365	-4.78
845.541	-25.26
845.716	71
845.892	107.86
846.068	66.9
846.244	40.28
846.419	36.18
846.595	23.89
846.77	85.33
846.946	89.43
847.122	81.24
847.297	56.66
847.473	36.18
847.648	81.24
847.824	103.76
847.999	17.75
848.175	48.47
848.35	9.56
848.526	21.85
848.701	60.76
848.876	11.61
849.052	79.19
849.227	19.8
849.403	81.24
849.578	-35.5
849.753	-4.78
849.929	7.51
850.104	-12.97
850.279	7.51
850.454	56.66
850.63	75.09
850.805	77.14
850.98	36.18
851.155	36.18
851.33	107.86
851.505	-10.92
851.681	130.39
851.856	11.61
852.031	62.8
852.206	60.76
852.381	-23.21
852.556	68.95
852.731	71
852.906	64.85
853.081	3.41
853.256	-4.78
853.431	-2.73
853.606	-4.78
853.781	-10.92
853.956	3.41
854.131	58.71
854.305	15.7
854.48	27.99
854.655	27.99
854.83	30.04
855.005	56.66
855.18	101.72
855.354	5.46
855.529	30.04
855.704	-37.55
855.879	44.37
856.053	54.61
856.228	-8.87
856.403	42.32
856.577	-6.83
856.752	-4.78
856.926	97.62
857.101	17.75
857.276	7.51
857.45	9.56
857.625	7.51
857.799	5.46
857.974	116.05
858.148	15.7
858.323	27.99
858.497	36.18
858.672	5.46
858.846	7.51
859.02	-47.79
859.195	-17.07
859.369	27.99
859.543	-6.83
859.718	27.99
859.892	89.43
860.066	-29.35
860.241	111.96
860.415	-12.97
860.589	-58.03
860.763	81.24
860.938	54.61
861.112	27.99
861.286	-31.4
861.46	50.52
861.634	48.47
861.808	54.61
861.982	-37.55
862.157	1.37
862.331	-31.4
862.505	56.66
862.679	-8.87
862.853	11.61
863.027	1.37
863.201	109.91
863.375	9.56
863.549	-12.97
863.722	23.89
863.896	15.7
864.07	-45.74
864.244	42.32
864.418	40.28
864.592	-72.36
864.766	7.51
864.939	-10.92
865.113	36.18
865.287	-6.83
865.461	-4.78
865.634	23.89
865.808	-25.26
865.982	-4.78
866.156	-6.83
866.329	-0.68
866.503	85.33
866.676	-35.5
866.85	-39.59
867.024	27.99
867.197	-39.59
867.371	77.14
867.544	19.8
867.718	56.66
867.891	-53.93
868.065	32.08
868.238	64.85
868.412	56.66
868.585	-15.02
868.759	7.51
868.932	23.89
869.105	34.13
869.279	19.8
869.452	-27.31
869.625	-25.26
869.799	-25.26
869.972	58.71
870.145	66.9
870.319	9.56
870.492	40.28
870.665	-17.07
870.838	-17.07
871.011	-25.26
871.185	38.23
871.358	-4.78
871.531	-6.83
871.704	-25.26
871.877	17.75
872.05	-21.16
872.223	-2.73
872.396	44.37
872.569	3.41
872.742	-37.55
872.915	15.7
873.088	62.8
873.261	25.94
873.434	42.32
873.607	21.85
873.78	-17.07
873.953	-49.83
874.126	38.23
874.299	60.76
874.471	5.46
874.644	42.32
874.817	13.65
874.99	21.85
875.163	79.19
875.335	36.18
875.508	-19.11
875.681	-49.83
875.853	15.7
876.026	64.85
876.199	27.99
876.371	32.08
876.544	34.13
876.717	60.76
876.889	1.37
877.062	-27.31
877.234	13.65
877.407	19.8
877.579	-10.92
877.752	34.13
877.924	38.23
878.097	95.57
878.269	-21.16
878.442	25.94
878.614	-15.02
878.786	27.99
878.959	-0.68
879.131	1.37
879.303	46.42
879.476	-19.11
879.648	56.66
879.82	-37.55
879.993	-15.02
880.165	93.52
880.337	-19.11
880.509	23.89
880.681	-62.12
880.854	68.95
881.026	3.41
881.198	13.65
881.37	11.61
881.542	46.42
881.714	5.46
881.886	13.65
882.058	64.85
882.23	5.46
882.402	36.18
882.574	15.7
882.746	79.19
882.918	52.56
883.09	-27.31
883.262	-12.97
883.434	-82.6
883.606	64.85
883.778	-49.83
883.95	52.56
884.122	36.18
884.293	17.75
884.465	3.41
884.637	32.08
884.809	9.56
884.98	-60.07
885.152	48.47
885.324	25.94
885.496	56.66
885.667	-12.97
885.839	27.99
886.011	32.08
886.182	36.18
886.354	19.8
886.525	56.66
886.697	23.89
886.869	15.7
887.04	-55.98
887.212	7.51
887.383	87.38
887.555	-2.73
887.726	36.18
887.897	50.52
888.069	-15.02
888.24	19.8
888.412	66.9
888.583	5.46
888.754	42.32
888.926	-31.4
889.097	-43.69
889.268	-4.78
889.44	58.71
889.611	-39.59
889.782	-25.26
889.953	-55.98
890.125	42.32
890.296	-27.31
890.467	38.23
890.638	-31.4
890.809	27.99
890.98	-4.78
891.151	-45.74
891.323	-23.21
891.494	-12.97
891.665	30.04
891.836	27.99
892.007	15.7
892.178	-27.31
892.349	17.75
892.52	3.41
892.691	40.28
892.862	101.72
893.032	11.61
893.203	-10.92
893.374	38.23
893.545	11.61
893.716	-31.4
893.887	56.66
894.057	-33.45
894.228	15.7
894.399	38.23
894.57	-0.68
894.74	1.37
894.911	15.7
895.082	-6.83
895.253	-31.4
895.423	-41.64
895.594	5.46
895.764	13.65
895.935	-68.27
896.106	46.42
896.276	-23.21
896.447	-37.55
896.617	15.7
896.788	-29.35
896.958	-72.36
897.129	62.8
897.299	42.32
897.47	-2.73
897.64	-12.97
897.81	-10.92
897.981	56.66
898.151	19.8
898.322	-6.83
898.492	-39.59
898.662	15.7
898.832	11.61
899.003	-0.68
899.173	44.37
899.343	-10.92
899.513	-19.11
