Data from USB4F104151__34__11-36-48-645.txt Node

Date: Fri Mar 14 11:36:48 EDT 2025
User: louis
Spectrometer: USB4F10415
Trigger mode: 4
Integration Time (sec): 2.000000E-2
Scans to average: 1
Electric dark correction enabled: true
Nonlinearity correction enabled: false
Boxcar width: 0
XAxis mode: Wavelengths
Number of Pixels in Spectrum: 3648
>>>>>Begin Spectral Data<<<<<
178.204	-104.62
178.424	-104.62
178.644	-104.62
178.864	-145.58
179.084	-77.99
179.304	-61.61
179.524	-4.27
179.744	3.93
179.964	71.51
180.184	-28.84
180.404	44.88
180.624	24.4
180.844	-39.08
181.064	-41.13
181.283	5.97
181.503	1.88
181.723	22.36
181.943	-41.13
182.163	10.07
182.383	-32.94
182.602	-34.99
182.822	-0.17
183.042	-12.46
183.262	-22.7
183.482	-12.46
183.701	3.93
183.921	20.31
184.141	36.69
184.361	32.6
184.58	18.26
184.8	-30.89
185.02	20.31
185.239	61.27
185.459	-0.17
185.679	-10.41
185.898	-94.38
186.118	3.93
186.338	46.93
186.557	-49.32
186.777	-41.13
186.997	-20.65
187.216	-69.8
187.436	-12.46
187.655	-24.75
187.875	55.12
188.095	67.41
188.314	14.17
188.534	48.98
188.753	-59.56
188.973	12.12
189.192	-6.31
189.412	-45.23
189.631	-59.56
189.851	-20.65
190.07	73.56
190.29	-43.18
190.509	20.31
190.729	-8.36
190.948	24.4
191.168	48.98
191.387	51.03
191.607	-24.75
191.826	16.21
192.045	14.17
192.265	71.51
192.484	32.6
192.704	48.98
192.923	44.88
193.142	-10.41
193.362	-6.31
193.581	30.55
193.8	24.4
194.02	-2.22
194.239	22.36
194.458	1.88
194.678	-8.36
194.897	57.17
195.116	22.36
195.335	61.27
195.555	-61.61
195.774	-32.94
195.993	-18.6
196.212	24.4
196.432	14.17
196.651	57.17
196.87	8.02
197.089	24.4
197.308	32.6
197.528	1.88
197.747	-30.89
197.966	96.08
198.185	55.12
198.404	-24.75
198.623	-45.23
198.842	59.22
199.062	3.93
199.281	67.41
199.5	-32.94
199.719	28.5
199.938	-28.84
200.157	-43.18
200.376	-6.31
200.595	32.6
200.814	44.88
201.033	26.45
201.252	-4.27
201.471	8.02
201.69	69.46
201.909	55.12
202.128	8.02
202.347	36.69
202.566	-0.17
202.785	-6.31
203.004	3.93
203.223	61.27
203.442	-2.22
203.661	20.31
203.879	-34.99
204.098	135
204.317	22.36
204.536	-4.27
204.755	75.6
204.974	-4.27
205.193	14.17
205.411	128.85
205.63	1.88
205.849	-4.27
206.068	-2.22
206.287	-10.41
206.505	12.12
206.724	-4.27
206.943	-18.6
207.162	24.4
207.381	42.84
207.599	18.26
207.818	40.79
208.037	32.6
208.255	40.79
208.474	-47.27
208.693	1.88
208.911	-53.42
209.13	12.12
209.349	38.74
209.567	51.03
209.786	69.46
210.005	63.32
210.223	10.07
210.442	-65.71
210.661	1.88
210.879	-16.55
211.098	46.93
211.316	26.45
211.535	96.08
211.753	48.98
211.972	38.74
212.191	36.69
212.409	14.17
212.628	-30.89
212.846	59.22
213.065	46.93
213.283	-12.46
213.502	-24.75
213.72	38.74
213.938	-34.99
214.157	38.74
214.375	16.21
214.594	40.79
214.812	14.17
215.031	65.36
215.249	-8.36
215.467	16.21
215.686	22.36
215.904	-8.36
216.122	20.31
216.341	63.32
216.559	22.36
216.778	61.27
216.996	44.88
217.214	-39.08
217.432	69.46
217.651	-34.99
217.869	-2.22
218.087	51.03
218.306	5.97
218.524	16.21
218.742	57.17
218.96	8.02
219.179	12.12
219.397	16.21
219.615	48.98
219.833	3.93
220.051	-0.17
220.27	-16.55
220.488	12.12
220.706	32.6
220.924	40.79
221.142	-39.08
221.36	96.08
221.578	1.88
221.796	-12.46
222.015	34.64
222.233	-41.13
222.451	55.12
222.669	-41.13
222.887	38.74
223.105	14.17
223.323	53.08
223.541	5.97
223.759	96.08
223.977	-0.17
224.195	98.13
224.413	-0.17
224.631	22.36
224.849	81.75
225.067	-0.17
225.285	48.98
225.503	61.27
225.721	3.93
225.939	-28.84
226.157	20.31
226.375	26.45
226.592	-0.17
226.81	12.12
227.028	18.26
227.246	20.31
227.464	10.07
227.682	-8.36
227.9	61.27
228.117	67.41
228.335	-43.18
228.553	-37.03
228.771	24.4
228.989	40.79
229.206	12.12
229.424	-4.27
229.642	87.89
229.86	85.84
230.077	-16.55
230.295	-8.36
230.513	20.31
230.731	-0.17
230.948	32.6
231.166	-20.65
231.384	-4.27
231.601	61.27
231.819	-20.65
232.037	24.4
232.254	-26.79
232.472	-12.46
232.689	20.31
232.907	36.69
233.125	44.88
233.342	38.74
233.56	-26.79
233.777	1.88
233.995	30.55
234.213	12.12
234.43	8.02
234.648	-2.22
234.865	-6.31
235.083	77.65
235.3	94.04
235.518	69.46
235.735	46.93
235.953	57.17
236.17	-22.7
236.388	-22.7
236.605	-4.27
236.822	-55.47
237.04	-24.75
237.257	-43.18
237.475	163.67
237.692	20.31
237.909	83.8
238.127	-18.6
238.344	-10.41
238.562	77.65
238.779	-12.46
238.996	63.32
239.214	8.02
239.431	30.55
239.648	24.4
239.865	46.93
240.083	40.79
240.3	38.74
240.517	18.26
240.735	-10.41
240.952	-12.46
241.169	69.46
241.386	24.4
241.603	32.6
241.821	20.31
242.038	65.36
242.255	8.02
242.472	-2.22
242.689	20.31
242.907	77.65
243.124	5.97
243.341	8.02
243.558	-8.36
243.775	40.79
243.992	-30.89
244.209	-20.65
244.426	81.75
244.643	-37.03
244.86	40.79
245.078	124.76
245.295	22.36
245.512	32.6
245.729	5.97
245.946	30.55
246.163	38.74
246.38	36.69
246.597	40.79
246.814	22.36
247.031	57.17
247.248	-28.84
247.464	55.12
247.681	59.22
247.898	-4.27
248.115	32.6
248.332	-57.51
248.549	40.79
248.766	-0.17
248.983	20.31
249.2	40.79
249.417	53.08
249.633	-12.46
249.85	63.32
250.067	83.8
250.284	-22.7
250.501	81.75
250.717	77.65
250.934	-16.55
251.151	46.93
251.368	44.88
251.585	30.55
251.801	36.69
252.018	-43.18
252.235	32.6
252.451	-94.38
252.668	85.84
252.885	10.07
253.102	-8.36
253.318	-2.22
253.535	-0.17
253.752	26.45
253.968	-10.41
254.185	-57.51
254.401	-24.75
254.618	53.08
254.835	30.55
255.051	51.03
255.268	-14.51
255.484	-32.94
255.701	-8.36
255.917	18.26
256.134	46.93
256.351	28.5
256.567	-53.42
256.784	-26.79
257	-55.47
257.217	100.18
257.433	-2.22
257.65	8.02
257.866	87.89
258.082	-14.51
258.299	48.98
258.515	-0.17
258.732	-16.55
258.948	-16.55
259.165	55.12
259.381	44.88
259.597	42.84
259.814	71.51
260.03	26.45
260.246	-2.22
260.463	-43.18
260.679	32.6
260.895	-14.51
261.112	36.69
261.328	-73.9
261.544	-10.41
261.761	28.5
261.977	-37.03
262.193	-24.75
262.409	112.47
262.626	-92.33
262.842	-34.99
263.058	-86.19
263.274	-49.32
263.49	-18.6
263.707	-22.7
263.923	-61.61
264.139	10.07
264.355	24.4
264.571	24.4
264.787	65.36
265.004	48.98
265.22	63.32
265.436	14.17
265.652	10.07
265.868	-24.75
266.084	30.55
266.3	-26.79
266.516	-16.55
266.732	55.12
266.948	1.88
267.164	77.65
267.38	-20.65
267.596	-10.41
267.812	104.28
268.028	8.02
268.244	-10.41
268.46	-8.36
268.676	12.12
268.892	-34.99
269.108	34.64
269.324	-2.22
269.54	-8.36
269.756	89.94
269.972	12.12
270.188	67.41
270.403	-34.99
270.619	16.21
270.835	67.41
271.051	22.36
271.267	-2.22
271.483	5.97
271.698	28.5
271.914	-6.31
272.13	73.56
272.346	12.12
272.562	44.88
272.777	30.55
272.993	73.56
273.209	24.4
273.425	42.84
273.64	-16.55
273.856	20.31
274.072	-12.46
274.287	26.45
274.503	-65.71
274.719	40.79
274.934	55.12
275.15	5.97
275.366	-2.22
275.581	38.74
275.797	59.22
276.012	32.6
276.228	-12.46
276.444	-22.7
276.659	40.79
276.875	-10.41
277.09	36.69
277.306	28.5
277.521	34.64
277.737	-22.7
277.952	-45.23
278.168	57.17
278.383	16.21
278.599	22.36
278.814	48.98
279.03	-8.36
279.245	30.55
279.461	22.36
279.676	32.6
279.892	-57.51
280.107	16.21
280.322	3.93
280.538	1.88
280.753	-10.41
280.969	3.93
281.184	46.93
281.399	44.88
281.615	53.08
281.83	59.22
282.045	1.88
282.26	-24.75
282.476	38.74
282.691	59.22
282.906	26.45
283.122	-43.18
283.337	-26.79
283.552	1.88
283.767	-2.22
283.983	42.84
284.198	-100.52
284.413	40.79
284.628	-57.51
284.843	18.26
285.058	-26.79
285.274	-6.31
285.489	32.6
285.704	-26.79
285.919	81.75
286.134	-53.42
286.349	-16.55
286.564	-6.31
286.779	1.88
286.995	-4.27
287.21	5.97
287.425	-4.27
287.64	63.32
287.855	51.03
288.07	28.5
288.285	40.79
288.5	22.36
288.715	22.36
288.93	18.26
289.145	26.45
289.36	61.27
289.575	-14.51
289.79	5.97
290.004	65.36
290.219	42.84
290.434	8.02
290.649	-49.32
290.864	65.36
291.079	20.31
291.294	-20.65
291.509	-28.84
291.724	-28.84
291.938	36.69
292.153	-51.37
292.368	40.79
292.583	24.4
292.798	10.07
293.012	24.4
293.227	-18.6
293.442	44.88
293.657	-8.36
293.871	26.45
294.086	8.02
294.301	44.88
294.516	57.17
294.73	55.12
294.945	48.98
295.16	18.26
295.374	57.17
295.589	-4.27
295.804	-18.6
296.018	1.88
296.233	8.02
296.447	-12.46
296.662	5.97
296.877	61.27
297.091	-14.51
297.306	73.56
297.52	5.97
297.735	26.45
297.949	16.21
298.164	5.97
298.378	-32.94
298.593	-18.6
298.807	12.12
299.022	69.46
299.236	-12.46
299.451	40.79
299.665	32.6
299.88	32.6
300.094	73.56
300.309	42.84
300.523	36.69
300.737	-10.41
300.952	61.27
301.166	40.79
301.381	-10.41
301.595	8.02
301.809	57.17
302.024	-2.22
302.238	-0.17
302.452	40.79
302.667	-6.31
302.881	48.98
303.095	57.17
303.309	5.97
303.524	100.18
303.738	48.98
303.952	44.88
304.166	34.64
304.381	-37.03
304.595	110.42
304.809	65.36
305.023	-2.22
305.237	-75.95
305.452	12.12
305.666	55.12
305.88	-51.37
306.094	28.5
306.308	3.93
306.522	61.27
306.736	28.5
306.95	-16.55
307.164	12.12
307.379	30.55
307.593	63.32
307.807	20.31
308.021	38.74
308.235	81.75
308.449	26.45
308.663	24.4
308.877	57.17
309.091	-0.17
309.305	-24.75
309.519	32.6
309.733	40.79
309.947	-28.84
310.161	8.02
310.374	57.17
310.588	69.46
310.802	79.7
311.016	-12.46
311.23	-16.55
311.444	14.17
311.658	24.4
311.872	65.36
312.085	-18.6
312.299	-39.08
312.513	12.12
312.727	-4.27
312.941	8.02
313.154	112.47
313.368	44.88
313.582	20.31
313.796	24.4
314.009	28.5
314.223	12.12
314.437	24.4
314.651	-14.51
314.864	81.75
315.078	-0.17
315.292	-43.18
315.505	-34.99
315.719	5.97
315.933	3.93
316.146	42.84
316.36	-32.94
316.573	10.07
316.787	5.97
317.001	71.51
317.214	32.6
317.428	26.45
317.641	-24.75
317.855	38.74
318.068	-22.7
318.282	32.6
318.495	-8.36
318.709	69.46
318.922	10.07
319.136	28.5
319.349	91.99
319.563	55.12
319.776	-16.55
319.99	-8.36
320.203	14.17
320.417	63.32
320.63	81.75
320.843	163.67
321.057	-4.27
321.27	28.5
321.483	8.02
321.697	67.41
321.91	65.36
322.124	-28.84
322.337	114.52
322.55	87.89
322.763	46.93
322.977	63.32
323.19	-26.79
323.403	28.5
323.617	12.12
323.83	8.02
324.043	8.02
324.256	32.6
324.469	12.12
324.683	67.41
324.896	36.69
325.109	53.08
325.322	24.4
325.535	3.93
325.748	16.21
325.962	63.32
326.175	5.97
326.388	65.36
326.601	34.64
326.814	-16.55
327.027	34.64
327.24	73.56
327.453	-47.27
327.666	55.12
327.879	8.02
328.092	87.89
328.305	85.84
328.518	16.21
328.731	59.22
328.944	75.6
329.157	-2.22
329.37	3.93
329.583	61.27
329.796	98.13
330.009	16.21
330.222	40.79
330.435	32.6
330.648	-18.6
330.861	20.31
331.073	40.79
331.286	20.31
331.499	44.88
331.712	-57.51
331.925	57.17
332.138	-12.46
332.35	53.08
332.563	-41.13
332.776	77.65
332.989	-0.17
333.202	1.88
333.414	14.17
333.627	61.27
333.84	-16.55
334.053	-24.75
334.265	-43.18
334.478	3.93
334.691	-55.47
334.903	73.56
335.116	16.21
335.329	67.41
335.541	83.8
335.754	-26.79
335.966	-16.55
336.179	14.17
336.392	69.46
336.604	30.55
336.817	46.93
337.029	10.07
337.242	8.02
337.454	16.21
337.667	40.79
337.88	38.74
338.092	55.12
338.305	30.55
338.517	8.02
338.729	83.8
338.942	34.64
339.154	32.6
339.367	-0.17
339.579	-0.17
339.792	-6.31
340.004	85.84
340.217	32.6
340.429	73.56
340.641	79.7
340.854	42.84
341.066	-0.17
341.278	16.21
341.491	48.98
341.703	-32.94
341.915	73.56
342.128	20.31
342.34	32.6
342.552	34.64
342.764	67.41
342.977	48.98
343.189	3.93
343.401	71.51
343.613	77.65
343.826	-6.31
344.038	38.74
344.25	-2.22
344.462	-16.55
344.674	-12.46
344.886	-45.23
345.099	94.04
345.311	79.7
345.523	40.79
345.735	16.21
345.947	36.69
346.159	-4.27
346.371	-20.65
346.583	24.4
346.795	24.4
347.007	20.31
347.219	118.61
347.431	42.84
347.643	36.69
347.855	-24.75
348.067	-22.7
348.279	-34.99
348.491	42.84
348.703	77.65
348.915	-2.22
349.127	1.88
349.339	18.26
349.551	-34.99
349.763	28.5
349.975	40.79
350.187	73.56
350.399	73.56
350.61	18.26
350.822	5.97
351.034	-6.31
351.246	-14.51
351.458	89.94
351.669	59.22
351.881	96.08
352.093	73.56
352.305	12.12
352.517	51.03
352.728	91.99
352.94	24.4
353.152	61.27
353.363	53.08
353.575	38.74
353.787	20.31
353.999	57.17
354.21	-8.36
354.422	28.5
354.633	12.12
354.845	40.79
355.057	57.17
355.268	73.56
355.48	5.97
355.692	-4.27
355.903	-32.94
356.115	77.65
356.326	46.93
356.538	-12.46
356.749	48.98
356.961	67.41
357.172	20.31
357.384	-24.75
357.595	8.02
357.807	22.36
358.018	16.21
358.23	65.36
358.441	53.08
358.653	44.88
358.864	48.98
359.075	53.08
359.287	16.21
359.498	126.8
359.709	106.32
359.921	5.97
360.132	28.5
360.344	-4.27
360.555	-2.22
360.766	48.98
360.977	-10.41
361.189	32.6
361.4	46.93
361.611	106.32
361.823	73.56
362.034	48.98
362.245	16.21
362.456	77.65
362.667	57.17
362.879	-8.36
363.09	61.27
363.301	16.21
363.512	24.4
363.723	44.88
363.935	-12.46
364.146	81.75
364.357	32.6
364.568	-2.22
364.779	-6.31
364.99	53.08
365.201	14.17
365.412	94.04
365.623	-12.46
365.834	30.55
366.045	-4.27
366.256	22.36
366.467	-8.36
366.678	14.17
366.889	-4.27
367.1	-6.31
367.311	16.21
367.522	-2.22
367.733	65.36
367.944	79.7
368.155	46.93
368.366	89.94
368.577	51.03
368.788	1.88
368.999	-4.27
369.209	69.46
369.42	120.66
369.631	57.17
369.842	38.74
370.053	24.4
370.264	96.08
370.474	61.27
370.685	38.74
370.896	36.69
371.107	32.6
371.317	59.22
371.528	-0.17
371.739	-0.17
371.95	-24.75
372.16	-20.65
372.371	8.02
372.582	44.88
372.792	-20.65
373.003	55.12
373.214	53.08
373.424	98.13
373.635	28.5
373.846	42.84
374.056	-16.55
374.267	46.93
374.477	-34.99
374.688	44.88
374.898	42.84
375.109	36.69
375.319	59.22
375.53	69.46
375.74	24.4
375.951	3.93
376.161	-4.27
376.372	34.64
376.582	118.61
376.793	34.64
377.003	28.5
377.214	79.7
377.424	34.64
377.635	16.21
377.845	-20.65
378.055	83.8
378.266	65.36
378.476	94.04
378.686	28.5
378.897	36.69
379.107	-28.84
379.317	20.31
379.528	57.17
379.738	73.56
379.948	104.28
380.158	57.17
380.369	-45.23
380.579	102.23
380.789	55.12
380.999	44.88
381.21	51.03
381.42	112.47
381.63	10.07
381.84	48.98
382.05	110.42
382.261	16.21
382.471	18.26
382.681	5.97
382.891	48.98
383.101	46.93
383.311	44.88
383.521	-0.17
383.731	85.84
383.941	-49.32
384.151	-26.79
384.361	32.6
384.571	120.66
384.781	59.22
384.991	30.55
385.201	1.88
385.411	67.41
385.621	-32.94
385.831	8.02
386.041	79.7
386.251	96.08
386.461	102.23
386.671	96.08
386.881	3.93
387.091	22.36
387.301	87.89
387.511	73.56
387.72	108.37
387.93	-14.51
388.14	44.88
388.35	85.84
388.56	108.37
388.769	10.07
388.979	8.02
389.189	-10.41
389.399	48.98
389.609	94.04
389.818	87.89
390.028	14.17
390.238	57.17
390.447	14.17
390.657	57.17
390.867	10.07
391.076	61.27
391.286	59.22
391.496	32.6
391.705	-26.79
391.915	139.09
392.125	46.93
392.334	100.18
392.544	14.17
392.753	51.03
392.963	73.56
393.172	75.6
393.382	116.56
393.591	108.37
393.801	16.21
394.01	139.09
394.22	171.86
394.429	53.08
394.639	83.8
394.848	139.09
395.058	151.38
395.267	61.27
395.477	38.74
395.686	116.56
395.895	118.61
396.105	118.61
396.314	112.47
396.524	85.84
396.733	139.09
396.942	85.84
397.152	128.85
397.361	61.27
397.57	100.18
397.78	55.12
397.989	48.98
398.198	32.6
398.407	108.37
398.617	128.85
398.826	118.61
399.035	61.27
399.244	122.71
399.453	69.46
399.663	108.37
399.872	165.71
400.081	46.93
400.29	98.13
400.499	98.13
400.708	104.28
400.917	122.71
401.127	81.75
401.336	85.84
401.545	141.14
401.754	118.61
401.963	114.52
402.172	102.23
402.381	120.66
402.59	147.28
402.799	124.76
403.008	87.89
403.217	98.13
403.426	171.86
403.635	81.75
403.844	87.89
404.053	163.67
404.262	180.05
404.471	151.38
404.68	178
404.888	171.86
405.097	120.66
405.306	192.34
405.515	135
405.724	128.85
405.933	178
406.142	153.43
406.35	141.14
406.559	149.33
406.768	124.76
406.977	202.58
407.185	186.19
407.394	192.34
407.603	206.67
407.812	169.81
408.02	190.29
408.229	245.59
408.438	227.15
408.646	190.29
408.855	253.78
409.064	223.06
409.272	268.11
409.481	237.39
409.69	266.07
409.898	278.35
410.107	302.93
410.315	356.18
410.524	354.13
410.733	360.27
410.941	409.42
411.15	339.79
411.358	417.61
411.567	403.28
411.775	458.57
411.984	452.43
412.192	417.61
412.401	468.81
412.609	495.44
412.818	497.49
413.026	589.64
413.234	546.64
413.443	593.74
413.651	464.72
413.86	511.82
414.068	675.66
414.276	601.93
414.485	649.04
414.693	618.32
414.901	610.12
415.11	741.19
415.318	724.81
415.526	730.95
415.734	814.92
415.943	769.87
416.151	841.54
416.359	837.45
416.567	841.54
416.776	915.27
416.984	1052.49
417.192	982.85
417.4	972.61
417.608	1060.68
417.817	995.14
418.025	1197.89
418.233	1261.38
418.441	1130.31
418.649	1335.1
418.857	1290.05
419.065	1304.39
419.273	1412.93
419.481	1482.56
419.689	1490.75
419.897	1595.2
420.105	1689.4
420.313	1578.81
420.521	1756.99
420.729	1740.6
420.937	1793.85
421.145	1797.95
421.353	1931.06
421.561	2064.18
421.769	1972.02
421.977	2234.16
422.185	2193.2
422.393	2344.75
422.601	2361.14
422.809	2496.3
423.017	2496.3
423.224	2553.65
423.432	2559.79
423.64	2541.36
423.848	2871.08
424.056	2791.21
424.263	2996.01
424.471	2905.9
424.679	3073.83
424.887	3170.08
425.094	3381.03
425.302	3393.31
425.51	3432.22
425.718	3544.86
425.925	3573.53
426.133	3616.54
426.341	3968.79
426.548	4132.63
426.756	4165.4
426.964	4161.3
427.171	4466.45
427.379	4546.32
427.586	4634.38
427.794	4579.09
428.001	4865.8
428.209	5115.66
428.417	5152.52
428.624	5449.47
428.832	5461.76
429.039	5402.37
429.247	5601.02
429.454	5826.3
429.662	6360.82
429.869	5893.88
430.076	6287.09
430.284	6020.86
430.491	6504.18
430.699	6766.32
430.906	6758.13
431.114	6782.7
431.321	7106.28
431.528	7327.46
431.736	7825.12
431.943	8298.2
432.15	7782.11
432.358	7923.42
432.565	8367.83
432.772	8271.58
432.979	8904.4
433.187	9197.26
433.394	8928.97
433.601	9567.94
433.808	9608.9
434.016	9524.93
434.223	10055.36
434.43	10649.27
434.637	10393.27
434.844	10983.09
435.052	11013.81
435.259	11009.71
435.466	11237.03
435.673	11140.78
435.88	11865.76
436.087	12416.66
436.294	12598.93
436.501	12373.66
436.708	12580.5
436.915	12973.71
437.122	13448.84
437.329	13647.49
437.537	13893.25
437.743	13991.55
437.95	14032.51
438.157	14823.03
438.364	15257.2
438.571	15083.12
438.778	15435.37
438.985	16780.89
439.192	15935.07
439.399	16563.8
439.606	16182.88
439.813	17243.73
440.02	18390.59
440.227	17933.89
440.433	17792.58
440.64	18273.85
440.847	18155.07
441.054	18720.31
441.261	20004.39
441.467	19832.36
441.674	20051.49
441.881	20510.24
442.088	20661.79
442.294	20502.04
442.501	21358.1
442.708	21458.45
442.914	22326.78
443.121	23340.53
443.328	22642.17
443.534	24174.05
443.741	23653.87
443.948	23318
444.154	25136.6
444.361	24784.35
444.568	25091.54
444.774	25130.45
444.981	25277.91
445.187	26201.54
445.394	27385.27
445.6	27114.94
445.807	29601.17
446.013	28188.07
446.22	28951.96
446.426	29877.65
446.633	29945.23
446.839	31249.78
447.046	29476.24
447.252	31307.13
447.459	31741.3
447.665	31450.49
447.871	33295.71
448.078	34411.85
448.284	32863.58
448.491	33711.44
448.697	34788.67
448.903	35325.24
449.11	35652.92
449.316	34860.35
449.522	35554.61
449.728	36459.82
449.935	37117.21
450.141	36975.91
450.347	38012.18
450.553	36488.49
450.76	37479.71
450.966	38552.84
451.172	37874.96
451.378	38718.73
451.584	38335.76
451.791	38960.39
451.997	38966.53
452.203	39359.74
452.409	39402.75
452.615	39138.56
452.821	37637.4
453.027	37387.55
453.233	39691.51
453.44	37922.07
453.646	38622.47
453.852	38372.62
454.058	39093.5
454.264	37905.68
454.47	38886.66
454.676	38051.09
454.882	39206.14
455.088	35900.72
455.294	36293.93
455.5	36592.93
455.705	37147.93
455.911	35937.58
456.117	34962.75
456.323	34579.78
456.529	32652.64
456.735	34192.72
456.941	33156.44
457.147	32509.29
457.352	31888.75
457.558	31671.67
457.764	31262.07
457.97	30678.4
458.176	30623.11
458.381	30297.48
458.587	28691.87
458.793	28870.04
458.999	27106.74
459.204	29355.41
459.41	28362.15
459.616	26654.14
459.821	26617.28
460.027	26154.44
460.233	25945.55
460.438	24800.73
460.644	25337.3
460.85	23821.8
461.055	23528.94
461.261	23629.29
461.466	21702.15
461.672	20635.16
461.878	22529.53
462.083	21145.11
462.289	20708.89
462.494	20596.25
462.7	19371.57
462.905	18955.83
463.111	19666.47
463.316	19676.71
463.522	19418.67
463.727	19473.96
463.932	19426.86
464.138	19103.28
464.343	19256.88
464.549	18439.74
464.754	19170.86
464.959	19058.23
465.165	18937.4
465.37	18015.81
465.575	17747.53
465.781	18251.33
465.986	18587.19
466.191	17583.69
466.397	17278.54
466.602	16619.1
466.807	17178.19
467.012	17180.24
467.218	17083.98
467.423	16934.48
467.628	17344.08
467.833	17823.3
468.038	17094.22
468.244	16748.12
468.449	17174.1
468.654	16963.15
468.859	16655.96
469.064	16479.83
469.269	15777.38
469.474	16184.93
469.679	16414.3
469.885	15916.64
470.09	16021.09
470.295	15861.35
470.5	15683.17
470.705	15588.97
470.91	15324.78
471.115	15062.64
471.32	15380.07
471.525	15240.81
471.73	14882.42
471.935	14917.23
472.139	14511.74
472.344	14440.06
472.549	14487.16
472.754	14564.98
472.959	14108.29
473.164	13557.38
473.369	13661.83
473.574	14118.53
473.778	13921.92
473.983	13796.99
474.188	13584.01
474.393	12945.04
474.598	13141.64
474.802	12975.76
475.007	12824.21
475.212	12908.18
475.417	12441.24
475.621	12453.53
475.826	12572.31
476.031	12215.96
476.235	12005.02
476.44	12351.13
476.645	11837.09
476.849	12146.33
477.054	11824.8
477.259	11611.81
477.463	11732.64
477.668	11404.97
477.872	11695.78
478.077	11290.28
478.282	10950.32
478.486	11142.83
478.691	10837.68
478.895	10956.46
479.1	10860.21
479.304	10972.85
479.509	10563.25
479.713	10706.61
479.918	10372.79
480.122	10256.06
480.326	10485.43
480.531	10524.34
480.735	10229.43
480.94	10280.63
481.144	10507.96
481.348	10114.75
481.553	10020.54
481.757	9850.56
481.961	10223.29
482.166	10247.86
482.37	10133.18
482.574	9977.53
482.778	9883.33
482.983	10284.73
483.187	10170.04
483.391	10256.06
483.595	10182.33
483.8	9883.33
484.004	9967.29
484.208	10231.48
484.412	9952.96
484.616	10344.12
484.821	10100.41
485.025	9828.03
485.229	10161.85
485.433	9709.25
485.637	10055.36
485.841	10018.49
486.045	9885.37
486.249	9903.81
486.453	9883.33
486.657	10069.69
486.861	10106.56
487.065	9912
487.269	9928.38
487.473	9844.42
487.677	9979.58
487.881	10059.45
488.085	10088.12
488.289	10063.55
488.493	9967.29
488.697	10038.97
488.901	10311.35
489.105	10049.21
489.309	10178.23
489.512	10100.41
489.716	10303.16
489.92	10114.75
490.124	10208.95
490.328	10622.64
490.531	10157.75
490.735	10405.56
490.939	10303.16
491.143	10288.82
491.346	10342.07
491.55	10698.42
491.754	10423.99
491.958	10542.77
492.161	10616.5
492.365	10530.48
492.569	10641.07
492.772	10729.14
492.976	10776.24
493.18	10792.62
493.383	10839.73
493.587	10798.77
493.79	11132.59
493.994	10925.74
494.197	10942.13
494.401	11155.12
494.605	11073.2
494.808	11450.02
495.012	11433.64
495.215	11665.06
495.419	11577
495.622	11726.5
495.825	11724.45
496.029	11568.8
496.232	11789.99
496.436	11839.14
496.639	12191.39
496.843	12175
497.046	12431
497.249	12680.85
497.453	12727.96
497.656	12654.23
497.859	12805.78
498.063	12836.5
498.266	13115.02
498.469	13205.13
498.673	13162.12
498.876	13475.46
499.079	13442.7
499.282	13381.26
499.485	14171.77
499.689	14016.13
499.892	13895.3
500.095	14343.8
500.298	14681.72
500.501	14450.3
500.705	14663.29
500.908	15083.12
501.111	14966.38
501.314	15378.03
501.517	15232.62
501.72	15613.54
501.923	15636.07
502.126	15971.94
502.329	16197.21
502.532	16014.94
502.735	16561.75
502.938	16770.65
503.141	16842.32
503.344	16959.06
503.547	17124.94
503.75	17274.45
503.953	17794.63
504.156	17493.58
504.359	17960.52
504.562	17987.14
504.765	18513.47
504.968	18619.96
505.17	18794.04
505.373	18638.39
505.576	19019.32
505.779	19379.76
505.982	19213.87
506.185	19699.24
506.387	19654.19
506.59	19910.18
506.793	20483.61
506.996	20463.13
507.198	20940.31
507.401	20901.4
507.604	20919.83
507.807	21497.36
508.009	21616.14
508.212	21831.18
508.415	22255.11
508.617	21997.06
508.82	22658.56
509.022	22052.36
509.225	22705.66
509.428	23131.64
509.63	23092.72
509.833	23457.26
510.035	23873
510.238	23983.59
510.44	23975.4
510.643	24573.41
510.845	24770.01
511.048	24595.93
511.25	24845.79
511.453	25107.93
511.655	26047.94
511.858	25949.64
512.06	25689.55
512.262	26064.33
512.465	25988.55
512.667	26725.82
512.87	27063.74
513.072	26772.92
513.274	27338.16
513.477	27776.43
513.679	27878.83
513.881	28235.17
514.084	28628.38
514.286	28374.44
514.488	28728.73
514.69	29345.17
514.893	29359.51
515.095	29539.73
515.297	30043.53
515.499	29554.07
515.701	30270.86
515.904	30496.13
516.106	30776.7
516.308	31413.62
516.51	31196.54
516.712	31397.24
516.914	31434.1
517.116	32365.93
517.318	32355.69
517.52	32367.98
517.722	32699.75
517.925	33004.89
518.127	33426.78
518.329	33224.03
518.531	33295.71
518.733	33973.58
518.935	34186.57
519.136	34198.86
519.338	34866.5
519.54	35124.54
519.742	35355.96
519.944	35190.08
520.146	36101.42
520.348	36005.17
520.55	36287.79
520.752	36085.04
520.954	36949.28
521.155	36488.49
521.357	37270.81
521.559	37305.63
521.761	38053.14
521.963	37971.22
522.164	37973.27
522.366	38135.06
522.568	38823.17
522.77	38360.33
522.971	39267.58
523.173	38794.5
523.375	38898.95
523.576	39050.5
523.778	39478.52
523.98	39937.27
524.181	40008.95
524.383	40035.57
524.584	40766.7
524.786	40561.9
524.988	40475.88
525.189	40805.61
525.391	41356.51
525.592	41088.23
525.794	41712.86
525.995	41929.94
526.197	41456.86
526.398	41749.72
526.6	41661.66
526.801	42020.05
527.003	42200.27
527.204	42321.1
527.406	42558.67
527.607	42276.05
527.808	43050.18
528.01	42018
528.211	42816.71
528.412	43347.14
528.614	43297.98
528.815	43822.26
529.016	43386.05
529.218	43003.08
529.419	43455.68
529.62	43400.38
529.822	43637.95
530.023	43652.28
530.224	43783.35
530.425	43830.46
530.626	43877.56
530.828	43189.44
531.029	44446.9
531.23	44000.44
531.431	43838.65
531.632	43900.09
531.833	44330.16
532.035	43867.32
532.236	44106.93
532.437	44537.01
532.638	44162.23
532.839	44592.3
533.04	44502.19
533.241	43787.45
533.442	44711.08
533.643	44362.93
533.844	44537.01
534.045	44563.63
534.246	44448.94
534.447	44420.27
534.648	44264.63
534.849	44233.91
535.05	44123.32
535.251	44111.03
535.451	44321.97
535.652	44588.2
535.853	44156.08
536.054	44309.68
536.255	44897.45
536.456	44326.06
536.657	44731.56
536.857	44623.02
537.058	44127.41
537.259	44577.97
537.46	44676.27
537.66	44485.81
537.861	44692.65
538.062	44604.59
538.263	44469.42
538.463	44414.13
538.664	44448.94
538.865	44281.01
539.065	45073.57
539.266	44217.52
539.466	44864.68
539.667	44100.79
539.868	44672.17
540.068	44410.03
540.269	44510.38
540.469	44602.54
540.67	44506.29
540.87	44149.94
541.071	44115.12
541.271	44364.98
541.472	44154.04
541.672	44471.47
541.873	44233.91
542.073	43871.42
542.274	44784.81
542.474	44049.59
542.675	44156.08
542.875	44500.14
543.075	44291.25
543.276	43685.05
543.476	44590.25
543.676	43701.43
543.877	44235.95
544.077	44018.87
544.277	43922.62
544.478	44233.91
544.678	44223.67
544.878	44184.76
545.078	44375.22
545.279	43717.82
545.479	43820.22
545.679	44145.84
545.879	43664.57
546.079	43750.59
546.28	44000.44
546.48	43721.91
546.68	43834.55
546.88	44438.7
547.08	44086.45
547.28	43975.86
547.48	43427.01
547.68	43953.33
547.88	43637.95
548.081	44065.97
548.281	43486.4
548.481	43680.95
548.681	44285.11
548.881	43967.67
549.081	44043.45
549.28	43578.56
549.48	43893.94
549.68	43836.6
549.88	44106.93
550.08	43373.76
550.28	43941.05
550.48	43564.22
550.68	43885.75
550.88	42931.4
551.08	43707.58
551.279	43578.56
551.479	43576.51
551.679	43904.18
551.879	43291.84
552.079	43631.8
552.278	43566.27
552.478	43306.18
552.678	43625.66
552.878	43459.77
553.077	43119.81
553.277	43134.15
553.477	43947.19
553.676	43218.11
553.876	43273.41
554.076	43283.65
554.275	43082.95
554.475	43201.73
554.674	42886.34
554.874	43574.46
555.074	43230.4
555.273	43218.11
555.473	43302.08
555.672	42589.39
555.872	43156.67
556.071	43031.75
556.271	43285.7
556.47	42888.39
556.67	42419.41
556.869	42921.16
557.068	43039.94
557.268	42499.28
557.467	42839.24
557.667	42888.39
557.866	42480.85
558.065	42464.46
558.265	42308.82
558.464	42415.31
558.663	42706.12
558.863	41962.71
559.062	42792.14
559.261	41800.92
559.461	42478.8
559.66	41610.46
559.859	42341.58
560.058	41598.17
560.258	42030.29
560.457	41817.3
560.656	42398.93
560.855	41772.25
561.054	41788.63
561.253	41456.86
561.453	41903.32
561.652	41907.41
561.851	41641.18
562.05	41417.95
562.249	41284.83
562.448	41565.4
562.647	41610.46
562.846	41368.8
563.045	41313.5
563.244	40979.68
563.443	41583.83
563.642	40873.19
563.841	41223.39
564.04	40621.29
564.239	41467.1
564.438	40789.22
564.637	41493.72
564.836	40901.86
565.035	40514.8
565.234	41018.6
565.432	40674.54
565.631	40348.91
565.83	40756.46
566.029	40586.47
566.228	40217.84
566.427	40453.36
566.625	40254.7
566.824	39843.06
567.023	40359.15
567.222	39693.56
567.42	40266.99
567.619	39556.35
567.818	39666.94
568.016	39521.53
568.215	40254.7
568.414	39509.24
568.612	39894.26
568.811	39603.45
569.01	39660.79
569.208	39034.11
569.407	39865.59
569.605	38681.86
569.804	39910.64
570.002	38962.43
570.201	39013.63
570.4	38794.5
570.598	38952.19
570.797	38550.79
570.995	38798.6
571.193	38081.81
571.392	38968.58
571.59	38307.08
571.789	38675.72
571.987	38489.35
572.186	38518.03
572.384	38305.04
572.582	38253.84
572.781	38126.86
572.979	37707.03
573.177	38208.78
573.376	38272.27
573.574	37592.34
573.772	38057.23
573.971	37299.48
574.169	37424.41
574.367	37186.85
574.565	37862.68
574.763	37686.55
574.962	37041.44
575.16	36828.45
575.358	37223.71
575.556	36855.07
575.754	37180.7
575.952	36807.97
576.151	36805.92
576.349	36390.19
576.547	36226.35
576.745	36390.19
576.943	36539.69
577.141	36584.74
577.339	36668.71
577.537	36183.34
577.735	35913.01
577.933	35671.35
578.131	36068.65
578.329	35421.5
578.527	35763.51
578.725	36242.73
578.923	35999.02
579.121	35597.62
579.319	35773.75
579.516	35325.24
579.714	35611.96
579.912	35538.23
580.11	35007.81
580.308	35480.89
580.506	35163.45
580.704	34454.86
580.901	34954.56
581.099	35194.17
581.297	34639.17
581.495	34688.32
581.692	34702.66
581.89	34428.23
582.088	34788.67
582.285	34258.25
582.483	34248.01
582.681	34100.56
582.878	34317.64
583.076	33867.09
583.274	34399.56
583.471	33850.7
583.669	34020.69
583.866	33473.88
584.064	33772.88
584.262	33338.71
584.459	33678.68
584.657	33312.09
584.854	33723.73
585.052	32804.19
585.249	33563.99
585.447	33381.72
585.644	32613.73
585.841	33150.3
586.039	32998.75
586.236	32890.21
586.434	32267.62
586.631	32736.61
586.828	32544.1
587.026	32703.84
587.223	31942
587.42	31995.25
587.618	32427.37
587.815	31855.98
588.012	31731.06
588.21	31753.58
588.407	32277.86
588.604	31487.35
588.801	31581.56
588.999	31491.44
589.196	31499.64
589.393	31548.79
589.59	31348.09
589.787	31016.32
589.984	30909.82
590.182	30920.06
590.379	30856.57
590.576	30858.62
590.773	30885.25
590.97	30463.36
591.167	30723.46
591.364	30277
591.561	30659.97
591.758	30383.49
591.955	30104.97
592.152	30244.23
592.349	30147.98
592.546	29969.8
592.743	30205.32
592.94	29732.24
593.137	30119.31
593.334	29869.45
593.531	29672.85
593.727	29859.21
593.924	29670.8
594.121	29515.15
594.318	29418.9
594.515	29083.03
594.712	29083.03
594.908	28863.9
595.105	29123.99
595.302	28947.87
595.499	28880.28
595.696	28761.5
595.892	28474.79
596.089	28747.17
596.286	28620.19
596.482	28503.46
596.679	28186.02
596.876	28329.38
597.072	28366.24
597.269	28247.46
597.466	27772.33
597.662	27884.97
597.859	27882.92
598.055	28028.33
598.252	27721.13
598.448	27577.78
598.645	27563.44
598.841	27624.88
599.038	27274.68
599.234	27346.36
599.431	27258.29
599.627	26961.34
599.824	27164.09
600.02	27039.16
600.217	27119.03
600.413	26797.5
600.609	26518.98
600.806	26777.02
601.002	26777.02
601.198	26283.46
601.395	26406.34
601.591	26377.67
601.787	26342.85
601.984	26164.68
602.18	26381.76
602.376	26117.57
602.572	25712.08
602.769	25976.26
602.965	25730.51
603.161	25689.55
603.357	25703.89
603.553	25843.15
603.75	25734.6
603.946	25472.46
604.142	25736.65
604.338	25208.28
604.534	25482.7
604.73	25126.36
604.926	25013.72
605.122	25222.61
605.318	25198.04
605.514	24843.74
605.71	24751.58
605.906	24659.42
606.102	24612.32
606.298	24585.69
606.494	24559.07
606.69	24518.11
606.886	24569.31
607.082	24303.07
607.278	24591.84
607.474	24102.37
607.67	24505.82
607.866	24354.27
608.062	24518.11
608.257	24155.62
608.453	24120.81
608.649	23987.69
608.845	23959.02
609.041	24143.33
609.236	23754.22
609.432	23705.07
609.628	23727.6
609.824	23449.07
610.019	23506.41
610.215	23930.34
610.411	23756.27
610.606	23383.54
610.802	23371.25
610.998	23428.59
611.193	23012.85
611.389	23014.9
611.584	23213.56
611.78	23139.83
611.976	23422.45
612.171	23148.02
612.367	23205.36
612.562	22930.94
612.758	22570.49
612.953	22560.25
613.149	23150.07
613.344	22881.78
613.539	23193.08
613.735	22777.34
613.93	22752.76
614.126	22918.65
614.321	22930.94
614.517	22881.78
614.712	22629.88
614.907	22203.91
615.103	22769.15
615.298	22277.63
615.493	22887.93
615.688	22109.7
615.884	22570.49
616.079	22152.71
616.274	22531.58
616.47	22203.91
616.665	22201.86
616.86	22154.76
617.055	22181.38
617.25	21968.39
617.445	22236.67
617.641	21829.13
617.836	21880.33
618.031	21640.72
618.226	21894.66
618.421	21437.97
618.616	21806.6
618.811	21257.74
619.006	21587.47
619.201	21100.05
619.396	21241.36
619.591	20946.45
619.786	21435.92
619.981	20858.39
620.176	21153.3
620.371	20925.97
620.566	20895.25
620.761	20712.99
620.956	20786.71
621.151	20389.41
621.346	20514.33
621.541	20368.93
621.735	20604.44
621.93	20178.47
622.125	20354.59
622.32	19650.09
622.515	19914.28
622.709	19803.69
622.904	19836.45
623.099	19701.29
623.294	19541.55
623.488	19144.24
623.683	19236.4
623.878	19029.55
624.072	19088.95
624.267	18916.92
624.462	19113.52
624.656	18644.54
624.851	18687.54
625.046	18449.98
625.24	18744.89
625.435	18228.8
625.629	18449.98
625.824	18376.25
626.018	18273.85
626.213	17933.89
626.407	18052.67
626.602	17774.15
626.796	17829.45
626.991	17675.85
627.185	17516.11
627.38	17475.15
627.574	17188.43
627.768	17333.84
627.963	17100.37
628.157	17153.62
628.352	16889.43
628.546	16533.08
628.74	16920.15
628.935	16653.91
629.129	16803.41
629.323	16547.42
629.517	16436.83
629.712	16463.45
629.906	16330.33
630.1	15957.6
630.294	16264.8
630.489	15986.27
630.683	16143.97
630.877	15722.09
631.071	15834.72
631.265	15763.04
631.459	15619.69
631.653	15517.29
631.848	15554.15
632.042	15140.46
632.236	15335.02
632.43	14972.53
632.624	15369.83
632.818	14691.96
633.012	15017.58
633.206	14536.31
633.4	14935.67
633.594	14724.72
633.788	14737.01
633.982	14792.31
634.176	14454.39
634.369	14257.79
634.563	14452.34
634.757	14321.27
634.951	14435.96
635.145	14046.85
635.339	14270.08
635.533	14012.03
635.726	13903.49
635.92	13743.75
636.114	13753.99
636.308	13680.26
636.501	13964.93
636.695	13639.3
636.889	13633.16
637.083	13330.06
637.276	13319.82
637.47	13256.33
637.664	13037.2
637.857	13186.7
638.051	13217.42
638.244	13041.29
638.438	13033.1
638.632	12822.16
638.825	12920.46
639.019	12813.97
639.212	12703.38
639.406	12746.39
639.599	12590.74
639.793	12463.77
639.986	12316.31
640.18	12418.71
640.373	12428.95
640.567	12306.07
640.76	12185.24
640.954	12377.75
641.147	11847.33
641.34	11908.77
641.534	12211.87
641.727	11783.84
641.92	11830.94
642.114	11679.4
642.307	11746.98
642.5	11724.45
642.694	11462.31
642.887	11415.21
643.08	11525.8
643.273	11325.1
643.467	11404.97
643.66	11142.83
643.853	11214.51
644.046	10983.09
644.239	11015.85
644.432	10966.7
644.626	10903.21
644.819	10987.18
645.012	10688.18
645.205	10821.3
645.398	10813.1
645.591	10735.28
645.784	10759.86
645.977	10630.84
646.17	10694.32
646.363	10374.84
646.556	10294.97
646.749	10401.46
646.942	10591.92
647.135	10118.84
647.328	10213.05
647.521	10081.98
647.714	9998.01
647.907	10006.2
648.099	9918.14
648.292	10034.88
648.485	10077.88
648.678	9742.02
648.871	9854.65
649.064	9766.59
649.256	9670.34
649.449	9508.55
649.642	9535.17
649.835	9492.16
650.027	9273.03
650.22	9252.55
650.413	9359.05
650.605	9289.42
650.798	9387.72
650.991	9098.95
651.183	9281.22
651.376	9070.28
651.568	9150.15
651.761	9053.9
651.954	8918.73
652.146	8990.41
652.339	8885.97
652.531	8867.53
652.724	8781.52
652.916	8625.87
653.109	8668.88
653.301	8681.17
653.494	8662.74
653.686	8654.55
653.879	8515.28
654.071	8300.25
654.263	8408.79
654.456	8441.56
654.648	8412.88
654.84	8388.31
655.033	8259.29
655.225	8181.46
655.417	7935.71
655.61	8191.7
655.802	8019.67
655.994	7966.43
656.186	8099.55
656.379	7810.78
656.571	7907.04
656.763	7894.75
656.955	7859.93
657.148	7845.6
657.34	7685.86
657.532	7657.18
657.724	7638.75
657.916	7538.4
658.108	7497.44
658.3	7517.92
658.492	7321.32
658.684	7337.7
658.876	7376.61
659.068	7464.68
659.26	7395.04
659.452	7243.49
659.644	7186.15
659.836	7212.78
660.028	7290.6
660.22	7063.27
660.412	7102.18
660.604	7012.07
660.796	7014.12
660.988	6960.88
661.18	6833.9
661.372	6682.35
661.563	6938.35
661.755	6807.28
661.947	6680.3
662.139	6786.8
662.331	6739.69
662.522	6631.15
662.714	6600.43
662.906	6532.85
663.097	6534.9
663.289	6358.77
663.481	6405.88
663.673	6360.82
663.864	6291.19
664.056	6426.36
664.247	6432.5
664.439	5986.04
664.631	6153.98
664.822	6403.83
665.014	6244.09
665.205	6258.42
665.397	6000.38
665.588	6219.51
665.78	6065.91
665.971	5973.75
666.163	6119.16
666.354	6020.86
666.546	6043.39
666.737	5885.69
666.929	5836.54
667.12	5967.61
667.311	5955.32
667.503	5814.01
667.694	5752.57
667.885	5658.37
668.077	5705.47
668.268	5797.63
668.459	5637.89
668.651	5660.41
668.842	5562.11
669.033	5504.77
669.224	5529.34
669.416	5492.48
669.607	5574.4
669.798	5414.66
669.989	5500.67
670.18	5433.09
670.371	5422.85
670.563	5351.17
670.754	5398.27
670.945	5222.15
671.136	5381.89
671.327	5250.82
671.518	5209.86
671.709	5246.73
671.9	5213.96
672.091	5054.22
672.282	5254.92
672.473	5111.56
672.664	5146.37
672.855	5086.98
673.046	4935.43
673.237	5070.6
673.428	5103.37
673.619	4949.77
673.809	5033.74
674	5119.75
674.191	4751.12
674.382	4970.25
674.573	4978.44
674.764	4884.23
674.954	4947.72
675.145	4798.22
675.336	4871.95
675.527	4880.14
675.717	4935.43
675.908	4708.11
676.099	4603.66
676.289	4673.29
676.48	4671.25
676.671	4742.92
676.861	4656.91
677.052	4767.5
677.243	4566.8
677.433	4548.37
677.624	4744.97
677.814	4654.86
678.005	4605.71
678.195	4634.38
678.386	4656.91
678.576	4669.2
678.767	4357.91
678.957	4579.09
679.148	4654.86
679.338	4491.02
679.529	4544.27
679.719	4501.26
679.909	4509.46
680.1	4519.7
680.29	4505.36
680.481	4507.41
680.671	4546.32
680.861	4427.54
681.052	4464.4
681.242	4478.74
681.432	4298.52
681.622	4304.66
681.813	4298.52
682.003	4366.1
682.193	4275.99
682.383	4394.77
682.573	4372.24
682.764	4415.25
682.954	4368.15
683.144	4323.09
683.334	4394.77
683.524	4196.12
683.714	4288.28
683.904	4296.47
684.094	4230.93
684.284	4247.32
684.474	4273.94
684.664	4245.27
684.854	4124.44
685.044	4140.82
685.234	4075.29
685.424	4128.53
685.614	4122.39
685.804	4044.57
685.994	4108.05
686.184	4034.33
686.374	4011.8
686.564	4071.19
686.753	4112.15
686.943	3931.93
687.133	3950.36
687.323	4040.47
687.513	4003.61
687.702	4024.09
687.892	3927.83
688.082	3911.45
688.272	3915.55
688.461	3942.17
688.651	3899.16
688.841	3854.11
689.03	3925.79
689.22	3804.96
689.41	3759.9
689.599	3788.57
689.789	3675.93
689.979	3800.86
690.168	3831.58
690.358	3565.34
690.547	3551.01
690.737	3725.08
690.926	3647.26
691.116	3600.16
691.305	3655.45
691.495	3514.14
691.684	3528.48
691.874	3606.3
692.063	3628.83
692.252	3428.13
692.442	3462.94
692.631	3471.14
692.82	3348.26
693.01	3456.8
693.199	3276.58
693.388	3407.65
693.578	3399.46
693.767	3462.94
693.956	3407.65
694.146	3338.02
694.335	3276.58
694.524	3303.2
694.713	3372.83
694.902	3346.21
695.092	3211.04
695.281	3243.81
695.47	3260.2
695.659	3174.18
695.848	3227.43
696.037	3209
696.226	3221.28
696.415	3098.41
696.604	3086.12
696.793	3063.59
696.982	3133.22
697.171	3131.17
697.36	3170.08
697.549	3079.97
697.738	2989.86
697.927	2938.66
698.116	3163.94
698.305	2985.77
698.494	2944.81
698.683	2973.48
698.872	2944.81
699.061	3000.1
699.25	2922.28
699.438	3055.4
699.627	2914.09
699.816	2991.91
700.005	2909.99
700.193	2996.01
700.382	3030.82
700.571	2891.56
700.76	2797.35
700.948	2897.71
701.137	2881.32
701.326	2803.5
701.514	2834.22
701.703	2791.21
701.892	2848.55
702.08	2875.18
702.269	2905.9
702.457	2758.44
702.646	2826.03
702.834	2914.09
703.023	2871.08
703.212	2852.65
703.4	2871.08
703.589	2719.53
703.777	2785.07
703.965	2715.44
704.154	2654
704.342	2711.34
704.531	2733.87
704.719	2817.83
704.907	2721.58
705.096	2643.76
705.284	2697
705.472	2713.39
705.661	2737.96
705.849	2649.9
706.037	2742.06
706.226	2664.24
706.414	2654
706.602	2688.81
706.79	2699.05
706.979	2551.6
707.167	2662.19
707.355	2674.48
707.543	2774.83
707.731	2723.63
707.919	2690.86
708.107	2594.61
708.296	2584.37
708.484	2703.15
708.672	2643.76
708.86	2680.62
709.048	2563.89
709.236	2637.61
709.424	2656.04
709.612	2588.46
709.8	2627.37
709.988	2610.99
710.176	2600.75
710.364	2547.5
710.551	2494.26
710.739	2645.8
710.927	2645.8
711.115	2580.27
711.303	2555.69
711.491	2490.16
711.679	2529.07
711.866	2608.94
712.054	2707.24
712.242	2436.91
712.43	2553.65
712.617	2615.09
712.805	2535.21
712.993	2555.69
713.181	2557.74
713.368	2535.21
713.556	2567.98
713.744	2555.69
713.931	2637.61
714.119	2506.54
714.306	2629.42
714.494	2584.37
714.682	2535.21
714.869	2543.41
715.057	2635.57
715.244	2428.72
715.432	2664.24
715.619	2584.37
715.807	2479.92
715.994	2666.28
716.182	2477.87
716.369	2549.55
716.556	2551.6
716.744	2529.07
716.931	2393.9
717.119	2500.4
717.306	2461.49
717.493	2549.55
717.681	2539.31
717.868	2465.58
718.055	2637.61
718.242	2400.05
718.43	2586.41
718.617	2570.03
718.804	2502.45
718.991	2520.88
719.179	2649.9
719.366	2524.97
719.553	2455.34
719.74	2438.96
719.927	2664.24
720.114	2432.82
720.301	2598.7
720.488	2490.16
720.676	2496.3
720.863	2529.07
721.05	2512.69
721.237	2604.85
721.424	2516.78
721.611	2574.13
721.798	2627.37
721.985	2518.83
722.172	2488.11
722.358	2469.68
722.545	2551.6
722.732	2596.65
722.919	2486.06
723.106	2512.69
723.293	2602.8
723.48	2490.16
723.667	2553.65
723.853	2672.43
724.04	2498.35
724.227	2539.31
724.414	2522.93
724.6	2510.64
724.787	2594.61
724.974	2545.45
725.161	2567.98
725.347	2475.82
725.534	2537.26
725.72	2502.45
725.907	2565.93
726.094	2524.97
726.28	2590.51
726.467	2504.5
726.653	2426.67
726.84	2529.07
727.027	2635.57
727.213	2406.19
727.4	2520.88
727.586	2514.73
727.773	2545.45
727.959	2602.8
728.145	2441.01
728.332	2471.73
728.518	2408.24
728.705	2459.44
728.891	2486.06
729.077	2539.31
729.264	2443.06
729.45	2455.34
729.636	2651.95
729.823	2604.85
730.009	2551.6
730.195	2531.12
730.382	2416.43
730.568	2572.08
730.754	2602.8
730.94	2443.06
731.126	2395.95
731.313	2539.31
731.499	2490.16
731.685	2602.8
731.871	2481.97
732.057	2551.6
732.243	2488.11
732.429	2539.31
732.615	2520.88
732.801	2543.41
732.987	2588.46
733.173	2502.45
733.359	2475.82
733.545	2520.88
733.731	2570.03
733.917	2514.73
734.103	2490.16
734.289	2420.53
734.475	2438.96
734.661	2451.25
734.847	2430.77
735.033	2488.11
735.219	2633.52
735.404	2404.14
735.59	2496.3
735.776	2361.14
735.962	2518.83
736.148	2484.02
736.333	2477.87
736.519	2543.41
736.705	2387.76
736.89	2563.89
737.076	2455.34
737.262	2377.52
737.447	2441.01
737.633	2359.09
737.819	2473.78
738.004	2379.57
738.19	2465.58
738.375	2418.48
738.561	2496.3
738.747	2363.19
738.932	2430.77
739.118	2455.34
739.303	2320.18
739.489	2441.01
739.674	2285.36
739.859	2436.91
740.045	2348.85
740.23	2303.79
740.416	2309.94
740.601	2287.41
740.786	2326.32
740.972	2195.25
741.157	2262.83
741.342	2215.73
741.528	2344.75
741.713	2314.03
741.898	2293.55
742.084	2398
742.269	2258.74
742.454	2170.68
742.639	2232.12
742.824	2260.79
743.01	2207.54
743.195	2199.35
743.38	2279.22
743.565	2221.88
743.75	2178.87
743.935	2146.1
744.12	2164.53
744.305	2158.39
744.49	2092.85
744.675	2221.88
744.86	2158.39
745.045	2129.72
745.23	2170.68
745.415	2311.99
745.6	2092.85
745.785	2086.71
745.97	2076.47
746.155	2131.76
746.34	2070.33
746.525	2031.41
746.71	2072.37
746.895	2039.61
747.079	1986.36
747.264	1965.88
747.449	2047.8
747.634	1974.07
747.819	1908.54
748.003	1965.88
748.188	1847.1
748.373	2002.74
748.557	1980.22
748.742	1931.06
748.927	1910.58
749.111	1955.64
749.296	1869.62
749.481	1840.95
749.665	1810.23
749.85	1843
750.034	1740.6
750.219	1986.36
750.404	1746.75
750.588	1744.7
750.773	1752.89
750.957	1785.66
751.141	1713.98
751.326	1724.22
751.51	1750.84
751.695	1679.16
751.879	1820.47
752.064	1773.37
752.248	1693.5
752.432	1691.45
752.617	1752.89
752.801	1634.11
752.985	1711.93
753.17	1627.96
753.354	1668.92
753.538	1673.02
753.722	1621.82
753.907	1611.58
754.091	1617.72
754.275	1601.34
754.459	1591.1
754.643	1531.71
754.828	1517.37
755.012	1523.52
755.196	1490.75
755.38	1490.75
755.564	1468.22
755.748	1486.65
755.932	1474.37
756.116	1406.78
756.3	1376.06
756.484	1490.75
756.668	1464.13
756.852	1328.96
757.036	1384.26
757.22	1544
757.404	1392.45
757.588	1337.15
757.772	1408.83
757.956	1406.78
758.14	1331.01
758.323	1359.68
758.507	1302.34
758.691	1283.91
758.875	1380.16
759.059	1331.01
759.242	1224.51
759.426	1300.29
759.61	1285.95
759.794	1357.63
759.977	1285.95
760.161	1371.97
760.345	1171.27
760.528	1351.49
760.712	1185.6
760.895	1195.84
761.079	1134.4
761.263	1214.27
761.446	1247.04
761.63	1072.96
761.813	1204.03
761.997	1269.57
762.18	1181.51
762.364	1091.4
762.547	1089.35
762.731	1228.61
762.914	1107.78
763.098	1113.92
763.281	1128.26
763.464	1101.64
763.648	1197.89
763.831	1068.87
764.015	1068.87
764.198	1099.59
764.381	1081.16
764.564	1101.64
764.748	1070.92
764.931	1118.02
765.114	1064.77
765.297	1060.68
765.481	1015.62
765.664	1111.88
765.847	1095.49
766.03	1019.72
766.213	1101.64
766.397	1077.06
766.58	1089.35
766.763	1060.68
766.946	1011.53
767.129	999.24
767.312	948.04
767.495	1040.2
767.678	974.66
767.861	1013.57
768.044	1048.39
768.227	1021.77
768.41	1040.2
768.593	954.18
768.776	921.42
768.959	997.19
769.142	905.03
769.324	1093.44
769.507	1036.1
769.69	954.18
769.873	913.22
770.056	907.08
770.239	978.76
770.421	1007.43
770.604	945.99
770.787	900.94
770.97	962.37
771.152	849.74
771.335	880.46
771.518	917.32
771.7	915.27
771.883	853.83
772.066	880.46
772.248	859.98
772.431	921.42
772.613	915.27
772.796	784.2
772.978	868.17
773.161	907.08
773.343	896.84
773.526	884.55
773.708	819.02
773.891	745.29
774.073	847.69
774.256	753.48
774.438	829.26
774.621	784.2
774.803	788.3
774.985	810.82
775.168	782.15
775.35	771.91
775.532	892.74
775.715	794.44
775.897	800.59
776.079	837.45
776.261	800.59
776.444	714.57
776.626	792.39
776.808	708.43
776.99	679.75
777.173	692.04
777.355	737.1
777.537	722.76
777.719	632.65
777.901	671.56
778.083	628.56
778.265	675.66
778.447	749.39
778.629	716.62
778.811	702.28
778.993	677.71
779.175	755.53
779.357	634.7
779.539	675.66
779.721	679.75
779.903	659.28
780.085	698.19
780.267	646.99
780.449	618.32
780.631	612.17
780.812	548.68
780.994	601.93
781.176	552.78
781.358	659.28
781.54	511.82
781.721	636.75
781.903	581.45
782.085	622.41
782.267	642.89
782.448	534.35
782.63	487.25
782.812	579.4
782.993	536.4
783.175	540.49
783.357	587.6
783.538	589.64
783.72	507.73
783.901	507.73
784.083	538.45
784.264	505.68
784.446	542.54
784.627	513.87
784.809	503.63
784.99	544.59
785.172	481.1
785.353	538.45
785.535	552.78
785.716	497.49
785.897	491.34
786.079	524.11
786.26	462.67
786.441	491.34
786.623	487.25
786.804	556.88
786.985	487.25
787.167	417.61
787.348	446.29
787.529	440.14
787.71	542.54
787.891	403.28
788.073	442.19
788.254	413.52
788.435	362.32
788.616	413.52
788.797	464.72
788.978	450.38
789.159	401.23
789.34	378.7
789.522	448.33
789.703	397.14
789.884	343.89
790.065	352.08
790.246	370.51
790.427	339.79
790.607	407.38
790.788	399.18
790.969	413.52
791.15	409.42
791.331	397.14
791.512	339.79
791.693	395.09
791.874	350.03
792.054	434
792.235	366.42
792.416	395.09
792.597	325.46
792.778	331.6
792.958	438.09
793.139	341.84
793.32	376.66
793.5	372.56
793.681	311.12
793.862	388.94
794.042	354.13
794.223	343.89
794.404	294.74
794.584	309.07
794.765	325.46
794.945	390.99
795.126	335.7
795.306	302.93
795.487	302.93
795.667	259.92
795.848	286.54
796.028	368.46
796.209	405.33
796.389	368.46
796.57	272.21
796.75	302.93
796.93	321.36
797.111	313.17
797.291	251.73
797.471	286.54
797.652	304.98
797.832	331.6
798.012	294.74
798.192	282.45
798.373	286.54
798.553	249.68
798.733	270.16
798.913	307.02
799.093	221.01
799.274	255.83
799.454	370.51
799.634	280.4
799.814	268.11
799.994	249.68
800.174	237.39
800.354	339.79
800.534	204.63
800.714	231.25
800.894	261.97
801.074	233.3
801.254	145.24
801.434	278.35
801.614	292.69
801.794	237.39
801.974	544.59
802.154	208.72
802.334	210.77
802.514	149.33
802.693	200.53
802.873	261.97
803.053	210.77
803.233	178
803.413	243.54
803.592	233.3
803.772	259.92
803.952	204.63
804.131	188.24
804.311	253.78
804.491	186.19
804.67	206.67
804.85	194.39
805.03	212.82
805.209	247.63
805.389	225.11
805.568	231.25
805.748	261.97
805.928	233.3
806.107	225.11
806.287	223.06
806.466	161.62
806.646	221.01
806.825	175.95
807.004	124.76
807.184	194.39
807.363	249.68
807.543	198.48
807.722	137.04
807.901	208.72
808.081	141.14
808.26	221.01
808.439	169.81
808.619	276.31
808.798	278.35
808.977	235.35
809.156	204.63
809.336	227.15
809.515	145.24
809.694	155.47
809.873	186.19
810.052	206.67
810.231	221.01
810.411	163.67
810.59	190.29
810.769	137.04
810.948	200.53
811.127	196.43
811.306	163.67
811.485	178
811.664	198.48
811.843	143.19
812.022	48.98
812.201	122.71
812.38	165.71
812.559	118.61
812.737	122.71
812.916	65.36
813.095	112.47
813.274	184.15
813.453	200.53
813.632	155.47
813.811	141.14
813.989	212.82
814.168	112.47
814.347	155.47
814.526	126.8
814.704	135
814.883	235.35
815.062	163.67
815.24	200.53
815.419	112.47
815.598	204.63
815.776	98.13
815.955	196.43
816.133	135
816.312	128.85
816.49	153.43
816.669	165.71
816.847	169.81
817.026	135
817.204	204.63
817.383	81.75
817.561	151.38
817.74	147.28
817.918	87.89
818.097	69.46
818.275	143.19
818.453	196.43
818.632	182.1
818.81	214.87
818.988	118.61
819.167	96.08
819.345	192.34
819.523	89.94
819.701	122.71
819.879	159.57
820.058	128.85
820.236	175.95
820.414	128.85
820.592	141.14
820.77	204.63
820.948	53.08
821.127	106.32
821.305	149.33
821.483	130.9
821.661	132.95
821.839	55.12
822.017	190.29
822.195	51.03
822.373	112.47
822.551	155.47
822.729	112.47
822.907	143.19
823.085	83.8
823.262	73.56
823.44	116.56
823.618	79.7
823.796	114.52
823.974	34.64
824.152	120.66
824.329	120.66
824.507	79.7
824.685	126.8
824.863	132.95
825.04	141.14
825.218	71.51
825.396	69.46
825.574	118.61
825.751	118.61
825.929	145.24
826.107	91.99
826.284	112.47
826.462	53.08
826.639	96.08
826.817	81.75
826.994	57.17
827.172	38.74
827.349	130.9
827.527	85.84
827.704	79.7
827.882	85.84
828.059	210.77
828.237	79.7
828.414	188.24
828.591	114.52
828.769	122.71
828.946	46.93
829.124	63.32
829.301	106.32
829.478	96.08
829.655	106.32
829.833	79.7
830.01	73.56
830.187	141.14
830.364	96.08
830.542	32.6
830.719	130.9
830.896	137.04
831.073	104.28
831.25	132.95
831.427	81.75
831.604	44.88
831.782	85.84
831.959	59.22
832.136	79.7
832.313	102.23
832.49	55.12
832.667	77.65
832.844	81.75
833.021	130.9
833.198	30.55
833.374	130.9
833.551	32.6
833.728	65.36
833.905	130.9
834.082	8.02
834.259	85.84
834.436	26.45
834.612	55.12
834.789	65.36
834.966	16.21
835.143	53.08
835.319	38.74
835.496	98.13
835.673	14.17
835.85	69.46
836.026	36.69
836.203	124.76
836.38	3.93
836.556	48.98
836.733	71.51
836.909	118.61
837.086	18.26
837.262	34.64
837.439	106.32
837.616	79.7
837.792	65.36
837.968	73.56
838.145	12.12
838.321	89.94
838.498	65.36
838.674	81.75
838.851	89.94
839.027	53.08
839.203	81.75
839.38	28.5
839.556	40.79
839.732	12.12
839.909	57.17
840.085	120.66
840.261	120.66
840.437	89.94
840.614	79.7
840.79	79.7
840.966	65.36
841.142	87.89
841.318	102.23
841.494	-32.94
841.671	1.88
841.847	38.74
842.023	40.79
842.199	65.36
842.375	73.56
842.551	38.74
842.727	8.02
842.903	40.79
843.079	-41.13
843.255	69.46
843.431	75.6
843.607	51.03
843.783	61.27
843.959	28.5
844.134	-22.7
844.31	69.46
844.486	-22.7
844.662	20.31
844.838	20.31
845.013	110.42
845.189	106.32
845.365	16.21
845.541	48.98
845.716	79.7
845.892	57.17
846.068	24.4
846.244	44.88
846.419	44.88
846.595	57.17
846.77	-8.36
846.946	-6.31
847.122	69.46
847.297	10.07
847.473	30.55
847.648	20.31
847.824	98.13
847.999	18.26
848.175	69.46
848.35	73.56
848.526	48.98
848.701	40.79
848.876	8.02
849.052	46.93
849.227	24.4
849.403	55.12
849.578	3.93
849.753	46.93
849.929	139.09
850.104	12.12
850.279	61.27
850.454	3.93
850.63	-10.41
850.805	34.64
850.98	26.45
851.155	48.98
851.33	48.98
851.505	-28.84
851.681	124.76
851.856	32.6
852.031	87.89
852.206	-43.18
852.381	-20.65
852.556	3.93
852.731	104.28
852.906	24.4
853.081	38.74
853.256	40.79
853.431	44.88
853.606	48.98
853.781	-37.03
853.956	24.4
854.131	77.65
854.305	-34.99
854.48	16.21
854.655	42.84
854.83	-73.9
855.005	-18.6
855.18	16.21
855.354	46.93
855.529	100.18
855.704	26.45
855.879	24.4
856.053	12.12
856.228	-12.46
856.403	8.02
856.577	5.97
856.752	-18.6
856.926	-8.36
857.101	48.98
857.276	-59.56
857.45	-20.65
857.625	48.98
857.799	48.98
857.974	-30.89
858.148	61.27
858.323	79.7
858.497	69.46
858.672	-49.32
858.846	32.6
859.02	67.41
859.195	-4.27
859.369	40.79
859.543	-34.99
859.718	69.46
859.892	-4.27
860.066	-24.75
860.241	-24.75
860.415	16.21
860.589	3.93
860.763	8.02
860.938	-12.46
861.112	112.47
861.286	16.21
861.46	53.08
861.634	67.41
861.808	30.55
861.982	32.6
862.157	-20.65
862.331	-59.56
862.505	30.55
862.679	12.12
862.853	16.21
863.027	8.02
863.201	38.74
863.375	-32.94
863.549	36.69
863.722	-24.75
863.896	28.5
864.07	-75.95
864.244	8.02
864.418	30.55
864.592	28.5
864.766	42.84
864.939	-16.55
865.113	40.79
865.287	30.55
865.461	-2.22
865.634	28.5
865.808	55.12
865.982	38.74
866.156	-75.95
866.329	-6.31
866.503	-45.23
866.676	24.4
866.85	22.36
867.024	-43.18
867.197	46.93
867.371	61.27
867.544	-37.03
867.718	16.21
867.891	34.64
868.065	28.5
868.238	-8.36
868.412	81.75
868.585	-39.08
868.759	8.02
868.932	3.93
869.105	24.4
869.279	-67.75
869.452	-67.75
869.625	3.93
869.799	42.84
869.972	-10.41
870.145	-2.22
870.319	3.93
870.492	-6.31
870.665	55.12
870.838	-59.56
871.011	-16.55
871.185	32.6
871.358	-20.65
871.531	24.4
871.704	46.93
871.877	-14.51
872.05	-0.17
872.223	44.88
872.396	-8.36
872.569	57.17
872.742	-16.55
872.915	-12.46
873.088	-37.03
873.261	-4.27
873.434	30.55
873.607	26.45
873.78	-22.7
873.953	28.5
874.126	-71.85
874.299	-90.28
874.471	-41.13
874.644	-53.42
874.817	-20.65
874.99	22.36
875.163	-43.18
875.335	-14.51
875.508	10.07
875.681	-0.17
875.853	3.93
876.026	96.08
876.199	-6.31
876.371	-16.55
876.544	-10.41
876.717	8.02
876.889	-41.13
877.062	-67.75
877.234	75.6
877.407	-26.79
877.579	-18.6
877.752	32.6
877.924	42.84
878.097	-18.6
878.269	-0.17
878.442	-41.13
878.614	-8.36
878.786	-75.95
878.959	73.56
879.131	-4.27
879.303	-4.27
879.476	51.03
879.648	79.7
879.82	57.17
879.993	-16.55
880.165	-32.94
880.337	-8.36
880.509	-90.28
880.681	1.88
880.854	-16.55
881.026	-16.55
881.198	-14.51
881.37	-34.99
881.542	-10.41
881.714	51.03
881.886	14.17
882.058	-41.13
882.23	14.17
882.402	59.22
882.574	-14.51
882.746	-16.55
882.918	20.31
883.09	22.36
883.262	-22.7
883.434	-28.84
883.606	28.5
883.778	-16.55
883.95	40.79
884.122	18.26
884.293	30.55
884.465	18.26
884.637	-20.65
884.809	-26.79
884.98	20.31
885.152	-8.36
885.324	44.88
885.496	32.6
885.667	-34.99
885.839	55.12
886.011	48.98
886.182	-22.7
886.354	-12.46
886.525	48.98
886.697	-6.31
886.869	-30.89
887.04	22.36
887.212	-6.31
887.383	20.31
887.555	12.12
887.726	28.5
887.897	40.79
888.069	18.26
888.24	65.36
888.412	-32.94
888.583	-69.8
888.754	-0.17
888.926	-37.03
889.097	26.45
889.268	-16.55
889.44	-2.22
889.611	57.17
889.782	-34.99
889.953	12.12
890.125	3.93
890.296	1.88
890.467	-8.36
890.638	-14.51
890.809	-16.55
890.98	-10.41
891.151	-4.27
891.323	-20.65
891.494	5.97
891.665	65.36
891.836	16.21
892.007	-28.84
892.178	51.03
892.349	-32.94
892.52	-20.65
892.691	55.12
892.862	-8.36
893.032	-61.61
893.203	-4.27
893.374	22.36
893.545	1.88
893.716	5.97
893.887	-18.6
894.057	-8.36
894.228	-32.94
894.399	-41.13
894.57	5.97
894.74	20.31
894.911	26.45
895.082	-2.22
895.253	-59.56
895.423	16.21
895.594	51.03
895.764	30.55
895.935	-20.65
896.106	22.36
896.276	40.79
896.447	-10.41
896.617	-28.84
896.788	69.46
896.958	-59.56
897.129	-34.99
897.299	-18.6
897.47	5.97
897.64	48.98
897.81	-112.81
897.981	12.12
898.151	-32.94
898.322	12.12
898.492	10.07
898.662	14.17
898.832	-82.09
899.003	-65.71
899.173	-22.7
899.343	-43.18
899.513	-16.55
