Data from USB4F104151__66__11-37-30-240.txt Node

Date: Fri Mar 14 11:37:30 EDT 2025
User: louis
Spectrometer: USB4F10415
Trigger mode: 4
Integration Time (sec): 2.000000E-2
Scans to average: 1
Electric dark correction enabled: true
Nonlinearity correction enabled: false
Boxcar width: 0
XAxis mode: Wavelengths
Number of Pixels in Spectrum: 3648
>>>>>Begin Spectral Data<<<<<
178.204	-29.87
178.424	-29.87
178.644	-29.87
178.864	-122.02
179.084	-87.21
179.304	-21.67
179.524	-85.16
179.744	2.9
179.964	56.15
180.184	-50.35
180.404	76.63
180.624	35.67
180.844	15.19
181.064	-46.25
181.283	66.39
181.503	-91.31
181.723	41.81
181.943	-68.78
182.163	45.91
182.383	-56.49
182.602	-29.87
182.822	45.91
183.042	82.77
183.262	50
183.482	35.67
183.701	-46.25
183.921	82.77
184.141	-23.72
184.361	31.57
184.58	0.85
184.8	13.14
185.02	-7.34
185.239	88.92
185.459	-9.39
185.679	64.34
185.898	78.68
186.118	23.38
186.338	-48.3
186.557	13.14
186.777	-36.01
186.997	45.91
187.216	-11.43
187.436	68.44
187.655	19.29
187.875	62.29
188.095	103.25
188.314	15.19
188.534	95.06
188.753	68.44
188.973	-7.34
189.192	21.33
189.412	41.81
189.631	103.25
189.851	11.09
190.07	9.05
190.29	-7.34
190.509	-19.63
190.729	47.96
190.948	103.25
191.168	45.91
191.387	11.09
191.607	-38.06
191.826	-25.77
192.045	4.95
192.265	-27.82
192.484	13.14
192.704	-42.15
192.923	21.33
193.142	95.06
193.362	21.33
193.581	78.68
193.8	62.29
194.02	29.52
194.239	-9.39
194.458	-89.26
194.678	66.39
194.897	45.91
195.116	-56.49
195.335	19.29
195.555	-23.72
195.774	54.1
195.993	76.63
196.212	-21.67
196.432	31.57
196.651	-38.06
196.87	13.14
197.089	76.63
197.308	27.48
197.528	60.24
197.747	37.72
197.966	21.33
198.185	101.2
198.404	4.95
198.623	-21.67
198.842	-31.91
199.062	-19.63
199.281	162.64
199.5	0.85
199.719	113.49
199.938	29.52
200.157	70.48
200.376	-81.07
200.595	25.43
200.814	68.44
201.033	-33.96
201.252	97.11
201.471	9.05
201.69	9.05
201.909	25.43
202.128	86.87
202.347	-9.39
202.566	-36.01
202.785	-7.34
203.004	7
203.223	50
203.442	-9.39
203.661	2.9
203.879	-25.77
204.098	107.35
204.317	-74.92
204.536	-3.24
204.755	29.52
204.974	-36.01
205.193	62.29
205.411	76.63
205.63	17.24
205.849	70.48
206.068	-19.63
206.287	97.11
206.505	-25.77
206.724	43.86
206.943	56.15
207.162	11.09
207.381	-11.43
207.599	72.53
207.818	21.33
208.037	60.24
208.255	-91.31
208.474	29.52
208.693	25.43
208.911	66.39
209.13	-7.34
209.349	70.48
209.567	29.52
209.786	43.86
210.005	-11.43
210.223	29.52
210.442	19.29
210.661	33.62
210.879	-11.43
211.098	70.48
211.316	-13.48
211.535	31.57
211.753	66.39
211.972	103.25
212.191	19.29
212.409	2.9
212.628	23.38
212.846	41.81
213.065	52.05
213.283	78.68
213.502	-5.29
213.72	78.68
213.938	-1.19
214.157	0.85
214.375	64.34
214.594	35.67
214.812	35.67
215.031	25.43
215.249	62.29
215.467	88.92
215.686	93.01
215.904	17.24
216.122	-29.87
216.341	29.52
216.559	-52.39
216.778	-15.53
216.996	39.76
217.214	37.72
217.432	19.29
217.651	37.72
217.869	-33.96
218.087	33.62
218.306	-3.24
218.524	11.09
218.742	43.86
218.96	58.2
219.179	17.24
219.397	37.72
219.615	127.83
219.833	88.92
220.051	9.05
220.27	78.68
220.488	136.02
220.706	-15.53
220.924	4.95
221.142	-23.72
221.36	-19.63
221.578	103.25
221.796	21.33
222.015	47.96
222.233	52.05
222.451	117.59
222.669	-36.01
222.887	19.29
223.105	47.96
223.323	35.67
223.541	-1.19
223.759	19.29
223.977	-44.2
224.195	4.95
224.413	-11.43
224.631	43.86
224.849	25.43
225.067	37.72
225.285	-1.19
225.503	66.39
225.721	-33.96
225.939	74.58
226.157	31.57
226.375	88.92
226.592	41.81
226.81	66.39
227.028	62.29
227.246	66.39
227.464	21.33
227.682	27.48
227.9	62.29
228.117	58.2
228.335	58.2
228.553	113.49
228.771	11.09
228.989	19.29
229.206	23.38
229.424	60.24
229.642	41.81
229.86	35.67
230.077	54.1
230.295	17.24
230.513	-11.43
230.731	17.24
230.948	54.1
231.166	29.52
231.384	25.43
231.601	-21.67
231.819	54.1
232.037	41.81
232.254	-13.48
232.472	13.14
232.689	-25.77
232.907	41.81
233.125	-29.87
233.342	39.76
233.56	13.14
233.777	95.06
233.995	52.05
234.213	78.68
234.43	-17.58
234.648	37.72
234.865	54.1
235.083	39.76
235.3	78.68
235.518	47.96
235.735	82.77
235.953	39.76
236.17	70.48
236.388	45.91
236.605	17.24
236.822	15.19
237.04	68.44
237.257	9.05
237.475	2.9
237.692	70.48
237.909	41.81
238.127	78.68
238.344	-81.07
238.562	86.87
238.779	-40.11
238.996	-19.63
239.214	129.88
239.431	54.1
239.648	-19.63
239.865	13.14
240.083	-13.48
240.3	-89.26
240.517	15.19
240.735	15.19
240.952	21.33
241.169	50
241.386	0.85
241.603	0.85
241.821	11.09
242.038	56.15
242.255	21.33
242.472	45.91
242.689	-17.58
242.907	4.95
243.124	70.48
243.341	35.67
243.558	-5.29
243.775	9.05
243.992	43.86
244.209	0.85
244.426	146.26
244.643	15.19
244.86	31.57
245.078	29.52
245.295	99.16
245.512	-36.01
245.729	37.72
245.946	-7.34
246.163	15.19
246.38	-7.34
246.597	-15.53
246.814	21.33
247.031	17.24
247.248	70.48
247.464	52.05
247.681	90.96
247.898	2.9
248.115	35.67
248.332	-44.2
248.549	66.39
248.766	117.59
248.983	9.05
249.2	-29.87
249.417	31.57
249.633	-76.97
249.85	109.4
250.067	13.14
250.284	9.05
250.501	52.05
250.717	47.96
250.934	27.48
251.151	25.43
251.368	90.96
251.585	2.9
251.801	35.67
252.018	-5.29
252.235	0.85
252.451	-13.48
252.668	7
252.885	70.48
253.102	41.81
253.318	93.01
253.535	33.62
253.752	-5.29
253.968	-38.06
254.185	-58.54
254.401	21.33
254.618	0.85
254.835	45.91
255.051	56.15
255.268	-25.77
255.484	82.77
255.701	-13.48
255.917	86.87
256.134	4.95
256.351	58.2
256.567	70.48
256.784	56.15
257	-3.24
257.217	-25.77
257.433	60.24
257.65	54.1
257.866	50
258.082	19.29
258.299	19.29
258.515	13.14
258.732	45.91
258.948	41.81
259.165	25.43
259.381	68.44
259.597	50
259.814	-7.34
260.03	35.67
260.246	-11.43
260.463	-50.35
260.679	29.52
260.895	117.59
261.112	82.77
261.328	-29.87
261.544	50
261.761	68.44
261.977	56.15
262.193	-44.2
262.409	-5.29
262.626	25.43
262.842	78.68
263.058	88.92
263.274	105.3
263.49	52.05
263.707	-31.91
263.923	64.34
264.139	25.43
264.355	66.39
264.571	-31.91
264.787	33.62
265.004	50
265.22	43.86
265.436	66.39
265.652	47.96
265.868	7
266.084	-52.39
266.3	45.91
266.516	-9.39
266.732	88.92
266.948	-1.19
267.164	23.38
267.38	23.38
267.596	-1.19
267.812	27.48
268.028	2.9
268.244	27.48
268.46	66.39
268.676	4.95
268.892	-3.24
269.108	21.33
269.324	-11.43
269.54	56.15
269.756	17.24
269.972	78.68
270.188	115.54
270.403	11.09
270.619	50
270.835	41.81
271.051	25.43
271.267	37.72
271.483	45.91
271.698	13.14
271.914	-13.48
272.13	23.38
272.346	21.33
272.562	-31.91
272.777	52.05
272.993	105.3
273.209	29.52
273.425	29.52
273.64	2.9
273.856	31.57
274.072	11.09
274.287	-31.91
274.503	2.9
274.719	76.63
274.934	62.29
275.15	68.44
275.366	7
275.581	43.86
275.797	62.29
276.012	-13.48
276.228	101.2
276.444	0.85
276.659	45.91
276.875	70.48
277.09	33.62
277.306	-60.59
277.521	78.68
277.737	93.01
277.952	27.48
278.168	-15.53
278.383	-3.24
278.599	54.1
278.814	78.68
279.03	56.15
279.245	62.29
279.461	43.86
279.676	72.53
279.892	2.9
280.107	66.39
280.322	19.29
280.538	90.96
280.753	-29.87
280.969	58.2
281.184	37.72
281.399	54.1
281.615	-27.82
281.83	74.58
282.045	27.48
282.26	11.09
282.476	27.48
282.691	43.86
282.906	76.63
283.122	95.06
283.337	-48.3
283.552	45.91
283.767	-1.19
283.983	56.15
284.198	84.82
284.413	21.33
284.628	9.05
284.843	37.72
285.058	62.29
285.274	29.52
285.489	11.09
285.704	19.29
285.919	66.39
286.134	-15.53
286.349	60.24
286.564	9.05
286.779	27.48
286.995	140.12
287.21	43.86
287.425	2.9
287.64	-40.11
287.855	37.72
288.07	4.95
288.285	54.1
288.5	17.24
288.715	99.16
288.93	-5.29
289.145	33.62
289.36	37.72
289.575	50
289.79	115.54
290.004	13.14
290.219	52.05
290.434	4.95
290.649	-3.24
290.864	39.76
291.079	45.91
291.294	25.43
291.509	37.72
291.724	31.57
291.938	97.11
292.153	23.38
292.368	60.24
292.583	62.29
292.798	66.39
293.012	37.72
293.227	58.2
293.442	52.05
293.657	33.62
293.871	47.96
294.086	86.87
294.301	76.63
294.516	39.76
294.73	27.48
294.945	72.53
295.16	45.91
295.374	45.91
295.589	58.2
295.804	11.09
296.018	15.19
296.233	82.77
296.447	54.1
296.662	23.38
296.877	68.44
297.091	64.34
297.306	54.1
297.52	19.29
297.735	-31.91
297.949	90.96
298.164	62.29
298.378	84.82
298.593	-44.2
298.807	21.33
299.022	82.77
299.236	39.76
299.451	41.81
299.665	-25.77
299.88	39.76
300.094	-9.39
300.309	93.01
300.523	17.24
300.737	37.72
300.952	0.85
301.166	136.02
301.381	66.39
301.595	74.58
301.809	64.34
302.024	11.09
302.238	41.81
302.452	78.68
302.667	76.63
302.881	9.05
303.095	54.1
303.309	115.54
303.524	60.24
303.738	60.24
303.952	-72.87
304.166	60.24
304.381	25.43
304.595	-40.11
304.809	50
305.023	-5.29
305.237	54.1
305.452	25.43
305.666	41.81
305.88	35.67
306.094	41.81
306.308	27.48
306.522	29.52
306.736	105.3
306.95	35.67
307.164	29.52
307.379	-36.01
307.593	80.72
307.807	93.01
308.021	58.2
308.235	35.67
308.449	-3.24
308.663	86.87
308.877	82.77
309.091	-11.43
309.305	-3.24
309.519	-3.24
309.733	76.63
309.947	-19.63
310.161	41.81
310.374	70.48
310.588	68.44
310.802	-11.43
311.016	68.44
311.23	80.72
311.444	-1.19
311.658	21.33
311.872	37.72
312.085	-15.53
312.299	146.26
312.513	37.72
312.727	27.48
312.941	-19.63
313.154	54.1
313.368	-15.53
313.582	13.14
313.796	21.33
314.009	80.72
314.223	37.72
314.437	54.1
314.651	95.06
314.864	80.72
315.078	45.91
315.292	37.72
315.505	25.43
315.719	68.44
315.933	68.44
316.146	-7.34
316.36	52.05
316.573	4.95
316.787	-25.77
317.001	50
317.214	62.29
317.428	-7.34
317.641	-11.43
317.855	23.38
318.068	27.48
318.282	47.96
318.495	4.95
318.709	35.67
318.922	21.33
319.136	93.01
319.349	-3.24
319.563	74.58
319.776	54.1
319.99	11.09
320.203	58.2
320.417	64.34
320.63	13.14
320.843	123.73
321.057	4.95
321.27	76.63
321.483	74.58
321.697	-36.01
321.91	39.76
322.124	90.96
322.337	99.16
322.55	31.57
322.763	52.05
322.977	-7.34
323.19	29.52
323.403	78.68
323.617	123.73
323.83	88.92
324.043	35.67
324.256	25.43
324.469	31.57
324.683	95.06
324.896	39.76
325.109	72.53
325.322	33.62
325.535	-3.24
325.748	37.72
325.962	15.19
326.175	62.29
326.388	68.44
326.601	56.15
326.814	62.29
327.027	115.54
327.24	107.35
327.453	58.2
327.666	64.34
327.879	70.48
328.092	-38.06
328.305	66.39
328.518	127.83
328.731	52.05
328.944	68.44
329.157	74.58
329.37	35.67
329.583	17.24
329.796	103.25
330.009	19.29
330.222	37.72
330.435	86.87
330.648	76.63
330.861	84.82
331.073	84.82
331.286	45.91
331.499	-7.34
331.712	-1.19
331.925	93.01
332.138	45.91
332.35	103.25
332.563	4.95
332.776	54.1
332.989	88.92
333.202	66.39
333.414	41.81
333.627	-7.34
333.84	62.29
334.053	19.29
334.265	101.2
334.478	58.2
334.691	-15.53
334.903	0.85
335.116	52.05
335.329	64.34
335.541	27.48
335.754	58.2
335.966	17.24
336.179	52.05
336.392	29.52
336.604	43.86
336.817	39.76
337.029	66.39
337.242	-11.43
337.454	88.92
337.667	13.14
337.88	66.39
338.092	45.91
338.305	123.73
338.517	86.87
338.729	21.33
338.942	43.86
339.154	-11.43
339.367	-15.53
339.579	140.12
339.792	86.87
340.004	50
340.217	31.57
340.429	45.91
340.641	-11.43
340.854	4.95
341.066	43.86
341.278	58.2
341.491	99.16
341.703	62.29
341.915	13.14
342.128	136.02
342.34	58.2
342.552	52.05
342.764	52.05
342.977	33.62
343.189	35.67
343.401	-7.34
343.613	-9.39
343.826	101.2
344.038	-5.29
344.25	-44.2
344.462	50
344.674	84.82
344.886	117.59
345.099	50
345.311	-29.87
345.523	66.39
345.735	37.72
345.947	82.77
346.159	25.43
346.371	19.29
346.583	37.72
346.795	52.05
347.007	58.2
347.219	105.3
347.431	0.85
347.643	47.96
347.855	29.52
348.067	58.2
348.279	-50.35
348.491	109.4
348.703	66.39
348.915	31.57
349.127	-17.58
349.339	62.29
349.551	62.29
349.763	68.44
349.975	-5.29
350.187	93.01
350.399	90.96
350.61	58.2
350.822	86.87
351.034	117.59
351.246	33.62
351.458	37.72
351.669	15.19
351.881	64.34
352.093	68.44
352.305	25.43
352.517	66.39
352.728	78.68
352.94	68.44
353.152	13.14
353.363	60.24
353.575	52.05
353.787	37.72
353.999	17.24
354.21	66.39
354.422	-38.06
354.633	9.05
354.845	64.34
355.057	25.43
355.268	45.91
355.48	142.16
355.692	-27.82
355.903	25.43
356.115	25.43
356.326	13.14
356.538	-25.77
356.749	66.39
356.961	29.52
357.172	76.63
357.384	-44.2
357.595	111.44
357.807	70.48
358.018	-17.58
358.23	78.68
358.441	54.1
358.653	90.96
358.864	76.63
359.075	19.29
359.287	43.86
359.498	41.81
359.709	41.81
359.921	-3.24
360.132	25.43
360.344	54.1
360.555	11.09
360.766	33.62
360.977	-19.63
361.189	45.91
361.4	115.54
361.611	23.38
361.823	41.81
362.034	84.82
362.245	2.9
362.456	117.59
362.667	43.86
362.879	62.29
363.09	80.72
363.301	35.67
363.512	45.91
363.723	37.72
363.935	90.96
364.146	80.72
364.357	95.06
364.568	119.64
364.779	64.34
364.99	99.16
365.201	70.48
365.412	37.72
365.623	50
365.834	35.67
366.045	62.29
366.256	113.49
366.467	64.34
366.678	107.35
366.889	93.01
367.1	64.34
367.311	29.52
367.522	4.95
367.733	115.54
367.944	60.24
368.155	-5.29
368.366	95.06
368.577	70.48
368.788	37.72
368.999	13.14
369.209	140.12
369.42	109.4
369.631	127.83
369.842	60.24
370.053	-3.24
370.264	70.48
370.474	41.81
370.685	23.38
370.896	29.52
371.107	31.57
371.317	68.44
371.528	25.43
371.739	88.92
371.95	58.2
372.16	29.52
372.371	21.33
372.582	88.92
372.792	-11.43
373.003	84.82
373.214	56.15
373.424	35.67
373.635	56.15
373.846	52.05
374.056	23.38
374.267	119.64
374.477	-15.53
374.688	78.68
374.898	50
375.109	52.05
375.319	80.72
375.53	47.96
375.74	27.48
375.951	-3.24
376.161	52.05
376.372	19.29
376.582	39.76
376.793	41.81
377.003	21.33
377.214	35.67
377.424	21.33
377.635	9.05
377.845	54.1
378.055	76.63
378.266	43.86
378.476	103.25
378.686	74.58
378.897	117.59
379.107	37.72
379.317	66.39
379.528	78.68
379.738	93.01
379.948	7
380.158	52.05
380.369	37.72
380.579	121.68
380.789	80.72
380.999	115.54
381.21	121.68
381.42	54.1
381.63	11.09
381.84	107.35
382.05	33.62
382.261	58.2
382.471	35.67
382.681	80.72
382.891	95.06
383.101	80.72
383.311	9.05
383.521	80.72
383.731	11.09
383.941	68.44
384.151	66.39
384.361	127.83
384.571	72.53
384.781	105.3
384.991	119.64
385.201	45.91
385.411	76.63
385.621	84.82
385.831	70.48
386.041	54.1
386.251	39.76
386.461	105.3
386.671	-13.48
386.881	70.48
387.091	29.52
387.301	90.96
387.511	-7.34
387.72	56.15
387.93	136.02
388.14	43.86
388.35	119.64
388.56	41.81
388.769	11.09
388.979	78.68
389.189	84.82
389.399	-44.2
389.609	52.05
389.818	93.01
390.028	95.06
390.238	78.68
390.447	25.43
390.657	86.87
390.867	86.87
391.076	93.01
391.286	84.82
391.496	133.97
391.705	45.91
391.915	82.77
392.125	68.44
392.334	82.77
392.544	131.92
392.753	41.81
392.963	72.53
393.172	58.2
393.382	58.2
393.591	90.96
393.801	11.09
394.01	76.63
394.22	99.16
394.429	103.25
394.639	25.43
394.848	148.31
395.058	68.44
395.267	144.21
395.477	72.53
395.686	125.78
395.895	119.64
396.105	111.44
396.314	99.16
396.524	74.58
396.733	86.87
396.942	107.35
397.152	117.59
397.361	68.44
397.57	152.4
397.78	101.2
397.989	150.36
398.198	142.16
398.407	76.63
398.617	136.02
398.826	164.69
399.035	133.97
399.244	191.31
399.453	84.82
399.663	101.2
399.872	144.21
400.081	99.16
400.29	174.93
400.499	123.73
400.708	162.64
400.917	62.29
401.127	70.48
401.336	170.83
401.545	252.75
401.754	119.64
401.963	168.79
402.172	111.44
402.381	144.21
402.59	121.68
402.799	78.68
403.008	66.39
403.217	127.83
403.426	150.36
403.635	162.64
403.844	172.88
404.053	176.98
404.262	142.16
404.471	189.27
404.68	205.65
404.888	174.93
405.097	127.83
405.306	154.45
405.515	158.55
405.724	164.69
405.933	197.46
406.142	279.38
406.35	181.07
406.559	248.66
406.768	242.51
406.977	265.04
407.185	314.19
407.394	289.62
407.603	301.9
407.812	215.89
408.02	289.62
408.229	316.24
408.438	242.51
408.646	316.24
408.855	310.1
409.064	293.71
409.272	242.51
409.481	404.3
409.69	336.72
409.898	359.25
410.107	334.67
410.315	432.97
410.524	430.93
410.733	355.15
410.941	467.79
411.15	490.32
411.358	549.71
411.567	545.61
411.775	525.13
411.984	467.79
412.192	572.24
412.401	586.57
412.609	582.48
412.818	557.9
413.026	641.87
413.234	613.2
413.443	623.44
413.651	658.25
413.86	664.4
414.068	783.18
414.276	779.08
414.485	746.31
414.693	762.7
414.901	865.1
415.11	936.78
415.318	891.72
415.526	916.3
415.734	977.73
415.943	1016.65
416.151	1045.32
416.359	1090.37
416.567	1084.23
416.776	1182.53
416.984	1211.2
417.192	1194.82
417.4	1211.2
417.608	1409.86
417.817	1303.36
418.025	1354.56
418.233	1477.44
418.441	1538.88
418.649	1624.89
418.857	1596.22
419.065	1592.13
419.273	1661.76
419.481	1813.31
419.689	1854.27
419.897	1913.66
420.105	1954.62
420.313	2102.07
420.521	2007.86
420.729	2030.39
420.937	2214.71
421.145	2302.77
421.353	2411.31
421.561	2474.8
421.769	2550.57
421.977	2552.62
422.185	2505.52
422.393	2786.09
422.601	2939.69
422.809	2921.26
423.017	2884.39
423.224	2990.89
423.432	3185.44
423.64	3134.25
423.848	3355.43
424.056	3410.72
424.263	3722.01
424.471	3779.36
424.679	3595.04
424.887	4043.54
425.094	4051.74
425.302	4055.83
425.51	4307.73
425.718	4246.29
425.925	4363.03
426.133	4645.65
426.341	5006.09
426.548	4989.71
426.756	4956.94
426.964	5075.72
427.171	5468.93
427.379	5561.09
427.586	5612.29
427.794	5808.89
428.001	6032.12
428.209	6351.6
428.417	6183.67
428.624	6660.85
428.832	6798.06
429.039	6703.86
429.247	6849.26
429.454	7133.93
429.662	7746.27
429.869	7287.53
430.076	7844.57
430.284	7541.47
430.491	7926.49
430.699	8315.61
430.906	8176.34
431.114	8436.44
431.321	8745.68
431.528	8954.57
431.736	9470.66
431.943	9976.51
432.15	9781.95
432.358	9796.29
432.565	10205.88
432.772	10351.29
432.979	10695.35
433.187	11033.26
433.394	11004.59
433.601	11635.36
433.808	11811.49
434.016	11596.45
434.223	12212.89
434.43	12829.33
434.637	12728.98
434.844	13599.37
435.052	13625.99
435.259	13511.3
435.466	13810.31
435.673	13390.47
435.88	14553.72
436.087	15446.63
436.294	15215.21
436.501	14867.06
436.708	15393.39
436.915	15776.36
437.122	16458.33
437.329	16159.33
437.537	17125.97
437.743	17093.2
437.95	17232.46
438.157	18025.03
438.364	18752.06
438.571	18383.42
438.778	18803.25
438.985	20275.74
439.192	19554.86
439.399	20042.28
439.606	19931.69
439.813	20765.21
440.02	22096.39
440.227	21633.55
440.433	21719.56
440.64	22034.95
440.847	22342.14
441.054	22718.97
441.261	24107.49
441.467	23755.24
441.674	24293.86
441.881	25074.13
442.088	25092.57
442.294	24895.96
442.501	25487.82
442.708	26147.27
442.914	27009.47
443.121	28127.66
443.328	27191.73
443.534	29469.08
443.741	28727.71
443.948	28070.31
444.154	30171.53
444.361	30026.12
444.568	30695.81
444.774	30167.43
444.981	30581.12
445.187	31682.93
445.394	33132.89
445.6	32510.31
445.807	35649.85
446.013	34142.54
446.22	34113.87
446.426	36092.21
446.633	36358.44
446.839	37161.25
447.046	35649.85
447.252	37931.28
447.459	37697.81
447.665	37566.74
447.871	39158.02
448.078	40980.71
448.284	39176.45
448.491	40024.31
448.697	41648.35
448.903	42369.23
449.11	42469.58
449.316	41732.31
449.522	42334.42
449.728	43473.09
449.935	43661.5
450.141	44341.42
450.347	44660.91
450.553	43610.3
450.76	44163.25
450.966	45688.99
451.172	45017.25
451.378	45938.84
451.584	44652.72
451.791	46295.19
451.997	46119.06
452.203	46774.41
452.409	46995.59
452.615	47059.08
452.821	44808.36
453.027	44386.48
453.233	46813.32
453.44	44970.15
453.646	45355.17
453.852	45871.26
454.058	46215.32
454.264	45129.89
454.47	46315.67
454.676	44685.48
454.882	46180.5
455.088	42076.37
455.294	42989.77
455.5	43694.27
455.705	44159.16
455.911	42387.66
456.117	41335.01
456.323	40693.99
456.529	38881.54
456.735	40302.83
456.941	39397.63
457.147	38752.52
457.352	37357.85
457.558	37185.82
457.764	37181.73
457.97	36811.04
458.176	35764.53
458.381	36165.93
458.587	34220.36
458.793	33892.69
458.999	32364.9
459.204	34650.44
459.41	33691.99
459.616	31259
459.821	31727.99
460.027	31154.55
460.233	30886.27
460.438	29530.51
460.644	29401.49
460.85	28211.62
461.055	27869.61
461.261	27976.11
461.466	25786.83
461.672	25072.09
461.878	26687.93
462.083	24887.77
462.289	24599.01
462.494	24148.45
462.7	23036.41
462.905	22239.75
463.111	23190
463.316	23581.17
463.522	22901.24
463.727	23058.93
463.932	22880.76
464.138	22553.09
464.343	22661.63
464.549	22057.48
464.754	22678.01
464.959	22503.93
465.165	22237.7
465.37	21563.92
465.575	21115.41
465.781	21895.69
465.986	21899.78
466.191	20845.08
466.397	20568.6
466.602	19622.44
466.807	20433.44
467.012	20359.71
467.218	20240.93
467.423	19878.44
467.628	20005.41
467.833	21139.99
468.038	20095.52
468.244	19530.28
468.449	20292.13
468.654	19796.52
468.859	19761.7
469.064	19548.72
469.269	18727.48
469.474	19169.84
469.679	19511.85
469.885	18745.91
470.09	18655.8
470.295	18553.4
470.5	18543.16
470.705	18254.4
470.91	18031.17
471.115	17707.59
471.32	18424.38
471.525	17941.06
471.73	17771.08
471.935	17408.59
472.139	17052.24
472.344	17447.5
472.549	17222.22
472.754	16745.05
472.959	16519.77
473.164	16114.27
473.369	16196.19
473.574	16556.63
473.778	16169.57
473.983	16132.7
474.188	16441.95
474.393	15411.82
474.598	15764.07
474.802	15274.6
475.007	15372.91
475.212	15112.81
475.417	14602.87
475.621	14715.51
475.826	14715.51
476.031	14695.03
476.235	13984.38
476.44	14557.82
476.645	14011.01
476.849	13941.38
477.054	14054.01
477.259	13736.58
477.463	13619.85
477.668	13345.42
477.872	13572.74
478.077	13341.32
478.282	13050.51
478.486	12851.86
478.691	12814.99
478.895	12821.14
479.1	12657.3
479.304	12800.66
479.509	12219.03
479.713	12630.68
479.918	12241.56
480.122	12112.54
480.326	12257.95
480.531	12419.74
480.735	12040.86
480.94	11928.22
481.144	12325.53
481.348	11641.51
481.553	11975.33
481.757	11594.4
481.961	11997.85
482.166	11987.61
482.37	12061.34
482.574	11610.79
482.778	11856.54
482.983	11938.46
483.187	11831.97
483.391	11735.71
483.595	11774.63
483.8	11688.61
484.004	11741.86
484.208	11960.99
484.412	11686.56
484.616	11846.3
484.821	11776.67
485.025	11481.77
485.229	11805.35
485.433	11661.99
485.637	11616.93
485.841	11801.25
486.045	11453.09
486.249	11690.66
486.453	11592.36
486.657	11811.49
486.861	11758.24
487.065	11379.37
487.269	11522.73
487.473	11553.45
487.677	11627.17
487.881	11991.71
488.085	11858.59
488.289	11850.4
488.493	11831.97
488.697	11870.88
488.901	11899.55
489.105	11682.47
489.309	11711.14
489.512	11739.81
489.716	11760.29
489.92	11887.26
490.124	11858.59
490.328	12059.29
490.531	11819.68
490.735	12087.96
490.939	12028.57
491.143	11899.55
491.346	12040.86
491.55	12212.89
491.754	12161.69
491.958	12253.85
492.161	12272.28
492.365	12440.22
492.569	12272.28
492.772	12358.3
492.976	12520.09
493.18	12339.87
493.383	12630.68
493.587	12821.14
493.79	12782.23
493.994	12579.48
494.197	12890.77
494.401	13007.5
494.605	13148.81
494.808	13376.14
495.012	13150.86
495.215	13140.62
495.419	13417.1
495.622	13245.07
495.825	13544.07
496.029	13548.17
496.232	13650.57
496.436	13824.64
496.639	14097.02
496.843	13929.09
497.046	14267
497.249	14537.34
497.453	14457.46
497.656	14604.92
497.859	14652.02
498.063	14967.41
498.266	15266.41
498.469	15024.75
498.673	15479.4
498.876	15516.26
499.079	15637.09
499.282	15569.51
499.485	15991.39
499.689	16032.35
499.892	16341.6
500.095	16392.8
500.298	16904.79
500.501	16706.13
500.705	16925.27
500.908	17283.66
501.111	17177.17
501.314	17355.34
501.517	17738.31
501.72	17766.98
501.923	17910.34
502.126	18408
502.329	18311.74
502.532	18756.15
502.735	18799.16
502.938	18829.88
503.141	18954.8
503.344	19538.48
503.547	19284.53
503.75	19565.1
503.953	19765.8
504.156	20124.19
504.359	20193.83
504.562	20167.2
504.765	20666.91
504.968	20886.04
505.17	21205.52
505.373	21301.78
505.576	21807.62
505.779	21854.73
505.982	22071.81
506.185	22284.8
506.387	22551.04
506.59	22804.99
506.793	23110.13
506.996	22952.44
507.198	23759.34
507.401	23472.62
507.604	23597.55
507.807	24240.61
508.009	24383.97
508.212	24611.29
508.415	24877.53
508.617	25070.04
508.82	25027.03
509.022	25240.02
509.225	25672.14
509.428	25895.37
509.63	26051.02
509.833	26274.24
510.035	26855.87
510.238	26790.33
510.44	26956.22
510.643	27498.93
510.845	27488.69
511.048	27546.03
511.25	28033.45
511.453	28273.06
511.655	28955.04
511.858	28750.24
512.06	28707.23
512.262	29200.79
512.465	29206.94
512.667	29630.87
512.87	29989.26
513.072	30052.75
513.274	30740.86
513.477	30804.35
513.679	30869.89
513.881	31349.11
514.084	31439.22
514.286	31811.95
514.488	31697.27
514.69	32579.94
514.893	32891.23
515.095	32975.2
515.297	33225.05
515.499	33327.45
515.701	33565.01
515.904	33724.75
516.106	33818.96
516.308	34511.17
516.51	34916.67
516.712	34937.15
516.914	35178.81
517.116	35750.2
517.318	35522.87
517.52	35830.07
517.722	36100.4
517.925	36596.01
518.127	37085.47
518.329	37249.31
518.531	37042.46
518.733	37832.98
518.935	37771.54
519.136	37968.15
519.338	38482.19
519.54	38547.72
519.742	39131.39
519.944	38703.37
520.146	39815.41
520.348	39672.06
520.55	39645.43
520.752	39848.18
520.954	41050.34
521.155	40323.31
521.357	41154.79
521.559	41300.19
521.761	41361.63
521.963	41701.59
522.164	42094.8
522.366	42100.95
522.568	42119.38
522.77	42694.86
522.971	43430.08
523.173	42973.38
523.375	43352.26
523.576	43180.23
523.778	43686.07
523.98	43841.72
524.181	43583.68
524.383	43946.17
524.584	44718.25
524.786	44542.13
524.988	44038.33
525.189	44906.66
525.391	45263.01
525.592	45326.5
525.794	45688.99
525.995	45654.17
526.197	45533.34
526.398	45820.06
526.6	45738.14
526.801	46133.4
527.003	45832.35
527.204	46516.37
527.406	46741.64
527.607	46880.91
527.808	47044.74
528.01	46399.63
528.211	46499.98
528.412	47413.38
528.614	47501.44
528.815	47417.47
529.016	47894.65
529.218	47292.55
529.419	47818.88
529.62	47900.79
529.822	47614.08
530.023	47521.92
530.224	47702.14
530.425	47569.02
530.626	47370.37
530.828	47618.17
531.029	48193.65
531.23	47702.14
531.431	47954.04
531.632	47943.8
531.833	48400.5
532.035	48183.41
532.236	48177.27
532.437	48474.23
532.638	48210.04
532.839	48885.87
533.04	48715.89
533.241	47626.37
533.442	49121.38
533.643	48683.12
533.844	48742.51
534.045	49182.82
534.246	48347.25
534.447	48429.17
534.648	48236.66
534.849	48654.45
535.05	48193.65
535.251	48300.15
535.451	48273.52
535.652	49010.79
535.853	48392.31
536.054	48408.69
536.255	48394.35
536.456	48068.73
536.657	48910.44
536.857	48261.24
537.058	48488.56
537.259	48674.93
537.46	48451.7
537.66	48199.8
537.861	48812.14
538.062	48302.2
538.263	48652.4
538.463	48347.25
538.664	48429.17
538.865	48564.34
539.065	48279.67
539.266	48232.57
539.466	48990.31
539.667	48072.82
539.868	48623.73
540.068	48615.54
540.269	48318.58
540.469	48945.26
540.67	48189.56
540.87	48269.43
541.071	48197.75
541.271	48750.7
541.472	48199.8
541.672	48183.41
541.873	48095.35
542.073	47571.07
542.274	48599.15
542.474	47759.48
542.675	48216.18
542.875	48670.83
543.075	47978.62
543.276	47898.75
543.476	48107.64
543.676	48052.34
543.877	48423.03
544.077	48029.82
544.277	48289.91
544.478	48156.79
544.678	48054.39
544.878	48003.19
545.078	48300.15
545.279	47515.78
545.479	48146.55
545.679	48310.39
545.879	47966.33
546.079	47894.65
546.28	47802.49
546.48	47349.89
546.68	48013.43
546.88	48201.85
547.08	48072.82
547.28	47818.88
547.48	47505.54
547.68	47837.31
547.88	47433.86
548.081	47933.56
548.281	47718.53
548.481	47175.81
548.681	48001.14
548.881	47779.96
549.081	47530.11
549.28	47425.67
549.48	47915.13
549.68	47642.75
549.88	48298.1
550.08	47276.16
550.28	47747.2
550.48	47884.41
550.68	47954.04
550.88	47487.1
551.08	47661.18
551.279	47534.21
551.479	47247.49
551.679	47677.57
551.879	47304.84
552.079	47343.75
552.278	47306.88
552.478	47192.2
552.678	47274.12
552.878	47407.23
553.077	47112.33
553.277	47102.09
553.477	47630.46
553.676	47165.57
553.876	47425.67
554.076	46841.99
554.275	46979.21
554.475	46579.85
554.674	47511.68
554.874	47413.38
555.074	46792.84
555.273	47282.31
555.473	47614.08
555.672	46749.84
555.872	46696.59
556.071	47054.98
556.271	47147.14
556.47	46954.63
556.67	46798.99
556.869	46790.8
557.068	46680.21
557.268	46479.5
557.467	46528.66
557.667	46545.04
557.866	46758.03
558.065	46442.64
558.265	46217.36
558.464	46198.93
558.663	46749.84
558.863	46010.52
559.062	46461.07
559.261	45832.35
559.461	46362.77
559.66	45920.41
559.859	46094.49
560.058	45908.12
560.258	45953.18
560.457	45389.98
560.656	46233.75
560.855	45758.62
561.054	46037.14
561.253	45363.36
561.453	45856.92
561.652	45914.26
561.851	45848.73
562.05	45332.64
562.249	45465.76
562.448	45525.15
562.647	45594.78
562.846	45463.71
563.045	45617.31
563.244	44877.99
563.443	45369.51
563.642	44431.54
563.841	44894.38
564.04	44808.36
564.239	45097.13
564.438	44574.89
564.637	44898.47
564.836	44572.85
565.035	44120.24
565.234	44419.25
565.432	44318.9
565.631	44157.11
565.83	44296.37
566.029	43983.03
566.228	44040.37
566.427	43530.43
566.625	43634.88
566.824	43479.23
567.023	44196.02
567.222	43641.02
567.42	43722.94
567.619	43661.5
567.818	43534.53
568.016	43804.86
568.215	43905.21
568.414	43280.58
568.612	43911.35
568.811	43323.58
569.01	43364.54
569.208	42981.57
569.407	43227.33
569.605	42840.26
569.804	43225.28
570.002	42526.92
570.201	43182.27
570.4	42408.14
570.598	42436.81
570.797	42358.99
570.995	42582.22
571.193	42031.32
571.392	42612.94
571.59	42178.77
571.789	42461.39
571.987	42074.32
572.186	41982.16
572.384	41457.88
572.582	42197.2
572.781	41720.02
572.979	41429.21
573.177	41920.73
573.376	41822.42
573.574	41150.69
573.772	41736.41
573.971	41543.9
574.169	40829.16
574.367	40614.12
574.565	41107.68
574.763	40960.23
574.962	41064.67
575.16	40534.25
575.358	40900.84
575.556	39985.4
575.754	40745.19
575.952	40294.64
576.151	40433.9
576.349	39829.75
576.547	40302.83
576.745	40304.88
576.943	40495.34
577.141	39815.41
577.339	39950.58
577.537	39753.97
577.735	39756.02
577.933	39459.07
578.131	39125.25
578.329	39328
578.527	39158.02
578.725	39520.51
578.923	39485.69
579.121	39164.16
579.319	38787.33
579.516	39168.26
579.714	38861.06
579.912	39170.3
580.11	38846.72
580.308	38666.5
580.506	38549.77
580.704	38023.44
580.901	38547.72
581.099	38576.39
581.297	38064.4
581.495	38113.55
581.692	38101.26
581.89	37228.83
582.088	37882.13
582.285	37490.97
582.483	37669.14
582.681	37445.91
582.878	37099.81
583.076	37341.47
583.274	37503.26
583.471	36958.5
583.669	37265.69
583.866	36948.26
584.064	37075.23
584.262	36655.4
584.459	36919.59
584.657	36571.43
584.854	36966.69
585.052	36413.74
585.249	36755.75
585.447	36258.09
585.644	35860.79
585.841	36491.56
586.039	36399.4
586.236	35627.32
586.434	35871.03
586.631	35803.44
586.828	35612.98
587.026	35443
587.223	35342.65
587.42	35494.2
587.618	35383.61
587.815	35156.28
588.012	35297.59
588.21	35092.8
588.407	35311.93
588.604	34867.52
588.801	34851.14
588.999	34568.52
589.196	34568.52
589.393	34937.15
589.59	34464.07
589.787	34287.95
589.984	34373.96
590.182	34083.15
590.379	34134.35
590.576	33712.47
590.773	33935.7
590.97	33915.22
591.167	33671.51
591.364	33184.09
591.561	33722.71
591.758	33472.85
591.955	32827.74
592.152	33386.84
592.349	32858.46
592.546	33212.76
592.743	33276.25
592.94	32579.94
593.137	32735.59
593.334	32899.42
593.531	32166.25
593.727	32704.87
593.924	32805.22
594.121	32268.65
594.318	32864.61
594.515	32074.09
594.712	32168.3
594.908	32143.72
595.105	32426.34
595.302	31754.61
595.499	31906.16
595.696	31613.3
595.892	31517.04
596.089	31601.01
596.286	31596.92
596.482	30935.42
596.679	31635.83
596.876	31287.67
597.072	31363.45
597.269	31375.73
597.466	30738.82
597.662	30716.29
597.859	30632.32
598.055	30726.53
598.252	30808.45
598.448	30511.49
598.645	30140.81
598.841	30349.7
599.038	30312.84
599.234	30085.51
599.431	29862.29
599.627	30050.7
599.824	30058.89
600.02	29806.99
600.217	29614.48
600.413	29661.58
600.609	29321.62
600.806	29507.99
601.002	29421.97
601.198	29274.52
601.395	29481.36
601.591	29223.32
601.787	29092.25
601.984	28889.5
602.18	29165.98
602.376	28832.16
602.572	28699.04
602.769	28793.25
602.965	28598.69
603.161	28445.09
603.357	28393.89
603.553	28137.9
603.75	28252.58
603.946	27939.24
604.142	28015.02
604.338	27886
604.534	27591.09
604.73	27666.86
604.926	27556.27
605.122	27916.72
605.318	27335.09
605.514	27683.25
605.71	27443.63
605.906	27142.58
606.102	27224.5
606.298	27376.05
606.494	27126.2
606.69	27093.43
606.886	27175.35
607.082	26653.12
607.278	26859.96
607.474	26769.85
607.67	27072.95
607.866	26374.59
608.062	26794.43
608.257	26386.88
608.453	26589.63
608.649	26735.04
608.845	26227.14
609.041	26241.48
609.236	26284.48
609.432	26223.05
609.628	26237.38
609.824	26223.05
610.019	25926.09
610.215	26079.69
610.411	26042.82
610.606	25780.68
610.802	25782.73
610.998	26141.13
611.193	25786.83
611.389	25645.52
611.584	25577.94
611.78	25184.73
611.976	25696.72
612.171	25416.15
612.367	25493.97
612.562	25387.47
612.758	25231.83
612.953	25076.18
613.149	25344.47
613.344	25090.52
613.539	25233.88
613.735	25213.4
613.93	25262.55
614.126	24848.86
614.321	25436.63
614.517	24967.64
614.712	24830.43
614.907	24662.49
615.103	25127.38
615.298	24709.6
615.493	25250.26
615.688	24574.43
615.884	25082.33
616.079	24703.45
616.274	24740.32
616.47	24748.51
616.665	24449.5
616.86	24175.08
617.055	24435.17
617.25	24080.87
617.445	24742.36
617.641	23951.85
617.836	24181.22
618.031	23597.55
618.226	24164.84
618.421	24019.43
618.616	23919.08
618.811	23824.87
619.006	24013.29
619.201	23390.7
619.396	23728.62
619.591	23312.88
619.786	23636.46
619.981	23171.57
620.176	23503.34
620.371	22829.56
620.566	23073.27
620.761	22807.03
620.956	22929.91
621.151	22528.51
621.346	23132.66
621.541	22245.89
621.735	22737.4
621.93	22534.65
622.125	22485.5
622.32	21916.17
622.515	22262.27
622.709	21600.78
622.904	21885.45
623.099	21682.7
623.294	21621.26
623.488	21363.22
623.683	21817.86
623.878	21258.77
624.072	21240.34
624.267	20892.18
624.462	21105.17
624.656	20814.36
624.851	20890.13
625.046	20804.12
625.24	20546.08
625.435	20271.65
625.629	20527.64
625.824	20193.83
626.018	20269.6
626.213	19722.79
626.407	19851.81
626.602	19718.7
626.796	19606.06
626.991	19659.31
627.185	19470.89
627.38	19470.89
627.574	19049.01
627.768	19085.87
627.963	19165.74
628.157	18864.69
628.352	19040.82
628.546	18629.18
628.74	18795.06
628.935	18381.37
629.129	18563.64
629.323	18481.72
629.517	18336.32
629.712	18250.3
629.906	18086.47
630.1	17789.51
630.294	17703.5
630.489	17871.43
630.683	17652.3
630.877	17236.56
631.071	17355.34
631.265	17617.48
631.459	17369.68
631.653	17330.76
631.848	17222.22
632.042	17058.39
632.236	16986.71
632.43	16833.11
632.624	16702.04
632.818	16769.62
633.012	16482.91
633.206	16415.32
633.4	16587.35
633.594	16366.17
633.788	16448.09
633.982	16513.63
634.176	16247.39
634.369	15737.45
634.563	15833.7
634.757	15915.62
634.951	15927.91
635.145	15764.07
635.339	15614.57
635.533	15657.57
635.726	15653.48
635.92	15325.8
636.114	15145.58
636.308	15379.05
636.501	15327.85
636.695	15303.28
636.889	14856.82
637.083	15104.62
637.276	14819.96
637.47	14836.34
637.664	14475.9
637.857	14621.3
638.051	14652.02
638.244	14307.96
638.438	14246.52
638.632	14342.78
638.825	14140.03
639.019	14070.4
639.212	14162.56
639.406	13912.71
639.599	14074.49
639.793	14170.75
639.986	13769.35
640.18	13771.4
640.373	13800.07
640.567	13582.98
640.76	13615.75
640.954	13392.52
641.147	13404.81
641.34	13263.5
641.534	13507.21
641.727	13161.1
641.92	13351.56
642.114	13277.83
642.307	13015.69
642.5	13036.17
642.694	12999.31
642.887	12679.83
643.08	12862.1
643.273	12554.9
643.467	12688.02
643.66	12407.45
643.853	12479.13
644.046	12356.25
644.239	12348.06
644.432	12137.12
644.626	12106.4
644.819	11885.22
645.012	11911.84
645.205	12108.44
645.398	11917.98
645.591	11793.06
645.784	11793.06
645.977	11799.2
646.17	11788.96
646.363	11565.73
646.556	11348.65
646.749	11547.3
646.942	11516.58
647.135	11397.8
647.328	11465.38
647.521	11340.46
647.714	11055.79
647.907	11182.76
648.099	11168.43
648.292	11023.02
648.485	10908.33
648.678	10898.1
648.871	10949.29
649.064	10926.77
649.256	10803.89
649.449	10721.97
649.642	10642.1
649.835	10560.18
650.027	10670.77
650.22	10314.42
650.413	10379.96
650.605	10357.43
650.798	10408.63
650.991	10408.63
651.183	10089.15
651.376	10146.49
651.568	10103.48
651.761	10076.86
651.954	10144.44
652.146	10083
652.339	9943.74
652.531	9884.35
652.724	9794.24
652.916	9814.72
653.109	9593.54
653.301	9759.42
653.494	9714.37
653.686	9525.96
653.879	9718.47
654.071	9407.17
654.263	9263.82
654.456	9552.58
654.648	9243.34
654.84	9124.55
655.033	9267.91
655.225	9200.33
655.417	9003.72
655.61	9171.66
655.802	9079.5
655.994	8913.61
656.186	9026.25
656.379	8880.85
656.571	8778.45
656.763	8663.76
656.955	8630.99
657.148	8739.54
657.34	8710.86
657.532	8426.2
657.724	8579.79
657.916	8485.59
658.108	8602.32
658.3	8405.72
658.492	8581.84
658.684	8229.59
658.876	8346.33
659.068	8420.05
659.26	8209.11
659.452	8112.86
659.644	8198.87
659.836	8012.51
660.028	8268.5
660.22	8139.48
660.412	8000.22
660.604	7946.97
660.796	7926.49
660.988	7789.28
661.18	7877.34
661.372	7635.68
661.563	8071.9
661.755	7660.26
661.947	7797.47
662.139	7570.15
662.331	7484.13
662.522	7434.98
662.714	7457.51
662.906	7455.46
663.097	7226.09
663.289	7328.49
663.481	7256.81
663.673	7443.17
663.864	7156.46
664.056	7244.52
664.247	7172.84
664.439	7088.87
664.631	7127.78
664.822	7011.05
665.014	6968.04
665.205	7086.83
665.397	6894.32
665.588	7006.95
665.78	6959.85
665.971	6841.07
666.163	6789.87
666.354	6705.9
666.546	6777.58
666.737	6632.18
666.929	6650.61
667.12	6554.35
667.311	6738.67
667.503	6554.35
667.694	6445.81
667.885	6497.01
668.077	6451.95
668.268	6359.8
668.459	6515.44
668.651	6486.77
668.842	6499.06
669.033	6269.69
669.224	6470.39
669.416	6359.8
669.607	6236.92
669.798	6408.95
669.989	6130.42
670.18	6247.16
670.371	6122.23
670.563	5982.97
670.754	6093.56
670.945	6030.07
671.136	5999.35
671.327	6064.89
671.518	6097.66
671.709	5962.49
671.9	5942.01
672.091	5876.48
672.282	5946.11
672.473	5731.07
672.664	5825.28
672.855	5698.3
673.046	5731.07
673.237	5853.95
673.428	5716.73
673.619	5604.1
673.809	5671.68
674	5710.59
674.191	5751.55
674.382	5647.1
674.573	5759.74
674.764	5520.13
674.954	5454.59
675.145	5530.37
675.336	5481.22
675.527	5534.46
675.717	5573.38
675.908	5184.26
676.099	5403.39
676.289	5391.11
676.48	5522.18
676.671	5288.71
676.861	5272.32
677.052	5108.49
677.243	5255.94
677.433	5274.37
677.624	5221.13
677.814	5141.25
678.005	5214.98
678.195	5061.38
678.386	4948.75
678.576	5165.83
678.767	5022.47
678.957	4991.75
679.148	5083.91
679.338	5176.07
679.529	4971.27
679.719	4932.36
679.909	5026.57
680.1	4934.41
680.29	4997.9
680.481	4864.78
680.671	4870.92
680.861	5081.86
681.052	5034.76
681.242	4954.89
681.432	4915.98
681.622	4821.77
681.813	4789
682.003	4856.59
682.193	4813.58
682.383	4846.35
682.573	4721.42
682.764	4578.06
682.954	4594.45
683.144	4803.34
683.334	4682.51
683.524	4690.7
683.714	4766.48
683.904	4598.54
684.094	4479.76
684.284	4664.08
684.474	4662.03
684.664	4559.63
684.854	4702.99
685.044	4487.95
685.234	4612.88
685.424	4559.63
685.614	4496.14
685.804	4555.54
685.994	4401.94
686.184	4471.57
686.374	4467.47
686.564	4444.95
686.753	4553.49
686.943	4309.78
687.133	4268.82
687.323	4307.73
687.513	4240.15
687.702	4248.34
687.892	4289.3
688.082	4199.19
688.272	4096.79
688.461	4129.56
688.651	4080.41
688.841	4055.83
689.03	4076.31
689.22	4010.78
689.41	4127.51
689.599	4041.5
689.789	3996.44
689.979	3904.28
690.168	4076.31
690.358	3953.43
690.547	3865.37
690.737	3965.72
690.926	3871.51
691.116	3842.84
691.305	3785.5
691.495	3728.16
691.684	3722.01
691.874	3773.21
692.063	3836.7
692.252	3756.83
692.442	3904.28
692.631	3679.01
692.82	3625.76
693.01	3672.86
693.199	3623.71
693.388	3662.62
693.578	3564.32
693.767	3490.59
693.956	3558.18
694.146	3590.94
694.335	3715.87
694.524	3492.64
694.713	3476.26
694.902	3502.88
695.092	3474.21
695.281	3369.76
695.47	3408.67
695.659	3373.86
695.848	3509.02
696.037	3406.63
696.226	3283.75
696.415	3304.23
696.604	3357.47
696.793	3343.14
696.982	3277.6
697.171	3167.01
697.36	3191.59
697.549	3167.01
697.738	3332.9
697.927	3195.68
698.116	3236.64
698.305	3134.25
698.494	3347.23
698.683	3048.23
698.872	3177.25
699.061	3035.94
699.25	3119.91
699.438	3181.35
699.627	3126.05
699.816	3105.57
700.005	3093.29
700.193	3105.57
700.382	3171.11
700.571	3035.94
700.76	3064.61
700.948	3117.86
701.137	2949.93
701.326	3056.42
701.514	3019.56
701.703	2990.89
701.892	3050.28
702.08	3083.05
702.269	3001.13
702.457	3023.66
702.646	2911.02
702.834	2900.78
703.023	3019.56
703.212	3052.33
703.4	3003.18
703.589	2980.65
703.777	2954.02
703.965	2945.83
704.154	2962.22
704.342	2968.36
704.531	2810.67
704.719	2960.17
704.907	3087.14
705.096	2937.64
705.284	2929.45
705.472	2851.63
705.661	2827.05
705.849	2841.39
706.037	3019.56
706.226	2833.19
706.414	2982.7
706.602	2837.29
706.79	2853.67
706.979	2812.71
707.167	3033.9
707.355	2763.56
707.543	2851.63
707.731	2872.11
707.919	2800.43
708.107	2859.82
708.296	2865.96
708.484	2706.22
708.672	2644.78
708.86	2839.34
709.048	2868.01
709.236	2919.21
709.424	2792.23
709.612	2812.71
709.8	2763.56
709.988	2734.89
710.176	2822.95
710.364	2908.97
710.551	2837.29
710.739	2849.58
710.927	2609.97
711.115	2847.53
711.303	2831.15
711.491	2898.73
711.679	2898.73
711.866	2880.3
712.054	2868.01
712.242	2810.67
712.43	2763.56
712.617	2698.03
712.805	2732.84
712.993	2724.65
713.181	2759.47
713.368	2679.6
713.556	2808.62
713.744	2632.49
713.931	2802.47
714.119	2702.12
714.306	2911.02
714.494	2683.69
714.682	2652.97
714.869	2747.18
715.057	2689.84
715.244	2663.21
715.432	2777.9
715.619	2769.71
715.807	2749.23
715.994	2794.28
716.182	2730.8
716.369	2773.8
716.556	2786.09
716.744	2704.17
716.931	2720.56
717.119	2749.23
717.306	2706.22
717.493	2714.41
717.681	2790.19
717.868	2655.02
718.055	2900.78
718.242	2577.2
718.43	2763.56
718.617	2704.17
718.804	2618.16
718.991	2722.6
719.179	2704.17
719.366	2712.36
719.553	2755.37
719.74	2810.67
719.927	2624.3
720.114	2669.36
720.301	2640.69
720.488	2716.46
720.676	2640.69
720.863	2710.32
721.05	2845.48
721.237	2704.17
721.424	2741.04
721.611	2722.6
721.798	2648.88
721.985	2722.6
722.172	2661.16
722.358	2730.8
722.545	2648.88
722.732	2675.5
722.919	2767.66
723.106	2693.93
723.293	2614.06
723.48	2679.6
723.667	2765.61
723.853	2671.4
724.04	2716.46
724.227	2683.69
724.414	2663.21
724.6	2720.56
724.787	2747.18
724.974	2724.65
725.161	2607.92
725.347	2603.82
725.534	2560.81
725.72	2591.53
725.907	2710.32
726.094	2689.84
726.28	2689.84
726.467	2595.63
726.653	2704.17
726.84	2634.54
727.027	2788.14
727.213	2528.05
727.4	2628.4
727.586	2698.03
727.773	2648.88
727.959	2489.14
728.145	2771.76
728.332	2603.82
728.518	2644.78
728.705	2673.45
728.891	2714.41
729.077	2642.73
729.264	2634.54
729.45	2536.24
729.636	2652.97
729.823	2712.36
730.009	2622.25
730.195	2695.98
730.382	2603.82
730.568	2591.53
730.754	2485.04
730.94	2519.85
731.126	2673.45
731.313	2519.85
731.499	2599.73
731.685	2548.53
731.871	2609.97
732.057	2607.92
732.243	2560.81
732.429	2564.91
732.615	2609.97
732.801	2534.19
732.987	2636.59
733.173	2589.49
733.359	2593.58
733.545	2515.76
733.731	2466.61
733.917	2530.09
734.103	2487.09
734.289	2655.02
734.475	2487.09
734.661	2585.39
734.847	2485.04
735.033	2575.15
735.219	2530.09
735.404	2534.19
735.59	2597.68
735.776	2526
735.962	2550.57
736.148	2513.71
736.333	2433.84
736.519	2513.71
736.705	2474.8
736.89	2560.81
737.076	2462.51
737.262	2433.84
737.447	2396.98
737.633	2458.42
737.819	2249.52
738.004	2544.43
738.19	2429.74
738.375	2413.36
738.561	2409.26
738.747	2319.15
738.932	2466.61
739.118	2433.84
739.303	2270
739.489	2372.4
739.674	2319.15
739.859	2437.94
740.045	2444.08
740.23	2339.63
740.416	2239.28
740.601	2329.39
740.786	2349.87
740.972	2401.07
741.157	2368.31
741.342	2298.67
741.528	2280.24
741.713	2351.92
741.898	2343.73
742.084	2392.88
742.269	2216.76
742.454	2259.76
742.639	2208.56
742.824	2245.43
743.01	2208.56
743.195	2327.35
743.38	2270
743.565	2290.48
743.75	2224.95
743.935	2265.91
744.12	2304.82
744.305	2163.51
744.49	2181.94
744.675	2095.93
744.86	2083.64
745.045	2112.31
745.23	2116.41
745.415	2106.17
745.6	2112.31
745.785	2149.17
745.97	2067.25
746.155	1997.62
746.34	2005.81
746.525	2022.2
746.71	2022.2
746.895	2032.44
747.079	2102.07
747.264	2057.01
747.449	2120.5
747.634	1948.47
747.819	1903.42
748.003	2011.96
748.188	1887.03
748.373	1925.94
748.557	1880.89
748.742	1964.86
748.927	1940.28
749.111	1903.42
749.296	1837.88
749.481	1835.83
749.665	1856.31
749.85	1794.87
750.034	1815.35
750.219	1700.67
750.404	1786.68
750.588	1850.17
750.773	1835.83
750.957	1667.9
751.141	1893.18
751.326	1751.87
751.51	1751.87
751.695	1700.67
751.879	1706.81
752.064	1700.67
752.248	1731.39
752.432	1733.43
752.617	1704.76
752.801	1635.13
752.985	1612.6
753.17	1512.25
753.354	1676.09
753.538	1649.47
753.722	1620.8
753.907	1536.83
754.091	1502.01
754.275	1436.48
754.459	1596.22
754.643	1581.89
754.828	1483.58
755.012	1542.97
755.196	1479.49
755.38	1463.1
755.564	1512.25
755.748	1471.29
755.932	1493.82
756.116	1495.87
756.3	1440.58
756.484	1471.29
756.668	1413.95
756.852	1413.95
757.036	1358.66
757.22	1440.58
757.404	1454.91
757.588	1315.65
757.772	1346.37
757.956	1450.82
758.14	1401.66
758.323	1289.03
758.507	1315.65
758.691	1356.61
758.875	1385.28
759.059	1405.76
759.242	1370.94
759.426	1258.31
759.61	1282.88
759.794	1329.99
759.977	1278.79
760.161	1313.6
760.345	1186.63
760.528	1327.94
760.712	1323.84
760.895	1164.1
761.079	1278.79
761.263	1166.15
761.446	1241.92
761.63	1229.63
761.813	1207.11
761.997	1168.2
762.18	1194.82
762.364	1133.38
762.547	1123.14
762.731	1301.31
762.914	1149.76
763.098	1225.54
763.281	1059.65
763.464	1194.82
763.648	1104.71
763.831	1151.81
764.015	1049.41
764.198	1133.38
764.381	1035.08
764.564	1139.52
764.748	1055.56
764.931	1033.03
765.114	1114.95
765.297	1018.69
765.481	1078.08
765.664	1018.69
765.847	1041.22
766.03	1037.13
766.213	1102.66
766.397	1104.71
766.58	1123.14
766.763	1024.84
766.946	1055.56
767.129	1028.93
767.312	1041.22
767.495	994.12
767.678	1006.41
767.861	985.93
768.044	953.16
768.227	1022.79
768.41	1076.04
768.593	1039.17
768.776	938.82
768.959	1030.98
769.142	1033.03
769.324	1016.65
769.507	949.06
769.69	953.16
769.873	1020.74
770.056	963.4
770.239	932.68
770.421	998.21
770.604	963.4
770.787	893.77
770.97	932.68
771.152	1004.36
771.335	854.86
771.518	881.48
771.7	1004.36
771.883	957.25
772.066	938.82
772.248	871.24
772.431	895.82
772.613	1012.55
772.796	852.81
772.978	846.66
773.161	912.2
773.343	906.06
773.526	914.25
773.708	887.62
773.891	932.68
774.073	781.13
774.256	856.9
774.438	793.42
774.621	869.19
774.803	867.14
774.985	817.99
775.168	828.23
775.35	807.75
775.532	756.55
775.715	828.23
775.897	715.59
776.079	750.41
776.261	811.85
776.444	731.98
776.626	873.29
776.808	805.71
776.99	658.25
777.173	772.94
777.355	805.71
777.537	840.52
777.719	793.42
777.901	723.79
778.083	795.47
778.265	609.1
778.447	721.74
778.629	676.68
778.811	699.21
778.993	615.24
779.175	754.51
779.357	723.79
779.539	703.31
779.721	643.92
779.903	719.69
780.085	654.16
780.267	701.26
780.449	594.76
780.631	582.48
780.812	652.11
780.994	596.81
781.176	635.72
781.358	594.76
781.54	664.4
781.721	570.19
781.903	654.16
782.085	570.19
782.267	602.96
782.448	570.19
782.63	590.67
782.812	551.76
782.993	619.34
783.175	568.14
783.357	568.14
783.538	619.34
783.72	592.72
783.901	570.19
784.083	553.8
784.264	537.42
784.446	508.75
784.627	475.98
784.809	578.38
784.99	527.18
785.172	574.28
785.353	537.42
785.535	578.38
785.716	488.27
785.897	533.33
786.079	502.61
786.26	525.13
786.441	537.42
786.623	414.54
786.804	453.45
786.985	467.79
787.167	537.42
787.348	435.02
787.529	435.02
787.71	480.08
787.891	435.02
788.073	467.79
788.254	432.97
788.435	449.36
788.616	473.93
788.797	385.87
788.978	420.69
789.159	510.8
789.34	512.85
789.522	422.73
789.703	394.06
789.884	408.4
790.065	430.93
790.246	496.46
790.427	457.55
790.607	361.3
790.788	398.16
790.969	439.12
791.15	410.45
791.331	396.11
791.512	502.61
791.693	426.83
791.874	275.28
792.054	461.65
792.235	449.36
792.416	299.86
792.597	408.4
792.778	324.43
792.958	371.54
793.139	336.72
793.32	389.97
793.5	357.2
793.681	303.95
793.862	258.9
794.042	363.34
794.223	359.25
794.404	361.3
794.584	363.34
794.765	287.57
794.945	306
795.126	320.34
795.306	373.58
795.487	363.34
795.667	265.04
795.848	332.62
796.028	338.77
796.209	320.34
796.389	355.15
796.57	365.39
796.75	275.28
796.93	334.67
797.111	285.52
797.291	342.86
797.471	291.66
797.652	267.09
797.832	295.76
798.012	256.85
798.192	326.48
798.373	306
798.553	293.71
798.733	289.62
798.913	328.53
799.093	260.95
799.274	379.73
799.454	306
799.634	318.29
799.814	297.81
799.994	281.43
800.174	285.52
800.354	306
800.534	246.61
800.714	267.09
800.894	213.84
801.074	287.57
801.254	213.84
801.434	297.81
801.614	197.46
801.794	281.43
801.974	514.89
802.154	289.62
802.334	238.42
802.514	279.38
802.693	328.53
802.873	252.75
803.053	267.09
803.233	242.51
803.413	215.89
803.592	205.65
803.772	275.28
803.952	205.65
804.131	262.99
804.311	211.79
804.491	271.19
804.67	205.65
804.85	281.43
805.03	230.23
805.209	242.51
805.389	252.75
805.568	275.28
805.748	183.12
805.928	207.7
806.107	258.9
806.287	209.75
806.466	219.99
806.646	240.47
806.825	234.32
807.004	265.04
807.184	242.51
807.363	183.12
807.543	248.66
807.722	248.66
807.901	209.75
808.081	275.28
808.26	115.54
808.439	195.41
808.619	164.69
808.798	156.5
808.977	187.22
809.156	215.89
809.336	240.47
809.515	160.59
809.694	211.79
809.873	207.7
810.052	189.27
810.231	136.02
810.411	179.03
810.59	168.79
810.769	150.36
810.948	203.6
811.127	195.41
811.306	217.94
811.485	260.95
811.664	232.27
811.843	158.55
812.022	174.93
812.201	152.4
812.38	154.45
812.559	148.31
812.737	187.22
812.916	111.44
813.095	226.13
813.274	160.59
813.453	170.83
813.632	172.88
813.811	201.55
813.989	176.98
814.168	136.02
814.347	201.55
814.526	162.64
814.704	189.27
814.883	191.31
815.062	207.7
815.24	144.21
815.419	154.45
815.598	179.03
815.776	150.36
815.955	166.74
816.133	203.6
816.312	189.27
816.49	148.31
816.669	201.55
816.847	166.74
817.026	215.89
817.204	156.5
817.383	203.6
817.561	136.02
817.74	119.64
817.918	105.3
818.097	250.71
818.275	93.01
818.453	119.64
818.632	129.88
818.81	133.97
818.988	103.25
819.167	103.25
819.345	90.96
819.523	136.02
819.701	123.73
819.879	170.83
820.058	205.65
820.236	140.12
820.414	140.12
820.592	166.74
820.77	117.59
820.948	136.02
821.127	54.1
821.305	152.4
821.483	123.73
821.661	117.59
821.839	170.83
822.017	164.69
822.195	80.72
822.373	131.92
822.551	162.64
822.729	166.74
822.907	45.91
823.085	121.68
823.262	97.11
823.44	82.77
823.618	103.25
823.796	170.83
823.974	140.12
824.152	176.98
824.329	82.77
824.507	107.35
824.685	140.12
824.863	111.44
825.04	113.49
825.218	103.25
825.396	113.49
825.574	133.97
825.751	68.44
825.929	217.94
826.107	74.58
826.284	133.97
826.462	78.68
826.639	148.31
826.817	97.11
826.994	123.73
827.172	103.25
827.349	88.92
827.527	82.77
827.704	185.17
827.882	203.6
828.059	174.93
828.237	115.54
828.414	138.07
828.591	97.11
828.769	185.17
828.946	146.26
829.124	123.73
829.301	52.05
829.478	86.87
829.655	88.92
829.833	80.72
830.01	66.39
830.187	97.11
830.364	97.11
830.542	113.49
830.719	217.94
830.896	95.06
831.073	103.25
831.25	154.45
831.427	2.9
831.604	107.35
831.782	33.62
831.959	185.17
832.136	162.64
832.313	117.59
832.49	88.92
832.667	160.59
832.844	111.44
833.021	105.3
833.198	136.02
833.374	93.01
833.551	52.05
833.728	54.1
833.905	127.83
834.082	99.16
834.259	121.68
834.436	90.96
834.612	84.82
834.789	146.26
834.966	156.5
835.143	90.96
835.319	52.05
835.496	117.59
835.673	101.2
835.85	82.77
836.026	74.58
836.203	158.55
836.38	7
836.556	93.01
836.733	76.63
836.909	144.21
837.086	70.48
837.262	60.24
837.439	50
837.616	95.06
837.792	43.86
837.968	39.76
838.145	78.68
838.321	62.29
838.498	80.72
838.674	115.54
838.851	111.44
839.027	41.81
839.203	58.2
839.38	127.83
839.556	78.68
839.732	107.35
839.909	58.2
840.085	152.4
840.261	33.62
840.437	70.48
840.614	2.9
840.79	80.72
840.966	11.09
841.142	74.58
841.318	13.14
841.494	19.29
841.671	45.91
841.847	-27.82
842.023	41.81
842.199	56.15
842.375	86.87
842.551	72.53
842.727	60.24
842.903	105.3
843.079	54.1
843.255	103.25
843.431	84.82
843.607	113.49
843.783	-52.39
843.959	109.4
844.134	37.72
844.31	97.11
844.486	107.35
844.662	29.52
844.838	33.62
845.013	76.63
845.189	19.29
845.365	60.24
845.541	64.34
845.716	99.16
845.892	95.06
846.068	39.76
846.244	68.44
846.419	62.29
846.595	19.29
846.77	43.86
846.946	45.91
847.122	41.81
847.297	21.33
847.473	47.96
847.648	21.33
847.824	64.34
847.999	-13.48
848.175	78.68
848.35	45.91
848.526	62.29
848.701	138.07
848.876	54.1
849.052	11.09
849.227	37.72
849.403	9.05
849.578	103.25
849.753	60.24
849.929	2.9
850.104	21.33
850.279	19.29
850.454	52.05
850.63	35.67
850.805	25.43
850.98	97.11
851.155	50
851.33	66.39
851.505	4.95
851.681	43.86
851.856	23.38
852.031	72.53
852.206	113.49
852.381	-1.19
852.556	35.67
852.731	90.96
852.906	-11.43
853.081	52.05
853.256	88.92
853.431	11.09
853.606	-9.39
853.781	64.34
853.956	4.95
854.131	13.14
854.305	80.72
854.48	37.72
854.655	-3.24
854.83	60.24
855.005	33.62
855.18	4.95
855.354	-11.43
855.529	78.68
855.704	0.85
855.879	76.63
856.053	47.96
856.228	37.72
856.403	-19.63
856.577	41.81
856.752	45.91
856.926	103.25
857.101	43.86
857.276	29.52
857.45	9.05
857.625	41.81
857.799	25.43
857.974	39.76
858.148	-9.39
858.323	11.09
858.497	13.14
858.672	7
858.846	-31.91
859.02	117.59
859.195	52.05
859.369	93.01
859.543	21.33
859.718	39.76
859.892	27.48
860.066	62.29
860.241	-23.72
860.415	19.29
860.589	-36.01
860.763	41.81
860.938	19.29
861.112	19.29
861.286	-1.19
861.46	76.63
861.634	25.43
861.808	31.57
861.982	47.96
862.157	43.86
862.331	37.72
862.505	101.2
862.679	-23.72
862.853	54.1
863.027	2.9
863.201	72.53
863.375	41.81
863.549	47.96
863.722	58.2
863.896	82.77
864.07	35.67
864.244	9.05
864.418	33.62
864.592	127.83
864.766	29.52
864.939	41.81
865.113	4.95
865.287	-3.24
865.461	25.43
865.634	37.72
865.808	-1.19
865.982	-5.29
866.156	-46.25
866.329	17.24
866.503	90.96
866.676	-3.24
866.85	-64.68
867.024	-1.19
867.197	99.16
867.371	17.24
867.544	25.43
867.718	-44.2
867.891	-27.82
868.065	23.38
868.238	-7.34
868.412	39.76
868.585	-70.83
868.759	-23.72
868.932	-40.11
869.105	-29.87
869.279	64.34
869.452	-23.72
869.625	56.15
869.799	-13.48
869.972	19.29
870.145	0.85
870.319	95.06
870.492	72.53
870.665	25.43
870.838	52.05
871.011	-29.87
871.185	25.43
871.358	-36.01
871.531	43.86
871.704	-9.39
871.877	-54.44
872.05	4.95
872.223	21.33
872.396	97.11
872.569	66.39
872.742	27.48
872.915	-5.29
873.088	-52.39
873.261	131.92
873.434	9.05
873.607	-13.48
873.78	50
873.953	2.9
874.126	27.48
874.299	21.33
874.471	78.68
874.644	33.62
874.817	2.9
874.99	47.96
875.163	15.19
875.335	7
875.508	37.72
875.681	60.24
875.853	68.44
876.026	47.96
876.199	43.86
876.371	27.48
876.544	21.33
876.717	39.76
876.889	-36.01
877.062	17.24
877.234	27.48
877.407	93.01
877.579	-1.19
877.752	105.3
877.924	-5.29
878.097	52.05
878.269	29.52
878.442	37.72
878.614	4.95
878.786	13.14
878.959	31.57
879.131	58.2
879.303	-27.82
879.476	25.43
879.648	109.4
879.82	-7.34
879.993	-3.24
880.165	2.9
880.337	-54.44
880.509	45.91
880.681	21.33
880.854	-58.54
881.026	19.29
881.198	97.11
881.37	0.85
881.542	-27.82
881.714	7
881.886	13.14
882.058	-13.48
882.23	-9.39
882.402	97.11
882.574	15.19
882.746	-31.91
882.918	45.91
883.09	52.05
883.262	54.1
883.434	45.91
883.606	66.39
883.778	19.29
883.95	39.76
884.122	-11.43
884.293	64.34
884.465	35.67
884.637	50
884.809	43.86
884.98	39.76
885.152	4.95
885.324	97.11
885.496	56.15
885.667	39.76
885.839	-60.59
886.011	66.39
886.182	52.05
886.354	27.48
886.525	39.76
886.697	-13.48
886.869	56.15
887.04	4.95
887.212	-9.39
887.383	29.52
887.555	-1.19
887.726	31.57
887.897	2.9
888.069	56.15
888.24	-29.87
888.412	4.95
888.583	-52.39
888.754	2.9
888.926	-9.39
889.097	21.33
889.268	19.29
889.44	-15.53
889.611	47.96
889.782	-11.43
889.953	33.62
890.125	64.34
890.296	21.33
890.467	56.15
890.638	25.43
890.809	0.85
890.98	54.1
891.151	4.95
891.323	-29.87
891.494	54.1
891.665	-29.87
891.836	37.72
892.007	17.24
892.178	-7.34
892.349	31.57
892.52	19.29
892.691	68.44
892.862	52.05
893.032	33.62
893.203	80.72
893.374	2.9
893.545	-11.43
893.716	21.33
893.887	50
894.057	41.81
894.228	45.91
894.399	-50.35
894.57	50
894.74	39.76
894.911	68.44
895.082	-68.78
895.253	41.81
895.423	-11.43
895.594	-68.78
895.764	-25.77
895.935	37.72
896.106	45.91
896.276	-36.01
896.447	74.58
896.617	-15.53
896.788	-23.72
896.958	33.62
897.129	62.29
897.299	76.63
897.47	25.43
897.64	35.67
897.81	-13.48
897.981	19.29
898.151	68.44
898.322	17.24
898.492	19.29
898.662	11.09
898.832	-44.2
899.003	60.24
899.173	-48.3
899.343	-1.19
899.513	17.24
