Data from USB4F104151__18__11-36-30-127.txt Node

Date: Fri Mar 14 11:36:30 EDT 2025
User: louis
Spectrometer: USB4F10415
Trigger mode: 4
Integration Time (sec): 2.000000E-2
Scans to average: 1
Electric dark correction enabled: true
Nonlinearity correction enabled: false
Boxcar width: 0
XAxis mode: Wavelengths
Number of Pixels in Spectrum: 3648
>>>>>Begin Spectral Data<<<<<
178.204	-38.91
178.424	-38.91
178.644	-38.91
178.864	-30.72
179.084	-75.77
179.304	-40.96
179.524	-6.14
179.744	-57.34
179.964	34.82
180.184	-22.53
180.404	22.53
180.624	12.29
180.844	55.3
181.064	24.58
181.283	-16.38
181.503	-8.19
181.723	2.05
181.943	2.05
182.163	22.53
182.383	104.45
182.602	57.34
182.822	69.63
183.042	-18.43
183.262	14.34
183.482	75.77
183.701	55.3
183.921	22.53
184.141	-67.58
184.361	67.58
184.58	34.82
184.8	-10.24
185.02	24.58
185.239	-8.19
185.459	2.05
185.679	81.92
185.898	4.1
186.118	-16.38
186.338	43.01
186.557	133.12
186.777	-14.34
186.997	65.54
187.216	-2.05
187.436	104.45
187.655	100.35
187.875	0
188.095	-14.34
188.314	92.16
188.534	49.15
188.753	22.53
188.973	69.63
189.192	51.2
189.412	16.38
189.631	81.92
189.851	20.48
190.07	73.73
190.29	55.3
190.509	-2.05
190.729	57.34
190.948	53.25
191.168	83.97
191.387	47.1
191.607	18.43
191.826	81.92
192.045	83.97
192.265	112.64
192.484	67.58
192.704	2.05
192.923	24.58
193.142	45.06
193.362	30.72
193.581	61.44
193.8	90.11
194.02	110.59
194.239	0
194.458	14.34
194.678	26.62
194.897	26.62
195.116	51.2
195.335	63.49
195.555	65.54
195.774	24.58
195.993	63.49
196.212	-16.38
196.432	18.43
196.651	43.01
196.87	96.25
197.089	49.15
197.308	67.58
197.528	59.39
197.747	38.91
197.966	65.54
198.185	43.01
198.404	-6.14
198.623	40.96
198.842	18.43
199.062	49.15
199.281	124.93
199.5	38.91
199.719	65.54
199.938	28.67
200.157	8.19
200.376	61.44
200.595	90.11
200.814	108.54
201.033	30.72
201.252	71.68
201.471	61.44
201.69	108.54
201.909	-10.24
202.128	-6.14
202.347	32.77
202.566	59.39
202.785	28.67
203.004	-8.19
203.223	131.07
203.442	26.62
203.661	2.05
203.879	8.19
204.098	75.77
204.317	0
204.536	47.1
204.755	-12.29
204.974	22.53
205.193	6.14
205.411	83.97
205.63	-6.14
205.849	47.1
206.068	-2.05
206.287	67.58
206.505	57.34
206.724	6.14
206.943	90.11
207.162	34.82
207.381	67.58
207.599	10.24
207.818	-22.53
208.037	-18.43
208.255	86.01
208.474	49.15
208.693	98.3
208.911	40.96
209.13	61.44
209.349	47.1
209.567	28.67
209.786	79.87
210.005	-2.05
210.223	18.43
210.442	-8.19
210.661	77.82
210.879	86.01
211.098	67.58
211.316	75.77
211.535	-4.1
211.753	18.43
211.972	49.15
212.191	83.97
212.409	22.53
212.628	55.3
212.846	45.06
213.065	49.15
213.283	36.86
213.502	30.72
213.72	55.3
213.938	57.34
214.157	43.01
214.375	-24.58
214.594	26.62
214.812	8.19
215.031	40.96
215.249	-26.62
215.467	112.64
215.686	-30.72
215.904	18.43
216.122	81.92
216.341	102.4
216.559	32.77
216.778	75.77
216.996	18.43
217.214	2.05
217.432	20.48
217.651	73.73
217.869	59.39
218.087	4.1
218.306	57.34
218.524	43.01
218.742	24.58
218.96	86.01
219.179	81.92
219.397	22.53
219.615	55.3
219.833	47.1
220.051	69.63
220.27	67.58
220.488	-2.05
220.706	20.48
220.924	49.15
221.142	98.3
221.36	34.82
221.578	51.2
221.796	45.06
222.015	34.82
222.233	83.97
222.451	73.73
222.669	59.39
222.887	71.68
223.105	-10.24
223.323	159.74
223.541	30.72
223.759	124.93
223.977	16.38
224.195	51.2
224.413	43.01
224.631	24.58
224.849	22.53
225.067	108.54
225.285	51.2
225.503	65.54
225.721	-18.43
225.939	110.59
226.157	26.62
226.375	63.49
226.592	47.1
226.81	18.43
227.028	79.87
227.246	30.72
227.464	32.77
227.682	57.34
227.9	59.39
228.117	6.14
228.335	12.29
228.553	55.3
228.771	38.91
228.989	124.93
229.206	-10.24
229.424	-26.62
229.642	47.1
229.86	-14.34
230.077	6.14
230.295	34.82
230.513	20.48
230.731	45.06
230.948	90.11
231.166	51.2
231.384	-8.19
231.601	-14.34
231.819	65.54
232.037	32.77
232.254	24.58
232.472	75.77
232.689	49.15
232.907	83.97
233.125	-10.24
233.342	22.53
233.56	47.1
233.777	75.77
233.995	28.67
234.213	-14.34
234.43	38.91
234.648	143.36
234.865	32.77
235.083	88.06
235.3	71.68
235.518	100.35
235.735	79.87
235.953	71.68
236.17	73.73
236.388	-12.29
236.605	22.53
236.822	38.91
237.04	2.05
237.257	34.82
237.475	-2.05
237.692	10.24
237.909	77.82
238.127	20.48
238.344	88.06
238.562	90.11
238.779	-14.34
238.996	26.62
239.214	55.3
239.431	-30.72
239.648	67.58
239.865	53.25
240.083	79.87
240.3	102.4
240.517	32.77
240.735	47.1
240.952	14.34
241.169	73.73
241.386	75.77
241.603	47.1
241.821	100.35
242.038	75.77
242.255	69.63
242.472	45.06
242.689	67.58
242.907	92.16
243.124	32.77
243.341	36.86
243.558	108.54
243.775	38.91
243.992	-36.86
244.209	-24.58
244.426	61.44
244.643	57.34
244.86	40.96
245.078	18.43
245.295	51.2
245.512	45.06
245.729	-22.53
245.946	43.01
246.163	0
246.38	61.44
246.597	2.05
246.814	34.82
247.031	-40.96
247.248	55.3
247.464	65.54
247.681	65.54
247.898	22.53
248.115	45.06
248.332	0
248.549	47.1
248.766	141.31
248.983	18.43
249.2	43.01
249.417	12.29
249.633	32.77
249.85	92.16
250.067	8.19
250.284	40.96
250.501	28.67
250.717	100.35
250.934	8.19
251.151	40.96
251.368	-34.82
251.585	55.3
251.801	8.19
252.018	57.34
252.235	40.96
252.451	14.34
252.668	10.24
252.885	18.43
253.102	120.83
253.318	-26.62
253.535	24.58
253.752	51.2
253.968	16.38
254.185	67.58
254.401	34.82
254.618	36.86
254.835	90.11
255.051	45.06
255.268	106.49
255.484	112.64
255.701	69.63
255.917	-14.34
256.134	114.69
256.351	94.21
256.567	-47.1
256.784	38.91
257	28.67
257.217	67.58
257.433	65.54
257.65	63.49
257.866	53.25
258.082	-49.15
258.299	-26.62
258.515	63.49
258.732	0
258.948	124.93
259.165	86.01
259.381	-8.19
259.597	28.67
259.814	45.06
260.03	36.86
260.246	65.54
260.463	43.01
260.679	45.06
260.895	-38.91
261.112	59.39
261.328	86.01
261.544	47.1
261.761	100.35
261.977	83.97
262.193	36.86
262.409	65.54
262.626	73.73
262.842	24.58
263.058	16.38
263.274	71.68
263.49	98.3
263.707	-8.19
263.923	61.44
264.139	51.2
264.355	34.82
264.571	73.73
264.787	24.58
265.004	83.97
265.22	59.39
265.436	59.39
265.652	-22.53
265.868	81.92
266.084	16.38
266.3	102.4
266.516	32.77
266.732	38.91
266.948	26.62
267.164	77.82
267.38	86.01
267.596	81.92
267.812	30.72
268.028	67.58
268.244	-24.58
268.46	40.96
268.676	32.77
268.892	51.2
269.108	-38.91
269.324	57.34
269.54	43.01
269.756	104.45
269.972	-10.24
270.188	34.82
270.403	43.01
270.619	-26.62
270.835	98.3
271.051	28.67
271.267	61.44
271.483	12.29
271.698	28.67
271.914	112.64
272.13	75.77
272.346	57.34
272.562	24.58
272.777	131.07
272.993	49.15
273.209	-22.53
273.425	38.91
273.64	26.62
273.856	47.1
274.072	-16.38
274.287	114.69
274.503	45.06
274.719	20.48
274.934	32.77
275.15	0
275.366	-26.62
275.581	28.67
275.797	83.97
276.012	100.35
276.228	32.77
276.444	59.39
276.659	75.77
276.875	67.58
277.09	104.45
277.306	8.19
277.521	8.19
277.737	-12.29
277.952	92.16
278.168	26.62
278.383	-8.19
278.599	10.24
278.814	73.73
279.03	94.21
279.245	86.01
279.461	43.01
279.676	77.82
279.892	57.34
280.107	71.68
280.322	24.58
280.538	18.43
280.753	43.01
280.969	38.91
281.184	34.82
281.399	73.73
281.615	-43.01
281.83	81.92
282.045	16.38
282.26	43.01
282.476	81.92
282.691	65.54
282.906	108.54
283.122	69.63
283.337	92.16
283.552	34.82
283.767	61.44
283.983	61.44
284.198	67.58
284.413	28.67
284.628	-6.14
284.843	51.2
285.058	14.34
285.274	77.82
285.489	83.97
285.704	129.02
285.919	28.67
286.134	34.82
286.349	22.53
286.564	114.69
286.779	4.1
286.995	18.43
287.21	79.87
287.425	59.39
287.64	49.15
287.855	53.25
288.07	18.43
288.285	-10.24
288.5	79.87
288.715	-14.34
288.93	104.45
289.145	2.05
289.36	53.25
289.575	-16.38
289.79	12.29
290.004	34.82
290.219	34.82
290.434	55.3
290.649	57.34
290.864	20.48
291.079	34.82
291.294	-32.77
291.509	96.25
291.724	16.38
291.938	88.06
292.153	63.49
292.368	67.58
292.583	71.68
292.798	100.35
293.012	51.2
293.227	98.3
293.442	61.44
293.657	55.3
293.871	57.34
294.086	43.01
294.301	94.21
294.516	51.2
294.73	34.82
294.945	32.77
295.16	43.01
295.374	63.49
295.589	4.1
295.804	71.68
296.018	88.06
296.233	71.68
296.447	34.82
296.662	49.15
296.877	36.86
297.091	26.62
297.306	83.97
297.52	10.24
297.735	12.29
297.949	18.43
298.164	18.43
298.378	32.77
298.593	116.73
298.807	49.15
299.022	36.86
299.236	104.45
299.451	34.82
299.665	65.54
299.88	2.05
300.094	96.25
300.309	51.2
300.523	63.49
300.737	106.49
300.952	32.77
301.166	65.54
301.381	22.53
301.595	69.63
301.809	77.82
302.024	63.49
302.238	22.53
302.452	57.34
302.667	26.62
302.881	141.31
303.095	26.62
303.309	10.24
303.524	-49.15
303.738	100.35
303.952	67.58
304.166	129.02
304.381	6.14
304.595	79.87
304.809	151.55
305.023	67.58
305.237	38.91
305.452	22.53
305.666	-14.34
305.88	12.29
306.094	43.01
306.308	36.86
306.522	43.01
306.736	83.97
306.95	81.92
307.164	12.29
307.379	-10.24
307.593	8.19
307.807	83.97
308.021	81.92
308.235	63.49
308.449	-26.62
308.663	20.48
308.877	92.16
309.091	28.67
309.305	79.87
309.519	18.43
309.733	122.88
309.947	-4.1
310.161	63.49
310.374	24.58
310.588	49.15
310.802	57.34
311.016	81.92
311.23	69.63
311.444	47.1
311.658	51.2
311.872	24.58
312.085	98.3
312.299	30.72
312.513	83.97
312.727	114.69
312.941	88.06
313.154	67.58
313.368	43.01
313.582	22.53
313.796	-6.14
314.009	57.34
314.223	-67.58
314.437	75.77
314.651	22.53
314.864	90.11
315.078	51.2
315.292	49.15
315.505	65.54
315.719	71.68
315.933	24.58
316.146	28.67
316.36	92.16
316.573	79.87
316.787	81.92
317.001	47.1
317.214	73.73
317.428	16.38
317.641	63.49
317.855	24.58
318.068	59.39
318.282	40.96
318.495	-10.24
318.709	79.87
318.922	57.34
319.136	92.16
319.349	53.25
319.563	43.01
319.776	118.78
319.99	26.62
320.203	63.49
320.417	45.06
320.63	94.21
320.843	22.53
321.057	100.35
321.27	38.91
321.483	4.1
321.697	47.1
321.91	12.29
322.124	32.77
322.337	24.58
322.55	59.39
322.763	-2.05
322.977	71.68
323.19	73.73
323.403	88.06
323.617	51.2
323.83	59.39
324.043	32.77
324.256	108.54
324.469	67.58
324.683	79.87
324.896	63.49
325.109	67.58
325.322	34.82
325.535	67.58
325.748	26.62
325.962	63.49
326.175	71.68
326.388	-8.19
326.601	73.73
326.814	40.96
327.027	59.39
327.24	100.35
327.453	18.43
327.666	12.29
327.879	88.06
328.092	53.25
328.305	30.72
328.518	63.49
328.731	30.72
328.944	124.93
329.157	28.67
329.37	45.06
329.583	65.54
329.796	61.44
330.009	-20.48
330.222	83.97
330.435	47.1
330.648	-14.34
330.861	106.49
331.073	67.58
331.286	26.62
331.499	38.91
331.712	63.49
331.925	40.96
332.138	-6.14
332.35	90.11
332.563	55.3
332.776	71.68
332.989	57.34
333.202	51.2
333.414	49.15
333.627	49.15
333.84	63.49
334.053	79.87
334.265	86.01
334.478	71.68
334.691	16.38
334.903	133.12
335.116	-49.15
335.329	73.73
335.541	73.73
335.754	98.3
335.966	92.16
336.179	92.16
336.392	32.77
336.604	92.16
336.817	36.86
337.029	32.77
337.242	12.29
337.454	90.11
337.667	4.1
337.88	114.69
338.092	-20.48
338.305	100.35
338.517	71.68
338.729	59.39
338.942	75.77
339.154	59.39
339.367	83.97
339.579	43.01
339.792	83.97
340.004	86.01
340.217	40.96
340.429	75.77
340.641	26.62
340.854	55.3
341.066	49.15
341.278	86.01
341.491	43.01
341.703	-38.91
341.915	51.2
342.128	63.49
342.34	51.2
342.552	106.49
342.764	49.15
342.977	18.43
343.189	124.93
343.401	43.01
343.613	69.63
343.826	59.39
344.038	-22.53
344.25	73.73
344.462	-26.62
344.674	120.83
344.886	81.92
345.099	6.14
345.311	71.68
345.523	124.93
345.735	24.58
345.947	63.49
346.159	43.01
346.371	-40.96
346.583	22.53
346.795	59.39
347.007	51.2
347.219	34.82
347.431	-55.3
347.643	61.44
347.855	-38.91
348.067	47.1
348.279	24.58
348.491	75.77
348.703	92.16
348.915	32.77
349.127	69.63
349.339	24.58
349.551	32.77
349.763	98.3
349.975	51.2
350.187	57.34
350.399	114.69
350.61	65.54
350.822	79.87
351.034	34.82
351.246	100.35
351.458	83.97
351.669	34.82
351.881	124.93
352.093	63.49
352.305	38.91
352.517	2.05
352.728	55.3
352.94	20.48
353.152	81.92
353.363	73.73
353.575	83.97
353.787	10.24
353.999	65.54
354.21	75.77
354.422	83.97
354.633	26.62
354.845	47.1
355.057	88.06
355.268	45.06
355.48	81.92
355.692	61.44
355.903	24.58
356.115	14.34
356.326	-2.05
356.538	83.97
356.749	124.93
356.961	-14.34
357.172	83.97
357.384	135.17
357.595	83.97
357.807	14.34
358.018	36.86
358.23	77.82
358.441	167.93
358.653	51.2
358.864	94.21
359.075	-16.38
359.287	96.25
359.498	32.77
359.709	147.45
359.921	116.73
360.132	63.49
360.344	30.72
360.555	4.1
360.766	79.87
360.977	26.62
361.189	69.63
361.4	2.05
361.611	108.54
361.823	40.96
362.034	40.96
362.245	30.72
362.456	83.97
362.667	49.15
362.879	53.25
363.09	55.3
363.301	16.38
363.512	88.06
363.723	65.54
363.935	81.92
364.146	98.3
364.357	-4.1
364.568	75.77
364.779	67.58
364.99	88.06
365.201	26.62
365.412	118.78
365.623	57.34
365.834	65.54
366.045	26.62
366.256	151.55
366.467	83.97
366.678	98.3
366.889	90.11
367.1	79.87
367.311	151.55
367.522	94.21
367.733	53.25
367.944	118.78
368.155	153.6
368.366	79.87
368.577	79.87
368.788	-32.77
368.999	67.58
369.209	122.88
369.42	122.88
369.631	251.9
369.842	47.1
370.053	10.24
370.264	49.15
370.474	10.24
370.685	20.48
370.896	51.2
371.107	47.1
371.317	55.3
371.528	24.58
371.739	83.97
371.95	96.25
372.16	81.92
372.371	96.25
372.582	47.1
372.792	30.72
373.003	51.2
373.214	53.25
373.424	81.92
373.635	8.19
373.846	110.59
374.056	92.16
374.267	49.15
374.477	90.11
374.688	108.54
374.898	8.19
375.109	83.97
375.319	145.41
375.53	18.43
375.74	45.06
375.951	75.77
376.161	69.63
376.372	34.82
376.582	55.3
376.793	79.87
377.003	43.01
377.214	22.53
377.424	40.96
377.635	51.2
377.845	18.43
378.055	116.73
378.266	30.72
378.476	126.97
378.686	59.39
378.897	124.93
379.107	86.01
379.317	88.06
379.528	-6.14
379.738	51.2
379.948	104.45
380.158	94.21
380.369	51.2
380.579	16.38
380.789	40.96
380.999	26.62
381.21	102.4
381.42	116.73
381.63	69.63
381.84	57.34
382.05	65.54
382.261	133.12
382.471	81.92
382.681	47.1
382.891	90.11
383.101	94.21
383.311	77.82
383.521	14.34
383.731	59.39
383.941	32.77
384.151	73.73
384.361	69.63
384.571	73.73
384.781	88.06
384.991	61.44
385.201	114.69
385.411	4.1
385.621	200.7
385.831	83.97
386.041	22.53
386.251	129.02
386.461	124.93
386.671	63.49
386.881	83.97
387.091	81.92
387.301	69.63
387.511	114.69
387.72	24.58
387.93	8.19
388.14	2.05
388.35	145.41
388.56	100.35
388.769	116.73
388.979	108.54
389.189	34.82
389.399	120.83
389.609	65.54
389.818	59.39
390.028	110.59
390.238	96.25
390.447	67.58
390.657	102.4
390.867	38.91
391.076	69.63
391.286	59.39
391.496	83.97
391.705	114.69
391.915	147.45
392.125	135.17
392.334	131.07
392.544	51.2
392.753	-12.29
392.963	57.34
393.172	22.53
393.382	100.35
393.591	79.87
393.801	49.15
394.01	124.93
394.22	57.34
394.429	92.16
394.639	139.26
394.848	86.01
395.058	59.39
395.267	96.25
395.477	81.92
395.686	169.98
395.895	192.51
396.105	139.26
396.314	-6.14
396.524	116.73
396.733	98.3
396.942	139.26
397.152	116.73
397.361	141.31
397.57	192.51
397.78	106.49
397.989	145.41
398.198	36.86
398.407	102.4
398.617	116.73
398.826	106.49
399.035	157.69
399.244	153.6
399.453	47.1
399.663	131.07
399.872	114.69
400.081	188.41
400.29	47.1
400.499	114.69
400.708	92.16
400.917	106.49
401.127	57.34
401.336	100.35
401.545	174.08
401.754	145.41
401.963	174.08
402.172	100.35
402.381	133.12
402.59	223.23
402.799	149.5
403.008	126.97
403.217	77.82
403.426	116.73
403.635	180.22
403.844	149.5
404.053	94.21
404.262	176.13
404.471	169.98
404.68	219.13
404.888	190.46
405.097	180.22
405.306	188.41
405.515	198.65
405.724	202.75
405.933	157.69
406.142	212.99
406.35	194.56
406.559	215.04
406.768	198.65
406.977	237.56
407.185	229.37
407.394	262.14
407.603	180.22
407.812	219.13
408.02	235.52
408.229	235.52
408.438	186.37
408.646	227.32
408.855	305.15
409.064	206.84
409.272	227.32
409.481	292.86
409.69	339.96
409.898	307.2
410.107	337.91
410.315	368.63
410.524	296.96
410.733	354.3
410.941	366.59
411.15	473.08
411.358	372.73
411.567	407.55
411.775	411.64
411.984	419.83
412.192	444.41
412.401	485.37
412.609	460.79
412.818	481.27
413.026	466.94
413.234	544.76
413.443	520.18
413.651	507.9
413.86	532.47
414.068	526.33
414.276	667.64
414.485	595.96
414.693	673.78
414.901	698.36
415.11	702.45
415.318	690.17
415.526	708.6
415.734	739.32
415.943	770.04
416.151	786.42
416.359	802.8
416.567	884.72
416.776	983.02
416.984	964.59
417.192	968.69
417.4	952.31
417.608	925.68
417.817	976.88
418.025	1120.24
418.233	1140.72
418.441	1069.04
418.649	1247.21
418.857	1290.22
419.065	1361.9
419.273	1300.46
419.481	1327.08
419.689	1435.63
419.897	1419.24
420.105	1501.16
420.313	1511.4
420.521	1560.55
420.729	1624.04
420.937	1687.53
421.145	1820.64
421.353	1849.32
421.561	1935.33
421.769	1959.91
421.977	2088.93
422.185	2025.44
422.393	2138.08
422.601	2226.14
422.809	2168.8
423.017	2377.69
423.224	2342.88
423.432	2549.72
423.64	2392.03
423.848	2707.41
424.056	2637.78
424.263	2762.71
424.471	2721.75
424.679	2803.67
424.887	2916.31
425.094	3123.15
425.302	3160.02
425.51	3254.22
425.718	3303.37
425.925	3295.18
426.133	3465.16
426.341	3696.58
426.548	3846.09
426.756	3909.57
426.964	3809.22
427.171	4196.29
427.379	4241.34
427.586	4343.74
427.794	4380.61
428.001	4681.66
428.209	4800.44
428.417	4689.85
428.624	5078.96
428.832	5093.3
429.039	5126.07
429.247	4986.8
429.454	5496.75
429.662	5943.21
429.869	5590.95
430.076	5969.83
430.284	5805.99
430.491	6031.27
430.699	6307.74
430.906	6129.57
431.114	6485.92
431.321	6682.52
431.528	6838.17
431.736	7114.64
431.943	7536.52
432.15	7292.82
432.358	7434.13
432.565	7886.73
432.772	7595.92
432.979	8146.82
433.187	8298.37
433.394	8398.72
433.601	8869.75
433.808	8929.14
434.016	8720.25
434.223	9248.63
434.43	9879.4
434.637	9650.03
434.844	10354.53
435.052	10395.49
435.259	10397.54
435.466	10399.59
435.673	10231.65
435.88	10985.3
436.087	11812.68
436.294	11923.27
436.501	11315.03
436.708	11818.83
436.915	12160.84
437.122	12613.44
437.329	12552
437.537	12926.78
437.743	13088.57
437.95	13123.38
438.157	13733.68
438.364	14329.64
438.571	13893.42
438.778	14010.15
438.985	15593.23
439.192	14980.89
439.399	15628.05
439.606	15482.64
439.813	15879.95
440.02	16828.16
440.227	16719.62
440.433	16148.23
440.64	17047.29
440.847	16860.93
441.054	17235.7
441.261	18274.03
441.467	18253.55
441.674	18616.04
441.881	19156.7
442.088	19189.47
442.294	18677.47
442.501	19367.64
442.708	19730.13
442.914	20575.94
443.121	21186.24
443.328	21046.97
443.534	22562.47
443.741	21819.06
443.948	21751.48
444.154	23264.92
444.361	22941.35
444.568	23262.88
444.774	23047.84
444.981	23641.75
445.187	23901.84
445.394	25083.52
445.6	24673.93
445.807	27106.91
446.013	26187.38
446.22	26216.05
446.426	27438.69
446.633	27733.59
446.839	28767.82
447.046	27643.48
447.252	28790.34
447.459	28943.94
447.665	28827.21
447.871	29777.47
448.078	31487.52
448.284	30264.88
448.491	31108.65
448.697	31569.44
448.903	32370.19
449.11	32771.6
449.316	31936.02
449.522	32667.15
449.728	33433.09
449.935	33705.47
450.141	33736.19
450.347	34190.84
450.553	33555.97
450.76	33398.27
450.966	34876.91
451.172	34414.07
451.378	35104.23
451.584	34620.91
451.791	35599.84
451.997	35093.99
452.203	36249.05
452.409	35929.56
452.615	35980.76
452.821	34383.35
453.027	34156.02
453.233	36062.68
453.44	34334.2
453.646	34891.24
453.852	35104.23
454.058	35425.76
454.264	34319.86
454.47	35108.33
454.676	34450.93
454.882	35464.67
455.088	32337.43
455.294	32976.39
455.5	33465.86
455.705	34051.58
455.911	32591.37
456.117	31897.11
456.323	31118.89
456.529	29718.07
456.735	30813.74
456.941	30047.8
457.147	29640.25
457.352	28491.34
457.558	28345.94
457.764	28311.12
457.97	27881.05
458.176	27383.39
458.381	27565.66
458.587	25667.19
458.793	25720.44
458.999	24682.12
459.204	26494.57
459.41	25915
459.616	24065.68
459.821	23889.56
460.027	23871.12
460.233	23375.52
460.438	22345.39
460.644	22529.7
460.85	21739.19
461.055	21216.96
461.261	21171.9
461.466	19443.42
461.672	19168.99
461.878	20391.62
462.083	19162.84
462.289	18544.36
462.494	18364.14
462.7	17784.56
462.905	17041.15
463.111	17667.83
463.316	17600.24
463.522	17450.74
463.727	17440.5
463.932	17305.34
464.138	17174.27
464.343	17338.1
464.549	16584.45
464.754	17413.88
464.959	17299.19
465.165	17096.44
465.37	16361.22
465.575	16273.16
465.781	16699.14
465.986	16746.24
466.191	15843.09
466.397	15816.46
466.602	14894.88
466.807	15484.69
467.012	15515.41
467.218	15494.93
467.423	15183.64
467.628	15449.88
467.833	16000.78
468.038	15351.57
468.244	14984.99
468.449	15656.72
468.654	15030.04
468.859	14972.7
469.064	14757.66
469.269	14243.62
469.474	14741.28
469.679	14724.9
469.885	14020.39
470.09	14417.7
470.295	14395.17
470.5	14268.2
470.705	14051.11
470.91	13770.54
471.115	13602.61
471.32	13815.6
471.525	13895.47
471.73	13612.85
471.935	13285.17
472.139	12789.56
472.344	13061.94
472.549	13131.58
472.754	12990.27
472.959	12656.45
473.164	12322.63
473.369	12228.42
473.574	12420.93
473.778	12599.1
473.983	12398.4
474.188	12250.95
474.393	11843.4
474.598	11872.07
474.802	11595.6
475.007	11540.3
475.212	11534.16
475.417	10954.58
475.621	11097.94
475.826	11403.09
476.031	10968.92
476.235	10778.46
476.44	10999.64
476.645	10704.73
476.849	10800.99
477.054	10680.16
477.259	10524.51
477.463	10233.7
477.668	10307.43
477.872	10248.04
478.077	10188.64
478.282	9895.78
478.486	9744.24
478.691	9877.35
478.895	9705.32
479.1	9576.3
479.304	9619.31
479.509	9412.46
479.713	9623.41
479.918	9631.6
480.122	9205.62
480.326	9389.94
480.531	9299.83
480.735	9109.36
480.94	9127.8
481.144	9459.57
481.348	9127.8
481.553	9138.04
481.757	8910.71
481.961	9127.8
482.166	9176.95
482.37	9146.23
482.574	8970.1
482.778	9133.94
482.983	9189.24
483.187	9076.6
483.391	9191.28
483.595	9103.22
483.8	8988.53
484.004	8902.52
484.208	8884.09
484.412	8882.04
484.616	9019.25
484.821	9023.35
485.025	8728.44
485.229	9283.44
485.433	8916.86
485.637	9166.71
485.841	8771.45
486.045	8791.93
486.249	8933.24
486.453	8904.57
486.657	9072.5
486.861	9185.14
487.065	8875.9
487.269	8970.1
487.473	8722.3
487.677	9054.07
487.881	9039.73
488.085	8857.46
488.289	9037.69
488.493	8927.1
488.697	9058.17
488.901	9101.17
489.105	9191.28
489.309	9058.17
489.512	8927.1
489.716	9037.69
489.92	9062.26
490.124	9062.26
490.328	9293.68
490.531	9017.21
490.735	9140.08
490.939	9199.48
491.143	9176.95
491.346	9205.62
491.55	9451.38
491.754	9158.52
491.958	9439.09
492.161	9287.54
492.365	9375.6
492.569	9363.31
492.772	9518.96
492.976	9406.32
493.18	9396.08
493.383	9666.41
493.587	9758.57
493.79	9656.17
493.994	9635.69
494.197	9906.02
494.401	9721.71
494.605	9723.76
494.808	10243.94
495.012	10348.39
495.215	10037.09
495.419	10413.92
495.622	9967.46
495.825	10379.11
496.029	10454.88
496.232	10782.56
496.436	10334.05
496.639	10774.36
496.843	10829.66
497.046	10925.91
497.249	11173.72
497.453	10905.43
497.656	11253.59
497.859	11259.73
498.063	11333.46
498.266	11652.94
498.469	11747.15
498.673	11648.85
498.876	11870.03
499.079	11763.53
499.282	11896.65
499.485	12306.24
499.689	12230.47
499.892	12347.2
500.095	12296
500.298	12773.18
500.501	12728.13
500.705	12934.97
500.908	13199.16
501.111	13334.32
501.314	13504.31
501.517	13397.81
501.72	13610.8
501.923	13571.89
502.126	13858.6
502.329	14114.6
502.532	14022.44
502.735	14133.03
502.938	14307.11
503.141	14640.93
503.344	15175.45
503.547	14903.07
503.75	15353.62
503.953	15341.33
504.156	15671.06
504.359	15476.5
504.562	15499.03
504.765	15890.19
504.968	15798.03
505.17	16262.92
505.373	15980.3
505.576	16529.16
505.779	16633.6
505.982	16770.82
506.185	17278.71
506.387	16905.98
506.59	17602.29
506.793	17647.35
506.996	17782.51
507.198	18044.65
507.401	17923.82
507.604	18235.11
507.807	18607.84
508.009	18611.94
508.212	18665.19
508.415	19056.35
508.617	19492.57
508.82	19271.39
509.022	19166.94
509.225	19734.23
509.428	19926.74
509.63	20045.52
509.833	20201.16
510.035	20469.45
510.238	20410.06
510.44	20788.93
510.643	20977.34
510.845	21087.93
511.048	20909.76
511.25	21345.98
511.453	21444.28
511.655	22412.97
511.858	21886.64
512.06	21925.55
512.262	22869.67
512.465	22511.27
512.667	22939.3
512.87	22890.15
513.072	23070.37
513.274	23500.44
513.477	23619.22
513.679	23893.65
513.881	23889.56
514.084	24010.39
514.286	24127.12
514.488	24559.24
514.69	24882.82
514.893	25370.24
515.095	25173.63
515.297	25316.99
515.499	25615.99
515.701	25937.52
515.904	25826.93
516.106	26068.59
516.308	26453.61
516.51	26803.81
516.712	26783.34
516.914	26865.25
517.116	27305.57
517.318	27311.71
517.52	27614.81
517.722	27729.5
517.925	28134.99
518.127	28341.84
518.329	28358.22
518.531	28477.01
518.733	28874.31
518.935	29255.23
519.136	29158.98
519.338	29564.48
519.54	29861.43
519.742	29791.8
519.944	30225.97
520.146	30357.04
520.348	30422.58
520.55	30832.17
520.752	30725.68
520.954	31362.59
521.155	30848.55
521.357	31374.88
521.559	31528.48
521.761	32112.15
521.963	31983.13
522.164	32362
522.366	32349.71
522.568	32497.17
522.77	32527.89
522.971	33084.94
523.173	32773.64
523.375	33377.79
523.576	33422.85
523.778	33486.34
523.98	33779.2
524.181	33648.13
524.383	33934.84
524.584	34235.89
524.786	34524.66
524.988	34328.05
525.189	34794.99
525.391	34389.49
525.592	34911.72
525.794	34790.89
525.995	35073.51
526.197	34817.52
526.398	35237.35
526.6	35618.27
526.801	35542.5
527.003	35651.04
527.204	35317.22
527.406	35859.93
527.607	35794.4
527.808	36345.3
528.01	35544.55
528.211	36199.9
528.412	36877.77
528.614	36482.52
528.815	36445.65
529.016	36855.25
529.218	36292.05
529.419	36842.96
529.62	36359.64
529.822	36634.07
530.023	36783.57
530.224	37156.3
530.425	36713.94
530.626	36773.33
530.828	36621.78
531.029	37207.5
531.23	36830.67
531.431	37068.23
531.632	36982.22
531.833	37201.35
532.035	37193.16
532.236	37148.11
532.437	37076.43
532.638	37326.28
532.839	37430.72
533.04	37471.68
533.241	36902.35
533.442	37733.82
533.643	37416.39
533.844	37434.82
534.045	37666.24
534.246	36826.57
534.447	37418.44
534.648	37199.3
534.849	37453.25
535.05	36971.98
535.251	37674.43
535.451	37307.85
535.652	37387.72
535.853	37488.07
536.054	36998.6
536.255	37342.66
536.456	37199.3
536.657	37637.57
536.857	37328.33
537.058	37432.77
537.259	37797.31
537.46	37424.58
537.66	37350.85
537.861	37664.19
538.062	37404.1
538.263	37369.29
538.463	37107.15
538.664	37164.49
538.865	37844.41
539.065	37897.66
539.266	37057.99
539.466	37612.99
539.667	37404.1
539.868	37764.54
540.068	37367.24
540.269	37524.93
540.469	37197.26
540.67	37035.47
540.87	36806.09
541.071	37033.42
541.271	37563.84
541.472	37311.94
541.672	36910.54
541.873	37127.63
542.073	36906.44
542.274	37555.65
542.474	37182.92
542.675	36982.22
542.875	37541.32
543.075	36806.09
543.276	36523.47
543.476	37494.21
543.676	37055.95
543.877	37451.2
544.077	37025.23
544.277	37074.38
544.478	36748.75
544.678	37387.72
544.878	37262.79
545.078	37270.98
545.279	36713.94
545.479	36861.39
545.679	36576.72
545.879	36713.94
546.079	36984.27
546.28	36986.32
546.48	36728.27
546.68	36910.54
546.88	36918.73
547.08	37219.78
547.28	37139.91
547.48	36486.61
547.68	36539.86
547.88	36681.17
548.081	36941.26
548.281	37133.77
548.481	36525.52
548.681	36744.66
548.881	36715.98
549.081	36529.62
549.28	36449.75
549.48	36928.97
549.68	36591.06
549.88	37092.81
550.08	36623.83
550.28	36863.44
550.48	36713.94
550.68	36492.76
550.88	36623.83
551.08	36732.37
551.279	36851.15
551.479	36294.1
551.679	36552.15
551.879	36109.79
552.079	36621.78
552.278	36533.71
552.478	36171.22
552.678	36290.01
552.878	36376.02
553.077	36253.14
553.277	36050.39
553.477	36896.21
553.676	36359.64
553.876	36492.76
554.076	36216.28
554.275	36105.69
554.475	35876.32
554.674	36089.31
554.874	35923.42
555.074	36308.44
555.273	35786.21
555.473	36531.67
555.672	35876.32
555.872	36181.46
556.071	36089.31
556.271	36242.9
556.47	35741.15
556.67	35802.59
556.869	35476.96
557.068	35913.18
557.268	35628.51
557.467	35714.53
557.667	35558.88
557.866	35786.21
558.065	35485.15
558.265	35352.04
558.464	35413.48
558.663	35993.05
558.863	34979.31
559.062	35978.72
559.261	34942.44
559.461	35737.05
559.66	34864.62
559.859	35147.24
560.058	35096.04
560.258	35024.36
560.457	34688.49
560.656	35571.17
560.855	34829.8
561.054	35290.6
561.253	35192.29
561.453	34940.39
561.652	35139.05
561.851	35077.61
562.05	34639.34
562.249	34311.67
562.448	35016.17
562.647	34625.01
562.846	34602.48
563.045	34520.56
563.244	34344.44
563.443	34506.23
563.642	34393.59
563.841	34231.8
564.04	33922.55
564.239	34637.3
564.438	34156.02
564.637	34289.14
564.836	34448.88
565.035	33744.38
565.234	34225.65
565.432	34000.38
565.631	34029.05
565.83	33650.17
566.029	33963.51
566.228	33578.5
566.427	33801.72
566.625	33496.58
566.824	33121.8
567.023	33517.06
567.222	33328.64
567.42	33705.47
567.619	33177.09
567.818	33529.34
568.016	33363.46
568.215	33654.27
568.414	33342.98
568.612	33379.84
568.811	33340.93
569.01	33218.05
569.208	32534.03
569.407	32988.68
569.605	32683.53
569.804	32978.44
570.002	32777.74
570.201	32755.21
570.4	32472.59
570.598	32505.36
570.797	32505.36
570.995	32370.19
571.193	32372.24
571.392	32689.68
571.59	31884.83
571.789	32226.84
571.987	32329.23
572.186	32050.71
572.384	32095.77
572.582	31890.97
572.781	31813.15
572.979	31262.24
573.177	31938.07
573.376	31766.04
573.574	31499.81
573.772	31686.17
573.971	31405.6
574.169	31444.51
574.367	30889.51
574.565	31229.48
574.763	31133.22
574.962	31133.22
575.16	31022.63
575.358	31133.22
575.556	30842.41
575.754	30926.38
575.952	30961.19
576.151	30737.96
576.349	30629.42
576.547	30479.92
576.745	30584.37
576.943	30627.37
577.141	30287.41
577.339	30604.84
577.537	30387.76
577.735	30303.79
577.933	30060.09
578.131	30174.77
578.329	30008.89
578.527	29775.42
578.725	29896.25
578.923	29808.19
579.121	30158.39
579.319	29810.23
579.516	29738.55
579.714	29670.97
579.912	29687.35
580.11	29695.55
580.308	29341.25
580.506	29507.13
580.704	29177.41
580.901	29544
581.099	29263.43
581.297	29001.29
581.495	28884.55
581.692	29154.88
581.89	28612.17
582.088	28945.99
582.285	28636.75
582.483	28902.98
582.681	28591.69
582.878	28515.92
583.076	28466.77
583.274	28616.27
583.471	28134.99
583.669	28374.61
583.866	28319.31
584.064	28268.11
584.262	27960.92
584.459	28190.29
584.657	27938.39
584.854	27870.81
585.052	27459.16
585.249	28098.13
585.447	27623
585.644	27182.69
585.841	27850.33
586.039	27643.48
586.236	27645.53
586.434	27391.58
586.631	27377.25
586.828	27426.4
587.026	27055.72
587.223	27309.66
587.42	27219.55
587.618	27143.78
587.815	26748.52
588.012	26480.24
588.21	26695.27
588.407	26723.94
588.604	26488.43
588.801	26291.82
588.999	26429.04
589.196	26504.81
589.393	26193.52
589.59	26410.6
589.787	26214
589.984	26052.21
590.182	26154.61
590.379	26439.28
590.576	25919.09
590.773	25912.95
590.97	25738.87
591.167	25673.34
591.364	25349.76
591.561	25280.13
591.758	25585.27
591.955	25443.96
592.152	25845.37
592.349	25147.01
592.546	25147.01
592.743	25253.5
592.94	25052.8
593.137	24829.57
593.334	25198.21
593.531	24753.8
593.727	24925.83
593.924	24835.72
594.121	24409.74
594.318	25050.75
594.515	24227.47
594.712	24444.56
594.908	24069.78
595.105	24245.9
595.302	24241.81
595.499	24393.36
595.696	23875.22
595.892	23864.98
596.089	24000.15
596.286	23895.7
596.482	23975.57
596.679	23690.9
596.876	23680.66
597.072	23543.45
597.269	23570.07
597.466	23441.05
597.662	22974.11
597.859	23469.72
598.055	23219.87
598.252	23117.47
598.448	23021.22
598.645	23252.64
598.841	22841
599.038	22902.43
599.234	22695.59
599.431	22650.53
599.627	22748.84
599.824	22644.39
600.02	22683.3
600.217	22843.04
600.413	22654.63
600.609	22337.2
600.806	22439.59
601.002	22392.49
601.198	22111.92
601.395	21989.04
601.591	22347.43
601.787	22083.25
601.984	21997.23
602.18	22105.77
602.376	21696.18
602.572	21726.9
602.769	22036.14
602.965	21722.8
603.161	21608.12
603.357	21591.73
603.553	21393.08
603.75	21536.44
603.946	21495.48
604.142	21294.78
604.338	20991.68
604.534	21257.92
604.73	21135.04
604.926	21202.62
605.122	21118.65
605.318	20928.19
605.514	20885.19
605.71	20704.96
605.906	20709.06
606.102	20973.25
606.298	20917.95
606.494	20661.96
606.69	20410.06
606.886	20594.37
607.082	20502.22
607.278	20442.82
607.474	20195.02
607.67	20522.69
607.866	20014.8
608.062	20436.68
608.257	20174.54
608.453	20098.77
608.649	19816.15
608.845	20119.24
609.041	19881.68
609.236	20094.67
609.432	20260.55
609.628	20137.68
609.824	19873.49
610.019	19861.2
610.215	19830.48
610.411	19810
610.606	19699.41
610.802	19945.17
610.998	19543.77
611.193	19476.18
611.389	19732.18
611.584	19748.56
611.78	19375.83
611.976	19390.17
612.171	19504.85
612.367	19365.59
612.562	19160.8
612.758	19371.74
612.953	19285.72
613.149	19427.03
613.344	19117.79
613.539	19660.5
613.735	19132.12
613.93	19306.2
614.126	19164.89
614.321	19310.3
614.517	18771.68
614.712	19050.21
614.907	18779.87
615.103	18806.5
615.298	18874.08
615.493	19042.01
615.688	18743.01
615.884	19314.39
616.079	18669.28
616.274	18902.75
616.47	18915.04
616.665	18708.19
616.86	18613.99
617.055	18489.06
617.25	18321.13
617.445	18413.29
617.641	18394.86
617.836	18380.52
618.031	18157.29
618.226	18388.71
618.421	18128.62
618.616	18388.71
618.811	17882.86
619.006	17948.4
619.201	17895.15
619.396	17850.1
619.591	17950.45
619.786	17669.87
619.981	17725.17
620.176	17762.03
620.371	17481.46
620.566	17454.84
620.761	17198.84
620.956	17661.68
621.151	17223.42
621.346	17200.89
621.541	17045.24
621.735	17147.64
621.93	16805.63
622.125	16817.92
622.32	16856.83
622.515	16858.88
622.709	16764.67
622.904	16572.16
623.099	16480
623.294	16549.64
623.488	16088.84
623.683	16500.48
623.878	16164.62
624.072	15875.85
624.267	16158.47
624.462	15689.49
624.656	15634.19
624.851	15832.85
625.046	15687.44
625.24	15656.72
625.435	15423.25
625.629	15259.42
625.824	15582.99
626.018	15363.86
626.213	14921.5
626.407	15372.05
626.602	15095.58
626.796	15267.61
626.991	14788.38
627.185	14984.99
627.38	14620.45
627.574	14530.34
627.768	14415.65
627.963	14444.32
628.157	14300.97
628.352	14403.36
628.546	14114.6
628.74	14335.78
628.935	14155.56
629.129	14051.11
629.323	13868.84
629.517	13981.48
629.712	13795.12
629.906	13866.8
630.1	13543.22
630.294	13379.38
630.489	13424.44
630.683	13412.15
630.877	13256.5
631.071	13217.59
631.265	13248.31
631.459	12971.83
631.653	13199.16
631.848	13344.56
632.042	12795.71
632.236	13045.56
632.43	12834.62
632.624	12918.59
632.818	12650.3
633.012	12771.13
633.206	12588.86
633.4	12668.73
633.594	12279.62
633.788	12212.04
633.982	12523.33
634.176	12238.66
634.369	12083.02
634.563	12109.64
634.757	11953.99
634.951	12015.43
635.145	12054.34
635.339	11919.18
635.533	11816.78
635.726	11941.71
635.92	11687.76
636.114	11665.23
636.308	11673.42
636.501	11745.1
636.695	11542.35
636.889	11413.33
637.083	11454.29
637.276	11384.66
637.47	11097.94
637.664	10993.5
637.857	10999.64
638.051	11212.63
638.244	11030.36
638.438	10803.04
638.632	11044.7
638.825	10952.54
639.019	10784.6
639.212	10796.89
639.406	10907.48
639.599	10403.68
639.793	10530.66
639.986	10501.98
640.18	10479.46
640.373	10377.06
640.567	10276.71
640.76	10334.05
640.954	10370.91
641.147	10131.3
641.34	9858.92
641.534	10207.08
641.727	10067.81
641.92	10264.42
642.114	9944.94
642.307	9953.13
642.5	9940.84
642.694	9791.34
642.887	9660.27
643.08	9746.28
643.273	9740.14
643.467	9654.12
643.66	9461.62
643.853	9492.34
644.046	9160.56
644.239	9494.38
644.432	9422.7
644.626	9121.65
644.819	9238.39
645.012	9209.72
645.205	9299.83
645.398	9068.41
645.591	8984.44
645.784	9060.21
645.977	8884.09
646.17	8865.66
646.363	8839.03
646.556	8785.79
646.749	8834.94
646.942	8781.69
647.135	8566.65
647.328	8630.14
647.521	8693.63
647.714	8617.85
647.907	8486.78
648.099	8474.49
648.292	8441.73
648.485	8294.27
648.678	8513.41
648.871	8404.86
649.064	8306.56
649.256	8173.44
649.449	8122.24
649.642	8097.67
649.835	8060.8
650.027	8259.46
650.22	8130.44
650.413	7944.07
650.605	7995.27
650.798	7962.5
650.991	7720.84
651.183	7810.95
651.376	7503.76
651.568	7735.18
651.761	7610.25
651.954	7686.03
652.146	7647.12
652.339	7772.04
652.531	7571.34
652.724	7552.91
652.916	7514
653.109	7462.8
653.301	7366.54
653.494	7444.37
653.686	7223.19
653.879	7440.27
654.071	7288.72
654.263	7188.37
654.456	7182.23
654.648	7176.08
654.84	7124.88
655.033	7124.88
655.225	7077.78
655.417	6924.18
655.61	6922.13
655.802	6897.56
655.994	7004.05
656.186	6752.15
656.379	7059.35
656.571	6713.24
656.763	6746.01
656.955	6743.96
657.148	6582.17
657.34	6719.39
657.532	6494.11
657.724	6506.4
657.916	6547.36
658.108	6467.49
658.3	6416.29
658.492	6426.53
658.684	6381.47
658.876	6322.08
659.068	6373.28
659.26	6274.98
659.452	6285.22
659.644	6119.33
659.836	6111.14
660.028	6242.21
660.22	6035.36
660.412	6072.23
660.604	6076.32
660.796	6137.76
660.988	6076.32
661.18	5969.83
661.372	5857.19
661.563	6088.61
661.755	6057.89
661.947	6008.74
662.139	5619.63
662.331	5662.63
662.522	5871.53
662.714	5679.02
662.906	5722.02
663.097	5611.43
663.289	5627.82
663.481	5679.02
663.673	5613.48
663.864	5693.35
664.056	5523.37
664.247	5556.14
664.439	5414.83
664.631	5447.6
664.822	5408.69
665.014	5453.74
665.205	5400.49
665.397	5410.73
665.588	5224.37
665.78	5359.53
665.971	5457.84
666.163	5257.14
666.354	5361.58
666.546	5414.83
666.737	4970.42
666.929	5136.31
667.12	5058.48
667.311	5195.7
667.503	5126.07
667.694	4949.94
667.885	4968.37
668.077	5017.52
668.268	4898.74
668.459	5085.11
668.651	4947.89
668.842	4814.77
669.033	4849.59
669.224	4992.95
669.416	4853.69
669.607	4847.54
669.798	4779.96
669.989	4990.9
670.18	4759.48
670.371	4775.86
670.563	4689.85
670.754	4702.14
670.945	4556.73
671.136	4782.01
671.327	4618.17
671.518	4612.03
671.709	4673.46
671.9	4575.16
672.091	4661.18
672.282	4558.78
672.473	4485.05
672.664	4530.11
672.855	4513.72
673.046	4509.63
673.237	4603.83
673.428	4612.03
673.619	4378.56
673.809	4319.17
674	4462.52
674.191	4573.11
674.382	4464.57
674.573	4296.64
674.764	4407.23
674.954	4358.08
675.145	4364.22
675.336	4186.05
675.527	4120.51
675.717	4300.73
675.908	4153.28
676.099	4200.38
676.289	4335.55
676.48	4124.61
676.671	4196.29
676.861	4245.44
677.052	4016.07
677.243	4003.78
677.433	4095.94
677.624	4171.71
677.814	4294.59
678.005	4196.29
678.195	4011.97
678.386	4126.66
678.576	4052.93
678.767	4087.75
678.957	4136.9
679.148	4130.75
679.338	4067.27
679.529	4061.12
679.719	4007.87
679.909	3966.92
680.1	3983.3
680.29	3784.65
680.481	3999.68
680.671	3880.9
680.861	3956.68
681.052	3891.14
681.242	3968.96
681.432	3942.34
681.622	3858.37
681.813	3915.72
682.003	3755.97
682.193	3823.56
682.383	4005.83
682.573	3958.72
682.764	3921.86
682.954	3948.48
683.144	3858.37
683.334	3923.91
683.524	3897.28
683.714	3751.88
683.904	3579.85
684.094	3803.08
684.284	3663.82
684.474	3790.79
684.664	3753.93
684.854	3694.54
685.044	3667.91
685.234	3719.11
685.424	3856.33
685.614	3721.16
685.804	3723.21
685.994	3618.76
686.184	3577.8
686.374	3653.58
686.564	3647.43
686.753	3573.71
686.943	3528.65
687.133	3540.94
687.323	3504.07
687.513	3665.86
687.702	3573.71
687.892	3528.65
688.082	3393.48
688.272	3487.69
688.461	3432.4
688.651	3508.17
688.841	3248.08
689.03	3327.95
689.22	3360.72
689.41	3293.13
689.599	3264.46
689.789	3188.69
689.979	3258.32
690.168	3289.04
690.358	3190.74
690.547	3217.36
690.737	3198.93
690.926	3119.06
691.116	3092.43
691.305	3200.98
691.495	3110.86
691.684	3180.5
691.874	3102.67
692.063	3196.88
692.252	3045.33
692.442	3067.86
692.631	2979.79
692.82	3092.43
693.01	3028.95
693.199	3026.9
693.388	2881.49
693.578	2906.07
693.767	2922.45
693.956	2914.26
694.146	2861.01
694.335	2707.41
694.524	2813.91
694.713	2885.59
694.902	2975.7
695.092	2826.2
695.281	2777.05
695.47	2813.91
695.659	2772.95
695.848	2684.89
696.037	2811.86
696.226	2648.02
696.415	2729.94
696.604	2660.31
696.793	2621.4
696.982	2688.98
697.171	2648.02
697.36	2721.75
697.549	2648.02
697.738	2566.1
697.927	2635.74
698.116	2580.44
698.305	2684.89
698.494	2600.92
698.683	2541.53
698.872	2598.87
699.061	2566.1
699.25	2553.82
699.438	2502.62
699.627	2629.59
699.816	2500.57
700.005	2539.48
700.193	2519
700.382	2525.15
700.571	2508.76
700.76	2623.45
700.948	2525.15
701.137	2574.3
701.326	2514.91
701.514	2553.82
701.703	2463.71
701.892	2473.95
702.08	2467.8
702.269	2377.69
702.457	2475.99
702.646	2396.12
702.834	2516.95
703.023	2328.54
703.212	2435.03
703.4	2435.03
703.589	2387.93
703.777	2404.32
703.965	2291.68
704.154	2293.72
704.342	2418.65
704.531	2406.36
704.719	2346.97
704.907	2490.33
705.096	2369.5
705.284	2320.35
705.472	2320.35
705.661	2349.02
705.849	2383.84
706.037	2392.03
706.226	2383.84
706.414	2361.31
706.602	2308.06
706.79	2463.71
706.979	2344.92
707.167	2265.05
707.355	2314.2
707.543	2365.4
707.731	2344.92
707.919	2220
708.107	2314.2
708.296	2322.4
708.484	2265.05
708.672	2295.77
708.86	2312.16
709.048	2412.51
709.236	2193.37
709.424	2263.01
709.612	2392.03
709.8	2265.05
709.988	2246.62
710.176	2365.4
710.364	2236.38
710.551	2293.72
710.739	2303.96
710.927	2328.54
711.115	2306.01
711.303	2383.84
711.491	2369.5
711.679	2369.5
711.866	2230.24
712.054	2297.82
712.242	2316.25
712.43	2435.03
712.617	2316.25
712.805	2385.88
712.993	2361.31
713.181	2263.01
713.368	2193.37
713.556	2334.68
713.744	2349.02
713.931	2346.97
714.119	2240.48
714.306	2353.12
714.494	2248.67
714.682	2271.2
714.869	2328.54
715.057	2519
715.244	2344.92
715.432	2441.18
715.619	2369.5
715.807	2287.58
715.994	2314.2
716.182	2299.87
716.369	2267.1
716.556	2494.43
716.744	2389.98
716.931	2314.2
717.119	2342.88
717.306	2322.4
717.493	2381.79
717.681	2349.02
717.868	2353.12
718.055	2324.44
718.242	2406.36
718.43	2277.34
718.617	2332.64
718.804	2369.5
718.991	2371.55
719.179	2467.8
719.366	2381.79
719.553	2404.32
719.74	2310.11
719.927	2398.17
720.114	2385.88
720.301	2342.88
720.488	2371.55
720.676	2459.61
720.863	2310.11
721.05	2416.6
721.237	2381.79
721.424	2504.67
721.611	2389.98
721.798	2242.53
721.985	2492.38
722.172	2465.75
722.358	2432.99
722.545	2410.46
722.732	2340.83
722.919	2435.03
723.106	2400.22
723.293	2482.14
723.48	2373.6
723.667	2398.17
723.853	2453.47
724.04	2320.35
724.227	2375.64
724.414	2422.75
724.6	2334.68
724.787	2373.6
724.974	2449.37
725.161	2357.21
725.347	2351.07
725.534	2588.63
725.72	2365.4
725.907	2308.06
726.094	2490.33
726.28	2473.95
726.467	2414.56
726.653	2447.32
726.84	2533.34
727.027	2394.08
727.213	2455.51
727.4	2441.18
727.586	2475.99
727.773	2455.51
727.959	2475.99
728.145	2590.68
728.332	2525.15
728.518	2369.5
728.705	2580.44
728.891	2430.94
729.077	2414.56
729.264	2451.42
729.45	2541.53
729.636	2584.54
729.823	2451.42
730.009	2623.45
730.195	2490.33
730.382	2578.39
730.568	2502.62
730.754	2424.8
730.94	2598.87
731.126	2510.81
731.313	2572.25
731.499	2441.18
731.685	2465.75
731.871	2471.9
732.057	2508.76
732.243	2441.18
732.429	2500.57
732.615	2523.1
732.801	2615.26
732.987	2557.91
733.173	2445.27
733.359	2631.64
733.545	2531.29
733.731	2508.76
733.917	2578.39
734.103	2588.63
734.289	2568.15
734.475	2504.67
734.661	2621.4
734.847	2553.82
735.033	2516.95
735.219	2533.34
735.404	2432.99
735.59	2514.91
735.776	2578.39
735.962	2547.67
736.148	2537.43
736.333	2527.19
736.519	2453.47
736.705	2535.39
736.89	2488.28
737.076	2437.08
737.262	2498.52
737.447	2459.61
737.633	2451.42
737.819	2533.34
738.004	2547.67
738.19	2480.09
738.375	2500.57
738.561	2435.03
738.747	2484.19
738.932	2504.67
739.118	2344.92
739.303	2435.03
739.489	2467.8
739.674	2426.84
739.859	2451.42
740.045	2363.36
740.23	2326.49
740.416	2222.05
740.601	2383.84
740.786	2496.47
740.972	2383.84
741.157	2428.89
741.342	2426.84
741.528	2369.5
741.713	2365.4
741.898	2426.84
742.084	2375.64
742.269	2353.12
742.454	2306.01
742.639	2324.44
742.824	2228.19
743.01	2430.94
743.195	2297.82
743.38	2344.92
743.565	2432.99
743.75	2269.15
743.935	2080.74
744.12	2357.21
744.305	2289.63
744.49	2228.19
744.675	2279.39
744.86	2226.14
745.045	2203.61
745.23	2287.58
745.415	2201.57
745.6	2303.96
745.785	2121.7
745.97	2207.71
746.155	2176.99
746.34	2144.22
746.525	2189.28
746.71	2131.94
746.895	2099.17
747.079	2033.63
747.264	2152.42
747.449	2066.4
747.634	2136.03
747.819	2064.35
748.003	2009.06
748.188	1957.86
748.373	2056.16
748.557	1947.62
748.742	1941.47
748.927	2052.06
749.111	2013.15
749.296	2088.93
749.481	1949.67
749.665	1873.89
749.85	1923.04
750.034	1871.84
750.219	1789.92
750.404	1806.31
750.588	1896.42
750.773	1914.85
750.957	1830.88
751.141	1824.74
751.326	1800.16
751.51	1812.45
751.695	1796.07
751.879	1894.37
752.064	1830.88
752.248	1705.96
752.432	1779.68
752.617	1763.3
752.801	1615.85
752.985	1705.96
753.17	1710.05
753.354	1695.72
753.538	1626.09
753.722	1720.29
753.907	1703.91
754.091	1478.63
754.275	1646.57
754.459	1656.81
754.643	1511.4
754.828	1624.04
755.012	1562.6
755.196	1566.7
755.38	1658.85
755.564	1556.46
755.748	1527.78
755.932	1445.87
756.116	1542.12
756.3	1435.63
756.484	1544.17
756.668	1478.63
756.852	1386.47
757.036	1492.97
757.22	1394.67
757.404	1458.15
757.588	1513.45
757.772	1392.62
757.956	1546.22
758.14	1411.05
758.323	1419.24
758.507	1462.25
758.691	1382.38
758.875	1415.15
759.059	1443.82
759.242	1345.52
759.426	1329.13
759.61	1300.46
759.794	1363.95
759.977	1435.63
760.161	1363.95
760.345	1329.13
760.528	1380.33
760.712	1316.84
760.895	1310.7
761.079	1292.27
761.263	1302.51
761.446	1288.17
761.63	1224.69
761.813	1304.56
761.997	1255.4
762.18	1239.02
762.364	1335.28
762.547	1200.11
762.731	1206.25
762.914	1196.01
763.098	1224.69
763.281	1249.26
763.464	1206.25
763.648	1165.29
763.831	1220.59
764.015	1202.16
764.198	1126.38
764.381	1286.12
764.564	1155.05
764.748	1120.24
764.931	1155.05
765.114	1181.68
765.297	1177.58
765.481	1153.01
765.664	1185.77
765.847	1126.38
766.03	1136.62
766.213	1155.05
766.397	1138.67
766.58	1271.79
766.763	1073.14
766.946	1157.1
767.129	1066.99
767.312	1044.46
767.495	1050.61
767.678	1028.08
767.861	1075.18
768.044	1103.86
768.227	1058.8
768.41	1110
768.593	993.26
768.776	1132.53
768.959	1030.13
769.142	1062.9
769.324	1062.9
769.507	1056.75
769.69	1013.74
769.873	1087.47
770.056	1013.74
770.239	944.11
770.421	1036.27
770.604	999.41
770.787	1042.42
770.97	944.11
771.152	968.69
771.335	993.26
771.518	903.15
771.7	1001.46
771.883	956.4
772.066	954.35
772.248	933.87
772.431	976.88
772.613	866.29
772.796	944.11
772.978	966.64
773.161	890.87
773.343	993.26
773.526	915.44
773.708	944.11
773.891	851.96
774.073	954.35
774.256	946.16
774.438	933.87
774.621	882.67
774.803	890.87
774.985	823.28
775.168	854
775.35	837.62
775.532	770.04
775.715	866.29
775.897	815.09
776.079	827.38
776.261	849.91
776.444	800.76
776.626	792.56
776.808	823.28
776.99	856.05
777.173	886.77
777.355	831.48
777.537	804.85
777.719	745.46
777.901	794.61
778.083	772.08
778.265	747.51
778.447	770.04
778.629	655.35
778.811	708.6
778.993	743.41
779.175	618.49
779.357	747.51
779.539	690.17
779.721	688.12
779.903	661.49
780.085	630.77
780.267	626.68
780.449	770.04
780.631	663.54
780.812	737.27
780.994	673.78
781.176	630.77
781.358	641.01
781.54	665.59
781.721	645.11
781.903	591.86
782.085	595.96
782.267	655.35
782.448	583.67
782.63	600.05
782.812	585.72
782.993	606.2
783.175	630.77
783.357	540.66
783.538	518.14
783.72	552.95
783.901	595.96
784.083	616.44
784.264	585.72
784.446	575.48
784.627	507.9
784.809	538.62
784.99	600.05
785.172	503.8
785.353	544.76
785.535	505.85
785.716	505.85
785.897	509.94
786.079	468.98
786.26	511.99
786.441	561.14
786.623	485.37
786.804	511.99
786.985	428.03
787.167	466.94
787.348	450.55
787.529	464.89
787.71	542.71
787.891	483.32
788.073	411.64
788.254	448.51
788.435	444.41
788.616	493.56
788.797	466.94
788.978	448.51
789.159	395.26
789.34	468.98
789.522	428.03
789.703	415.74
789.884	446.46
790.065	401.4
790.246	473.08
790.427	378.87
790.607	442.36
790.788	450.55
790.969	387.07
791.15	423.93
791.331	382.97
791.512	419.83
791.693	387.07
791.874	473.08
792.054	458.74
792.235	348.15
792.416	425.98
792.597	385.02
792.778	403.45
792.958	409.59
793.139	393.21
793.32	344.06
793.5	344.06
793.681	432.12
793.862	331.77
794.042	331.77
794.223	364.54
794.404	342.01
794.584	335.87
794.765	389.11
794.945	387.07
795.126	358.39
795.306	362.49
795.487	344.06
795.667	278.52
795.848	395.26
796.028	299
796.209	352.25
796.389	385.02
796.57	387.07
796.75	307.2
796.93	356.35
797.111	358.39
797.291	385.02
797.471	346.11
797.652	372.73
797.832	321.53
798.012	313.34
798.192	352.25
798.373	274.43
798.553	278.52
798.733	301.05
798.913	280.57
799.093	272.38
799.274	256
799.454	227.32
799.634	315.39
799.814	391.16
799.994	305.15
800.174	317.44
800.354	284.67
800.534	223.23
800.714	352.25
800.894	241.66
801.074	278.52
801.254	321.53
801.434	288.76
801.614	309.24
801.794	206.84
801.974	661.49
802.154	202.75
802.334	196.61
802.514	253.95
802.693	299
802.873	272.38
803.053	258.04
803.233	280.57
803.413	274.43
803.592	321.53
803.772	378.87
803.952	290.81
804.131	237.56
804.311	223.23
804.491	280.57
804.67	190.46
804.85	268.28
805.03	206.84
805.209	282.62
805.389	260.09
805.568	174.08
805.748	227.32
805.928	215.04
806.107	307.2
806.287	215.04
806.466	206.84
806.646	219.13
806.825	192.51
807.004	313.34
807.184	247.8
807.363	260.09
807.543	190.46
807.722	253.95
807.901	260.09
808.081	292.86
808.26	223.23
808.439	196.61
808.619	231.42
808.798	239.61
808.977	229.37
809.156	243.71
809.336	290.81
809.515	253.95
809.694	212.99
809.873	296.96
810.052	235.52
810.231	235.52
810.411	204.8
810.59	202.75
810.769	198.65
810.948	253.95
811.127	253.95
811.306	169.98
811.485	157.69
811.664	194.56
811.843	200.7
812.022	223.23
812.201	151.55
812.38	221.18
812.559	147.45
812.737	245.76
812.916	165.89
813.095	169.98
813.274	196.61
813.453	147.45
813.632	198.65
813.811	163.84
813.989	102.4
814.168	163.84
814.347	145.41
814.526	198.65
814.704	270.33
814.883	180.22
815.062	122.88
815.24	208.89
815.419	169.98
815.598	153.6
815.776	153.6
815.955	145.41
816.133	145.41
816.312	184.32
816.49	104.45
816.669	163.84
816.847	71.68
817.026	204.8
817.204	157.69
817.383	106.49
817.561	96.25
817.74	165.89
817.918	182.27
818.097	161.79
818.275	188.41
818.453	126.97
818.632	159.74
818.81	221.18
818.988	161.79
819.167	135.17
819.345	106.49
819.523	153.6
819.701	139.26
819.879	165.89
820.058	114.69
820.236	223.23
820.414	190.46
820.592	163.84
820.77	163.84
820.948	196.61
821.127	172.03
821.305	159.74
821.483	147.45
821.661	190.46
821.839	108.54
822.017	104.45
822.195	135.17
822.373	155.65
822.551	94.21
822.729	67.58
822.907	145.41
823.085	198.65
823.262	135.17
823.44	102.4
823.618	165.89
823.796	153.6
823.974	108.54
824.152	114.69
824.329	153.6
824.507	116.73
824.685	167.93
824.863	83.97
825.04	104.45
825.218	149.5
825.396	131.07
825.574	180.22
825.751	67.58
825.929	75.77
826.107	153.6
826.284	108.54
826.462	133.12
826.639	157.69
826.817	206.84
826.994	30.72
827.172	122.88
827.349	147.45
827.527	165.89
827.704	124.93
827.882	151.55
828.059	149.5
828.237	81.92
828.414	202.75
828.591	108.54
828.769	139.26
828.946	122.88
829.124	194.56
829.301	165.89
829.478	126.97
829.655	49.15
829.833	161.79
830.01	108.54
830.187	55.3
830.364	139.26
830.542	174.08
830.719	147.45
830.896	135.17
831.073	90.11
831.25	147.45
831.427	108.54
831.604	124.93
831.782	141.31
831.959	116.73
832.136	169.98
832.313	112.64
832.49	71.68
832.667	112.64
832.844	77.82
833.021	131.07
833.198	120.83
833.374	169.98
833.551	104.45
833.728	108.54
833.905	122.88
834.082	83.97
834.259	129.02
834.436	141.31
834.612	98.3
834.789	159.74
834.966	104.45
835.143	112.64
835.319	77.82
835.496	110.59
835.673	47.1
835.85	67.58
836.026	90.11
836.203	92.16
836.38	131.07
836.556	147.45
836.733	92.16
836.909	104.45
837.086	108.54
837.262	112.64
837.439	45.06
837.616	120.83
837.792	59.39
837.968	40.96
838.145	67.58
838.321	4.1
838.498	81.92
838.674	133.12
838.851	96.25
839.027	83.97
839.203	96.25
839.38	159.74
839.556	65.54
839.732	98.3
839.909	178.17
840.085	108.54
840.261	83.97
840.437	88.06
840.614	61.44
840.79	92.16
840.966	92.16
841.142	34.82
841.318	106.49
841.494	36.86
841.671	112.64
841.847	114.69
842.023	92.16
842.199	86.01
842.375	92.16
842.551	34.82
842.727	32.77
842.903	100.35
843.079	40.96
843.255	104.45
843.431	92.16
843.607	63.49
843.783	-4.1
843.959	63.49
844.134	-10.24
844.31	81.92
844.486	83.97
844.662	149.5
844.838	55.3
845.013	34.82
845.189	83.97
845.365	59.39
845.541	88.06
845.716	81.92
845.892	69.63
846.068	110.59
846.244	83.97
846.419	4.1
846.595	102.4
846.77	38.91
846.946	16.38
847.122	102.4
847.297	51.2
847.473	108.54
847.648	67.58
847.824	61.44
847.999	53.25
848.175	92.16
848.35	129.02
848.526	116.73
848.701	34.82
848.876	83.97
849.052	92.16
849.227	79.87
849.403	98.3
849.578	98.3
849.753	100.35
849.929	67.58
850.104	36.86
850.279	106.49
850.454	-2.05
850.63	28.67
850.805	67.58
850.98	100.35
851.155	-10.24
851.33	28.67
851.505	26.62
851.681	53.25
851.856	92.16
852.031	8.19
852.206	83.97
852.381	71.68
852.556	139.26
852.731	47.1
852.906	-59.39
853.081	28.67
853.256	71.68
853.431	96.25
853.606	26.62
853.781	-6.14
853.956	43.01
854.131	49.15
854.305	10.24
854.48	34.82
854.655	47.1
854.83	47.1
855.005	36.86
855.18	63.49
855.354	34.82
855.529	77.82
855.704	53.25
855.879	124.93
856.053	100.35
856.228	6.14
856.403	67.58
856.577	86.01
856.752	81.92
856.926	49.15
857.101	81.92
857.276	40.96
857.45	88.06
857.625	59.39
857.799	110.59
857.974	114.69
858.148	16.38
858.323	55.3
858.497	0
858.672	108.54
858.846	8.19
859.02	116.73
859.195	47.1
859.369	8.19
859.543	-38.91
859.718	108.54
859.892	79.87
860.066	-16.38
860.241	96.25
860.415	98.3
860.589	86.01
860.763	36.86
860.938	34.82
861.112	131.07
861.286	32.77
861.46	53.25
861.634	-22.53
861.808	-14.34
861.982	57.34
862.157	81.92
862.331	67.58
862.505	26.62
862.679	28.67
862.853	22.53
863.027	2.05
863.201	65.54
863.375	34.82
863.549	92.16
863.722	34.82
863.896	122.88
864.07	-30.72
864.244	6.14
864.418	75.77
864.592	38.91
864.766	57.34
864.939	47.1
865.113	28.67
865.287	59.39
865.461	0
865.634	47.1
865.808	-34.82
865.982	20.48
866.156	63.49
866.329	81.92
866.503	49.15
866.676	67.58
866.85	55.3
867.024	51.2
867.197	18.43
867.371	53.25
867.544	18.43
867.718	12.29
867.891	-2.05
868.065	18.43
868.238	10.24
868.412	67.58
868.585	65.54
868.759	4.1
868.932	18.43
869.105	69.63
869.279	12.29
869.452	55.3
869.625	-14.34
869.799	100.35
869.972	-40.96
870.145	65.54
870.319	65.54
870.492	47.1
870.665	40.96
870.838	-2.05
871.011	6.14
871.185	67.58
871.358	-55.3
871.531	47.1
871.704	75.77
871.877	-38.91
872.05	14.34
872.223	22.53
872.396	4.1
872.569	61.44
872.742	-38.91
872.915	63.49
873.088	20.48
873.261	63.49
873.434	-59.39
873.607	12.29
873.78	55.3
873.953	12.29
874.126	40.96
874.299	10.24
874.471	88.06
874.644	32.77
874.817	67.58
874.99	102.4
875.163	67.58
875.335	59.39
875.508	-10.24
875.681	-36.86
875.853	24.58
876.026	24.58
876.199	51.2
876.371	75.77
876.544	28.67
876.717	22.53
876.889	-32.77
877.062	96.25
877.234	51.2
877.407	51.2
877.579	-18.43
877.752	57.34
877.924	77.82
878.097	10.24
878.269	-55.3
878.442	63.49
878.614	63.49
878.786	90.11
878.959	-8.19
879.131	59.39
879.303	32.77
879.476	47.1
879.648	12.29
879.82	106.49
879.993	53.25
880.165	61.44
880.337	26.62
880.509	8.19
880.681	106.49
880.854	38.91
881.026	6.14
881.198	100.35
881.37	59.39
881.542	-6.14
881.714	20.48
881.886	-10.24
882.058	-2.05
882.23	-26.62
882.402	108.54
882.574	73.73
882.746	32.77
882.918	-6.14
883.09	0
883.262	65.54
883.434	-38.91
883.606	14.34
883.778	110.59
883.95	30.72
884.122	53.25
884.293	43.01
884.465	-4.1
884.637	88.06
884.809	55.3
884.98	40.96
885.152	96.25
885.324	-4.1
885.496	-53.25
885.667	57.34
885.839	79.87
886.011	26.62
886.182	14.34
886.354	-14.34
886.525	12.29
886.697	63.49
886.869	-61.44
887.04	26.62
887.212	49.15
887.383	94.21
887.555	51.2
887.726	63.49
887.897	63.49
888.069	34.82
888.24	61.44
888.412	79.87
888.583	81.92
888.754	90.11
888.926	-38.91
889.097	2.05
889.268	-18.43
889.44	-10.24
889.611	-6.14
889.782	77.82
889.953	-18.43
890.125	43.01
890.296	-22.53
890.467	6.14
890.638	32.77
890.809	28.67
890.98	-16.38
891.151	-6.14
891.323	34.82
891.494	30.72
891.665	71.68
891.836	43.01
892.007	-96.25
892.178	6.14
892.349	-4.1
892.52	12.29
892.691	49.15
892.862	36.86
893.032	-32.77
893.203	28.67
893.374	16.38
893.545	28.67
893.716	2.05
893.887	28.67
894.057	55.3
894.228	43.01
894.399	20.48
894.57	-57.34
894.74	67.58
894.911	47.1
895.082	0
895.253	14.34
895.423	79.87
895.594	20.48
895.764	49.15
895.935	53.25
896.106	69.63
896.276	32.77
896.447	10.24
896.617	-28.67
896.788	-61.44
896.958	10.24
897.129	38.91
897.299	24.58
897.47	112.64
897.64	32.77
897.81	45.06
897.981	88.06
898.151	18.43
898.322	34.82
898.492	45.06
898.662	26.62
898.832	53.25
899.003	36.86
899.173	4.1
899.343	22.53
899.513	8.19
