Data from USB4F104151__85__11-37-48-239.txt Node

Date: Fri Mar 14 11:37:48 EDT 2025
User: louis
Spectrometer: USB4F10415
Trigger mode: 4
Integration Time (sec): 2.000000E-2
Scans to average: 1
Electric dark correction enabled: true
Nonlinearity correction enabled: false
Boxcar width: 0
XAxis mode: Wavelengths
Number of Pixels in Spectrum: 3648
>>>>>Begin Spectral Data<<<<<
178.204	-47.96
178.424	-47.96
178.644	-47.96
178.864	-74.58
179.084	-21.33
179.304	31.91
179.524	-76.63
179.744	-2.9
179.964	36.01
180.184	-7
180.404	31.91
180.624	-41.81
180.844	33.96
181.064	-54.1
181.283	-64.34
181.503	31.91
181.723	81.07
181.943	-31.57
182.163	111.78
182.383	23.72
182.602	15.53
182.822	36.01
183.042	-9.05
183.262	11.43
183.482	-33.62
183.701	-11.09
183.921	-0.85
184.141	93.35
184.361	85.16
184.58	74.92
184.8	33.96
185.02	44.2
185.239	27.82
185.459	31.91
185.679	72.87
185.898	-43.86
186.118	158.89
186.338	-33.62
186.557	105.64
186.777	3.24
186.997	48.3
187.216	-15.19
187.436	66.73
187.655	-35.67
187.875	97.45
188.095	-0.85
188.314	52.39
188.534	-33.62
188.753	13.48
188.973	68.78
189.192	-19.29
189.412	79.02
189.631	-13.14
189.851	29.87
190.07	60.59
190.29	-0.85
190.509	23.72
190.729	-2.9
190.948	29.87
191.168	62.63
191.387	76.97
191.607	-9.05
191.826	85.16
192.045	111.78
192.265	17.58
192.484	5.29
192.704	64.68
192.923	27.82
193.142	62.63
193.362	62.63
193.581	-25.43
193.8	42.15
194.02	56.49
194.239	50.35
194.458	64.68
194.678	64.68
194.897	52.39
195.116	42.15
195.335	83.11
195.555	-15.19
195.774	72.87
195.993	19.63
196.212	31.91
196.432	9.39
196.651	-31.57
196.87	-41.81
197.089	66.73
197.308	83.11
197.528	56.49
197.747	31.91
197.966	-39.76
198.185	62.63
198.404	29.87
198.623	91.31
198.842	23.72
199.062	99.5
199.281	60.59
199.5	7.34
199.719	64.68
199.938	79.02
200.157	21.67
200.376	36.01
200.595	50.35
200.814	42.15
201.033	68.78
201.252	101.55
201.471	38.06
201.69	64.68
201.909	42.15
202.128	5.29
202.347	48.3
202.566	36.01
202.785	-9.05
203.004	17.58
203.223	95.4
203.442	29.87
203.661	-25.43
203.879	160.94
204.098	62.63
204.317	-13.14
204.536	74.92
204.755	64.68
204.974	-2.9
205.193	79.02
205.411	-0.85
205.63	74.92
205.849	29.87
206.068	36.01
206.287	103.59
206.505	3.24
206.724	7.34
206.943	11.43
207.162	46.25
207.381	27.82
207.599	44.2
207.818	54.44
208.037	68.78
208.255	46.25
208.474	76.97
208.693	3.24
208.911	58.54
209.13	-47.96
209.349	-4.95
209.567	81.07
209.786	40.11
210.005	-4.95
210.223	56.49
210.442	70.83
210.661	19.63
210.879	42.15
211.098	13.48
211.316	81.07
211.535	13.48
211.753	40.11
211.972	89.26
212.191	46.25
212.409	101.55
212.628	31.91
212.846	-0.85
213.065	36.01
213.283	93.35
213.502	-0.85
213.72	89.26
213.938	33.96
214.157	40.11
214.375	79.02
214.594	48.3
214.812	44.2
215.031	68.78
215.249	-37.72
215.467	89.26
215.686	64.68
215.904	103.59
216.122	23.72
216.341	101.55
216.559	72.87
216.778	42.15
216.996	87.21
217.214	91.31
217.432	50.35
217.651	87.21
217.869	85.16
218.087	11.43
218.306	52.39
218.524	93.35
218.742	105.64
218.96	17.58
219.179	-0.85
219.397	64.68
219.615	19.63
219.833	38.06
220.051	-4.95
220.27	29.87
220.488	40.11
220.706	50.35
220.924	-2.9
221.142	23.72
221.36	1.19
221.578	103.59
221.796	68.78
222.015	33.96
222.233	13.48
222.451	97.45
222.669	5.29
222.887	33.96
223.105	-2.9
223.323	-31.57
223.541	-2.9
223.759	5.29
223.977	44.2
224.195	115.88
224.413	3.24
224.631	91.31
224.849	64.68
225.067	3.24
225.285	-2.9
225.503	46.25
225.721	13.48
225.939	11.43
226.157	48.3
226.375	97.45
226.592	62.63
226.81	48.3
227.028	31.91
227.246	23.72
227.464	48.3
227.682	19.63
227.9	11.43
228.117	64.68
228.335	62.63
228.553	101.55
228.771	62.63
228.989	40.11
229.206	56.49
229.424	72.87
229.642	31.91
229.86	54.44
230.077	150.7
230.295	103.59
230.513	83.11
230.731	36.01
230.948	-19.29
231.166	72.87
231.384	89.26
231.601	115.88
231.819	48.3
232.037	15.53
232.254	52.39
232.472	111.78
232.689	44.2
232.907	105.64
233.125	54.44
233.342	66.73
233.56	-15.19
233.777	-4.95
233.995	44.2
234.213	25.77
234.43	23.72
234.648	109.74
234.865	27.82
235.083	72.87
235.3	54.44
235.518	70.83
235.735	79.02
235.953	36.01
236.17	66.73
236.388	29.87
236.605	142.5
236.822	66.73
237.04	48.3
237.257	54.44
237.475	48.3
237.692	87.21
237.909	17.58
238.127	68.78
238.344	27.82
238.562	58.54
238.779	-25.43
238.996	36.01
239.214	60.59
239.431	81.07
239.648	48.3
239.865	42.15
240.083	105.64
240.3	46.25
240.517	68.78
240.735	48.3
240.952	42.15
241.169	87.21
241.386	-27.48
241.603	54.44
241.821	50.35
242.038	122.02
242.255	9.39
242.472	66.73
242.689	15.53
242.907	91.31
243.124	5.29
243.341	99.5
243.558	42.15
243.775	60.59
243.992	-45.91
244.209	27.82
244.426	31.91
244.643	25.77
244.86	42.15
245.078	89.26
245.295	36.01
245.512	40.11
245.729	-45.91
245.946	62.63
246.163	101.55
246.38	68.78
246.597	15.53
246.814	91.31
247.031	-4.95
247.248	101.55
247.464	93.35
247.681	-35.67
247.898	15.53
248.115	33.96
248.332	58.54
248.549	97.45
248.766	107.69
248.983	29.87
249.2	70.83
249.417	60.59
249.633	54.44
249.85	87.21
250.067	38.06
250.284	19.63
250.501	74.92
250.717	31.91
250.934	9.39
251.151	62.63
251.368	62.63
251.585	-2.9
251.801	56.49
252.018	44.2
252.235	44.2
252.451	56.49
252.668	11.43
252.885	38.06
253.102	17.58
253.318	56.49
253.535	99.5
253.752	11.43
253.968	72.87
254.185	87.21
254.401	31.91
254.618	95.4
254.835	1.19
255.051	38.06
255.268	79.02
255.484	76.97
255.701	62.63
255.917	56.49
256.134	38.06
256.351	50.35
256.567	66.73
256.784	97.45
257	-11.09
257.217	62.63
257.433	33.96
257.65	25.77
257.866	23.72
258.082	-31.57
258.299	56.49
258.515	31.91
258.732	21.67
258.948	42.15
259.165	11.43
259.381	56.49
259.597	9.39
259.814	23.72
260.03	36.01
260.246	54.44
260.463	54.44
260.679	64.68
260.895	-19.29
261.112	-0.85
261.328	-72.53
261.544	44.2
261.761	7.34
261.977	-35.67
262.193	60.59
262.409	29.87
262.626	36.01
262.842	52.39
263.058	19.63
263.274	85.16
263.49	101.55
263.707	60.59
263.923	31.91
264.139	89.26
264.355	-0.85
264.571	128.17
264.787	68.78
265.004	62.63
265.22	15.53
265.436	91.31
265.652	19.63
265.868	40.11
266.084	64.68
266.3	27.82
266.516	46.25
266.732	38.06
266.948	17.58
267.164	64.68
267.38	9.39
267.596	62.63
267.812	54.44
268.028	40.11
268.244	52.39
268.46	1.19
268.676	-29.52
268.892	50.35
269.108	25.77
269.324	-13.14
269.54	40.11
269.756	89.26
269.972	-11.09
270.188	3.24
270.403	17.58
270.619	-45.91
270.835	9.39
271.051	-35.67
271.267	48.3
271.483	-0.85
271.698	54.44
271.914	115.88
272.13	40.11
272.346	74.92
272.562	-17.24
272.777	36.01
272.993	58.54
273.209	29.87
273.425	64.68
273.64	33.96
273.856	-17.24
274.072	64.68
274.287	56.49
274.503	52.39
274.719	52.39
274.934	23.72
275.15	46.25
275.366	15.53
275.581	62.63
275.797	52.39
276.012	85.16
276.228	46.25
276.444	-0.85
276.659	-17.24
276.875	40.11
277.09	40.11
277.306	44.2
277.521	89.26
277.737	31.91
277.952	48.3
278.168	56.49
278.383	113.83
278.599	50.35
278.814	-23.38
279.03	17.58
279.245	81.07
279.461	76.97
279.676	60.59
279.892	36.01
280.107	97.45
280.322	-33.62
280.538	83.11
280.753	56.49
280.969	-0.85
281.184	50.35
281.399	89.26
281.615	-58.2
281.83	36.01
282.045	-4.95
282.26	-39.76
282.476	52.39
282.691	62.63
282.906	42.15
283.122	48.3
283.337	93.35
283.552	64.68
283.767	64.68
283.983	50.35
284.198	40.11
284.413	15.53
284.628	64.68
284.843	19.63
285.058	31.91
285.274	31.91
285.489	146.6
285.704	38.06
285.919	33.96
286.134	81.07
286.349	58.54
286.564	54.44
286.779	142.5
286.995	70.83
287.21	48.3
287.425	60.59
287.64	72.87
287.855	83.11
288.07	-54.1
288.285	89.26
288.5	111.78
288.715	38.06
288.93	-7
289.145	117.93
289.36	33.96
289.575	15.53
289.79	46.25
290.004	117.93
290.219	97.45
290.434	64.68
290.649	62.63
290.864	31.91
291.079	70.83
291.294	38.06
291.509	46.25
291.724	76.97
291.938	48.3
292.153	97.45
292.368	81.07
292.583	7.34
292.798	89.26
293.012	-11.09
293.227	27.82
293.442	23.72
293.657	31.91
293.871	29.87
294.086	56.49
294.301	103.59
294.516	68.78
294.73	175.27
294.945	27.82
295.16	11.43
295.374	72.87
295.589	52.39
295.804	33.96
296.018	29.87
296.233	3.24
296.447	56.49
296.662	5.29
296.877	81.07
297.091	25.77
297.306	-4.95
297.52	31.91
297.735	93.35
297.949	72.87
298.164	113.83
298.378	68.78
298.593	60.59
298.807	36.01
299.022	25.77
299.236	56.49
299.451	60.59
299.665	-2.9
299.88	29.87
300.094	27.82
300.309	93.35
300.523	99.5
300.737	87.21
300.952	87.21
301.166	7.34
301.381	95.4
301.595	31.91
301.809	40.11
302.024	89.26
302.238	60.59
302.452	40.11
302.667	23.72
302.881	93.35
303.095	115.88
303.309	3.24
303.524	70.83
303.738	46.25
303.952	128.17
304.166	89.26
304.381	48.3
304.595	72.87
304.809	60.59
305.023	111.78
305.237	68.78
305.452	105.64
305.666	60.59
305.88	62.63
306.094	101.55
306.308	11.43
306.522	119.98
306.736	25.77
306.95	15.53
307.164	105.64
307.379	38.06
307.593	85.16
307.807	87.21
308.021	54.44
308.235	128.17
308.449	7.34
308.663	60.59
308.877	52.39
309.091	52.39
309.305	60.59
309.519	7.34
309.733	119.98
309.947	7.34
310.161	76.97
310.374	44.2
310.588	81.07
310.802	-2.9
311.016	81.07
311.23	81.07
311.444	19.63
311.658	83.11
311.872	105.64
312.085	56.49
312.299	83.11
312.513	95.4
312.727	13.48
312.941	-29.52
313.154	117.93
313.368	19.63
313.582	76.97
313.796	54.44
314.009	33.96
314.223	68.78
314.437	87.21
314.651	36.01
314.864	38.06
315.078	97.45
315.292	23.72
315.505	48.3
315.719	42.15
315.933	36.01
316.146	-0.85
316.36	58.54
316.573	38.06
316.787	142.5
317.001	31.91
317.214	42.15
317.428	23.72
317.641	11.43
317.855	81.07
318.068	38.06
318.282	128.17
318.495	72.87
318.709	126.12
318.922	25.77
319.136	29.87
319.349	21.67
319.563	19.63
319.776	72.87
319.99	91.31
320.203	76.97
320.417	83.11
320.63	126.12
320.843	140.46
321.057	76.97
321.27	97.45
321.483	101.55
321.697	64.68
321.91	11.43
322.124	101.55
322.337	64.68
322.55	64.68
322.763	7.34
322.977	40.11
323.19	58.54
323.403	91.31
323.617	56.49
323.83	60.59
324.043	25.77
324.256	29.87
324.469	40.11
324.683	107.69
324.896	128.17
325.109	95.4
325.322	54.44
325.535	85.16
325.748	36.01
325.962	-29.52
326.175	72.87
326.388	25.77
326.601	68.78
326.814	40.11
327.027	72.87
327.24	48.3
327.453	19.63
327.666	50.35
327.879	3.24
328.092	103.59
328.305	38.06
328.518	29.87
328.731	72.87
328.944	99.5
329.157	99.5
329.37	81.07
329.583	91.31
329.796	117.93
330.009	42.15
330.222	44.2
330.435	70.83
330.648	87.21
330.861	105.64
331.073	64.68
331.286	101.55
331.499	58.54
331.712	48.3
331.925	113.83
332.138	40.11
332.35	19.63
332.563	81.07
332.776	79.02
332.989	85.16
333.202	31.91
333.414	38.06
333.627	48.3
333.84	29.87
334.053	105.64
334.265	85.16
334.478	44.2
334.691	19.63
334.903	21.67
335.116	17.58
335.329	29.87
335.541	70.83
335.754	64.68
335.966	-2.9
336.179	60.59
336.392	58.54
336.604	11.43
336.817	50.35
337.029	42.15
337.242	103.59
337.454	76.97
337.667	124.07
337.88	95.4
338.092	72.87
338.305	122.02
338.517	95.4
338.729	29.87
338.942	19.63
339.154	81.07
339.367	68.78
339.579	50.35
339.792	-11.09
340.004	42.15
340.217	79.02
340.429	76.97
340.641	107.69
340.854	62.63
341.066	33.96
341.278	48.3
341.491	72.87
341.703	66.73
341.915	31.91
342.128	85.16
342.34	40.11
342.552	15.53
342.764	115.88
342.977	38.06
343.189	70.83
343.401	72.87
343.613	40.11
343.826	109.74
344.038	7.34
344.25	33.96
344.462	38.06
344.674	58.54
344.886	79.02
345.099	85.16
345.311	115.88
345.523	68.78
345.735	31.91
345.947	62.63
346.159	-13.14
346.371	42.15
346.583	-11.09
346.795	169.13
347.007	9.39
347.219	56.49
347.431	-64.34
347.643	95.4
347.855	38.06
348.067	60.59
348.279	-9.05
348.491	38.06
348.703	46.25
348.915	56.49
349.127	-35.67
349.339	36.01
349.551	48.3
349.763	103.59
349.975	72.87
350.187	93.35
350.399	79.02
350.61	66.73
350.822	62.63
351.034	5.29
351.246	87.21
351.458	42.15
351.669	124.07
351.881	64.68
352.093	85.16
352.305	79.02
352.517	48.3
352.728	48.3
352.94	54.44
353.152	66.73
353.363	97.45
353.575	42.15
353.787	5.29
353.999	62.63
354.21	136.36
354.422	48.3
354.633	46.25
354.845	81.07
355.057	40.11
355.268	74.92
355.48	60.59
355.692	68.78
355.903	70.83
356.115	89.26
356.326	54.44
356.538	15.53
356.749	54.44
356.961	177.32
357.172	62.63
357.384	87.21
357.595	74.92
357.807	23.72
358.018	44.2
358.23	107.69
358.441	68.78
358.653	115.88
358.864	91.31
359.075	46.25
359.287	11.43
359.498	76.97
359.709	-21.33
359.921	62.63
360.132	58.54
360.344	134.31
360.555	79.02
360.766	44.2
360.977	27.82
361.189	105.64
361.4	13.48
361.611	111.78
361.823	97.45
362.034	62.63
362.245	126.12
362.456	99.5
362.667	9.39
362.879	72.87
363.09	97.45
363.301	85.16
363.512	70.83
363.723	11.43
363.935	60.59
364.146	93.35
364.357	89.26
364.568	119.98
364.779	31.91
364.99	25.77
365.201	5.29
365.412	72.87
365.623	91.31
365.834	115.88
366.045	97.45
366.256	23.72
366.467	70.83
366.678	-0.85
366.889	76.97
367.1	91.31
367.311	64.68
367.522	48.3
367.733	79.02
367.944	119.98
368.155	68.78
368.366	132.26
368.577	36.01
368.788	105.64
368.999	-15.19
369.209	68.78
369.42	64.68
369.631	81.07
369.842	64.68
370.053	40.11
370.264	146.6
370.474	83.11
370.685	56.49
370.896	60.59
371.107	79.02
371.317	72.87
371.528	48.3
371.739	76.97
371.95	25.77
372.16	91.31
372.371	17.58
372.582	56.49
372.792	27.82
373.003	38.06
373.214	91.31
373.424	93.35
373.635	64.68
373.846	62.63
374.056	91.31
374.267	64.68
374.477	40.11
374.688	87.21
374.898	87.21
375.109	115.88
375.319	56.49
375.53	132.26
375.74	128.17
375.951	81.07
376.161	38.06
376.372	130.22
376.582	130.22
376.793	72.87
377.003	126.12
377.214	21.67
377.424	38.06
377.635	60.59
377.845	122.02
378.055	79.02
378.266	111.78
378.476	76.97
378.686	40.11
378.897	152.74
379.107	156.84
379.317	79.02
379.528	64.68
379.738	89.26
379.948	93.35
380.158	72.87
380.369	23.72
380.579	138.41
380.789	52.39
380.999	140.46
381.21	29.87
381.42	124.07
381.63	72.87
381.84	101.55
382.05	103.59
382.261	60.59
382.471	140.46
382.681	99.5
382.891	101.55
383.101	128.17
383.311	105.64
383.521	76.97
383.731	126.12
383.941	134.31
384.151	66.73
384.361	136.36
384.571	97.45
384.781	89.26
384.991	101.55
385.201	99.5
385.411	48.3
385.621	72.87
385.831	7.34
386.041	54.44
386.251	52.39
386.461	126.12
386.671	38.06
386.881	83.11
387.091	27.82
387.301	58.54
387.511	89.26
387.72	83.11
387.93	93.35
388.14	95.4
388.35	74.92
388.56	105.64
388.769	107.69
388.979	56.49
389.189	56.49
389.399	109.74
389.609	58.54
389.818	107.69
390.028	140.46
390.238	124.07
390.447	36.01
390.657	40.11
390.867	89.26
391.076	138.41
391.286	44.2
391.496	136.36
391.705	70.83
391.915	66.73
392.125	101.55
392.334	113.83
392.544	56.49
392.753	130.22
392.963	70.83
393.172	122.02
393.382	56.49
393.591	93.35
393.801	85.16
394.01	160.94
394.22	195.75
394.429	99.5
394.639	97.45
394.848	154.79
395.058	134.31
395.267	142.5
395.477	111.78
395.686	111.78
395.895	179.37
396.105	142.5
396.314	81.07
396.524	109.74
396.733	154.79
396.942	68.78
397.152	31.91
397.361	117.93
397.57	124.07
397.78	91.31
397.989	115.88
398.198	175.27
398.407	111.78
398.617	101.55
398.826	162.98
399.035	138.41
399.244	201.9
399.453	126.12
399.663	126.12
399.872	234.66
400.081	146.6
400.29	156.84
400.499	134.31
400.708	132.26
400.917	165.03
401.127	140.46
401.336	185.51
401.545	144.55
401.754	103.59
401.963	148.65
402.172	189.61
402.381	142.5
402.59	122.02
402.799	128.17
403.008	203.94
403.217	191.66
403.426	140.46
403.635	124.07
403.844	173.22
404.053	171.18
404.262	187.56
404.471	232.62
404.68	179.37
404.888	246.95
405.097	169.13
405.306	150.7
405.515	167.08
405.724	224.42
405.933	203.94
406.142	242.85
406.35	189.61
406.559	244.9
406.768	249
406.977	220.33
407.185	259.24
407.394	205.99
407.603	167.08
407.812	267.43
408.02	253.09
408.229	294.05
408.438	283.81
408.646	218.28
408.855	261.29
409.064	330.92
409.272	246.95
409.481	361.64
409.69	285.86
409.898	341.16
410.107	324.77
410.315	359.59
410.524	353.45
410.733	396.45
410.941	412.84
411.15	386.21
411.358	488.61
411.567	474.28
411.775	511.14
411.984	453.8
412.192	480.42
412.401	511.14
412.609	541.86
412.818	584.87
413.026	560.29
413.234	556.19
413.443	611.49
413.651	650.4
413.86	603.3
414.068	760.99
414.276	724.13
414.485	685.22
414.693	783.52
414.901	789.66
415.11	787.61
415.318	711.84
415.526	853.15
415.734	943.26
415.943	941.21
416.151	949.4
416.359	869.53
416.567	990.36
416.776	1004.7
416.984	1143.96
417.192	1146.01
417.4	1137.82
417.608	1090.71
417.817	1076.38
418.025	1283.22
418.233	1311.89
418.441	1330.33
418.649	1307.8
418.857	1352.85
419.065	1522.84
419.273	1408.15
419.481	1514.64
419.689	1705.1
419.897	1688.72
420.105	1735.82
420.313	1727.63
420.521	1848.46
420.729	1897.61
420.937	1967.24
421.145	2000.01
421.353	2059.4
421.561	2137.23
421.769	2200.71
421.977	2387.08
422.185	2301.06
422.393	2399.37
422.601	2784.38
422.809	2585.73
423.017	2686.08
423.224	2786.43
423.432	2739.33
423.64	2886.78
423.848	3153.02
424.056	3030.14
424.263	3198.07
424.471	3196.03
424.679	3343.48
424.887	3554.42
425.094	3628.15
425.302	3535.99
425.51	3673.2
425.718	3785.84
425.925	3839.09
426.133	3929.2
426.341	4306.02
426.548	4441.19
426.756	4529.25
426.964	4480.1
427.171	4744.29
427.379	4887.65
427.586	4955.23
427.794	5012.57
428.001	5364.82
428.209	5563.48
428.417	5534.81
428.624	5882.96
428.832	5823.57
429.039	5792.85
429.247	5880.91
429.454	6450.25
429.662	6784.07
429.869	6321.23
430.076	6849.6
430.284	6648.9
430.491	6929.47
430.699	7228.48
430.906	7285.82
431.114	7453.75
431.321	7676.98
431.528	7861.3
431.736	8395.82
431.943	8717.35
432.15	8492.07
432.358	8520.74
432.565	9063.46
432.772	8959.01
432.979	9436.19
433.187	9509.91
433.394	9747.48
433.601	10447.88
433.808	10478.6
434.016	10259.47
434.223	10740.74
434.43	11295.74
434.637	11107.33
434.844	11965.43
435.052	12186.61
435.259	12024.82
435.466	12221.42
435.673	12024.82
435.88	12966.88
436.087	13304.8
436.294	13534.17
436.501	13241.31
436.708	13454.3
436.915	13847.51
437.122	14683.08
437.329	14728.14
437.537	15123.4
437.743	15276.99
437.95	15078.34
438.157	15924.15
438.364	16462.77
438.571	16395.18
438.778	16423.86
438.985	18099.09
439.192	17355.68
439.399	17976.22
439.606	17554.33
439.813	18289.56
440.02	19454.85
440.227	18998.15
440.433	19094.41
440.64	19821.44
440.847	19772.28
441.054	20104.06
441.261	21642.08
441.467	21175.14
441.674	21494.63
441.881	22336.34
442.088	22412.12
442.294	22023
442.501	22872.91
442.708	23466.82
442.914	24218.43
443.121	25277.22
443.328	24687.41
443.534	26137.37
443.741	25461.54
443.948	24888.11
444.154	27312.91
444.361	26841.87
444.568	27112.2
444.774	27007.76
444.981	27415.3
445.187	28171
445.394	29352.68
445.6	29342.44
445.807	32008.9
446.013	30778.07
446.22	31081.17
446.426	32172.74
446.633	32547.51
446.839	33917.61
447.046	32236.22
447.252	34103.97
447.459	34474.65
447.665	33757.86
447.871	35302.03
448.078	37010.04
448.284	35537.55
448.491	36614.78
448.697	37827.18
448.903	38890.07
449.11	38412.9
449.316	37956.2
449.522	38767.2
449.728	40237.64
449.935	39846.47
450.141	39961.16
450.347	40948.28
450.553	39776.84
450.76	40168.01
450.966	41660.97
451.172	41187.89
451.378	42248.74
451.584	41173.56
451.791	42191.4
451.997	42215.97
452.203	42928.67
452.409	42795.55
452.615	43035.16
452.821	41413.17
453.027	41138.74
453.233	43364.88
453.44	41212.47
453.646	41882.16
453.852	41935.4
454.058	43010.59
454.264	41323.06
454.47	42172.97
454.676	41159.22
454.882	42566.18
455.088	39440.98
455.294	39305.81
455.5	40323.65
455.705	40686.14
455.911	39172.69
456.117	38355.55
456.323	37585.52
456.529	35685
456.735	37835.37
456.941	36547.2
457.147	35785.35
457.352	34300.58
457.558	34202.27
457.764	34282.14
457.97	33966.76
458.176	33141.42
458.381	33059.51
458.587	31713.99
458.793	31267.53
458.999	29825.76
459.204	31994.56
459.41	31308.49
459.616	28791.54
459.821	29272.81
460.027	29045.49
460.233	28510.97
460.438	26977.04
460.644	27573
460.85	25955.1
461.055	25701.15
461.261	25895.71
461.466	23634.75
461.672	23053.13
461.878	25121.58
462.083	22821.71
462.289	22578
462.494	22442.84
462.7	21400.42
462.905	20835.18
463.111	21754.72
463.316	21576.55
463.522	21138.28
463.727	21439.33
463.932	21117.8
464.138	21226.34
464.343	20978.54
464.549	20683.63
464.754	20872.04
464.959	20632.43
465.165	20947.82
465.37	20007.8
465.575	19678.08
465.781	20188.02
465.986	19954.55
466.191	19604.35
466.397	19315.59
466.602	18355.09
466.807	19069.83
467.012	19090.31
467.218	18832.27
467.423	18449.3
467.628	18674.57
467.833	19573.63
468.038	18883.47
468.244	18361.23
468.449	18926.47
468.654	18391.95
468.859	18273.17
469.064	18258.84
469.269	17593.25
469.474	17560.48
469.679	18002.84
469.885	17615.77
470.09	17521.57
470.295	17666.97
470.5	17185.7
470.705	17161.12
470.91	16741.29
471.115	16651.18
471.32	17021.86
471.525	16835.5
471.73	16343.99
471.935	16294.83
472.139	16004.02
472.344	15887.29
472.549	15520.7
472.754	15690.68
472.959	15406.02
473.164	15053.76
473.369	14908.36
473.574	15395.78
473.778	15270.85
473.983	15100.87
474.188	15184.83
474.393	14433.23
474.598	14539.72
474.802	14367.7
475.007	14318.54
475.212	14232.53
475.417	13628.38
475.621	13872.09
475.826	13673.43
476.031	13671.39
476.235	13376.48
476.44	13376.48
476.645	12899.3
476.849	13304.8
477.054	12852.2
477.259	12813.29
477.463	12956.64
477.668	12379.12
477.872	12770.28
478.077	12485.61
478.282	12360.69
478.486	12205.04
478.691	12196.85
478.895	12162.03
479.1	12127.22
479.304	12166.13
479.509	11705.34
479.713	12069.87
479.918	11463.68
480.122	11531.26
480.326	11793.4
480.531	11459.58
480.735	11244.54
480.94	11312.13
481.144	11584.51
481.348	11152.38
481.553	11381.76
481.757	10947.59
481.961	11336.7
482.166	11328.51
482.37	11254.78
482.574	10963.97
482.778	11168.77
482.983	11334.65
483.187	11252.73
483.391	11215.87
483.595	11238.4
483.8	11060.23
484.004	11222.02
484.208	11285.5
484.412	10988.55
484.616	11074.56
484.821	11230.21
485.025	10947.59
485.229	11193.34
485.433	11201.54
485.637	11226.11
485.841	10920.96
486.045	10951.68
486.249	11107.33
486.453	11115.52
486.657	11226.11
486.861	11219.97
487.065	10955.78
487.269	11351.04
487.473	11090.95
487.677	11144.19
487.881	11258.88
488.085	11342.85
488.289	11131.9
488.493	11068.42
488.697	11557.88
488.901	11326.46
489.105	11209.73
489.309	11279.36
489.512	11258.88
489.716	11320.32
489.92	11365.37
490.124	11285.5
490.328	11662.33
490.531	11369.47
490.735	11678.71
490.939	11508.73
491.143	11543.55
491.346	11267.07
491.55	11576.31
491.754	11826.17
491.958	11785.21
492.161	11684.86
492.365	11811.83
492.569	11672.57
492.772	11953.14
492.976	12131.31
493.18	11975.67
493.383	12098.55
493.587	12178.42
493.79	12465.13
493.994	12170.22
494.197	12266.48
494.401	12790.76
494.605	12592.11
494.808	12645.35
495.012	12874.73
495.215	13007.84
495.419	13040.61
495.622	12876.77
495.825	13214.69
496.029	13020.13
496.232	13286.37
496.436	13534.17
496.639	13642.71
496.843	13646.81
497.046	14003.16
497.249	14021.59
497.453	14115.8
497.656	14529.48
497.859	14513.1
498.063	14427.09
498.266	14801.86
498.469	14760.91
498.673	14996.42
498.876	14887.88
499.079	15320
499.282	15324.1
499.485	15762.36
499.689	15639.48
499.892	15813.56
500.095	16075.7
500.298	16405.42
500.501	16118.71
500.705	16802.73
500.908	17023.91
501.111	17116.07
501.314	17238.95
501.517	17623.97
501.72	17879.96
501.923	17736.6
502.126	18125.72
502.329	18383.76
502.532	18604.94
502.735	18631.57
502.938	18891.66
503.141	19051.4
503.344	19291.01
503.547	19182.47
503.75	19700.61
503.953	20157.3
504.156	19909.5
504.359	20300.66
504.562	20607.86
504.765	20994.92
504.968	20863.85
505.17	21386.08
505.373	21474.15
505.576	21740.38
505.779	21691.23
505.982	21990.24
506.185	22315.86
506.387	22594.39
506.59	22561.62
506.793	23040.84
506.996	23034.7
507.198	23808.83
507.401	23929.66
507.604	23972.67
507.807	24587.06
508.009	24773.42
508.212	24560.44
508.415	25289.51
508.617	25584.42
508.82	25623.33
509.022	25611.04
509.225	26393.37
509.428	26202.91
509.63	26667.8
509.833	26954.51
510.035	27538.18
510.238	27407.11
510.44	27734.79
510.643	27947.78
510.845	28353.27
511.048	28134.14
511.25	28441.34
511.453	28943.09
511.655	29967.07
511.858	29276.91
512.06	29770.47
512.262	30089.95
512.465	29979.36
512.667	31017.68
512.87	30864.08
513.072	30784.21
513.274	31611.59
513.477	31888.07
513.679	32285.37
513.881	32221.89
514.084	32647.86
514.286	32770.74
514.488	33176.24
514.69	34083.49
514.893	33548.97
515.095	34087.59
515.297	34267.81
515.499	34849.43
515.701	34964.12
515.904	35443.34
516.106	35426.96
516.308	36053.64
516.51	35734.15
516.712	36274.82
516.914	36414.08
517.116	37245.55
517.318	37309.04
517.52	37741.16
517.722	37876.33
517.925	37966.44
518.127	38402.66
518.329	38689.37
518.531	38091.37
518.733	39379.54
518.935	39324.24
519.136	39639.63
519.338	40159.81
519.54	40421.95
519.742	40583.74
519.944	41058.87
520.146	41552.43
520.348	41550.38
520.55	41927.21
520.752	42000.94
520.954	42816.03
521.155	42459.68
521.357	42461.73
521.559	43233.81
521.761	43813.39
521.963	43416.08
522.164	43690.51
522.366	44042.76
522.568	44376.58
522.77	44478.98
522.971	44861.95
523.173	44698.11
523.375	44896.77
523.576	45363.7
523.778	45613.55
523.98	46285.29
524.181	46152.17
524.383	46283.24
524.584	46672.35
524.786	46936.54
524.988	46653.92
525.189	47260.12
525.391	47712.72
525.592	47555.03
525.794	47958.48
525.995	48017.87
526.197	47737.3
526.398	47942.1
526.6	48062.93
526.801	48366.02
527.003	48714.18
527.204	48388.55
527.406	49256.89
527.607	49078.72
527.808	49293.75
528.01	48767.43
528.211	48914.88
528.412	50078.13
528.614	49426.87
528.815	49709.49
529.016	50366.89
529.218	50028.98
529.419	49914.29
529.62	50063.79
529.822	50104.75
530.023	50239.92
530.224	50420.14
530.425	50311.59
530.626	50391.47
530.828	50063.79
531.029	50846.11
531.23	50043.31
531.431	50168.24
531.632	50131.37
531.833	51159.45
532.035	50536.87
532.236	50307.5
532.437	50913.7
532.638	50459.05
532.839	51360.15
533.04	51036.58
533.241	50653.61
533.442	51190.17
533.643	50934.18
533.844	50561.45
534.045	50786.72
534.246	50532.78
534.447	50889.12
534.648	51143.07
534.849	51106.21
535.05	50493.86
535.251	51091.87
535.451	50842.02
535.652	50956.71
535.853	51091.87
536.054	51366.3
536.255	50987.42
536.456	50801.06
536.657	51560.86
536.857	51040.67
537.058	50592.17
537.259	50893.22
537.46	51347.87
537.66	50823.59
537.861	51065.25
538.062	50647.46
538.263	51251.61
538.463	50831.78
538.664	51009.95
538.865	51132.83
539.065	51169.69
539.266	50661.8
539.466	51478.94
539.667	50532.78
539.868	51437.98
540.068	50893.22
540.269	50594.21
540.469	51374.49
540.67	50987.42
540.87	51210.65
541.071	51085.73
541.271	50995.62
541.472	50790.82
541.672	50581.93
541.873	50518.44
542.073	50028.98
542.274	50915.75
542.474	50725.28
542.675	50426.28
542.875	51175.84
543.075	50758.05
543.276	49988.02
543.476	50938.27
543.676	50815.4
543.877	50350.51
544.077	50770.34
544.277	50659.75
544.478	50708.9
544.678	50520.49
544.878	50422.19
545.078	50487.72
545.279	50686.37
545.479	50448.81
545.679	50487.72
545.879	50389.42
546.079	50375.08
546.28	50532.78
546.48	49922.48
546.68	50913.7
546.88	50528.68
547.08	50504.1
547.28	49932.72
547.48	50108.85
547.68	50129.33
547.88	50033.07
548.081	50557.35
548.281	49938.86
548.481	50207.15
548.681	50225.58
548.881	50315.69
549.081	50704.8
549.28	50160.05
549.48	50092.46
549.68	49676.72
549.88	50665.89
550.08	49635.77
550.28	50299.31
550.48	49922.48
550.68	50487.72
550.88	49787.31
551.08	50340.27
551.279	50213.29
551.479	49555.89
551.679	49459.64
551.879	49398.2
552.079	50602.41
552.278	49729.97
552.478	49947.06
552.678	49971.63
552.878	50047.41
553.077	49420.73
553.277	49277.37
553.477	50250.16
553.676	49596.85
553.876	49922.48
554.076	49478.07
554.275	49496.5
554.475	49121.73
554.674	49473.98
554.874	49789.36
555.074	49555.89
555.273	49211.84
555.473	49750.45
555.672	48910.78
555.872	49080.77
556.071	49045.95
556.271	49582.52
556.47	49117.63
556.67	49078.72
556.869	49189.31
557.068	49369.53
557.268	48718.28
557.467	49056.19
557.667	49334.71
557.866	49209.79
558.065	49002.94
558.265	48427.46
558.464	48269.77
558.663	48812.48
558.863	48132.56
559.062	49201.6
559.261	48234.95
559.461	48720.32
559.66	48169.42
559.859	48880.06
560.058	48245.19
560.258	48611.78
560.457	47933.9
560.656	48425.42
560.855	48169.42
561.054	48087.5
561.253	48019.92
561.453	48325.07
561.652	47866.32
561.851	48132.56
562.05	47835.6
562.249	47663.57
562.448	48572.87
562.647	48280.01
562.846	47632.85
563.045	47677.91
563.244	47704.53
563.443	47940.05
563.642	47153.63
563.841	47481.3
564.04	47014.37
564.239	47753.68
564.438	47272.41
564.637	47612.37
564.836	47460.82
565.035	46895.58
565.234	47206.87
565.432	46916.06
565.631	46684.64
565.83	47229.4
566.029	46967.26
566.228	46580.2
566.427	46621.16
566.625	46690.79
566.824	46385.64
567.023	46496.23
567.222	45722.1
567.42	46926.3
567.619	46801.38
567.818	46219.75
568.016	46129.64
568.215	46408.17
568.414	46182.89
568.612	46469.61
568.811	45865.45
569.01	45996.52
569.208	45474.29
569.407	45779.44
569.605	45601.27
569.804	45885.93
570.002	45214.2
570.201	45371.89
570.4	45277.69
570.598	45134.33
570.797	44898.81
570.995	45265.4
571.193	44702.21
571.392	45230.58
571.59	44646.91
571.789	44583.43
571.987	44343.81
572.186	44708.35
572.384	44452.36
572.582	44399.11
572.781	44771.84
572.979	43780.62
573.177	44540.42
573.376	44511.75
573.574	43901.45
573.772	44261.9
573.971	43893.26
574.169	43504.15
574.367	43303.45
574.565	44257.8
574.763	43598.35
574.962	43426.32
575.16	43239.96
575.358	43622.93
575.556	42900
575.754	43942.41
575.952	42627.62
576.151	43602.45
576.349	42170.92
576.547	42938.91
576.745	43035.16
576.943	42789.41
577.141	42363.43
577.339	42289.7
577.537	42394.15
577.735	42420.77
577.933	42103.34
578.131	42631.71
578.329	42271.27
578.527	41554.48
578.725	41980.46
578.923	41837.1
579.121	41814.57
579.319	41394.74
579.516	41749.04
579.714	41390.64
579.912	40862.27
580.11	41321.01
580.308	41235
580.506	40798.78
580.704	40610.37
580.901	41030.2
581.099	40804.92
581.297	40604.22
581.495	40462.91
581.692	40653.37
581.89	39912.01
582.088	40518.21
582.285	39881.29
582.483	40690.24
582.681	40194.63
582.878	39995.98
583.076	39533.14
583.274	40094.28
583.471	39082.58
583.669	39627.34
583.866	39289.43
584.064	39600.72
584.262	39029.34
584.459	39633.49
584.657	39148.12
584.854	39338.58
585.052	38740.57
585.249	38785.63
585.447	38933.08
585.644	38668.89
585.841	38470.24
586.039	38953.56
586.236	38052.45
586.434	38208.1
586.631	38195.81
586.828	38310.5
587.026	38222.44
587.223	38156.9
587.42	37759.59
587.618	38017.64
587.815	37229.17
588.012	37360.24
588.21	37223.03
588.407	37546.61
588.604	37296.75
588.801	36948.6
588.999	37038.71
589.196	36948.6
589.393	36850.3
589.59	36946.55
589.787	36711.03
589.984	36414.08
590.182	35752.59
590.379	36674.17
590.576	35773.06
590.773	36110.98
590.97	35877.51
591.167	36373.12
591.364	35373.71
591.561	36119.17
591.758	35299.98
591.955	35422.86
592.152	36045.44
592.349	35105.43
592.546	35553.93
592.743	35506.83
592.94	34538.14
593.137	35087
593.334	35123.86
593.531	34433.69
593.727	34800.28
593.924	35048.08
594.121	34149.03
594.318	34538.14
594.515	34247.33
594.712	34349.73
594.908	34409.12
595.105	33948.32
595.302	33723.05
595.499	33815.21
595.696	33733.29
595.892	33610.41
596.089	33745.58
596.286	33598.12
596.482	33340.08
596.679	33587.88
596.876	33376.94
597.072	33071.79
597.269	33356.46
597.466	33039.03
597.662	32887.48
597.859	32563.9
598.055	32578.23
598.252	32545.47
598.448	32393.92
598.645	32201.41
598.841	32127.68
599.038	32346.81
599.234	32041.67
599.431	31722.18
599.627	32197.31
599.824	31935.17
600.02	31605.45
600.217	32088.77
600.413	31306.44
600.609	31695.56
600.806	31267.53
601.002	31486.67
601.198	31009.49
601.395	30970.58
601.591	30956.24
601.787	31005.39
601.984	31019.73
602.18	30937.81
602.376	30632.66
602.572	30644.95
602.769	30388.95
602.965	30278.36
603.161	30739.16
603.357	30096.1
603.553	30042.85
603.75	29836
603.946	30188.25
604.142	30145.25
604.338	29510.38
604.534	29661.93
604.73	29602.53
604.926	29575.91
605.122	29348.59
605.318	29512.42
605.514	29184.75
605.71	28986.1
605.906	29063.92
606.102	28623.61
606.298	29098.73
606.494	28703.48
606.69	28803.83
606.886	28707.57
607.082	28383.99
607.278	28654.33
607.474	28414.71
607.67	28852.98
607.866	27841.28
608.062	28844.79
608.257	28324.6
608.453	28500.73
608.649	28443.38
608.845	28240.64
609.041	28078.85
609.236	28128
609.432	27882.24
609.628	27859.71
609.824	27593.48
610.019	27841.28
610.215	27536.13
610.411	28068.61
610.606	27771.65
610.802	27781.89
610.998	27646.72
611.193	27710.21
611.389	27681.54
611.584	27230.99
611.78	26772.24
611.976	27233.04
612.171	27292.43
612.367	27108.11
612.562	26755.86
612.758	26583.83
612.953	26762
613.149	27042.57
613.344	26651.41
613.539	27222.8
613.735	26669.84
613.93	27015.95
614.126	26671.89
614.321	26784.53
614.517	26712.85
614.712	26665.75
614.907	26444.57
615.103	26442.52
615.298	26317.59
615.493	26374.94
615.688	25948.96
615.884	26845.97
616.079	26069.79
616.274	26217.24
616.47	26032.93
616.665	26170.14
616.86	25543.46
617.055	25891.62
617.25	25893.66
617.445	25783.07
617.641	25168.68
617.836	25803.55
618.031	25439.01
618.226	25715.49
618.421	25103.15
618.616	25473.83
618.811	25074.48
619.006	25488.17
619.201	24574.77
619.396	25230.12
619.591	24814.38
619.786	25215.79
619.981	24374.07
620.176	24585.01
620.371	24261.43
620.566	24542
620.761	24351.54
620.956	24562.48
621.151	23753.54
621.346	24068.92
621.541	23784.26
621.735	23573.31
621.93	23501.64
622.125	23577.41
622.32	23251.78
622.515	23573.31
622.709	23075.66
622.904	23061.32
623.099	23012.17
623.294	22846.29
623.488	22725.46
623.683	22666.06
623.878	22385.49
624.072	22297.43
624.267	22131.54
624.462	22305.62
624.656	21527.39
624.851	21902.17
625.046	21588.83
625.24	21773.15
625.435	21425
625.629	21279.59
625.824	21183.34
626.018	21252.97
626.213	20964.2
626.407	21087.08
626.602	20751.21
626.796	20792.17
626.991	20634.48
627.185	20568.94
627.38	20368.24
627.574	20446.07
627.768	20048.76
627.963	19989.37
628.157	19768.19
628.352	20018.04
628.546	19817.34
628.74	19891.07
628.935	19616.64
629.129	19606.4
629.323	19018.63
629.517	19194.76
629.712	19301.25
629.906	19184.52
630.1	19080.07
630.294	18736.01
630.489	18807.69
630.683	18588.56
630.877	18678.67
631.071	18586.51
631.265	18477.97
631.459	18373.52
631.653	18054.04
631.848	18142.1
632.042	18099.09
632.236	18181.01
632.43	17634.21
632.624	17650.59
632.818	17757.08
633.012	17333.15
633.206	17464.22
633.4	17396.64
633.594	17189.8
633.788	16939.94
633.982	17013.67
634.176	17175.46
634.369	16722.86
634.563	16968.62
634.757	16847.79
634.951	16774.06
635.145	16444.34
635.339	16585.65
635.533	16376.75
635.726	16501.68
635.92	15971.25
636.114	16260.02
636.308	16217.01
636.501	16126.9
636.695	16016.31
636.889	15786.94
637.083	15805.37
637.276	15565.76
637.47	15705.02
637.664	15643.58
637.857	15557.57
638.051	15506.37
638.244	15305.67
638.438	15283.14
638.632	15004.61
638.825	14914.5
639.019	15121.35
639.212	14724.04
639.406	15119.3
639.599	14588.88
639.793	14750.67
639.986	14580.68
640.18	14463.95
640.373	14437.33
640.567	14154.71
640.76	14437.33
640.954	14244.82
641.147	14072.79
641.34	13882.33
641.534	14048.21
641.727	13792.22
641.92	13652.95
642.114	13659.1
642.307	13786.07
642.5	13763.54
642.694	13448.16
642.887	13382.62
643.08	13237.22
643.273	13235.17
643.467	13243.36
643.66	12936.17
643.853	13083.62
644.046	12946.41
644.239	12921.83
644.432	12858.34
644.626	12602.35
644.819	12786.66
645.012	12534.76
645.205	12641.26
645.398	12569.58
645.591	12368.88
645.784	12327.92
645.977	12153.84
646.17	12418.03
646.363	12059.63
646.556	12213.23
646.749	11987.96
646.942	12135.41
647.135	11938.8
647.328	11779.06
647.521	11723.77
647.714	11703.29
647.907	11674.62
648.099	11674.62
648.292	11629.56
648.485	11551.74
648.678	11426.81
648.871	11387.9
649.064	11398.14
649.256	11330.56
649.449	11086.85
649.642	11029.51
649.835	11017.22
650.027	10998.79
650.22	10859.52
650.413	10814.47
650.605	10677.26
650.798	10638.34
650.991	10656.78
651.183	10624.01
651.376	10517.51
651.568	10568.71
651.761	10482.7
651.954	10347.53
652.146	10433.55
652.339	10187.79
652.531	10159.12
652.724	10126.35
652.916	9993.23
653.109	10071.06
653.301	10003.47
653.494	9948.18
653.686	9802.77
653.879	9884.69
654.071	9796.63
654.263	9737.24
654.456	9821.2
654.648	9790.49
654.84	9473.05
655.033	9393.18
655.225	9417.75
655.417	9198.62
655.61	9382.94
655.802	9425.95
655.994	9255.97
656.186	9311.26
656.379	9262.11
656.571	9174.05
656.763	9004.07
656.955	8973.35
657.148	8885.28
657.34	8936.48
657.532	8617
657.724	8784.93
657.916	8766.5
658.108	8684.58
658.3	8571.94
658.492	8600.62
658.684	8582.18
658.876	8412.2
659.068	8324.14
659.26	8457.26
659.452	8393.77
659.644	8356.91
659.836	8115.25
660.028	8297.52
660.22	8135.73
660.412	8320.04
660.604	8076.34
660.796	7887.92
660.988	8053.81
661.18	8078.38
661.372	7781.43
661.563	8023.09
661.755	7773.24
661.947	7918.64
662.139	7578.68
662.331	7613.49
662.522	7511.1
662.714	7636.02
662.906	7654.45
663.097	7367.74
663.289	7351.35
663.481	7429.18
663.673	7447.61
663.864	7212.09
664.056	7294.01
664.247	7189.56
664.439	7138.37
664.631	7224.38
664.822	7099.45
665.014	7076.93
665.205	6888.51
665.397	6876.23
665.588	6937.66
665.78	6927.42
665.971	6734.92
666.163	6900.8
666.354	6698.05
666.546	6792.26
666.737	6640.71
666.929	6718.53
667.12	6544.45
667.311	6734.92
667.503	6491.21
667.694	6558.79
667.885	6376.52
668.077	6390.86
668.268	6304.84
668.459	6300.75
668.651	6382.67
668.842	6474.82
669.033	6290.51
669.224	6093.9
669.416	6247.5
669.607	6243.4
669.798	6110.29
669.989	5938.26
670.18	5934.16
670.371	5854.29
670.563	6089.81
670.754	5995.6
670.945	5860.43
671.136	6014.03
671.327	5905.49
671.518	6011.98
671.709	6026.32
671.9	5932.11
672.091	5897.3
672.282	5880.91
672.473	5776.47
672.664	5680.21
672.855	5753.94
673.046	5798.99
673.237	5684.31
673.428	5698.64
673.619	5663.83
673.809	5612.63
674	5487.7
674.191	5690.45
674.382	5543
674.573	5487.7
674.764	5319.77
674.954	5330.01
675.145	5497.94
675.336	5538.9
675.527	5385.3
675.717	5506.13
675.908	5379.16
676.099	5391.45
676.289	5368.92
676.48	5317.72
676.671	5309.53
676.861	5264.47
677.052	5166.17
677.243	5254.23
677.433	5217.37
677.624	5250.14
677.814	4998.24
678.005	5246.04
678.195	5176.41
678.386	5188.7
678.576	5004.38
678.767	5049.44
678.957	5082.21
679.148	5106.78
679.338	5082.21
679.529	5112.92
679.719	4977.76
679.909	4963.42
680.1	5000.29
680.29	4938.85
680.481	5229.66
680.671	4893.79
680.861	4996.19
681.052	4977.76
681.242	4836.45
681.432	5020.77
681.622	4875.36
681.813	4764.77
682.003	4732
682.193	4861.02
682.383	4885.6
682.573	4887.65
682.764	4805.73
682.954	4867.17
683.144	4811.87
683.334	4701.28
683.524	4865.12
683.714	4734.05
683.904	4828.26
684.094	4807.78
684.284	4785.25
684.474	4625.51
684.664	4729.95
684.854	4762.72
685.044	4797.54
685.234	4564.07
685.424	4750.43
685.614	4652.13
685.804	4715.62
685.994	4736.1
686.184	4813.92
686.374	4588.64
686.564	4504.68
686.753	4476.01
686.943	4578.4
687.133	4566.12
687.323	4531.3
687.513	4387.94
687.702	4381.8
687.892	4424.81
688.082	4482.15
688.272	4512.87
688.461	4455.53
688.651	4357.22
688.841	4398.18
689.03	4308.07
689.22	4312.17
689.41	4238.44
689.599	4293.74
689.789	4232.3
689.979	4236.39
690.168	4301.93
690.358	4306.02
690.547	4199.53
690.737	4267.11
690.926	4097.13
691.116	4095.08
691.305	4254.83
691.495	4101.23
691.684	4111.47
691.874	4078.7
692.063	4193.39
692.252	3941.49
692.442	4125.8
692.631	4043.88
692.82	3970.16
693.01	3869.81
693.199	3988.59
693.388	3814.51
693.578	3878
693.767	3914.86
693.956	4054.12
694.146	3695.73
694.335	3814.51
694.524	3734.64
694.713	3912.81
694.902	3716.21
695.092	3708.02
695.281	3714.16
695.47	3873.9
695.659	3667.06
695.848	3607.67
696.037	3583.09
696.226	3765.36
696.415	3533.94
696.604	3622
696.793	3548.28
696.982	3669.11
697.171	3472.5
697.36	3718.26
697.549	3495.03
697.738	3468.41
697.927	3466.36
698.116	3576.95
698.305	3470.45
698.494	3443.83
698.683	3462.26
698.872	3435.64
699.061	3484.79
699.25	3433.59
699.438	3581.04
699.627	3411.06
699.816	3335.29
700.005	3374.2
700.193	3425.4
700.382	3433.59
700.571	3337.34
700.76	3366.01
700.948	3255.42
701.137	3232.89
701.326	3400.82
701.514	3165.31
701.703	3329.14
701.892	3228.79
702.08	3210.36
702.269	3150.97
702.457	3185.79
702.646	3222.65
702.834	3081.34
703.023	3214.46
703.212	3253.37
703.4	3177.59
703.589	3157.11
703.777	3112.06
703.965	3032.19
704.154	3167.35
704.342	3050.62
704.531	3050.62
704.719	2851.97
704.907	2980.99
705.096	3013.76
705.284	2944.13
705.472	2952.32
705.661	3021.95
705.849	3067
706.037	3085.44
706.226	2976.89
706.414	2888.83
706.602	2929.79
706.79	2925.69
706.979	3105.92
707.167	2968.7
707.355	2970.75
707.543	2880.64
707.731	3003.52
707.919	2927.74
708.107	2880.64
708.296	2903.17
708.484	2831.49
708.672	2970.75
708.86	2872.45
709.048	2925.69
709.236	2776.19
709.424	2890.88
709.612	2866.3
709.8	2925.69
709.988	2761.86
710.176	2749.57
710.364	2821.25
710.551	2851.97
710.739	2854.02
710.927	2856.06
711.115	2835.58
711.303	2911.36
711.491	2800.77
711.679	2786.43
711.866	2718.85
712.054	2829.44
712.242	2851.97
712.43	2735.23
712.617	2737.28
712.805	2712.71
712.993	2743.42
713.181	2653.31
713.368	2667.65
713.556	2825.34
713.744	2641.03
713.931	2804.86
714.119	2722.95
714.306	2837.63
714.494	2706.56
714.682	2854.02
714.869	2616.45
715.057	2686.08
715.244	2684.03
715.432	2749.57
715.619	2710.66
715.807	2813.06
715.994	2720.9
716.182	2655.36
716.369	2708.61
716.556	2796.67
716.744	2569.35
716.931	2849.92
717.119	2696.32
717.306	2755.71
717.493	2561.16
717.681	2643.07
717.868	2686.08
718.055	2509.96
718.242	2653.31
718.43	2622.59
718.617	2565.25
718.804	2641.03
718.991	2591.88
719.179	2595.97
719.366	2645.12
719.553	2843.78
719.74	2643.07
719.927	2608.26
720.114	2657.41
720.301	2604.16
720.488	2518.15
720.676	2616.45
720.863	2538.63
721.05	2690.18
721.237	2626.69
721.424	2649.22
721.611	2690.18
721.798	2653.31
721.985	2565.25
722.172	2528.39
722.358	2526.34
722.545	2620.55
722.732	2595.97
722.919	2585.73
723.106	2469
723.293	2577.54
723.48	2452.61
723.667	2520.2
723.853	2483.33
724.04	2643.07
724.227	2509.96
724.414	2593.92
724.6	2401.41
724.787	2591.88
724.974	2503.81
725.161	2585.73
725.347	2532.48
725.534	2438.28
725.72	2534.53
725.907	2479.24
726.094	2571.4
726.28	2524.29
726.467	2512
726.653	2555.01
726.84	2593.92
727.027	2555.01
727.213	2469
727.4	2555.01
727.586	2509.96
727.773	2538.63
727.959	2505.86
728.145	2548.87
728.332	2530.44
728.518	2524.29
728.705	2569.35
728.891	2520.2
729.077	2512
729.264	2487.43
729.45	2499.72
729.636	2454.66
729.823	2354.31
730.009	2530.44
730.195	2417.8
730.382	2643.07
730.568	2534.53
730.754	2530.44
730.94	2538.63
731.126	2546.82
731.313	2567.3
731.499	2378.89
731.685	2524.29
731.871	2491.52
732.057	2505.86
732.243	2442.37
732.429	2491.52
732.615	2448.52
732.801	2460.81
732.987	2505.86
733.173	2430.09
733.359	2376.84
733.545	2464.9
733.731	2495.62
733.917	2501.76
734.103	2563.2
734.289	2342.02
734.475	2450.57
734.661	2423.94
734.847	2514.05
735.033	2434.18
735.219	2337.93
735.404	2446.47
735.59	2440.33
735.776	2387.08
735.962	2425.99
736.148	2313.35
736.333	2339.97
736.519	2444.42
736.705	2387.08
736.89	2421.89
737.076	2331.78
737.262	2344.07
737.447	2444.42
737.633	2428.04
737.819	2370.69
738.004	2358.41
738.19	2309.26
738.375	2442.37
738.561	2288.78
738.747	2305.16
738.932	2366.6
739.118	2307.21
739.303	2296.97
739.489	2464.9
739.674	2139.27
739.859	2346.12
740.045	2235.53
740.23	2290.82
740.416	2231.43
740.601	2319.5
740.786	2299.02
740.972	2190.47
741.157	2190.47
741.342	2233.48
741.528	2159.75
741.713	2243.72
741.898	2274.44
742.084	2217.1
742.269	2196.62
742.454	2247.82
742.639	2202.76
742.824	2227.34
743.01	2204.81
743.195	2174.09
743.38	2102.41
743.565	2223.24
743.75	2112.65
743.935	2069.64
744.12	2233.48
744.305	2106.51
744.49	1981.58
744.675	2161.8
744.86	2092.17
745.045	1993.87
745.23	2079.88
745.415	2112.65
745.6	2006.16
745.785	2065.55
745.97	2049.16
746.155	2077.83
746.34	1946.76
746.525	1985.68
746.71	2051.21
746.895	1989.77
747.079	1948.81
747.264	1864.85
747.449	1930.38
747.634	1991.82
747.819	1825.93
748.003	1946.76
748.188	1901.71
748.373	1975.44
748.557	1795.22
748.742	1916.05
748.927	1825.93
749.111	1844.37
749.296	1887.37
749.481	1860.75
749.665	1852.56
749.85	1791.12
750.034	1842.32
750.219	1862.8
750.404	1639.57
750.588	1653.91
750.773	1760.4
750.957	1686.67
751.141	1803.41
751.326	1735.82
751.51	1674.39
751.695	1643.67
751.879	1727.63
752.064	1617.04
752.248	1670.29
752.432	1643.67
752.617	1612.95
752.801	1610.9
752.985	1567.89
753.17	1639.57
753.354	1733.78
753.538	1594.51
753.722	1574.03
753.907	1565.84
754.091	1541.27
754.275	1522.84
754.459	1563.79
754.643	1541.27
754.828	1481.88
755.012	1451.16
755.196	1555.6
755.38	1406.1
755.564	1488.02
755.748	1420.44
755.932	1524.88
756.116	1414.29
756.3	1428.63
756.484	1465.49
756.668	1490.07
756.852	1399.96
757.036	1426.58
757.22	1430.68
757.404	1352.85
757.588	1453.2
757.772	1359
757.956	1371.29
758.14	1281.18
758.323	1332.37
758.507	1338.52
758.691	1305.75
758.875	1285.27
759.059	1305.75
759.242	1256.6
759.426	1277.08
759.61	1283.22
759.794	1281.18
759.977	1334.42
760.161	1307.8
760.345	1193.11
760.528	1127.58
760.712	1215.64
760.895	1236.12
761.079	1219.74
761.263	1209.5
761.446	1100.95
761.63	1223.83
761.813	1199.26
761.997	1133.72
762.18	1176.73
762.364	1182.87
762.547	1066.14
762.731	1162.39
762.914	1189.02
763.098	1100.95
763.281	1131.67
763.464	1103
763.648	1219.74
763.831	1094.81
764.015	969.88
764.198	1103
764.381	1049.75
764.564	1137.82
764.748	1043.61
764.931	1152.15
765.114	1103
765.297	1051.8
765.481	988.32
765.664	1049.75
765.847	1037.47
766.03	1117.34
766.213	1064.09
766.397	1084.57
766.58	943.26
766.763	1023.13
766.946	1088.67
767.129	1076.38
767.312	998.56
767.495	1002.65
767.678	1025.18
767.861	1084.57
768.044	982.17
768.227	1074.33
768.41	945.31
768.593	933.02
768.776	990.36
768.959	978.08
769.142	1047.71
769.324	941.21
769.507	1041.56
769.69	900.25
769.873	941.21
770.056	959.64
770.239	916.64
770.421	1004.7
770.604	941.21
770.787	976.03
770.97	941.21
771.152	877.73
771.335	930.97
771.518	851.1
771.7	908.44
771.883	1006.75
772.066	832.67
772.248	902.3
772.431	1045.66
772.613	916.64
772.796	930.97
772.978	875.68
773.161	990.36
773.343	826.53
773.526	883.87
773.708	861.34
773.891	855.2
774.073	816.29
774.256	760.99
774.438	812.19
774.621	834.72
774.803	822.43
774.985	767.13
775.168	873.63
775.35	853.15
775.532	832.67
775.715	793.76
775.897	730.27
776.079	771.23
776.261	750.75
776.444	779.42
776.626	754.85
776.808	720.03
776.99	740.51
777.173	705.7
777.355	746.66
777.537	830.62
777.719	767.13
777.901	715.94
778.083	689.31
778.265	771.23
778.447	662.69
778.629	679.07
778.811	740.51
778.993	705.7
779.175	726.18
779.357	681.12
779.539	775.33
779.721	672.93
779.903	650.4
780.085	670.88
780.267	658.59
780.449	670.88
780.631	642.21
780.812	677.02
780.994	711.84
781.176	648.35
781.358	617.63
781.54	609.44
781.721	666.78
781.903	705.7
782.085	623.78
782.267	640.16
782.448	629.92
782.63	685.22
782.812	568.48
782.993	564.39
783.175	595.11
783.357	476.32
783.538	576.67
783.72	576.67
783.901	539.81
784.083	529.57
784.264	533.67
784.446	533.67
784.627	535.71
784.809	580.77
784.99	576.67
785.172	548
785.353	545.95
785.535	566.43
785.716	484.52
785.897	494.76
786.079	507.04
786.26	564.39
786.441	486.56
786.623	466.08
786.804	447.65
786.985	511.14
787.167	554.15
787.348	453.8
787.529	496.8
787.71	545.95
787.891	425.12
788.073	494.76
788.254	494.76
788.435	515.23
788.616	490.66
788.797	400.55
788.978	435.36
789.159	396.45
789.34	410.79
789.522	412.84
789.703	361.64
789.884	423.08
790.065	392.36
790.246	435.36
790.427	449.7
790.607	433.32
790.788	408.74
790.969	380.07
791.15	380.07
791.331	355.49
791.512	425.12
791.693	384.16
791.874	435.36
792.054	457.89
792.235	351.4
792.416	441.51
792.597	367.78
792.778	322.73
792.958	314.53
793.139	449.7
793.32	367.78
793.5	390.31
793.681	400.55
793.862	316.58
794.042	347.3
794.223	396.45
794.404	406.69
794.584	345.25
794.765	316.58
794.945	392.36
795.126	351.4
795.306	406.69
795.487	351.4
795.667	296.1
795.848	318.63
796.028	351.4
796.209	359.59
796.389	320.68
796.57	306.34
796.75	310.44
796.93	371.88
797.111	306.34
797.291	337.06
797.471	386.21
797.652	339.11
797.832	375.97
798.012	324.77
798.192	265.38
798.373	306.34
798.553	283.81
798.733	369.83
798.913	296.1
799.093	249
799.274	363.69
799.454	251.05
799.634	281.77
799.814	328.87
799.994	265.38
800.174	384.16
800.354	265.38
800.534	271.53
800.714	330.92
800.894	294.05
801.074	208.04
801.254	312.49
801.434	261.29
801.614	277.67
801.794	265.38
801.974	660.64
802.154	263.33
802.334	312.49
802.514	273.57
802.693	242.85
802.873	302.25
803.053	314.53
803.233	234.66
803.413	316.58
803.592	230.57
803.772	251.05
803.952	242.85
804.131	244.9
804.311	234.66
804.491	238.76
804.67	332.97
804.85	253.09
805.03	232.62
805.209	232.62
805.389	234.66
805.568	246.95
805.748	162.98
805.928	257.19
806.107	265.38
806.287	226.47
806.466	300.2
806.646	253.09
806.825	257.19
807.004	216.23
807.184	222.38
807.363	224.42
807.543	228.52
807.722	167.08
807.901	216.23
808.081	208.04
808.26	228.52
808.439	240.81
808.619	232.62
808.798	249
808.977	201.9
809.156	251.05
809.336	220.33
809.515	218.28
809.694	201.9
809.873	236.71
810.052	208.04
810.231	177.32
810.411	232.62
810.59	244.9
810.769	154.79
810.948	187.56
811.127	201.9
811.306	138.41
811.485	154.79
811.664	181.42
811.843	230.57
812.022	263.33
812.201	175.27
812.38	187.56
812.559	197.8
812.737	216.23
812.916	187.56
813.095	158.89
813.274	220.33
813.453	220.33
813.632	171.18
813.811	230.57
813.989	148.65
814.168	115.88
814.347	216.23
814.526	195.75
814.704	199.85
814.883	203.94
815.062	185.51
815.24	187.56
815.419	173.22
815.598	150.7
815.776	136.36
815.955	160.94
816.133	79.02
816.312	216.23
816.49	179.37
816.669	205.99
816.847	201.9
817.026	115.88
817.204	85.16
817.383	128.17
817.561	226.47
817.74	146.6
817.918	177.32
818.097	122.02
818.275	136.36
818.453	132.26
818.632	111.78
818.81	119.98
818.988	203.94
819.167	150.7
819.345	179.37
819.523	81.07
819.701	152.74
819.879	216.23
820.058	113.83
820.236	181.42
820.414	203.94
820.592	113.83
820.77	122.02
820.948	171.18
821.127	142.5
821.305	179.37
821.483	154.79
821.661	169.13
821.839	169.13
822.017	154.79
822.195	197.8
822.373	134.31
822.551	138.41
822.729	177.32
822.907	171.18
823.085	126.12
823.262	83.11
823.44	87.21
823.618	113.83
823.796	181.42
823.974	89.26
824.152	146.6
824.329	109.74
824.507	195.75
824.685	156.84
824.863	162.98
825.04	140.46
825.218	107.69
825.396	91.31
825.574	140.46
825.751	152.74
825.929	130.22
826.107	52.39
826.284	150.7
826.462	117.93
826.639	124.07
826.817	27.82
826.994	93.35
827.172	107.69
827.349	89.26
827.527	95.4
827.704	74.92
827.882	126.12
828.059	138.41
828.237	160.94
828.414	81.07
828.591	105.64
828.769	138.41
828.946	167.08
829.124	126.12
829.301	136.36
829.478	103.59
829.655	160.94
829.833	126.12
830.01	70.83
830.187	130.22
830.364	99.5
830.542	148.65
830.719	89.26
830.896	103.59
831.073	29.87
831.25	156.84
831.427	146.6
831.604	117.93
831.782	124.07
831.959	136.36
832.136	134.31
832.313	158.89
832.49	162.98
832.667	203.94
832.844	142.5
833.021	152.74
833.198	119.98
833.374	167.08
833.551	152.74
833.728	132.26
833.905	115.88
834.082	38.06
834.259	105.64
834.436	117.93
834.612	68.78
834.789	95.4
834.966	109.74
835.143	97.45
835.319	70.83
835.496	119.98
835.673	36.01
835.85	119.98
836.026	111.78
836.203	122.02
836.38	126.12
836.556	138.41
836.733	113.83
836.909	66.73
837.086	97.45
837.262	60.59
837.439	105.64
837.616	64.68
837.792	72.87
837.968	144.55
838.145	103.59
838.321	70.83
838.498	62.63
838.674	105.64
838.851	119.98
839.027	134.31
839.203	148.65
839.38	138.41
839.556	42.15
839.732	27.82
839.909	56.49
840.085	31.91
840.261	183.46
840.437	81.07
840.614	64.68
840.79	25.77
840.966	132.26
841.142	142.5
841.318	23.72
841.494	117.93
841.671	138.41
841.847	29.87
842.023	48.3
842.199	122.02
842.375	42.15
842.551	13.48
842.727	60.59
842.903	148.65
843.079	48.3
843.255	99.5
843.431	48.3
843.607	42.15
843.783	36.01
843.959	68.78
844.134	-37.72
844.31	60.59
844.486	36.01
844.662	66.73
844.838	124.07
845.013	154.79
845.189	42.15
845.365	70.83
845.541	99.5
845.716	87.21
845.892	48.3
846.068	9.39
846.244	31.91
846.419	87.21
846.595	5.29
846.77	64.68
846.946	81.07
847.122	42.15
847.297	5.29
847.473	74.92
847.648	132.26
847.824	68.78
847.999	62.63
848.175	101.55
848.35	7.34
848.526	117.93
848.701	40.11
848.876	81.07
849.052	99.5
849.227	111.78
849.403	-0.85
849.578	46.25
849.753	113.83
849.929	101.55
850.104	33.96
850.279	138.41
850.454	19.63
850.63	158.89
850.805	31.91
850.98	76.97
851.155	64.68
851.33	13.48
851.505	64.68
851.681	79.02
851.856	27.82
852.031	91.31
852.206	85.16
852.381	7.34
852.556	113.83
852.731	54.44
852.906	68.78
853.081	81.07
853.256	56.49
853.431	-25.43
853.606	40.11
853.781	42.15
853.956	79.02
854.131	38.06
854.305	81.07
854.48	119.98
854.655	97.45
854.83	-50
855.005	56.49
855.18	50.35
855.354	42.15
855.529	134.31
855.704	52.39
855.879	46.25
856.053	44.2
856.228	42.15
856.403	31.91
856.577	58.54
856.752	33.96
856.926	70.83
857.101	113.83
857.276	50.35
857.45	56.49
857.625	40.11
857.799	36.01
857.974	83.11
858.148	-7
858.323	93.35
858.497	46.25
858.672	48.3
858.846	-4.95
859.02	50.35
859.195	105.64
859.369	38.06
859.543	87.21
859.718	62.63
859.892	7.34
860.066	23.72
860.241	56.49
860.415	36.01
860.589	-9.05
860.763	-25.43
860.938	70.83
861.112	54.44
861.286	23.72
861.46	46.25
861.634	72.87
861.808	27.82
861.982	56.49
862.157	-17.24
862.331	21.67
862.505	-39.76
862.679	54.44
862.853	38.06
863.027	79.02
863.201	-2.9
863.375	56.49
863.549	7.34
863.722	-21.33
863.896	91.31
864.07	17.58
864.244	15.53
864.418	42.15
864.592	52.39
864.766	60.59
864.939	87.21
865.113	7.34
865.287	27.82
865.461	17.58
865.634	83.11
865.808	52.39
865.982	64.68
866.156	87.21
866.329	31.91
866.503	89.26
866.676	111.78
866.85	23.72
867.024	40.11
867.197	56.49
867.371	42.15
867.544	7.34
867.718	-21.33
867.891	64.68
868.065	64.68
868.238	13.48
868.412	70.83
868.585	-7
868.759	19.63
868.932	21.67
869.105	-0.85
869.279	36.01
869.452	38.06
869.625	52.39
869.799	81.07
869.972	-25.43
870.145	31.91
870.319	29.87
870.492	-64.34
870.665	91.31
870.838	7.34
871.011	68.78
871.185	74.92
871.358	13.48
871.531	54.44
871.704	36.01
871.877	132.26
872.05	144.55
872.223	33.96
872.396	13.48
872.569	109.74
872.742	81.07
872.915	7.34
873.088	101.55
873.261	81.07
873.434	25.77
873.607	48.3
873.78	81.07
873.953	95.4
874.126	-35.67
874.299	3.24
874.471	27.82
874.644	62.63
874.817	56.49
874.99	27.82
875.163	-9.05
875.335	72.87
875.508	23.72
875.681	46.25
875.853	-23.38
876.026	-15.19
876.199	-29.52
876.371	81.07
876.544	-25.43
876.717	36.01
876.889	29.87
877.062	103.59
877.234	15.53
877.407	17.58
877.579	-2.9
877.752	29.87
877.924	48.3
878.097	23.72
878.269	-19.29
878.442	87.21
878.614	27.82
878.786	5.29
878.959	54.44
879.131	5.29
879.303	25.77
879.476	46.25
879.648	36.01
879.82	15.53
879.993	13.48
880.165	31.91
880.337	-4.95
880.509	50.35
880.681	-39.76
880.854	42.15
881.026	-15.19
881.198	50.35
881.37	-17.24
881.542	56.49
881.714	7.34
881.886	-25.43
882.058	72.87
882.23	62.63
882.402	7.34
882.574	7.34
882.746	54.44
882.918	109.74
883.09	29.87
883.262	38.06
883.434	-4.95
883.606	17.58
883.778	60.59
883.95	81.07
884.122	-21.33
884.293	97.45
884.465	-0.85
884.637	-21.33
884.809	29.87
884.98	128.17
885.152	29.87
885.324	36.01
885.496	-27.48
885.667	70.83
885.839	72.87
886.011	66.73
886.182	-0.85
886.354	46.25
886.525	105.64
886.697	-31.57
886.869	56.49
887.04	31.91
887.212	48.3
887.383	40.11
887.555	21.67
887.726	11.43
887.897	7.34
888.069	46.25
888.24	-17.24
888.412	19.63
888.583	-7
888.754	-9.05
888.926	54.44
889.097	70.83
889.268	11.43
889.44	66.73
889.611	48.3
889.782	-0.85
889.953	-33.62
890.125	48.3
890.296	74.92
890.467	-17.24
890.638	5.29
890.809	-0.85
890.98	31.91
891.151	-54.1
891.323	7.34
891.494	13.48
891.665	36.01
891.836	27.82
892.007	-0.85
892.178	-0.85
892.349	38.06
892.52	-2.9
892.691	3.24
892.862	9.39
893.032	17.58
893.203	-68.44
893.374	68.78
893.545	105.64
893.716	62.63
893.887	81.07
894.057	21.67
894.228	42.15
894.399	5.29
894.57	40.11
894.74	7.34
894.911	-29.52
895.082	-13.14
895.253	7.34
895.423	19.63
895.594	3.24
895.764	27.82
895.935	76.97
896.106	-7
896.276	21.67
896.447	44.2
896.617	-7
896.788	-17.24
896.958	44.2
897.129	-29.52
897.299	13.48
897.47	95.4
897.64	3.24
897.81	70.83
897.981	72.87
898.151	44.2
898.322	95.4
898.492	29.87
898.662	33.96
898.832	29.87
899.003	68.78
899.173	81.07
899.343	-15.19
899.513	-41.81
