Data from USB4F104151__30__11-36-44-363.txt Node

Date: Fri Mar 14 11:36:44 EDT 2025
User: louis
Spectrometer: USB4F10415
Trigger mode: 4
Integration Time (sec): 2.000000E-2
Scans to average: 1
Electric dark correction enabled: true
Nonlinearity correction enabled: false
Boxcar width: 0
XAxis mode: Wavelengths
Number of Pixels in Spectrum: 3648
>>>>>Begin Spectral Data<<<<<
178.204	-96.25
178.424	-96.25
178.644	-96.25
178.864	-151.55
179.084	-157.69
179.304	-47.1
179.524	-14.34
179.744	-63.49
179.964	43.01
180.184	16.38
180.404	-16.38
180.624	6.14
180.844	-8.19
181.064	-22.53
181.283	36.86
181.503	51.2
181.723	18.43
181.943	-86.01
182.163	57.34
182.383	-69.63
182.602	12.29
182.822	0
183.042	32.77
183.262	-67.58
183.482	-45.06
183.701	-32.77
183.921	-14.34
184.141	57.34
184.361	65.54
184.58	-86.01
184.8	12.29
185.02	12.29
185.239	106.49
185.459	26.62
185.679	57.34
185.898	20.48
186.118	-8.19
186.338	-75.77
186.557	-102.4
186.777	-10.24
186.997	51.2
187.216	-14.34
187.436	-8.19
187.655	-36.86
187.875	0
188.095	-49.15
188.314	-36.86
188.534	-36.86
188.753	8.19
188.973	2.05
189.192	-45.06
189.412	-43.01
189.631	45.06
189.851	38.91
190.07	36.86
190.29	14.34
190.509	8.19
190.729	-57.34
190.948	67.58
191.168	36.86
191.387	26.62
191.607	-96.25
191.826	24.58
192.045	-28.67
192.265	28.67
192.484	-28.67
192.704	-71.68
192.923	-24.58
193.142	32.77
193.362	-61.44
193.581	36.86
193.8	-45.06
194.02	-10.24
194.239	-34.82
194.458	22.53
194.678	-49.15
194.897	20.48
195.116	-2.05
195.335	34.82
195.555	59.39
195.774	-90.11
195.993	47.1
196.212	8.19
196.432	-30.72
196.651	28.67
196.87	-2.05
197.089	12.29
197.308	-32.77
197.528	-2.05
197.747	-4.1
197.966	-38.91
198.185	-6.14
198.404	-6.14
198.623	-55.3
198.842	30.72
199.062	24.58
199.281	124.93
199.5	-61.44
199.719	30.72
199.938	32.77
200.157	-43.01
200.376	6.14
200.595	96.25
200.814	-14.34
201.033	12.29
201.252	-18.43
201.471	-24.58
201.69	61.44
201.909	-30.72
202.128	-16.38
202.347	0
202.566	43.01
202.785	14.34
203.004	-10.24
203.223	40.96
203.442	4.1
203.661	-30.72
203.879	-6.14
204.098	-20.48
204.317	-40.96
204.536	-34.82
204.755	8.19
204.974	40.96
205.193	12.29
205.411	65.54
205.63	0
205.849	8.19
206.068	-16.38
206.287	-20.48
206.505	0
206.724	24.58
206.943	49.15
207.162	-10.24
207.381	36.86
207.599	-45.06
207.818	38.91
208.037	-32.77
208.255	32.77
208.474	43.01
208.693	77.82
208.911	67.58
209.13	-2.05
209.349	34.82
209.567	90.11
209.786	-28.67
210.005	12.29
210.223	-10.24
210.442	-57.34
210.661	-24.58
210.879	-26.62
211.098	2.05
211.316	26.62
211.535	51.2
211.753	-32.77
211.972	-47.1
212.191	-26.62
212.409	-26.62
212.628	43.01
212.846	24.58
213.065	94.21
213.283	57.34
213.502	36.86
213.72	12.29
213.938	34.82
214.157	16.38
214.375	-8.19
214.594	45.06
214.812	-14.34
215.031	47.1
215.249	-65.54
215.467	65.54
215.686	-2.05
215.904	0
216.122	-4.1
216.341	53.25
216.559	-24.58
216.778	22.53
216.996	-2.05
217.214	2.05
217.432	28.67
217.651	-34.82
217.869	67.58
218.087	-55.3
218.306	-18.43
218.524	61.44
218.742	-38.91
218.96	-20.48
219.179	-55.3
219.397	-55.3
219.615	59.39
219.833	34.82
220.051	61.44
220.27	53.25
220.488	-16.38
220.706	0
220.924	18.43
221.142	-24.58
221.36	-28.67
221.578	43.01
221.796	-38.91
222.015	24.58
222.233	-77.82
222.451	-8.19
222.669	61.44
222.887	10.24
223.105	-12.29
223.323	-28.67
223.541	-26.62
223.759	67.58
223.977	-6.14
224.195	-24.58
224.413	-22.53
224.631	0
224.849	4.1
225.067	-24.58
225.285	-49.15
225.503	30.72
225.721	-110.59
225.939	-36.86
226.157	12.29
226.375	51.2
226.592	-12.29
226.81	-38.91
227.028	104.45
227.246	-6.14
227.464	-65.54
227.682	-34.82
227.9	8.19
228.117	-45.06
228.335	-26.62
228.553	12.29
228.771	8.19
228.989	0
229.206	28.67
229.424	40.96
229.642	-8.19
229.86	-61.44
230.077	65.54
230.295	-53.25
230.513	20.48
230.731	2.05
230.948	110.59
231.166	-4.1
231.384	-43.01
231.601	-8.19
231.819	67.58
232.037	26.62
232.254	-8.19
232.472	71.68
232.689	-30.72
232.907	75.77
233.125	12.29
233.342	-38.91
233.56	-12.29
233.777	59.39
233.995	-26.62
234.213	73.73
234.43	-12.29
234.648	53.25
234.865	38.91
235.083	73.73
235.3	20.48
235.518	-18.43
235.735	45.06
235.953	24.58
236.17	-20.48
236.388	-55.3
236.605	32.77
236.822	10.24
237.04	51.2
237.257	47.1
237.475	-47.1
237.692	-14.34
237.909	-6.14
238.127	43.01
238.344	-16.38
238.562	-8.19
238.779	-49.15
238.996	-86.01
239.214	6.14
239.431	-38.91
239.648	6.14
239.865	20.48
240.083	4.1
240.3	-45.06
240.517	28.67
240.735	-12.29
240.952	49.15
241.169	49.15
241.386	12.29
241.603	73.73
241.821	10.24
242.038	18.43
242.255	-34.82
242.472	24.58
242.689	36.86
242.907	10.24
243.124	59.39
243.341	86.01
243.558	-24.58
243.775	-12.29
243.992	43.01
244.209	32.77
244.426	-26.62
244.643	2.05
244.86	24.58
245.078	-49.15
245.295	14.34
245.512	43.01
245.729	12.29
245.946	90.11
246.163	12.29
246.38	20.48
246.597	59.39
246.814	79.87
247.031	6.14
247.248	-8.19
247.464	0
247.681	-4.1
247.898	-86.01
248.115	-6.14
248.332	-40.96
248.549	51.2
248.766	24.58
248.983	12.29
249.2	4.1
249.417	18.43
249.633	32.77
249.85	14.34
250.067	-49.15
250.284	-30.72
250.501	-38.91
250.717	43.01
250.934	-43.01
251.151	10.24
251.368	-4.1
251.585	8.19
251.801	-4.1
252.018	18.43
252.235	45.06
252.451	-57.34
252.668	-40.96
252.885	-36.86
253.102	65.54
253.318	-38.91
253.535	-24.58
253.752	12.29
253.968	-30.72
254.185	-63.49
254.401	-4.1
254.618	-14.34
254.835	-83.97
255.051	36.86
255.268	-6.14
255.484	26.62
255.701	-14.34
255.917	-20.48
256.134	45.06
256.351	-45.06
256.567	-32.77
256.784	36.86
257	36.86
257.217	38.91
257.433	32.77
257.65	59.39
257.866	8.19
258.082	-24.58
258.299	-69.63
258.515	8.19
258.732	34.82
258.948	57.34
259.165	4.1
259.381	20.48
259.597	-22.53
259.814	16.38
260.03	-4.1
260.246	-40.96
260.463	65.54
260.679	-18.43
260.895	2.05
261.112	-32.77
261.328	32.77
261.544	24.58
261.761	133.12
261.977	32.77
262.193	-20.48
262.409	-28.67
262.626	14.34
262.842	-16.38
263.058	28.67
263.274	-43.01
263.49	77.82
263.707	-34.82
263.923	67.58
264.139	65.54
264.355	28.67
264.571	10.24
264.787	-8.19
265.004	47.1
265.22	-32.77
265.436	-2.05
265.652	20.48
265.868	92.16
266.084	14.34
266.3	38.91
266.516	20.48
266.732	4.1
266.948	-34.82
267.164	8.19
267.38	4.1
267.596	10.24
267.812	30.72
268.028	63.49
268.244	-26.62
268.46	24.58
268.676	12.29
268.892	14.34
269.108	-53.25
269.324	16.38
269.54	57.34
269.756	-73.73
269.972	-22.53
270.188	0
270.403	-86.01
270.619	-38.91
270.835	18.43
271.051	12.29
271.267	-38.91
271.483	-24.58
271.698	8.19
271.914	4.1
272.13	20.48
272.346	18.43
272.562	-57.34
272.777	-34.82
272.993	26.62
273.209	6.14
273.425	38.91
273.64	-55.3
273.856	57.34
274.072	-57.34
274.287	-36.86
274.503	6.14
274.719	34.82
274.934	-24.58
275.15	16.38
275.366	20.48
275.581	-16.38
275.797	-49.15
276.012	16.38
276.228	-49.15
276.444	4.1
276.659	71.68
276.875	-2.05
277.09	36.86
277.306	4.1
277.521	0
277.737	-24.58
277.952	10.24
278.168	-16.38
278.383	26.62
278.599	-69.63
278.814	32.77
279.03	73.73
279.245	51.2
279.461	-49.15
279.676	75.77
279.892	-8.19
280.107	-59.39
280.322	-45.06
280.538	36.86
280.753	-24.58
280.969	61.44
281.184	-8.19
281.399	18.43
281.615	-10.24
281.83	-47.1
282.045	-53.25
282.26	-32.77
282.476	-28.67
282.691	73.73
282.906	-16.38
283.122	36.86
283.337	32.77
283.552	-16.38
283.767	26.62
283.983	32.77
284.198	47.1
284.413	-30.72
284.628	-49.15
284.843	12.29
285.058	-38.91
285.274	-20.48
285.489	-14.34
285.704	55.3
285.919	-4.1
286.134	83.97
286.349	45.06
286.564	51.2
286.779	-12.29
286.995	63.49
287.21	-43.01
287.425	-79.87
287.64	-45.06
287.855	47.1
288.07	16.38
288.285	22.53
288.5	40.96
288.715	16.38
288.93	2.05
289.145	-4.1
289.36	-16.38
289.575	45.06
289.79	-16.38
290.004	12.29
290.219	-14.34
290.434	81.92
290.649	-43.01
290.864	57.34
291.079	-14.34
291.294	-106.49
291.509	-34.82
291.724	49.15
291.938	20.48
292.153	47.1
292.368	88.06
292.583	8.19
292.798	88.06
293.012	-24.58
293.227	45.06
293.442	22.53
293.657	-22.53
293.871	32.77
294.086	57.34
294.301	20.48
294.516	-43.01
294.73	-8.19
294.945	-53.25
295.16	57.34
295.374	24.58
295.589	-4.1
295.804	30.72
296.018	-22.53
296.233	20.48
296.447	-14.34
296.662	34.82
296.877	-4.1
297.091	-18.43
297.306	51.2
297.52	43.01
297.735	26.62
297.949	-16.38
298.164	-14.34
298.378	26.62
298.593	12.29
298.807	2.05
299.022	0
299.236	-30.72
299.451	-57.34
299.665	55.3
299.88	83.97
300.094	-22.53
300.309	-24.58
300.523	28.67
300.737	22.53
300.952	-59.39
301.166	49.15
301.381	-14.34
301.595	12.29
301.809	-14.34
302.024	67.58
302.238	8.19
302.452	57.34
302.667	47.1
302.881	20.48
303.095	20.48
303.309	-75.77
303.524	20.48
303.738	14.34
303.952	36.86
304.166	57.34
304.381	-38.91
304.595	26.62
304.809	-26.62
305.023	10.24
305.237	26.62
305.452	83.97
305.666	43.01
305.88	2.05
306.094	-8.19
306.308	30.72
306.522	-2.05
306.736	57.34
306.95	28.67
307.164	40.96
307.379	67.58
307.593	102.4
307.807	0
308.021	28.67
308.235	45.06
308.449	65.54
308.663	-6.14
308.877	81.92
309.091	-40.96
309.305	-47.1
309.519	-49.15
309.733	14.34
309.947	20.48
310.161	67.58
310.374	-34.82
310.588	4.1
310.802	-4.1
311.016	59.39
311.23	2.05
311.444	-61.44
311.658	18.43
311.872	18.43
312.085	65.54
312.299	-69.63
312.513	30.72
312.727	18.43
312.941	-10.24
313.154	92.16
313.368	2.05
313.582	30.72
313.796	59.39
314.009	12.29
314.223	36.86
314.437	32.77
314.651	36.86
314.864	28.67
315.078	-14.34
315.292	-36.86
315.505	75.77
315.719	-4.1
315.933	16.38
316.146	-4.1
316.36	16.38
316.573	14.34
316.787	26.62
317.001	-20.48
317.214	22.53
317.428	-4.1
317.641	-30.72
317.855	45.06
318.068	45.06
318.282	18.43
318.495	20.48
318.709	77.82
318.922	-38.91
319.136	36.86
319.349	12.29
319.563	63.49
319.776	114.69
319.99	36.86
320.203	77.82
320.417	-2.05
320.63	-28.67
320.843	10.24
321.057	26.62
321.27	14.34
321.483	-12.29
321.697	24.58
321.91	-49.15
322.124	45.06
322.337	-2.05
322.55	90.11
322.763	57.34
322.977	-71.68
323.19	6.14
323.403	-24.58
323.617	-18.43
323.83	22.53
324.043	-16.38
324.256	38.91
324.469	71.68
324.683	69.63
324.896	34.82
325.109	20.48
325.322	-16.38
325.535	-24.58
325.748	51.2
325.962	8.19
326.175	36.86
326.388	51.2
326.601	-6.14
326.814	-18.43
327.027	-28.67
327.24	20.48
327.453	8.19
327.666	-28.67
327.879	4.1
328.092	4.1
328.305	-4.1
328.518	-8.19
328.731	-4.1
328.944	-77.82
329.157	4.1
329.37	-4.1
329.583	55.3
329.796	67.58
330.009	55.3
330.222	118.78
330.435	24.58
330.648	-14.34
330.861	-38.91
331.073	-32.77
331.286	67.58
331.499	-6.14
331.712	14.34
331.925	10.24
332.138	-10.24
332.35	32.77
332.563	69.63
332.776	-14.34
332.989	77.82
333.202	14.34
333.414	12.29
333.627	-32.77
333.84	10.24
334.053	40.96
334.265	-40.96
334.478	14.34
334.691	12.29
334.903	-18.43
335.116	-65.54
335.329	0
335.541	-57.34
335.754	30.72
335.966	-22.53
336.179	0
336.392	36.86
336.604	61.44
336.817	26.62
337.029	-2.05
337.242	-12.29
337.454	-6.14
337.667	-38.91
337.88	59.39
338.092	16.38
338.305	26.62
338.517	4.1
338.729	43.01
338.942	67.58
339.154	-8.19
339.367	-65.54
339.579	61.44
339.792	28.67
340.004	61.44
340.217	0
340.429	8.19
340.641	-69.63
340.854	-47.1
341.066	-4.1
341.278	-47.1
341.491	-12.29
341.703	-24.58
341.915	-2.05
342.128	59.39
342.34	53.25
342.552	4.1
342.764	2.05
342.977	16.38
343.189	47.1
343.401	-6.14
343.613	-71.68
343.826	63.49
344.038	36.86
344.25	90.11
344.462	49.15
344.674	-2.05
344.886	-38.91
345.099	-16.38
345.311	-43.01
345.523	28.67
345.735	0
345.947	83.97
346.159	-18.43
346.371	-2.05
346.583	0
346.795	102.4
347.007	14.34
347.219	-28.67
347.431	69.63
347.643	20.48
347.855	51.2
348.067	71.68
348.279	-14.34
348.491	57.34
348.703	36.86
348.915	-38.91
349.127	12.29
349.339	30.72
349.551	18.43
349.763	34.82
349.975	28.67
350.187	22.53
350.399	-8.19
350.61	-55.3
350.822	-34.82
351.034	45.06
351.246	2.05
351.458	43.01
351.669	16.38
351.881	-38.91
352.093	30.72
352.305	28.67
352.517	102.4
352.728	45.06
352.94	-18.43
353.152	-12.29
353.363	-69.63
353.575	26.62
353.787	98.3
353.999	36.86
354.21	47.1
354.422	-40.96
354.633	-2.05
354.845	-88.06
355.057	-28.67
355.268	-53.25
355.48	-14.34
355.692	24.58
355.903	6.14
356.115	4.1
356.326	4.1
356.538	116.73
356.749	8.19
356.961	34.82
357.172	28.67
357.384	61.44
357.595	47.1
357.807	8.19
358.018	8.19
358.23	40.96
358.441	53.25
358.653	53.25
358.864	-16.38
359.075	57.34
359.287	104.45
359.498	49.15
359.709	-8.19
359.921	12.29
360.132	43.01
360.344	18.43
360.555	45.06
360.766	40.96
360.977	16.38
361.189	18.43
361.4	-4.1
361.611	34.82
361.823	0
362.034	28.67
362.245	-26.62
362.456	67.58
362.667	100.35
362.879	-73.73
363.09	-12.29
363.301	8.19
363.512	45.06
363.723	-8.19
363.935	34.82
364.146	77.82
364.357	24.58
364.568	26.62
364.779	-20.48
364.99	86.01
365.201	-14.34
365.412	53.25
365.623	-49.15
365.834	-6.14
366.045	34.82
366.256	110.59
366.467	4.1
366.678	57.34
366.889	28.67
367.1	-16.38
367.311	32.77
367.522	18.43
367.733	47.1
367.944	0
368.155	24.58
368.366	36.86
368.577	47.1
368.788	4.1
368.999	-4.1
369.209	20.48
369.42	73.73
369.631	71.68
369.842	63.49
370.053	-45.06
370.264	26.62
370.474	26.62
370.685	-8.19
370.896	32.77
371.107	4.1
371.317	47.1
371.528	45.06
371.739	102.4
371.95	36.86
372.16	57.34
372.371	-14.34
372.582	12.29
372.792	26.62
373.003	10.24
373.214	-16.38
373.424	32.77
373.635	36.86
373.846	8.19
374.056	-6.14
374.267	73.73
374.477	16.38
374.688	88.06
374.898	-22.53
375.109	16.38
375.319	-6.14
375.53	49.15
375.74	22.53
375.951	24.58
376.161	67.58
376.372	40.96
376.582	4.1
376.793	-34.82
377.003	69.63
377.214	59.39
377.424	40.96
377.635	24.58
377.845	51.2
378.055	102.4
378.266	86.01
378.476	-18.43
378.686	36.86
378.897	94.21
379.107	6.14
379.317	86.01
379.528	8.19
379.738	-12.29
379.948	40.96
380.158	34.82
380.369	65.54
380.579	32.77
380.789	-10.24
380.999	4.1
381.21	-18.43
381.42	18.43
381.63	0
381.84	36.86
382.05	12.29
382.261	18.43
382.471	32.77
382.681	69.63
382.891	-36.86
383.101	0
383.311	61.44
383.521	-79.87
383.731	-2.05
383.941	57.34
384.151	-12.29
384.361	14.34
384.571	-6.14
384.781	53.25
384.991	53.25
385.201	24.58
385.411	12.29
385.621	79.87
385.831	53.25
386.041	92.16
386.251	4.1
386.461	69.63
386.671	22.53
386.881	6.14
387.091	-55.3
387.301	28.67
387.511	51.2
387.72	53.25
387.93	55.3
388.14	6.14
388.35	69.63
388.56	45.06
388.769	100.35
388.979	-53.25
389.189	53.25
389.399	24.58
389.609	2.05
389.818	59.39
390.028	-4.1
390.238	69.63
390.447	71.68
390.657	-18.43
390.867	-6.14
391.076	47.1
391.286	96.25
391.496	36.86
391.705	-22.53
391.915	22.53
392.125	112.64
392.334	53.25
392.544	34.82
392.753	-18.43
392.963	83.97
393.172	108.54
393.382	20.48
393.591	96.25
393.801	57.34
394.01	112.64
394.22	51.2
394.429	8.19
394.639	53.25
394.848	67.58
395.058	0
395.267	0
395.477	22.53
395.686	81.92
395.895	83.97
396.105	129.02
396.314	75.77
396.524	135.17
396.733	57.34
396.942	65.54
397.152	12.29
397.361	133.12
397.57	102.4
397.78	139.26
397.989	40.96
398.198	135.17
398.407	106.49
398.617	141.31
398.826	81.92
399.035	94.21
399.244	32.77
399.453	126.97
399.663	129.02
399.872	94.21
400.081	126.97
400.29	145.41
400.499	67.58
400.708	98.3
400.917	81.92
401.127	67.58
401.336	79.87
401.545	67.58
401.754	100.35
401.963	36.86
402.172	88.06
402.381	147.45
402.59	73.73
402.799	81.92
403.008	110.59
403.217	90.11
403.426	102.4
403.635	137.21
403.844	135.17
404.053	131.07
404.262	120.83
404.471	122.88
404.68	163.84
404.888	159.74
405.097	131.07
405.306	149.5
405.515	159.74
405.724	141.31
405.933	180.22
406.142	163.84
406.35	151.55
406.559	151.55
406.768	157.69
406.977	155.65
407.185	147.45
407.394	245.76
407.603	122.88
407.812	188.41
408.02	270.33
408.229	217.08
408.438	176.13
408.646	204.8
408.855	237.56
409.064	200.7
409.272	331.77
409.481	274.43
409.69	192.51
409.898	272.38
410.107	233.47
410.315	253.95
410.524	348.15
410.733	256
410.941	296.96
411.15	356.35
411.358	319.48
411.567	393.21
411.775	372.73
411.984	372.73
412.192	401.4
412.401	505.85
412.609	487.42
412.818	489.46
413.026	501.75
413.234	471.03
413.443	458.74
413.651	462.84
413.86	550.9
414.068	663.54
414.276	571.38
414.485	698.36
414.693	534.52
414.901	690.17
415.11	626.68
415.318	657.4
415.526	673.78
415.734	761.84
415.943	696.31
416.151	833.52
416.359	806.9
416.567	962.55
416.776	892.91
416.984	907.25
417.192	913.39
417.4	1028.08
417.608	909.3
417.817	1052.66
418.025	1130.48
418.233	1132.53
418.441	1171.44
418.649	1130.48
418.857	1318.89
419.065	1320.94
419.273	1247.21
419.481	1343.47
419.689	1312.75
419.897	1472.49
420.105	1621.99
420.313	1587.18
420.521	1601.51
420.729	1564.65
420.937	1744.87
421.145	1816.55
421.353	1775.59
421.561	1937.38
421.769	1906.66
421.977	2133.98
422.185	2004.96
422.393	2185.18
422.601	2303.96
422.809	2224.09
423.017	2213.85
423.224	2414.56
423.432	2445.27
423.64	2498.52
423.848	2676.7
424.056	2547.67
424.263	2787.29
424.471	2744.28
424.679	2944.98
424.887	3131.34
425.094	3258.32
425.302	3112.91
425.51	3239.89
425.718	3352.52
425.925	3330
426.133	3442.64
426.341	3764.17
426.548	3987.4
426.756	3876.8
426.964	4083.65
427.171	4116.42
427.379	4280.25
427.586	4444.09
427.794	4458.43
428.001	4679.61
428.209	4902.84
428.417	4792.25
428.624	5062.58
428.832	5058.48
429.039	5025.72
429.247	5253.04
429.454	5601.19
429.662	6080.42
429.869	5629.87
430.076	6064.04
430.284	5930.92
430.491	6031.27
430.699	6555.55
430.906	6336.42
431.114	6528.92
431.321	6754.2
431.528	6967.19
431.736	7311.25
431.943	7864.2
432.15	7522.19
432.358	7692.17
432.565	8064.9
432.772	7907.21
432.979	8255.36
433.187	8394.62
433.394	8572.8
433.601	9172.85
433.808	9009.01
434.016	9011.06
434.223	9262.96
434.43	10211.17
434.637	10069.86
434.844	10504.03
435.052	10727.26
435.259	10618.72
435.466	10930.01
435.673	10555.23
435.88	10962.78
436.087	12027.72
436.294	11896.65
436.501	11624.27
436.708	11923.27
436.915	12232.52
437.122	12949.31
437.329	12961.59
437.537	13184.82
437.743	13444.91
437.95	13322.04
438.157	13926.19
438.364	14522.15
438.571	14376.74
438.778	14567.2
438.985	16004.88
439.192	15363.86
439.399	15765.26
439.606	15220.5
439.813	16142.09
440.02	17053.44
440.227	16836.35
440.433	17145.59
440.64	17440.5
440.847	17315.58
441.054	17694.45
441.261	19105.5
441.467	18550.5
441.674	19173.08
441.881	19742.42
442.088	19549.91
442.294	19324.63
442.501	20127.44
442.708	20475.59
442.914	21124.8
443.121	21974.7
443.328	21606.07
443.534	23193.25
443.741	22521.51
443.948	22269.61
444.154	23977.62
444.361	23527.07
444.568	24006.29
444.774	23854.74
444.981	23654.04
445.187	25060.99
445.394	25960.05
445.6	25640.57
445.807	27950.68
446.013	26824.29
446.22	27383.39
446.426	28239.44
446.633	28560.97
446.839	29404.74
447.046	28333.65
447.252	29771.32
447.459	30158.39
447.665	29713.98
447.871	31069.73
448.078	32638.48
448.284	31108.65
448.491	31852.06
448.697	33048.07
448.903	33664.51
449.11	33613.31
449.316	33216.01
449.522	33840.64
449.728	34645.49
449.935	34883.05
450.141	35028.46
450.347	35567.07
450.553	34534.9
450.76	35190.25
450.966	36027.87
451.172	35642.85
451.378	36722.13
451.584	36034.01
451.791	36683.22
451.997	36703.7
452.203	37133.77
452.409	37373.38
452.615	37043.66
452.821	35753.44
453.027	35575.27
453.233	37504.45
453.44	35808.73
453.646	36672.98
453.852	36435.41
454.058	37031.37
454.264	35755.49
454.47	36287.96
454.676	35534.31
454.882	36836.81
455.088	33349.12
455.294	34321.91
455.5	34547.18
455.705	35239.4
455.911	33805.82
456.117	33140.23
456.323	32366.1
456.529	30969.38
456.735	32415.25
456.941	30973.48
457.147	30932.52
457.352	30017.08
457.558	29752.89
457.764	29861.43
457.97	29259.33
458.176	28548.68
458.381	28311.12
458.587	27080.29
458.793	27240.03
458.999	25646.71
459.204	27498.08
459.41	26629.74
459.616	24993.41
459.821	25163.39
460.027	24954.5
460.233	24538.76
460.438	23070.37
460.644	23434.91
460.85	22462.12
461.055	21982.9
461.261	21929.65
461.466	20393.67
461.672	19781.33
461.878	21085.89
462.083	19789.52
462.289	19541.72
462.494	19351.26
462.7	18431.72
462.905	17958.64
463.111	18759.39
463.316	18691.81
463.522	18165.48
463.727	18167.53
463.932	18140.91
464.138	17932.01
464.343	17932.01
464.549	17346.3
464.754	18048.75
464.959	17802.99
465.165	17571.57
465.37	17231.61
465.575	16568.07
465.781	17344.25
465.986	17196.79
466.191	16627.46
466.397	16353.03
466.602	15628.05
466.807	16133.9
467.012	16185.1
467.218	16137.99
467.423	15779.6
467.628	15953.68
467.833	16684.8
468.038	15908.62
468.244	15742.74
468.449	16232.2
468.654	15601.43
468.859	15529.75
469.064	15433.49
469.269	14765.85
469.474	14901.02
469.679	15335.19
469.885	14466.85
470.09	15109.91
470.295	14890.78
470.5	14745.38
470.705	14864.16
470.91	14329.64
471.115	14186.28
471.32	14460.71
471.525	14188.33
471.73	13788.97
471.935	13913.9
472.139	13483.83
472.344	13799.21
472.549	13631.28
472.754	13442.87
472.959	13068.09
473.164	12922.68
473.369	12599.1
473.574	13328.18
473.778	13045.56
473.983	12801.85
474.188	12783.42
474.393	12359.49
474.598	12205.89
474.802	12166.98
475.007	11835.21
475.212	11997
475.417	11652.94
475.621	11722.57
475.826	11806.54
476.031	11593.55
476.235	11190.1
476.44	11534.16
476.645	11067.22
476.849	11124.57
477.054	11093.85
477.259	11110.23
477.463	10932.06
477.668	10588
477.872	10970.97
478.077	10520.42
478.282	10381.15
478.486	10346.34
478.691	10301.28
478.895	10348.39
479.1	10188.64
479.304	10159.97
479.509	9805.67
479.713	10135.4
479.918	9584.49
480.122	9713.52
480.326	9957.22
480.531	9953.13
480.735	9647.98
480.94	9774.95
481.144	9965.42
481.348	9637.74
481.553	9463.66
481.757	9324.4
481.961	9535.34
482.166	9641.84
482.37	9430.9
482.574	9461.62
482.778	9373.55
482.983	9461.62
483.187	9291.63
483.391	9420.66
483.595	9465.71
483.8	9322.35
484.004	9398.13
484.208	9521.01
484.412	9283.44
484.616	9445.23
484.821	9414.51
485.025	9385.84
485.229	9637.74
485.433	9410.42
485.637	9355.12
485.841	9353.07
486.045	9312.11
486.249	9295.73
486.453	9281.39
486.657	9484.14
486.861	9365.36
487.065	9066.36
487.269	9379.7
487.473	9150.32
487.677	9678.7
487.881	9303.92
488.085	9342.83
488.289	9453.42
488.493	9609.07
488.697	9394.03
488.901	9578.35
489.105	9379.7
489.309	9596.78
489.512	9688.94
489.716	9527.15
489.92	9543.53
490.124	9406.32
490.328	9762.67
490.531	9453.42
490.735	9693.04
490.939	9637.74
491.143	9721.71
491.346	9725.8
491.55	9793.39
491.754	9672.56
491.958	9822.06
492.161	9842.54
492.365	9891.69
492.569	9699.18
492.772	9992.04
492.976	9985.9
493.18	10084.2
493.383	10184.55
493.587	10071.91
493.79	10422.11
493.994	10039.14
494.197	10332
494.401	10454.88
494.605	10481.5
494.808	10696.54
495.012	10694.49
495.215	10637.15
495.419	10663.77
495.622	10665.82
495.825	10835.8
496.029	10966.87
496.232	11073.37
496.436	10985.3
496.639	11454.29
496.843	11366.23
497.046	11532.11
497.249	11722.57
497.453	11634.51
497.656	12054.34
497.859	12001.1
498.063	12015.43
498.266	12152.65
498.469	12144.45
498.673	12316.48
498.876	12429.12
499.079	12672.83
499.282	12552
499.485	12777.28
499.689	13125.43
499.892	13295.41
500.095	13236.02
500.298	13692.72
500.501	13449.01
500.705	13956.91
500.908	14145.32
501.111	14163.75
501.314	14233.38
501.517	14300.97
501.72	14518.05
501.923	14468.9
502.126	14950.17
502.329	14911.26
502.532	14958.36
502.735	15142.68
502.938	15251.22
503.141	15576.85
503.344	15699.73
503.547	15513.36
503.75	15982.35
503.953	16369.41
504.156	16617.22
504.359	16506.63
504.562	16736
504.765	17006.33
504.968	17168.12
505.17	17286.9
505.373	17239.8
505.576	17647.35
505.779	17798.9
505.982	17997.55
506.185	17870.58
506.387	18693.86
506.59	18333.42
506.793	18773.73
506.996	18855.65
507.198	19404.5
507.401	19189.47
507.604	19504.85
507.807	19904.21
508.009	20068.05
508.212	20129.48
508.415	20512.46
508.617	20188.88
508.82	20836.03
509.022	20598.47
509.225	20987.58
509.428	21110.46
509.63	21358.27
509.833	21462.71
510.035	22269.61
510.238	22120.11
510.44	22259.37
510.643	22384.3
510.845	22875.81
511.048	22660.77
511.25	22750.88
511.453	23398.04
511.655	23770.77
511.858	23641.75
512.06	23836.31
512.262	23922.32
512.465	23932.56
512.667	24671.88
512.87	24444.56
513.072	24731.27
513.274	25427.58
513.477	25173.63
513.679	25548.41
513.881	25749.11
514.084	26121.84
514.286	26019.44
514.488	26572.39
514.69	26914.41
514.893	26994.28
515.095	27180.64
515.297	27393.63
515.499	27393.63
515.701	28112.47
515.904	28405.33
516.106	28145.23
516.308	28646.99
516.51	29017.67
516.712	28851.78
516.914	28759.63
517.116	29763.13
517.318	29460.03
517.52	30033.46
517.722	29716.03
517.925	30117.43
518.127	30522.93
518.329	30737.96
518.531	30684.72
518.733	31342.11
518.935	31405.6
519.136	31512.1
519.338	32024.09
519.54	32024.09
519.742	32255.51
519.944	32515.6
520.146	33273.35
520.348	33295.88
520.55	33181.19
520.752	33390.08
520.954	33533.44
521.155	33297.92
521.357	34153.97
521.559	34252.28
521.761	34616.82
521.963	34575.86
522.164	34878.96
522.366	34801.13
522.568	35116.52
522.77	35034.6
522.971	35896.8
523.173	35706.34
523.375	35861.98
523.576	36054.49
523.778	35786.21
523.98	36677.07
524.181	36947.4
524.383	36568.53
524.584	37197.26
524.786	37359.05
524.988	37055.95
525.189	37516.74
525.391	37543.36
525.592	38063.55
525.794	37942.72
525.995	37897.66
526.197	37768.64
526.398	37928.38
526.6	38641.07
526.801	38747.57
527.003	38745.52
527.204	38665.65
527.406	39087.53
527.607	39058.86
527.808	39296.42
528.01	38342.07
528.211	38809.01
528.412	39951.77
528.614	39695.78
528.815	39810.46
529.016	39755.17
529.218	39433.64
529.419	39753.12
529.62	39896.48
529.822	39468.45
530.023	40088.99
530.224	39884.19
530.425	39839.14
530.626	39669.15
530.828	39599.52
531.029	40629.65
531.23	40023.45
531.431	39935.39
531.632	40238.49
531.833	40531.35
532.035	40238.49
532.236	40439.19
532.437	40717.71
532.638	40248.73
532.839	40535.45
533.04	40844.69
533.241	39998.88
533.442	41194.89
533.643	40484.25
533.844	40752.53
534.045	40756.63
534.246	40482.2
534.447	40689.04
534.648	40971.66
534.849	40783.25
535.05	40240.54
535.251	41112.97
535.451	40672.66
535.652	40920.46
535.853	40865.17
536.054	40803.73
536.255	40818.07
536.456	40750.48
536.657	41065.87
536.857	40873.36
537.058	40588.69
537.259	40947.09
537.46	40717.71
537.66	40717.71
537.861	40986
538.062	40926.61
538.263	40664.47
538.463	40457.62
538.664	40603.03
538.865	40514.97
539.065	40822.16
539.266	40459.67
539.466	40687
539.667	40170.91
539.868	40916.37
540.068	40572.31
540.269	40101.28
540.469	41014.67
540.67	39998.88
540.87	40621.46
541.071	40766.87
541.271	40551.83
541.472	40232.35
541.672	40224.15
541.873	40383.9
542.073	39982.49
542.274	40744.34
542.474	40506.77
542.675	40168.86
542.875	40289.69
543.075	40846.74
543.276	39937.44
543.476	40523.16
543.676	40228.25
543.877	40617.36
544.077	40234.39
544.277	40082.84
544.478	40400.28
544.678	40420.76
544.878	40514.97
545.078	39984.54
545.279	40076.7
545.479	40273.31
545.679	40531.35
545.879	40301.98
546.079	40011.17
546.28	39994.78
546.48	39855.52
546.68	40547.73
546.88	40168.86
547.08	40005.02
547.28	40009.12
547.48	40048.03
547.68	40723.86
547.88	39814.56
548.081	39906.72
548.281	39933.34
548.481	39964.06
548.681	40172.95
548.881	40318.36
549.081	39912.86
549.28	39550.37
549.48	40195.48
549.68	39845.28
549.88	40138.14
550.08	39916.96
550.28	40209.82
550.48	39873.95
550.68	40267.16
550.88	39986.59
551.08	39404.97
551.279	39894.43
551.479	39353.77
551.679	39552.42
551.879	39499.17
552.079	40132
552.278	39361.96
552.478	39927.2
552.678	39814.56
552.878	40134.04
553.077	39640.48
553.277	39312.81
553.477	40074.65
553.676	39622.05
553.876	39585.19
554.076	39667.11
554.275	39519.65
554.475	39241.13
554.674	39554.47
554.874	39851.42
555.074	39220.65
555.273	39437.73
555.473	39630.24
555.672	39048.62
555.872	39443.88
556.071	38989.23
556.271	39351.72
556.47	39003.56
556.67	39044.52
556.869	39052.72
557.068	38845.87
557.268	38643.12
557.467	38925.74
557.667	39216.55
557.866	38981.04
558.065	38884.78
558.265	38757.81
558.464	38974.89
558.663	38872.49
558.863	37952.96
559.062	39130.54
559.261	38071.74
559.461	38800.82
559.66	38186.43
559.859	38661.55
560.058	38227.38
560.258	38557.11
560.457	38217.14
560.656	38370.74
560.855	38249.91
561.054	38077.88
561.253	37578.18
561.453	38034.88
561.652	38286.78
561.851	38206.9
562.05	37598.66
562.249	37481.92
562.448	38084.03
562.647	38194.62
562.846	38051.26
563.045	37950.91
563.244	37373.38
563.443	37918.14
563.642	37496.26
563.841	37494.21
564.04	37664.19
564.239	38053.31
564.438	37457.35
564.637	37346.76
564.836	37463.49
565.035	36988.36
565.234	37449.16
565.432	37000.65
565.631	36677.07
565.83	37129.67
566.029	36994.51
566.228	36632.02
566.427	36746.7
566.625	36693.46
566.824	36406.74
567.023	36832.72
567.222	36283.86
567.42	36869.58
567.619	36421.08
567.818	36003.29
568.016	36085.21
568.215	36546
568.414	35864.03
568.612	36330.97
568.811	35843.55
569.01	35978.71
569.208	35710.43
569.407	36158.94
569.605	35493.35
569.804	36070.87
570.002	35446.24
570.201	35589.6
570.4	35323.36
570.598	35358.18
570.797	35366.37
570.995	35673.57
571.193	35024.36
571.392	35544.55
571.59	35091.94
571.789	35257.83
571.987	34788.85
572.186	35073.51
572.384	34858.48
572.582	35018.22
572.781	34938.35
572.979	34414.07
573.177	34694.64
573.376	34639.34
573.574	34151.93
573.772	34461.17
573.971	34158.07
574.169	34033.14
574.367	33674.75
574.565	34051.58
574.763	34020.86
574.962	34166.26
575.16	33494.53
575.358	33981.95
575.556	33187.33
575.754	34156.02
575.952	33717.76
576.151	33635.84
576.349	33322.5
576.547	33179.14
576.745	33351.17
576.943	33558.02
577.141	33046.02
577.339	33230.34
577.537	32988.68
577.735	32980.49
577.933	32781.84
578.131	32974.34
578.329	32738.83
578.527	32521.74
578.725	32462.35
578.923	32511.5
579.121	32491.02
579.319	32732.68
579.516	32693.77
579.714	32542.22
579.912	32298.52
580.11	32278.04
580.308	32337.43
580.506	32103.96
580.704	31497.76
580.901	32011.8
581.099	32257.56
581.297	31538.72
581.495	31528.48
581.692	31610.4
581.89	31118.89
582.088	31462.94
582.285	31223.33
582.483	31542.81
582.681	31585.82
582.878	31098.41
583.076	30877.22
583.274	31229.48
583.471	30586.41
583.669	31153.7
583.866	30699.05
584.064	30766.63
584.262	30256.69
584.459	30701.1
584.657	30580.27
584.854	30324.27
585.052	30082.61
585.249	30508.59
585.447	30162.48
585.644	29955.64
585.841	30062.13
586.039	30389.81
586.236	29693.5
586.434	29707.83
586.631	29734.46
586.828	29636.16
587.026	29625.92
587.223	29398.59
587.42	29519.42
587.618	29265.47
587.815	29249.09
588.012	28917.32
588.21	29087.3
588.407	29447.74
588.604	28806.73
588.801	29083.2
588.999	28841.54
589.196	28677.71
589.393	28651.08
589.59	28796.49
589.787	28552.78
589.984	28198.48
590.182	28337.74
590.379	28593.74
590.576	27987.54
590.773	28073.56
590.97	27885.14
591.167	28417.61
591.364	27553.37
591.561	27797.08
591.758	27403.87
591.955	27745.88
592.152	28202.58
592.349	27317.86
592.546	27391.58
592.743	27616.86
592.94	27039.33
593.137	27356.77
593.334	27016.8
593.531	26699.37
593.727	27225.7
593.924	26994.28
594.121	26689.13
594.318	26977.89
594.515	26459.76
594.712	27014.76
594.908	26875.49
595.105	26742.38
595.302	26244.72
595.499	26179.18
595.696	26289.77
595.892	25968.24
596.089	26019.44
596.286	26099.31
596.482	25669.24
596.679	26037.87
596.876	25476.73
597.072	25636.47
597.269	25482.88
597.466	25435.77
597.662	25415.29
597.859	25884.28
598.055	25443.96
598.252	25265.79
598.448	25446.01
598.645	25187.97
598.841	24944.26
599.038	24974.98
599.234	24958.6
599.431	24915.59
599.627	24616.58
599.824	25067.14
600.02	24639.11
600.217	24581.77
600.413	24786.57
600.609	24202.89
600.806	24327.82
601.002	24637.06
601.198	24194.7
601.395	24016.53
601.591	23639.7
601.787	24315.53
601.984	24088.21
602.18	24159.89
602.376	23680.66
602.572	23635.61
602.769	23703.19
602.965	23574.17
603.161	23613.08
603.357	23426.71
603.553	23299.74
603.75	23723.67
603.946	22906.53
604.142	23338.65
604.338	23090.85
604.534	23443.1
604.73	22746.79
604.926	22892.19
605.122	22871.71
605.318	22744.74
605.514	23045.79
605.71	22668.97
605.906	22683.3
606.102	22601.38
606.298	22693.54
606.494	22120.11
606.69	22288.04
606.886	22757.03
607.082	22275.76
607.278	22093.49
607.474	21966.51
607.67	22320.81
607.866	21595.83
608.062	22320.81
608.257	22075.06
608.453	22163.12
608.649	21855.92
608.845	21870.26
609.041	21767.86
609.236	21974.7
609.432	21573.3
609.628	22066.86
609.824	21468.86
610.019	21642.93
610.215	21522.1
610.411	22019.76
610.606	21401.27
610.802	21520.06
610.998	21272.25
611.193	21391.03
611.389	21219
611.584	21173.95
611.78	21282.49
611.976	21143.23
612.171	21370.55
612.367	21112.51
612.562	20932.29
612.758	20772.55
612.953	20731.59
613.149	21192.38
613.344	20508.36
613.539	21247.68
613.735	20649.67
613.93	20999.87
614.126	20707.01
614.321	20688.58
614.517	20686.53
614.712	20690.63
614.907	20481.74
615.103	20682.44
615.298	20403.91
615.493	20735.68
615.688	20297.42
615.884	20565.7
616.079	20201.16
616.274	20520.65
616.47	20471.5
616.665	20479.69
616.86	20096.72
617.055	20276.94
617.25	20080.33
617.445	20295.37
617.641	19863.25
617.836	20104.91
618.031	19785.43
618.226	19969.74
618.421	19664.6
618.616	20225.74
618.811	19345.11
619.006	19928.78
619.201	19304.15
619.396	19429.08
619.591	19021.53
619.786	19363.54
619.981	18837.22
620.176	19271.39
620.371	18980.57
620.566	18939.61
620.761	18722.53
620.956	19119.84
621.151	18714.34
621.346	18986.72
621.541	18345.7
621.735	18570.98
621.93	18351.85
622.125	18360.04
622.32	18296.55
622.515	18061.04
622.709	17893.1
622.904	18263.79
623.099	17995.5
623.294	17948.4
623.488	17719.03
623.683	17622.77
623.878	17368.82
624.072	17540.85
624.267	17557.24
624.462	17374.97
624.656	17221.37
624.851	17157.88
625.046	16832.26
625.24	16916.22
625.435	16822.02
625.629	16713.47
625.824	16578.31
626.018	16680.71
626.213	16316.17
626.407	16563.97
626.602	16258.82
626.796	16428.81
626.991	15922.96
627.185	16109.32
627.38	16068.36
627.574	15994.64
627.768	16156.43
627.963	15671.06
628.157	15425.3
628.352	15793.93
628.546	15410.96
628.74	15529.75
628.935	15097.63
629.129	15390.49
629.323	14794.53
629.517	15079.19
629.712	15040.28
629.906	15116.06
630.1	14577.44
630.294	14614.3
630.489	14688.03
630.683	14591.78
630.877	14503.71
631.071	14458.66
631.265	14442.28
631.459	14327.59
631.653	14196.52
631.848	14143.27
632.042	14163.75
632.236	13954.86
632.43	13963.05
632.624	14098.22
632.818	13682.48
633.012	13674.29
633.206	13700.91
633.4	13688.62
633.594	13399.86
633.788	13408.05
633.982	13315.89
634.176	13549.36
634.369	13143.86
634.563	13227.83
634.757	12924.73
634.951	13330.23
635.145	12998.46
635.339	12812.09
635.533	12832.57
635.726	12785.47
635.92	12572.48
636.114	12521.28
636.308	12748.61
636.501	12255.05
636.695	12603.2
636.889	12279.62
637.083	12347.2
637.276	12152.65
637.47	12091.21
637.664	12029.77
637.857	12126.02
638.051	12171.08
638.244	11960.14
638.438	11894.6
638.632	11915.08
638.825	11872.07
639.019	11724.62
639.212	11669.33
639.406	11532.11
639.599	11618.13
639.793	11564.88
639.986	11341.65
640.18	11560.78
640.373	11349.84
640.567	11024.22
640.76	11212.63
640.954	11102.04
641.147	10977.11
641.34	10884.95
641.534	10997.59
641.727	10778.46
641.92	11036.5
642.114	10743.64
642.307	10659.68
642.5	10731.36
642.694	10741.6
642.887	10542.94
643.08	10741.6
643.273	10477.41
643.467	10510.18
643.66	10520.42
643.853	10391.39
644.046	10071.91
644.239	9983.85
644.432	10129.25
644.626	9944.94
644.819	10043.24
645.012	10047.33
645.205	9961.32
645.398	9969.51
645.591	9793.39
645.784	10000.23
645.977	9537.39
646.17	9627.5
646.363	9551.73
646.556	9387.89
646.749	9506.67
646.942	9398.13
647.135	9367.41
647.328	9600.88
647.521	9508.72
647.714	9348.98
647.907	9021.3
648.099	9346.93
648.292	9215.86
648.485	9101.17
648.678	9084.79
648.871	9056.12
649.064	9004.92
649.256	8916.86
649.449	8847.23
649.642	8750.97
649.835	8818.55
650.027	8587.13
650.22	8730.49
650.413	8585.08
650.605	8415.1
650.798	8554.37
650.991	8439.68
651.183	8501.12
651.376	8275.84
651.568	8507.26
651.761	8238.98
651.954	8322.94
652.146	8316.8
652.339	8222.59
652.531	8249.22
652.724	8183.68
652.916	7880.58
653.109	7997.32
653.301	8003.46
653.494	7991.17
653.686	7782.28
653.879	7903.11
654.071	7751.56
654.263	7763.85
654.456	7798.66
654.648	7710.6
654.84	7632.78
655.033	7446.41
655.225	7528.33
655.417	7554.96
655.61	7694.22
655.802	7514
655.994	7442.32
656.186	7384.98
656.379	7243.67
656.571	7282.58
656.763	7327.63
656.955	7147.41
657.148	7137.17
657.34	7030.68
657.532	7114.64
657.724	7024.53
657.916	6963.09
658.108	6895.51
658.3	6909.85
658.492	6973.33
658.684	6850.46
658.876	6893.46
659.068	6739.87
659.26	6864.79
659.452	6780.82
659.644	6838.17
659.836	6565.79
660.028	6547.36
660.22	6600.6
660.412	6633.37
660.604	6481.82
660.796	6418.33
660.988	6465.44
661.18	6416.29
661.372	6434.72
661.563	6471.58
661.755	6328.22
661.947	6428.57
662.139	6193.06
662.331	6156.19
662.522	6131.62
662.714	6162.34
662.906	6324.13
663.097	5980.07
663.289	6088.61
663.481	5769.13
663.673	6061.99
663.864	5947.3
664.056	5961.64
664.247	5926.82
664.439	5711.78
664.631	5947.3
664.822	5896.1
665.014	5697.45
665.205	5683.11
665.397	5470.12
665.588	5679.02
665.78	5597.1
665.971	5652.39
666.163	5660.59
666.354	5631.91
666.546	5574.57
666.737	5504.94
666.929	5574.57
667.12	5531.56
667.311	5468.08
667.503	5363.63
667.694	5402.54
667.885	5496.75
668.077	5345.2
668.268	5269.42
668.459	5488.56
668.651	5271.47
668.842	5279.66
669.033	5339.05
669.224	5287.86
669.416	5316.53
669.607	5033.91
669.798	5097.39
669.989	5070.77
670.18	4984.76
670.371	5138.35
670.563	5038
670.754	5085.11
670.945	4861.88
671.136	4898.74
671.327	4970.42
671.518	5070.77
671.709	4947.89
671.9	4874.17
672.091	4929.46
672.282	4870.07
672.473	4876.21
672.664	4847.54
672.855	4804.53
673.046	4882.36
673.237	4931.51
673.428	4788.15
673.619	4892.6
673.809	4736.95
674	4616.12
674.191	4673.46
674.382	4714.42
674.573	4646.84
674.764	4601.79
674.954	4691.9
675.145	4663.22
675.336	4634.55
675.527	4620.22
675.717	4734.9
675.908	4440
676.099	4501.44
676.289	4466.62
676.48	4546.49
676.671	4480.96
676.861	4515.77
677.052	4353.98
677.243	4337.6
677.433	4661.18
677.624	4540.35
677.814	4452.28
678.005	4413.37
678.195	4415.42
678.386	4427.71
678.576	4341.69
678.767	4349.89
678.957	4292.54
679.148	4288.45
679.338	4323.26
679.529	4325.31
679.719	4257.73
679.909	4405.18
680.1	4073.41
680.29	4169.66
680.481	4167.62
680.671	4184
680.861	4251.58
681.052	4243.39
681.242	4280.25
681.432	4200.38
681.622	4218.82
681.813	4186.05
682.003	4173.76
682.193	4097.99
682.383	4155.33
682.573	4206.53
682.764	4069.31
682.954	4102.08
683.144	4165.57
683.334	4140.99
683.524	4145.09
683.714	4044.74
683.904	3997.64
684.094	4083.65
684.284	4073.41
684.474	3946.44
684.664	3993.54
684.854	3942.34
685.044	4204.48
685.234	3971.01
685.424	3907.52
685.614	3925.96
685.804	3930.05
685.994	3964.87
686.184	4032.45
686.374	4038.59
686.564	3817.41
686.753	3641.29
686.943	3825.61
687.133	3870.66
687.323	3825.61
687.513	3819.46
687.702	3635.14
687.892	3858.37
688.082	3745.73
688.272	3774.41
688.461	3706.82
688.651	3702.73
688.841	3616.71
689.03	3706.82
689.22	3743.69
689.41	3688.39
689.599	3551.18
689.789	3645.38
689.979	3596.23
690.168	3444.68
690.358	3471.31
690.547	3563.47
690.737	3573.71
690.926	3497.93
691.116	3321.81
691.305	3547.08
691.495	3465.16
691.684	3311.57
691.874	3405.77
692.063	3409.87
692.252	3239.89
692.442	3383.24
692.631	3293.13
692.82	3272.65
693.01	3276.75
693.199	3172.3
693.388	3203.02
693.578	3149.78
693.767	3198.93
693.956	3272.65
694.146	3123.15
694.335	3123.15
694.524	3162.06
694.713	3151.82
694.902	3190.74
695.092	3004.37
695.281	3004.37
695.47	2975.7
695.659	2932.69
695.848	3106.77
696.037	3069.91
696.226	3049.43
696.415	3108.82
696.604	3033.04
696.793	3092.43
696.982	2936.79
697.171	2990.03
697.36	2858.96
697.549	2938.84
697.738	2942.93
697.927	2987.99
698.116	2924.5
698.305	2854.87
698.494	2772.95
698.683	2723.8
698.872	2832.34
699.061	2756.57
699.25	2820.05
699.438	2809.81
699.627	2781.14
699.816	2764.76
700.005	2795.48
700.193	2691.03
700.382	2832.34
700.571	2637.78
700.76	2762.71
700.948	2734.04
701.137	2717.65
701.326	2668.5
701.514	2729.94
701.703	2592.73
701.892	2564.06
702.08	2797.53
702.269	2641.88
702.457	2711.51
702.646	2707.41
702.834	2539.48
703.023	2664.41
703.212	2699.22
703.4	2744.28
703.589	2596.82
703.777	2650.07
703.965	2574.3
704.154	2535.39
704.342	2494.43
704.531	2551.77
704.719	2480.09
704.907	2607.06
705.096	2480.09
705.284	2582.49
705.472	2553.82
705.661	2613.21
705.849	2639.83
706.037	2506.71
706.226	2521.05
706.414	2545.63
706.602	2574.3
706.79	2404.32
706.979	2402.27
707.167	2461.66
707.355	2592.73
707.543	2521.05
707.731	2465.75
707.919	2396.12
708.107	2547.67
708.296	2553.82
708.484	2506.71
708.672	2502.62
708.86	2547.67
709.048	2637.78
709.236	2467.8
709.424	2437.08
709.612	2439.13
709.8	2523.1
709.988	2426.84
710.176	2400.22
710.364	2418.65
710.551	2562.01
710.739	2426.84
710.927	2463.71
711.115	2414.56
711.303	2600.92
711.491	2422.75
711.679	2475.99
711.866	2443.23
712.054	2445.27
712.242	2363.36
712.43	2484.19
712.617	2437.08
712.805	2525.15
712.993	2349.02
713.181	2471.9
713.368	2592.73
713.556	2537.43
713.744	2461.66
713.931	2426.84
714.119	2445.27
714.306	2521.05
714.494	2455.51
714.682	2488.28
714.869	2437.08
715.057	2432.99
715.244	2355.16
715.432	2457.56
715.619	2588.63
715.807	2492.38
715.994	2535.39
716.182	2555.86
716.369	2525.15
716.556	2598.87
716.744	2516.95
716.931	2539.48
717.119	2541.53
717.306	2519
717.493	2572.25
717.681	2385.88
717.868	2588.63
718.055	2543.58
718.242	2588.63
718.43	2459.61
718.617	2529.24
718.804	2435.03
718.991	2541.53
719.179	2551.77
719.366	2637.78
719.553	2475.99
719.74	2557.91
719.927	2551.77
720.114	2607.06
720.301	2533.34
720.488	2527.19
720.676	2523.1
720.863	2484.19
721.05	2453.47
721.237	2498.52
721.424	2592.73
721.611	2525.15
721.798	2559.96
721.985	2486.23
722.172	2529.24
722.358	2488.28
722.545	2478.04
722.732	2529.24
722.919	2648.02
723.106	2455.51
723.293	2500.57
723.48	2486.23
723.667	2408.41
723.853	2502.62
724.04	2543.58
724.227	2596.82
724.414	2641.88
724.6	2533.34
724.787	2639.83
724.974	2519
725.161	2519
725.347	2598.87
725.534	2664.41
725.72	2519
725.907	2637.78
726.094	2641.88
726.28	2510.81
726.467	2562.01
726.653	2662.36
726.84	2572.25
727.027	2527.19
727.213	2504.67
727.4	2572.25
727.586	2502.62
727.773	2547.67
727.959	2586.58
728.145	2562.01
728.332	2551.77
728.518	2605.02
728.705	2527.19
728.891	2670.55
729.077	2680.79
729.264	2645.98
729.45	2590.68
729.636	2746.33
729.823	2527.19
730.009	2596.82
730.195	2500.57
730.382	2617.3
730.568	2582.49
730.754	2613.21
730.94	2686.93
731.126	2574.3
731.313	2801.62
731.499	2627.54
731.685	2695.13
731.871	2623.45
732.057	2545.63
732.243	2723.8
732.429	2658.26
732.615	2645.98
732.801	2496.47
732.987	2564.06
733.173	2586.58
733.359	2711.51
733.545	2613.21
733.731	2656.22
733.917	2660.31
734.103	2611.16
734.289	2590.68
734.475	2586.58
734.661	2602.97
734.847	2506.71
735.033	2705.37
735.219	2568.15
735.404	2557.91
735.59	2621.4
735.776	2602.97
735.962	2576.34
736.148	2670.55
736.333	2625.5
736.519	2617.3
736.705	2502.62
736.89	2613.21
737.076	2643.93
737.262	2578.39
737.447	2551.77
737.633	2439.13
737.819	2559.96
738.004	2469.85
738.19	2617.3
738.375	2531.29
738.561	2514.91
738.747	2543.58
738.932	2482.14
739.118	2547.67
739.303	2514.91
739.489	2519
739.674	2475.99
739.859	2504.67
740.045	2594.78
740.23	2418.65
740.416	2541.53
740.601	2486.23
740.786	2568.15
740.972	2363.36
741.157	2574.3
741.342	2344.92
741.528	2414.56
741.713	2443.23
741.898	2402.27
742.084	2346.97
742.269	2377.69
742.454	2365.4
742.639	2412.51
742.824	2426.84
743.01	2426.84
743.195	2328.54
743.38	2514.91
743.565	2326.49
743.75	2301.92
743.935	2275.29
744.12	2383.84
744.305	2408.41
744.49	2330.59
744.675	2273.25
744.86	2385.88
745.045	2230.24
745.23	2230.24
745.415	2236.38
745.6	2226.14
745.785	2236.38
745.97	2273.25
746.155	2246.62
746.34	2166.75
746.525	2236.38
746.71	2273.25
746.895	2144.22
747.079	2166.75
747.264	2136.03
747.449	2199.52
747.634	2179.04
747.819	2123.74
748.003	2076.64
748.188	2107.36
748.373	2070.5
748.557	2107.36
748.742	2025.44
748.927	2023.39
749.111	2037.73
749.296	2041.82
749.481	2074.59
749.665	2015.2
749.85	1968.1
750.034	1970.15
750.219	1957.86
750.404	1884.13
750.588	1994.72
750.773	1896.42
750.957	1943.52
751.141	1771.49
751.326	1918.95
751.51	1900.51
751.695	1769.44
751.879	1832.93
752.064	1791.97
752.248	1763.3
752.432	1822.69
752.617	1785.83
752.801	1765.35
752.985	1818.6
753.17	1826.79
753.354	1679.33
753.538	1736.68
753.722	1640.42
753.907	1767.4
754.091	1621.99
754.275	1699.81
754.459	1712.1
754.643	1632.23
754.828	1624.04
755.012	1634.28
755.196	1628.14
755.38	1533.93
755.564	1732.58
755.748	1486.83
755.932	1607.66
756.116	1581.03
756.3	1404.91
756.484	1505.26
756.668	1486.83
756.852	1503.21
757.036	1482.73
757.22	1562.6
757.404	1531.88
757.588	1535.98
757.772	1452.01
757.956	1468.39
758.14	1413.1
758.323	1456.11
758.507	1382.38
758.691	1384.43
758.875	1456.11
759.059	1390.57
759.242	1355.76
759.426	1429.48
759.61	1310.7
759.794	1333.23
759.977	1337.32
760.161	1398.76
760.345	1380.33
760.528	1355.76
760.712	1318.89
760.895	1257.45
761.079	1204.21
761.263	1316.84
761.446	1382.38
761.63	1306.6
761.813	1327.08
761.997	1216.49
762.18	1114.09
762.364	1359.85
762.547	1163.25
762.731	1179.63
762.914	1175.53
763.098	1191.92
763.281	1134.57
763.464	1230.83
763.648	1296.36
763.831	1191.92
764.015	1181.68
764.198	1161.2
764.381	1116.14
764.564	1216.49
764.748	1198.06
764.931	1081.33
765.114	1112.05
765.297	1173.49
765.481	1081.33
765.664	1157.1
765.847	1066.99
766.03	1075.18
766.213	1095.66
766.397	1091.57
766.58	1112.05
766.763	1148.91
766.946	1091.57
767.129	1060.85
767.312	1087.47
767.495	1138.67
767.678	1075.18
767.861	1062.9
768.044	1017.84
768.227	1120.24
768.41	1069.04
768.593	1091.57
768.776	1032.18
768.959	989.17
769.142	1032.18
769.324	1060.85
769.507	989.17
769.69	978.93
769.873	989.17
770.056	1085.42
770.239	1023.98
770.421	966.64
770.604	1013.74
770.787	995.31
770.97	890.87
771.152	993.26
771.335	946.16
771.518	987.12
771.7	978.93
771.883	894.96
772.066	974.83
772.248	985.07
772.431	937.97
772.613	878.58
772.796	864.24
772.978	915.44
773.161	915.44
773.343	811
773.526	833.52
773.708	929.78
773.891	880.63
774.073	798.71
774.256	849.91
774.438	954.35
774.621	843.76
774.803	903.15
774.985	829.43
775.168	845.81
775.35	739.32
775.532	827.38
775.715	790.52
775.897	825.33
776.079	782.32
776.261	847.86
776.444	829.43
776.626	776.18
776.808	796.66
776.99	796.66
777.173	722.93
777.355	706.55
777.537	815.09
777.719	677.88
777.901	790.52
778.083	677.88
778.265	628.73
778.447	772.08
778.629	632.82
778.811	794.61
778.993	694.26
779.175	706.55
779.357	702.45
779.539	704.5
779.721	653.3
779.903	632.82
780.085	671.73
780.267	630.77
780.449	626.68
780.631	657.4
780.812	645.11
780.994	673.78
781.176	610.29
781.358	620.53
781.54	614.39
781.721	610.29
781.903	671.73
782.085	616.44
782.267	628.73
782.448	641.01
782.63	624.63
782.812	544.76
782.993	528.38
783.175	505.85
783.357	593.91
783.538	518.14
783.72	544.76
783.901	561.14
784.083	520.18
784.264	542.71
784.446	436.22
784.627	466.94
784.809	602.1
784.99	536.57
785.172	557.05
785.353	534.52
785.535	520.18
785.716	436.22
785.897	454.65
786.079	450.55
786.26	511.99
786.441	499.7
786.623	450.55
786.804	475.13
786.985	464.89
787.167	468.98
787.348	487.42
787.529	464.89
787.71	444.41
787.891	479.22
788.073	407.55
788.254	372.73
788.435	397.31
788.616	425.98
788.797	387.07
788.978	493.56
789.159	450.55
789.34	493.56
789.522	350.2
789.703	364.54
789.884	348.15
790.065	442.36
790.246	417.79
790.427	370.68
790.607	356.35
790.788	360.44
790.969	438.27
791.15	395.26
791.331	376.83
791.512	339.96
791.693	380.92
791.874	370.68
792.054	378.87
792.235	360.44
792.416	370.68
792.597	303.1
792.778	327.67
792.958	401.4
793.139	389.11
793.32	309.24
793.5	309.24
793.681	374.78
793.862	380.92
794.042	327.67
794.223	319.48
794.404	395.26
794.584	342.01
794.765	296.96
794.945	319.48
795.126	346.11
795.306	325.63
795.487	303.1
795.667	393.21
795.848	284.67
796.028	266.24
796.209	309.24
796.389	307.2
796.57	327.67
796.75	296.96
796.93	260.09
797.111	317.44
797.291	223.23
797.471	290.81
797.652	319.48
797.832	258.04
798.012	278.52
798.192	225.28
798.373	196.61
798.553	282.62
798.733	301.05
798.913	235.52
799.093	292.86
799.274	241.66
799.454	284.67
799.634	274.43
799.814	260.09
799.994	215.04
800.174	243.71
800.354	217.08
800.534	292.86
800.714	274.43
800.894	221.18
801.074	221.18
801.254	266.24
801.434	264.19
801.614	268.28
801.794	167.93
801.974	593.91
802.154	262.14
802.334	239.61
802.514	243.71
802.693	241.66
802.873	208.89
803.053	249.85
803.233	229.37
803.413	188.41
803.592	188.41
803.772	217.08
803.952	204.8
804.131	184.32
804.311	184.32
804.491	260.09
804.67	163.84
804.85	182.27
805.03	231.42
805.209	241.66
805.389	223.23
805.568	157.69
805.748	143.36
805.928	135.17
806.107	206.84
806.287	221.18
806.466	180.22
806.646	186.37
806.825	83.97
807.004	143.36
807.184	182.27
807.363	194.56
807.543	227.32
807.722	190.46
807.901	180.22
808.081	260.09
808.26	149.5
808.439	204.8
808.619	200.7
808.798	208.89
808.977	208.89
809.156	256
809.336	221.18
809.515	239.61
809.694	208.89
809.873	176.13
810.052	143.36
810.231	135.17
810.411	204.8
810.59	192.51
810.769	210.94
810.948	198.65
811.127	206.84
811.306	141.31
811.485	143.36
811.664	194.56
811.843	137.21
812.022	215.04
812.201	88.06
812.38	163.84
812.559	172.03
812.737	188.41
812.916	126.97
813.095	212.99
813.274	147.45
813.453	151.55
813.632	133.12
813.811	165.89
813.989	135.17
814.168	124.93
814.347	106.49
814.526	141.31
814.704	149.5
814.883	110.59
815.062	178.17
815.24	217.08
815.419	122.88
815.598	116.73
815.776	192.51
815.955	163.84
816.133	196.61
816.312	108.54
816.49	81.92
816.669	165.89
816.847	165.89
817.026	139.26
817.204	129.02
817.383	145.41
817.561	79.87
817.74	157.69
817.918	114.69
818.097	98.3
818.275	145.41
818.453	165.89
818.632	124.93
818.81	83.97
818.988	86.01
819.167	114.69
819.345	135.17
819.523	92.16
819.701	104.45
819.879	147.45
820.058	174.08
820.236	77.82
820.414	102.4
820.592	147.45
820.77	114.69
820.948	114.69
821.127	124.93
821.305	98.3
821.483	112.64
821.661	149.5
821.839	114.69
822.017	55.3
822.195	108.54
822.373	96.25
822.551	63.49
822.729	151.55
822.907	38.91
823.085	139.26
823.262	108.54
823.44	139.26
823.618	116.73
823.796	61.44
823.974	116.73
824.152	86.01
824.329	120.83
824.507	131.07
824.685	69.63
824.863	53.25
825.04	149.5
825.218	96.25
825.396	53.25
825.574	83.97
825.751	16.38
825.929	102.4
826.107	124.93
826.284	135.17
826.462	32.77
826.639	-4.1
826.817	69.63
826.994	88.06
827.172	98.3
827.349	110.59
827.527	102.4
827.704	129.02
827.882	63.49
828.059	38.91
828.237	114.69
828.414	172.03
828.591	53.25
828.769	75.77
828.946	106.49
829.124	116.73
829.301	139.26
829.478	96.25
829.655	30.72
829.833	92.16
830.01	106.49
830.187	110.59
830.364	104.45
830.542	30.72
830.719	96.25
830.896	149.5
831.073	137.21
831.25	67.58
831.427	120.83
831.604	104.45
831.782	67.58
831.959	59.39
832.136	16.38
832.313	81.92
832.49	24.58
832.667	106.49
832.844	8.19
833.021	8.19
833.198	65.54
833.374	69.63
833.551	86.01
833.728	63.49
833.905	88.06
834.082	28.67
834.259	90.11
834.436	36.86
834.612	16.38
834.789	6.14
834.966	45.06
835.143	94.21
835.319	26.62
835.496	69.63
835.673	77.82
835.85	47.1
836.026	16.38
836.203	77.82
836.38	36.86
836.556	4.1
836.733	40.96
836.909	126.97
837.086	26.62
837.262	28.67
837.439	22.53
837.616	12.29
837.792	28.67
837.968	55.3
838.145	38.91
838.321	57.34
838.498	86.01
838.674	45.06
838.851	96.25
839.027	36.86
839.203	49.15
839.38	69.63
839.556	79.87
839.732	-47.1
839.909	26.62
840.085	59.39
840.261	-22.53
840.437	100.35
840.614	141.31
840.79	102.4
840.966	20.48
841.142	20.48
841.318	71.68
841.494	118.78
841.671	14.34
841.847	45.06
842.023	49.15
842.199	-2.05
842.375	77.82
842.551	57.34
842.727	-47.1
842.903	141.31
843.079	38.91
843.255	12.29
843.431	-24.58
843.607	55.3
843.783	26.62
843.959	14.34
844.134	79.87
844.31	32.77
844.486	-2.05
844.662	32.77
844.838	43.01
845.013	102.4
845.189	63.49
845.365	-4.1
845.541	26.62
845.716	59.39
845.892	16.38
846.068	-4.1
846.244	14.34
846.419	40.96
846.595	24.58
846.77	43.01
846.946	14.34
847.122	47.1
847.297	36.86
847.473	63.49
847.648	-12.29
847.824	63.49
847.999	-40.96
848.175	26.62
848.35	155.65
848.526	49.15
848.701	86.01
848.876	-30.72
849.052	16.38
849.227	81.92
849.403	45.06
849.578	49.15
849.753	43.01
849.929	90.11
850.104	-4.1
850.279	-47.1
850.454	32.77
850.63	67.58
850.805	49.15
850.98	-71.68
851.155	14.34
851.33	98.3
851.505	16.38
851.681	20.48
851.856	16.38
852.031	45.06
852.206	10.24
852.381	-24.58
852.556	6.14
852.731	53.25
852.906	26.62
853.081	30.72
853.256	57.34
853.431	94.21
853.606	-4.1
853.781	18.43
853.956	-10.24
854.131	69.63
854.305	83.97
854.48	12.29
854.655	26.62
854.83	-4.1
855.005	-8.19
855.18	32.77
855.354	51.2
855.529	36.86
855.704	-40.96
855.879	-2.05
856.053	-47.1
856.228	77.82
856.403	-12.29
856.577	49.15
856.752	0
856.926	-6.14
857.101	16.38
857.276	-20.48
857.45	69.63
857.625	49.15
857.799	-6.14
857.974	55.3
858.148	4.1
858.323	51.2
858.497	-51.2
858.672	-24.58
858.846	-53.25
859.02	8.19
859.195	45.06
859.369	8.19
859.543	22.53
859.718	4.1
859.892	47.1
860.066	-24.58
860.241	10.24
860.415	28.67
860.589	-57.34
860.763	-32.77
860.938	16.38
861.112	-45.06
861.286	-61.44
861.46	14.34
861.634	-55.3
861.808	8.19
861.982	-10.24
862.157	-24.58
862.331	-94.21
862.505	67.58
862.679	-32.77
862.853	-86.01
863.027	-4.1
863.201	2.05
863.375	-45.06
863.549	-8.19
863.722	36.86
863.896	51.2
864.07	10.24
864.244	47.1
864.418	12.29
864.592	18.43
864.766	28.67
864.939	32.77
865.113	-16.38
865.287	36.86
865.461	-32.77
865.634	77.82
865.808	-18.43
865.982	-32.77
866.156	10.24
866.329	-6.14
866.503	6.14
866.676	-30.72
866.85	-49.15
867.024	-32.77
867.197	16.38
867.371	-16.38
867.544	-18.43
867.718	61.44
867.891	20.48
868.065	8.19
868.238	22.53
868.412	71.68
868.585	-4.1
868.759	-26.62
868.932	-4.1
869.105	-6.14
869.279	0
869.452	4.1
869.625	-30.72
869.799	0
869.972	-20.48
870.145	-40.96
870.319	-6.14
870.492	-8.19
870.665	55.3
870.838	-12.29
871.011	-2.05
871.185	4.1
871.358	28.67
871.531	38.91
871.704	30.72
871.877	16.38
872.05	-63.49
872.223	0
872.396	-22.53
872.569	40.96
872.742	-102.4
872.915	57.34
873.088	67.58
873.261	-20.48
873.434	26.62
873.607	-38.91
873.78	4.1
873.953	4.1
874.126	-53.25
874.299	-65.54
874.471	-26.62
874.644	-63.49
874.817	2.05
874.99	10.24
875.163	-4.1
875.335	-6.14
875.508	-49.15
875.681	-14.34
875.853	40.96
876.026	69.63
876.199	0
876.371	-4.1
876.544	20.48
876.717	28.67
876.889	-59.39
877.062	-47.1
877.234	-65.54
877.407	73.73
877.579	4.1
877.752	-20.48
877.924	2.05
878.097	-4.1
878.269	-14.34
878.442	-26.62
878.614	36.86
878.786	-51.2
878.959	-18.43
879.131	-8.19
879.303	-36.86
879.476	6.14
879.648	-28.67
879.82	20.48
879.993	-98.3
880.165	10.24
880.337	-45.06
880.509	-8.19
880.681	-32.77
880.854	-6.14
881.026	20.48
881.198	24.58
881.37	-51.2
881.542	2.05
881.714	8.19
881.886	-49.15
882.058	18.43
882.23	-16.38
882.402	-26.62
882.574	-16.38
882.746	-63.49
882.918	40.96
883.09	-6.14
883.262	43.01
883.434	16.38
883.606	-20.48
883.778	-45.06
883.95	28.67
884.122	-20.48
884.293	8.19
884.465	-40.96
884.637	32.77
884.809	-45.06
884.98	0
885.152	-49.15
885.324	-6.14
885.496	-98.3
885.667	-28.67
885.839	-10.24
886.011	61.44
886.182	-49.15
886.354	-24.58
886.525	-36.86
886.697	-20.48
886.869	-67.58
887.04	-4.1
887.212	18.43
887.383	-20.48
887.555	57.34
887.726	-40.96
887.897	-49.15
888.069	10.24
888.24	-28.67
888.412	-10.24
888.583	-45.06
888.754	-10.24
888.926	-55.3
889.097	-114.69
889.268	-61.44
889.44	-28.67
889.611	-45.06
889.782	-18.43
889.953	-67.58
890.125	28.67
890.296	-63.49
890.467	57.34
890.638	-16.38
890.809	-4.1
890.98	-38.91
891.151	-20.48
891.323	-53.25
891.494	30.72
891.665	-30.72
891.836	-36.86
892.007	-14.34
892.178	36.86
892.349	-30.72
892.52	2.05
892.691	-18.43
892.862	53.25
893.032	-38.91
893.203	8.19
893.374	8.19
893.545	45.06
893.716	-20.48
893.887	10.24
894.057	-94.21
894.228	18.43
894.399	-45.06
894.57	-40.96
894.74	-16.38
894.911	-47.1
895.082	36.86
895.253	-26.62
895.423	0
895.594	-32.77
895.764	-24.58
895.935	-65.54
896.106	-8.19
896.276	18.43
896.447	8.19
896.617	83.97
896.788	-53.25
896.958	-16.38
897.129	-32.77
897.299	6.14
897.47	-14.34
897.64	26.62
897.81	-22.53
897.981	-36.86
898.151	-77.82
898.322	47.1
898.492	-4.1
898.662	-43.01
898.832	-81.92
899.003	-12.29
899.173	-65.54
899.343	-8.19
899.513	-14.34
