Data from USB4F104151__26__11-36-42-486.txt Node

Date: Fri Mar 14 11:36:42 EDT 2025
User: louis
Spectrometer: USB4F10415
Trigger mode: 4
Integration Time (sec): 2.000000E-2
Scans to average: 1
Electric dark correction enabled: true
Nonlinearity correction enabled: false
Boxcar width: 0
XAxis mode: Wavelengths
Number of Pixels in Spectrum: 3648
>>>>>Begin Spectral Data<<<<<
178.204	-30.21
178.424	-30.21
178.644	-30.21
178.864	-91.65
179.084	-34.3
179.304	4.61
179.524	-5.63
179.744	27.14
179.964	-1.54
180.184	-30.21
180.404	29.18
180.624	-38.4
180.844	27.14
181.064	-22.02
181.283	-17.92
181.503	-5.63
181.723	33.28
181.943	-67.07
182.163	66.05
182.383	43.52
182.602	84.48
182.822	78.33
183.042	70.14
183.262	66.05
183.482	49.66
183.701	8.7
183.921	43.52
184.141	80.38
184.361	39.42
184.58	39.42
184.8	0.51
185.02	2.56
185.239	86.53
185.459	47.62
185.679	51.71
185.898	2.56
186.118	23.04
186.338	-42.5
186.557	39.42
186.777	0.51
186.997	18.94
187.216	-17.92
187.436	31.23
187.655	-24.06
187.875	51.71
188.095	37.38
188.314	23.04
188.534	33.28
188.753	-11.78
188.973	68.09
189.192	121.34
189.412	-24.06
189.631	-9.73
189.851	37.38
190.07	80.38
190.29	-7.68
190.509	78.33
190.729	-7.68
190.948	57.86
191.168	94.72
191.387	-22.02
191.607	0.51
191.826	23.04
192.045	-36.35
192.265	29.18
192.484	53.76
192.704	0.51
192.923	10.75
193.142	94.72
193.362	16.9
193.581	-5.63
193.8	57.86
194.02	72.19
194.239	10.75
194.458	43.52
194.678	6.66
194.897	-1.54
195.116	2.56
195.335	37.38
195.555	25.09
195.774	-32.26
195.993	-7.68
196.212	-26.11
196.432	-26.11
196.651	74.24
196.87	55.81
197.089	4.61
197.308	55.81
197.528	49.66
197.747	-36.35
197.966	-5.63
198.185	25.09
198.404	45.57
198.623	35.33
198.842	43.52
199.062	10.75
199.281	72.19
199.5	20.99
199.719	-13.82
199.938	20.99
200.157	76.29
200.376	-13.82
200.595	94.72
200.814	12.8
201.033	-13.82
201.252	33.28
201.471	16.9
201.69	100.86
201.909	74.24
202.128	-46.59
202.347	49.66
202.566	-7.68
202.785	59.9
203.004	-46.59
203.223	119.29
203.442	119.29
203.661	29.18
203.879	27.14
204.098	-9.73
204.317	-9.73
204.536	96.77
204.755	14.85
204.974	41.47
205.193	23.04
205.411	66.05
205.63	10.75
205.849	31.23
206.068	66.05
206.287	23.04
206.505	45.57
206.724	-1.54
206.943	18.94
207.162	74.24
207.381	35.33
207.599	12.8
207.818	10.75
208.037	18.94
208.255	6.66
208.474	51.71
208.693	35.33
208.911	-32.26
209.13	39.42
209.349	2.56
209.567	-32.26
209.786	68.09
210.005	80.38
210.223	16.9
210.442	37.38
210.661	29.18
210.879	66.05
211.098	-1.54
211.316	31.23
211.535	14.85
211.753	-17.92
211.972	10.75
212.191	18.94
212.409	-3.58
212.628	51.71
212.846	-54.78
213.065	31.23
213.283	72.19
213.502	39.42
213.72	37.38
213.938	57.86
214.157	45.57
214.375	45.57
214.594	35.33
214.812	-32.26
215.031	49.66
215.249	-17.92
215.467	-11.78
215.686	68.09
215.904	18.94
216.122	-9.73
216.341	23.04
216.559	-28.16
216.778	98.81
216.996	6.66
217.214	29.18
217.432	-58.88
217.651	4.61
217.869	-54.78
218.087	-24.06
218.306	-22.02
218.524	27.14
218.742	49.66
218.96	25.09
219.179	23.04
219.397	96.77
219.615	-13.82
219.833	51.71
220.051	39.42
220.27	35.33
220.488	82.43
220.706	35.33
220.924	27.14
221.142	25.09
221.36	96.77
221.578	25.09
221.796	-36.35
222.015	74.24
222.233	31.23
222.451	2.56
222.669	4.61
222.887	31.23
223.105	-46.59
223.323	61.95
223.541	2.56
223.759	49.66
223.977	-3.58
224.195	18.94
224.413	2.56
224.631	51.71
224.849	35.33
225.067	96.77
225.285	-5.63
225.503	125.44
225.721	-30.21
225.939	45.57
226.157	14.85
226.375	109.05
226.592	70.14
226.81	72.19
227.028	12.8
227.246	76.29
227.464	80.38
227.682	35.33
227.9	14.85
228.117	20.99
228.335	68.09
228.553	47.62
228.771	18.94
228.989	-26.11
229.206	33.28
229.424	-1.54
229.642	-5.63
229.86	2.56
230.077	64
230.295	6.66
230.513	74.24
230.731	23.04
230.948	76.29
231.166	53.76
231.384	43.52
231.601	66.05
231.819	47.62
232.037	-42.5
232.254	47.62
232.472	37.38
232.689	68.09
232.907	49.66
233.125	-32.26
233.342	-3.58
233.56	-26.11
233.777	4.61
233.995	47.62
234.213	59.9
234.43	10.75
234.648	55.81
234.865	2.56
235.083	64
235.3	12.8
235.518	-22.02
235.735	10.75
235.953	39.42
236.17	57.86
236.388	6.66
236.605	-28.16
236.822	47.62
237.04	100.86
237.257	33.28
237.475	-15.87
237.692	59.9
237.909	4.61
238.127	31.23
238.344	31.23
238.562	59.9
238.779	-44.54
238.996	64
239.214	-22.02
239.431	35.33
239.648	41.47
239.865	43.52
240.083	41.47
240.3	-15.87
240.517	14.85
240.735	80.38
240.952	-13.82
241.169	113.15
241.386	-13.82
241.603	68.09
241.821	-5.63
242.038	2.56
242.255	51.71
242.472	-17.92
242.689	39.42
242.907	-13.82
243.124	23.04
243.341	-5.63
243.558	10.75
243.775	66.05
243.992	35.33
244.209	18.94
244.426	88.57
244.643	29.18
244.86	-13.82
245.078	-22.02
245.295	14.85
245.512	43.52
245.729	-77.31
245.946	25.09
246.163	43.52
246.38	18.94
246.597	39.42
246.814	20.99
247.031	39.42
247.248	25.09
247.464	82.43
247.681	41.47
247.898	43.52
248.115	-28.16
248.332	29.18
248.549	84.48
248.766	49.66
248.983	100.86
249.2	23.04
249.417	61.95
249.633	47.62
249.85	51.71
250.067	45.57
250.284	-5.63
250.501	59.9
250.717	-36.35
250.934	-3.58
251.151	61.95
251.368	31.23
251.585	43.52
251.801	-5.63
252.018	0.51
252.235	37.38
252.451	72.19
252.668	14.85
252.885	66.05
253.102	0.51
253.318	-17.92
253.535	-32.26
253.752	29.18
253.968	35.33
254.185	25.09
254.401	-38.4
254.618	-83.45
254.835	-7.68
255.051	88.57
255.268	31.23
255.484	8.7
255.701	-5.63
255.917	31.23
256.134	74.24
256.351	-5.63
256.567	-11.78
256.784	45.57
257	-1.54
257.217	64
257.433	-34.3
257.65	113.15
257.866	61.95
258.082	55.81
258.299	59.9
258.515	55.81
258.732	33.28
258.948	51.71
259.165	37.38
259.381	76.29
259.597	35.33
259.814	6.66
260.03	39.42
260.246	-17.92
260.463	0.51
260.679	88.57
260.895	49.66
261.112	20.99
261.328	-5.63
261.544	2.56
261.761	104.96
261.977	31.23
262.193	61.95
262.409	-3.58
262.626	51.71
262.842	41.47
263.058	-13.82
263.274	-9.73
263.49	16.9
263.707	8.7
263.923	2.56
264.139	74.24
264.355	49.66
264.571	143.87
264.787	39.42
265.004	43.52
265.22	33.28
265.436	57.86
265.652	-26.11
265.868	8.7
266.084	33.28
266.3	55.81
266.516	14.85
266.732	41.47
266.948	59.9
267.164	39.42
267.38	43.52
267.596	12.8
267.812	72.19
268.028	-3.58
268.244	76.29
268.46	-34.3
268.676	27.14
268.892	14.85
269.108	33.28
269.324	31.23
269.54	-40.45
269.756	18.94
269.972	53.76
270.188	39.42
270.403	-13.82
270.619	14.85
270.835	55.81
271.051	43.52
271.267	16.9
271.483	8.7
271.698	78.33
271.914	-1.54
272.13	-9.73
272.346	6.66
272.562	33.28
272.777	10.75
272.993	31.23
273.209	96.77
273.425	10.75
273.64	47.62
273.856	82.43
274.072	55.81
274.287	23.04
274.503	37.38
274.719	-11.78
274.934	16.9
275.15	-5.63
275.366	-62.98
275.581	88.57
275.797	66.05
276.012	84.48
276.228	-5.63
276.444	84.48
276.659	92.67
276.875	20.99
277.09	20.99
277.306	-24.06
277.521	64
277.737	-5.63
277.952	59.9
278.168	16.9
278.383	12.8
278.599	18.94
278.814	31.23
279.03	-11.78
279.245	78.33
279.461	43.52
279.676	33.28
279.892	10.75
280.107	8.7
280.322	27.14
280.538	33.28
280.753	41.47
280.969	39.42
281.184	-5.63
281.399	-5.63
281.615	41.47
281.83	76.29
282.045	2.56
282.26	16.9
282.476	61.95
282.691	88.57
282.906	10.75
283.122	61.95
283.337	-32.26
283.552	100.86
283.767	-24.06
283.983	-1.54
284.198	4.61
284.413	51.71
284.628	-30.21
284.843	8.7
285.058	92.67
285.274	86.53
285.489	64
285.704	59.9
285.919	-60.93
286.134	57.86
286.349	37.38
286.564	12.8
286.779	98.81
286.995	-24.06
287.21	-24.06
287.425	76.29
287.64	45.57
287.855	-15.87
288.07	-9.73
288.285	51.71
288.5	72.19
288.715	80.38
288.93	-9.73
289.145	4.61
289.36	27.14
289.575	96.77
289.79	-5.63
290.004	6.66
290.219	43.52
290.434	-34.3
290.649	25.09
290.864	31.23
291.079	111.1
291.294	-56.83
291.509	43.52
291.724	-1.54
291.938	29.18
292.153	72.19
292.368	-34.3
292.583	43.52
292.798	23.04
293.012	10.75
293.227	27.14
293.442	-9.73
293.657	49.66
293.871	76.29
294.086	-54.78
294.301	2.56
294.516	16.9
294.73	51.71
294.945	2.56
295.16	29.18
295.374	121.34
295.589	18.94
295.804	14.85
296.018	29.18
296.233	-15.87
296.447	61.95
296.662	43.52
296.877	37.38
297.091	59.9
297.306	-9.73
297.52	57.86
297.735	88.57
297.949	18.94
298.164	68.09
298.378	-11.78
298.593	37.38
298.807	64
299.022	51.71
299.236	10.75
299.451	49.66
299.665	6.66
299.88	33.28
300.094	74.24
300.309	-24.06
300.523	-1.54
300.737	2.56
300.952	8.7
301.166	113.15
301.381	49.66
301.595	23.04
301.809	39.42
302.024	-9.73
302.238	14.85
302.452	29.18
302.667	-9.73
302.881	41.47
303.095	84.48
303.309	129.53
303.524	-9.73
303.738	-13.82
303.952	61.95
304.166	-48.64
304.381	-24.06
304.595	66.05
304.809	64
305.023	14.85
305.237	-58.88
305.452	55.81
305.666	76.29
305.88	84.48
306.094	35.33
306.308	18.94
306.522	111.1
306.736	-1.54
306.95	61.95
307.164	78.33
307.379	-44.54
307.593	66.05
307.807	41.47
308.021	51.71
308.235	14.85
308.449	72.19
308.663	57.86
308.877	33.28
309.091	49.66
309.305	37.38
309.519	27.14
309.733	59.9
309.947	29.18
310.161	96.77
310.374	98.81
310.588	23.04
310.802	33.28
311.016	-28.16
311.23	2.56
311.444	39.42
311.658	41.47
311.872	64
312.085	51.71
312.299	4.61
312.513	55.81
312.727	37.38
312.941	-13.82
313.154	125.44
313.368	57.86
313.582	61.95
313.796	-17.92
314.009	-60.93
314.223	6.66
314.437	45.57
314.651	16.9
314.864	68.09
315.078	25.09
315.292	29.18
315.505	80.38
315.719	37.38
315.933	14.85
316.146	25.09
316.36	31.23
316.573	-5.63
316.787	25.09
317.001	20.99
317.214	70.14
317.428	2.56
317.641	33.28
317.855	43.52
318.068	-5.63
318.282	43.52
318.495	33.28
318.709	59.9
318.922	27.14
319.136	115.2
319.349	49.66
319.563	37.38
319.776	96.77
319.99	53.76
320.203	80.38
320.417	98.81
320.63	43.52
320.843	39.42
321.057	96.77
321.27	61.95
321.483	55.81
321.697	-15.87
321.91	51.71
322.124	51.71
322.337	39.42
322.55	47.62
322.763	0.51
322.977	100.86
323.19	6.66
323.403	53.76
323.617	18.94
323.83	82.43
324.043	25.09
324.256	47.62
324.469	-65.02
324.683	25.09
324.896	8.7
325.109	76.29
325.322	10.75
325.535	74.24
325.748	10.75
325.962	-13.82
326.175	57.86
326.388	51.71
326.601	59.9
326.814	53.76
327.027	68.09
327.24	88.57
327.453	-9.73
327.666	33.28
327.879	41.47
328.092	6.66
328.305	96.77
328.518	84.48
328.731	16.9
328.944	66.05
329.157	41.47
329.37	-17.92
329.583	25.09
329.796	92.67
330.009	-17.92
330.222	8.7
330.435	29.18
330.648	49.66
330.861	-3.58
331.073	59.9
331.286	18.94
331.499	64
331.712	82.43
331.925	16.9
332.138	-5.63
332.35	82.43
332.563	107.01
332.776	41.47
332.989	39.42
333.202	57.86
333.414	27.14
333.627	37.38
333.84	-26.11
334.053	39.42
334.265	25.09
334.478	72.19
334.691	8.7
334.903	6.66
335.116	100.86
335.329	0.51
335.541	43.52
335.754	82.43
335.966	41.47
336.179	0.51
336.392	14.85
336.604	18.94
336.817	27.14
337.029	64
337.242	-32.26
337.454	82.43
337.667	70.14
337.88	64
338.092	53.76
338.305	43.52
338.517	-24.06
338.729	-1.54
338.942	8.7
339.154	10.75
339.367	25.09
339.579	47.62
339.792	41.47
340.004	37.38
340.217	57.86
340.429	64
340.641	64
340.854	10.75
341.066	33.28
341.278	84.48
341.491	100.86
341.703	64
341.915	43.52
342.128	-24.06
342.34	27.14
342.552	43.52
342.764	41.47
342.977	18.94
343.189	51.71
343.401	20.99
343.613	4.61
343.826	115.2
344.038	-26.11
344.25	51.71
344.462	45.57
344.674	96.77
344.886	-11.78
345.099	4.61
345.311	45.57
345.523	96.77
345.735	31.23
345.947	41.47
346.159	-7.68
346.371	80.38
346.583	64
346.795	94.72
347.007	-9.73
347.219	29.18
347.431	66.05
347.643	100.86
347.855	16.9
348.067	86.53
348.279	-9.73
348.491	49.66
348.703	64
348.915	18.94
349.127	35.33
349.339	59.9
349.551	-13.82
349.763	76.29
349.975	6.66
350.187	25.09
350.399	57.86
350.61	49.66
350.822	100.86
351.034	72.19
351.246	31.23
351.458	59.9
351.669	94.72
351.881	43.52
352.093	6.66
352.305	88.57
352.517	27.14
352.728	57.86
352.94	47.62
353.152	37.38
353.363	57.86
353.575	84.48
353.787	113.15
353.999	66.05
354.21	51.71
354.422	98.81
354.633	2.56
354.845	49.66
355.057	35.33
355.268	70.14
355.48	8.7
355.692	29.18
355.903	92.67
356.115	-13.82
356.326	33.28
356.538	27.14
356.749	33.28
356.961	72.19
357.172	23.04
357.384	0.51
357.595	88.57
357.807	18.94
358.018	51.71
358.23	31.23
358.441	100.86
358.653	59.9
358.864	35.33
359.075	84.48
359.287	-5.63
359.498	43.52
359.709	100.86
359.921	51.71
360.132	109.05
360.344	59.9
360.555	14.85
360.766	51.71
360.977	45.57
361.189	80.38
361.4	-26.11
361.611	18.94
361.823	25.09
362.034	59.9
362.245	14.85
362.456	74.24
362.667	68.09
362.879	107.01
363.09	117.25
363.301	53.76
363.512	47.62
363.723	76.29
363.935	53.76
364.146	78.33
364.357	121.34
364.568	-24.06
364.779	-1.54
364.99	18.94
365.201	-26.11
365.412	51.71
365.623	64
365.834	51.71
366.045	14.85
366.256	45.57
366.467	72.19
366.678	70.14
366.889	39.42
367.1	72.19
367.311	76.29
367.522	39.42
367.733	12.8
367.944	96.77
368.155	109.05
368.366	90.62
368.577	33.28
368.788	33.28
368.999	143.87
369.209	109.05
369.42	10.75
369.631	92.67
369.842	41.47
370.053	2.56
370.264	37.38
370.474	8.7
370.685	-1.54
370.896	45.57
371.107	109.05
371.317	84.48
371.528	98.81
371.739	102.91
371.95	72.19
372.16	127.49
372.371	51.71
372.582	35.33
372.792	35.33
373.003	43.52
373.214	-26.11
373.424	74.24
373.635	47.62
373.846	104.96
374.056	33.28
374.267	49.66
374.477	18.94
374.688	92.67
374.898	59.9
375.109	76.29
375.319	66.05
375.53	98.81
375.74	59.9
375.951	47.62
376.161	-17.92
376.372	47.62
376.582	20.99
376.793	109.05
377.003	0.51
377.214	78.33
377.424	98.81
377.635	80.38
377.845	90.62
378.055	49.66
378.266	-17.92
378.476	35.33
378.686	2.56
378.897	94.72
379.107	59.9
379.317	2.56
379.528	39.42
379.738	92.67
379.948	59.9
380.158	-1.54
380.369	76.29
380.579	107.01
380.789	18.94
380.999	43.52
381.21	109.05
381.42	29.18
381.63	-26.11
381.84	80.38
382.05	31.23
382.261	23.04
382.471	76.29
382.681	88.57
382.891	84.48
383.101	68.09
383.311	35.33
383.521	129.53
383.731	14.85
383.941	57.86
384.151	84.48
384.361	10.75
384.571	88.57
384.781	-1.54
384.991	70.14
385.201	72.19
385.411	92.67
385.621	76.29
385.831	25.09
386.041	51.71
386.251	39.42
386.461	92.67
386.671	43.52
386.881	43.52
387.091	-30.21
387.301	104.96
387.511	68.09
387.72	23.04
387.93	4.61
388.14	53.76
388.35	35.33
388.56	43.52
388.769	98.81
388.979	35.33
389.189	45.57
389.399	51.71
389.609	84.48
389.818	86.53
390.028	-19.97
390.238	25.09
390.447	125.44
390.657	59.9
390.867	61.95
391.076	55.81
391.286	84.48
391.496	59.9
391.705	76.29
391.915	43.52
392.125	115.2
392.334	35.33
392.544	72.19
392.753	92.67
392.963	-30.21
393.172	92.67
393.382	131.58
393.591	137.73
393.801	12.8
394.01	68.09
394.22	104.96
394.429	125.44
394.639	100.86
394.848	150.01
395.058	82.43
395.267	61.95
395.477	92.67
395.686	129.53
395.895	150.01
396.105	104.96
396.314	33.28
396.524	18.94
396.733	47.62
396.942	166.4
397.152	139.77
397.361	76.29
397.57	98.81
397.78	45.57
397.989	41.47
398.198	162.3
398.407	102.91
398.617	80.38
398.826	129.53
399.035	147.97
399.244	88.57
399.453	43.52
399.663	88.57
399.872	107.01
400.081	82.43
400.29	117.25
400.499	37.38
400.708	178.69
400.917	100.86
401.127	78.33
401.336	231.93
401.545	201.21
401.754	150.01
401.963	158.21
402.172	150.01
402.381	145.92
402.59	115.2
402.799	92.67
403.008	168.45
403.217	57.86
403.426	82.43
403.635	147.97
403.844	139.77
404.053	90.62
404.262	129.53
404.471	135.68
404.68	94.72
404.888	207.36
405.097	119.29
405.306	90.62
405.515	174.59
405.724	240.12
405.933	197.12
406.142	170.49
406.35	127.49
406.559	193.02
406.768	150.01
406.977	147.97
407.185	115.2
407.394	174.59
407.603	164.35
407.812	160.25
408.02	276.99
408.229	229.88
408.438	254.46
408.646	242.17
408.855	227.84
409.064	299.52
409.272	272.89
409.481	299.52
409.69	299.52
409.898	330.23
410.107	305.66
410.315	381.43
410.524	317.95
410.733	375.29
410.941	442.87
411.15	365.05
411.358	354.81
411.567	395.77
411.775	420.35
411.984	475.64
412.192	432.63
412.401	346.62
412.609	457.21
412.818	489.98
413.026	426.49
413.234	606.71
413.443	528.89
413.651	545.27
413.86	621.05
414.068	541.18
414.276	616.95
414.485	522.74
414.693	641.53
414.901	694.77
415.11	680.44
415.318	698.87
415.526	711.16
415.734	729.59
415.943	700.92
416.151	819.7
416.359	874.99
416.567	930.29
416.776	932.34
416.984	944.63
417.192	1057.26
417.4	936.43
417.608	1026.54
417.817	1057.26
418.025	1081.84
418.233	1198.57
418.441	1178.09
418.649	1188.33
418.857	1268.2
419.065	1223.15
419.273	1341.93
419.481	1378.79
419.689	1524.2
419.897	1528.3
420.105	1452.52
420.313	1585.64
420.521	1524.2
420.729	1739.24
420.937	1602.02
421.145	1751.53
421.353	1841.64
421.561	1984.99
421.769	1964.51
421.977	2089.44
422.185	1925.6
422.393	2208.22
422.601	2279.9
422.809	2245.09
423.017	2343.39
423.224	2501.08
423.432	2605.53
423.64	2585.05
423.848	2726.36
424.056	2689.49
424.263	2830.8
424.471	2871.76
424.679	2802.13
424.887	3156.43
425.094	3148.24
425.302	3264.97
425.51	3367.37
425.718	3426.76
425.925	3506.63
426.133	3443.15
426.341	3652.04
426.548	3963.33
426.756	3977.67
426.964	4008.39
427.171	4217.28
427.379	4344.25
427.586	4454.84
427.794	4610.49
428.001	4698.55
428.209	5024.18
428.417	4917.68
428.624	5214.64
428.832	5200.3
429.039	5194.16
429.247	5163.44
429.454	5634.47
429.662	6062.5
429.869	5585.32
430.076	6099.36
430.284	5933.48
430.491	5982.63
430.699	6705.56
430.906	6371.74
431.114	6572.44
431.321	6877.59
431.528	6904.21
431.736	7448.97
431.943	7799.18
432.15	7539.08
432.358	7690.63
432.565	8065.41
432.772	8032.65
432.979	8495.49
433.187	8585.6
433.394	8579.45
433.601	9167.22
433.808	9251.19
434.016	9304.43
434.223	9515.37
434.43	10187.11
434.637	10004.84
434.844	10479.97
435.052	10707.29
435.259	10639.71
435.466	10805.6
435.673	10463.58
435.88	11508.05
436.087	11860.3
436.294	12085.58
436.501	11583.82
436.708	12132.68
436.915	12386.63
437.122	12962.11
437.329	12699.97
437.537	13179.19
437.743	13377.84
437.95	13408.56
438.157	14082.35
438.364	14520.61
438.571	14450.98
438.778	14792.99
438.985	15907.09
439.192	15321.37
439.399	15683.86
439.606	15589.65
439.813	16382.21
440.02	17578.23
440.227	17088.76
440.433	17101.05
440.64	17340.66
440.847	17377.53
441.054	17805.55
441.261	18866.4
441.467	18743.52
441.674	19056.86
441.881	19609.81
442.088	19749.07
442.294	19656.92
442.501	20076.75
442.708	20523.21
442.914	21530.81
443.121	22141.1
443.328	21340.35
443.534	23074.98
443.741	22300.84
443.948	22378.67
444.154	23709.85
444.361	23521.43
444.568	23597.21
444.774	23867.54
444.981	24254.61
445.187	24977.54
445.394	25804.92
445.6	25208.96
445.807	27996.24
446.013	26798.18
446.22	27449.44
446.426	28553.29
446.633	28997.7
446.839	29884.47
447.046	28536.91
447.252	29976.63
447.459	30126.13
447.665	29980.73
447.871	31305.76
448.078	32264.21
448.284	31227.94
448.491	31776.8
448.697	32733.2
448.903	33646.59
449.11	33718.27
449.316	33069.06
449.522	33982.46
449.728	34729.97
449.935	34899.95
450.141	34652.14
450.347	35610.59
450.553	34729.97
450.76	35303.4
450.966	36274.13
451.172	36155.35
451.378	36345.81
451.584	36261.85
451.791	36782.03
451.997	37083.08
452.203	37408.71
452.409	37412.81
452.615	37017.55
452.821	36026.33
453.027	35563.49
453.233	37656.51
453.44	35962.84
453.646	36444.12
453.852	36251.61
454.058	37058.51
454.264	35866.59
454.47	36657.1
454.676	35764.19
454.882	37119.95
455.088	33935.35
455.294	34478.07
455.5	34338.8
455.705	35123.18
455.911	33593.34
456.117	33161.22
456.323	32462.86
456.529	31109.16
456.735	32067.61
456.941	31670.3
457.147	31318.05
457.352	29907
457.558	29626.43
457.764	29759.55
457.97	28964.93
458.176	28614.73
458.381	28467.28
458.587	27328.61
458.793	26980.45
458.999	25677.94
459.204	27330.65
459.41	26349.68
459.616	25110.66
459.821	25229.44
460.027	24692.87
460.233	24500.36
460.438	23244.96
460.644	23638.17
460.85	22376.62
461.055	22341.8
461.261	22003.89
461.466	20404.42
461.672	19955.92
461.878	21070.01
462.083	19964.11
462.289	19353.82
462.494	19259.61
462.7	18378.98
462.905	18026.73
463.111	18383.08
463.316	18477.29
463.522	18127.08
463.727	18401.51
463.932	18239.72
464.138	17811.7
464.343	18315.5
464.549	17619.19
464.754	18096.36
464.959	17883.38
465.165	17846.51
465.37	17162.49
465.575	16535.81
465.781	17285.37
465.986	17551.6
466.191	16691.46
466.397	16206.09
466.602	15757.58
466.807	16144.65
467.012	16210.18
467.218	16216.33
467.423	16083.21
467.628	16150.79
467.833	16597.25
468.038	16263.43
468.244	15653.14
468.449	16408.84
468.654	15882.51
468.859	15673.62
469.064	15413.52
469.269	14928.16
469.474	15014.17
469.679	15597.84
469.885	14801.18
470.09	15137.05
470.295	14938.4
470.5	14600.48
470.705	14586.15
470.91	14465.32
471.115	14242.09
471.32	14518.56
471.525	14500.13
471.73	14143.78
471.935	14020.91
472.139	13414.71
472.344	13769.01
472.549	13513.01
472.754	13431.09
472.959	13359.41
473.164	12759.36
473.369	12925.24
473.574	13044.02
473.778	13138.23
473.983	12710.21
474.188	12878.14
474.393	12364.1
474.598	12517.7
474.802	12196.17
475.007	12290.37
475.212	12210.5
475.417	11700.56
475.621	11921.74
475.826	11891.02
476.031	11551.06
476.235	11204.95
476.44	11465.04
476.645	11100.5
476.849	10996.06
477.054	11004.25
477.259	11039.06
477.463	10977.62
477.668	10684.76
477.872	10719.58
478.077	10555.74
478.282	10385.76
478.486	10297.7
478.691	10336.61
478.895	10279.27
479.1	10185.06
479.304	10209.64
479.509	9896.3
479.713	10193.25
479.918	9863.53
480.122	9838.95
480.326	10045.8
480.531	9869.67
480.735	9754.99
480.94	9570.67
481.144	9802.09
481.348	9630.06
481.553	9824.62
481.757	9488.75
481.961	9552.24
482.166	9734.51
482.37	9773.42
482.574	9255.28
482.778	9447.79
482.983	9668.97
483.187	9462.13
483.391	9517.42
483.595	9550.19
483.8	9329.01
484.004	9501.04
484.208	9503.09
484.412	9259.38
484.616	9617.77
484.821	9693.55
485.025	9415.02
485.229	9593.2
485.433	9363.83
485.637	9339.25
485.841	9339.25
486.045	9550.19
486.249	9415.02
486.453	9419.12
486.657	9441.65
486.861	9351.54
487.065	9107.83
487.269	9478.51
487.473	9478.51
487.677	9455.98
487.881	9585.01
488.085	9343.35
488.289	9716.08
488.493	9230.71
488.697	9398.64
488.901	9630.06
489.105	9466.22
489.309	9642.35
489.512	9601.39
489.716	9556.33
489.92	9609.58
490.124	9505.13
490.328	9722.22
490.531	9488.75
490.735	9843.05
490.939	9869.67
491.143	9634.16
491.346	9574.77
491.55	9720.17
491.754	9797.99
491.958	9773.42
492.161	9781.61
492.365	10068.33
492.569	9931.11
492.772	9970.02
492.976	9982.31
493.18	10199.4
493.383	10221.92
493.587	10185.06
493.79	10350.95
493.994	10281.32
494.197	10508.64
494.401	10371.43
494.605	10584.41
494.808	10572.13
495.012	10668.38
495.215	10907.99
495.419	11053.4
495.622	10615.13
495.825	11110.74
496.029	10846.55
496.232	11188.57
496.436	11190.61
496.639	11462.99
496.843	11622.73
497.046	11614.54
497.249	11782.48
497.453	11649.36
497.656	11718.99
497.859	12036.42
498.063	12245.32
498.266	12503.36
498.469	12261.7
498.673	12347.72
498.876	12388.67
499.079	12595.52
499.282	12691.77
499.485	13105.46
499.689	13093.18
499.892	13185.33
500.095	13101.37
500.298	13592.88
500.501	13441.33
500.705	13844.78
500.908	14039.34
501.111	14037.29
501.314	14305.57
501.517	14432.55
501.72	14258.47
501.923	14389.54
502.126	14889.24
502.329	15026.46
502.532	15171.86
502.735	15360.28
502.938	15753.49
503.141	15649.04
503.344	16111.88
503.547	15837.45
503.75	15814.93
503.953	16490.76
504.156	16519.43
504.359	16627.97
504.562	16656.64
504.765	17099
504.968	17350.9
505.17	17479.93
505.373	17410.29
505.576	17772.78
505.779	17727.73
505.982	18059.5
506.185	18256.11
506.387	18309.35
506.59	18577.64
506.793	18776.29
506.996	18809.06
507.198	19523.8
507.401	19321.05
507.604	19818.71
507.807	19921.1
508.009	20058.32
508.212	20097.23
508.415	20377.8
508.617	20596.93
508.82	20578.5
509.022	20635.85
509.225	21129.41
509.428	21209.28
509.63	21389.5
509.833	21610.68
510.035	21993.65
510.238	21790.9
510.44	22085.81
510.643	22587.56
510.845	22724.77
511.048	22687.91
511.25	23228.57
511.453	23318.68
511.655	24199.31
511.858	23449.75
512.06	23775.38
512.262	24037.52
512.465	24408.2
512.667	24715.4
512.87	24948.87
513.072	24645.77
513.274	25198.72
513.477	25387.13
513.679	25716.86
513.881	25835.64
514.084	26398.83
514.286	26333.29
514.488	26650.73
514.69	26957.92
514.893	27009.12
515.095	26890.34
515.297	27482.2
515.499	27463.77
515.701	27551.84
515.904	27926.61
516.106	28543.05
516.308	28393.55
516.51	28624.97
516.712	28936.26
516.914	29265.99
517.116	29487.17
517.318	29802.55
517.52	29986.87
517.722	29792.31
517.925	30206
518.127	30523.44
518.329	31090.73
518.531	30677.04
518.733	31410.21
518.935	31860.76
519.136	31557.66
519.338	31934.49
519.54	32163.86
519.742	32370.71
519.944	32380.95
520.146	32991.24
520.348	32710.67
520.55	33128.45
520.752	33341.44
520.954	33927.16
521.155	33767.42
521.357	34254.84
521.559	34174.97
521.761	34983.91
521.963	34740.21
522.164	34990.06
522.366	35125.22
522.568	35147.75
522.77	35731.42
522.971	35803.1
523.173	35407.84
523.375	36198.36
523.576	35821.53
523.778	36388.82
523.98	36550.61
524.181	36675.54
524.383	36769.74
524.584	37324.74
524.786	37171.14
524.988	37136.33
525.189	37812.16
525.391	37717.95
525.592	37539.78
525.794	38260.66
525.995	38008.76
526.197	38219.7
526.398	38219.7
526.6	38715.31
526.801	39098.28
527.003	38604.72
527.204	38768.56
527.406	39159.72
527.607	39305.13
527.808	39196.59
528.01	38920.11
528.211	39221.16
528.412	39929.76
528.614	39624.61
528.815	39798.69
529.016	39882.66
529.218	39661.47
529.419	39677.86
529.62	40107.93
529.822	39792.54
530.023	39763.87
530.224	40308.63
530.425	40249.24
530.626	39931.81
530.828	39886.75
531.029	40664.98
531.23	39919.52
531.431	40464.28
531.632	40759.19
531.833	40413.08
532.035	40734.61
532.236	40542.1
532.437	40611.73
532.638	40273.82
532.839	40976.27
533.04	40722.32
533.241	40165.28
533.442	41219.98
533.643	40849.3
533.844	40476.57
534.045	40900.5
534.246	40214.43
534.447	41408.39
534.648	40687.51
534.849	40447.89
535.05	40558.49
535.251	41031.57
535.451	40617.88
535.652	41082.77
535.853	40806.29
536.054	41131.92
536.255	40664.98
536.456	40437.65
536.657	41021.33
536.857	40963.98
537.058	40513.43
537.259	40923.02
537.46	40806.29
537.66	40556.44
537.861	40775.57
538.062	40411.03
538.263	40593.3
538.463	40865.68
538.664	40632.21
538.865	40937.36
539.065	41101.2
539.266	40325.02
539.466	40832.91
539.667	40333.21
539.868	40988.56
540.068	40613.78
540.269	40867.73
540.469	40974.22
540.67	40554.39
540.87	40761.23
541.071	40720.27
541.271	40638.36
541.472	40593.3
541.672	40548.25
541.873	40527.77
542.073	39737.25
542.274	40859.54
542.474	40851.34
542.675	40282.01
542.875	40400.79
543.075	40570.77
543.276	40363.93
543.476	40542.1
543.676	40105.88
543.877	40460.18
544.077	40540.05
544.277	40406.94
544.478	40236.95
544.678	40714.13
544.878	40308.63
545.078	40593.3
545.279	40062.88
545.479	40251.29
545.679	40851.34
545.879	40613.78
546.079	40226.71
546.28	40394.65
546.48	39942.05
546.68	40284.06
546.88	40165.28
547.08	40148.89
547.28	40048.54
547.48	39819.17
547.68	40105.88
547.88	40077.21
548.081	40288.15
548.281	39804.83
548.481	39964.57
548.681	40236.95
548.881	40353.69
549.081	39983.01
549.28	39880.61
549.48	40066.97
549.68	40124.32
549.88	40058.78
550.08	39554.98
550.28	40066.97
550.48	39757.73
550.68	40427.42
550.88	39888.8
551.08	39573.41
551.279	39712.67
551.479	39630.76
551.679	39770.02
551.879	39821.22
552.079	39827.36
552.278	39645.09
552.478	39944.09
552.678	39526.31
552.878	39933.85
553.077	39786.4
553.277	39581.6
553.477	39894.94
553.676	39505.83
553.876	39542.69
554.076	39210.92
554.275	39399.33
554.475	39251.88
554.674	39614.37
554.874	39729.06
555.074	39227.31
555.273	39684
555.473	39798.69
555.672	39471.01
555.872	39042.99
556.071	39143.34
556.271	39595.94
556.47	39518.12
556.67	39135.15
556.869	39268.26
557.068	39155.63
557.268	38959.02
557.467	39075.76
557.667	39176.11
557.866	38985.65
558.065	38735.79
558.265	38975.41
558.464	38719.41
558.663	38879.15
558.863	38442.93
559.062	38991.79
559.261	38514.61
559.461	39042.99
559.66	38635.44
559.859	38379.45
560.058	38221.75
560.258	38791.09
560.457	38217.66
560.656	38426.55
560.855	38211.51
561.054	38528.95
561.253	38055.87
561.453	38029.24
561.652	38254.52
561.851	38145.98
562.05	38270.9
562.249	38090.68
562.448	38393.78
562.647	38016.96
562.846	38105.02
563.045	37910.46
563.244	37439.43
563.443	38053.82
563.642	37531.59
563.841	37758.91
564.04	37513.16
564.239	37867.45
564.438	37296.07
564.637	37887.93
564.836	37621.7
565.035	36599.76
565.234	37525.44
565.432	37003.21
565.631	37287.88
565.83	37380.04
566.029	36935.63
566.228	36657.1
566.427	36810.7
566.625	36956.11
566.824	36151.26
567.023	36851.66
567.222	36392.92
567.42	36429.78
567.619	36816.85
567.818	36474.84
568.016	36489.17
568.215	36614.1
568.414	36409.3
568.612	36657.1
568.811	36044.76
569.01	36321.24
569.208	35602.4
569.407	36376.53
569.605	35831.77
569.804	36151.26
570.002	35862.49
570.201	36022.23
570.4	35418.08
570.598	35715.04
570.797	34934.76
570.995	35385.32
571.193	34834.41
571.392	35915.74
571.59	34906.09
571.789	34975.72
571.987	34951.15
572.186	34992.11
572.384	35000.3
572.582	35004.39
572.781	35192.81
572.979	34607.09
573.177	34893.8
573.376	34756.59
573.574	34312.18
573.772	34697.2
573.971	34150.39
574.169	34316.28
574.367	34328.56
574.565	34248.69
574.763	34209.78
574.962	34029.56
575.16	33925.11
575.358	34199.54
575.556	33904.63
575.754	34082.81
575.952	33544.19
576.151	33896.44
576.349	33443.84
576.547	33505.28
576.745	33712.13
576.943	33566.72
577.141	33161.22
577.339	33642.49
577.537	33167.37
577.735	33230.85
577.933	33107.97
578.131	33091.59
578.329	32964.62
578.527	32460.82
578.725	32772.11
578.923	33007.62
579.121	32559.12
579.319	32460.82
579.516	32559.12
579.714	32675.85
579.912	31813.66
580.11	32088.09
580.308	32419.86
580.506	32059.41
580.704	31848.47
580.901	32118.81
581.099	32110.61
581.297	31809.56
581.495	31584.29
581.692	31660.06
581.89	31731.74
582.088	31815.71
582.285	31744.03
582.483	31692.83
582.681	31455.26
582.878	31289.38
583.076	30687.28
583.274	31815.71
583.471	30500.91
583.669	30840.87
583.866	30883.88
584.064	30744.62
584.262	30476.33
584.459	31141.92
584.657	30515.25
584.854	31100.97
585.052	30396.46
585.249	30494.77
585.447	30543.92
585.644	30029.88
585.841	30163
586.039	30281.78
586.236	30013.49
586.434	29962.29
586.631	29186.11
586.828	29423.68
587.026	29861.94
587.223	29524.03
587.42	29630.52
587.618	29638.72
587.815	29290.56
588.012	29294.66
588.21	29155.4
588.407	29655.1
588.604	29061.19
588.801	28688.46
588.999	28956.74
589.196	28471.37
589.393	28966.98
589.59	28522.57
589.787	28727.37
589.984	28330.06
590.182	28272.72
590.379	28407.89
590.576	28321.87
590.773	28016.72
590.97	28078.16
591.167	28311.63
591.364	27977.81
591.561	27861.08
591.758	27912.28
591.955	27904.09
592.152	27955.29
592.349	27584.6
592.546	27426.91
592.743	27330.65
592.94	27392.09
593.137	27678.81
593.334	27238.5
593.531	26980.45
593.727	27287.65
593.924	27265.12
594.121	26826.85
594.318	27138.15
594.515	26466.41
594.712	26992.74
594.908	26540.14
595.105	26798.18
595.302	26652.78
595.499	26597.48
595.696	26265.71
595.892	26232.94
596.089	26378.35
596.286	26462.32
596.482	26189.94
596.679	25927.8
596.876	25931.89
597.072	25993.33
597.269	25849.97
597.466	25598.07
597.662	25385.08
597.859	25708.66
598.055	25426.04
598.252	25395.32
598.448	25008.26
598.645	25137.28
598.841	24799.37
599.038	25100.42
599.234	24961.16
599.431	24903.81
599.627	24723.59
599.824	24791.17
600.02	24711.3
600.217	24688.78
600.413	24699.02
600.609	24545.42
600.806	24311.95
601.002	24744.07
601.198	24404.11
601.395	24428.68
601.591	23976.08
601.787	24264.85
601.984	23982.23
602.18	24170.64
602.376	24275.09
602.572	23525.53
602.769	23808.15
602.965	23318.68
603.161	23662.74
603.357	23376.03
603.553	23416.99
603.75	23468.19
603.946	23263.39
604.142	23300.25
604.338	23128.22
604.534	23275.68
604.73	22976.67
604.926	22806.69
605.122	23077.02
605.318	22704.29
605.514	22683.81
605.71	22853.8
605.906	22505.64
606.102	22679.72
606.298	22464.68
606.494	22718.63
606.69	22694.05
606.886	22730.92
607.082	22173.87
607.278	22634.66
607.474	22016.18
607.67	22433.96
607.866	21940.4
608.062	22057.14
608.257	22233.26
608.453	21915.83
608.649	22206.64
608.845	21958.83
609.041	21747.89
609.236	22153.39
609.432	21700.79
609.628	21668.02
609.824	21704.88
610.019	21774.52
610.215	21442.74
610.411	21563.57
610.606	21430.46
610.802	21729.46
610.998	21504.18
611.193	21856.43
611.389	20998.34
611.584	21231.8
611.78	21176.51
611.976	21348.54
612.171	21035.2
612.367	21203.13
612.562	21336.25
612.758	20857.03
612.953	21078.21
613.149	21362.87
613.344	20652.23
613.539	21225.66
613.735	21035.2
613.93	21076.16
614.126	20529.35
614.321	20818.11
614.517	20795.59
614.712	20805.83
614.907	20687.04
615.103	20881.6
615.298	20594.89
615.493	20848.83
615.688	20441.29
615.884	20902.08
616.079	20322.51
616.274	20596.93
616.47	20304.07
616.665	20304.07
616.86	20105.42
617.055	20275.4
617.25	20158.67
617.445	20512.97
617.641	19757.27
617.836	20299.98
618.031	19818.71
618.226	20125.9
618.421	19957.97
618.616	19861.71
618.811	19620.05
619.006	19925.2
619.201	19355.86
619.396	19620.05
619.591	19339.48
619.786	19593.43
619.981	19245.27
620.176	19259.61
620.371	19171.55
620.566	19056.86
620.761	19171.55
620.956	19189.98
621.151	18483.43
621.346	19120.35
621.541	18641.12
621.735	18604.26
621.93	18276.59
622.125	18458.85
622.32	18086.12
622.515	18583.78
622.709	18272.49
622.904	18114.8
623.099	17881.33
623.294	18063.6
623.488	17635.57
623.683	17608.95
623.878	17555.7
624.072	17584.37
624.267	17545.46
624.462	17574.13
624.656	17191.16
624.851	17185.02
625.046	17131.77
625.24	16826.62
625.435	16797.95
625.629	17000.7
625.824	16709.89
626.018	16908.54
626.213	16156.94
626.407	16480.52
626.602	15982.86
626.796	16527.62
626.991	16507.14
627.185	16107.79
627.38	15882.51
627.574	15733.01
627.768	15870.22
627.963	15763.73
628.157	15485.2
628.352	15880.46
628.546	15339.8
628.74	15474.96
628.935	15347.99
629.129	15290.65
629.323	15159.58
629.517	15276.31
629.712	15143.19
629.906	15173.91
630.1	14967.07
630.294	14934.3
630.489	14657.82
630.683	14928.16
630.877	14532.9
631.071	14414.12
631.265	14442.79
631.459	14129.45
631.653	14166.31
631.848	14252.33
632.042	14217.51
632.236	14215.46
632.43	13807.92
632.624	14006.57
632.818	13879.6
633.012	13814.06
633.206	13846.83
633.4	13697.33
633.594	13343.03
633.788	13338.93
633.982	13484.34
634.176	13633.84
634.369	13125.94
634.563	13302.07
634.757	13097.27
634.951	13031.74
635.145	13001.02
635.339	13209.91
635.533	12998.97
635.726	12935.48
635.92	12656.96
636.114	12845.37
636.308	12562.75
636.501	12613.95
636.695	12618.05
636.889	12503.36
637.083	12351.81
637.276	12302.66
637.47	12343.62
637.664	12167.49
637.857	12228.93
638.051	12261.7
638.244	12071.24
638.438	11772.24
638.632	11999.56
638.825	11815.24
639.019	11522.38
639.212	11737.42
639.406	11823.44
639.599	11446.61
639.793	11489.62
639.986	11186.52
640.18	11493.71
640.373	11317.59
640.567	11043.16
640.76	11153.75
640.954	11037.02
641.147	11010.39
641.34	10989.91
641.534	10942.81
641.727	10850.65
641.92	10922.33
642.114	10727.77
642.307	10764.64
642.5	10645.85
642.694	10697.05
642.887	10213.73
643.08	10543.46
643.273	10584.41
643.467	10467.68
643.66	10383.71
643.853	10291.55
644.046	10244.45
644.239	10205.54
644.432	10174.82
644.626	9986.41
644.819	10047.85
645.012	9982.31
645.205	9990.5
645.398	10049.89
645.591	9804.14
645.784	9800.04
645.977	9621.87
646.17	9488.75
646.363	9595.25
646.556	9333.11
646.749	9685.36
646.942	9681.26
647.135	9355.63
647.328	9585.01
647.521	9341.3
647.714	9292.15
647.907	9402.74
648.099	9267.57
648.292	9101.69
648.485	9109.88
648.678	9044.34
648.871	8974.71
649.064	8874.36
649.256	8903.03
649.449	8943.99
649.642	9138.55
649.835	8855.93
650.027	8708.48
650.22	8706.43
650.413	8534.4
650.605	8595.84
650.798	8579.45
650.991	8546.69
651.183	8489.34
651.376	8302.98
651.568	8415.62
651.761	8403.33
651.954	8292.74
652.146	8239.49
652.339	8352.13
652.531	8167.81
652.724	8046.98
652.916	7944.58
653.109	8067.46
653.301	8057.22
653.494	7907.72
653.686	7915.91
653.879	8128.9
654.071	7819.66
654.263	7733.64
654.456	7795.08
654.648	7711.11
654.84	7702.92
655.033	7625.1
655.225	7600.52
655.417	7649.68
655.61	7293.33
655.802	7616.91
655.994	7485.84
656.186	7420.3
656.379	7340.43
656.571	7348.62
656.763	7307.66
656.955	7389.58
657.148	7084.44
657.34	7283.09
657.532	7078.29
657.724	6947.22
657.916	7088.53
658.108	7068.05
658.3	6965.65
658.492	6871.45
658.684	6869.4
658.876	6805.91
659.068	6838.68
659.26	6699.42
659.452	6699.42
659.644	6754.71
659.836	6678.94
660.028	6697.37
660.22	6646.17
660.412	6527.39
660.604	6334.88
660.796	6435.23
660.988	6590.88
661.18	6574.49
661.372	6371.74
661.563	6277.54
661.755	6318.5
661.947	6390.17
662.139	6222.24
662.331	6089.12
662.522	6234.53
662.714	6150.56
662.906	6236.58
663.097	6234.53
663.289	6105.51
663.481	6015.4
663.673	6080.93
663.864	6046.12
664.056	5960.1
664.247	5876.13
664.439	5730.73
664.631	5876.13
664.822	5937.57
665.014	5849.51
665.205	5872.04
665.397	5831.08
665.588	5677.48
665.78	5505.45
665.971	5630.38
666.163	5532.08
666.354	5611.95
666.546	5579.18
666.737	5497.26
666.929	5542.32
667.12	5548.46
667.311	5476.78
667.503	5503.4
667.694	5472.68
667.885	5433.77
668.077	5343.66
668.268	5243.31
668.459	5437.87
668.651	5337.52
668.842	5048.75
669.033	5204.4
669.224	5444.01
669.416	5255.6
669.607	5218.74
669.798	5179.82
669.989	5130.67
670.18	4985.27
670.371	5218.74
670.563	5116.34
670.754	5179.82
670.945	4985.27
671.136	5050.8
671.327	4970.93
671.518	4962.74
671.709	5003.7
671.9	4958.64
672.091	5026.23
672.282	4835.77
672.473	4956.6
672.664	4907.45
672.855	4770.23
673.046	4782.52
673.237	4809.14
673.428	4725.18
673.619	4786.61
673.809	4710.84
674	4698.55
674.191	4663.74
674.382	4567.48
674.573	4686.26
674.764	4555.19
674.954	4665.78
675.145	4612.54
675.336	4528.57
675.527	4518.33
675.717	4667.83
675.908	4610.49
676.099	4590.01
676.289	4731.32
676.48	4407.74
676.671	4417.98
676.861	4516.28
677.052	4555.19
677.243	4407.74
677.433	4514.24
677.624	4422.08
677.814	4327.87
678.005	4325.82
678.195	4266.43
678.386	4479.42
678.576	4444.6
678.767	4325.82
678.957	4293.05
679.148	4526.52
679.338	4278.72
679.529	4137.41
679.719	4235.71
679.909	4213.18
680.1	4426.17
680.29	4237.76
680.481	4444.6
680.671	4409.79
680.861	4356.54
681.052	4299.2
681.242	4278.72
681.432	4198.85
681.622	4264.38
681.813	4108.74
682.003	4186.56
682.193	4178.37
682.383	4274.62
682.573	4043.2
682.764	4080.07
682.954	4059.59
683.144	4155.84
683.334	4063.68
683.524	4094.4
683.714	4030.91
683.904	4020.67
684.094	4112.83
684.284	3981.76
684.474	3951.04
684.664	4041.15
684.854	4041.15
685.044	3840.45
685.234	3920.32
685.424	3893.7
685.614	3953.09
685.804	3877.32
685.994	4037.06
686.184	3914.18
686.374	3934.66
686.564	3819.97
686.753	3920.32
686.943	3768.77
687.133	3746.25
687.323	3668.42
687.513	3834.31
687.702	3754.44
687.892	3748.29
688.082	3619.27
688.272	3647.94
688.461	3725.77
688.651	3684.81
688.841	3631.56
689.03	3627.46
689.22	3690.95
689.41	3693
689.599	3488.2
689.789	3545.55
689.979	3596.75
690.168	3615.18
690.358	3459.53
690.547	3693
690.737	3434.96
690.926	3326.41
691.116	3467.72
691.305	3508.68
691.495	3441.1
691.684	3408.33
691.874	3457.48
692.063	3441.1
692.252	3441.1
692.442	3379.66
692.631	3209.68
692.82	3201.49
693.01	3176.91
693.199	3168.72
693.388	3164.62
693.578	3187.15
693.767	3242.45
693.956	3088.85
694.146	3242.45
694.335	3178.96
694.524	3064.27
694.713	3158.48
694.902	3094.99
695.092	3181.01
695.281	3103.18
695.47	2990.55
695.659	3031.51
695.848	3047.89
696.037	3064.27
696.226	3082.7
696.415	2970.07
696.604	2970.07
696.793	2861.52
696.982	2877.91
697.171	3000.79
697.36	2910.68
697.549	2947.54
697.738	2904.53
697.927	2914.77
698.116	2798.04
698.305	2892.24
698.494	2918.87
698.683	2947.54
698.872	2908.63
699.061	2894.29
699.25	2736.6
699.438	2763.22
699.627	2728.41
699.816	2787.8
700.005	2691.54
700.193	2736.6
700.382	2804.18
700.571	2761.17
700.76	2669.02
700.948	2773.46
701.137	2730.45
701.326	2728.41
701.514	2714.07
701.703	2572.76
701.892	2644.44
702.08	2646.49
702.269	2738.65
702.457	2560.47
702.646	2646.49
702.834	2636.25
703.023	2720.21
703.212	2660.82
703.4	2605.53
703.589	2656.73
703.777	2562.52
703.965	2613.72
704.154	2687.45
704.342	2537.95
704.531	2623.96
704.719	2587.1
704.907	2546.14
705.096	2697.69
705.284	2603.48
705.472	2548.19
705.661	2632.15
705.849	2437.59
706.037	2611.67
706.226	2521.56
706.414	2664.92
706.602	2558.42
706.79	2570.71
706.979	2525.66
707.167	2400.73
707.355	2533.85
707.543	2570.71
707.731	2513.37
707.919	2425.31
708.107	2595.29
708.296	2437.59
708.484	2513.37
708.672	2527.71
708.86	2525.66
709.048	2488.79
709.236	2490.84
709.424	2425.31
709.612	2544.09
709.8	2544.09
709.988	2578.9
710.176	2464.22
710.364	2496.99
710.551	2431.45
710.739	2537.95
710.927	2449.88
711.115	2484.7
711.303	2501.08
711.491	2568.66
711.679	2458.07
711.866	2533.85
712.054	2435.55
712.242	2464.22
712.43	2488.79
712.617	2544.09
712.805	2525.66
712.993	2583
713.181	2499.03
713.368	2413.02
713.556	2458.07
713.744	2492.89
713.931	2425.31
714.119	2476.51
714.306	2404.83
714.494	2509.27
714.682	2499.03
714.869	2542.04
715.057	2382.3
715.244	2466.27
715.432	2505.18
715.619	2449.88
715.807	2554.33
715.994	2496.99
716.182	2431.45
716.369	2501.08
716.556	2533.85
716.744	2595.29
716.931	2460.12
717.119	2474.46
717.306	2533.85
717.493	2503.13
717.681	2499.03
717.868	2456.03
718.055	2529.75
718.242	2415.07
718.43	2562.52
718.617	2503.13
718.804	2523.61
718.991	2496.99
719.179	2437.59
719.366	2462.17
719.553	2628.06
719.74	2568.66
719.927	2591.19
720.114	2509.27
720.301	2513.37
720.488	2474.46
720.676	2595.29
720.863	2443.74
721.05	2507.23
721.237	2572.76
721.424	2507.23
721.611	2529.75
721.798	2486.75
721.985	2488.79
722.172	2496.99
722.358	2380.25
722.545	2507.23
722.732	2585.05
722.919	2499.03
723.106	2402.78
723.293	2638.3
723.48	2490.84
723.667	2435.55
723.853	2503.13
724.04	2574.81
724.227	2558.42
724.414	2533.85
724.6	2566.62
724.787	2492.89
724.974	2605.53
725.161	2597.34
725.347	2433.5
725.534	2511.32
725.72	2548.19
725.907	2578.9
726.094	2517.47
726.28	2490.84
726.467	2642.39
726.653	2636.25
726.84	2566.62
727.027	2585.05
727.213	2482.65
727.4	2593.24
727.586	2556.38
727.773	2644.44
727.959	2673.11
728.145	2648.54
728.332	2589.14
728.518	2580.95
728.705	2601.43
728.891	2603.48
729.077	2599.38
729.264	2607.58
729.45	2562.52
729.636	2689.49
729.823	2482.65
730.009	2539.99
730.195	2515.42
730.382	2626.01
730.568	2578.9
730.754	2583
730.94	2595.29
731.126	2591.19
731.313	2562.52
731.499	2609.62
731.685	2609.62
731.871	2447.83
732.057	2714.07
732.243	2636.25
732.429	2564.57
732.615	2660.82
732.801	2458.07
732.987	2589.14
733.173	2556.38
733.359	2613.72
733.545	2568.66
733.731	2537.95
733.917	2617.82
734.103	2583
734.289	2499.03
734.475	2568.66
734.661	2623.96
734.847	2623.96
735.033	2576.86
735.219	2521.56
735.404	2529.75
735.59	2697.69
735.776	2562.52
735.962	2615.77
736.148	2609.62
736.333	2548.19
736.519	2423.26
736.705	2562.52
736.89	2718.17
737.076	2644.44
737.262	2529.75
737.447	2560.47
737.633	2499.03
737.819	2585.05
738.004	2435.55
738.19	2544.09
738.375	2513.37
738.561	2517.47
738.747	2503.13
738.932	2361.82
739.118	2570.71
739.303	2435.55
739.489	2421.21
739.674	2445.79
739.859	2476.51
740.045	2476.51
740.23	2451.93
740.416	2365.92
740.601	2496.99
740.786	2535.9
740.972	2449.88
741.157	2443.74
741.342	2392.54
741.528	2462.17
741.713	2501.08
741.898	2292.19
742.084	2357.72
742.269	2308.57
742.454	2433.5
742.639	2370.01
742.824	2406.88
743.01	2306.52
743.195	2351.58
743.38	2335.2
743.565	2327
743.75	2312.67
743.935	2243.04
744.12	2284
744.305	2177.5
744.49	2230.75
744.675	2327
744.86	2226.65
745.045	2284
745.23	2275.81
745.415	2167.26
745.6	2197.98
745.785	2224.61
745.97	2183.65
746.155	2183.65
746.34	2132.45
746.525	2208.22
746.71	2269.66
746.895	2159.07
747.079	2150.88
747.264	2075.1
747.449	2050.53
747.634	2107.87
747.819	2197.98
748.003	2081.25
748.188	2154.98
748.373	2023.91
748.557	1987.04
748.742	1987.04
748.927	1989.09
749.111	1948.13
749.296	1954.27
749.481	2038.24
749.665	2038.24
749.85	1870.31
750.034	2034.14
750.219	1909.22
750.404	1827.3
750.588	1974.75
750.773	1792.48
750.957	1927.65
751.141	1931.75
751.326	1876.45
751.51	1933.79
751.695	1864.16
751.879	1888.74
752.064	1753.57
752.248	1802.72
752.432	1812.96
752.617	1784.29
752.801	1851.88
752.985	1769.96
753.17	1741.29
753.354	1710.57
753.538	1636.84
753.722	1731.05
753.907	1677.8
754.091	1649.13
754.275	1645.03
754.459	1692.13
754.643	1622.5
754.828	1595.88
755.012	1692.13
755.196	1573.35
755.38	1526.25
755.564	1599.98
755.748	1546.73
755.932	1597.93
756.116	1571.3
756.3	1501.67
756.484	1532.39
756.668	1520.1
756.852	1550.82
757.036	1491.43
757.22	1475.05
757.404	1448.43
757.588	1456.62
757.772	1477.1
757.956	1530.34
758.14	1434.09
758.323	1323.5
758.507	1403.37
758.691	1399.27
758.875	1440.23
759.059	1405.42
759.242	1325.55
759.426	1466.86
759.61	1372.65
759.794	1305.07
759.977	1370.6
760.161	1305.07
760.345	1444.33
760.528	1475.05
760.712	1346.03
760.895	1311.21
761.079	1278.44
761.263	1296.88
761.446	1272.3
761.63	1305.07
761.813	1243.63
761.997	1237.49
762.18	1264.11
762.364	1368.56
762.547	1255.92
762.731	1292.78
762.914	1202.67
763.098	1325.55
763.281	1239.53
763.464	1223.15
763.648	1198.57
763.831	1190.38
764.015	1178.09
764.198	1122.8
764.381	1208.81
764.564	1098.22
764.748	1135.09
764.931	1192.43
765.114	1153.52
765.297	1135.09
765.481	1147.37
765.664	1171.95
765.847	1122.8
766.03	1114.61
766.213	1137.13
766.397	1124.85
766.58	1073.65
766.763	1051.12
766.946	1147.37
767.129	1196.53
767.312	1044.98
767.495	1092.08
767.678	1059.31
767.861	1133.04
768.044	1174
768.227	1055.22
768.41	977.39
768.593	1057.26
768.776	1059.31
768.959	1057.26
769.142	1128.94
769.324	1079.79
769.507	1004.02
769.69	975.35
769.873	1049.07
770.056	1110.51
770.239	948.72
770.421	1004.02
770.604	938.48
770.787	1042.93
770.97	940.53
771.152	862.71
771.335	999.92
771.518	967.15
771.7	981.49
771.883	924.15
772.066	969.2
772.248	907.76
772.431	924.15
772.613	983.54
772.796	883.19
772.978	911.86
773.161	866.8
773.343	862.71
773.526	907.76
773.708	885.23
773.891	872.95
774.073	866.8
774.256	899.57
774.438	963.06
774.621	825.84
774.803	950.77
774.985	715.25
775.168	782.84
775.35	879.09
775.532	846.32
775.715	799.22
775.897	858.61
776.079	770.55
776.261	733.68
776.444	793.08
776.626	842.23
776.808	799.22
776.99	719.35
777.173	788.98
777.355	737.78
777.537	811.51
777.719	719.35
777.901	705.01
778.083	768.5
778.265	739.83
778.447	713.21
778.629	725.49
778.811	719.35
778.993	768.5
779.175	764.4
779.357	719.35
779.539	635.38
779.721	698.87
779.903	684.53
780.085	664.05
780.267	766.45
780.449	711.16
780.631	760.31
780.812	698.87
780.994	602.61
781.176	616.95
781.358	590.33
781.54	567.8
781.721	567.8
781.903	561.66
782.085	565.75
782.267	530.94
782.448	629.24
782.63	633.33
782.812	621.05
782.993	678.39
783.175	524.79
783.357	659.96
783.538	578.04
783.72	524.79
783.901	535.03
784.083	582.14
784.264	520.7
784.446	545.27
784.627	610.81
784.809	453.11
784.99	528.89
785.172	549.37
785.353	508.41
785.535	426.49
785.716	494.07
785.897	575.99
786.079	547.32
786.26	522.74
786.441	500.22
786.623	498.17
786.804	532.98
786.985	473.59
787.167	532.98
787.348	418.3
787.529	418.3
787.71	434.68
787.891	555.51
788.073	473.59
788.254	387.58
788.435	608.76
788.616	586.23
788.797	455.16
788.978	444.92
789.159	434.68
789.34	506.36
789.522	557.56
789.703	406.01
789.884	430.59
790.065	467.45
790.246	387.58
790.427	432.63
790.607	498.17
790.788	487.93
790.969	410.11
791.15	467.45
791.331	395.77
791.512	381.43
791.693	399.87
791.874	387.58
792.054	449.02
792.235	420.35
792.416	399.87
792.597	338.43
792.778	471.54
792.958	383.48
793.139	428.54
793.32	336.38
793.5	301.56
793.681	391.67
793.862	403.96
794.042	440.83
794.223	391.67
794.404	330.23
794.584	320
794.765	383.48
794.945	363
795.126	297.47
795.306	320
795.487	391.67
795.667	342.52
795.848	412.15
796.028	336.38
796.209	324.09
796.389	295.42
796.57	344.57
796.75	305.66
796.93	350.71
797.111	293.37
797.291	342.52
797.471	299.52
797.652	416.25
797.832	332.28
798.012	287.23
798.192	295.42
798.373	309.76
798.553	264.7
798.733	324.09
798.913	367.1
799.093	379.39
799.274	276.99
799.454	334.33
799.634	279.04
799.814	297.47
799.994	360.95
800.174	315.9
800.354	354.81
800.534	236.03
800.714	305.66
800.894	215.55
801.074	344.57
801.254	231.93
801.434	287.23
801.614	346.62
801.794	317.95
801.974	612.85
802.154	297.47
802.334	295.42
802.514	244.22
802.693	377.34
802.873	289.28
803.053	274.94
803.233	254.46
803.413	223.74
803.592	291.32
803.772	223.74
803.952	244.22
804.131	223.74
804.311	274.94
804.491	213.5
804.67	227.84
804.85	221.69
805.03	231.93
805.209	195.07
805.389	215.55
805.568	242.17
805.748	195.07
805.928	285.18
806.107	199.16
806.287	229.88
806.466	158.21
806.646	211.45
806.825	238.08
807.004	209.4
807.184	254.46
807.363	317.95
807.543	223.74
807.722	199.16
807.901	182.78
808.081	225.79
808.26	213.5
808.439	213.5
808.619	199.16
808.798	164.35
808.977	256.51
809.156	246.27
809.336	158.21
809.515	268.8
809.694	203.26
809.873	193.02
810.052	113.15
810.231	180.73
810.411	166.4
810.59	260.6
810.769	219.64
810.948	139.77
811.127	207.36
811.306	229.88
811.485	199.16
811.664	221.69
811.843	176.64
812.022	139.77
812.201	209.4
812.38	193.02
812.559	164.35
812.737	227.84
812.916	109.05
813.095	195.07
813.274	131.58
813.453	203.26
813.632	199.16
813.811	231.93
813.989	188.93
814.168	233.98
814.347	141.82
814.526	141.82
814.704	152.06
814.883	215.55
815.062	154.11
815.24	199.16
815.419	174.59
815.598	186.88
815.776	113.15
815.955	94.72
816.133	150.01
816.312	252.41
816.49	174.59
816.669	139.77
816.847	190.97
817.026	166.4
817.204	135.68
817.383	141.82
817.561	74.24
817.74	156.16
817.918	125.44
818.097	199.16
818.275	115.2
818.453	150.01
818.632	188.93
818.81	174.59
818.988	184.83
819.167	145.92
819.345	201.21
819.523	117.25
819.701	172.54
819.879	164.35
820.058	117.25
820.236	147.97
820.414	176.64
820.592	154.11
820.77	92.67
820.948	215.55
821.127	121.34
821.305	158.21
821.483	121.34
821.661	195.07
821.839	133.63
822.017	51.71
822.195	178.69
822.373	117.25
822.551	102.91
822.729	152.06
822.907	164.35
823.085	135.68
823.262	166.4
823.44	82.43
823.618	111.1
823.796	141.82
823.974	150.01
824.152	115.2
824.329	145.92
824.507	51.71
824.685	92.67
824.863	76.29
825.04	94.72
825.218	117.25
825.396	84.48
825.574	82.43
825.751	164.35
825.929	82.43
826.107	64
826.284	174.59
826.462	156.16
826.639	123.39
826.817	94.72
826.994	125.44
827.172	102.91
827.349	123.39
827.527	82.43
827.704	37.38
827.882	117.25
828.059	190.97
828.237	-1.54
828.414	152.06
828.591	57.86
828.769	102.91
828.946	86.53
829.124	23.04
829.301	94.72
829.478	197.12
829.655	74.24
829.833	72.19
830.01	102.91
830.187	80.38
830.364	113.15
830.542	104.96
830.719	109.05
830.896	78.33
831.073	102.91
831.25	150.01
831.427	150.01
831.604	-22.02
831.782	104.96
831.959	135.68
832.136	78.33
832.313	82.43
832.49	121.34
832.667	145.92
832.844	64
833.021	164.35
833.198	86.53
833.374	80.38
833.551	104.96
833.728	160.25
833.905	182.78
834.082	141.82
834.259	39.42
834.436	49.66
834.612	139.77
834.789	145.92
834.966	37.38
835.143	59.9
835.319	129.53
835.496	117.25
835.673	115.2
835.85	150.01
836.026	68.09
836.203	68.09
836.38	115.2
836.556	61.95
836.733	150.01
836.909	129.53
837.086	68.09
837.262	4.61
837.439	80.38
837.616	70.14
837.792	102.91
837.968	125.44
838.145	92.67
838.321	92.67
838.498	229.88
838.674	178.69
838.851	74.24
839.027	121.34
839.203	80.38
839.38	92.67
839.556	59.9
839.732	82.43
839.909	47.62
840.085	129.53
840.261	109.05
840.437	72.19
840.614	90.62
840.79	111.1
840.966	25.09
841.142	66.05
841.318	82.43
841.494	94.72
841.671	-46.59
841.847	117.25
842.023	109.05
842.199	123.39
842.375	80.38
842.551	2.56
842.727	80.38
842.903	123.39
843.079	64
843.255	96.77
843.431	64
843.607	96.77
843.783	35.33
843.959	90.62
844.134	51.71
844.31	72.19
844.486	-5.63
844.662	25.09
844.838	45.57
845.013	70.14
845.189	72.19
845.365	82.43
845.541	41.47
845.716	78.33
845.892	68.09
846.068	51.71
846.244	12.8
846.419	59.9
846.595	18.94
846.77	0.51
846.946	16.9
847.122	141.82
847.297	-1.54
847.473	88.57
847.648	72.19
847.824	78.33
847.999	0.51
848.175	2.56
848.35	154.11
848.526	133.63
848.701	82.43
848.876	109.05
849.052	80.38
849.227	80.38
849.403	90.62
849.578	39.42
849.753	43.52
849.929	8.7
850.104	57.86
850.279	66.05
850.454	43.52
850.63	68.09
850.805	16.9
850.98	100.86
851.155	14.85
851.33	27.14
851.505	31.23
851.681	100.86
851.856	-46.59
852.031	53.76
852.206	72.19
852.381	82.43
852.556	-1.54
852.731	31.23
852.906	23.04
853.081	74.24
853.256	49.66
853.431	35.33
853.606	41.47
853.781	84.48
853.956	2.56
854.131	55.81
854.305	-5.63
854.48	12.8
854.655	100.86
854.83	12.8
855.005	10.75
855.18	53.76
855.354	72.19
855.529	55.81
855.704	-13.82
855.879	37.38
856.053	20.99
856.228	59.9
856.403	-1.54
856.577	80.38
856.752	20.99
856.926	76.29
857.101	43.52
857.276	53.76
857.45	72.19
857.625	33.28
857.799	33.28
857.974	51.71
858.148	51.71
858.323	23.04
858.497	-36.35
858.672	64
858.846	23.04
859.02	72.19
859.195	68.09
859.369	49.66
859.543	-38.4
859.718	25.09
859.892	29.18
860.066	51.71
860.241	43.52
860.415	88.57
860.589	-44.54
860.763	117.25
860.938	25.09
861.112	23.04
861.286	-50.69
861.46	43.52
861.634	18.94
861.808	12.8
861.982	88.57
862.157	98.81
862.331	8.7
862.505	2.56
862.679	-1.54
862.853	-34.3
863.027	59.9
863.201	-15.87
863.375	-5.63
863.549	27.14
863.722	55.81
863.896	137.73
864.07	-7.68
864.244	2.56
864.418	-13.82
864.592	31.23
864.766	6.66
864.939	59.9
865.113	-26.11
865.287	74.24
865.461	-22.02
865.634	35.33
865.808	12.8
865.982	35.33
866.156	129.53
866.329	2.56
866.503	66.05
866.676	35.33
866.85	-17.92
867.024	-32.26
867.197	45.57
867.371	88.57
867.544	35.33
867.718	57.86
867.891	41.47
868.065	18.94
868.238	-9.73
868.412	55.81
868.585	68.09
868.759	39.42
868.932	33.28
869.105	27.14
869.279	18.94
869.452	45.57
869.625	0.51
869.799	35.33
869.972	-11.78
870.145	23.04
870.319	31.23
870.492	64
870.665	14.85
870.838	10.75
871.011	10.75
871.185	-32.26
871.358	2.56
871.531	45.57
871.704	-42.5
871.877	10.75
872.05	66.05
872.223	59.9
872.396	55.81
872.569	84.48
872.742	-9.73
872.915	-11.78
873.088	27.14
873.261	10.75
873.434	37.38
873.607	20.99
873.78	66.05
873.953	2.56
874.126	107.01
874.299	47.62
874.471	6.66
874.644	14.85
874.817	-28.16
874.99	49.66
875.163	74.24
875.335	16.9
875.508	-15.87
875.681	59.9
875.853	70.14
876.026	-17.92
876.199	98.81
876.371	23.04
876.544	16.9
876.717	10.75
876.889	4.61
877.062	31.23
877.234	57.86
877.407	64
877.579	76.29
877.752	33.28
877.924	-5.63
878.097	6.66
878.269	-46.59
878.442	8.7
878.614	68.09
878.786	133.63
878.959	10.75
879.131	25.09
879.303	0.51
879.476	66.05
879.648	-1.54
879.82	27.14
879.993	-22.02
880.165	0.51
880.337	8.7
880.509	139.77
880.681	-5.63
880.854	-22.02
881.026	49.66
881.198	76.29
881.37	43.52
881.542	-60.93
881.714	-38.4
881.886	-22.02
882.058	41.47
882.23	27.14
882.402	-22.02
882.574	39.42
882.746	111.1
882.918	-13.82
883.09	61.95
883.262	-7.68
883.434	25.09
883.606	18.94
883.778	-26.11
883.95	41.47
884.122	12.8
884.293	-1.54
884.465	-38.4
884.637	-30.21
884.809	-56.83
884.98	-1.54
885.152	25.09
885.324	-54.78
885.496	16.9
885.667	4.61
885.839	43.52
886.011	84.48
886.182	39.42
886.354	-15.87
886.525	35.33
886.697	33.28
886.869	-22.02
887.04	53.76
887.212	-17.92
887.383	82.43
887.555	10.75
887.726	35.33
887.897	-15.87
888.069	-32.26
888.24	29.18
888.412	-17.92
888.583	8.7
888.754	-52.74
888.926	74.24
889.097	0.51
889.268	41.47
889.44	14.85
889.611	39.42
889.782	72.19
889.953	27.14
890.125	37.38
890.296	0.51
890.467	31.23
890.638	-3.58
890.809	57.86
890.98	8.7
891.151	61.95
891.323	41.47
891.494	12.8
891.665	-1.54
891.836	31.23
892.007	10.75
892.178	-1.54
892.349	68.09
892.52	-30.21
892.691	10.75
892.862	18.94
893.032	43.52
893.203	29.18
893.374	66.05
893.545	0.51
893.716	14.85
893.887	0.51
894.057	10.75
894.228	-17.92
894.399	8.7
894.57	57.86
894.74	66.05
894.911	-17.92
895.082	43.52
895.253	39.42
895.423	31.23
895.594	-38.4
895.764	10.75
895.935	-48.64
896.106	-28.16
896.276	23.04
896.447	35.33
896.617	-28.16
896.788	-17.92
896.958	23.04
897.129	-44.54
897.299	8.7
897.47	70.14
897.64	-1.54
897.81	-75.26
897.981	12.8
898.151	59.9
898.322	18.94
898.492	47.62
898.662	8.7
898.832	-32.26
899.003	68.09
899.173	33.28
899.343	25.09
899.513	-38.4
