Data from USB4F104151__17__11-36-29-727.txt Node

Date: Fri Mar 14 11:36:29 EDT 2025
User: louis
Spectrometer: USB4F10415
Trigger mode: 4
Integration Time (sec): 2.000000E-2
Scans to average: 1
Electric dark correction enabled: true
Nonlinearity correction enabled: false
Boxcar width: 0
XAxis mode: Wavelengths
Number of Pixels in Spectrum: 3648
>>>>>Begin Spectral Data<<<<<
178.204	-48.13
178.424	-48.13
178.644	-48.13
178.864	-78.85
179.084	-54.27
179.304	-91.13
179.524	-15.36
179.744	15.36
179.964	13.31
180.184	11.26
180.404	46.08
180.624	84.99
180.844	17.41
181.064	-44.03
181.283	15.36
181.503	-9.22
181.723	-44.03
181.943	62.46
182.163	29.7
182.383	78.85
182.602	21.5
182.822	74.75
183.042	31.74
183.262	27.65
183.482	66.56
183.701	148.48
183.921	109.57
184.141	-7.17
184.361	60.42
184.58	72.7
184.8	35.84
185.02	15.36
185.239	117.76
185.459	54.27
185.679	72.7
185.898	78.85
186.118	54.27
186.338	44.03
186.557	21.5
186.777	37.89
186.997	60.42
187.216	-46.08
187.436	113.66
187.655	70.65
187.875	87.04
188.095	-13.31
188.314	5.12
188.534	56.32
188.753	-11.26
188.973	29.7
189.192	60.42
189.412	-3.07
189.631	87.04
189.851	23.55
190.07	70.65
190.29	68.61
190.509	74.75
190.729	33.79
190.948	29.7
191.168	144.38
191.387	46.08
191.607	1.02
191.826	-7.17
192.045	46.08
192.265	76.8
192.484	74.75
192.704	13.31
192.923	87.04
193.142	95.23
193.362	-1.02
193.581	-3.07
193.8	93.18
194.02	113.66
194.239	15.36
194.458	82.94
194.678	27.65
194.897	50.18
195.116	33.79
195.335	68.61
195.555	60.42
195.774	-37.89
195.993	50.18
196.212	-25.6
196.432	-5.12
196.651	87.04
196.87	68.61
197.089	25.6
197.308	60.42
197.528	70.65
197.747	-35.84
197.966	68.61
198.185	93.18
198.404	17.41
198.623	54.27
198.842	21.5
199.062	103.42
199.281	82.94
199.5	-13.31
199.719	48.13
199.938	101.37
200.157	64.51
200.376	58.37
200.595	31.74
200.814	62.46
201.033	31.74
201.252	27.65
201.471	39.94
201.69	64.51
201.909	19.46
202.128	66.56
202.347	50.18
202.566	19.46
202.785	-1.02
203.004	35.84
203.223	87.04
203.442	11.26
203.661	25.6
203.879	17.41
204.098	64.51
204.317	25.6
204.536	62.46
204.755	-21.5
204.974	5.12
205.193	76.8
205.411	84.99
205.63	29.7
205.849	58.37
206.068	78.85
206.287	46.08
206.505	95.23
206.724	29.7
206.943	121.85
207.162	95.23
207.381	-9.22
207.599	68.61
207.818	29.7
208.037	13.31
208.255	25.6
208.474	33.79
208.693	25.6
208.911	41.98
209.13	-52.22
209.349	44.03
209.567	70.65
209.786	5.12
210.005	130.05
210.223	13.31
210.442	11.26
210.661	17.41
210.879	-3.07
211.098	13.31
211.316	11.26
211.535	70.65
211.753	25.6
211.972	107.52
212.191	11.26
212.409	13.31
212.628	17.41
212.846	39.94
213.065	39.94
213.283	50.18
213.502	17.41
213.72	52.22
213.938	35.84
214.157	15.36
214.375	-7.17
214.594	66.56
214.812	-5.12
215.031	66.56
215.249	60.42
215.467	111.61
215.686	62.46
215.904	41.98
216.122	-17.41
216.341	80.89
216.559	115.71
216.778	74.75
216.996	9.22
217.214	39.94
217.432	25.6
217.651	3.07
217.869	54.27
218.087	68.61
218.306	1.02
218.524	101.37
218.742	-31.74
218.96	76.8
219.179	78.85
219.397	70.65
219.615	115.71
219.833	62.46
220.051	23.55
220.27	89.09
220.488	-25.6
220.706	33.79
220.924	41.98
221.142	68.61
221.36	29.7
221.578	78.85
221.796	103.42
222.015	37.89
222.233	21.5
222.451	70.65
222.669	54.27
222.887	144.38
223.105	15.36
223.323	13.31
223.541	52.22
223.759	58.37
223.977	54.27
224.195	58.37
224.413	5.12
224.631	35.84
224.849	-11.26
225.067	35.84
225.285	35.84
225.503	58.37
225.721	13.31
225.939	46.08
226.157	21.5
226.375	89.09
226.592	66.56
226.81	13.31
227.028	54.27
227.246	60.42
227.464	19.46
227.682	5.12
227.9	25.6
228.117	103.42
228.335	41.98
228.553	1.02
228.771	-11.26
228.989	41.98
229.206	74.75
229.424	-29.7
229.642	9.22
229.86	62.46
230.077	31.74
230.295	72.7
230.513	70.65
230.731	50.18
230.948	105.47
231.166	111.61
231.384	-13.31
231.601	58.37
231.819	74.75
232.037	-37.89
232.254	-1.02
232.472	62.46
232.689	87.04
232.907	41.98
233.125	136.19
233.342	-29.7
233.56	87.04
233.777	87.04
233.995	-5.12
234.213	39.94
234.43	76.8
234.648	-11.26
234.865	-23.55
235.083	62.46
235.3	66.56
235.518	101.37
235.735	66.56
235.953	78.85
236.17	19.46
236.388	146.43
236.605	7.17
236.822	29.7
237.04	82.94
237.257	91.13
237.475	9.22
237.692	41.98
237.909	46.08
238.127	5.12
238.344	1.02
238.562	58.37
238.779	35.84
238.996	52.22
239.214	72.7
239.431	25.6
239.648	48.13
239.865	21.5
240.083	5.12
240.3	39.94
240.517	5.12
240.735	41.98
240.952	17.41
241.169	179.2
241.386	37.89
241.603	46.08
241.821	21.5
242.038	48.13
242.255	29.7
242.472	23.55
242.689	70.65
242.907	19.46
243.124	29.7
243.341	37.89
243.558	52.22
243.775	33.79
243.992	33.79
244.209	35.84
244.426	101.37
244.643	54.27
244.86	74.75
245.078	19.46
245.295	23.55
245.512	113.66
245.729	11.26
245.946	46.08
246.163	23.55
246.38	107.52
246.597	21.5
246.814	58.37
247.031	-44.03
247.248	5.12
247.464	54.27
247.681	19.46
247.898	78.85
248.115	60.42
248.332	93.18
248.549	-17.41
248.766	54.27
248.983	31.74
249.2	19.46
249.417	87.04
249.633	50.18
249.85	101.37
250.067	58.37
250.284	164.86
250.501	-9.22
250.717	93.18
250.934	-21.5
251.151	31.74
251.368	95.23
251.585	70.65
251.801	54.27
252.018	29.7
252.235	54.27
252.451	23.55
252.668	46.08
252.885	15.36
253.102	117.76
253.318	103.42
253.535	91.13
253.752	-21.5
253.968	-17.41
254.185	70.65
254.401	101.37
254.618	74.75
254.835	66.56
255.051	46.08
255.268	72.7
255.484	68.61
255.701	74.75
255.917	113.66
256.134	25.6
256.351	60.42
256.567	39.94
256.784	37.89
257	123.9
257.217	117.76
257.433	27.65
257.65	39.94
257.866	35.84
258.082	82.94
258.299	33.79
258.515	-21.5
258.732	15.36
258.948	21.5
259.165	76.8
259.381	70.65
259.597	39.94
259.814	48.13
260.03	-23.55
260.246	-3.07
260.463	-17.41
260.679	-19.46
260.895	27.65
261.112	48.13
261.328	58.37
261.544	-7.17
261.761	177.15
261.977	58.37
262.193	-23.55
262.409	60.42
262.626	25.6
262.842	27.65
263.058	-7.17
263.274	84.99
263.49	3.07
263.707	-19.46
263.923	52.22
264.139	19.46
264.355	29.7
264.571	101.37
264.787	39.94
265.004	80.89
265.22	21.5
265.436	48.13
265.652	87.04
265.868	64.51
266.084	95.23
266.3	15.36
266.516	-15.36
266.732	107.52
266.948	87.04
267.164	48.13
267.38	134.14
267.596	60.42
267.812	60.42
268.028	50.18
268.244	115.71
268.46	56.32
268.676	52.22
268.892	68.61
269.108	7.17
269.324	48.13
269.54	-31.74
269.756	101.37
269.972	17.41
270.188	33.79
270.403	64.51
270.619	74.75
270.835	44.03
271.051	31.74
271.267	37.89
271.483	33.79
271.698	80.89
271.914	46.08
272.13	54.27
272.346	111.61
272.562	37.89
272.777	91.13
272.993	17.41
273.209	33.79
273.425	21.5
273.64	3.07
273.856	54.27
274.072	25.6
274.287	80.89
274.503	66.56
274.719	37.89
274.934	25.6
275.15	-21.5
275.366	76.8
275.581	111.61
275.797	33.79
276.012	50.18
276.228	44.03
276.444	70.65
276.659	95.23
276.875	37.89
277.09	29.7
277.306	-15.36
277.521	54.27
277.737	58.37
277.952	44.03
278.168	68.61
278.383	52.22
278.599	-13.31
278.814	156.67
279.03	136.19
279.245	87.04
279.461	91.13
279.676	76.8
279.892	-13.31
280.107	95.23
280.322	48.13
280.538	44.03
280.753	46.08
280.969	39.94
281.184	7.17
281.399	78.85
281.615	56.32
281.83	35.84
282.045	25.6
282.26	97.28
282.476	60.42
282.691	54.27
282.906	35.84
283.122	99.33
283.337	33.79
283.552	5.12
283.767	39.94
283.983	50.18
284.198	70.65
284.413	-1.02
284.628	13.31
284.843	15.36
285.058	80.89
285.274	82.94
285.489	-29.7
285.704	37.89
285.919	29.7
286.134	48.13
286.349	9.22
286.564	1.02
286.779	68.61
286.995	29.7
287.21	101.37
287.425	52.22
287.64	13.31
287.855	95.23
288.07	95.23
288.285	78.85
288.5	87.04
288.715	68.61
288.93	48.13
289.145	87.04
289.36	11.26
289.575	89.09
289.79	68.61
290.004	37.89
290.219	7.17
290.434	41.98
290.649	87.04
290.864	64.51
291.079	9.22
291.294	41.98
291.509	21.5
291.724	1.02
291.938	5.12
292.153	52.22
292.368	62.46
292.583	29.7
292.798	41.98
293.012	66.56
293.227	99.33
293.442	64.51
293.657	82.94
293.871	103.42
294.086	-7.17
294.301	84.99
294.516	-13.31
294.73	52.22
294.945	128
295.16	95.23
295.374	60.42
295.589	132.09
295.804	107.52
296.018	87.04
296.233	17.41
296.447	93.18
296.662	54.27
296.877	78.85
297.091	50.18
297.306	84.99
297.52	3.07
297.735	84.99
297.949	68.61
298.164	27.65
298.378	41.98
298.593	39.94
298.807	3.07
299.022	87.04
299.236	130.05
299.451	23.55
299.665	-11.26
299.88	82.94
300.094	25.6
300.309	39.94
300.523	21.5
300.737	89.09
300.952	54.27
301.166	33.79
301.381	9.22
301.595	74.75
301.809	-11.26
302.024	113.66
302.238	56.32
302.452	29.7
302.667	48.13
302.881	48.13
303.095	78.85
303.309	78.85
303.524	-1.02
303.738	76.8
303.952	-9.22
304.166	48.13
304.381	64.51
304.595	19.46
304.809	101.37
305.023	103.42
305.237	84.99
305.452	58.37
305.666	95.23
305.88	5.12
306.094	-3.07
306.308	117.76
306.522	11.26
306.736	41.98
306.95	62.46
307.164	-29.7
307.379	44.03
307.593	91.13
307.807	54.27
308.021	31.74
308.235	19.46
308.449	9.22
308.663	5.12
308.877	99.33
309.091	21.5
309.305	9.22
309.519	95.23
309.733	15.36
309.947	46.08
310.161	46.08
310.374	68.61
310.588	-7.17
310.802	52.22
311.016	105.47
311.23	115.71
311.444	66.56
311.658	68.61
311.872	70.65
312.085	76.8
312.299	107.52
312.513	35.84
312.727	72.7
312.941	35.84
313.154	31.74
313.368	93.18
313.582	17.41
313.796	-7.17
314.009	60.42
314.223	74.75
314.437	138.24
314.651	41.98
314.864	39.94
315.078	97.28
315.292	76.8
315.505	72.7
315.719	54.27
315.933	44.03
316.146	54.27
316.36	5.12
316.573	44.03
316.787	48.13
317.001	62.46
317.214	21.5
317.428	91.13
317.641	50.18
317.855	78.85
318.068	80.89
318.282	-1.02
318.495	54.27
318.709	27.65
318.922	-11.26
319.136	56.32
319.349	46.08
319.563	50.18
319.776	21.5
319.99	9.22
320.203	21.5
320.417	-33.79
320.63	33.79
320.843	103.42
321.057	84.99
321.27	31.74
321.483	66.56
321.697	95.23
321.91	33.79
322.124	-27.65
322.337	70.65
322.55	68.61
322.763	105.47
322.977	-37.89
323.19	41.98
323.403	46.08
323.617	39.94
323.83	84.99
324.043	29.7
324.256	76.8
324.469	19.46
324.683	62.46
324.896	-13.31
325.109	62.46
325.322	13.31
325.535	58.37
325.748	82.94
325.962	101.37
326.175	7.17
326.388	72.7
326.601	25.6
326.814	95.23
327.027	27.65
327.24	89.09
327.453	56.32
327.666	54.27
327.879	62.46
328.092	15.36
328.305	91.13
328.518	-25.6
328.731	58.37
328.944	54.27
329.157	9.22
329.37	58.37
329.583	72.7
329.796	115.71
330.009	27.65
330.222	134.14
330.435	56.32
330.648	3.07
330.861	66.56
331.073	66.56
331.286	76.8
331.499	89.09
331.712	37.89
331.925	44.03
332.138	52.22
332.35	91.13
332.563	41.98
332.776	19.46
332.989	121.85
333.202	48.13
333.414	48.13
333.627	87.04
333.84	37.89
334.053	140.29
334.265	25.6
334.478	23.55
334.691	80.89
334.903	41.98
335.116	70.65
335.329	87.04
335.541	46.08
335.754	-27.65
335.966	60.42
336.179	74.75
336.392	-35.84
336.604	21.5
336.817	33.79
337.029	78.85
337.242	35.84
337.454	23.55
337.667	97.28
337.88	101.37
338.092	46.08
338.305	33.79
338.517	25.6
338.729	50.18
338.942	111.61
339.154	17.41
339.367	19.46
339.579	107.52
339.792	66.56
340.004	107.52
340.217	76.8
340.429	54.27
340.641	9.22
340.854	95.23
341.066	58.37
341.278	78.85
341.491	93.18
341.703	95.23
341.915	29.7
342.128	70.65
342.34	11.26
342.552	76.8
342.764	41.98
342.977	95.23
343.189	99.33
343.401	52.22
343.613	44.03
343.826	31.74
344.038	44.03
344.25	74.75
344.462	-37.89
344.674	54.27
344.886	29.7
345.099	31.74
345.311	115.71
345.523	50.18
345.735	54.27
345.947	41.98
346.159	95.23
346.371	19.46
346.583	66.56
346.795	99.33
347.007	-5.12
347.219	72.7
347.431	13.31
347.643	107.52
347.855	103.42
348.067	132.09
348.279	54.27
348.491	17.41
348.703	48.13
348.915	87.04
349.127	21.5
349.339	33.79
349.551	60.42
349.763	29.7
349.975	68.61
350.187	70.65
350.399	95.23
350.61	111.61
350.822	15.36
351.034	25.6
351.246	109.57
351.458	48.13
351.669	97.28
351.881	87.04
352.093	95.23
352.305	54.27
352.517	99.33
352.728	11.26
352.94	76.8
353.152	111.61
353.363	52.22
353.575	109.57
353.787	109.57
353.999	152.57
354.21	25.6
354.422	50.18
354.633	70.65
354.845	74.75
355.057	60.42
355.268	76.8
355.48	74.75
355.692	19.46
355.903	91.13
356.115	29.7
356.326	-5.12
356.538	134.14
356.749	74.75
356.961	89.09
357.172	107.52
357.384	13.31
357.595	132.09
357.807	168.96
358.018	-7.17
358.23	95.23
358.441	37.89
358.653	19.46
358.864	91.13
359.075	74.75
359.287	41.98
359.498	101.37
359.709	54.27
359.921	95.23
360.132	70.65
360.344	87.04
360.555	99.33
360.766	54.27
360.977	44.03
361.189	84.99
361.4	35.84
361.611	-21.5
361.823	103.42
362.034	50.18
362.245	13.31
362.456	117.76
362.667	-9.22
362.879	-27.65
363.09	64.51
363.301	23.55
363.512	148.48
363.723	54.27
363.935	95.23
364.146	78.85
364.357	76.8
364.568	37.89
364.779	68.61
364.99	70.65
365.201	132.09
365.412	117.76
365.623	19.46
365.834	46.08
366.045	41.98
366.256	5.12
366.467	70.65
366.678	70.65
366.889	78.85
367.1	46.08
367.311	27.65
367.522	117.76
367.733	5.12
367.944	93.18
368.155	62.46
368.366	5.12
368.577	56.32
368.788	74.75
368.999	91.13
369.209	70.65
369.42	160.77
369.631	87.04
369.842	95.23
370.053	72.7
370.264	37.89
370.474	58.37
370.685	82.94
370.896	35.84
371.107	29.7
371.317	87.04
371.528	3.07
371.739	80.89
371.95	128
372.16	29.7
372.371	105.47
372.582	68.61
372.792	-15.36
373.003	66.56
373.214	41.98
373.424	3.07
373.635	70.65
373.846	142.33
374.056	21.5
374.267	27.65
374.477	70.65
374.688	23.55
374.898	93.18
375.109	117.76
375.319	37.89
375.53	48.13
375.74	158.72
375.951	27.65
376.161	54.27
376.372	152.57
376.582	95.23
376.793	154.62
377.003	23.55
377.214	19.46
377.424	80.89
377.635	39.94
377.845	115.71
378.055	107.52
378.266	-21.5
378.476	50.18
378.686	162.81
378.897	-1.02
379.107	91.13
379.317	68.61
379.528	138.24
379.738	87.04
379.948	1.02
380.158	44.03
380.369	46.08
380.579	132.09
380.789	-7.17
380.999	93.18
381.21	91.13
381.42	74.75
381.63	29.7
381.84	109.57
382.05	66.56
382.261	97.28
382.471	82.94
382.681	70.65
382.891	138.24
383.101	103.42
383.311	-15.36
383.521	58.37
383.731	111.61
383.941	52.22
384.151	70.65
384.361	54.27
384.571	17.41
384.781	74.75
384.991	46.08
385.201	164.86
385.411	91.13
385.621	119.81
385.831	93.18
386.041	115.71
386.251	78.85
386.461	123.9
386.671	68.61
386.881	64.51
387.091	158.72
387.301	46.08
387.511	84.99
387.72	31.74
387.93	99.33
388.14	89.09
388.35	19.46
388.56	87.04
388.769	140.29
388.979	54.27
389.189	62.46
389.399	103.42
389.609	44.03
389.818	119.81
390.028	97.28
390.238	103.42
390.447	29.7
390.657	99.33
390.867	123.9
391.076	60.42
391.286	74.75
391.496	97.28
391.705	89.09
391.915	-11.26
392.125	52.22
392.334	93.18
392.544	117.76
392.753	89.09
392.963	13.31
393.172	134.14
393.382	115.71
393.591	115.71
393.801	62.46
394.01	89.09
394.22	95.23
394.429	117.76
394.639	21.5
394.848	138.24
395.058	99.33
395.267	105.47
395.477	136.19
395.686	105.47
395.895	115.71
396.105	177.15
396.314	70.65
396.524	84.99
396.733	144.38
396.942	93.18
397.152	107.52
397.361	50.18
397.57	132.09
397.78	160.77
397.989	119.81
398.198	125.95
398.407	80.89
398.617	164.86
398.826	103.42
399.035	189.44
399.244	119.81
399.453	150.53
399.663	72.7
399.872	207.87
400.081	144.38
400.29	132.09
400.499	128
400.708	115.71
400.917	66.56
401.127	150.53
401.336	168.96
401.545	156.67
401.754	195.58
401.963	185.34
402.172	115.71
402.381	54.27
402.59	181.25
402.799	205.82
403.008	109.57
403.217	89.09
403.426	82.94
403.635	152.57
403.844	134.14
404.053	162.81
404.262	142.33
404.471	134.14
404.68	121.85
404.888	164.86
405.097	64.51
405.306	179.2
405.515	197.63
405.724	209.92
405.933	128
406.142	121.85
406.35	267.26
406.559	211.96
406.768	191.49
406.977	216.06
407.185	193.53
407.394	230.4
407.603	150.53
407.812	226.3
408.02	259.07
408.229	261.12
408.438	257.02
408.646	246.78
408.855	326.65
409.064	279.55
409.272	246.78
409.481	316.41
409.69	355.32
409.898	316.41
410.107	359.42
410.315	357.37
410.524	308.22
410.733	347.13
410.941	316.41
411.15	347.13
411.358	439.29
411.567	424.95
411.775	496.63
411.984	416.76
412.192	447.48
412.401	463.86
412.609	453.63
412.818	523.26
413.026	439.29
413.234	480.25
413.443	576.5
413.651	556.02
413.86	594.93
414.068	601.08
414.276	607.22
414.485	613.37
414.693	607.22
414.901	683
415.11	644.09
415.318	803.83
415.526	723.96
415.734	758.77
415.943	766.96
416.151	887.79
416.359	793.59
416.567	893.94
416.776	941.04
416.984	885.75
417.192	988.14
417.4	1049.58
417.608	928.75
417.817	1014.77
418.025	1098.74
418.233	1151.98
418.441	1031.15
418.649	1172.46
418.857	1225.71
419.065	1332.2
419.273	1313.77
419.481	1364.97
419.689	1530.86
419.897	1401.83
420.105	1524.71
420.313	1487.85
420.521	1602.54
420.729	1633.26
420.937	1623.02
421.145	1627.11
421.353	1766.37
421.561	1905.63
421.769	1891.3
421.977	1897.44
422.185	1946.59
422.393	2106.34
422.601	2198.49
422.809	2315.23
423.017	2317.28
423.224	2345.95
423.432	2444.25
423.64	2358.24
423.848	2761.69
424.056	2552.79
424.263	2790.36
424.471	2843.6
424.679	2806.74
424.887	2962.39
425.094	3034.07
425.302	2989.01
425.51	3335.12
425.718	3486.67
425.925	3392.46
426.133	3488.71
426.341	3681.22
426.548	3881.92
426.756	3830.73
426.964	3783.62
427.171	4248.51
427.379	4156.35
427.586	4340.67
427.794	4316.09
428.001	4565.95
428.209	4885.43
428.417	4709.3
428.624	5012.4
428.832	5274.54
429.039	5227.44
429.247	5006.26
429.454	5548.97
429.662	5905.32
429.869	5661.61
430.076	5788.58
430.284	5602.22
430.491	5979.04
430.699	6386.59
430.906	6353.82
431.114	6323.1
431.321	6726.55
431.528	6704.03
431.736	7093.14
431.943	7527.31
432.15	7244.69
432.358	7334.8
432.565	7771.02
432.772	7801.74
432.979	8020.87
433.187	8471.42
433.394	8532.86
433.601	9231.22
433.808	8864.63
434.016	8848.25
434.223	9200.5
434.43	9905
434.637	9689.96
434.844	10111.85
435.052	10517.34
435.259	10527.58
435.466	10693.47
435.673	10161
435.88	11117.4
436.087	11629.39
436.294	11553.62
436.501	11518.8
436.708	11678.54
436.915	12024.65
437.122	12677.95
437.329	12337.99
437.537	12798.78
437.743	13200.18
437.95	12979
438.157	13613.87
438.364	14119.72
438.571	14222.12
438.778	14078.76
438.985	15579.92
439.192	14895.9
439.399	15321.88
439.606	15160.09
439.813	15913.74
440.02	16632.58
440.227	16509.7
440.433	16478.98
440.64	17011.45
440.847	16902.91
441.054	17273.59
441.261	18535.14
441.467	18064.11
441.674	18655.97
441.881	19393.24
442.088	18748.13
442.294	19028.7
442.501	19677.91
442.708	19944.14
442.914	20697.8
443.121	21672.63
443.328	21215.93
443.534	22694.57
443.741	22018.74
443.948	21744.31
444.154	23212.7
444.361	22897.31
444.568	23136.93
444.774	23308.96
444.981	23292.57
445.187	23909.01
445.394	24937.09
445.6	24846.98
445.807	27345.5
446.013	26139.25
446.22	26282.61
446.426	27507.29
446.633	27740.76
446.839	28471.89
447.046	27550.3
447.252	28861
447.459	28787.27
447.665	28594.76
447.871	30224.95
448.078	31636
448.284	30110.26
448.491	31181.35
448.697	31722.01
448.903	32430.61
449.11	32657.93
449.316	32006.68
449.522	32930.31
449.728	33143.3
449.935	33726.97
450.141	33659.39
450.347	34376.18
450.553	33405.44
450.76	33462.79
450.966	35023.34
451.172	34212.34
451.378	35123.69
451.584	34615.79
451.791	35768.8
451.997	35068.39
452.203	35613.15
452.409	35834.33
452.615	36047.32
452.821	34611.7
453.027	33866.24
453.233	35725.79
453.44	34486.77
453.646	35052.01
453.852	35119.59
454.058	35641.82
454.264	34386.42
454.47	35119.59
454.676	34396.66
454.882	35250.66
455.088	32266.77
455.294	32758.28
455.5	33436.16
455.705	33929.72
455.911	32360.98
456.117	31586.85
456.323	31527.45
456.529	29874.74
456.735	30661.16
456.941	30071.35
457.147	29571.64
457.352	28969.54
457.558	28412.49
457.764	28414.54
457.97	28166.74
458.176	27415.13
458.381	27245.15
458.587	25733.75
458.793	25856.63
458.999	24586.89
459.204	26389.1
459.41	25868.92
459.616	23970.45
459.821	24011.41
460.027	23501.47
460.233	23591.58
460.438	22248.11
460.644	22471.34
460.85	21355.19
461.055	20826.82
461.261	21222.08
461.466	19741.39
461.672	18991.84
461.878	20208.33
462.083	19030.75
462.289	18377.45
462.494	18735.84
462.7	17533.68
462.905	17074.94
463.111	17863.41
463.316	17509.11
463.522	17496.82
463.727	17314.55
463.932	17343.22
464.138	17212.15
464.343	17089.28
464.549	16773.89
464.754	17345.27
464.959	17189.63
465.165	17222.39
465.37	16448.26
465.575	15682.32
465.781	16515.84
465.986	16450.31
466.191	16083.72
466.397	15825.68
466.602	15063.83
466.807	15643.41
467.012	15543.06
467.218	15442.71
467.423	15272.73
467.628	15631.12
467.833	15944.46
468.038	15399.7
468.244	15209.24
468.449	15702.8
468.654	15270.68
468.859	14961.44
469.064	14883.61
469.269	14342.95
469.474	14695.2
469.679	14594.85
469.885	14363.43
470.09	14273.32
470.295	14549.79
470.5	13994.79
470.705	14295.85
470.91	13646.64
471.115	13660.98
471.32	14054.19
471.525	13697.84
471.73	13388.6
471.935	13577.01
472.139	13101.88
472.344	12944.19
472.549	12985.15
472.754	12737.34
472.959	12690.24
473.164	12329.8
473.369	12071.75
473.574	12643.14
473.778	12655.42
473.983	12544.83
474.188	12358.47
474.393	11768.65
474.598	11776.84
474.802	11606.86
475.007	11594.58
475.212	11574.1
475.417	11348.82
475.621	11174.74
475.826	11383.63
476.031	11182.93
476.235	10920.79
476.44	11109.21
476.645	10701.66
476.849	10738.52
477.054	10597.21
477.259	10490.72
477.463	10609.5
477.668	10253.16
477.872	10210.15
478.077	10236.77
478.282	9866.09
478.486	10029.93
478.691	9685.87
478.895	9810.79
479.1	9845.61
479.304	9505.65
479.509	9530.22
479.713	9745.26
479.918	9298.8
480.122	9380.72
480.326	9433.97
480.531	9517.93
480.735	9354.1
480.94	9298.8
481.144	9550.7
481.348	8835.96
481.553	9098.1
481.757	8874.87
481.961	8909.69
482.166	9180.02
482.37	8995.7
482.574	9223.03
482.778	9038.71
482.983	9057.14
483.187	8819.58
483.391	9030.52
483.595	9042.81
483.8	8876.92
484.004	8944.5
484.208	9065.33
484.412	9016.18
484.616	8928.12
484.821	9126.77
485.025	8858.49
485.229	9059.19
485.433	8934.26
485.637	8862.58
485.841	8872.82
486.045	8983.41
486.249	9106.29
486.453	8782.71
486.657	8952.7
486.861	9112.44
487.065	8883.06
487.269	8936.31
487.473	8835.96
487.677	8934.26
487.881	9003.89
488.085	8921.98
488.289	8930.17
488.493	8926.07
488.697	8964.98
488.901	9089.91
489.105	9210.74
489.309	9130.87
489.512	9051
489.716	8983.41
489.92	8946.55
490.124	9204.6
490.328	9120.63
490.531	9145.2
490.735	9245.55
490.939	9141.11
491.143	9057.14
491.346	9065.33
491.55	9347.95
491.754	9251.7
491.958	9425.78
492.161	9390.96
492.365	9495.41
492.569	9528.17
492.772	9300.85
492.976	9526.13
493.18	9640.81
493.383	9589.61
493.587	9761.64
493.79	9827.18
493.994	9558.89
494.197	9851.75
494.401	9712.49
494.605	9888.62
494.808	10208.1
495.012	10161
495.215	10249.06
495.419	10242.92
495.622	10048.36
495.825	10320.74
496.029	10427.23
496.232	10621.79
496.436	10394.47
496.639	10804.06
496.843	10763.1
497.046	10877.79
497.249	10908.51
497.453	11133.78
497.656	11209.56
497.859	11141.97
498.063	11457.36
498.266	11674.45
498.469	11354.96
498.673	11678.54
498.876	11739.98
499.079	11776.84
499.282	11817.8
499.485	12477.25
499.689	12131.14
499.892	12264.26
500.095	12303.17
500.298	12931.9
500.501	12622.66
500.705	13112.12
500.908	13101.88
501.111	13294.39
501.314	13382.45
501.517	13744.94
501.72	13759.28
501.923	13552.43
502.126	14000.94
502.329	14230.31
502.532	13998.89
502.735	14093.1
502.938	14613.28
503.141	14437.16
503.344	14844.7
503.547	14707.49
503.75	15047.45
503.953	15352.6
504.156	15409.94
504.359	15524.63
504.562	15489.81
504.765	15874.83
504.968	16339.72
505.17	16059.15
505.373	16165.64
505.576	16710.4
505.779	16777.98
505.982	16964.35
506.185	16984.83
506.387	17210.11
506.59	17048.32
506.793	17494.77
506.996	17691.38
507.198	18336.49
507.401	17871.6
507.604	18213.61
507.807	18627.3
508.009	18653.92
508.212	18739.94
508.415	18997.98
508.617	19245.79
508.82	19221.21
509.022	19305.18
509.225	19643.09
509.428	19874.51
509.63	19872.46
509.833	20343.5
510.035	20622.02
510.238	20493
510.44	20585.16
510.643	21285.56
510.845	21037.76
511.048	21109.44
511.25	21660.34
511.453	21363.39
511.655	22385.32
511.858	22186.67
512.06	22168.24
512.262	22356.65
512.465	22264.49
512.667	22950.56
512.87	23018.14
513.072	23044.77
513.274	23362.2
513.477	23585.43
513.679	23861.91
513.881	23962.26
514.084	24289.93
514.286	23976.59
514.488	24568.46
514.69	24887.94
514.893	25301.63
515.095	25000.58
515.297	25416.32
515.499	25418.36
515.701	26098.29
515.904	26020.47
516.106	26030.71
516.308	26403.44
516.51	26892.9
516.712	26767.98
516.914	27052.64
517.116	27503.2
517.318	27302.5
517.52	27607.64
517.722	27540.06
517.925	28127.83
518.127	28566.09
518.329	28627.53
518.531	28269.14
518.733	28746.31
518.935	29299.26
519.136	29223.49
519.338	29528.64
519.54	29735.48
519.742	29848.12
519.944	29966.9
520.146	30390.83
520.348	30122.55
520.55	30655.02
520.752	30673.45
520.954	31326.75
521.155	31197.73
521.357	31355.43
521.559	31494.69
521.761	32164.37
521.963	31840.79
522.164	32801.29
522.366	32573.97
522.568	32461.33
522.77	32502.29
522.971	32987.66
523.173	33083.91
523.375	33253.89
523.576	33196.55
523.778	33202.69
523.98	34073.08
524.181	33808.89
524.383	34251.25
524.584	34073.08
524.786	34488.82
524.988	34187.77
525.189	34286.07
525.391	35080.68
525.592	35211.75
525.794	34890.22
525.995	35183.08
526.197	35422.69
526.398	35117.54
526.6	35412.45
526.801	35418.6
527.003	35518.95
527.204	35703.26
527.406	36223.45
527.607	35981.79
527.808	35998.17
528.01	35609.06
528.211	35936.73
528.412	36956.62
528.614	36262.36
528.815	36604.37
529.016	36717.01
529.218	36438.48
529.419	36710.86
529.62	36846.03
529.822	37034.44
530.023	36680.14
530.224	36813.26
530.425	36407.76
530.626	36745.68
530.828	36755.92
531.029	37949.88
531.23	36680.14
531.431	36821.45
531.632	37411.27
531.833	37380.55
532.035	37077.45
532.236	37337.54
532.437	37263.82
532.638	36907.47
532.839	37462.47
533.04	37605.83
533.241	37003.72
533.442	37792.19
533.643	37126.6
533.844	37476.8
534.045	37358.02
534.246	37155.27
534.447	37673.41
534.648	37341.64
534.849	37292.49
535.05	37142.99
535.251	37491.14
535.451	37530.05
535.652	37509.57
535.853	37376.45
536.054	37765.57
536.255	37429.7
536.456	37032.39
536.657	37718.46
536.857	37540.29
537.058	36993.48
537.259	37650.88
537.46	37636.55
537.66	37505.48
537.861	37568.96
538.062	37616.07
538.263	37788.1
538.463	37290.44
538.664	37272.01
538.865	37411.27
539.065	37910.97
539.266	36854.22
539.466	37820.86
539.667	37337.54
539.868	37601.73
540.068	36932.04
540.269	37384.65
540.469	37673.41
540.67	37044.68
540.87	37013.96
541.071	37124.55
541.271	37738.94
541.472	37466.56
541.672	37425.6
541.873	37034.44
542.073	36874.7
542.274	37437.89
542.474	37042.63
542.675	36860.37
542.875	37513.67
543.075	37362.12
543.276	36671.95
543.476	37622.21
543.676	36882.89
543.877	37380.55
544.077	37009.87
544.277	37104.07
544.478	36911.56
544.678	37061.07
544.878	37116.36
545.078	37001.68
545.279	36854.22
545.479	36807.12
545.679	37011.92
545.879	36874.7
546.079	36862.41
546.28	36651.47
546.48	36633.04
546.68	37159.37
546.88	37386.69
547.08	36835.79
547.28	36862.41
547.48	36674
547.68	36667.86
547.88	36780.49
548.081	37097.93
548.281	37210.57
548.481	36528.59
548.681	37013.96
548.881	36899.28
549.081	36688.34
549.28	36409.81
549.48	36850.13
549.68	36506.07
549.88	37075.4
550.08	36594.13
550.28	36469.2
550.48	36659.66
550.68	37212.62
550.88	36364.76
551.08	36575.7
551.279	36594.13
551.479	36020.7
551.679	36473.3
551.879	36684.24
552.079	36485.59
552.278	36452.82
552.478	36100.57
552.678	36037.08
552.878	36430.29
553.077	36708.82
553.277	35903.96
553.477	36528.59
553.676	36045.27
553.876	36809.17
554.076	36194.78
554.275	36264.41
554.475	36153.82
554.674	36329.94
554.874	36217.3
555.074	35965.4
555.273	36188.63
555.473	36307.41
555.672	35799.52
555.872	36116.95
556.071	36131.29
556.271	36305.37
556.47	35830.24
556.67	35772.89
556.869	35809.76
557.068	35987.93
557.268	35752.41
557.467	36088.28
557.667	35963.36
557.866	35789.28
558.065	35850.72
558.265	35832.29
558.464	35209.7
558.663	35574.24
558.863	35371.49
559.062	35789.28
559.261	35428.84
559.461	35736.03
559.66	35064.3
559.859	35207.65
560.058	35228.13
560.258	35674.59
560.457	34800.11
560.656	35217.89
560.855	34644.46
561.054	35322.34
561.253	34949.61
561.453	35291.62
561.652	34908.65
561.851	35301.86
562.05	34458.1
562.249	34601.46
562.448	34904.56
562.647	34732.53
562.846	34607.6
563.045	34669.04
563.244	34327.03
563.443	34871.79
563.642	34597.36
563.841	34466.29
564.04	34183.67
564.239	34601.46
564.438	34066.94
564.637	34064.89
564.836	34421.23
565.035	33899
565.234	34236.92
565.432	34155
565.631	33946.11
565.83	34189.81
566.029	33755.64
566.228	33630.72
566.427	33792.51
566.625	33511.94
566.824	33585.66
567.023	33901.05
567.222	33036.81
567.42	33671.68
567.619	33475.07
567.818	33477.12
568.016	33518.08
568.215	33696.25
568.414	33108.49
568.612	33591.81
568.811	33204.74
569.01	32981.51
569.208	32948.75
569.407	33149.45
569.605	32600.59
569.804	33327.62
570.002	32602.64
570.201	32862.73
570.4	32557.58
570.598	32686.61
570.797	32352.79
570.995	32623.12
571.193	32197.14
571.392	32547.34
571.59	31937.05
571.789	32266.77
571.987	31871.51
572.186	31932.95
572.384	32115.22
572.582	31922.71
572.781	32209.43
572.979	31660.57
573.177	31586.85
573.376	31920.66
573.574	31898.14
573.772	31529.5
573.971	31189.54
574.169	31390.24
574.367	31259.17
574.565	31449.63
574.763	30943.78
574.962	31068.71
575.16	30775.85
575.358	31150.63
575.556	30485.04
575.754	31293.99
575.952	30503.47
576.151	31238.69
576.349	30376.5
576.547	30571.05
576.745	30788.14
576.943	30597.68
577.141	30435.89
577.339	30589.49
577.537	30100.02
577.735	30220.85
577.933	30296.63
578.131	30173.75
578.329	29854.26
578.527	29731.39
578.725	30112.31
578.923	30054.97
579.121	29710.91
579.319	29710.91
579.516	29745.72
579.714	29692.47
579.912	29811.26
580.11	29399.62
580.308	29352.51
580.506	29403.71
580.704	28930.63
580.901	29008.45
581.099	29028.93
581.297	28736.07
581.495	28852.81
581.692	29356.61
581.89	28521.04
582.088	29000.26
582.285	28717.64
582.483	28725.83
582.681	28789.32
582.878	28619.34
583.076	28293.71
583.274	28658.25
583.471	28082.77
583.669	28170.83
583.866	27955.8
584.064	28228.18
584.262	27968.09
584.459	28146.26
584.657	27849.3
584.854	28123.73
585.052	27503.2
585.249	27800.15
585.447	27912.79
585.644	27691.61
585.841	27384.41
586.039	27820.63
586.236	27370.08
586.434	27314.78
586.631	27150.95
586.828	27075.17
587.026	27415.13
587.223	27177.57
587.42	26952.29
587.618	27255.39
587.815	26815.08
588.012	26368.62
588.21	26761.83
588.407	26968.68
588.604	26294.89
588.801	26206.83
588.999	26688.1
589.196	26434.16
589.393	26348.14
589.59	26243.7
589.787	26227.31
589.984	25817.72
590.182	25815.67
590.379	25875.06
590.576	25821.81
590.773	25754.23
590.97	25688.7
591.167	25743.99
591.364	25272.96
591.561	25338.49
591.758	25039.49
591.955	25330.3
592.152	25633.4
592.349	25229.95
592.546	25354.88
592.743	25109.12
592.94	25121.41
593.137	25227.9
593.334	25055.87
593.531	24566.41
593.727	24963.72
593.924	24730.25
594.121	24550.03
594.318	24910.47
594.515	24355.47
594.712	24519.31
594.908	24109.71
595.105	24234.64
595.302	23964.31
595.499	24396.43
595.696	24005.27
595.892	24023.7
596.089	23876.24
596.286	23945.87
596.482	23872.15
596.679	23724.69
596.876	23945.87
597.072	23896.72
597.269	23720.6
597.466	23571.1
597.662	23765.65
597.859	23591.58
598.055	23558.81
598.252	23083.68
598.448	22966.95
598.645	22975.14
598.841	22887.07
599.038	23009.95
599.234	23122.59
599.431	22940.32
599.627	22606.5
599.824	22737.57
600.02	22792.87
600.217	22416.04
600.413	22588.07
600.609	22135.47
600.806	22446.76
601.002	22227.63
601.198	22192.81
601.395	21957.3
601.591	21988.02
601.787	22155.95
601.984	22057.65
602.18	22217.39
602.376	22031.02
602.572	21672.63
602.769	21734.07
602.965	21383.87
603.161	21566.13
603.357	21652.15
603.553	21369.53
603.75	21541.56
603.946	21402.3
604.142	21549.75
604.338	20822.72
604.534	21367.48
604.73	21080.77
604.926	20918.98
605.122	21015.23
605.318	21041.85
605.514	20728.52
605.71	20703.94
605.906	20550.34
606.102	20632.26
606.298	20710.08
606.494	20785.86
606.69	20773.57
606.886	20605.64
607.082	20433.61
607.278	20701.89
607.474	20292.3
607.67	20140.75
607.866	20032.21
608.062	20470.47
608.257	20263.63
608.453	20116.17
608.649	20286.15
608.845	20046.54
609.041	20052.69
609.236	20218.57
609.432	20157.13
609.628	20232.91
609.824	19933.9
610.019	19989.2
610.215	19770.07
610.411	19854.03
610.606	19446.49
610.802	20028.11
610.998	19710.68
611.193	19892.94
611.389	19411.67
611.584	19565.27
611.78	19428.06
611.976	19403.48
612.171	19735.25
612.367	19215.07
612.562	19311.32
612.758	19071.71
612.953	19356.38
613.149	19620.56
613.344	18977.5
613.539	19321.56
613.735	19057.37
613.93	18993.89
614.126	19176.16
614.321	19296.99
614.517	19000.03
614.712	18819.81
614.907	18840.29
615.103	19235.55
615.298	18852.58
615.493	18787.04
615.688	18674.4
615.884	19067.61
616.079	18383.59
616.274	18596.58
616.47	18627.3
616.665	18676.45
616.86	18774.75
617.055	18608.87
617.25	18373.35
617.445	18787.04
617.641	18254.57
617.836	18459.37
618.031	18303.72
618.226	18436.84
618.421	18166.51
618.616	18551.52
618.811	18184.94
619.006	18354.92
619.201	17615.6
619.396	17906.41
619.591	17724.15
619.786	17828.59
619.981	17402.61
620.176	18219.75
620.371	17775.34
620.566	17443.57
620.761	17429.24
620.956	17435.38
621.151	17648.37
621.346	17380.09
621.541	17263.35
621.735	17050.36
621.93	16780.03
622.125	17111.8
622.32	16831.23
622.515	16966.4
622.709	16739.07
622.904	16468.74
623.099	16442.12
623.294	16567.04
623.488	16472.84
623.683	16235.27
623.878	15973.13
624.072	16280.33
624.267	15915.79
624.462	16128.78
624.656	15954.7
624.851	15721.23
625.046	15491.86
625.24	15325.97
625.435	15465.24
625.629	15622.93
625.824	15207.19
626.018	15239.96
626.213	15010.59
626.407	15207.19
626.602	14813.98
626.796	14889.76
626.991	14848.8
627.185	14945.05
627.38	14824.22
627.574	14766.88
627.768	14394.15
627.963	14465.83
628.157	14314.28
628.352	14250.79
628.546	14158.63
628.74	14336.81
628.935	14021.42
629.129	13980.46
629.323	13919.02
629.517	13886.25
629.712	13959.98
629.906	13933.36
630.1	13579.06
630.294	13814.57
630.489	13495.09
630.683	13714.22
630.877	13312.82
631.071	13263.67
631.265	13216.57
631.459	13153.08
631.653	13198.13
631.848	12911.42
632.042	13030.2
632.236	12921.66
632.43	12946.23
632.624	12684.09
632.818	12761.92
633.012	12499.78
633.206	12487.49
633.4	12510.02
633.594	12397.38
633.788	12321.6
633.982	12272.45
634.176	12174.15
634.369	12116.81
634.563	12045.13
634.757	12194.63
634.951	12176.2
635.145	12102.47
635.339	11918.15
635.533	11770.7
635.726	11723.6
635.92	11658.06
636.114	11729.74
636.308	11627.34
636.501	11715.41
636.695	11332.44
636.889	11174.74
637.083	11371.35
637.276	11158.36
637.47	11215.7
637.664	11055.96
637.857	11287.38
638.051	11350.87
638.244	10922.84
638.438	11017.05
638.632	10926.94
638.825	10845.02
639.019	10494.82
639.212	10605.41
639.406	10775.39
639.599	10572.64
639.793	10687.32
639.986	10449.76
640.18	10302.31
640.373	10531.68
640.567	10265.44
640.76	10191.72
640.954	10195.81
641.147	10238.82
641.34	10171.24
641.534	10210.15
641.727	10029.93
641.92	10126.18
642.114	10068.84
642.307	9845.61
642.5	9876.33
642.694	9610.09
642.887	9696.11
643.08	9757.55
643.273	9628.53
643.467	9696.11
643.66	9620.33
643.853	9603.95
644.046	9397.1
644.239	9399.15
644.432	9393.01
644.626	9335.67
644.819	9325.43
645.012	9175.92
645.205	9212.79
645.398	9040.76
645.591	8977.27
645.784	9126.77
645.977	8905.59
646.17	9026.42
646.363	8964.98
646.556	8811.39
646.749	8807.29
646.942	8868.73
647.135	8741.75
647.328	8610.68
647.521	8725.37
647.714	8426.37
647.907	8573.82
648.099	8491.9
648.292	8620.92
648.485	8487.81
648.678	8242.05
648.871	8213.38
649.064	8260.48
649.256	8252.29
649.449	8289.15
649.642	8084.36
649.835	8041.35
650.027	8196.99
650.22	8078.21
650.413	7916.42
650.605	7887.75
650.798	7836.55
650.991	7795.59
651.183	7799.69
651.376	7795.59
651.568	7834.5
651.761	7648.14
651.954	7725.96
652.146	7496.59
652.339	7668.62
652.531	7519.12
652.724	7543.69
652.916	7222.16
653.109	7420.81
653.301	7222.16
653.494	7230.35
653.686	7226.26
653.879	7386
654.071	7099.28
654.263	7070.61
654.456	7193.49
654.648	7291.79
654.84	6974.36
655.033	6951.83
655.225	7007.13
655.417	6867.86
655.61	6970.26
655.802	6964.12
655.994	6853.53
656.186	6849.43
656.379	6923.16
656.571	6640.54
656.763	6656.92
656.955	6697.88
657.148	6841.24
657.34	6728.6
657.532	6638.49
657.724	6597.53
657.916	6560.67
658.108	6591.39
658.3	6476.7
658.492	6464.41
658.684	6159.27
658.876	6304.67
659.068	6269.86
659.26	6292.38
659.452	6390.69
659.644	6206.37
659.836	6106.02
660.028	6173.6
660.22	6036.39
660.412	6161.31
660.604	6198.18
660.796	5917.61
660.988	6044.58
661.18	5911.46
661.372	5983.14
661.563	5962.66
661.755	5964.71
661.947	5880.74
662.139	5872.55
662.331	5858.21
662.522	5702.57
662.714	5786.54
662.906	5532.59
663.097	5702.57
663.289	5581.74
663.481	5598.12
663.673	5526.44
663.864	5499.82
664.056	5424.05
664.247	5559.21
664.439	5454.76
664.631	5403.57
664.822	5544.88
665.014	5338.03
665.205	5415.85
665.397	5313.45
665.588	5200.82
665.78	5338.03
665.971	5342.13
666.163	5295.02
666.354	5243.82
666.546	5319.6
666.737	5192.62
666.929	5311.41
667.12	5178.29
667.311	5108.66
667.503	5100.47
667.694	5161.91
667.885	4936.63
668.077	4885.43
668.268	5104.56
668.459	4971.44
668.651	4748.22
668.842	4959.16
669.033	5016.5
669.224	4903.86
669.416	4877.24
669.607	4770.74
669.798	4817.85
669.989	4768.7
670.18	4801.46
670.371	4699.06
670.563	4522.94
670.754	4627.39
670.945	4627.39
671.136	4672.44
671.327	4701.11
671.518	4672.44
671.709	4664.25
671.9	4629.43
672.091	4547.51
672.282	4529.08
672.473	4527.03
672.664	4645.82
672.855	4567.99
673.046	4461.5
673.237	4543.42
673.428	4502.46
673.619	4387.77
673.809	4420.54
674	4527.03
674.191	4484.03
674.382	4455.36
674.573	4416.44
674.764	4385.73
674.954	4307.9
675.145	4367.29
675.336	4359.1
675.527	4080.58
675.717	4324.29
675.908	4248.51
676.099	4164.54
676.289	4250.56
676.48	4279.23
676.671	4182.98
676.861	4201.41
677.052	4099.01
677.243	4305.85
677.433	4277.18
677.624	4060.1
677.814	4146.11
678.005	4109.25
678.195	4068.29
678.386	4008.9
678.576	4015.04
678.767	4105.15
678.957	3894.21
679.148	4170.69
679.338	3949.51
679.529	4058.05
679.719	4066.24
679.909	4121.54
680.1	4123.59
680.29	3992.52
680.481	3863.49
680.671	3994.56
680.861	3890.12
681.052	4039.62
681.242	3982.28
681.432	3951.56
681.622	3890.12
681.813	3935.17
682.003	3853.25
682.193	3795.91
682.383	3926.98
682.573	3838.92
682.764	3937.22
682.954	3861.45
683.144	3881.92
683.334	3838.92
683.524	3754.95
683.714	3722.18
683.904	3859.4
684.094	3869.64
684.284	3693.51
684.474	3781.57
684.664	3849.16
684.854	3963.84
685.044	3806.15
685.234	3699.66
685.424	3466.19
685.614	3716.04
685.804	3670.98
685.994	3501
686.184	3640.26
686.374	3613.64
686.564	3546.06
686.753	3634.12
686.943	3517.39
687.133	3511.24
687.323	3531.72
687.513	3460.04
687.702	3427.28
687.892	3513.29
688.082	3427.28
688.272	3304.4
688.461	3494.86
688.651	3402.7
688.841	3429.32
689.03	3347.4
689.22	3392.46
689.41	3251.15
689.599	3304.4
689.789	3449.8
689.979	3328.97
690.168	3273.68
690.358	3185.62
690.547	3191.76
690.737	3290.06
690.926	3167.18
691.116	3240.91
691.305	3128.27
691.495	3249.1
691.684	3029.97
691.874	3142.61
692.063	3038.16
692.252	3060.69
692.442	3003.35
692.631	2986.96
692.82	2978.77
693.01	2941.91
693.199	2913.24
693.388	2913.24
693.578	2993.11
693.767	2927.57
693.956	2937.81
694.146	2927.57
694.335	2939.86
694.524	2806.74
694.713	2866.13
694.902	2798.55
695.092	2792.41
695.281	2827.22
695.47	2866.13
695.659	2761.69
695.848	2788.31
696.037	2739.16
696.226	2618.33
696.415	2816.98
696.604	2708.44
696.793	2771.93
696.982	2651.1
697.171	2692.05
697.36	2730.97
697.549	2655.19
697.738	2702.29
697.927	2667.48
698.116	2614.23
698.305	2599.9
698.494	2632.66
698.683	2575.32
698.872	2747.35
699.061	2470.87
699.25	2503.64
699.438	2470.87
699.627	2606.04
699.816	2608.09
700.005	2601.94
700.193	2618.33
700.382	2671.58
700.571	2429.91
700.76	2470.87
700.948	2503.64
701.137	2560.98
701.326	2550.75
701.514	2436.06
701.703	2536.41
701.892	2487.26
702.08	2470.87
702.269	2517.98
702.457	2399.2
702.646	2429.91
702.834	2427.87
703.023	2327.52
703.212	2423.77
703.4	2352.09
703.589	2372.57
703.777	2399.2
703.965	2341.85
704.154	2325.47
704.342	2311.13
704.531	2356.19
704.719	2450.39
704.907	2393.05
705.096	2499.55
705.284	2337.76
705.472	2382.81
705.661	2403.29
705.849	2352.09
706.037	2407.39
706.226	2255.84
706.414	2286.56
706.602	2321.37
706.79	2378.72
706.979	2294.75
707.167	2317.28
707.355	2282.46
707.543	2272.22
707.731	2368.48
707.919	2237.41
708.107	2270.17
708.296	2304.99
708.484	2323.42
708.672	2321.37
708.86	2348
709.048	2350.04
709.236	2278.37
709.424	2331.61
709.612	2417.63
709.8	2274.27
709.988	2329.56
710.176	2233.31
710.364	2304.99
710.551	2368.48
710.739	2261.98
710.927	2288.61
711.115	2188.25
711.303	2298.84
711.491	2311.13
711.679	2225.12
711.866	2370.52
712.054	2350.04
712.242	2358.24
712.43	2399.2
712.617	2204.64
712.805	2323.42
712.993	2286.56
713.181	2307.04
713.368	2497.5
713.556	2358.24
713.744	2296.8
713.931	2354.14
714.119	2327.52
714.306	2290.65
714.494	2339.8
714.682	2288.61
714.869	2348
715.057	2425.82
715.244	2374.62
715.432	2307.04
715.619	2255.84
715.807	2259.93
715.994	2388.96
716.182	2298.84
716.369	2270.17
716.556	2407.39
716.744	2233.31
716.931	2278.37
717.119	2425.82
717.306	2411.48
717.493	2309.08
717.681	2290.65
717.868	2376.67
718.055	2454.49
718.242	2331.61
718.43	2304.99
718.617	2325.47
718.804	2431.96
718.991	2421.72
719.179	2335.71
719.366	2470.87
719.553	2296.8
719.74	2304.99
719.927	2337.76
720.114	2278.37
720.301	2425.82
720.488	2354.14
720.676	2460.63
720.863	2522.07
721.05	2380.76
721.237	2409.44
721.424	2309.08
721.611	2526.17
721.798	2442.2
721.985	2376.67
722.172	2350.04
722.358	2397.15
722.545	2335.71
722.732	2282.46
722.919	2452.44
723.106	2386.91
723.293	2546.65
723.48	2356.19
723.667	2452.44
723.853	2503.64
724.04	2477.02
724.227	2372.57
724.414	2403.29
724.6	2407.39
724.787	2393.05
724.974	2460.63
725.161	2401.24
725.347	2395.1
725.534	2364.38
725.72	2427.87
725.907	2458.59
726.094	2315.23
726.28	2440.15
726.467	2403.29
726.653	2470.87
726.84	2569.18
727.027	2524.12
727.213	2405.34
727.4	2614.23
727.586	2444.25
727.773	2511.83
727.959	2380.76
728.145	2354.14
728.332	2317.28
728.518	2421.72
728.705	2583.51
728.891	2362.33
729.077	2614.23
729.264	2581.46
729.45	2368.48
729.636	2499.55
729.823	2421.72
730.009	2479.07
730.195	2495.45
730.382	2526.17
730.568	2466.78
730.754	2460.63
730.94	2603.99
731.126	2452.44
731.313	2454.49
731.499	2513.88
731.685	2538.46
731.871	2474.97
732.057	2581.46
732.243	2472.92
732.429	2483.16
732.615	2528.22
732.801	2608.09
732.987	2487.26
733.173	2524.12
733.359	2565.08
733.545	2513.88
733.731	2513.88
733.917	2558.94
734.103	2620.38
734.289	2497.5
734.475	2477.02
734.661	2511.83
734.847	2464.73
735.033	2517.98
735.219	2489.31
735.404	2493.4
735.59	2567.13
735.776	2442.2
735.962	2522.07
736.148	2520.03
736.333	2421.72
736.519	2485.21
736.705	2391
736.89	2495.45
737.076	2434.01
737.262	2405.34
737.447	2429.91
737.633	2683.86
737.819	2350.04
738.004	2487.26
738.19	2542.55
738.375	2495.45
738.561	2409.44
738.747	2503.64
738.932	2374.62
739.118	2569.18
739.303	2489.31
739.489	2384.86
739.674	2339.8
739.859	2284.51
740.045	2436.06
740.23	2313.18
740.416	2448.35
740.601	2311.13
740.786	2388.96
740.972	2407.39
741.157	2350.04
741.342	2255.84
741.528	2485.21
741.713	2341.85
741.898	2483.16
742.084	2364.38
742.269	2417.63
742.454	2401.24
742.639	2245.6
742.824	2339.8
743.01	2307.04
743.195	2286.56
743.38	2321.37
743.565	2231.26
743.75	2350.04
743.935	2307.04
744.12	2296.8
744.305	2196.45
744.49	2157.54
744.675	2208.73
744.86	2266.08
745.045	2364.38
745.23	2173.92
745.415	2184.16
745.6	2122.72
745.785	2143.2
745.97	2110.43
746.155	2118.62
746.34	2137.06
746.525	2092
746.71	2143.2
746.895	2102.24
747.079	2022.37
747.264	2130.91
747.449	2053.09
747.634	1997.79
747.819	2075.62
748.003	2063.33
748.188	2051.04
748.373	2026.47
748.557	2018.27
748.742	1938.4
748.927	1997.79
749.111	2020.32
749.296	1934.31
749.481	1856.48
749.665	1989.6
749.85	1897.44
750.034	1901.54
750.219	1846.24
750.404	1852.39
750.588	1856.48
750.773	1803.24
750.957	1952.74
751.141	1852.39
751.326	1815.52
751.51	1790.95
751.695	1731.56
751.879	1745.89
752.064	1719.27
752.248	1709.03
752.432	1698.79
752.617	1752.04
752.801	1809.38
752.985	1790.95
753.17	1717.22
753.354	1702.89
753.538	1700.84
753.722	1512.42
753.907	1633.26
754.091	1590.25
754.275	1610.73
754.459	1616.87
754.643	1559.53
754.828	1643.49
755.012	1618.92
755.196	1612.78
755.38	1528.81
755.564	1592.3
755.748	1569.77
755.932	1633.26
756.116	1516.52
756.3	1496.04
756.484	1508.33
756.668	1416.17
756.852	1407.98
757.036	1428.46
757.22	1498.09
757.404	1450.99
757.588	1473.51
757.772	1414.12
757.956	1393.64
758.14	1420.27
758.323	1426.41
758.507	1381.35
758.691	1326.06
758.875	1391.59
759.059	1373.16
759.242	1348.59
759.426	1242.09
759.61	1330.16
759.794	1371.12
759.977	1340.4
760.161	1371.12
760.345	1262.57
760.528	1319.92
760.712	1313.77
760.895	1246.19
761.079	1291.24
761.263	1250.28
761.446	1197.04
761.63	1182.7
761.813	1291.24
761.997	1242.09
762.18	1205.23
762.364	1291.24
762.547	1299.44
762.731	1262.57
762.914	1231.85
763.098	1164.27
763.281	1260.52
763.464	1139.69
763.648	1131.5
763.831	1199.09
764.015	1176.56
764.198	1207.28
764.381	1045.49
764.564	1156.08
764.748	1168.37
764.931	1137.65
765.114	1106.93
765.297	1194.99
765.481	1156.08
765.664	1166.32
765.847	1151.98
766.03	1156.08
766.213	1111.02
766.397	1164.27
766.58	1135.6
766.763	1123.31
766.946	1135.6
767.129	1086.45
767.312	1100.78
767.495	1065.97
767.678	1004.53
767.861	1078.26
768.044	957.43
768.227	1043.44
768.41	1018.86
768.593	1096.69
768.776	1119.21
768.959	965.62
769.142	1022.96
769.324	1076.21
769.507	1002.48
769.69	988.14
769.873	947.19
770.056	1074.16
770.239	932.85
770.421	1070.06
770.604	1076.21
770.787	1049.58
770.97	916.47
771.152	926.71
771.335	1057.78
771.518	996.34
771.7	1027.06
771.883	953.33
772.066	922.61
772.248	969.71
772.431	906.23
772.613	920.56
772.796	912.37
772.978	889.84
773.161	898.03
773.343	914.42
773.526	857.07
773.708	883.7
773.891	922.61
774.073	869.36
774.256	871.41
774.438	865.27
774.621	959.47
774.803	938.99
774.985	799.73
775.168	736.24
775.35	887.79
775.532	873.46
775.715	877.55
775.897	848.88
776.079	824.31
776.261	871.41
776.444	824.31
776.626	713.72
776.808	820.21
776.99	756.72
777.173	842.74
777.355	818.16
777.537	773.11
777.719	687.09
777.901	766.96
778.083	775.16
778.265	701.43
778.447	699.38
778.629	730.1
778.811	742.39
778.993	838.64
779.175	723.96
779.357	775.16
779.539	683
779.721	746.48
779.903	697.33
780.085	711.67
780.267	685.05
780.449	726
780.631	748.53
780.812	777.2
780.994	644.09
781.176	599.03
781.358	633.85
781.54	633.85
781.721	613.37
781.903	644.09
782.085	627.7
782.267	625.65
782.448	574.46
782.63	615.41
782.812	615.41
782.993	676.85
783.175	621.56
783.357	517.11
783.538	611.32
783.72	590.84
783.901	594.93
784.083	576.5
784.264	584.7
784.446	543.74
784.627	541.69
784.809	553.98
784.99	584.7
785.172	459.77
785.353	553.98
785.535	556.02
785.716	490.49
785.897	459.77
786.079	504.82
786.26	541.69
786.441	506.87
786.623	461.82
786.804	500.73
786.985	412.67
787.167	435.19
787.348	535.54
787.529	476.15
787.71	455.67
787.891	433.15
788.073	424.95
788.254	455.67
788.435	476.15
788.616	488.44
788.797	476.15
788.978	451.58
789.159	439.29
789.34	500.73
789.522	467.96
789.703	449.53
789.884	470.01
790.065	515.06
790.246	420.86
790.427	408.57
790.607	472.06
790.788	445.43
790.969	363.51
791.15	441.34
791.331	414.71
791.512	361.47
791.693	386.04
791.874	496.63
792.054	463.86
792.235	422.91
792.416	367.61
792.597	398.33
792.778	363.51
792.958	349.18
793.139	388.09
793.32	402.43
793.5	369.66
793.681	365.56
793.862	373.75
794.042	371.71
794.223	404.47
794.404	379.9
794.584	355.32
794.765	435.19
794.945	353.27
795.126	349.18
795.306	422.91
795.487	369.66
795.667	398.33
795.848	363.51
796.028	302.08
796.209	328.7
796.389	394.23
796.57	381.95
796.75	314.36
796.93	418.81
797.111	320.51
797.291	297.98
797.471	248.83
797.652	314.36
797.832	312.32
798.012	326.65
798.192	326.65
798.373	269.31
798.553	377.85
798.733	363.51
798.913	340.99
799.093	295.93
799.274	263.16
799.454	320.51
799.634	336.89
799.814	308.22
799.994	293.88
800.174	306.17
800.354	261.12
800.534	246.78
800.714	318.46
800.894	318.46
801.074	238.59
801.254	353.27
801.434	332.79
801.614	252.92
801.794	293.88
801.974	586.74
802.154	211.96
802.334	269.31
802.514	300.03
802.693	326.65
802.873	306.17
803.053	295.93
803.233	252.92
803.413	211.96
803.592	259.07
803.772	306.17
803.952	218.11
804.131	316.41
804.311	242.68
804.491	295.93
804.67	203.77
804.85	244.73
805.03	336.89
805.209	214.01
805.389	273.4
805.568	185.34
805.748	269.31
805.928	232.44
806.107	207.87
806.287	234.49
806.466	181.25
806.646	334.84
806.825	193.53
807.004	259.07
807.184	254.97
807.363	271.36
807.543	218.11
807.722	230.4
807.901	271.36
808.081	254.97
808.26	166.91
808.439	177.15
808.619	173.05
808.798	228.35
808.977	259.07
809.156	283.64
809.336	211.96
809.515	177.15
809.694	220.16
809.873	158.72
810.052	209.92
810.231	252.92
810.411	218.11
810.59	226.3
810.769	238.59
810.948	216.06
811.127	144.38
811.306	222.2
811.485	244.73
811.664	252.92
811.843	320.51
812.022	181.25
812.201	111.61
812.38	291.84
812.559	234.49
812.737	201.72
812.916	193.53
813.095	226.3
813.274	275.45
813.453	242.68
813.632	193.53
813.811	224.25
813.989	209.92
814.168	193.53
814.347	207.87
814.526	166.91
814.704	175.1
814.883	244.73
815.062	250.88
815.24	181.25
815.419	150.53
815.598	199.68
815.776	209.92
815.955	177.15
816.133	121.85
816.312	152.57
816.49	156.67
816.669	238.59
816.847	173.05
817.026	224.25
817.204	177.15
817.383	119.81
817.561	105.47
817.74	70.65
817.918	185.34
818.097	115.71
818.275	138.24
818.453	242.68
818.632	160.77
818.81	224.25
818.988	130.05
819.167	142.33
819.345	179.2
819.523	193.53
819.701	211.96
819.879	142.33
820.058	107.52
820.236	162.81
820.414	158.72
820.592	209.92
820.77	168.96
820.948	44.03
821.127	142.33
821.305	119.81
821.483	101.37
821.661	93.18
821.839	54.27
822.017	140.29
822.195	173.05
822.373	177.15
822.551	78.85
822.729	136.19
822.907	91.13
823.085	254.97
823.262	177.15
823.44	113.66
823.618	181.25
823.796	125.95
823.974	136.19
824.152	109.57
824.329	66.56
824.507	164.86
824.685	119.81
824.863	148.48
825.04	142.33
825.218	136.19
825.396	89.09
825.574	209.92
825.751	152.57
825.929	113.66
826.107	95.23
826.284	115.71
826.462	121.85
826.639	103.42
826.817	117.76
826.994	214.01
827.172	78.85
827.349	173.05
827.527	140.29
827.704	156.67
827.882	121.85
828.059	103.42
828.237	185.34
828.414	136.19
828.591	115.71
828.769	50.18
828.946	70.65
829.124	128
829.301	191.49
829.478	140.29
829.655	117.76
829.833	177.15
830.01	154.62
830.187	113.66
830.364	111.61
830.542	70.65
830.719	76.8
830.896	70.65
831.073	140.29
831.25	52.22
831.427	84.99
831.604	115.71
831.782	78.85
831.959	72.7
832.136	44.03
832.313	115.71
832.49	70.65
832.667	113.66
832.844	93.18
833.021	119.81
833.198	78.85
833.374	117.76
833.551	128
833.728	195.58
833.905	58.37
834.082	64.51
834.259	183.29
834.436	119.81
834.612	70.65
834.789	115.71
834.966	130.05
835.143	37.89
835.319	132.09
835.496	115.71
835.673	78.85
835.85	117.76
836.026	109.57
836.203	103.42
836.38	56.32
836.556	87.04
836.733	95.23
836.909	119.81
837.086	50.18
837.262	58.37
837.439	144.38
837.616	93.18
837.792	97.28
837.968	136.19
838.145	66.56
838.321	93.18
838.498	103.42
838.674	115.71
838.851	91.13
839.027	19.46
839.203	113.66
839.38	123.9
839.556	78.85
839.732	125.95
839.909	125.95
840.085	101.37
840.261	87.04
840.437	66.56
840.614	103.42
840.79	95.23
840.966	140.29
841.142	109.57
841.318	58.37
841.494	136.19
841.671	136.19
841.847	37.89
842.023	93.18
842.199	80.89
842.375	91.13
842.551	136.19
842.727	68.61
842.903	109.57
843.079	113.66
843.255	146.43
843.431	68.61
843.607	95.23
843.783	89.09
843.959	58.37
844.134	93.18
844.31	82.94
844.486	66.56
844.662	70.65
844.838	89.09
845.013	21.5
845.189	15.36
845.365	50.18
845.541	107.52
845.716	-5.12
845.892	125.95
846.068	37.89
846.244	91.13
846.419	52.22
846.595	35.84
846.77	33.79
846.946	54.27
847.122	91.13
847.297	82.94
847.473	82.94
847.648	37.89
847.824	148.48
847.999	25.6
848.175	64.51
848.35	91.13
848.526	115.71
848.701	50.18
848.876	78.85
849.052	70.65
849.227	37.89
849.403	70.65
849.578	58.37
849.753	29.7
849.929	76.8
850.104	46.08
850.279	54.27
850.454	105.47
850.63	93.18
850.805	58.37
850.98	68.61
851.155	91.13
851.33	68.61
851.505	9.22
851.681	158.72
851.856	50.18
852.031	5.12
852.206	103.42
852.381	78.85
852.556	54.27
852.731	95.23
852.906	35.84
853.081	111.61
853.256	46.08
853.431	160.77
853.606	60.42
853.781	31.74
853.956	37.89
854.131	82.94
854.305	41.98
854.48	-3.07
854.655	37.89
854.83	-31.74
855.005	31.74
855.18	105.47
855.354	76.8
855.529	109.57
855.704	107.52
855.879	152.57
856.053	54.27
856.228	33.79
856.403	-3.07
856.577	56.32
856.752	46.08
856.926	29.7
857.101	91.13
857.276	117.76
857.45	91.13
857.625	33.79
857.799	29.7
857.974	-21.5
858.148	80.89
858.323	54.27
858.497	84.99
858.672	33.79
858.846	-48.13
859.02	87.04
859.195	-15.36
859.369	21.5
859.543	21.5
859.718	27.65
859.892	62.46
860.066	117.76
860.241	66.56
860.415	23.55
860.589	117.76
860.763	72.7
860.938	58.37
861.112	41.98
861.286	35.84
861.46	95.23
861.634	44.03
861.808	54.27
861.982	48.13
862.157	70.65
862.331	29.7
862.505	64.51
862.679	-3.07
862.853	-3.07
863.027	70.65
863.201	140.29
863.375	11.26
863.549	-33.79
863.722	37.89
863.896	121.85
864.07	95.23
864.244	1.02
864.418	60.42
864.592	109.57
864.766	91.13
864.939	66.56
865.113	37.89
865.287	50.18
865.461	25.6
865.634	82.94
865.808	5.12
865.982	87.04
866.156	41.98
866.329	-58.37
866.503	5.12
866.676	70.65
866.85	152.57
867.024	11.26
867.197	70.65
867.371	37.89
867.544	-11.26
867.718	54.27
867.891	74.75
868.065	44.03
868.238	17.41
868.412	19.46
868.585	5.12
868.759	27.65
868.932	64.51
869.105	5.12
869.279	56.32
869.452	48.13
869.625	89.09
869.799	41.98
869.972	37.89
870.145	78.85
870.319	5.12
870.492	-15.36
870.665	76.8
870.838	25.6
871.011	19.46
871.185	105.47
871.358	84.99
871.531	78.85
871.704	23.55
871.877	78.85
872.05	7.17
872.223	152.57
872.396	7.17
872.569	46.08
872.742	21.5
872.915	95.23
873.088	37.89
873.261	-13.31
873.434	29.7
873.607	64.51
873.78	-9.22
873.953	62.46
874.126	25.6
874.299	29.7
874.471	29.7
874.644	-19.46
874.817	74.75
874.99	119.81
875.163	23.55
875.335	25.6
875.508	48.13
875.681	78.85
875.853	44.03
876.026	50.18
876.199	41.98
876.371	25.6
876.544	56.32
876.717	99.33
876.889	19.46
877.062	70.65
877.234	-15.36
877.407	48.13
877.579	56.32
877.752	62.46
877.924	78.85
878.097	29.7
878.269	19.46
878.442	5.12
878.614	84.99
878.786	39.94
878.959	74.75
879.131	54.27
879.303	-7.17
879.476	35.84
879.648	70.65
879.82	25.6
879.993	-27.65
880.165	50.18
880.337	5.12
880.509	21.5
880.681	33.79
880.854	1.02
881.026	5.12
881.198	87.04
881.37	87.04
881.542	9.22
881.714	19.46
881.886	109.57
882.058	-44.03
882.23	58.37
882.402	54.27
882.574	9.22
882.746	74.75
882.918	21.5
883.09	11.26
883.262	-37.89
883.434	21.5
883.606	-1.02
883.778	21.5
883.95	13.31
884.122	15.36
884.293	93.18
884.465	138.24
884.637	37.89
884.809	68.61
884.98	97.28
885.152	35.84
885.324	76.8
885.496	13.31
885.667	9.22
885.839	-35.84
886.011	80.89
886.182	7.17
886.354	-7.17
886.525	33.79
886.697	29.7
886.869	68.61
887.04	35.84
887.212	-27.65
887.383	64.51
887.555	7.17
887.726	99.33
887.897	9.22
888.069	62.46
888.24	-58.37
888.412	56.32
888.583	19.46
888.754	91.13
888.926	52.22
889.097	-41.98
889.268	9.22
889.44	91.13
889.611	1.02
889.782	-25.6
889.953	35.84
890.125	58.37
890.296	35.84
890.467	60.42
890.638	91.13
890.809	9.22
890.98	78.85
891.151	48.13
891.323	72.7
891.494	54.27
891.665	-7.17
891.836	37.89
892.007	33.79
892.178	95.23
892.349	76.8
892.52	29.7
892.691	37.89
892.862	1.02
893.032	44.03
893.203	7.17
893.374	54.27
893.545	87.04
893.716	52.22
893.887	17.41
894.057	3.07
894.228	-37.89
894.399	50.18
894.57	35.84
894.74	-3.07
894.911	99.33
895.082	29.7
895.253	21.5
895.423	66.56
895.594	84.99
895.764	-27.65
895.935	41.98
896.106	74.75
896.276	11.26
896.447	76.8
896.617	33.79
896.788	82.94
896.958	25.6
897.129	-15.36
897.299	11.26
897.47	52.22
897.64	70.65
897.81	31.74
897.981	-19.46
898.151	15.36
898.322	21.5
898.492	-23.55
898.662	33.79
898.832	-5.12
899.003	-37.89
899.173	39.94
899.343	37.89
899.513	27.65
