Data from USB4F104151__81__11-37-46-378.txt Node

Date: Fri Mar 14 11:37:46 EDT 2025
User: louis
Spectrometer: USB4F10415
Trigger mode: 4
Integration Time (sec): 2.000000E-2
Scans to average: 1
Electric dark correction enabled: true
Nonlinearity correction enabled: false
Boxcar width: 0
XAxis mode: Wavelengths
Number of Pixels in Spectrum: 3648
>>>>>Begin Spectral Data<<<<<
178.204	-32.6
178.424	-32.6
178.644	-32.6
178.864	-77.65
179.084	-8.02
179.304	22.7
179.524	-14.17
179.744	22.7
179.964	-36.69
180.184	-18.26
180.404	39.08
180.624	-57.17
180.844	6.31
181.064	-36.69
181.283	26.79
181.503	-1.88
181.723	47.27
181.943	-71.51
182.163	8.36
182.383	28.84
182.602	186.54
182.822	34.99
183.042	34.99
183.262	-75.6
183.482	30.89
183.701	63.66
183.921	45.23
184.141	2.22
184.361	80.04
184.58	96.43
184.8	41.13
185.02	-20.31
185.239	94.38
185.459	47.27
185.679	71.85
185.898	20.65
186.118	133.29
186.338	12.46
186.557	12.46
186.777	63.66
186.997	57.51
187.216	-1.88
187.436	104.62
187.655	2.22
187.875	94.38
188.095	63.66
188.314	61.61
188.534	80.04
188.753	47.27
188.973	75.95
189.192	123.05
189.412	57.51
189.631	12.46
189.851	90.28
190.07	-12.12
190.29	4.27
190.509	18.6
190.729	32.94
190.948	22.7
191.168	77.99
191.387	86.19
191.607	-8.02
191.826	28.84
192.045	12.46
192.265	6.31
192.484	-8.02
192.704	-18.26
192.923	26.79
193.142	49.32
193.362	-40.79
193.581	22.7
193.8	43.18
194.02	14.51
194.239	2.22
194.458	100.52
194.678	32.94
194.897	43.18
195.116	86.19
195.335	14.51
195.555	86.19
195.774	51.37
195.993	59.56
196.212	112.81
196.432	32.94
196.651	4.27
196.87	88.23
197.089	49.32
197.308	34.99
197.528	80.04
197.747	34.99
197.966	80.04
198.185	80.04
198.404	86.19
198.623	8.36
198.842	47.27
199.062	51.37
199.281	77.99
199.5	63.66
199.719	-20.31
199.938	51.37
200.157	84.14
200.376	10.41
200.595	26.79
200.814	51.37
201.033	-14.17
201.252	84.14
201.471	57.51
201.69	61.61
201.909	57.51
202.128	47.27
202.347	24.75
202.566	47.27
202.785	92.33
203.004	26.79
203.223	73.9
203.442	28.84
203.661	45.23
203.879	22.7
204.098	-30.55
204.317	39.08
204.536	86.19
204.755	45.23
204.974	59.56
205.193	-55.12
205.411	59.56
205.63	61.61
205.849	2.22
206.068	32.94
206.287	73.9
206.505	45.23
206.724	34.99
206.943	2.22
207.162	55.47
207.381	55.47
207.599	37.03
207.818	-28.5
208.037	22.7
208.255	80.04
208.474	28.84
208.693	26.79
208.911	55.47
209.13	0.17
209.349	41.13
209.567	30.89
209.786	39.08
210.005	6.31
210.223	37.03
210.442	20.65
210.661	57.51
210.879	47.27
211.098	84.14
211.316	26.79
211.535	59.56
211.753	47.27
211.972	45.23
212.191	71.85
212.409	45.23
212.628	14.51
212.846	84.14
213.065	39.08
213.283	86.19
213.502	55.47
213.72	16.55
213.938	-3.93
214.157	-24.4
214.375	65.71
214.594	22.7
214.812	28.84
215.031	71.85
215.249	8.36
215.467	43.18
215.686	-20.31
215.904	22.7
216.122	37.03
216.341	127.14
216.559	63.66
216.778	-1.88
216.996	45.23
217.214	41.13
217.432	-28.5
217.651	-71.51
217.869	61.61
218.087	-1.88
218.306	63.66
218.524	67.75
218.742	57.51
218.96	49.32
219.179	32.94
219.397	24.75
219.615	73.9
219.833	43.18
220.051	49.32
220.27	37.03
220.488	-12.12
220.706	-16.21
220.924	0.17
221.142	-42.84
221.36	30.89
221.578	53.42
221.796	47.27
222.015	47.27
222.233	-1.88
222.451	94.38
222.669	84.14
222.887	28.84
223.105	49.32
223.323	32.94
223.541	41.13
223.759	71.85
223.977	96.43
224.195	39.08
224.413	133.29
224.631	-8.02
224.849	55.47
225.067	90.28
225.285	-8.02
225.503	-1.88
225.721	-57.17
225.939	51.37
226.157	34.99
226.375	69.8
226.592	12.46
226.81	28.84
227.028	6.31
227.246	43.18
227.464	37.03
227.682	32.94
227.9	-5.97
228.117	63.66
228.335	12.46
228.553	84.14
228.771	4.27
228.989	34.99
229.206	4.27
229.424	28.84
229.642	67.75
229.86	32.94
230.077	12.46
230.295	75.95
230.513	77.99
230.731	8.36
230.948	45.23
231.166	61.61
231.384	14.51
231.601	4.27
231.819	90.28
232.037	47.27
232.254	2.22
232.472	0.17
232.689	30.89
232.907	26.79
233.125	47.27
233.342	59.56
233.56	6.31
233.777	22.7
233.995	67.75
234.213	57.51
234.43	88.23
234.648	82.09
234.865	39.08
235.083	6.31
235.3	55.47
235.518	69.8
235.735	110.76
235.953	65.71
236.17	2.22
236.388	-10.07
236.605	28.84
236.822	77.99
237.04	32.94
237.257	24.75
237.475	16.55
237.692	-3.93
237.909	30.89
238.127	125.1
238.344	57.51
238.562	18.6
238.779	4.27
238.996	86.19
239.214	92.33
239.431	-36.69
239.648	-1.88
239.865	20.65
240.083	47.27
240.3	-14.17
240.517	20.65
240.735	39.08
240.952	14.51
241.169	94.38
241.386	69.8
241.603	92.33
241.821	32.94
242.038	112.81
242.255	39.08
242.472	24.75
242.689	45.23
242.907	47.27
243.124	28.84
243.341	57.51
243.558	12.46
243.775	26.79
243.992	14.51
244.209	-1.88
244.426	112.81
244.643	77.99
244.86	18.6
245.078	67.75
245.295	65.71
245.512	8.36
245.729	26.79
245.946	-12.12
246.163	51.37
246.38	30.89
246.597	51.37
246.814	8.36
247.031	14.51
247.248	30.89
247.464	47.27
247.681	94.38
247.898	47.27
248.115	90.28
248.332	-34.64
248.549	53.42
248.766	55.47
248.983	39.08
249.2	20.65
249.417	94.38
249.633	34.99
249.85	51.37
250.067	28.84
250.284	96.43
250.501	77.99
250.717	51.37
250.934	28.84
251.151	75.95
251.368	63.66
251.585	55.47
251.801	41.13
252.018	55.47
252.235	92.33
252.451	73.9
252.668	32.94
252.885	-1.88
253.102	59.56
253.318	51.37
253.535	0.17
253.752	59.56
253.968	53.42
254.185	-57.17
254.401	69.8
254.618	12.46
254.835	61.61
255.051	94.38
255.268	92.33
255.484	-10.07
255.701	67.75
255.917	75.95
256.134	53.42
256.351	-3.93
256.567	-10.07
256.784	102.57
257	47.27
257.217	63.66
257.433	14.51
257.65	53.42
257.866	67.75
258.082	4.27
258.299	47.27
258.515	12.46
258.732	51.37
258.948	47.27
259.165	71.85
259.381	14.51
259.597	30.89
259.814	37.03
260.03	22.7
260.246	45.23
260.463	34.99
260.679	4.27
260.895	57.51
261.112	67.75
261.328	0.17
261.544	55.47
261.761	71.85
261.977	98.47
262.193	88.23
262.409	96.43
262.626	59.56
262.842	123.05
263.058	-3.93
263.274	73.9
263.49	55.47
263.707	20.65
263.923	34.99
264.139	43.18
264.355	41.13
264.571	92.33
264.787	-8.02
265.004	39.08
265.22	84.14
265.436	71.85
265.652	-40.79
265.868	61.61
266.084	-22.36
266.3	41.13
266.516	59.56
266.732	18.6
266.948	61.61
267.164	69.8
267.38	49.32
267.596	49.32
267.812	118.95
268.028	12.46
268.244	-5.97
268.46	80.04
268.676	67.75
268.892	-1.88
269.108	53.42
269.324	12.46
269.54	129.19
269.756	69.8
269.972	0.17
270.188	28.84
270.403	82.09
270.619	116.9
270.835	82.09
271.051	6.31
271.267	96.43
271.483	20.65
271.698	47.27
271.914	53.42
272.13	30.89
272.346	104.62
272.562	123.05
272.777	69.8
272.993	39.08
273.209	82.09
273.425	82.09
273.64	-1.88
273.856	47.27
274.072	94.38
274.287	65.71
274.503	84.14
274.719	-46.93
274.934	104.62
275.15	53.42
275.366	12.46
275.581	-26.45
275.797	75.95
276.012	67.75
276.228	108.71
276.444	90.28
276.659	47.27
276.875	-8.02
277.09	71.85
277.306	100.52
277.521	106.67
277.737	114.86
277.952	63.66
278.168	-28.5
278.383	34.99
278.599	-5.97
278.814	90.28
279.03	82.09
279.245	90.28
279.461	20.65
279.676	63.66
279.892	34.99
280.107	106.67
280.322	-10.07
280.538	-14.17
280.753	10.41
280.969	-32.6
281.184	90.28
281.399	92.33
281.615	71.85
281.83	28.84
282.045	8.36
282.26	8.36
282.476	45.23
282.691	37.03
282.906	77.99
283.122	43.18
283.337	86.19
283.552	96.43
283.767	61.61
283.983	43.18
284.198	-22.36
284.413	102.57
284.628	20.65
284.843	77.99
285.058	39.08
285.274	67.75
285.489	51.37
285.704	67.75
285.919	57.51
286.134	73.9
286.349	39.08
286.564	108.71
286.779	94.38
286.995	57.51
287.21	45.23
287.425	63.66
287.64	86.19
287.855	63.66
288.07	69.8
288.285	16.55
288.5	34.99
288.715	98.47
288.93	6.31
289.145	-8.02
289.36	86.19
289.575	-5.97
289.79	84.14
290.004	121
290.219	92.33
290.434	-32.6
290.649	4.27
290.864	127.14
291.079	43.18
291.294	63.66
291.509	84.14
291.724	24.75
291.938	18.6
292.153	55.47
292.368	104.62
292.583	18.6
292.798	30.89
293.012	71.85
293.227	6.31
293.442	-14.17
293.657	90.28
293.871	65.71
294.086	34.99
294.301	133.29
294.516	67.75
294.73	-3.93
294.945	30.89
295.16	37.03
295.374	67.75
295.589	73.9
295.804	-1.88
296.018	-26.45
296.233	20.65
296.447	84.14
296.662	-20.31
296.877	67.75
297.091	-34.64
297.306	22.7
297.52	47.27
297.735	-1.88
297.949	110.76
298.164	55.47
298.378	67.75
298.593	61.61
298.807	80.04
299.022	75.95
299.236	12.46
299.451	90.28
299.665	-16.21
299.88	-18.26
300.094	153.77
300.309	47.27
300.523	49.32
300.737	24.75
300.952	41.13
301.166	28.84
301.381	-28.5
301.595	47.27
301.809	26.79
302.024	39.08
302.238	8.36
302.452	133.29
302.667	-1.88
302.881	86.19
303.095	45.23
303.309	2.22
303.524	30.89
303.738	-18.26
303.952	-20.31
304.166	63.66
304.381	47.27
304.595	57.51
304.809	49.32
305.023	100.52
305.237	110.76
305.452	51.37
305.666	67.75
305.88	-10.07
306.094	12.46
306.308	47.27
306.522	34.99
306.736	100.52
306.95	100.52
307.164	55.47
307.379	55.47
307.593	37.03
307.807	45.23
308.021	30.89
308.235	41.13
308.449	37.03
308.663	39.08
308.877	71.85
309.091	67.75
309.305	47.27
309.519	61.61
309.733	30.89
309.947	80.04
310.161	63.66
310.374	65.71
310.588	77.99
310.802	84.14
311.016	53.42
311.23	26.79
311.444	45.23
311.658	28.84
311.872	110.76
312.085	90.28
312.299	34.99
312.513	112.81
312.727	71.85
312.941	28.84
313.154	0.17
313.368	41.13
313.582	51.37
313.796	30.89
314.009	92.33
314.223	20.65
314.437	51.37
314.651	67.75
314.864	16.55
315.078	84.14
315.292	-46.93
315.505	94.38
315.719	110.76
315.933	41.13
316.146	32.94
316.36	18.6
316.573	61.61
316.787	16.55
317.001	51.37
317.214	55.47
317.428	49.32
317.641	6.31
317.855	57.51
318.068	30.89
318.282	82.09
318.495	116.9
318.709	-48.98
318.922	8.36
319.136	61.61
319.349	63.66
319.563	125.1
319.776	34.99
319.99	-1.88
320.203	86.19
320.417	63.66
320.63	104.62
320.843	63.66
321.057	0.17
321.27	69.8
321.483	-30.55
321.697	37.03
321.91	8.36
322.124	53.42
322.337	84.14
322.55	166.06
322.763	-46.93
322.977	14.51
323.19	75.95
323.403	65.71
323.617	45.23
323.83	133.29
324.043	65.71
324.256	8.36
324.469	24.75
324.683	80.04
324.896	47.27
325.109	22.7
325.322	59.56
325.535	37.03
325.748	34.99
325.962	37.03
326.175	71.85
326.388	-5.97
326.601	108.71
326.814	94.38
327.027	39.08
327.24	75.95
327.453	-20.31
327.666	63.66
327.879	98.47
328.092	59.56
328.305	59.56
328.518	0.17
328.731	90.28
328.944	2.22
329.157	116.9
329.37	26.79
329.583	145.58
329.796	84.14
330.009	57.51
330.222	88.23
330.435	96.43
330.648	161.96
330.861	67.75
331.073	90.28
331.286	100.52
331.499	94.38
331.712	30.89
331.925	73.9
332.138	55.47
332.35	45.23
332.563	43.18
332.776	112.81
332.989	37.03
333.202	12.46
333.414	43.18
333.627	90.28
333.84	43.18
334.053	82.09
334.265	75.95
334.478	110.76
334.691	37.03
334.903	65.71
335.116	-1.88
335.329	-51.03
335.541	88.23
335.754	37.03
335.966	80.04
336.179	57.51
336.392	37.03
336.604	30.89
336.817	67.75
337.029	55.47
337.242	104.62
337.454	92.33
337.667	39.08
337.88	49.32
338.092	41.13
338.305	104.62
338.517	4.27
338.729	16.55
338.942	82.09
339.154	49.32
339.367	43.18
339.579	-26.45
339.792	47.27
340.004	75.95
340.217	104.62
340.429	14.51
340.641	28.84
340.854	43.18
341.066	96.43
341.278	43.18
341.491	47.27
341.703	112.81
341.915	-55.12
342.128	63.66
342.34	112.81
342.552	55.47
342.764	59.56
342.977	104.62
343.189	90.28
343.401	84.14
343.613	41.13
343.826	37.03
344.038	45.23
344.25	100.52
344.462	63.66
344.674	28.84
344.886	100.52
345.099	80.04
345.311	57.51
345.523	65.71
345.735	55.47
345.947	59.56
346.159	-12.12
346.371	57.51
346.583	34.99
346.795	133.29
347.007	47.27
347.219	41.13
347.431	34.99
347.643	22.7
347.855	80.04
348.067	47.27
348.279	59.56
348.491	84.14
348.703	43.18
348.915	121
349.127	77.99
349.339	102.57
349.551	51.37
349.763	61.61
349.975	69.8
350.187	49.32
350.399	53.42
350.61	100.52
350.822	90.28
351.034	61.61
351.246	63.66
351.458	82.09
351.669	108.71
351.881	82.09
352.093	88.23
352.305	77.99
352.517	65.71
352.728	110.76
352.94	73.9
353.152	153.77
353.363	32.94
353.575	49.32
353.787	80.04
353.999	92.33
354.21	55.47
354.422	16.55
354.633	4.27
354.845	84.14
355.057	45.23
355.268	127.14
355.48	67.75
355.692	104.62
355.903	34.99
356.115	121
356.326	71.85
356.538	22.7
356.749	59.56
356.961	118.95
357.172	139.43
357.384	14.51
357.595	55.47
357.807	98.47
358.018	135.34
358.23	57.51
358.441	121
358.653	67.75
358.864	37.03
359.075	84.14
359.287	45.23
359.498	14.51
359.709	37.03
359.921	41.13
360.132	37.03
360.344	45.23
360.555	80.04
360.766	116.9
360.977	18.6
361.189	37.03
361.4	96.43
361.611	96.43
361.823	75.95
362.034	61.61
362.245	94.38
362.456	34.99
362.667	57.51
362.879	-38.74
363.09	84.14
363.301	71.85
363.512	65.71
363.723	100.52
363.935	43.18
364.146	100.52
364.357	94.38
364.568	73.9
364.779	49.32
364.99	63.66
365.201	57.51
365.412	67.75
365.623	55.47
365.834	77.99
366.045	51.37
366.256	80.04
366.467	39.08
366.678	37.03
366.889	71.85
367.1	-1.88
367.311	94.38
367.522	-30.55
367.733	39.08
367.944	55.47
368.155	92.33
368.366	88.23
368.577	71.85
368.788	67.75
368.999	45.23
369.209	34.99
369.42	139.43
369.631	47.27
369.842	69.8
370.053	88.23
370.264	104.62
370.474	20.65
370.685	55.47
370.896	77.99
371.107	65.71
371.317	94.38
371.528	49.32
371.739	63.66
371.95	94.38
372.16	88.23
372.371	28.84
372.582	41.13
372.792	20.65
373.003	18.6
373.214	69.8
373.424	92.33
373.635	45.23
373.846	135.34
374.056	16.55
374.267	131.24
374.477	41.13
374.688	28.84
374.898	39.08
375.109	112.81
375.319	65.71
375.53	82.09
375.74	-5.97
375.951	28.84
376.161	77.99
376.372	129.19
376.582	32.94
376.793	49.32
377.003	39.08
377.214	112.81
377.424	39.08
377.635	6.31
377.845	90.28
378.055	139.43
378.266	63.66
378.476	59.56
378.686	125.1
378.897	104.62
379.107	28.84
379.317	118.95
379.528	149.67
379.738	129.19
379.948	65.71
380.158	135.34
380.369	6.31
380.579	12.46
380.789	8.36
380.999	84.14
381.21	143.53
381.42	37.03
381.63	88.23
381.84	96.43
382.05	53.42
382.261	77.99
382.471	75.95
382.681	22.7
382.891	77.99
383.101	55.47
383.311	63.66
383.521	18.6
383.731	129.19
383.941	94.38
384.151	82.09
384.361	102.57
384.571	41.13
384.781	24.75
384.991	123.05
385.201	63.66
385.411	32.94
385.621	67.75
385.831	0.17
386.041	86.19
386.251	135.34
386.461	159.91
386.671	86.19
386.881	147.62
387.091	88.23
387.301	133.29
387.511	145.58
387.72	131.24
387.93	118.95
388.14	71.85
388.35	110.76
388.56	96.43
388.769	67.75
388.979	26.79
389.189	43.18
389.399	145.58
389.609	84.14
389.818	129.19
390.028	-38.74
390.238	96.43
390.447	65.71
390.657	16.55
390.867	92.33
391.076	102.57
391.286	94.38
391.496	88.23
391.705	80.04
391.915	114.86
392.125	125.1
392.334	98.47
392.544	137.38
392.753	96.43
392.963	67.75
393.172	39.08
393.382	116.9
393.591	157.86
393.801	94.38
394.01	75.95
394.22	104.62
394.429	145.58
394.639	63.66
394.848	143.53
395.058	155.82
395.267	22.7
395.477	53.42
395.686	104.62
395.895	84.14
396.105	104.62
396.314	100.52
396.524	118.95
396.733	67.75
396.942	104.62
397.152	129.19
397.361	153.77
397.57	86.19
397.78	77.99
397.989	131.24
398.198	135.34
398.407	61.61
398.617	86.19
398.826	129.19
399.035	133.29
399.244	102.57
399.453	139.43
399.663	129.19
399.872	129.19
400.081	82.09
400.29	127.14
400.499	147.62
400.708	215.21
400.917	108.71
401.127	186.54
401.336	96.43
401.545	129.19
401.754	186.54
401.963	112.81
402.172	143.53
402.381	172.2
402.59	123.05
402.799	112.81
403.008	211.11
403.217	98.47
403.426	194.73
403.635	172.2
403.844	149.67
404.053	104.62
404.262	159.91
404.471	98.47
404.68	176.3
404.888	118.95
405.097	137.38
405.306	198.82
405.515	186.54
405.724	241.83
405.933	252.07
406.142	207.02
406.35	196.78
406.559	192.68
406.768	239.78
406.977	176.3
407.185	252.07
407.394	161.96
407.603	227.5
407.812	325.8
408.02	280.74
408.229	231.59
408.438	301.22
408.646	219.3
408.855	288.93
409.064	333.99
409.272	288.93
409.481	258.21
409.69	274.6
409.898	321.7
410.107	313.51
410.315	411.81
410.524	348.33
410.733	401.57
410.941	385.19
411.15	495.78
411.358	469.16
411.567	436.39
411.775	381.09
411.984	551.07
412.192	479.4
412.401	493.73
412.609	649.38
412.818	495.78
413.026	479.4
413.234	714.91
413.443	637.09
413.651	649.38
413.86	602.27
414.068	710.82
414.276	723.1
414.485	764.06
414.693	776.35
414.901	831.65
415.11	790.69
415.318	772.25
415.526	768.16
415.734	942.24
415.943	848.03
416.151	952.48
416.359	993.44
416.567	975
416.776	1061.02
416.984	1063.07
417.192	1153.18
417.4	1108.12
417.608	1210.52
417.817	1276.06
418.025	1243.29
418.233	1314.97
418.441	1251.48
418.649	1366.17
418.857	1403.03
419.065	1366.17
419.273	1480.85
419.481	1501.33
419.689	1677.46
419.897	1665.17
420.105	1661.07
420.313	1763.47
420.521	1820.81
420.729	1849.49
420.937	1935.5
421.145	2035.85
421.353	2046.09
421.561	2248.84
421.769	2240.65
421.977	2365.57
422.185	2281.61
422.393	2291.85
422.601	2560.13
422.809	2525.32
423.017	2525.32
423.224	2728.07
423.432	2773.12
423.64	2881.66
423.848	3135.61
424.056	3035.26
424.263	3242.11
424.471	3178.62
424.679	3334.26
424.887	3512.44
425.094	3412.09
425.302	3713.14
425.51	3776.63
425.718	3743.86
425.925	3901.55
426.133	4020.33
426.341	4292.71
426.548	4507.75
426.756	4501.61
426.964	4470.89
427.171	4730.98
427.379	4917.34
427.586	5113.95
427.794	5083.23
428.001	5482.58
428.209	5464.15
428.417	5453.91
428.624	5920.85
428.832	5820.5
429.039	5871.7
429.247	5709.91
429.454	6260.81
429.662	6858.82
429.869	6457.42
430.076	6862.91
430.284	6645.83
430.491	6914.11
430.699	7264.32
430.906	7381.05
431.114	7352.38
431.321	7831.6
431.528	7706.68
431.736	8282.16
431.943	8747.05
432.15	8521.77
432.358	8644.65
432.565	8898.59
432.772	9033.76
432.979	9463.83
433.187	9672.73
433.394	9650.2
433.601	10172.43
433.808	10248.21
434.016	10268.69
434.223	10661.9
434.43	11255.81
434.637	11071.49
434.844	11753.46
435.052	11845.62
435.259	12001.27
435.466	12060.66
435.673	12093.43
435.88	12924.9
436.087	13182.95
436.294	13334.5
436.501	13015.01
436.708	13375.45
436.915	13887.45
437.122	14327.76
437.329	14358.48
437.537	14806.98
437.743	14993.35
437.95	14933.96
438.157	15968.18
438.364	16365.49
438.571	16347.06
438.778	16312.24
438.985	17948.57
439.192	17209.25
439.399	18024.34
439.606	17500.06
439.813	18290.58
440.02	19685.25
440.227	18941.83
440.433	19029.9
440.64	19799.93
440.847	19568.51
441.054	20055.93
441.261	21268.33
441.467	21360.48
441.674	21436.26
441.881	21999.45
442.088	22361.94
442.294	22132.57
442.501	22800.21
442.708	23430.98
442.914	24256.31
443.121	25095.98
443.328	24477.49
443.534	26036
443.741	25524.01
443.948	24995.63
444.154	27053.84
444.361	26836.75
444.568	27111.18
444.774	26791.7
444.981	27344.65
445.187	27940.61
445.394	29411.05
445.6	29034.22
445.807	31733.45
446.013	30471.9
446.22	31168.21
446.426	32526.01
446.633	32454.33
446.839	33861.29
447.046	32030.4
447.252	33838.76
447.459	34084.51
447.665	33943.2
447.871	35303.06
448.078	37045.88
448.284	35538.57
448.491	36331.14
448.697	37396.08
448.903	38372.96
449.11	38688.35
449.316	38274.66
449.522	38157.92
449.728	39747.15
449.935	40060.49
450.141	39976.52
450.347	41002.55
450.553	39693.9
450.76	40181.32
450.966	41401.91
451.172	41045.56
451.378	42006.06
451.584	41377.33
451.791	42034.73
451.997	42042.92
452.203	42526.24
452.409	42366.5
452.615	42808.86
452.821	41195.06
453.027	40312.39
453.233	42786.33
453.44	41049.66
453.646	41797.16
453.852	41731.63
454.058	42819.1
454.264	41328.18
454.47	42044.97
454.676	40949.31
454.882	42466.85
455.088	38796.89
455.294	39161.43
455.5	39769.68
455.705	40521.28
455.911	39095.89
456.117	38299.23
456.323	37486.19
456.529	35823.24
456.735	37119.6
456.941	36214.4
457.147	35552.91
457.352	34766.49
457.558	34061.99
457.764	34580.12
457.97	33676.97
458.176	32685.75
458.381	32933.56
458.587	31563.47
458.793	31456.97
458.999	29675.24
459.204	31762.12
459.41	31162.06
459.616	28714.74
459.821	28888.82
460.027	28706.55
460.233	28258.04
460.438	26965.78
460.644	26955.54
460.85	26218.27
461.055	25655.08
461.261	25333.54
461.466	23719.74
461.672	22918.99
461.878	24653.62
462.083	23070.54
462.289	22570.83
462.494	22187.86
462.7	21063.53
462.905	20594.54
463.111	21538.66
463.316	21651.3
463.522	21116.78
463.727	20954.99
463.932	21153.64
464.138	20967.27
464.343	20758.38
464.549	20201.33
464.754	20860.78
464.959	20678.51
465.165	20463.47
465.37	19683.2
465.575	19537.79
465.781	20164.47
465.986	20152.18
466.191	19367.81
466.397	19103.62
466.602	18073.49
466.807	19029.9
467.012	18888.59
467.218	18929.55
467.423	18386.83
467.628	18749.32
467.833	19533.7
468.038	18710.41
468.244	18208.66
468.449	18937.74
468.654	18309.01
468.859	18155.41
469.064	17956.76
469.269	17375.14
469.474	17764.25
469.679	18065.3
469.885	17467.3
470.09	17543.07
470.295	17516.45
470.5	16998.31
470.705	17147.81
470.91	16785.32
471.115	16644.01
471.32	16850.86
471.525	16826.28
471.73	16422.83
471.935	16336.82
472.139	15765.43
472.344	16029.62
472.549	15767.48
472.754	15716.28
472.959	15388.61
473.164	14925.77
473.369	14874.57
473.574	15554.49
473.778	15235.01
473.983	15060.93
474.188	15212.48
474.393	14297.04
474.598	14733.26
474.802	14266.32
475.007	14180.31
475.212	14211.03
475.417	13567.96
475.621	13748.18
475.826	13955.03
476.031	13375.45
476.235	13271.01
476.44	13381.6
476.645	13297.63
476.849	13338.59
477.054	13006.82
477.259	12736.49
477.463	12867.56
477.668	12521.45
477.872	12738.54
478.077	12488.68
478.282	12290.03
478.486	12122.1
478.691	11997.17
478.895	11972.6
479.1	11845.62
479.304	11653.11
479.509	11603.96
479.713	11759.61
479.918	11601.91
480.122	11325.44
480.326	11468.8
480.531	11569.15
480.735	11341.82
480.94	11120.64
481.144	11651.06
481.348	11116.55
481.553	11268.09
481.757	11118.59
481.961	11294.72
482.166	11405.31
482.37	11126.78
482.574	11044.87
482.778	10942.47
482.983	11403.26
483.187	11200.51
483.391	11173.89
483.595	10981.38
483.8	10778.63
484.004	11134.98
484.208	11399.16
484.412	11210.75
484.616	11005.95
484.821	11161.6
485.025	10907.65
485.229	11188.22
485.433	11159.55
485.637	11317.25
485.841	10995.71
486.045	11118.59
486.249	10938.37
486.453	10932.23
486.657	11118.59
486.861	11423.74
487.065	11096.07
487.269	10928.13
487.473	10844.17
487.677	11210.75
487.881	11350.01
488.085	11081.73
488.289	11296.77
488.493	11196.42
488.697	11167.74
488.901	11247.62
489.105	11259.9
489.309	11044.87
489.512	11120.64
489.716	11292.67
489.92	11225.09
490.124	11169.79
490.328	11247.62
490.531	11433.98
490.735	11438.08
490.939	11481.08
491.143	11476.99
491.346	11519.99
491.55	11784.18
491.754	11552.76
491.958	11655.16
492.161	11884.53
492.365	11952.12
492.569	11800.57
492.772	11845.62
492.976	12109.81
493.18	11814.9
493.383	12046.32
493.587	12195.82
493.79	12374
493.994	12179.44
494.197	12382.19
494.401	12498.92
494.605	12273.65
494.808	12744.68
495.012	12832.74
495.215	12967.91
495.419	13119.46
495.622	12679.15
495.825	13131.75
496.029	13273.06
496.232	13406.17
496.436	13242.34
496.639	13672.41
496.843	13725.66
497.046	13981.65
497.249	13930.45
497.453	13950.93
497.656	14129.11
497.859	14102.48
498.063	14456.78
498.266	14630.86
498.469	14606.28
498.673	15048.65
498.876	15028.17
499.079	15333.31
499.282	15546.3
499.485	15628.22
499.689	15601.6
499.892	15632.32
500.095	15935.42
500.298	16447.41
500.501	16267.19
500.705	16525.23
500.908	16844.71
501.111	16863.15
501.314	17123.24
501.517	17385.38
501.72	17571.74
501.923	17762.2
502.126	18030.49
502.329	18528.14
502.532	18425.75
502.735	18358.16
502.938	18911.11
503.141	19056.52
503.344	19414.91
503.547	19347.33
503.75	19656.57
503.953	19726.21
504.156	20131.7
504.359	20291.45
504.562	20572.02
504.765	20721.52
504.968	20881.26
505.17	21264.23
505.373	21460.84
505.576	22130.52
505.779	21686.11
505.982	22122.33
506.185	22400.85
506.387	22558.55
506.59	22593.36
506.793	23136.07
506.996	23111.5
507.198	23738.18
507.401	23535.43
507.604	24067.9
507.807	24364.85
508.009	24837.94
508.212	24624.95
508.415	25085.74
508.617	25415.46
508.82	25700.13
509.022	25577.25
509.225	26083.1
509.428	26343.19
509.63	26697.49
509.833	26732.31
510.035	27223.82
510.238	27279.11
510.44	27420.42
510.643	27617.03
510.845	28114.69
511.048	28139.26
511.25	28667.64
511.453	28940.02
511.655	29830.88
511.858	29110
512.06	29613.8
512.262	30023.39
512.465	30338.78
512.667	30617.3
512.87	30731.99
513.072	30871.25
513.274	31327.95
513.477	31747.78
513.679	32100.03
513.881	32423.61
514.084	32390.84
514.286	32304.83
514.488	32884.4
514.69	33611.43
514.893	34051.75
515.095	34145.95
515.297	34631.32
515.499	34207.39
515.701	34991.76
515.904	35341.97
516.106	35329.68
516.308	35397.26
516.51	36173.44
516.712	36081.28
516.914	36660.86
517.116	37320.31
517.318	37201.52
517.52	37314.16
517.722	37539.44
517.925	38059.62
518.127	38241.89
518.329	38843.99
518.531	38532.7
518.733	39272.02
518.935	39259.73
519.136	39542.35
519.338	39704.14
519.54	40304.2
519.742	40549.95
519.944	41000.51
520.146	41107
520.348	41336.37
520.55	41328.18
520.752	41545.26
520.954	42636.83
521.155	42401.32
521.357	42468.9
521.559	43062.81
521.761	43771.41
521.963	43836.94
522.164	43818.51
522.366	43951.63
522.568	44432.9
522.77	44566.02
522.971	45393.4
523.173	44787.2
523.375	45202.94
523.576	45243.9
523.778	45065.72
523.98	45934.06
524.181	46097.9
524.383	46050.8
524.584	46458.34
524.786	46743.01
524.988	46497.25
525.189	47111.64
525.391	47496.66
525.592	47779.28
525.794	48006.61
525.995	47523.29
526.197	48098.76
526.398	48197.07
526.6	48016.85
526.801	47742.42
527.003	48788.93
527.204	48586.18
527.406	49345.98
527.607	48838.08
527.808	49450.42
528.01	48381.38
528.211	49034.69
528.412	49663.41
528.614	49436.09
528.815	49851.83
529.016	50228.65
529.218	49300.92
529.419	49962.42
529.62	49679.8
529.822	49595.83
530.023	49927.6
530.224	49774
530.425	50253.23
530.626	49663.41
530.828	49505.72
531.029	51013.02
531.23	50062.77
531.431	50353.58
531.632	50451.88
531.833	50501.03
532.035	50892.19
532.236	50666.92
532.437	50951.59
532.638	50875.81
532.839	50417.07
533.04	51162.53
533.241	49991.09
533.442	51461.53
533.643	50836.9
533.844	50781.6
534.045	50462.12
534.246	50599.33
534.447	50978.21
534.648	50976.16
534.849	51099.04
535.05	50503.08
535.251	51174.81
535.451	50625.96
535.652	51264.92
535.853	50775.46
536.054	51029.41
536.255	51080.61
536.456	50314.67
536.657	51123.61
536.857	51080.61
537.058	50822.56
537.259	50867.62
537.46	51299.74
537.66	51199.39
537.861	51000.74
538.062	50607.53
538.263	50750.88
538.463	50865.57
538.664	50671.01
538.865	50945.44
539.065	50867.62
539.266	50521.51
539.466	51424.67
539.667	50783.65
539.868	51234.2
540.068	50783.65
540.269	50965.92
540.469	50793.89
540.67	50259.37
540.87	50316.71
541.071	50492.84
541.271	50720.16
541.472	50767.27
541.672	50585
541.873	50390.44
542.073	49962.42
542.274	51115.42
542.474	50568.62
542.675	50060.72
542.875	51010.98
543.075	50455.98
543.276	49997.23
543.476	51201.44
543.676	50650.53
543.877	50707.88
544.077	50173.36
544.277	50488.74
544.478	49972.66
544.678	50519.46
544.878	50482.6
545.078	50015.66
545.279	50402.73
545.479	49896.88
545.679	50482.6
545.879	50554.28
546.079	50486.7
546.28	50351.53
546.48	49774
546.68	50625.96
546.88	50351.53
547.08	50585
547.28	50433.45
547.48	50146.73
547.68	50396.59
547.88	49696.18
548.081	50331.05
548.281	50394.54
548.481	49843.63
548.681	50392.49
548.881	49929.65
549.081	49896.88
549.28	49743.28
549.48	50234.8
549.68	49702.32
549.88	50808.23
550.08	49882.55
550.28	50107.82
550.48	49741.24
550.68	50001.33
550.88	50199.98
551.08	50021.81
551.279	49923.5
551.479	49649.08
551.679	49952.18
551.879	49593.78
552.079	50163.12
552.278	49788.34
552.478	49954.22
552.678	49540.53
552.878	49911.22
553.077	49454.52
553.277	49507.77
553.477	50105.77
553.676	49520.06
553.876	49661.36
554.076	49718.71
554.275	49388.99
554.475	48958.91
554.674	49776.05
554.874	49368.51
555.074	49235.39
555.273	49354.17
555.473	49614.26
555.672	49440.18
555.872	49272.25
556.071	49647.03
556.271	49335.74
556.47	48809.41
556.67	48752.07
556.869	48995.78
557.068	49075.65
557.268	48995.78
557.467	48807.36
557.667	48733.64
557.866	48983.49
558.065	48784.83
558.265	48455.11
558.464	48549.32
558.663	49212.86
558.863	48283.08
559.062	49073.6
559.261	48559.56
559.461	48971.2
559.66	47764.95
559.859	48680.39
560.058	47914.45
560.258	48283.08
560.457	48219.59
560.656	48405.96
560.855	47949.26
561.054	48356.81
561.253	48129.48
561.453	47885.78
561.652	48426.44
561.851	48283.08
562.05	47771.09
562.249	47742.42
562.448	48199.12
562.647	48022.99
562.846	47605.2
563.045	47531.48
563.244	47144.41
563.443	47828.43
563.642	47058.4
563.841	47519.19
564.04	47037.92
564.239	47410.65
564.438	46996.96
564.637	47271.39
564.836	47304.15
565.035	46517.73
565.234	46839.26
565.432	46745.06
565.631	46613.99
565.83	47027.68
566.029	46519.78
566.228	46714.34
566.427	46902.75
566.625	46507.49
566.824	45764.08
567.023	46640.61
567.222	45510.13
567.42	46530.02
567.619	46444.01
567.818	46056.94
568.016	45983.21
568.215	46425.57
568.414	45624.82
568.612	45991.4
568.811	45463.03
569.01	45811.18
569.208	45600.24
569.407	45958.64
569.605	45180.41
569.804	45964.78
570.002	45192.7
570.201	45204.98
570.4	45520.37
570.598	44740.1
570.797	44920.32
570.995	45071.87
571.193	44477.96
571.392	45069.82
571.59	44590.59
571.789	44594.69
571.987	44580.35
572.186	44795.39
572.384	44555.78
572.582	44117.51
572.781	44312.07
572.979	43910.67
573.177	44363.27
573.376	44416.52
573.574	43851.28
573.772	44011.02
573.971	43765.26
574.169	43378.2
574.367	43591.19
574.565	43580.95
574.763	43599.38
574.962	43654.67
575.16	43230.74
575.358	43462.16
575.556	42845.72
575.754	43367.96
575.952	43027.99
576.151	43339.29
576.349	42466.85
576.547	42614.3
576.745	42645.02
576.943	42665.5
577.141	42149.42
577.339	42524.19
577.537	42253.86
577.735	42245.67
577.933	41854.51
578.131	42217
578.329	42057.26
578.527	41893.42
578.725	41948.71
578.923	41881.13
579.121	41471.54
579.319	41236.02
579.516	41504.31
579.714	41489.97
579.912	40998.46
580.11	41406
580.308	41260.6
580.506	41031.22
580.704	40328.77
580.901	40785.47
581.099	41274.93
581.297	40736.32
581.495	40461.89
581.692	40390.21
581.89	39630.41
582.088	40513.09
582.285	39642.7
582.483	40488.51
582.681	40234.56
582.878	39806.54
583.076	39730.76
583.274	39714.38
583.471	39065.17
583.669	39808.59
583.866	39308.88
584.064	39614.03
584.262	38950.49
584.459	39310.93
584.657	39143
584.854	39319.12
585.052	38252.13
585.249	38588
585.447	39089.75
585.644	38309.47
585.841	38538.85
586.039	38997.59
586.236	37940.84
586.434	37987.94
586.631	37936.74
586.828	37949.03
587.026	37822.06
587.223	37697.13
587.42	37719.66
587.618	37693.04
587.815	37232.24
588.012	37516.91
588.21	36892.28
588.407	37584.49
588.604	36882.04
588.801	36757.11
588.999	36597.37
589.196	36988.53
589.393	36900.47
589.59	36441.73
589.787	36390.53
589.984	36253.31
590.182	36046.47
590.379	36705.91
590.576	35950.21
590.773	36069
590.97	35784.33
591.167	36245.12
591.364	35423.89
591.561	35714.7
591.758	35260.05
591.955	35393.17
592.152	35468.94
592.349	35454.61
592.546	35090.07
592.743	35282.58
592.94	34535.07
593.137	34758.3
593.334	34881.17
593.531	34268.83
593.727	34547.36
593.924	34625.18
594.121	34092.71
594.318	34594.46
594.515	34047.65
594.712	34426.53
594.908	33783.46
595.105	34098.85
595.302	33509.04
595.499	33824.42
595.696	33572.52
595.892	33173.17
596.089	33222.32
596.286	33597.1
596.482	33324.72
596.679	32927.41
596.876	33167.02
597.072	33248.94
597.269	33152.69
597.466	32687.8
597.662	32855.73
597.859	32779.96
598.055	32777.91
598.252	32351.93
598.448	32319.17
598.645	32358.08
598.841	32194.24
599.038	32132.8
599.234	32259.77
599.431	31778.5
599.627	31936.2
599.824	31923.91
600.02	31512.27
600.217	31667.91
600.413	31307.47
600.609	31293.13
600.806	31346.38
601.002	31579.85
601.198	31155.92
601.395	31002.32
601.591	31059.66
601.787	30809.81
601.984	30387.93
602.18	30998.23
602.376	30609.11
602.572	30471.9
602.769	30623.45
602.965	30226.14
603.161	30383.84
603.357	30002.91
603.553	30068.45
603.75	30170.85
603.946	29568.74
604.142	30002.91
604.338	29406.95
604.534	29497.06
604.73	29888.23
604.926	29423.34
605.122	29495.02
605.318	29267.69
605.514	29220.59
605.71	28864.24
605.906	29028.08
606.102	29132.53
606.298	29165.29
606.494	28583.67
606.69	28962.54
606.886	28757.75
607.082	28475.13
607.278	28477.18
607.474	28489.46
607.67	28874.48
607.866	27967.23
608.062	28249.85
608.257	28104.45
608.453	28198.65
608.649	28227.32
608.845	28075.77
609.041	27803.39
609.236	28010.24
609.432	27797.25
609.628	27596.55
609.824	27799.3
610.019	27760.39
610.215	27498.25
610.411	27711.24
610.606	27584.26
610.802	27389.7
610.998	27414.28
611.193	27569.93
611.389	27193.1
611.584	27232.01
611.78	27131.66
611.976	27174.67
612.171	27191.05
612.367	27006.73
612.562	26887.95
612.758	26615.57
612.953	26695.44
613.149	27180.81
613.344	26668.82
613.539	27215.63
613.735	26779.41
613.93	26683.16
614.126	26627.86
614.321	26572.57
614.517	26447.64
614.712	26324.76
614.907	26502.93
615.103	26330.9
615.298	26165.02
615.493	26646.29
615.688	25925.41
615.884	26300.19
616.079	25927.46
616.274	26408.73
616.47	26029.85
616.665	25960.22
616.86	25870.11
617.055	26003.23
617.25	25718.56
617.445	25820.96
617.641	25300.78
617.836	25767.71
618.031	25306.92
618.226	25440.04
618.421	25474.85
618.616	25659.17
618.811	24803.12
619.006	25472.81
619.201	24813.36
619.396	25091.88
619.591	24483.64
619.786	24950.57
619.981	24428.34
620.176	24471.35
620.371	24278.84
620.566	24399.67
620.761	24248.12
620.956	24321.85
621.151	23906.11
621.346	23947.07
621.541	23508.8
621.735	23682.88
621.93	23439.17
622.125	23324.49
622.32	23494.47
622.515	23293.77
622.709	23119.69
622.904	23238.47
623.099	22835.02
623.294	22908.75
623.488	22554.45
623.683	22691.66
623.878	22423.38
624.072	22433.62
624.267	22194.01
624.462	22048.6
624.656	21999.45
624.851	22005.59
625.046	21737.31
625.24	21698.4
625.435	21415.78
625.629	21366.63
625.824	21073.77
626.018	21411.68
626.213	21038.95
626.407	21194.6
626.602	20629.36
626.796	20715.37
626.991	20694.89
627.185	20670.32
627.38	20260.73
627.574	20334.45
627.768	20244.34
627.963	20066.17
628.157	19863.42
628.352	19873.66
628.546	19521.41
628.74	19963.77
628.935	19330.95
629.129	19533.7
629.323	19449.73
629.517	18997.13
629.712	19031.94
629.906	18939.79
630.1	18835.34
630.294	18982.79
630.489	18812.81
630.683	18659.21
630.877	18347.92
631.071	18433.94
631.265	18417.55
631.459	18552.72
631.653	18167.7
631.848	18296.72
632.042	18030.49
632.236	17833.88
632.43	17643.42
632.624	18034.58
632.818	17596.32
633.012	17502.11
633.206	17618.85
633.4	17614.75
633.594	17205.16
633.788	17467.3
633.982	17008.55
634.176	16836.52
634.369	16854.95
634.563	16764.84
634.757	16781.23
634.951	16943.02
635.145	16756.65
635.339	16666.54
635.533	16312.24
635.726	16215.99
635.92	16019.38
636.114	16189.36
636.308	15869.88
636.501	15978.42
636.695	16150.45
636.889	16037.81
637.083	15943.61
637.276	15456.19
637.47	15568.83
637.664	15445.95
637.857	15671.23
638.051	15368.13
638.244	15200.19
638.438	15093.7
638.632	15028.17
638.825	15028.17
639.019	14766.03
639.212	14819.27
639.406	14647.24
639.599	15054.79
639.793	14739.4
639.986	14550.99
640.18	14374.86
640.373	14520.27
640.567	14333.9
640.76	14389.2
640.954	14188.5
641.147	13895.64
641.34	14071.76
641.534	13858.78
641.727	13492.19
641.92	13871.06
642.114	13559.77
642.307	13481.95
642.5	13279.2
642.694	13316.06
642.887	13336.54
643.08	13588.44
643.273	13176.8
643.467	13209.57
643.66	13090.79
643.853	13111.27
644.046	12775.4
644.239	12906.47
644.432	12695.53
644.626	12431.34
644.819	12679.15
645.012	12638.19
645.205	12621.8
645.398	12537.84
645.591	12380.14
645.784	12144.63
645.977	12333.04
646.17	12302.32
646.363	12095.47
646.556	12021.75
646.749	12132.34
646.942	11968.5
647.135	11827.19
647.328	11819
647.521	11692.02
647.714	11606.01
647.907	11573.24
648.099	11716.6
648.292	11524.09
648.485	11397.12
648.678	11464.7
648.871	11071.49
649.064	11073.54
649.256	11216.9
649.449	11122.69
649.642	11169.79
649.835	11063.3
650.027	10993.67
650.22	10878.98
650.413	10840.07
650.605	10909.7
650.798	10620.94
650.991	10680.33
651.183	10553.35
651.376	10532.87
651.568	10504.2
651.761	10348.56
651.954	10514.44
652.146	10354.7
652.339	10266.64
652.531	10250.25
652.724	10102.8
652.916	9906.2
653.109	10016.79
653.301	9887.76
653.494	10143.76
653.686	9889.81
653.879	10004.5
654.071	9582.62
654.263	9652.25
654.456	9723.93
654.648	9611.29
654.84	9482.27
655.033	9431.07
655.225	9664.54
655.417	9439.26
655.61	9224.22
655.802	9332.76
655.994	9291.8
656.186	9099.3
656.379	9242.65
656.571	9152.54
656.763	8884.26
656.955	9189.41
657.148	8933.41
657.34	8742.95
657.532	8775.72
657.724	8785.96
657.916	8849.44
658.108	8665.13
658.3	8624.17
658.492	8587.3
658.684	8505.38
658.876	8499.24
659.068	8386.6
659.26	8493.1
659.452	8448.04
659.644	8286.25
659.836	8185.9
660.028	8316.97
660.22	8026.16
660.412	8161.33
660.604	7968.82
660.796	7983.15
660.988	8013.87
661.18	7940.15
661.372	7819.32
661.563	7690.29
661.755	7817.27
661.947	7884.85
662.139	7581.75
662.331	7628.85
662.522	7786.55
662.714	7485.5
662.906	7622.71
663.097	7374.91
663.289	7342.14
663.481	7460.92
663.673	7252.03
663.864	7258.17
664.056	7256.12
664.247	7292.99
664.439	6912.07
664.631	7080
664.822	7059.52
665.014	7190.59
665.205	6977.6
665.397	7100.48
665.588	6881.35
665.78	6817.86
665.971	6774.85
666.163	6885.44
666.354	6971.46
666.546	6719.56
666.737	6654.02
666.929	6666.31
667.12	6608.97
667.311	6588.49
667.503	6408.26
667.694	6539.33
667.885	6344.78
668.077	6508.62
668.268	6426.7
668.459	6414.41
668.651	6365.26
668.842	6441.03
669.033	6406.22
669.224	6213.71
669.416	6215.76
669.607	6299.72
669.798	6256.72
669.989	6037.58
670.18	6035.53
670.371	6103.12
670.563	5963.86
670.754	5990.48
670.945	5963.86
671.136	5949.52
671.327	6072.4
671.518	5896.27
671.709	5879.89
671.9	5763.15
672.091	5875.79
672.282	5763.15
672.473	5734.48
672.664	5863.51
672.855	5593.17
673.046	5746.77
673.237	5812.31
673.428	5611.61
673.619	5587.03
673.809	5677.14
674	5691.48
674.191	5605.46
674.382	5531.73
674.573	5443.67
674.764	5544.02
674.954	5400.66
675.145	5251.16
675.336	5320.79
675.527	5365.85
675.717	5302.36
675.908	5365.85
676.099	5474.39
676.289	5267.55
676.48	5257.31
676.671	5314.65
676.861	5277.79
677.052	5054.56
677.243	5122.14
677.433	5148.76
677.624	5300.31
677.814	5118.04
678.005	5202.01
678.195	5091.42
678.386	5011.55
678.576	4939.87
678.767	5040.22
678.957	4970.59
679.148	5195.87
679.338	5097.56
679.529	5036.13
679.719	5060.7
679.909	4966.49
680.1	4849.76
680.29	5091.42
680.481	5011.55
680.671	4929.63
680.861	4833.38
681.052	4995.17
681.242	4960.35
681.432	4958.3
681.622	4835.42
681.813	4876.38
682.003	4837.47
682.193	4835.42
682.383	4857.95
682.573	4812.9
682.764	4827.23
682.954	4970.59
683.144	4761.7
683.334	4753.51
683.524	4792.42
683.714	4806.75
683.904	4923.49
684.094	4741.22
684.284	4745.31
684.474	4806.75
684.664	4778.08
684.854	4690.02
685.044	4773.99
685.234	4634.72
685.424	4528.23
685.614	4587.62
685.804	4733.03
685.994	4745.31
686.184	4528.23
686.374	4591.72
686.564	4493.41
686.753	4556.9
686.943	4507.75
687.133	4409.45
687.323	4397.16
687.513	4515.94
687.702	4438.12
687.892	4458.6
688.082	4546.66
688.272	4417.64
688.461	4558.95
688.651	4493.41
688.841	4286.57
689.03	4278.38
689.22	4268.14
689.41	4247.66
689.599	4198.51
689.789	4292.71
689.979	4151.4
690.168	4208.75
690.358	4065.39
690.547	4200.55
690.737	4024.43
690.926	4157.55
691.116	4067.44
691.305	4190.31
691.495	4065.39
691.684	4104.3
691.874	3930.22
692.063	4036.72
692.252	3954.8
692.442	4057.2
692.631	3872.88
692.82	3993.71
693.01	4001.9
693.199	3774.58
693.388	3737.71
693.578	3930.22
693.767	3803.25
693.956	3928.17
694.146	3905.65
694.335	3825.78
694.524	3870.83
694.713	3823.73
694.902	3815.54
695.092	3747.95
695.281	3786.86
695.47	3799.15
695.659	3659.89
695.848	3602.55
696.037	3526.77
696.226	3674.23
696.415	3569.78
696.604	3422.33
696.793	3539.06
696.982	3606.64
697.171	3668.08
697.36	3594.36
697.549	3496.05
697.738	3534.96
697.927	3512.44
698.116	3430.52
698.305	3377.27
698.494	3405.94
698.683	3461.24
698.872	3336.31
699.061	3500.15
699.25	3516.53
699.438	3391.61
699.627	3281.02
699.816	3235.96
700.005	3321.98
700.193	3313.78
700.382	3483.77
700.571	3379.32
700.76	3242.11
700.948	3342.46
701.137	3168.38
701.326	3176.57
701.514	3229.82
701.703	3387.51
701.892	3156.09
702.08	3201.15
702.269	3125.37
702.457	3053.69
702.646	3082.36
702.834	3149.95
703.023	3123.32
703.212	3178.62
703.4	3088.51
703.589	3057.79
703.777	3233.91
703.965	3000.44
704.154	3092.6
704.342	3098.75
704.531	3070.08
704.719	2959.49
704.907	3076.22
705.096	2979.97
705.284	2984.06
705.472	2996.35
705.661	2969.73
705.849	2939.01
706.037	2941.05
706.226	2932.86
706.414	2871.42
706.602	2834.56
706.79	3020.92
706.979	2939.01
707.167	2885.76
707.355	2844.8
707.543	2900.09
707.731	2936.96
707.919	2898.05
708.107	2795.65
708.296	2930.81
708.484	2955.39
708.672	2840.7
708.86	2867.33
709.048	2855.04
709.236	2908.29
709.424	2852.99
709.612	2793.6
709.8	2904.19
709.988	2760.83
710.176	2805.89
710.364	2732.16
710.551	2881.66
710.739	2867.33
710.927	2756.74
711.115	2773.12
711.303	2814.08
711.491	2824.32
711.679	2654.34
711.866	2803.84
712.054	2738.3
712.242	2631.81
712.43	2701.44
712.617	2891.9
712.805	2566.28
712.993	2699.39
713.181	2664.58
713.368	2779.26
713.556	2726.02
713.744	2644.1
713.931	2779.26
714.119	2666.63
714.306	2650.24
714.494	2699.39
714.682	2652.29
714.869	2644.1
715.057	2609.28
715.244	2545.8
715.432	2701.44
715.619	2588.8
715.807	2672.77
715.994	2726.02
716.182	2672.77
716.369	2541.7
716.556	2693.25
716.744	2529.41
716.931	2627.71
717.119	2609.28
717.306	2590.85
717.493	2574.47
717.681	2586.76
717.868	2601.09
718.055	2609.28
718.242	2543.75
718.43	2719.87
718.617	2535.56
718.804	2584.71
718.991	2549.89
719.179	2582.66
719.366	2484.36
719.553	2693.25
719.74	2492.55
719.927	2599.04
720.114	2523.27
720.301	2535.56
720.488	2566.28
720.676	2668.67
720.863	2627.71
721.05	2515.08
721.237	2590.85
721.424	2508.93
721.611	2594.95
721.798	2570.37
721.985	2517.12
722.172	2455.69
722.358	2533.51
722.545	2521.22
722.732	2429.06
722.919	2574.47
723.106	2572.42
723.293	2582.66
723.48	2476.16
723.667	2424.97
723.853	2521.22
724.04	2515.08
724.227	2488.45
724.414	2537.6
724.6	2545.8
724.787	2531.46
724.974	2592.9
725.161	2556.04
725.347	2447.49
725.534	2427.01
725.72	2508.93
725.907	2472.07
726.094	2467.97
726.28	2416.77
726.467	2431.11
726.653	2431.11
726.84	2566.28
727.027	2525.32
727.213	2441.35
727.4	2508.93
727.586	2504.84
727.773	2508.93
727.959	2371.72
728.145	2541.7
728.332	2402.44
728.518	2386.05
728.705	2488.45
728.891	2406.53
729.077	2302.09
729.264	2506.88
729.45	2431.11
729.636	2371.72
729.823	2341
730.009	2510.98
730.195	2459.78
730.382	2586.76
730.568	2457.73
730.754	2424.97
730.94	2541.7
731.126	2422.92
731.313	2420.87
731.499	2398.34
731.685	2472.07
731.871	2336.9
732.057	2449.54
732.243	2308.23
732.429	2476.16
732.615	2447.49
732.801	2414.73
732.987	2488.45
733.173	2404.49
733.359	2437.25
733.545	2396.29
733.731	2304.14
733.917	2447.49
734.103	2408.58
734.289	2465.93
734.475	2318.47
734.661	2416.77
734.847	2414.73
735.033	2297.99
735.219	2404.49
735.404	2445.45
735.59	2351.24
735.776	2377.86
735.962	2308.23
736.148	2388.1
736.333	2263.18
736.519	2338.95
736.705	2283.66
736.89	2281.61
737.076	2248.84
737.262	2211.98
737.447	2271.37
737.633	2302.09
737.819	2232.46
738.004	2302.09
738.19	2332.81
738.375	2246.79
738.561	2275.46
738.747	2246.79
738.932	2283.66
739.118	2359.43
739.303	2261.13
739.489	2289.8
739.674	2250.89
739.859	2193.55
740.045	2275.46
740.23	2076.81
740.416	2181.26
740.601	2275.46
740.786	2259.08
740.972	2230.41
741.157	2181.26
741.342	2156.68
741.528	2132.11
741.713	2103.43
741.898	2033.8
742.084	2144.39
742.269	2177.16
742.454	2171.02
742.639	2152.59
742.824	1947.79
743.01	2062.48
743.195	2003.08
743.38	2013.32
743.565	2138.25
743.75	2113.67
743.935	2078.86
744.12	2058.38
744.305	2037.9
744.49	2011.28
744.675	2099.34
744.86	1984.65
745.045	2123.91
745.23	1962.12
745.415	1915.02
745.6	1984.65
745.785	1955.98
745.97	1841.29
746.155	1964.17
746.34	1970.32
746.525	1972.36
746.71	1996.94
746.895	1853.58
747.079	1896.59
747.264	1886.35
747.449	1931.41
747.634	1996.94
747.819	1964.17
748.003	1839.25
748.188	1947.79
748.373	1869.97
748.557	1847.44
748.742	1882.25
748.927	1865.87
749.111	1841.29
749.296	1773.71
749.481	1822.86
749.665	1820.81
749.85	1822.86
750.034	1740.94
750.219	1558.67
750.404	1745.04
750.588	1568.91
750.773	1638.55
750.957	1624.21
751.141	1585.3
751.326	1644.69
751.51	1642.64
751.695	1581.2
751.879	1544.34
752.064	1624.21
752.248	1593.49
752.432	1570.96
752.617	1556.63
752.801	1546.39
752.985	1575.06
753.17	1579.15
753.354	1546.39
753.538	1568.91
753.722	1521.81
753.907	1472.66
754.091	1542.29
754.275	1439.89
754.459	1489.04
754.643	1460.37
754.828	1398.93
755.012	1415.32
755.196	1407.13
755.38	1437.84
755.564	1407.13
755.748	1378.45
755.932	1458.32
756.116	1374.36
756.3	1443.99
756.484	1427.6
756.668	1355.93
756.852	1349.78
757.036	1292.44
757.22	1290.39
757.404	1306.77
757.588	1306.77
757.772	1267.86
757.956	1269.91
758.14	1374.36
758.323	1228.95
758.507	1317.01
758.691	1253.53
758.875	1284.25
759.059	1292.44
759.242	1194.14
759.426	1274.01
759.61	1167.51
759.794	1208.47
759.977	1196.18
760.161	1196.18
760.345	1134.75
760.528	1243.29
760.712	1183.9
760.895	1124.51
761.079	1179.8
761.263	1185.94
761.446	1120.41
761.63	1216.66
761.813	1095.83
761.997	1108.12
762.18	1128.6
762.364	1231
762.547	1097.88
762.731	1226.9
762.914	1116.31
763.098	1163.42
763.281	1122.46
763.464	1009.82
763.648	1126.55
763.831	1069.21
764.015	1083.55
764.198	1077.4
764.381	1085.59
764.564	1108.12
764.748	989.34
764.931	1005.72
765.114	1032.35
765.297	1050.78
765.481	1020.06
765.664	907.42
765.847	1013.92
766.03	1001.63
766.213	1024.16
766.397	987.29
766.58	1020.06
766.763	975
766.946	1095.83
767.129	981.15
767.312	1050.78
767.495	964.76
767.678	1026.2
767.861	1038.49
768.044	981.15
768.227	1011.87
768.41	952.48
768.593	1020.06
768.776	952.48
768.959	950.43
769.142	932
769.324	942.24
769.507	948.38
769.69	882.85
769.873	977.05
770.056	929.95
770.239	962.72
770.421	932
770.604	917.66
770.787	919.71
770.97	833.69
771.152	970.91
771.335	800.93
771.518	805.02
771.7	936.09
771.883	960.67
772.066	864.41
772.248	841.89
772.431	915.61
772.613	882.85
772.796	837.79
772.978	907.42
773.161	905.37
773.343	882.85
773.526	841.89
773.708	825.5
773.891	821.41
774.073	815.26
774.256	776.35
774.438	829.6
774.621	813.21
774.803	805.02
774.985	815.26
775.168	821.41
775.35	741.54
775.532	813.21
775.715	825.5
775.897	790.69
776.079	714.91
776.261	813.21
776.444	747.68
776.626	845.98
776.808	725.15
776.99	702.62
777.173	706.72
777.355	747.68
777.537	735.39
777.719	700.58
777.901	809.12
778.083	635.04
778.265	731.3
778.447	680.1
778.629	657.57
778.811	725.15
778.993	714.91
779.175	632.99
779.357	651.42
779.539	702.62
779.721	647.33
779.903	690.34
780.085	680.1
780.267	630.95
780.449	608.42
780.631	682.14
780.812	673.95
780.994	645.28
781.176	669.86
781.358	551.07
781.54	559.27
781.721	622.75
781.903	604.32
782.085	518.31
782.267	528.55
782.448	587.94
782.63	573.6
782.812	557.22
782.993	526.5
783.175	587.94
783.357	557.22
783.538	600.23
783.72	530.59
783.901	614.56
784.083	618.66
784.264	569.51
784.446	557.22
784.627	551.07
784.809	585.89
784.99	538.79
785.172	530.59
785.353	555.17
785.535	503.97
785.716	510.11
785.897	452.77
786.079	501.92
786.26	534.69
786.441	538.79
786.623	506.02
786.804	417.96
786.985	497.83
787.167	452.77
787.348	387.24
787.529	422.05
787.71	428.2
787.891	475.3
788.073	415.91
788.254	428.2
788.435	438.44
788.616	383.14
788.797	499.88
788.978	483.49
789.159	460.96
789.34	399.52
789.522	415.91
789.703	497.83
789.884	428.2
790.065	407.72
790.246	424.1
790.427	315.56
790.607	385.19
790.788	397.48
790.969	333.99
791.15	342.18
791.331	356.52
791.512	420
791.693	403.62
791.874	331.94
792.054	458.92
792.235	370.85
792.416	352.42
792.597	420
792.778	379.04
792.958	403.62
793.139	293.03
793.32	411.81
793.5	323.75
793.681	381.09
793.862	319.65
794.042	342.18
794.223	301.22
794.404	364.71
794.584	325.8
794.765	305.32
794.945	370.85
795.126	331.94
795.306	288.93
795.487	366.76
795.667	313.51
795.848	383.14
796.028	301.22
796.209	325.8
796.389	319.65
796.57	293.03
796.75	315.56
796.93	329.89
797.111	286.89
797.291	288.93
797.471	313.51
797.652	309.41
797.832	272.55
798.012	282.79
798.192	315.56
798.373	258.21
798.553	274.6
798.733	329.89
798.913	280.74
799.093	284.84
799.274	260.26
799.454	374.95
799.634	270.5
799.814	284.84
799.994	344.23
800.174	258.21
800.354	323.75
800.534	178.34
800.714	284.84
800.894	182.44
801.074	309.41
801.254	266.41
801.434	327.85
801.614	325.8
801.794	182.44
801.974	630.95
802.154	209.06
802.334	315.56
802.514	250.02
802.693	252.07
802.873	252.07
803.053	309.41
803.233	317.61
803.413	329.89
803.592	219.3
803.772	229.54
803.952	264.36
804.131	286.89
804.311	215.21
804.491	235.69
804.67	207.02
804.85	202.92
805.03	284.84
805.209	198.82
805.389	200.87
805.568	157.86
805.748	221.35
805.928	192.68
806.107	200.87
806.287	235.69
806.466	192.68
806.646	268.45
806.825	192.68
807.004	241.83
807.184	176.3
807.363	260.26
807.543	209.06
807.722	243.88
807.901	217.26
808.081	252.07
808.26	207.02
808.439	243.88
808.619	196.78
808.798	204.97
808.977	194.73
809.156	198.82
809.336	137.38
809.515	168.1
809.694	209.06
809.873	243.88
810.052	198.82
810.231	241.83
810.411	186.54
810.59	229.54
810.769	225.45
810.948	241.83
811.127	180.39
811.306	190.63
811.485	207.02
811.664	227.5
811.843	178.34
812.022	164.01
812.201	137.38
812.38	182.44
812.559	170.15
812.737	174.25
812.916	141.48
813.095	157.86
813.274	221.35
813.453	200.87
813.632	141.48
813.811	198.82
813.989	118.95
814.168	219.3
814.347	135.34
814.526	159.91
814.704	184.49
814.883	194.73
815.062	94.38
815.24	180.39
815.419	164.01
815.598	164.01
815.776	182.44
815.955	221.35
816.133	145.58
816.312	192.68
816.49	77.99
816.669	166.06
816.847	110.76
817.026	141.48
817.204	118.95
817.383	198.82
817.561	227.5
817.74	147.62
817.918	161.96
818.097	178.34
818.275	145.58
818.453	127.14
818.632	137.38
818.81	211.11
818.988	80.04
819.167	198.82
819.345	174.25
819.523	180.39
819.701	139.43
819.879	121
820.058	129.19
820.236	116.9
820.414	157.86
820.592	125.1
820.77	186.54
820.948	174.25
821.127	110.76
821.305	166.06
821.483	100.52
821.661	131.24
821.839	176.3
822.017	172.2
822.195	75.95
822.373	184.49
822.551	129.19
822.729	170.15
822.907	112.81
823.085	121
823.262	127.14
823.44	170.15
823.618	94.38
823.796	121
823.974	182.44
824.152	102.57
824.329	172.2
824.507	106.67
824.685	168.1
824.863	131.24
825.04	71.85
825.218	157.86
825.396	84.14
825.574	104.62
825.751	108.71
825.929	143.53
826.107	18.6
826.284	129.19
826.462	190.63
826.639	63.66
826.817	135.34
826.994	141.48
827.172	104.62
827.349	104.62
827.527	112.81
827.704	125.1
827.882	114.86
828.059	145.58
828.237	96.43
828.414	69.8
828.591	61.61
828.769	114.86
828.946	102.57
829.124	125.1
829.301	121
829.478	86.19
829.655	110.76
829.833	55.47
830.01	118.95
830.187	45.23
830.364	127.14
830.542	45.23
830.719	231.59
830.896	116.9
831.073	131.24
831.25	143.53
831.427	49.32
831.604	53.42
831.782	121
831.959	108.71
832.136	71.85
832.313	114.86
832.49	141.48
832.667	121
832.844	-1.88
833.021	121
833.198	155.82
833.374	116.9
833.551	32.94
833.728	80.04
833.905	18.6
834.082	88.23
834.259	67.75
834.436	55.47
834.612	55.47
834.789	65.71
834.966	121
835.143	159.91
835.319	69.8
835.496	137.38
835.673	112.81
835.85	108.71
836.026	18.6
836.203	141.48
836.38	12.46
836.556	92.33
836.733	20.65
836.909	69.8
837.086	69.8
837.262	55.47
837.439	49.32
837.616	114.86
837.792	51.37
837.968	65.71
838.145	41.13
838.321	151.72
838.498	116.9
838.674	125.1
838.851	125.1
839.027	41.13
839.203	84.14
839.38	157.86
839.556	24.75
839.732	84.14
839.909	114.86
840.085	161.96
840.261	84.14
840.437	57.51
840.614	30.89
840.79	135.34
840.966	118.95
841.142	110.76
841.318	100.52
841.494	94.38
841.671	43.18
841.847	55.47
842.023	63.66
842.199	147.62
842.375	151.72
842.551	110.76
842.727	110.76
842.903	37.03
843.079	96.43
843.255	100.52
843.431	57.51
843.607	174.25
843.783	-28.5
843.959	12.46
844.134	112.81
844.31	86.19
844.486	41.13
844.662	75.95
844.838	-51.03
845.013	88.23
845.189	77.99
845.365	20.65
845.541	-1.88
845.716	129.19
845.892	116.9
846.068	59.56
846.244	-1.88
846.419	57.51
846.595	-3.93
846.77	22.7
846.946	67.75
847.122	59.56
847.297	121
847.473	28.84
847.648	43.18
847.824	45.23
847.999	-1.88
848.175	59.56
848.35	69.8
848.526	22.7
848.701	63.66
848.876	143.53
849.052	26.79
849.227	45.23
849.403	-12.12
849.578	63.66
849.753	51.37
849.929	73.9
850.104	77.99
850.279	47.27
850.454	61.61
850.63	133.29
850.805	102.57
850.98	59.56
851.155	47.27
851.33	92.33
851.505	-20.31
851.681	86.19
851.856	34.99
852.031	104.62
852.206	-42.84
852.381	55.47
852.556	2.22
852.731	49.32
852.906	57.51
853.081	114.86
853.256	75.95
853.431	37.03
853.606	26.79
853.781	41.13
853.956	28.84
854.131	88.23
854.305	6.31
854.48	24.75
854.655	-77.65
854.83	-32.6
855.005	4.27
855.18	133.29
855.354	26.79
855.529	80.04
855.704	24.75
855.879	51.37
856.053	114.86
856.228	26.79
856.403	-3.93
856.577	94.38
856.752	41.13
856.926	37.03
857.101	51.37
857.276	43.18
857.45	77.99
857.625	55.47
857.799	69.8
857.974	-16.21
858.148	77.99
858.323	108.71
858.497	-14.17
858.672	100.52
858.846	12.46
859.02	51.37
859.195	24.75
859.369	37.03
859.543	0.17
859.718	34.99
859.892	121
860.066	102.57
860.241	10.41
860.415	45.23
860.589	41.13
860.763	104.62
860.938	88.23
861.112	57.51
861.286	53.42
861.46	43.18
861.634	37.03
861.808	112.81
861.982	45.23
862.157	90.28
862.331	67.75
862.505	59.56
862.679	-69.46
862.853	28.84
863.027	43.18
863.201	133.29
863.375	22.7
863.549	47.27
863.722	47.27
863.896	116.9
864.07	18.6
864.244	57.51
864.418	28.84
864.592	61.61
864.766	65.71
864.939	39.08
865.113	-32.6
865.287	61.61
865.461	32.94
865.634	14.51
865.808	-1.88
865.982	18.6
866.156	8.36
866.329	-12.12
866.503	28.84
866.676	39.08
866.85	28.84
867.024	73.9
867.197	41.13
867.371	22.7
867.544	39.08
867.718	18.6
867.891	6.31
868.065	-10.07
868.238	106.67
868.412	92.33
868.585	14.51
868.759	8.36
868.932	32.94
869.105	77.99
869.279	104.62
869.452	47.27
869.625	-30.55
869.799	22.7
869.972	47.27
870.145	39.08
870.319	18.6
870.492	6.31
870.665	-10.07
870.838	-32.6
871.011	-34.64
871.185	14.51
871.358	39.08
871.531	22.7
871.704	37.03
871.877	8.36
872.05	-61.27
872.223	20.65
872.396	-3.93
872.569	28.84
872.742	-55.12
872.915	34.99
873.088	47.27
873.261	10.41
873.434	0.17
873.607	41.13
873.78	14.51
873.953	47.27
874.126	45.23
874.299	86.19
874.471	53.42
874.644	-12.12
874.817	2.22
874.99	77.99
875.163	51.37
875.335	14.51
875.508	67.75
875.681	39.08
875.853	112.81
876.026	49.32
876.199	4.27
876.371	47.27
876.544	34.99
876.717	92.33
876.889	55.47
877.062	65.71
877.234	55.47
877.407	-20.31
877.579	4.27
877.752	118.95
877.924	20.65
878.097	10.41
878.269	75.95
878.442	6.31
878.614	69.8
878.786	18.6
878.959	18.6
879.131	75.95
879.303	51.37
879.476	20.65
879.648	92.33
879.82	24.75
879.993	-55.12
880.165	-14.17
880.337	30.89
880.509	34.99
880.681	0.17
880.854	55.47
881.026	110.76
881.198	98.47
881.37	10.41
881.542	4.27
881.714	32.94
881.886	-12.12
882.058	22.7
882.23	32.94
882.402	8.36
882.574	8.36
882.746	73.9
882.918	30.89
883.09	47.27
883.262	26.79
883.434	24.75
883.606	84.14
883.778	22.7
883.95	14.51
884.122	45.23
884.293	106.67
884.465	-114.52
884.637	28.84
884.809	-30.55
884.98	4.27
885.152	59.56
885.324	39.08
885.496	-3.93
885.667	-8.02
885.839	39.08
886.011	110.76
886.182	41.13
886.354	16.55
886.525	82.09
886.697	12.46
886.869	61.61
887.04	-14.17
887.212	71.85
887.383	-5.97
887.555	37.03
887.726	-3.93
887.897	53.42
888.069	59.56
888.24	43.18
888.412	-36.69
888.583	-10.07
888.754	-8.02
888.926	18.6
889.097	57.51
889.268	51.37
889.44	34.99
889.611	-28.5
889.782	55.47
889.953	-34.64
890.125	24.75
890.296	2.22
890.467	34.99
890.638	-8.02
890.809	32.94
890.98	34.99
891.151	47.27
891.323	22.7
891.494	84.14
891.665	-10.07
891.836	32.94
892.007	90.28
892.178	16.55
892.349	88.23
892.52	26.79
892.691	-14.17
892.862	-36.69
893.032	-1.88
893.203	39.08
893.374	-26.45
893.545	102.57
893.716	-40.79
893.887	32.94
894.057	-3.93
894.228	32.94
894.399	-32.6
894.57	47.27
894.74	-40.79
894.911	65.71
895.082	-46.93
895.253	-22.36
895.423	-1.88
895.594	32.94
895.764	-14.17
895.935	-10.07
896.106	4.27
896.276	12.46
896.447	-59.22
896.617	45.23
896.788	28.84
896.958	-48.98
897.129	18.6
897.299	-8.02
897.47	69.8
897.64	63.66
897.81	28.84
897.981	-16.21
898.151	71.85
898.322	-5.97
898.492	-20.31
898.662	6.31
898.832	61.61
899.003	30.89
899.173	82.09
899.343	-48.98
899.513	-14.17
