Data from USB4F104151__46__11-37-02-343.txt Node

Date: Fri Mar 14 11:37:02 EDT 2025
User: louis
Spectrometer: USB4F10415
Trigger mode: 4
Integration Time (sec): 2.000000E-2
Scans to average: 1
Electric dark correction enabled: true
Nonlinearity correction enabled: false
Boxcar width: 0
XAxis mode: Wavelengths
Number of Pixels in Spectrum: 3648
>>>>>Begin Spectral Data<<<<<
178.204	-103.59
178.424	-103.59
178.644	-103.59
178.864	-54.44
179.084	-85.16
179.304	-3.24
179.524	-7.34
179.744	7
179.964	27.48
180.184	-7.34
180.404	-7.34
180.624	17.24
180.844	-15.53
181.064	-42.15
181.283	90.96
181.503	-33.96
181.723	-25.77
181.943	-97.45
182.163	29.52
182.383	23.38
182.602	0.85
182.822	74.58
183.042	-21.67
183.262	31.57
183.482	60.24
183.701	-5.29
183.921	19.29
184.141	19.29
184.361	-17.58
184.58	9.05
184.8	33.62
185.02	35.67
185.239	76.63
185.459	19.29
185.679	27.48
185.898	27.48
186.118	60.24
186.338	19.29
186.557	97.11
186.777	37.72
186.997	-5.29
187.216	62.29
187.436	-17.58
187.655	74.58
187.875	84.82
188.095	41.81
188.314	50
188.534	37.72
188.753	27.48
188.973	-21.67
189.192	23.38
189.412	-56.49
189.631	-3.24
189.851	15.19
190.07	60.24
190.29	-29.87
190.509	-27.82
190.729	25.43
190.948	72.53
191.168	17.24
191.387	19.29
191.607	-19.63
191.826	68.44
192.045	43.86
192.265	21.33
192.484	-17.58
192.704	41.81
192.923	-29.87
193.142	19.29
193.362	0.85
193.581	62.29
193.8	27.48
194.02	84.82
194.239	15.19
194.458	60.24
194.678	-27.82
194.897	2.9
195.116	-29.87
195.335	-7.34
195.555	2.9
195.774	39.76
195.993	-40.11
196.212	82.77
196.432	82.77
196.651	-3.24
196.87	25.43
197.089	31.57
197.308	31.57
197.528	97.11
197.747	-25.77
197.966	74.58
198.185	60.24
198.404	-5.29
198.623	15.19
198.842	50
199.062	-21.67
199.281	23.38
199.5	-5.29
199.719	-15.53
199.938	90.96
200.157	123.73
200.376	-5.29
200.595	19.29
200.814	27.48
201.033	-11.43
201.252	47.96
201.471	-27.82
201.69	-15.53
201.909	35.67
202.128	31.57
202.347	37.72
202.566	11.09
202.785	19.29
203.004	-15.53
203.223	15.19
203.442	-1.19
203.661	60.24
203.879	47.96
204.098	72.53
204.317	-9.39
204.536	13.14
204.755	19.29
204.974	11.09
205.193	-1.19
205.411	97.11
205.63	43.86
205.849	41.81
206.068	31.57
206.287	43.86
206.505	17.24
206.724	33.62
206.943	7
207.162	35.67
207.381	31.57
207.599	2.9
207.818	27.48
208.037	-33.96
208.255	43.86
208.474	23.38
208.693	27.48
208.911	-11.43
209.13	101.2
209.349	107.35
209.567	-1.19
209.786	88.92
210.005	-95.4
210.223	27.48
210.442	41.81
210.661	-25.77
210.879	4.95
211.098	-13.48
211.316	86.87
211.535	-15.53
211.753	50
211.972	25.43
212.191	4.95
212.409	7
212.628	-5.29
212.846	-31.91
213.065	52.05
213.283	11.09
213.502	0.85
213.72	11.09
213.938	0.85
214.157	-7.34
214.375	9.05
214.594	-81.07
214.812	56.15
215.031	80.72
215.249	27.48
215.467	-11.43
215.686	-5.29
215.904	76.63
216.122	-13.48
216.341	93.01
216.559	-17.58
216.778	84.82
216.996	15.19
217.214	37.72
217.432	23.38
217.651	-15.53
217.869	52.05
218.087	45.91
218.306	-25.77
218.524	37.72
218.742	-17.58
218.96	33.62
219.179	-29.87
219.397	41.81
219.615	60.24
219.833	17.24
220.051	86.87
220.27	64.34
220.488	33.62
220.706	-9.39
220.924	27.48
221.142	78.68
221.36	66.39
221.578	21.33
221.796	88.92
222.015	39.76
222.233	52.05
222.451	11.09
222.669	17.24
222.887	105.3
223.105	35.67
223.323	35.67
223.541	23.38
223.759	-9.39
223.977	15.19
224.195	23.38
224.413	17.24
224.631	37.72
224.849	25.43
225.067	25.43
225.285	-23.72
225.503	19.29
225.721	-40.11
225.939	0.85
226.157	-46.25
226.375	43.86
226.592	-36.01
226.81	27.48
227.028	54.1
227.246	52.05
227.464	11.09
227.682	74.58
227.9	19.29
228.117	-38.06
228.335	33.62
228.553	13.14
228.771	-42.15
228.989	2.9
229.206	62.29
229.424	-52.39
229.642	41.81
229.86	56.15
230.077	66.39
230.295	31.57
230.513	37.72
230.731	84.82
230.948	33.62
231.166	27.48
231.384	9.05
231.601	41.81
231.819	31.57
232.037	133.97
232.254	33.62
232.472	43.86
232.689	-42.15
232.907	25.43
233.125	31.57
233.342	25.43
233.56	-3.24
233.777	-46.25
233.995	2.9
234.213	105.3
234.43	-1.19
234.648	0.85
234.865	109.4
235.083	78.68
235.3	21.33
235.518	23.38
235.735	47.96
235.953	0.85
236.17	31.57
236.388	-7.34
236.605	58.2
236.822	35.67
237.04	19.29
237.257	-46.25
237.475	78.68
237.692	4.95
237.909	19.29
238.127	-11.43
238.344	27.48
238.562	17.24
238.779	-23.72
238.996	17.24
239.214	9.05
239.431	13.14
239.648	0.85
239.865	19.29
240.083	54.1
240.3	-54.44
240.517	50
240.735	-9.39
240.952	35.67
241.169	47.96
241.386	84.82
241.603	-46.25
241.821	-48.3
242.038	25.43
242.255	-13.48
242.472	-38.06
242.689	-11.43
242.907	-7.34
243.124	-31.91
243.341	-13.48
243.558	-29.87
243.775	-5.29
243.992	25.43
244.209	4.95
244.426	43.86
244.643	-7.34
244.86	97.11
245.078	37.72
245.295	15.19
245.512	41.81
245.729	19.29
245.946	33.62
246.163	-15.53
246.38	45.91
246.597	82.77
246.814	-52.39
247.031	74.58
247.248	19.29
247.464	-19.63
247.681	43.86
247.898	64.34
248.115	15.19
248.332	-13.48
248.549	39.76
248.766	27.48
248.983	35.67
249.2	4.95
249.417	0.85
249.633	-23.72
249.85	105.3
250.067	45.91
250.284	43.86
250.501	39.76
250.717	9.05
250.934	7
251.151	-11.43
251.368	27.48
251.585	43.86
251.801	-17.58
252.018	0.85
252.235	50
252.451	-44.2
252.668	-5.29
252.885	17.24
253.102	74.58
253.318	138.07
253.535	-62.63
253.752	15.19
253.968	19.29
254.185	56.15
254.401	74.58
254.618	84.82
254.835	21.33
255.051	15.19
255.268	27.48
255.484	23.38
255.701	-23.72
255.917	13.14
256.134	101.2
256.351	31.57
256.567	43.86
256.784	9.05
257	-58.54
257.217	27.48
257.433	39.76
257.65	29.52
257.866	-29.87
258.082	-29.87
258.299	37.72
258.515	31.57
258.732	17.24
258.948	17.24
259.165	64.34
259.381	80.72
259.597	-11.43
259.814	35.67
260.03	68.44
260.246	-19.63
260.463	27.48
260.679	-21.67
260.895	35.67
261.112	-38.06
261.328	25.43
261.544	23.38
261.761	33.62
261.977	21.33
262.193	2.9
262.409	31.57
262.626	9.05
262.842	82.77
263.058	-79.02
263.274	93.01
263.49	19.29
263.707	17.24
263.923	33.62
264.139	-50.35
264.355	2.9
264.571	-42.15
264.787	2.9
265.004	39.76
265.22	47.96
265.436	95.06
265.652	50
265.868	39.76
266.084	13.14
266.3	-11.43
266.516	80.72
266.732	54.1
266.948	58.2
267.164	39.76
267.38	2.9
267.596	60.24
267.812	21.33
268.028	-13.48
268.244	66.39
268.46	35.67
268.676	31.57
268.892	27.48
269.108	-7.34
269.324	-13.48
269.54	23.38
269.756	43.86
269.972	-29.87
270.188	64.34
270.403	37.72
270.619	41.81
270.835	-52.39
271.051	15.19
271.267	-11.43
271.483	72.53
271.698	72.53
271.914	23.38
272.13	9.05
272.346	-40.11
272.562	-9.39
272.777	72.53
272.993	52.05
273.209	37.72
273.425	70.48
273.64	-15.53
273.856	-5.29
274.072	37.72
274.287	-27.82
274.503	17.24
274.719	-40.11
274.934	-9.39
275.15	19.29
275.366	39.76
275.581	9.05
275.797	17.24
276.012	-11.43
276.228	-21.67
276.444	-31.91
276.659	80.72
276.875	7
277.09	64.34
277.306	37.72
277.521	35.67
277.737	-5.29
277.952	2.9
278.168	-50.35
278.383	33.62
278.599	52.05
278.814	11.09
279.03	50
279.245	17.24
279.461	-3.24
279.676	-5.29
279.892	17.24
280.107	-64.68
280.322	-23.72
280.538	23.38
280.753	-11.43
280.969	37.72
281.184	107.35
281.399	47.96
281.615	52.05
281.83	17.24
282.045	-27.82
282.26	-29.87
282.476	72.53
282.691	119.64
282.906	29.52
283.122	-29.87
283.337	66.39
283.552	47.96
283.767	15.19
283.983	-1.19
284.198	31.57
284.413	-9.39
284.628	15.19
284.843	58.2
285.058	37.72
285.274	88.92
285.489	-36.01
285.704	50
285.919	9.05
286.134	2.9
286.349	41.81
286.564	31.57
286.779	35.67
286.995	17.24
287.21	-25.77
287.425	33.62
287.64	47.96
287.855	58.2
288.07	-38.06
288.285	37.72
288.5	70.48
288.715	-1.19
288.93	62.29
289.145	27.48
289.36	-1.19
289.575	-1.19
289.79	97.11
290.004	19.29
290.219	23.38
290.434	25.43
290.649	15.19
290.864	-29.87
291.079	-42.15
291.294	13.14
291.509	19.29
291.724	11.09
291.938	56.15
292.153	-21.67
292.368	56.15
292.583	52.05
292.798	19.29
293.012	25.43
293.227	-66.73
293.442	27.48
293.657	35.67
293.871	95.06
294.086	80.72
294.301	74.58
294.516	35.67
294.73	19.29
294.945	17.24
295.16	33.62
295.374	52.05
295.589	-33.96
295.804	52.05
296.018	60.24
296.233	60.24
296.447	2.9
296.662	-27.82
296.877	-68.78
297.091	56.15
297.306	-36.01
297.52	23.38
297.735	4.95
297.949	52.05
298.164	35.67
298.378	25.43
298.593	-23.72
298.807	-1.19
299.022	-9.39
299.236	31.57
299.451	33.62
299.665	-29.87
299.88	31.57
300.094	-21.67
300.309	-33.96
300.523	37.72
300.737	-58.54
300.952	45.91
301.166	84.82
301.381	-21.67
301.595	-15.53
301.809	68.44
302.024	-23.72
302.238	41.81
302.452	76.63
302.667	27.48
302.881	105.3
303.095	66.39
303.309	82.77
303.524	39.76
303.738	11.09
303.952	29.52
304.166	21.33
304.381	50
304.595	23.38
304.809	-46.25
305.023	13.14
305.237	9.05
305.452	70.48
305.666	52.05
305.88	121.68
306.094	25.43
306.308	47.96
306.522	-15.53
306.736	23.38
306.95	-27.82
307.164	56.15
307.379	-15.53
307.593	66.39
307.807	68.44
308.021	27.48
308.235	103.25
308.449	35.67
308.663	62.29
308.877	86.87
309.091	-11.43
309.305	101.2
309.519	-56.49
309.733	56.15
309.947	11.09
310.161	115.54
310.374	27.48
310.588	-21.67
310.802	27.48
311.016	41.81
311.23	29.52
311.444	35.67
311.658	35.67
311.872	-42.15
312.085	76.63
312.299	4.95
312.513	39.76
312.727	35.67
312.941	25.43
313.154	129.88
313.368	66.39
313.582	-29.87
313.796	-7.34
314.009	-5.29
314.223	27.48
314.437	17.24
314.651	-19.63
314.864	-3.24
315.078	-15.53
315.292	43.86
315.505	19.29
315.719	95.06
315.933	7
316.146	-9.39
316.36	43.86
316.573	29.52
316.787	45.91
317.001	7
317.214	-17.58
317.428	76.63
317.641	-7.34
317.855	45.91
318.068	56.15
318.282	-1.19
318.495	21.33
318.709	25.43
318.922	-5.29
319.136	21.33
319.349	29.52
319.563	72.53
319.776	52.05
319.99	17.24
320.203	56.15
320.417	2.9
320.63	84.82
320.843	68.44
321.057	72.53
321.27	62.29
321.483	25.43
321.697	19.29
321.91	35.67
322.124	15.19
322.337	80.72
322.55	-23.72
322.763	37.72
322.977	33.62
323.19	74.58
323.403	27.48
323.617	82.77
323.83	93.01
324.043	33.62
324.256	-40.11
324.469	-9.39
324.683	17.24
324.896	-76.97
325.109	45.91
325.322	-3.24
325.535	29.52
325.748	27.48
325.962	-25.77
326.175	-31.91
326.388	43.86
326.601	58.2
326.814	19.29
327.027	45.91
327.24	11.09
327.453	-27.82
327.666	15.19
327.879	-9.39
328.092	29.52
328.305	-7.34
328.518	-21.67
328.731	27.48
328.944	7
329.157	15.19
329.37	-1.19
329.583	-17.58
329.796	82.77
330.009	43.86
330.222	7
330.435	66.39
330.648	80.72
330.861	97.11
331.073	64.34
331.286	9.05
331.499	31.57
331.712	19.29
331.925	60.24
332.138	7
332.35	29.52
332.563	-13.48
332.776	111.44
332.989	9.05
333.202	-5.29
333.414	2.9
333.627	31.57
333.84	115.54
334.053	64.34
334.265	56.15
334.478	58.2
334.691	70.48
334.903	43.86
335.116	-3.24
335.329	21.33
335.541	17.24
335.754	29.52
335.966	-48.3
336.179	95.06
336.392	-13.48
336.604	140.12
336.817	111.44
337.029	47.96
337.242	-9.39
337.454	39.76
337.667	-52.39
337.88	7
338.092	78.68
338.305	35.67
338.517	68.44
338.729	93.01
338.942	-15.53
339.154	0.85
339.367	39.76
339.579	70.48
339.792	43.86
340.004	-11.43
340.217	88.92
340.429	25.43
340.641	82.77
340.854	-3.24
341.066	17.24
341.278	60.24
341.491	11.09
341.703	82.77
341.915	-1.19
342.128	-40.11
342.34	7
342.552	-3.24
342.764	19.29
342.977	-33.96
343.189	41.81
343.401	-29.87
343.613	33.62
343.826	43.86
344.038	93.01
344.25	56.15
344.462	-31.91
344.674	88.92
344.886	50
345.099	187.22
345.311	-48.3
345.523	13.14
345.735	-29.87
345.947	82.77
346.159	-54.44
346.371	-21.67
346.583	0.85
346.795	64.34
347.007	58.2
347.219	-3.24
347.431	-21.67
347.643	-27.82
347.855	-48.3
348.067	23.38
348.279	11.09
348.491	45.91
348.703	50
348.915	-48.3
349.127	35.67
349.339	-38.06
349.551	13.14
349.763	13.14
349.975	23.38
350.187	31.57
350.399	15.19
350.61	27.48
350.822	13.14
351.034	11.09
351.246	43.86
351.458	52.05
351.669	17.24
351.881	66.39
352.093	103.25
352.305	107.35
352.517	31.57
352.728	72.53
352.94	13.14
353.152	80.72
353.363	31.57
353.575	52.05
353.787	101.2
353.999	47.96
354.21	50
354.422	-5.29
354.633	4.95
354.845	76.63
355.057	93.01
355.268	60.24
355.48	37.72
355.692	86.87
355.903	80.72
356.115	7
356.326	-7.34
356.538	95.06
356.749	-15.53
356.961	78.68
357.172	60.24
357.384	68.44
357.595	84.82
357.807	86.87
358.018	41.81
358.23	47.96
358.441	9.05
358.653	19.29
358.864	-31.91
359.075	50
359.287	68.44
359.498	-17.58
359.709	66.39
359.921	13.14
360.132	39.76
360.344	37.72
360.555	43.86
360.766	47.96
360.977	-56.49
361.189	29.52
361.4	2.9
361.611	31.57
361.823	68.44
362.034	76.63
362.245	41.81
362.456	47.96
362.667	31.57
362.879	17.24
363.09	88.92
363.301	-3.24
363.512	68.44
363.723	-3.24
363.935	35.67
364.146	31.57
364.357	76.63
364.568	39.76
364.779	64.34
364.99	52.05
365.201	41.81
365.412	31.57
365.623	-3.24
365.834	52.05
366.045	90.96
366.256	84.82
366.467	33.62
366.678	68.44
366.889	-13.48
367.1	4.95
367.311	33.62
367.522	25.43
367.733	72.53
367.944	64.34
368.155	11.09
368.366	-5.29
368.577	140.12
368.788	60.24
368.999	35.67
369.209	45.91
369.42	64.34
369.631	4.95
369.842	52.05
370.053	-9.39
370.264	4.95
370.474	43.86
370.685	15.19
370.896	99.16
371.107	68.44
371.317	33.62
371.528	45.91
371.739	52.05
371.95	37.72
372.16	47.96
372.371	11.09
372.582	35.67
372.792	33.62
373.003	-7.34
373.214	35.67
373.424	-38.06
373.635	13.14
373.846	97.11
374.056	15.19
374.267	19.29
374.477	64.34
374.688	33.62
374.898	35.67
375.109	47.96
375.319	41.81
375.53	50
375.74	52.05
375.951	21.33
376.161	33.62
376.372	68.44
376.582	54.1
376.793	25.43
377.003	50
377.214	-33.96
377.424	117.59
377.635	47.96
377.845	-9.39
378.055	72.53
378.266	-5.29
378.476	11.09
378.686	4.95
378.897	4.95
379.107	82.77
379.317	76.63
379.528	84.82
379.738	35.67
379.948	35.67
380.158	19.29
380.369	60.24
380.579	54.1
380.789	27.48
380.999	17.24
381.21	50
381.42	136.02
381.63	-7.34
381.84	66.39
382.05	88.92
382.261	142.16
382.471	7
382.681	31.57
382.891	-1.19
383.101	23.38
383.311	0.85
383.521	82.77
383.731	93.01
383.941	17.24
384.151	35.67
384.361	35.67
384.571	52.05
384.781	-33.96
384.991	37.72
385.201	13.14
385.411	2.9
385.621	9.05
385.831	66.39
386.041	33.62
386.251	47.96
386.461	84.82
386.671	52.05
386.881	27.48
387.091	117.59
387.301	47.96
387.511	-11.43
387.72	66.39
387.93	43.86
388.14	39.76
388.35	74.58
388.56	66.39
388.769	93.01
388.979	2.9
389.189	41.81
389.399	17.24
389.609	82.77
389.818	13.14
390.028	-54.44
390.238	43.86
390.447	45.91
390.657	74.58
390.867	-29.87
391.076	43.86
391.286	41.81
391.496	82.77
391.705	58.2
391.915	43.86
392.125	56.15
392.334	70.48
392.544	125.78
392.753	-17.58
392.963	27.48
393.172	74.58
393.382	68.44
393.591	31.57
393.801	101.2
394.01	47.96
394.22	11.09
394.429	11.09
394.639	21.33
394.848	74.58
395.058	62.29
395.267	97.11
395.477	88.92
395.686	21.33
395.895	60.24
396.105	76.63
396.314	31.57
396.524	15.19
396.733	101.2
396.942	82.77
397.152	68.44
397.361	74.58
397.57	11.09
397.78	125.78
397.989	35.67
398.198	80.72
398.407	138.07
398.617	90.96
398.826	107.35
399.035	90.96
399.244	88.92
399.453	76.63
399.663	93.01
399.872	109.4
400.081	72.53
400.29	84.82
400.499	78.68
400.708	74.58
400.917	101.2
401.127	60.24
401.336	93.01
401.545	74.58
401.754	93.01
401.963	140.12
402.172	23.38
402.381	74.58
402.59	154.45
402.799	41.81
403.008	93.01
403.217	66.39
403.426	105.3
403.635	88.92
403.844	142.16
404.053	121.68
404.262	101.2
404.471	158.55
404.68	76.63
404.888	125.78
405.097	97.11
405.306	158.55
405.515	142.16
405.724	144.21
405.933	76.63
406.142	150.36
406.35	174.93
406.559	105.3
406.768	152.4
406.977	123.73
407.185	97.11
407.394	109.4
407.603	78.68
407.812	170.83
408.02	224.08
408.229	142.16
408.438	168.79
408.646	203.6
408.855	244.56
409.064	289.62
409.272	187.22
409.481	174.93
409.69	172.88
409.898	232.27
410.107	269.14
410.315	222.03
410.524	207.7
410.733	207.7
410.941	207.7
411.15	273.23
411.358	306
411.567	359.25
411.775	238.42
411.984	320.34
412.192	297.81
412.401	363.34
412.609	310.1
412.818	412.5
413.026	332.62
413.234	404.3
413.443	363.34
413.651	367.44
413.86	351.06
414.068	418.64
414.276	441.17
414.485	482.13
414.693	502.61
414.901	605
415.11	537.42
415.318	574.28
415.526	615.24
415.734	650.06
415.943	555.85
416.151	598.86
416.359	670.54
416.567	664.4
416.776	697.16
416.984	750.41
417.192	789.32
417.4	742.22
417.608	744.27
417.817	817.99
418.025	801.61
418.233	930.63
418.441	885.58
418.649	828.23
418.857	1018.69
419.065	1012.55
419.273	928.58
419.481	1047.37
419.689	1157.96
419.897	1096.52
420.105	1196.87
420.313	1178.44
420.521	1219.39
420.729	1276.74
420.937	1229.63
421.145	1272.64
421.353	1332.03
421.561	1430.34
421.769	1465.15
421.977	1534.78
422.185	1428.29
422.393	1569.6
422.601	1764.15
422.809	1733.43
423.017	1721.15
423.224	1899.32
423.432	1958.71
423.64	1907.51
423.848	2034.49
424.056	2022.2
424.263	2153.27
424.471	2126.64
424.679	2210.61
424.887	2282.29
425.094	2472.75
425.302	2474.8
425.51	2450.22
425.718	2450.22
425.925	2620.21
426.133	2603.82
426.341	2837.29
426.548	3015.46
426.756	2970.41
426.964	2876.2
427.171	3109.67
427.379	3347.23
427.586	3207.97
427.794	3418.91
428.001	3631.9
428.209	3746.59
428.417	3738.4
428.624	3951.39
428.832	3973.91
429.039	3818.27
429.247	3935
429.454	4211.48
429.662	4442.9
429.869	4303.64
430.076	4588.3
430.284	4403.99
430.491	4670.22
430.699	5018.38
430.906	4795.15
431.114	5092.1
431.321	5159.69
431.528	5427.97
431.736	5669.63
431.943	5954.3
432.15	5591.81
432.358	5710.59
432.565	5958.39
432.772	6044.41
432.979	6316.79
433.187	6382.32
433.394	6472.43
433.601	6957.8
433.808	7070.44
434.016	7043.82
434.223	7355.11
434.43	7543.52
434.637	7531.23
434.844	8080.09
435.052	8016.6
435.259	7903.96
435.466	8143.58
435.673	8104.67
435.88	8622.8
436.087	9138.89
436.294	8948.43
436.501	8956.62
436.708	9192.14
436.915	9347.78
437.122	9675.46
437.329	9673.41
437.537	9937.6
437.743	10158.78
437.95	10121.91
438.157	10683.06
438.364	11115.18
438.571	10859.18
438.778	10980.01
438.985	11997.85
439.192	11616.93
439.399	11856.54
439.606	11629.22
439.813	12460.7
440.02	13200.01
440.227	12550.81
440.433	12872.34
440.64	13077.13
440.847	13185.68
441.054	13329.03
441.261	14215.8
441.467	14221.95
441.674	14586.49
441.881	15010.42
442.088	14684.79
442.294	14795.38
442.501	15100.53
442.708	15348.33
442.914	16120.42
443.121	16652.89
443.328	16206.43
443.534	17226.32
443.741	16802.39
443.948	16949.84
444.154	17900.1
444.361	17736.26
444.568	18125.38
444.774	18084.42
444.981	18266.69
445.187	18723.38
445.394	19460.65
445.6	19378.73
445.807	21211.67
446.013	20025.89
446.22	20507.16
446.426	21158.42
446.633	21209.62
446.839	22401.54
447.046	21322.26
447.252	22485.5
447.459	22614.52
447.665	22434.3
447.871	23505.39
448.078	24818.14
448.284	23591.41
448.491	24056.29
448.697	24404.45
448.903	25258.45
449.11	25205.2
449.316	25164.25
449.522	25352.66
449.728	26274.24
449.935	26028.49
450.141	26216.9
450.347	26847.68
450.553	25711.05
450.76	26345.92
450.966	27113.91
451.172	26495.43
451.378	27605.42
451.584	27148.73
451.791	27615.66
451.997	27369.91
452.203	27851.18
452.409	28078.5
452.615	27871.66
452.821	26888.64
453.027	26669.5
453.233	27896.24
453.44	26845.63
453.646	27273.65
453.852	27210.17
454.058	27820.46
454.264	26819
454.47	27566.51
454.676	26513.86
454.882	27787.69
455.088	25244.12
455.294	25373.14
455.5	26018.25
455.705	26552.77
455.911	25473.49
456.117	24674.78
456.323	24543.71
456.529	23347.7
456.735	23716.33
456.941	23435.76
457.147	23015.93
457.352	22594.04
457.558	22329.86
457.764	22217.22
457.97	21858.82
458.176	21293.58
458.381	21090.84
458.587	20320.8
458.793	20216.35
458.999	19022.39
459.204	20488.73
459.41	20161.06
459.616	18702.9
459.821	18723.38
460.027	18717.24
460.233	18324.03
460.438	17422.92
460.644	17623.62
460.85	16843.35
461.055	16497.24
461.261	16470.62
461.466	15200.88
461.672	14971.5
461.878	15686.25
462.083	14738.04
462.289	14576.25
462.494	14387.83
462.7	13894.27
462.905	13288.07
463.111	13906.56
463.316	13705.86
463.522	13554.31
463.727	13537.93
463.932	13660.8
464.138	13458.06
464.343	13564.55
464.549	13171.34
464.754	13447.82
464.959	13349.51
465.165	13312.65
465.37	12626.58
465.575	12202.65
465.781	12903.06
465.986	13101.71
466.191	12683.92
466.397	12253.85
466.602	11666.08
466.807	12122.78
467.012	12253.85
467.218	11809.44
467.423	11872.93
467.628	12018.33
467.833	12524.18
468.038	12102.3
468.244	11805.35
468.449	12352.15
468.654	11633.32
468.859	11575.97
469.064	11594.4
469.269	11362.98
469.474	11162.28
469.679	11461.29
469.885	11170.47
470.09	11414.18
470.295	11291.31
470.5	10787.5
470.705	11004.59
470.91	10601.14
471.115	10787.5
471.32	10900.14
471.525	10779.31
471.73	10523.32
471.935	10306.23
472.139	10298.04
472.344	10156.73
472.549	10070.72
472.754	10011.32
472.959	9831.1
473.164	9747.14
473.369	9468.61
473.574	9734.85
473.778	9728.7
473.983	9630.4
474.188	9411.27
474.393	9122.51
474.598	9087.69
474.802	9204.42
475.007	9284.3
475.212	9022.16
475.417	8696.53
475.621	8870.61
475.826	8780.5
476.031	8669.91
476.235	8448.72
476.44	8692.43
476.645	8383.19
476.849	8452.82
477.054	8352.47
477.259	8121.05
477.463	8067.8
477.668	8012.51
477.872	8067.8
478.077	8006.36
478.282	7686.88
478.486	7641.82
478.691	7488.23
478.895	7660.26
479.1	7770.85
479.304	7602.91
479.509	7310.05
479.713	7465.7
479.918	7271.14
480.122	7140.07
480.326	7414.5
480.531	7422.69
480.735	7246.57
480.94	7172.84
481.144	7516.9
481.348	7250.66
481.553	7072.49
481.757	7043.82
481.961	7117.54
482.166	7379.68
482.37	7072.49
482.574	6968.04
482.778	7105.26
482.983	7029.48
483.187	7076.59
483.391	7113.45
483.595	7162.6
483.8	6851.31
484.004	7105.26
484.208	7232.23
484.412	6980.33
484.616	6951.66
484.821	7074.54
485.025	6980.33
485.229	7076.59
485.433	6941.42
485.637	7187.18
485.841	6914.8
486.045	7113.45
486.249	7047.91
486.453	6951.66
486.657	7019.24
486.861	7090.92
487.065	6841.07
487.269	7017.19
487.473	6988.52
487.677	7080.68
487.881	7070.44
488.085	6927.08
488.289	7103.21
488.493	6961.9
488.697	7047.91
488.901	7086.83
489.105	6984.43
489.309	7097.07
489.512	7232.23
489.716	7131.88
489.92	7029.48
490.124	7164.65
490.328	7252.71
490.531	7103.21
490.735	7205.61
490.939	7250.66
491.143	7262.95
491.346	7267.05
491.55	7432.93
491.754	7162.6
491.958	7373.54
492.161	7322.34
492.365	7422.69
492.569	7514.85
492.772	7477.99
492.976	7484.13
493.18	7320.29
493.383	7678.69
493.587	7607.01
493.79	7688.93
493.994	7578.34
494.197	7684.83
494.401	7557.86
494.605	7834.33
494.808	7992.03
495.012	8006.36
495.215	8041.18
495.419	7957.21
495.622	8286.93
495.825	8100.57
496.029	8006.36
496.232	8327.89
496.436	8444.63
496.639	8418
496.843	8495.83
497.046	8717.01
497.249	8714.96
497.453	8725.2
497.656	8649.43
497.859	8903.37
498.063	8772.3
498.266	9130.7
498.469	9016.01
498.673	9169.61
498.876	9194.19
499.079	9312.97
499.282	9298.63
499.485	9560.77
499.689	9634.5
499.892	9802.43
500.095	9841.34
500.298	9972.41
500.501	9947.84
500.705	10201.79
500.908	10267.32
501.111	10269.37
501.314	10461.88
501.517	10533.56
501.72	10789.55
501.923	10775.22
502.126	10990.25
502.329	10973.87
502.532	11315.88
502.735	11209.39
502.938	11483.81
503.141	11514.53
503.344	11704.99
503.547	11561.64
503.75	11993.76
503.953	12040.86
504.156	12051.1
504.359	12147.36
504.562	12268.19
504.765	12470.94
504.968	12470.94
505.17	12796.56
505.373	12888.72
505.576	13007.5
505.779	13001.36
505.982	13230.73
506.185	13548.17
506.387	13513.35
506.59	13316.75
506.793	13961.86
506.996	13681.28
507.198	14103.17
507.401	14140.03
507.604	14678.65
507.807	14805.62
508.009	14609.01
508.212	14817.91
508.415	14914.16
508.617	15336.04
508.82	15211.12
509.022	15116.91
509.225	15589.99
509.428	15514.22
509.63	15751.78
509.833	15651.43
510.035	16157.28
510.238	15966.82
510.44	16319.07
510.643	16568.92
510.845	16616.02
511.048	16730.71
511.25	16859.73
511.453	16831.06
511.655	17558.09
511.858	17244.75
512.06	17640.01
512.262	17586.76
512.465	17683.02
512.667	17928.77
512.87	18180.67
513.072	18252.35
513.274	18584.12
513.477	18739.77
513.679	18530.87
513.881	19098.16
514.084	19182.13
514.286	19178.03
514.488	19186.22
514.69	19757.61
514.893	19972.64
515.095	20052.52
515.297	20085.28
515.499	20300.32
515.701	20234.78
515.904	20556.32
516.106	21051.92
516.308	20963.86
516.51	21004.82
516.712	21053.97
516.914	21043.73
517.116	21699.08
517.318	21694.99
517.52	21643.79
517.722	21979.65
517.925	22149.64
518.127	22159.88
518.329	22557.18
518.531	22401.54
518.733	22845.94
518.935	22866.42
519.136	22897.14
519.338	23884.26
519.54	23644.65
519.742	23648.75
519.944	23792.11
520.146	24066.53
520.348	24103.4
520.55	24232.42
520.752	24046.05
520.954	24594.91
521.155	24512.99
521.357	25129.43
521.559	25160.15
521.761	25541.07
521.963	25686.48
522.164	25776.59
522.366	26001.86
522.568	25756.11
522.77	25991.62
522.971	26294.72
523.173	26247.62
523.375	26307.01
523.576	26419.65
523.778	26700.22
523.98	26972.6
524.181	27072.95
524.383	26872.25
524.584	27257.27
524.786	27687.34
524.988	27335.09
525.189	27414.96
525.391	27814.32
525.592	28053.93
525.794	28314.02
525.995	27972.01
526.197	28076.46
526.398	28281.25
526.6	28268.97
526.801	28354.98
527.003	28465.57
527.204	28768.67
527.406	29065.63
527.607	29127.06
527.808	29026.71
528.01	28692.9
528.211	28912.03
528.412	29620.63
528.614	29639.06
528.815	29376.92
529.016	30036.36
529.218	29360.53
529.419	29931.92
529.62	29794.7
529.822	29618.58
530.023	29598.1
530.224	29743.5
530.425	29477.27
530.626	29710.74
530.828	29462.93
531.029	30091.66
531.23	29657.49
531.431	30120.33
531.632	30093.71
531.833	30275.98
532.035	30298.5
532.236	30222.73
532.437	30048.65
532.638	30243.21
532.839	30099.85
533.04	30269.83
533.241	29970.83
533.442	30452.1
533.643	30374.28
533.844	30384.52
534.045	30683.52
534.246	30159.24
534.447	30507.4
534.648	30546.31
534.849	30644.61
535.05	30013.84
535.251	30290.31
535.451	30378.37
535.652	30499.2
535.853	30609.79
536.054	30605.7
536.255	30742.91
536.456	30632.32
536.657	30546.31
536.857	30357.89
537.058	30468.48
537.259	30585.22
537.46	30286.22
537.66	30638.47
537.861	30519.68
538.062	30323.08
538.263	30527.88
538.463	30347.65
538.664	30568.83
538.865	30734.72
539.065	30611.84
539.266	30343.56
539.466	30570.88
539.667	30189.96
539.868	30804.35
540.068	30704
540.269	30398.85
540.469	30454.15
540.67	29888.91
540.87	30380.42
541.071	30441.86
541.271	30749.06
541.472	30335.37
541.672	30146.95
541.873	30474.63
542.073	30206.34
542.274	30478.72
542.474	30564.74
542.675	30142.86
542.875	30751.1
543.075	30431.62
543.276	30105.99
543.476	30519.68
543.676	30198.15
543.877	30603.65
544.077	29929.87
544.277	30243.21
544.478	29942.16
544.678	30271.88
544.878	30321.03
545.078	30366.09
545.279	30062.99
545.479	29931.92
545.679	30372.23
545.879	30300.55
546.079	30167.43
546.28	30138.76
546.48	30056.84
546.68	30155.15
546.88	30386.57
547.08	29919.63
547.28	30470.53
547.48	29710.74
547.68	30120.33
547.88	30042.51
548.081	30269.83
548.281	30189.96
548.481	29870.48
548.681	30091.66
548.881	30288.26
549.081	30069.13
549.28	30267.78
549.48	30339.46
549.68	29915.53
549.88	30787.97
550.08	29858.19
550.28	30112.14
550.48	30105.99
550.68	29927.82
550.88	30118.28
551.08	29868.43
551.279	30138.76
551.479	29983.12
551.679	29962.64
551.879	29782.41
552.079	30218.63
552.278	30009.74
552.478	30167.43
552.678	29637.01
552.878	29798.8
553.077	29712.78
553.277	29503.89
553.477	29802.89
553.676	29790.61
553.876	29962.64
554.076	29653.39
554.275	29813.13
554.475	29493.65
554.674	30001.55
554.874	29553.04
555.074	29634.96
555.273	29503.89
555.473	29372.82
555.672	29702.54
555.872	29391.25
556.071	29315.48
556.271	29575.57
556.47	29409.68
556.67	29047.19
556.869	29284.76
557.068	29526.42
557.268	29096.35
557.467	29415.83
557.667	29163.93
557.866	29198.74
558.065	29057.43
558.265	29014.43
558.464	28840.35
558.663	29174.17
558.863	28623.26
559.062	29010.33
559.261	28895.64
559.461	29094.3
559.66	28441
559.859	29098.39
560.058	28783.01
560.258	28785.05
560.457	28479.91
560.656	29131.16
560.855	28258.73
561.054	28985.76
561.253	28553.63
561.453	28596.64
561.652	28438.95
561.851	28672.42
562.05	28330.41
562.249	28246.44
562.448	28494.24
562.647	28197.29
562.846	28244.39
563.045	28152.23
563.244	27945.39
563.443	28498.34
563.642	27967.91
563.841	28035.5
564.04	28008.87
564.239	28074.41
564.438	27357.62
564.637	28088.74
564.836	27996.59
565.035	27593.14
565.234	27853.23
565.432	27474.35
565.631	27486.64
565.83	27578.8
566.029	27511.22
566.228	27296.18
566.427	27111.86
566.625	27445.68
566.824	27322.8
567.023	27265.46
567.222	26735.04
567.42	27470.26
567.619	27144.63
567.818	26866.11
568.016	27021.75
568.215	27210.17
568.414	26765.76
568.612	26915.26
568.811	26782.14
569.01	26771.9
569.208	26702.27
569.407	26866.11
569.605	26137.03
569.804	26884.54
570.002	26159.56
570.201	26683.84
570.4	26433.99
570.598	26460.61
570.797	25997.77
570.995	26026.44
571.193	25741.77
571.392	26390.98
571.59	26046.92
571.789	26020.3
571.987	26073.54
572.186	25442.77
572.384	25594.32
572.582	25647.57
572.781	25850.31
572.979	25379.28
573.177	25469.39
573.376	25799.12
573.574	25350.61
573.772	25483.73
573.971	25201.11
574.169	25278.93
574.367	25133.53
574.565	25442.77
574.763	25192.92
574.962	24922.59
575.16	24705.5
575.358	24916.44
575.556	24719.84
575.754	25123.29
575.952	24588.77
576.151	24822.23
576.349	24252.9
576.547	24248.8
576.745	24508.9
576.943	24474.08
577.141	24330.72
577.339	24070.63
577.537	24252.9
577.735	24572.38
577.933	24113.64
578.131	24246.76
578.329	23986.66
578.527	23726.57
578.725	23646.7
578.923	24029.67
579.121	23558.64
579.319	23738.86
579.516	24031.72
579.714	23452.14
579.912	23603.69
580.11	23415.28
580.308	23695.85
580.506	23458.29
580.704	23257.59
580.901	23667.18
581.099	23816.68
581.297	22921.72
581.495	22999.54
581.692	22991.35
581.89	23028.21
582.088	22807.03
582.285	22964.73
582.483	23009.78
582.681	22995.45
582.878	22880.76
583.076	22471.17
583.274	22919.67
583.471	22479.36
583.669	22675.96
583.866	22458.88
584.064	22800.89
584.262	22276.61
584.459	22399.49
584.657	22344.19
584.854	22413.82
585.052	22323.71
585.249	22123.01
585.447	22204.93
585.644	21959.17
585.841	21867.02
586.039	22309.38
586.236	21737.99
586.434	21867.02
586.631	21510.67
586.828	21629.45
587.026	21801.48
587.223	21705.23
587.42	21383.7
587.618	21553.68
587.815	21240.34
588.012	21113.36
588.21	21426.7
588.407	21551.63
588.604	21232.15
588.801	21146.13
588.999	21068.31
589.196	21107.22
589.393	20830.74
589.59	20714.01
589.787	20650.52
589.984	20818.46
590.182	20634.14
590.379	20625.95
590.576	20470.3
590.773	20775.45
590.97	20560.41
591.167	20646.43
591.364	20232.74
591.561	20267.55
591.758	20267.55
591.955	20216.35
592.152	20439.58
592.349	20113.95
592.546	20156.96
592.743	20101.67
592.94	19780.14
593.137	20240.93
593.334	20017.7
593.531	19675.69
593.727	19755.56
593.924	19882.53
594.121	19366.45
594.318	19724.84
594.515	19520.04
594.712	19706.41
594.908	19247.66
595.105	19591.72
595.302	18979.38
595.499	19442.22
595.696	19382.83
595.892	18948.66
596.089	19130.93
596.286	19089.97
596.482	19044.91
596.679	18905.65
596.876	18911.8
597.072	18782.77
597.269	18543.16
597.466	18530.87
597.662	18584.12
597.859	18508.35
598.055	18575.93
598.252	18256.45
598.448	18354.75
598.645	18375.23
598.841	18160.19
599.038	18082.37
599.234	18123.33
599.431	18233.92
599.627	18016.83
599.824	18047.55
600.02	17801.8
600.217	18090.56
600.413	17986.11
600.609	17783.37
600.806	17777.22
601.002	17975.88
601.198	17666.63
601.395	17513.03
601.591	17517.13
601.787	17775.17
601.984	17306.19
602.18	17566.28
602.376	17386.06
602.572	17304.14
602.769	17216.08
602.965	17058.39
603.161	17193.55
603.357	17328.72
603.553	16968.27
603.75	16865.88
603.946	16978.51
604.142	17050.19
604.338	16579.16
604.534	16626.26
604.73	16552.54
604.926	16745.05
605.122	16841.3
605.318	16722.52
605.514	16665.18
605.71	16452.19
605.906	16638.55
606.102	16159.33
606.298	16624.22
606.494	16388.7
606.69	16364.12
606.886	16319.07
607.082	15954.53
607.278	16538.2
607.474	15886.95
607.67	16188
607.866	16114.27
608.062	16212.57
608.257	16101.98
608.453	16001.63
608.649	16030.3
608.845	15940.19
609.041	15839.84
609.236	15919.71
609.432	15757.92
609.628	15843.94
609.824	15700.58
610.019	15987.3
610.215	15880.8
610.411	15700.58
610.606	15491.69
610.802	15633
610.998	15653.48
611.193	15567.46
611.389	15487.59
611.584	15579.75
611.78	15465.07
611.976	15716.97
612.171	15557.22
612.367	15450.73
612.562	15313.52
612.758	15075.95
612.953	15026.8
613.149	15311.47
613.344	15202.93
613.539	15346.28
613.735	15227.5
613.93	15037.04
614.126	15207.02
614.321	15164.01
614.517	15264.36
614.712	14897.78
614.907	14916.21
615.103	15149.68
615.298	14969.46
615.493	14985.84
615.688	14801.52
615.884	14779
616.079	14791.28
616.274	14791.28
616.47	14946.93
616.665	14830.2
616.86	14723.7
617.055	14883.44
617.25	14664.31
617.445	14484.09
617.641	14684.79
617.836	14523
618.031	14430.84
618.226	14482.04
618.421	14355.07
618.616	14410.36
618.811	14260.86
619.006	14250.62
619.201	14199.42
619.396	13978.24
619.591	13953.66
619.786	13884.03
619.981	13902.47
620.176	14416.51
620.371	13873.79
620.566	13892.23
620.761	13791.87
620.956	13912.71
621.151	13632.13
621.346	13603.46
621.541	13408.9
621.735	13505.16
621.93	13185.68
622.125	13628.04
622.32	13095.57
622.515	13441.67
622.709	13075.09
622.904	12907.15
623.099	12913.3
623.294	12853.91
623.488	12655.25
623.683	13009.55
623.878	12907.15
624.072	12728.98
624.267	12960.4
624.462	12642.96
624.656	12733.08
624.851	12552.85
625.046	12276.38
625.24	12339.87
625.435	12137.12
625.629	12151.45
625.824	12176.03
626.018	12235.42
626.213	11915.94
626.407	11817.63
626.602	11883.17
626.796	11772.58
626.991	11936.42
627.185	11973.28
627.38	11565.73
627.574	11547.3
627.768	11692.71
627.963	11479.72
628.157	11150
628.352	11602.6
628.546	11164.33
628.74	11377.32
628.935	11238.06
629.129	11221.67
629.323	10902.19
629.517	10990.25
629.712	10971.82
629.906	10932.91
630.1	10803.89
630.294	10668.72
630.489	10812.08
630.683	10730.16
630.877	10666.67
631.071	10500.79
631.265	10422.97
631.459	10328.76
631.653	10230.46
631.848	10300.09
632.042	10316.47
632.236	10177.21
632.43	10074.81
632.624	10169.02
632.818	10248.89
633.012	10103.48
633.206	9894.59
633.4	9970.37
633.594	9601.73
633.788	9661.12
633.982	9755.33
634.176	9849.54
634.369	9607.87
634.563	9480.9
634.757	9503.43
634.951	9611.97
635.145	9444.04
635.339	9519.81
635.533	9532.1
635.726	9206.47
635.92	9398.98
636.114	9353.93
636.308	9204.42
636.501	9331.4
636.695	9163.47
636.889	8919.76
637.083	9009.87
637.276	9054.92
637.47	8800.98
637.664	9013.96
637.857	8893.13
638.051	8895.18
638.244	8870.61
638.438	8563.41
638.632	8606.42
638.825	8690.38
639.019	8622.8
639.212	8559.31
639.406	8489.68
639.599	8364.76
639.793	8524.5
639.986	8329.94
640.18	8162.01
640.373	8211.16
640.567	8200.92
640.76	8278.74
640.954	8002.27
641.147	8014.56
641.34	7891.68
641.534	8043.23
641.727	8069.85
641.92	7942.88
642.114	7897.82
642.307	7697.12
642.5	7910.11
642.694	7627.49
642.887	7828.19
643.08	7760.61
643.273	7650.02
643.467	7656.16
643.66	7531.23
643.853	7533.28
644.046	7459.56
644.239	7449.32
644.432	7566.05
644.626	7277.29
644.819	7303.91
645.012	7396.07
645.205	7508.71
645.398	7275.24
645.591	7254.76
645.784	7244.52
645.977	6949.61
646.17	7172.84
646.363	6836.97
646.556	6800.11
646.749	6922.99
646.942	6896.36
647.135	6863.6
647.328	6976.23
647.521	6707.95
647.714	6585.07
647.907	6836.97
648.099	6818.54
648.292	6642.42
648.485	6712.05
648.678	6656.75
648.871	6636.27
649.064	6531.83
649.256	6544.11
649.449	6497.01
649.642	6454
649.835	6437.62
650.027	6333.17
650.22	6529.78
650.413	6353.65
650.605	6439.67
650.798	6249.21
650.991	6177.53
651.183	6263.54
651.376	6134.52
651.568	6257.4
651.761	6226.68
651.954	5880.57
652.146	5905.15
652.339	5896.96
652.531	6077.18
652.724	6013.69
652.916	5853.95
653.109	5870.33
653.301	5731.07
653.494	5913.34
653.686	5671.68
653.879	5909.24
654.071	5886.72
654.263	5655.3
654.456	5780.22
654.648	5683.97
654.84	5638.91
655.033	5526.27
655.225	5509.89
655.417	5577.47
655.61	5634.82
655.802	5569.28
655.994	5487.36
656.186	5458.69
656.379	5448.45
656.571	5237.51
656.763	5337.86
656.955	5233.41
657.148	5378.82
657.34	5190.41
657.532	5274.37
657.724	5094.15
657.916	5253.89
658.108	5217.03
658.3	5182.21
658.492	5030.66
658.684	5169.93
658.876	5069.58
659.068	4948.75
659.26	4944.65
659.452	4932.36
659.644	4911.88
659.836	4967.18
660.028	4963.08
660.22	4754.19
660.412	4915.98
660.604	4838.16
660.796	4860.68
660.988	4854.54
661.18	4778.76
661.372	4746
661.563	4729.61
661.755	4707.09
661.947	4606.74
662.139	4692.75
662.331	4561.68
662.522	4512.53
662.714	4580.11
662.906	4578.06
663.097	4584.21
663.289	4399.89
663.481	4463.38
663.673	4490
663.864	4492.05
664.056	4412.18
664.247	4416.27
664.439	4334.36
664.631	4277.01
664.822	4553.49
665.014	4336.4
665.205	4367.12
665.397	4209.43
665.588	4326.16
665.78	4332.31
665.971	4295.44
666.163	4287.25
666.354	4147.99
666.546	4156.18
666.737	4133.65
666.929	4090.65
667.12	4225.81
667.311	4082.46
667.503	4047.64
667.694	3930.91
667.885	4031.26
668.077	4031.26
668.268	4016.92
668.459	3986.2
668.651	3910.43
668.842	4051.74
669.033	4010.78
669.224	3891.99
669.416	4035.35
669.607	3894.04
669.798	3930.91
669.989	3949.34
670.18	3914.52
670.371	3767.07
670.563	3889.95
670.754	3797.79
670.945	3793.69
671.136	3795.74
671.327	3896.09
671.518	3627.81
671.709	3697.44
671.9	3762.97
672.091	3709.72
672.282	3728.16
672.473	3736.35
672.664	3685.15
672.855	3642.14
673.046	3713.82
673.237	3724.06
673.428	3590.94
673.619	3627.81
673.809	3478.3
674	3617.57
674.191	3506.98
674.382	3586.85
674.573	3689.25
674.764	3453.73
674.954	3607.33
675.145	3590.94
675.336	3545.89
675.527	3480.35
675.717	3529.5
675.908	3445.54
676.099	3365.67
676.289	3418.91
676.48	3463.97
676.671	3423.01
676.861	3443.49
677.052	3318.56
677.243	3371.81
677.433	3420.96
677.624	3445.54
677.814	3349.28
678.005	3271.46
678.195	3382.05
678.386	3388.19
678.576	3332.9
678.767	3238.69
678.957	3408.67
679.148	3433.25
679.338	3410.72
679.529	3214.12
679.719	3248.93
679.909	3468.06
680.1	3285.8
680.29	3390.24
680.481	3242.79
680.671	3367.71
680.861	3259.17
681.052	3332.9
681.242	3101.48
681.432	3306.27
681.622	3375.91
681.813	3216.16
682.003	3138.34
682.193	3240.74
682.383	3271.46
682.573	3191.59
682.764	3267.36
682.954	3302.18
683.144	3205.92
683.334	3296.04
683.524	3185.44
683.714	3226.4
683.904	3234.6
684.094	3285.8
684.284	3140.39
684.474	3175.2
684.664	3035.94
684.854	3111.72
685.044	3128.1
685.234	3091.24
685.424	3087.14
685.614	3009.32
685.804	3074.85
685.994	3101.48
686.184	3033.9
686.374	3035.94
686.564	2999.08
686.753	2988.84
686.943	2884.39
687.133	3011.37
687.323	2980.65
687.513	3072.81
687.702	2915.11
687.892	2964.26
688.082	2968.36
688.272	3060.52
688.461	2874.15
688.651	2872.11
688.841	2939.69
689.03	2947.88
689.22	2796.33
689.41	2839.34
689.599	2749.23
689.789	2820.91
689.979	2788.14
690.168	2779.95
690.358	2655.02
690.547	2800.43
690.737	2763.56
690.926	2861.87
691.116	2702.12
691.305	2671.4
691.495	2616.11
691.684	2603.82
691.874	2624.3
692.063	2544.43
692.252	2667.31
692.442	2511.66
692.631	2554.67
692.82	2569.01
693.01	2556.72
693.199	2564.91
693.388	2521.9
693.578	2562.86
693.767	2577.2
693.956	2444.08
694.146	2468.66
694.335	2460.46
694.524	2462.51
694.713	2431.79
694.902	2374.45
695.092	2358.07
695.281	2368.31
695.47	2335.54
695.659	2323.25
695.848	2425.65
696.037	2341.68
696.226	2341.68
696.415	2284.34
696.604	2337.59
696.793	2304.82
696.982	2333.49
697.171	2302.77
697.36	2386.74
697.549	2165.56
697.738	2290.48
697.927	2247.48
698.116	2304.82
698.305	2313.01
698.494	2243.38
698.683	2153.27
698.872	2218.8
699.061	2159.41
699.25	2360.11
699.438	2214.71
699.627	2208.56
699.816	2179.89
700.005	2147.12
700.193	2204.47
700.382	2222.9
700.571	2116.41
700.76	2157.36
700.948	2198.32
701.137	2042.68
701.326	2214.71
701.514	2220.85
701.703	2177.84
701.892	2067.25
702.08	2151.22
702.269	2059.06
702.457	2059.06
702.646	2163.51
702.834	2151.22
703.023	2243.38
703.212	2190.13
703.4	2030.39
703.589	2075.45
703.777	2120.5
703.965	2097.97
704.154	2130.74
704.342	2042.68
704.531	2132.79
704.719	2161.46
704.907	2100.02
705.096	1979.19
705.284	2059.06
705.472	2087.73
705.661	2059.06
705.849	2052.92
706.037	2120.5
706.226	2227
706.414	2169.65
706.602	2153.27
706.79	2104.12
706.979	2036.53
707.167	2114.36
707.355	2210.61
707.543	2177.84
707.731	2126.64
707.919	2030.39
708.107	2052.92
708.296	2149.17
708.484	2083.64
708.672	2093.88
708.86	2163.51
709.048	2190.13
709.236	2095.93
709.424	2059.06
709.612	2057.01
709.8	2124.6
709.988	2030.39
710.176	2151.22
710.364	2145.08
710.551	2067.25
710.739	2054.97
710.927	2065.21
711.115	2120.5
711.303	2134.84
711.491	2106.17
711.679	2136.88
711.866	2112.31
712.054	2122.55
712.242	2040.63
712.43	2083.64
712.617	2216.76
712.805	2134.84
712.993	2128.69
713.181	2171.7
713.368	2083.64
713.556	2165.56
713.744	2151.22
713.931	2134.84
714.119	2050.87
714.306	2128.69
714.494	2179.89
714.682	2169.65
714.869	2188.08
715.057	2270
715.244	2100.02
715.432	2190.13
715.619	2200.37
715.807	2210.61
715.994	2167.6
716.182	2188.08
716.369	2151.22
716.556	2177.84
716.744	2114.36
716.931	2224.95
717.119	2278.19
717.306	2212.66
717.493	2284.34
717.681	2270
717.868	2276.15
718.055	2194.23
718.242	2300.72
718.43	2274.1
718.617	2243.38
718.804	2274.1
718.991	2333.49
719.179	2339.63
719.366	2304.82
719.553	2278.19
719.74	2198.32
719.927	2368.31
720.114	2190.13
720.301	2444.08
720.488	2280.24
720.676	2263.86
720.863	2329.39
721.05	2300.72
721.237	2329.39
721.424	2284.34
721.611	2220.85
721.798	2165.56
721.985	2333.49
722.172	2415.41
722.358	2399.02
722.545	2257.71
722.732	2333.49
722.919	2317.11
723.106	2310.96
723.293	2267.95
723.48	2351.92
723.667	2331.44
723.853	2353.97
724.04	2308.91
724.227	2214.71
724.414	2360.11
724.6	2482.99
724.787	2415.41
724.974	2351.92
725.161	2376.5
725.347	2392.88
725.534	2339.63
725.72	2358.07
725.907	2474.8
726.094	2419.5
726.28	2448.18
726.467	2431.79
726.653	2464.56
726.84	2419.5
727.027	2431.79
727.213	2259.76
727.4	2421.55
727.586	2405.17
727.773	2444.08
727.959	2411.31
728.145	2313.01
728.332	2466.61
728.518	2431.79
728.705	2431.79
728.891	2403.12
729.077	2468.66
729.264	2495.28
729.45	2378.55
729.636	2448.18
729.823	2491.18
730.009	2433.84
730.195	2425.65
730.382	2435.89
730.568	2415.41
730.754	2435.89
730.94	2370.35
731.126	2433.84
731.313	2515.76
731.499	2460.46
731.685	2501.42
731.871	2386.74
732.057	2374.45
732.243	2462.51
732.429	2487.09
732.615	2399.02
732.801	2487.09
732.987	2478.9
733.173	2433.84
733.359	2454.32
733.545	2435.89
733.731	2366.26
733.917	2446.13
734.103	2446.13
734.289	2474.8
734.475	2503.47
734.661	2499.38
734.847	2505.52
735.033	2439.98
735.219	2319.15
735.404	2433.84
735.59	2517.81
735.776	2353.97
735.962	2540.33
736.148	2622.25
736.333	2392.88
736.519	2368.31
736.705	2337.59
736.89	2509.62
737.076	2403.12
737.262	2452.27
737.447	2468.66
737.633	2491.18
737.819	2331.44
738.004	2374.45
738.19	2384.69
738.375	2468.66
738.561	2401.07
738.747	2345.78
738.932	2487.09
739.118	2446.13
739.303	2417.46
739.489	2425.65
739.674	2558.77
739.859	2485.04
740.045	2425.65
740.23	2417.46
740.416	2421.55
740.601	2394.93
740.786	2313.01
740.972	2435.89
741.157	2382.64
741.342	2353.97
741.528	2384.69
741.713	2345.78
741.898	2239.28
742.084	2270
742.269	2186.04
742.454	2278.19
742.639	2259.76
742.824	2286.39
743.01	2270
743.195	2384.69
743.38	2278.19
743.565	2267.95
743.75	2319.15
743.935	2210.61
744.12	2190.13
744.305	2153.27
744.49	2177.84
744.675	2145.08
744.86	2169.65
745.045	2247.48
745.23	2306.87
745.415	2091.83
745.6	2249.52
745.785	2167.6
745.97	2126.64
746.155	2110.26
746.34	2169.65
746.525	2067.25
746.71	2241.33
746.895	2095.93
747.079	2083.64
747.264	2077.49
747.449	2052.92
747.634	2054.97
747.819	2001.72
748.003	1989.43
748.188	1985.34
748.373	2054.97
748.557	1983.29
748.742	1983.29
748.927	1876.79
749.111	1946.42
749.296	1973.05
749.481	1973.05
749.665	1884.98
749.85	1989.43
750.034	1891.13
750.219	1844.03
750.404	1786.68
750.588	1841.98
750.773	1796.92
750.957	1790.78
751.141	1688.38
751.326	1829.69
751.51	1743.67
751.695	1813.31
751.879	1803.07
752.064	1770.3
752.248	1727.29
752.432	1708.86
752.617	1751.87
752.801	1692.48
752.985	1667.9
753.17	1641.28
753.354	1696.57
753.538	1682.24
753.722	1575.74
753.907	1600.32
754.091	1626.94
754.275	1542.97
754.459	1655.61
754.643	1524.54
754.828	1567.55
755.012	1493.82
755.196	1616.7
755.38	1483.58
755.564	1616.7
755.748	1549.12
755.932	1547.07
756.116	1432.38
756.3	1491.77
756.484	1473.34
756.668	1477.44
756.852	1342.27
757.036	1475.39
757.22	1391.42
757.404	1387.33
757.588	1432.38
757.772	1436.48
757.956	1416
758.14	1434.43
758.323	1344.32
758.507	1311.55
758.691	1338.18
758.875	1319.75
759.059	1248.07
759.242	1332.03
759.426	1295.17
759.61	1327.94
759.794	1325.89
759.977	1315.65
760.161	1295.17
760.345	1239.87
760.528	1295.17
760.712	1327.94
760.895	1311.55
761.079	1319.75
761.263	1190.72
761.446	1246.02
761.63	1229.63
761.813	1172.29
761.997	1252.16
762.18	1215.3
762.364	1260.35
762.547	1284.93
762.731	1061.7
762.914	1231.68
763.098	1080.13
763.281	1108.8
763.464	1157.96
763.648	1176.39
763.831	1145.67
764.015	1100.61
764.198	1018.69
764.381	1166.15
764.564	1209.15
764.748	1110.85
764.931	1100.61
765.114	1196.87
765.297	1155.91
765.481	992.07
765.664	1063.75
765.847	1076.04
766.03	1063.75
766.213	1100.61
766.397	1092.42
766.58	1071.94
766.763	1104.71
766.946	1018.69
767.129	1082.18
767.312	1108.8
767.495	1037.13
767.678	1035.08
767.861	1041.22
768.044	1037.13
768.227	994.12
768.41	1086.28
768.593	1059.65
768.776	1059.65
768.959	1057.61
769.142	1035.08
769.324	985.93
769.507	918.34
769.69	1016.65
769.873	838.47
770.056	969.54
770.239	998.21
770.421	977.73
770.604	949.06
770.787	899.91
770.97	916.3
771.152	926.54
771.335	944.97
771.518	879.43
771.7	912.2
771.883	971.59
772.066	826.18
772.248	975.69
772.431	949.06
772.613	893.77
772.796	895.82
772.978	871.24
773.161	963.4
773.343	883.53
773.526	891.72
773.708	815.94
773.891	881.48
774.073	854.86
774.256	820.04
774.438	873.29
774.621	850.76
774.803	817.99
774.985	793.42
775.168	779.08
775.35	787.27
775.532	758.6
775.715	756.55
775.897	848.71
776.079	828.23
776.261	842.57
776.444	752.46
776.626	707.4
776.808	684.87
776.99	686.92
777.173	707.4
777.355	731.98
777.537	705.35
777.719	748.36
777.901	676.68
778.083	684.87
778.265	734.03
778.447	709.45
778.629	748.36
778.811	672.59
778.993	580.43
779.175	797.51
779.357	664.4
779.539	684.87
779.721	697.16
779.903	658.25
780.085	666.44
780.267	650.06
780.449	564.04
780.631	672.59
780.812	645.96
780.994	580.43
781.176	576.33
781.358	574.28
781.54	570.19
781.721	633.68
781.903	502.61
782.085	535.37
782.267	688.97
782.448	514.89
782.63	633.68
782.812	535.37
782.993	588.62
783.175	523.09
783.357	625.48
783.538	514.89
783.72	500.56
783.901	557.9
784.083	518.99
784.264	533.33
784.446	559.95
784.627	502.61
784.809	527.18
784.99	484.17
785.172	486.22
785.353	478.03
785.535	475.98
785.716	494.41
785.897	486.22
786.079	473.93
786.26	432.97
786.441	447.31
786.623	443.21
786.804	459.6
786.985	441.17
787.167	480.08
787.348	562
787.529	400.21
787.71	535.37
787.891	424.78
788.073	400.21
788.254	451.41
788.435	473.93
788.616	394.06
788.797	416.59
788.978	492.37
789.159	441.17
789.34	400.21
789.522	437.07
789.703	385.87
789.884	475.98
790.065	426.83
790.246	387.92
790.427	371.54
790.607	387.92
790.788	467.79
790.969	357.2
791.15	459.6
791.331	344.91
791.512	322.38
791.693	334.67
791.874	351.06
792.054	404.3
792.235	361.3
792.416	312.14
792.597	344.91
792.778	406.35
792.958	416.59
793.139	396.11
793.32	414.54
793.5	361.3
793.681	410.45
793.862	334.67
794.042	273.23
794.223	346.96
794.404	381.78
794.584	277.33
794.765	338.77
794.945	355.15
795.126	338.77
795.306	340.82
795.487	371.54
795.667	262.99
795.848	312.14
796.028	342.86
796.209	377.68
796.389	326.48
796.57	330.58
796.75	297.81
796.93	289.62
797.111	308.05
797.291	328.53
797.471	367.44
797.652	295.76
797.832	371.54
798.012	336.72
798.192	279.38
798.373	273.23
798.553	267.09
798.733	353.1
798.913	250.71
799.093	234.32
799.274	281.43
799.454	262.99
799.634	265.04
799.814	256.85
799.994	265.04
800.174	318.29
800.354	213.84
800.534	273.23
800.714	248.66
800.894	275.28
801.074	273.23
801.254	320.34
801.434	287.57
801.614	222.03
801.794	248.66
801.974	670.54
802.154	195.41
802.334	250.71
802.514	254.8
802.693	189.27
802.873	199.51
803.053	326.48
803.233	246.61
803.413	232.27
803.592	213.84
803.772	179.03
803.952	224.08
804.131	195.41
804.311	240.47
804.491	236.37
804.67	170.83
804.85	279.38
805.03	265.04
805.209	250.71
805.389	195.41
805.568	207.7
805.748	203.6
805.928	222.03
806.107	238.42
806.287	236.37
806.466	236.37
806.646	248.66
806.825	238.42
807.004	119.64
807.184	133.97
807.363	211.79
807.543	228.18
807.722	127.83
807.901	295.76
808.081	203.6
808.26	199.51
808.439	224.08
808.619	187.22
808.798	170.83
808.977	238.42
809.156	219.99
809.336	162.64
809.515	164.69
809.694	242.51
809.873	179.03
810.052	215.89
810.231	191.31
810.411	197.46
810.59	209.75
810.769	125.78
810.948	238.42
811.127	148.31
811.306	133.97
811.485	99.16
811.664	166.74
811.843	111.44
812.022	232.27
812.201	158.55
812.38	140.12
812.559	150.36
812.737	93.01
812.916	129.88
813.095	207.7
813.274	215.89
813.453	203.6
813.632	176.98
813.811	213.84
813.989	107.35
814.168	222.03
814.347	142.16
814.526	156.5
814.704	183.12
814.883	150.36
815.062	156.5
815.24	136.02
815.419	158.55
815.598	197.46
815.776	72.53
815.955	170.83
816.133	47.96
816.312	189.27
816.49	127.83
816.669	101.2
816.847	140.12
817.026	183.12
817.204	131.92
817.383	121.68
817.561	107.35
817.74	195.41
817.918	172.88
818.097	101.2
818.275	138.07
818.453	88.92
818.632	240.47
818.81	162.64
818.988	82.77
819.167	84.82
819.345	123.73
819.523	93.01
819.701	127.83
819.879	140.12
820.058	121.68
820.236	164.69
820.414	144.21
820.592	129.88
820.77	113.49
820.948	101.2
821.127	176.98
821.305	209.75
821.483	197.46
821.661	117.59
821.839	152.4
822.017	97.11
822.195	97.11
822.373	111.44
822.551	119.64
822.729	45.91
822.907	170.83
823.085	142.16
823.262	166.74
823.44	187.22
823.618	101.2
823.796	127.83
823.974	174.93
824.152	95.06
824.329	119.64
824.507	84.82
824.685	113.49
824.863	129.88
825.04	101.2
825.218	129.88
825.396	183.12
825.574	138.07
825.751	47.96
825.929	88.92
826.107	144.21
826.284	88.92
826.462	33.62
826.639	113.49
826.817	64.34
826.994	58.2
827.172	113.49
827.349	84.82
827.527	111.44
827.704	80.72
827.882	72.53
828.059	164.69
828.237	164.69
828.414	101.2
828.591	76.63
828.769	43.86
828.946	154.45
829.124	52.05
829.301	52.05
829.478	17.24
829.655	117.59
829.833	70.48
830.01	64.34
830.187	131.92
830.364	133.97
830.542	111.44
830.719	41.81
830.896	105.3
831.073	95.06
831.25	27.48
831.427	123.73
831.604	29.52
831.782	105.3
831.959	113.49
832.136	-7.34
832.313	138.07
832.49	90.96
832.667	127.83
832.844	43.86
833.021	123.73
833.198	90.96
833.374	101.2
833.551	43.86
833.728	99.16
833.905	133.97
834.082	88.92
834.259	168.79
834.436	144.21
834.612	172.88
834.789	56.15
834.966	80.72
835.143	121.68
835.319	60.24
835.496	23.38
835.673	105.3
835.85	129.88
836.026	39.76
836.203	76.63
836.38	176.98
836.556	27.48
836.733	123.73
836.909	107.35
837.086	23.38
837.262	33.62
837.439	-31.91
837.616	43.86
837.792	76.63
837.968	107.35
838.145	45.91
838.321	115.54
838.498	101.2
838.674	125.78
838.851	68.44
839.027	45.91
839.203	33.62
839.38	54.1
839.556	88.92
839.732	158.55
839.909	54.1
840.085	127.83
840.261	66.39
840.437	82.77
840.614	76.63
840.79	2.9
840.966	93.01
841.142	117.59
841.318	115.54
841.494	39.76
841.671	133.97
841.847	136.02
842.023	76.63
842.199	70.48
842.375	119.64
842.551	33.62
842.727	58.2
842.903	50
843.079	-7.34
843.255	93.01
843.431	-33.96
843.607	105.3
843.783	52.05
843.959	146.26
844.134	-21.67
844.31	64.34
844.486	7
844.662	17.24
844.838	60.24
845.013	27.48
845.189	43.86
845.365	90.96
845.541	27.48
845.716	-21.67
845.892	93.01
846.068	-17.58
846.244	25.43
846.419	62.29
846.595	19.29
846.77	142.16
846.946	-13.48
847.122	-48.3
847.297	-9.39
847.473	70.48
847.648	37.72
847.824	31.57
847.999	35.67
848.175	-1.19
848.35	54.1
848.526	29.52
848.701	-44.2
848.876	50
849.052	86.87
849.227	60.24
849.403	-17.58
849.578	37.72
849.753	72.53
849.929	123.73
850.104	50
850.279	64.34
850.454	9.05
850.63	90.96
850.805	25.43
850.98	7
851.155	0.85
851.33	11.09
851.505	11.09
851.681	68.44
851.856	-44.2
852.031	86.87
852.206	27.48
852.381	2.9
852.556	0.85
852.731	17.24
852.906	50
853.081	70.48
853.256	-7.34
853.431	66.39
853.606	64.34
853.781	-9.39
853.956	-17.58
854.131	103.25
854.305	76.63
854.48	47.96
854.655	0.85
854.83	23.38
855.005	17.24
855.18	39.76
855.354	-17.58
855.529	58.2
855.704	82.77
855.879	-23.72
856.053	11.09
856.228	52.05
856.403	19.29
856.577	95.06
856.752	68.44
856.926	56.15
857.101	43.86
857.276	-27.82
857.45	56.15
857.625	-25.77
857.799	11.09
857.974	35.67
858.148	31.57
858.323	60.24
858.497	2.9
858.672	88.92
858.846	0.85
859.02	121.68
859.195	-29.87
859.369	-23.72
859.543	25.43
859.718	33.62
859.892	-7.34
860.066	33.62
860.241	-29.87
860.415	-29.87
860.589	58.2
860.763	82.77
860.938	-33.96
861.112	113.49
861.286	-13.48
861.46	76.63
861.634	60.24
861.808	93.01
861.982	35.67
862.157	-1.19
862.331	0.85
862.505	-9.39
862.679	-44.2
862.853	50
863.027	-33.96
863.201	7
863.375	41.81
863.549	-9.39
863.722	0.85
863.896	39.76
864.07	2.9
864.244	99.16
864.418	19.29
864.592	19.29
864.766	-13.48
864.939	27.48
865.113	-42.15
865.287	88.92
865.461	33.62
865.634	-5.29
865.808	-25.77
865.982	39.76
866.156	9.05
866.329	47.96
866.503	-7.34
866.676	4.95
866.85	25.43
867.024	-1.19
867.197	58.2
867.371	105.3
867.544	23.38
867.718	-48.3
867.891	41.81
868.065	2.9
868.238	35.67
868.412	103.25
868.585	-17.58
868.759	11.09
868.932	-25.77
869.105	19.29
869.279	21.33
869.452	13.14
869.625	37.72
869.799	4.95
869.972	33.62
870.145	58.2
870.319	9.05
870.492	41.81
870.665	11.09
870.838	80.72
871.011	-27.82
871.185	-1.19
871.358	47.96
871.531	7
871.704	11.09
871.877	17.24
872.05	47.96
872.223	35.67
872.396	23.38
872.569	43.86
872.742	43.86
872.915	47.96
873.088	41.81
873.261	-13.48
873.434	41.81
873.607	-19.63
873.78	11.09
873.953	86.87
874.126	7
874.299	2.9
874.471	-25.77
874.644	-33.96
874.817	9.05
874.99	47.96
875.163	33.62
875.335	27.48
875.508	-29.87
875.681	4.95
875.853	21.33
876.026	-25.77
876.199	-33.96
876.371	117.59
876.544	-7.34
876.717	15.19
876.889	54.1
877.062	45.91
877.234	47.96
877.407	-13.48
877.579	-15.53
877.752	84.82
877.924	11.09
878.097	31.57
878.269	76.63
878.442	-23.72
878.614	35.67
878.786	21.33
878.959	35.67
879.131	37.72
879.303	2.9
879.476	76.63
879.648	33.62
879.82	52.05
879.993	-11.43
880.165	66.39
880.337	-13.48
880.509	15.19
880.681	-15.53
880.854	-40.11
881.026	-68.78
881.198	52.05
881.37	47.96
881.542	47.96
881.714	-40.11
881.886	35.67
882.058	11.09
882.23	17.24
882.402	29.52
882.574	-62.63
882.746	54.1
882.918	-50.35
883.09	-31.91
883.262	31.57
883.434	72.53
883.606	2.9
883.778	56.15
883.95	60.24
884.122	35.67
884.293	43.86
884.465	31.57
884.637	-3.24
884.809	-62.63
884.98	47.96
885.152	45.91
885.324	41.81
885.496	2.9
885.667	82.77
885.839	27.48
886.011	64.34
886.182	41.81
886.354	68.44
886.525	86.87
886.697	-17.58
886.869	78.68
887.04	50
887.212	-38.06
887.383	35.67
887.555	-5.29
887.726	-70.83
887.897	-42.15
888.069	47.96
888.24	9.05
888.412	37.72
888.583	33.62
888.754	0.85
888.926	-36.01
889.097	29.52
889.268	19.29
889.44	9.05
889.611	-17.58
889.782	2.9
889.953	31.57
890.125	39.76
890.296	-13.48
890.467	21.33
890.638	-13.48
890.809	82.77
890.98	-50.35
891.151	15.19
891.323	-13.48
891.494	-48.3
891.665	15.19
891.836	-9.39
892.007	35.67
892.178	-31.91
892.349	11.09
892.52	2.9
892.691	23.38
892.862	11.09
893.032	9.05
893.203	41.81
893.374	97.11
893.545	41.81
893.716	13.14
893.887	19.29
894.057	-29.87
894.228	68.44
894.399	17.24
894.57	33.62
894.74	-66.73
894.911	21.33
895.082	-23.72
895.253	-1.19
895.423	7
895.594	-33.96
895.764	-21.67
895.935	-17.58
896.106	76.63
896.276	68.44
896.447	-38.06
896.617	33.62
896.788	-27.82
896.958	-3.24
897.129	39.76
897.299	-33.96
897.47	84.82
897.64	103.25
897.81	43.86
897.981	-21.67
898.151	11.09
898.322	2.9
898.492	68.44
898.662	58.2
898.832	11.09
899.003	-17.58
899.173	2.9
899.343	2.9
899.513	35.67
