Data from USB4F104151__65__11-37-27-098.txt Node

Date: Fri Mar 14 11:37:27 EDT 2025
User: louis
Spectrometer: USB4F10415
Trigger mode: 4
Integration Time (sec): 2.000000E-2
Scans to average: 1
Electric dark correction enabled: true
Nonlinearity correction enabled: false
Boxcar width: 0
XAxis mode: Wavelengths
Number of Pixels in Spectrum: 3648
>>>>>Begin Spectral Data<<<<<
178.204	-44.71
178.424	-44.71
178.644	-44.71
178.864	-65.19
179.084	-48.81
179.304	59.73
179.524	0.34
179.744	12.63
179.964	33.11
180.184	-50.86
180.404	16.73
180.624	-13.99
180.844	0.34
181.064	-24.23
181.283	57.68
181.503	-1.71
181.723	-89.77
181.943	12.63
182.163	45.4
182.383	10.58
182.602	24.92
182.822	63.83
183.042	69.97
183.262	-16.04
183.482	14.68
183.701	37.2
183.921	12.63
184.141	-24.23
184.361	41.3
184.58	-11.95
184.8	24.92
185.02	31.06
185.239	80.21
185.459	22.87
185.679	6.49
185.898	14.68
186.118	47.44
186.338	0.34
186.557	86.36
186.777	12.63
186.997	0.34
187.216	16.73
187.436	63.83
187.655	47.44
187.875	-9.9
188.095	-9.9
188.314	41.3
188.534	4.44
188.753	2.39
188.973	47.44
189.192	53.59
189.412	61.78
189.631	49.49
189.851	39.25
190.07	22.87
190.29	-9.9
190.509	59.73
190.729	-42.67
190.948	37.2
191.168	110.93
191.387	43.35
191.607	-20.14
191.826	-11.95
192.045	55.64
192.265	12.63
192.484	53.59
192.704	-1.71
192.923	45.4
193.142	82.26
193.362	-13.99
193.581	37.2
193.8	22.87
194.02	8.53
194.239	-9.9
194.458	29.01
194.678	86.36
194.897	88.4
195.116	49.49
195.335	4.44
195.555	76.12
195.774	57.68
195.993	-7.85
196.212	10.58
196.432	33.11
196.651	-1.71
196.87	16.73
197.089	63.83
197.308	41.3
197.528	59.73
197.747	0.34
197.966	-9.9
198.185	63.83
198.404	22.87
198.623	16.73
198.842	18.77
199.062	16.73
199.281	-28.33
199.5	-5.8
199.719	78.16
199.938	0.34
200.157	31.06
200.376	47.44
200.595	57.68
200.814	8.53
201.033	-7.85
201.252	49.49
201.471	80.21
201.69	-1.71
201.909	10.58
202.128	22.87
202.347	20.82
202.566	31.06
202.785	45.4
203.004	51.54
203.223	127.32
203.442	35.16
203.661	78.16
203.879	-32.43
204.098	55.64
204.317	16.73
204.536	51.54
204.755	-9.9
204.974	22.87
205.193	4.44
205.411	94.55
205.63	33.11
205.849	65.88
206.068	69.97
206.287	65.88
206.505	43.35
206.724	14.68
206.943	47.44
207.162	33.11
207.381	51.54
207.599	-32.43
207.818	65.88
208.037	-42.67
208.255	76.12
208.474	86.36
208.693	-24.23
208.911	2.39
209.13	-44.71
209.349	74.07
209.567	12.63
209.786	102.74
210.005	-48.81
210.223	-73.39
210.442	8.53
210.661	-24.23
210.879	-24.23
211.098	65.88
211.316	8.53
211.535	45.4
211.753	-3.75
211.972	-16.04
212.191	80.21
212.409	35.16
212.628	-16.04
212.846	43.35
213.065	78.16
213.283	53.59
213.502	69.97
213.72	57.68
213.938	88.4
214.157	14.68
214.375	47.44
214.594	26.96
214.812	35.16
215.031	-44.71
215.249	-5.8
215.467	43.35
215.686	-7.85
215.904	94.55
216.122	-57
216.341	53.59
216.559	90.45
216.778	29.01
216.996	35.16
217.214	-18.09
217.432	26.96
217.651	31.06
217.869	-13.99
218.087	22.87
218.306	-20.14
218.524	55.64
218.742	45.4
218.96	90.45
219.179	74.07
219.397	37.2
219.615	65.88
219.833	41.3
220.051	-13.99
220.27	72.02
220.488	43.35
220.706	65.88
220.924	53.59
221.142	53.59
221.36	-7.85
221.578	-50.86
221.796	-67.24
222.015	41.3
222.233	-7.85
222.451	31.06
222.669	16.73
222.887	57.68
223.105	63.83
223.323	24.92
223.541	29.01
223.759	61.78
223.977	-16.04
224.195	82.26
224.413	41.3
224.631	31.06
224.849	39.25
225.067	115.03
225.285	59.73
225.503	12.63
225.721	-40.62
225.939	2.39
226.157	31.06
226.375	131.41
226.592	24.92
226.81	53.59
227.028	-24.23
227.246	131.41
227.464	82.26
227.682	49.49
227.9	39.25
228.117	2.39
228.335	57.68
228.553	37.2
228.771	-9.9
228.989	14.68
229.206	31.06
229.424	-34.47
229.642	63.83
229.86	-1.71
230.077	20.82
230.295	-16.04
230.513	110.93
230.731	61.78
230.948	16.73
231.166	108.88
231.384	108.88
231.601	31.06
231.819	98.64
232.037	39.25
232.254	37.2
232.472	39.25
232.689	-5.8
232.907	57.68
233.125	14.68
233.342	20.82
233.56	6.49
233.777	8.53
233.995	26.96
234.213	33.11
234.43	86.36
234.648	63.83
234.865	41.3
235.083	65.88
235.3	65.88
235.518	-9.9
235.735	16.73
235.953	92.5
236.17	16.73
236.388	67.92
236.605	61.78
236.822	123.22
237.04	76.12
237.257	-48.81
237.475	-42.67
237.692	86.36
237.909	24.92
238.127	-24.23
238.344	2.39
238.562	14.68
238.779	37.2
238.996	2.39
239.214	37.2
239.431	96.6
239.648	-9.9
239.865	33.11
240.083	14.68
240.3	29.01
240.517	12.63
240.735	0.34
240.952	49.49
241.169	55.64
241.386	74.07
241.603	0.34
241.821	-59.05
242.038	53.59
242.255	41.3
242.472	-26.28
242.689	20.82
242.907	69.97
243.124	24.92
243.341	47.44
243.558	41.3
243.775	-40.62
243.992	69.97
244.209	49.49
244.426	14.68
244.643	49.49
244.86	45.4
245.078	59.73
245.295	39.25
245.512	-26.28
245.729	22.87
245.946	-16.04
246.163	6.49
246.38	8.53
246.597	45.4
246.814	53.59
247.031	49.49
247.248	24.92
247.464	16.73
247.681	8.53
247.898	-18.09
248.115	61.78
248.332	31.06
248.549	26.96
248.766	98.64
248.983	78.16
249.2	57.68
249.417	45.4
249.633	41.3
249.85	78.16
250.067	0.34
250.284	2.39
250.501	4.44
250.717	78.16
250.934	43.35
251.151	-11.95
251.368	4.44
251.585	24.92
251.801	16.73
252.018	20.82
252.235	24.92
252.451	61.78
252.668	67.92
252.885	22.87
253.102	12.63
253.318	4.44
253.535	51.54
253.752	-5.8
253.968	55.64
254.185	67.92
254.401	8.53
254.618	-26.28
254.835	-1.71
255.051	55.64
255.268	-38.57
255.484	61.78
255.701	29.01
255.917	67.92
256.134	59.73
256.351	82.26
256.567	24.92
256.784	45.4
257	-1.71
257.217	31.06
257.433	72.02
257.65	26.96
257.866	61.78
258.082	12.63
258.299	6.49
258.515	0.34
258.732	24.92
258.948	26.96
259.165	-3.75
259.381	-1.71
259.597	51.54
259.814	39.25
260.03	31.06
260.246	33.11
260.463	-1.71
260.679	31.06
260.895	35.16
261.112	59.73
261.328	-3.75
261.544	-24.23
261.761	-32.43
261.977	37.2
262.193	8.53
262.409	22.87
262.626	-44.71
262.842	4.44
263.058	51.54
263.274	72.02
263.49	10.58
263.707	61.78
263.923	39.25
264.139	37.2
264.355	24.92
264.571	-1.71
264.787	45.4
265.004	55.64
265.22	20.82
265.436	-16.04
265.652	69.97
265.868	55.64
266.084	33.11
266.3	53.59
266.516	8.53
266.732	98.64
266.948	67.92
267.164	22.87
267.38	69.97
267.596	24.92
267.812	55.64
268.028	43.35
268.244	29.01
268.46	47.44
268.676	20.82
268.892	57.68
269.108	67.92
269.324	20.82
269.54	72.02
269.756	57.68
269.972	-32.43
270.188	49.49
270.403	-1.71
270.619	39.25
270.835	8.53
271.051	63.83
271.267	-57
271.483	35.16
271.698	82.26
271.914	12.63
272.13	102.74
272.346	67.92
272.562	74.07
272.777	31.06
272.993	14.68
273.209	24.92
273.425	57.68
273.64	78.16
273.856	6.49
274.072	0.34
274.287	61.78
274.503	0.34
274.719	24.92
274.934	18.77
275.15	-28.33
275.366	31.06
275.581	-32.43
275.797	55.64
276.012	47.44
276.228	-13.99
276.444	8.53
276.659	76.12
276.875	22.87
277.09	39.25
277.306	35.16
277.521	63.83
277.737	0.34
277.952	88.4
278.168	18.77
278.383	41.3
278.599	33.11
278.814	0.34
279.03	106.84
279.245	16.73
279.461	72.02
279.676	41.3
279.892	-3.75
280.107	31.06
280.322	-30.38
280.538	12.63
280.753	-48.81
280.969	45.4
281.184	-28.33
281.399	98.64
281.615	98.64
281.83	84.31
282.045	31.06
282.26	0.34
282.476	-44.71
282.691	104.79
282.906	8.53
283.122	33.11
283.337	-22.19
283.552	33.11
283.767	12.63
283.983	45.4
284.198	6.49
284.413	74.07
284.628	14.68
284.843	14.68
285.058	88.4
285.274	16.73
285.489	47.44
285.704	74.07
285.919	14.68
286.134	12.63
286.349	-1.71
286.564	59.73
286.779	53.59
286.995	33.11
287.21	-1.71
287.425	45.4
287.64	49.49
287.855	37.2
288.07	24.92
288.285	123.22
288.5	137.56
288.715	-11.95
288.93	39.25
289.145	-5.8
289.36	33.11
289.575	2.39
289.79	84.31
290.004	-7.85
290.219	29.01
290.434	-13.99
290.649	55.64
290.864	35.16
291.079	31.06
291.294	-5.8
291.509	-20.14
291.724	65.88
291.938	0.34
292.153	10.58
292.368	63.83
292.583	65.88
292.798	47.44
293.012	33.11
293.227	12.63
293.442	94.55
293.657	-18.09
293.871	141.65
294.086	49.49
294.301	96.6
294.516	-26.28
294.73	53.59
294.945	-1.71
295.16	51.54
295.374	31.06
295.589	29.01
295.804	14.68
296.018	45.4
296.233	49.49
296.447	53.59
296.662	-1.71
296.877	12.63
297.091	-32.43
297.306	41.3
297.52	6.49
297.735	115.03
297.949	37.2
298.164	41.3
298.378	45.4
298.593	24.92
298.807	-3.75
299.022	90.45
299.236	74.07
299.451	8.53
299.665	57.68
299.88	104.79
300.094	-48.81
300.309	39.25
300.523	-20.14
300.737	72.02
300.952	61.78
301.166	80.21
301.381	-46.76
301.595	-3.75
301.809	31.06
302.024	10.58
302.238	-38.57
302.452	55.64
302.667	-9.9
302.881	84.31
303.095	69.97
303.309	53.59
303.524	39.25
303.738	-7.85
303.952	35.16
304.166	16.73
304.381	-44.71
304.595	16.73
304.809	45.4
305.023	59.73
305.237	37.2
305.452	29.01
305.666	29.01
305.88	12.63
306.094	29.01
306.308	45.4
306.522	35.16
306.736	41.3
306.95	57.68
307.164	0.34
307.379	29.01
307.593	69.97
307.807	33.11
308.021	106.84
308.235	0.34
308.449	76.12
308.663	53.59
308.877	112.98
309.091	41.3
309.305	10.58
309.519	18.77
309.733	80.21
309.947	6.49
310.161	-26.28
310.374	86.36
310.588	53.59
310.802	35.16
311.016	31.06
311.23	18.77
311.444	26.96
311.658	4.44
311.872	65.88
312.085	53.59
312.299	41.3
312.513	65.88
312.727	14.68
312.941	-46.76
313.154	16.73
313.368	41.3
313.582	117.08
313.796	-22.19
314.009	-11.95
314.223	86.36
314.437	47.44
314.651	96.6
314.864	67.92
315.078	-22.19
315.292	92.5
315.505	-1.71
315.719	78.16
315.933	-30.38
316.146	-22.19
316.36	6.49
316.573	-26.28
316.787	45.4
317.001	96.6
317.214	-1.71
317.428	43.35
317.641	33.11
317.855	18.77
318.068	43.35
318.282	31.06
318.495	115.03
318.709	106.84
318.922	14.68
319.136	22.87
319.349	78.16
319.563	8.53
319.776	86.36
319.99	24.92
320.203	49.49
320.417	57.68
320.63	35.16
320.843	131.41
321.057	104.79
321.27	72.02
321.483	86.36
321.697	119.12
321.91	4.44
322.124	16.73
322.337	-38.57
322.55	53.59
322.763	8.53
322.977	63.83
323.19	92.5
323.403	24.92
323.617	69.97
323.83	104.79
324.043	-3.75
324.256	41.3
324.469	-7.85
324.683	49.49
324.896	14.68
325.109	98.64
325.322	-54.95
325.535	45.4
325.748	22.87
325.962	35.16
326.175	-7.85
326.388	10.58
326.601	78.16
326.814	4.44
327.027	57.68
327.24	22.87
327.453	96.6
327.666	47.44
327.879	100.69
328.092	55.64
328.305	41.3
328.518	14.68
328.731	69.97
328.944	86.36
329.157	-7.85
329.37	10.58
329.583	78.16
329.796	14.68
330.009	53.59
330.222	47.44
330.435	82.26
330.648	63.83
330.861	90.45
331.073	51.54
331.286	45.4
331.499	49.49
331.712	47.44
331.925	41.3
332.138	-5.8
332.35	65.88
332.563	22.87
332.776	53.59
332.989	12.63
333.202	6.49
333.414	65.88
333.627	10.58
333.84	-7.85
334.053	78.16
334.265	78.16
334.478	-3.75
334.691	0.34
334.903	63.83
335.116	35.16
335.329	8.53
335.541	45.4
335.754	84.31
335.966	69.97
336.179	16.73
336.392	110.93
336.604	104.79
336.817	18.77
337.029	14.68
337.242	37.2
337.454	18.77
337.667	-9.9
337.88	55.64
338.092	47.44
338.305	65.88
338.517	-5.8
338.729	86.36
338.942	76.12
339.154	51.54
339.367	16.73
339.579	41.3
339.792	41.3
340.004	76.12
340.217	63.83
340.429	53.59
340.641	55.64
340.854	49.49
341.066	-26.28
341.278	80.21
341.491	121.17
341.703	102.74
341.915	16.73
342.128	63.83
342.34	0.34
342.552	-24.23
342.764	29.01
342.977	37.2
343.189	78.16
343.401	18.77
343.613	-3.75
343.826	43.35
344.038	53.59
344.25	67.92
344.462	31.06
344.674	53.59
344.886	76.12
345.099	53.59
345.311	24.92
345.523	47.44
345.735	-40.62
345.947	67.92
346.159	82.26
346.371	84.31
346.583	10.58
346.795	78.16
347.007	90.45
347.219	41.3
347.431	69.97
347.643	74.07
347.855	59.73
348.067	35.16
348.279	-40.62
348.491	26.96
348.703	47.44
348.915	41.3
349.127	22.87
349.339	59.73
349.551	76.12
349.763	29.01
349.975	59.73
350.187	37.2
350.399	100.69
350.61	94.55
350.822	-7.85
351.034	69.97
351.246	65.88
351.458	20.82
351.669	26.96
351.881	63.83
352.093	125.27
352.305	84.31
352.517	43.35
352.728	72.02
352.94	10.58
353.152	102.74
353.363	55.64
353.575	98.64
353.787	127.32
353.999	65.88
354.21	14.68
354.422	14.68
354.633	112.98
354.845	4.44
355.057	100.69
355.268	57.68
355.48	55.64
355.692	10.58
355.903	4.44
356.115	-40.62
356.326	24.92
356.538	2.39
356.749	41.3
356.961	24.92
357.172	22.87
357.384	-34.47
357.595	84.31
357.807	121.17
358.018	2.39
358.23	-7.85
358.441	112.98
358.653	100.69
358.864	55.64
359.075	0.34
359.287	33.11
359.498	51.54
359.709	49.49
359.921	74.07
360.132	6.49
360.344	24.92
360.555	10.58
360.766	24.92
360.977	121.17
361.189	18.77
361.4	16.73
361.611	115.03
361.823	76.12
362.034	65.88
362.245	33.11
362.456	6.49
362.667	106.84
362.879	-36.52
363.09	16.73
363.301	86.36
363.512	-54.95
363.723	35.16
363.935	74.07
364.146	26.96
364.357	4.44
364.568	49.49
364.779	-3.75
364.99	53.59
365.201	74.07
365.412	45.4
365.623	16.73
365.834	76.12
366.045	41.3
366.256	94.55
366.467	43.35
366.678	0.34
366.889	53.59
367.1	16.73
367.311	6.49
367.522	24.92
367.733	98.64
367.944	115.03
368.155	20.82
368.366	65.88
368.577	127.32
368.788	12.63
368.999	59.73
369.209	41.3
369.42	94.55
369.631	123.22
369.842	92.5
370.053	84.31
370.264	51.54
370.474	88.4
370.685	74.07
370.896	72.02
371.107	45.4
371.317	65.88
371.528	6.49
371.739	63.83
371.95	100.69
372.16	41.3
372.371	35.16
372.582	35.16
372.792	94.55
373.003	127.32
373.214	-1.71
373.424	24.92
373.635	16.73
373.846	94.55
374.056	57.68
374.267	41.3
374.477	57.68
374.688	51.54
374.898	61.78
375.109	20.82
375.319	59.73
375.53	39.25
375.74	102.74
375.951	69.97
376.161	51.54
376.372	43.35
376.582	41.3
376.793	-1.71
377.003	22.87
377.214	59.73
377.424	67.92
377.635	33.11
377.845	110.93
378.055	92.5
378.266	45.4
378.476	61.78
378.686	61.78
378.897	-22.19
379.107	92.5
379.317	74.07
379.528	35.16
379.738	104.79
379.948	33.11
380.158	100.69
380.369	8.53
380.579	31.06
380.789	53.59
380.999	59.73
381.21	67.92
381.42	100.69
381.63	-22.19
381.84	92.5
382.05	65.88
382.261	59.73
382.471	94.55
382.681	86.36
382.891	49.49
383.101	16.73
383.311	104.79
383.521	39.25
383.731	43.35
383.941	96.6
384.151	72.02
384.361	88.4
384.571	35.16
384.781	84.31
384.991	63.83
385.201	84.31
385.411	41.3
385.621	78.16
385.831	63.83
386.041	18.77
386.251	26.96
386.461	78.16
386.671	24.92
386.881	59.73
387.091	33.11
387.301	137.56
387.511	4.44
387.72	84.31
387.93	82.26
388.14	2.39
388.35	33.11
388.56	31.06
388.769	51.54
388.979	0.34
389.189	45.4
389.399	20.82
389.609	78.16
389.818	57.68
390.028	45.4
390.238	63.83
390.447	106.84
390.657	123.22
390.867	67.92
391.076	98.64
391.286	84.31
391.496	24.92
391.705	59.73
391.915	55.64
392.125	43.35
392.334	80.21
392.544	112.98
392.753	119.12
392.963	22.87
393.172	69.97
393.382	-3.75
393.591	112.98
393.801	53.59
394.01	65.88
394.22	49.49
394.429	119.12
394.639	18.77
394.848	22.87
395.058	119.12
395.267	43.35
395.477	149.84
395.686	96.6
395.895	135.51
396.105	121.17
396.314	78.16
396.524	-1.71
396.733	22.87
396.942	139.6
397.152	80.21
397.361	33.11
397.57	143.7
397.78	119.12
397.989	141.65
398.198	135.51
398.407	86.36
398.617	143.7
398.826	90.45
399.035	108.88
399.244	59.73
399.453	143.7
399.663	121.17
399.872	147.8
400.081	0.34
400.29	100.69
400.499	145.75
400.708	90.45
400.917	172.37
401.127	119.12
401.336	76.12
401.545	186.71
401.754	33.11
401.963	192.85
402.172	98.64
402.381	117.08
402.59	131.41
402.799	153.94
403.008	98.64
403.217	180.56
403.426	205.14
403.635	92.5
403.844	155.99
404.053	147.8
404.262	135.51
404.471	162.13
404.68	86.36
404.888	160.08
405.097	207.19
405.306	147.8
405.515	172.37
405.724	141.65
405.933	180.56
406.142	184.66
406.35	180.56
406.559	188.75
406.768	201.04
406.977	235.86
407.185	196.95
407.394	229.71
407.603	229.71
407.812	252.24
408.02	213.33
408.229	201.04
408.438	170.32
408.646	268.63
408.855	315.73
409.064	246.1
409.272	297.3
409.481	201.04
409.69	299.34
409.898	254.29
410.107	352.59
410.315	350.54
410.524	293.2
410.733	373.07
410.941	303.44
411.15	362.83
411.358	403.79
411.567	473.42
411.775	405.84
411.984	491.85
412.192	463.18
412.401	418.13
412.609	524.62
412.818	534.86
413.026	498
413.234	459.09
413.443	536.91
413.651	487.76
413.86	663.88
414.068	567.63
414.276	655.69
414.485	536.91
414.693	622.92
414.901	710.99
415.11	727.37
415.318	647.5
415.526	688.46
415.734	794.95
415.943	799.05
416.151	891.21
416.359	872.78
416.567	876.87
416.776	960.84
416.984	962.89
417.192	942.41
417.4	983.37
417.608	1007.94
417.817	1061.19
418.025	1110.34
418.233	1122.63
418.441	1073.48
418.649	1081.67
418.857	1345.86
419.065	1329.47
419.273	1339.71
419.481	1352
419.689	1427.78
419.897	1368.38
420.105	1554.75
420.313	1667.39
420.521	1614.14
420.729	1734.97
420.937	1777.98
421.145	1823.03
421.353	1849.66
421.561	1886.52
421.769	1958.2
421.977	2158.9
422.185	2105.65
422.393	2165.04
422.601	2234.68
422.809	2277.68
423.017	2351.41
423.224	2351.41
423.432	2564.4
423.64	2464.05
423.848	2736.43
424.056	2691.37
424.263	2984.23
424.471	2933.03
424.679	2945.32
424.887	3008.81
425.094	3223.84
425.302	3250.47
425.51	3506.46
425.718	3442.98
425.925	3518.75
426.133	3619.1
426.341	3860.76
426.548	4024.6
426.756	3957.02
426.964	3873.05
427.171	4311.32
427.379	4382.99
427.586	4526.35
427.794	4628.75
428.001	4837.64
428.209	5003.53
428.417	5050.63
428.624	5390.6
428.832	5310.72
429.039	5382.4
429.247	5325.06
429.454	5767.42
429.662	6211.83
429.869	5699.84
430.076	6091
430.284	5859.58
430.491	6320.37
430.699	6586.61
430.906	6465.78
431.114	6568.18
431.321	6971.63
431.528	7129.32
431.736	7602.4
431.943	7895.26
432.15	7393.51
432.358	7821.53
432.565	8175.83
432.772	8089.82
432.979	8636.63
433.187	8640.72
433.394	8779.98
433.601	9275.59
433.808	9373.89
434.016	9277.64
434.223	9627.84
434.43	10436.79
434.637	9914.56
434.844	10891.44
435.052	10809.52
435.259	10617.01
435.466	10948.78
435.673	10905.77
435.88	11647.14
436.087	12208.28
436.294	12495
436.501	11813.03
436.708	12210.33
436.915	12701.84
437.122	13144.2
437.329	13119.63
437.537	13492.36
437.743	13758.6
437.95	13711.49
438.157	14385.27
438.364	14915.7
438.571	14796.92
438.778	14829.68
438.985	16365.66
439.192	15523.94
439.399	16113.76
439.606	15888.48
439.813	16658.52
440.02	17903.68
440.227	17528.91
440.433	17322.06
440.64	17889.35
440.847	17821.77
441.054	17956.93
441.261	19218.48
441.467	18913.33
441.674	19648.55
441.881	20301.86
442.088	19965.99
442.294	20125.73
442.501	20621.34
442.708	21026.84
442.914	21745.67
443.121	23117.81
443.328	22239.23
443.534	23889.9
443.741	22917.11
443.948	22628.35
444.154	24182.76
444.361	24158.18
444.568	24506.34
444.774	24326.11
444.981	24692.7
445.187	25673.68
445.394	26251.2
445.6	26126.28
445.807	28538.79
446.013	27363.25
446.22	28149.67
446.426	29304.73
446.633	29489.04
446.839	30173.06
447.046	28970.91
447.252	30691.2
447.459	31053.69
447.665	30349.19
447.871	31864.69
448.078	33371.99
448.284	31598.45
448.491	32773.99
448.697	33986.38
448.903	34539.33
449.11	34588.49
449.316	34166.6
449.522	34484.04
449.728	35903.28
449.935	35950.38
450.141	35972.91
450.347	36611.88
450.553	35321.66
450.76	36022.06
450.966	37136.16
451.172	36849.44
451.378	37811.99
451.584	37146.4
451.791	37627.67
451.997	37644.05
452.203	38340.36
452.409	38295.31
452.615	38424.33
452.821	36773.67
453.027	36603.69
453.233	38586.12
453.44	36908.83
453.646	37197.6
453.852	37402.39
454.058	37807.89
454.264	36493.1
454.47	37445.4
454.676	36095.79
454.882	37859.09
455.088	34484.04
455.294	35413.82
455.5	35866.42
455.705	36374.31
455.911	34682.69
456.117	34365.26
456.323	33384.28
456.529	32059.24
456.735	33400.66
456.941	32368.49
457.147	32028.52
457.352	31004.54
457.558	30467.97
457.764	30832.51
457.97	30048.14
458.176	29398.93
458.381	29624.21
458.587	28164.01
458.793	28209.06
458.999	26716.09
459.204	28503.97
459.41	27862.96
459.616	25862.09
459.821	25802.7
460.027	25552.85
460.233	25274.32
460.438	24133.61
460.644	24391.65
460.85	23283.7
461.055	23003.13
461.261	22693.88
461.466	21338.13
461.672	20324.38
461.878	21872.65
462.083	20500.51
462.289	20035.62
462.494	19836.97
462.7	19001.4
462.905	18477.12
463.111	19179.57
463.316	19232.82
463.522	18942
463.727	18686.01
463.932	18800.69
464.138	18595.9
464.343	18493.5
464.549	17899.59
464.754	18593.85
464.959	18358.33
465.165	18440.25
465.37	17799.24
465.575	17354.83
465.781	18073.67
465.986	17844.29
466.191	17424.46
466.397	17111.12
466.602	16330.84
466.807	16740.44
467.012	16894.04
467.218	16535.64
467.423	16685.14
467.628	16726.1
467.833	17074.26
468.038	16554.07
468.244	16279.64
468.449	16889.94
468.654	16195.68
468.859	16052.32
469.064	16044.13
469.269	15405.16
469.474	15525.99
469.679	16001.12
469.885	15593.58
470.09	15634.53
470.295	15491.18
470.5	15079.54
470.705	15356.01
470.91	14821.49
471.115	14880.88
471.32	14942.32
471.525	14948.47
471.73	14704.76
471.935	14395.51
472.139	13883.52
472.344	14131.33
472.549	14106.75
472.754	13994.11
472.959	13594.76
473.164	13437.06
473.369	13168.78
473.574	13750.4
473.778	13437.06
473.983	13377.67
474.188	13236.36
474.393	12568.73
474.598	12798.1
474.802	12648.6
475.007	12464.28
475.212	12603.54
475.417	12179.61
475.621	12003.49
475.826	12341.4
476.031	12234.91
476.235	11548.84
476.44	11800.74
476.645	11600.04
476.849	11853.98
477.054	11542.69
477.259	11538.6
477.463	11319.46
477.668	11215.02
477.872	11233.45
478.077	11036.84
478.282	10725.55
478.486	10924.21
478.691	10686.64
478.895	10717.36
479.1	10604.72
479.304	10531
479.509	10526.9
479.713	10348.73
479.918	10039.48
480.122	10006.72
480.326	10096.83
480.531	10211.51
480.735	10156.22
480.94	10006.72
481.144	10219.71
481.348	9707.71
481.553	10047.68
481.757	9699.52
481.961	9957.57
482.166	10000.57
482.37	9949.37
482.574	9588.93
482.778	9939.13
482.983	10057.92
483.187	9869.5
483.391	9724.1
483.595	9836.74
483.8	9619.65
484.004	9818.3
484.208	9855.17
484.412	9820.35
484.616	9771.2
484.821	9957.57
485.025	9574.6
485.229	9896.13
485.433	9558.21
485.637	9724.1
485.841	9730.24
486.045	9666.75
486.249	9789.63
486.453	9787.58
486.657	9609.41
486.861	10006.72
487.065	9568.45
487.269	9957.57
487.473	9609.41
487.677	9738.43
487.881	9859.26
488.085	9707.71
488.289	9793.73
488.493	9844.93
488.697	9832.64
488.901	9894.08
489.105	9986.24
489.309	9820.35
489.512	9722.05
489.716	9875.65
489.92	9926.85
490.124	9953.47
490.328	10004.67
490.531	9814.21
490.735	10086.59
490.939	10004.67
491.143	9859.26
491.346	9785.54
491.55	10326.2
491.754	10281.14
491.958	10275
492.161	10188.99
492.365	10121.4
492.569	10219.71
492.772	10354.87
492.976	10416.31
493.18	10528.95
493.383	10365.11
493.587	10539.19
493.79	10623.16
493.994	10614.96
494.197	10629.3
494.401	11008.17
494.605	10756.27
494.808	10946.73
495.012	11208.87
495.215	11161.77
495.419	11169.96
495.622	11278.51
495.825	11227.31
496.029	11583.65
496.232	11507.88
496.436	11444.39
496.639	11860.13
496.843	11706.53
497.046	11958.43
497.249	11974.81
497.453	12140.7
497.656	12130.46
497.859	12392.6
498.063	12495
498.266	12796.05
498.469	12759.19
498.673	12703.89
498.876	12968.08
499.079	13156.49
499.282	13160.59
499.485	13459.59
499.689	13537.41
499.892	13609.09
500.095	13813.89
500.298	14059.65
500.501	13906.05
500.705	14119.04
500.908	14573.69
501.111	14733.43
501.314	14674.04
501.517	15177.84
501.72	15337.58
501.923	15161.45
502.126	15353.96
502.329	15870.05
502.532	15745.13
502.735	15800.42
502.938	15915.11
503.141	16046.18
503.344	16556.12
503.547	16232.54
503.75	16574.55
503.953	16918.61
504.156	17090.64
504.359	17211.47
504.562	17162.32
504.765	17989.7
504.968	17741.89
505.17	18237.5
505.373	18296.89
505.576	18444.35
505.779	18640.95
505.982	18868.28
506.185	18915.38
506.387	19343.41
506.59	19314.73
506.793	19673.13
506.996	19421.23
507.198	20267.04
507.401	19869.73
507.604	19992.61
507.807	20666.39
508.009	20389.92
508.212	20863
508.415	21243.92
508.617	21223.44
508.82	21536.78
509.022	21639.18
509.225	22083.59
509.428	22210.56
509.63	22241.28
509.833	22542.33
510.035	22999.03
510.238	22915.06
510.44	23011.32
510.643	23080.95
510.845	23519.21
511.048	23836.65
511.25	24084.45
511.453	24246.24
511.655	24844.25
511.858	24713.18
512.06	25034.71
512.262	25114.58
512.465	25133.01
512.667	25733.07
512.87	25731.02
513.072	25708.49
513.274	26494.91
513.477	26638.27
513.679	26722.24
513.881	27066.3
514.084	27207.61
514.286	27344.82
514.488	27324.34
514.69	28284.84
514.893	28237.73
515.095	28077.99
515.297	28962.72
515.499	28753.82
515.701	28917.66
515.904	29593.49
516.106	29521.81
516.308	29902.73
516.51	30349.19
516.712	30504.84
516.914	30623.62
517.116	31025.02
517.318	30949.25
517.52	31500.15
517.722	31223.67
517.925	31678.32
518.127	32042.86
518.329	32321.38
518.531	31852.4
518.733	32851.81
518.935	33230.68
519.136	32898.91
519.338	33720.15
519.54	33560.41
519.742	34019.15
519.944	33918.8
520.146	34449.22
520.348	34418.5
520.55	34604.87
520.752	34772.8
520.954	35591.99
521.155	35258.17
521.357	35860.27
521.559	35895.09
521.761	36556.58
521.963	36273.96
522.164	36466.47
522.366	37156.64
522.568	36701.99
522.77	37377.82
522.971	37539.61
523.173	37216.03
523.375	37945.11
523.576	37828.37
523.778	37879.57
523.98	37996.31
524.181	38635.27
524.383	38410
524.584	38815.49
524.786	38700.81
524.988	38973.19
525.189	39577.34
525.391	39591.67
525.592	39864.05
525.794	39694.07
525.995	40087.28
526.197	39984.88
526.398	39892.72
526.6	40118
526.801	40625.9
527.003	40347.37
527.204	40720.1
527.406	40666.86
527.607	40990.44
527.808	41533.15
528.01	40636.14
528.211	41219.81
528.412	41967.32
528.614	41322.21
528.815	41297.63
529.016	41920.21
529.218	41475.8
529.419	41799.38
529.62	42018.52
529.822	41780.95
530.023	41948.89
530.224	41594.59
530.425	41948.89
530.626	41664.22
530.828	41514.72
531.029	43019.97
531.23	42428.11
531.431	42165.97
531.632	42378.96
531.833	42039
532.035	42284.75
532.236	42600.14
532.437	42843.85
532.638	42088.15
532.839	42845.9
533.04	42745.55
533.241	42471.12
533.442	42854.09
533.643	42561.23
533.844	42464.97
534.045	42479.31
534.246	42557.13
534.447	43138.76
534.648	42381.01
534.849	42610.38
535.05	42692.3
535.251	42673.87
535.451	42657.48
535.652	42634.95
535.853	42917.57
536.054	43300.54
536.255	42839.75
536.456	42321.62
536.657	43159.23
536.857	42690.25
537.058	42591.95
537.259	42841.8
537.46	42815.18
537.66	42778.31
537.861	43065.03
538.062	42872.52
538.263	43075.27
538.463	42819.27
538.664	42794.7
538.865	42759.88
539.065	43288.26
539.266	42223.31
539.466	43030.21
539.667	42079.96
539.868	43036.36
540.068	42608.33
540.269	42661.58
540.469	42575.56
540.67	42444.49
540.87	42589.9
541.071	42659.53
541.271	42759.88
541.472	42706.63
541.672	42512.08
541.873	42550.99
542.073	42149.59
542.274	42821.32
542.474	42612.43
542.675	42165.97
542.875	42825.42
543.075	42493.64
543.276	42170.07
543.476	42405.58
543.676	42342.1
543.877	42598.09
544.077	42737.35
544.277	42168.02
544.478	42610.38
544.678	42663.63
544.878	42649.29
545.078	42426.06
545.279	42272.46
545.479	42194.64
545.679	42618.57
545.879	42501.84
546.079	42421.97
546.28	42204.88
546.48	41936.6
546.68	42686.15
546.88	42338
547.08	42174.16
547.28	42886.85
547.48	42102.48
547.68	42305.23
547.88	42249.94
548.081	42469.07
548.281	42000.08
548.481	41866.97
548.681	42372.81
548.881	41944.79
549.081	42094.29
549.28	41879.25
549.48	42639.05
549.68	42155.73
549.88	42624.71
550.08	42168.02
550.28	42149.59
550.48	41653.98
550.68	42280.66
550.88	41780.95
551.08	42000.08
551.279	42125.01
551.479	41711.32
551.679	41879.25
551.879	42188.5
552.079	42260.18
552.278	41780.95
552.478	41866.97
552.678	41582.3
552.878	41995.99
553.077	41885.4
553.277	41338.59
553.477	42102.48
553.676	41678.55
553.876	41977.56
554.076	41842.39
554.275	41864.92
554.475	41662.17
554.674	41762.52
554.874	41924.31
555.074	41584.35
555.273	41699.03
555.473	41608.92
555.672	41336.54
555.872	41182.94
556.071	41699.03
556.271	41434.85
556.47	40810.21
556.67	41148.13
556.869	41344.73
557.068	41510.62
557.268	41135.84
557.467	41295.58
557.667	41062.11
557.866	40926.95
558.065	40636.14
558.265	40877.8
558.464	40953.57
558.663	41547.48
558.863	40625.9
559.062	41230.05
559.261	40693.48
559.461	41109.22
559.66	40359.66
559.859	40718.06
560.058	40580.84
560.258	40722.15
560.457	40318.7
560.656	40427.24
560.855	40466.16
561.054	41017.06
561.253	39960.31
561.453	40728.3
561.652	40447.72
561.851	40500.97
562.05	39862.01
562.249	40031.99
562.448	40144.62
562.647	39958.26
562.846	40179.44
563.045	39661.3
563.244	40019.7
563.443	40109.81
563.642	39044.87
563.841	40019.7
564.04	39151.36
564.239	39982.84
564.438	39374.59
564.637	39902.96
564.836	39427.84
565.035	38881.03
565.234	39112.45
565.432	39462.65
565.631	38950.66
565.83	38907.65
566.029	39288.57
566.228	38967.04
566.427	38862.6
566.625	38827.78
566.824	38369.04
567.023	39386.88
567.222	38549.26
567.42	38795.01
567.619	38485.77
567.818	38477.58
568.016	38272.78
568.215	38700.81
568.414	38557.45
568.612	38930.18
568.811	38211.34
569.01	38356.75
569.208	37803.8
569.407	38180.62
569.605	37846.8
569.804	38205.2
570.002	37938.96
570.201	38110.99
570.4	37596.95
570.598	37216.03
570.797	37361.44
570.995	37424.92
571.193	37211.93
571.392	37529.37
571.59	37078.82
571.789	37211.93
571.987	37177.12
572.186	37435.16
572.384	36628.26
572.582	37109.54
572.781	37314.33
572.979	36394.79
573.177	36800.29
573.376	36706.09
573.574	36396.84
573.772	36439.85
573.971	36501.29
574.169	36183.85
574.367	36175.66
574.565	36339.5
574.763	36423.47
574.962	36040.5
575.16	35737.4
575.358	35739.44
575.556	35678
575.754	35991.34
575.952	35460.92
576.151	35641.14
576.349	35307.32
576.547	35493.69
576.745	35639.09
576.943	35206.97
577.141	35155.77
577.339	35356.47
577.537	35004.22
577.735	35032.89
577.933	34762.56
578.131	35196.73
578.329	34752.32
578.527	34719.56
578.725	34838.34
578.923	34907.97
579.121	34678.6
579.319	34617.16
579.516	34514.76
579.714	34369.35
579.912	34291.53
580.11	34197.32
580.308	33912.66
580.506	33754.96
580.704	33578.84
580.901	34017.1
581.099	34043.73
581.297	33523.54
581.495	33562.45
581.692	33716.05
581.89	33752.91
582.088	33398.62
582.285	33013.6
582.483	33288.03
582.681	33261.4
582.878	33242.97
583.076	32110.44
583.274	33075.04
583.471	32593.76
583.669	32483.17
583.866	32649.06
584.064	32657.25
584.262	32481.13
584.459	32679.78
584.657	32313.19
584.854	32780.13
585.052	31999.85
585.249	32388.97
585.447	32284.52
585.644	31967.09
585.841	31719.28
586.039	32141.16
586.236	31938.41
586.434	31819.63
586.631	31381.37
586.828	31403.89
587.026	31248.25
587.223	31541.11
587.42	31477.62
587.618	31481.72
587.815	30779.26
588.012	30975.87
588.21	30844.8
588.407	31016.83
588.604	30615.43
588.801	30793.6
588.999	30721.92
589.196	30594.95
589.393	30666.63
589.59	30592.9
589.787	30427.01
589.984	30224.26
590.182	30089.1
590.379	30379.91
590.576	30001.04
590.773	29814.67
590.97	29898.64
591.167	29835.15
591.364	29304.73
591.561	29781.9
591.758	29353.88
591.955	28997.53
592.152	29255.57
592.349	29075.35
592.546	29278.1
592.743	29280.15
592.94	28510.11
593.137	29106.07
593.334	29413.27
593.531	28702.62
593.727	29218.71
593.924	29132.7
594.121	28542.88
594.318	28589.99
594.515	28348.32
594.712	28819.36
594.908	28073.9
595.105	28397.48
595.302	27781.04
595.499	27948.97
595.696	28065.71
595.892	27778.99
596.089	27811.76
596.286	27537.33
596.482	27672.5
596.679	27537.33
596.876	27662.26
597.072	27520.95
597.269	27117.5
597.466	27328.44
597.662	27074.49
597.859	27221.94
598.055	27238.33
598.252	26759.1
598.448	27193.27
598.645	26689.47
598.841	26773.44
599.038	26734.53
599.234	26390.47
599.431	26238.92
599.627	26449.86
599.824	26408.9
600.02	26441.67
600.217	26017.74
600.413	25984.97
600.609	25950.15
600.806	25778.12
601.002	25706.45
601.198	25595.85
601.395	25558.99
601.591	25683.92
601.787	25935.82
601.984	25479.12
602.18	25599.95
602.376	25108.44
602.572	25223.12
602.769	25380.82
602.965	25057.24
603.161	25364.43
603.357	24702.94
603.553	25026.52
603.75	24913.88
603.946	24719.32
604.142	24799.19
604.338	24348.64
604.534	24696.8
604.73	24152.04
604.926	24012.77
605.122	24303.59
605.318	24018.92
605.514	24240.1
605.71	24119.27
605.906	23902.18
606.102	24162.28
606.298	24020.97
606.494	23900.14
606.69	24088.55
606.886	23838.7
607.082	23527.41
607.278	23678.96
607.474	23298.03
607.67	23740.4
607.866	23166.96
608.062	23869.42
608.257	23232.5
608.453	23343.09
608.649	23338.99
608.845	23091.19
609.041	23128.05
609.236	23304.18
609.432	23007.22
609.628	23142.39
609.824	22933.5
610.019	22816.76
610.215	22945.78
610.411	22853.62
610.606	22697.98
610.802	22820.86
610.998	22843.38
611.193	22640.64
611.389	22302.72
611.584	22812.67
611.78	22517.76
611.976	22370.3
612.171	22335.49
612.367	22607.87
612.562	22278.15
612.758	22003.72
612.953	22159.36
613.149	22546.43
613.344	21821.45
613.539	22444.03
613.735	21915.65
613.93	22306.82
614.126	21669.9
614.321	22372.35
614.517	21895.18
614.712	21858.31
614.907	22259.71
615.103	22018.05
615.298	21723.15
615.493	22108.16
615.688	21424.14
615.884	22036.49
616.079	21487.63
616.274	21579.79
616.47	21477.39
616.665	21422.09
616.86	21393.42
617.055	21819.4
617.25	21370.9
617.445	21571.6
617.641	21153.81
617.836	21172.24
618.031	20957.21
618.226	21477.39
618.421	20914.2
618.616	21049.36
618.811	20754.46
619.006	21006.36
619.201	20414.49
619.396	20830.23
619.591	20512.8
619.786	20596.76
619.981	20162.59
620.176	20547.61
620.371	20258.85
620.566	20205.6
620.761	20066.34
620.956	19959.84
621.151	19859.49
621.346	20254.75
621.541	19677.23
621.735	19652.65
621.93	19611.69
622.125	19464.24
622.32	19128.37
622.515	19402.8
622.709	19257.39
622.904	19415.09
623.099	19226.67
623.294	19122.23
623.488	18855.99
623.683	19073.07
623.878	18540.6
624.072	18831.41
624.267	18524.22
624.462	18331.71
624.656	18122.82
624.851	17973.32
625.046	18010.18
625.24	17995.84
625.435	17893.44
625.629	17643.59
625.824	17731.65
626.018	17762.37
626.213	17215.57
626.407	17565.77
626.602	17104.98
626.796	17287.25
626.991	17512.52
627.185	17168.46
627.38	16957.52
627.574	16830.55
627.768	16779.35
627.963	16670.81
628.157	16662.62
628.352	16697.43
628.546	16236.64
628.74	16709.72
628.935	16261.21
629.129	16476.25
629.323	15921.25
629.517	15915.11
629.712	15913.06
629.906	15992.93
630.1	15648.87
630.294	15808.61
630.489	15534.18
630.683	15571.05
630.877	15403.11
631.071	15368.3
631.265	15339.63
631.459	15292.52
631.653	15059.06
631.848	15118.45
632.042	14942.32
632.236	14940.27
632.43	14729.33
632.624	14954.61
632.818	14475.38
633.012	14545.02
633.206	14483.58
633.4	14497.91
633.594	14137.47
633.788	14520.44
633.982	14391.42
634.176	14395.51
634.369	14276.73
634.563	14104.7
634.757	13881.47
634.951	13826.18
635.145	13959.3
635.339	13992.06
635.533	13734.02
635.726	13551.75
635.92	13455.5
636.114	13713.54
636.308	13494.41
636.501	13445.26
636.695	13492.36
636.889	13125.77
637.083	13234.32
637.276	12904.59
637.47	12814.48
637.664	12972.18
637.857	12755.09
638.051	12914.83
638.244	12632.21
638.438	12796.05
638.632	12570.77
638.825	12327.07
639.019	12492.95
639.212	12187.8
639.406	12394.65
639.599	12222.62
639.793	12380.31
639.986	11929.76
640.18	12304.54
640.373	12003.49
640.567	12030.11
640.76	12114.08
640.954	11733.15
641.147	11618.47
641.34	11718.82
641.534	11532.45
641.727	11571.36
641.92	11620.52
642.114	11403.43
642.307	11344.04
642.5	11409.58
642.694	11348.14
642.887	11288.75
643.08	11624.61
643.273	11075.76
643.467	11192.49
643.66	10760.37
643.853	10999.98
644.046	10844.34
644.239	10723.51
644.432	10645.68
644.626	10664.11
644.819	10533.04
645.012	10487.99
645.205	10541.24
645.398	10625.2
645.591	10299.58
645.784	10358.97
645.977	10291.38
646.17	10203.32
646.363	10174.65
646.556	10010.81
646.749	10057.92
646.942	10197.18
647.135	9887.93
647.328	9998.52
647.521	10023.1
647.714	9918.65
647.907	9676.99
648.099	9744.58
648.292	9734.34
648.485	9590.98
648.678	9500.87
648.871	9513.16
649.064	9435.33
649.256	9648.32
649.449	9408.71
649.642	9334.98
649.835	9277.64
650.027	9232.58
650.22	9081.03
650.413	9091.27
650.605	9173.19
650.798	8896.72
650.991	8804.56
651.183	9027.79
651.376	8741.07
651.568	8888.53
651.761	8802.51
651.954	8751.31
652.146	8861.9
652.339	8702.16
652.531	8673.49
652.724	8571.09
652.916	8421.59
653.109	8452.31
653.301	8421.59
653.494	8540.37
653.686	8202.46
653.879	8294.61
654.071	8184.02
654.263	8259.8
654.456	8184.02
654.648	8255.7
654.84	8106.2
655.033	7995.61
655.225	7839.97
655.417	7885.02
655.61	7913.69
655.802	7948.51
655.994	7925.98
656.186	7989.47
656.379	7655.65
656.571	7878.88
656.763	7741.66
656.955	7647.46
657.148	7569.63
657.34	7442.66
657.532	7543.01
657.724	7377.12
657.916	7495.91
658.108	7375.08
658.3	7307.49
658.492	7295.21
658.684	7241.96
658.876	7244.01
659.068	7246.05
659.26	7110.89
659.452	7100.65
659.644	7031.02
659.836	6865.13
660.028	6869.23
660.22	6891.76
660.412	6899.95
660.604	6893.8
660.796	6877.42
660.988	6926.57
661.18	6797.55
661.372	6660.34
661.563	6633.71
661.755	6709.49
661.947	6742.25
662.139	6494.45
662.331	6463.73
662.522	6648.05
662.714	6602.99
662.906	6445.3
663.097	6338.8
663.289	6347
663.481	6400.24
663.673	6291.7
663.864	6242.55
664.056	6123.77
664.247	6134.01
664.439	5984.51
664.631	6183.16
664.822	6031.61
665.014	6158.58
665.205	6142.2
665.397	6019.32
665.588	5908.73
665.78	5785.85
665.971	5726.46
666.163	6043.9
666.354	5808.38
666.546	5910.78
666.737	5783.81
666.929	5730.56
667.12	5810.43
667.311	5587.2
667.503	5683.45
667.694	5562.62
667.885	5759.23
668.077	5568.77
668.268	5447.94
668.459	5456.13
668.651	5333.25
668.842	5470.47
669.033	5581.06
669.224	5376.26
669.416	5462.27
669.607	5386.5
669.798	5452.03
669.989	5386.5
670.18	5347.59
670.371	5290.24
670.563	5460.23
670.754	5343.49
670.945	5095.69
671.136	5124.36
671.327	5175.56
671.518	5085.45
671.709	5230.85
671.9	5054.73
672.091	5148.93
672.282	5069.06
672.473	4931.85
672.664	4927.75
672.855	5009.67
673.046	4935.95
673.237	4886.79
673.428	4827.4
673.619	5073.16
673.809	4702.48
674	4839.69
674.191	4784.4
674.382	4858.12
674.573	4983.05
674.764	4817.16
674.954	4800.78
675.145	4790.54
675.336	4667.66
675.527	4786.44
675.717	4772.11
675.908	4598.03
676.099	4698.38
676.289	4733.2
676.48	4761.87
676.671	4550.93
676.861	4526.35
677.052	4792.59
677.243	4450.58
677.433	4622.61
677.624	4522.26
677.814	4550.93
678.005	4448.53
678.195	4638.99
678.386	4557.07
678.576	4426
678.767	4266.26
678.957	4544.78
679.148	4630.8
679.338	4395.28
679.529	4421.91
679.719	4276.5
679.909	4354.32
680.1	4413.71
680.29	4270.36
680.481	4292.88
680.671	4253.97
680.861	4196.63
681.052	4364.56
681.242	4137.24
681.432	4305.17
681.622	4346.13
681.813	4135.19
682.003	4276.5
682.193	4094.23
682.383	4235.54
682.573	4221.2
682.764	4276.5
682.954	4163.86
683.144	4182.29
683.334	4231.44
683.524	4202.77
683.714	4114.71
683.904	4206.87
684.094	4170.01
684.284	4108.57
684.474	3959.06
684.664	4096.28
684.854	4061.46
685.044	4006.17
685.234	3952.92
685.424	4067.61
685.614	3971.35
685.804	3934.49
685.994	3981.59
686.184	3957.02
686.374	4000.02
686.564	3856.67
686.753	3895.58
686.943	3774.75
687.133	3723.55
687.323	3864.86
687.513	3871
687.702	3864.86
687.892	3842.33
688.082	3703.07
688.272	3678.49
688.461	3684.64
688.651	3723.55
688.841	3649.82
689.03	3690.78
689.22	3694.88
689.41	3649.82
689.599	3662.11
689.789	3725.6
689.979	3703.07
690.168	3549.47
690.358	3475.74
690.547	3522.85
690.737	3668.25
690.926	3531.04
691.116	3422.5
691.305	3551.52
691.495	3383.59
691.684	3469.6
691.874	3426.59
692.063	3373.35
692.252	3457.31
692.442	3508.51
692.631	3244.32
692.82	3318.05
693.01	3293.48
693.199	3285.28
693.388	3205.41
693.578	3256.61
693.767	3285.28
693.956	3199.27
694.146	3178.79
694.335	3320.1
694.524	3195.17
694.713	3105.06
694.902	3170.6
695.092	3109.16
695.281	3031.34
695.47	3244.32
695.659	3060.01
695.848	3234.08
696.037	2937.13
696.226	3004.71
696.415	3019.05
696.604	3039.53
696.793	2937.13
696.982	3019.05
697.171	3072.29
697.36	2924.84
697.549	2873.64
697.738	2980.14
697.927	2939.18
698.116	2863.4
698.305	2896.17
698.494	3031.34
698.683	2867.5
698.872	2965.8
699.061	2781.48
699.25	2867.5
699.438	2767.15
699.627	2894.12
699.816	2806.06
700.005	2742.57
700.193	2855.21
700.382	2916.65
700.571	2812.2
700.76	2724.14
700.948	2865.45
701.137	2863.4
701.326	2857.26
701.514	2736.43
701.703	2777.39
701.892	2691.37
702.08	2826.54
702.269	2724.14
702.457	2621.74
702.646	2728.24
702.834	2648.36
703.023	2523.44
703.212	2689.32
703.4	2683.18
703.589	2607.41
703.777	2705.71
703.965	2648.36
704.154	2668.84
704.342	2582.83
704.531	2539.82
704.719	2568.49
704.907	2656.56
705.096	2580.78
705.284	2638.13
705.472	2631.98
705.661	2664.75
705.849	2758.96
706.037	2621.74
706.226	2629.93
706.414	2672.94
706.602	2580.78
706.79	2619.69
706.979	2513.2
707.167	2666.8
707.355	2459.95
707.543	2638.13
707.731	2457.9
707.919	2537.77
708.107	2562.35
708.296	2523.44
708.484	2550.06
708.672	2593.07
708.86	2562.35
709.048	2416.94
709.236	2568.49
709.424	2535.73
709.612	2521.39
709.8	2625.84
709.988	2545.97
710.176	2445.62
710.364	2552.11
710.551	2576.69
710.739	2455.86
710.927	2490.67
711.115	2492.72
711.303	2560.3
711.491	2531.63
711.679	2572.59
711.866	2531.63
712.054	2613.55
712.242	2488.62
712.43	2629.93
712.617	2498.86
712.805	2412.85
712.993	2355.51
713.181	2459.95
713.368	2451.76
713.556	2515.25
713.744	2431.28
713.931	2443.57
714.119	2578.73
714.306	2511.15
714.494	2421.04
714.682	2478.38
714.869	2361.65
715.057	2535.73
715.244	2418.99
715.432	2453.81
715.619	2470.19
715.807	2513.2
715.994	2462
716.182	2361.65
716.369	2449.71
716.556	2494.77
716.744	2470.19
716.931	2433.33
717.119	2521.39
717.306	2441.52
717.493	2478.38
717.681	2351.41
717.868	2371.89
718.055	2519.34
718.242	2421.04
718.43	2400.56
718.617	2412.85
718.804	2427.18
718.991	2462
719.179	2523.44
719.366	2455.86
719.553	2548.01
719.74	2459.95
719.927	2433.33
720.114	2423.09
720.301	2525.49
720.488	2416.94
720.676	2373.94
720.863	2562.35
721.05	2537.77
721.237	2472.24
721.424	2421.04
721.611	2373.94
721.798	2357.55
721.985	2408.75
722.172	2433.33
722.358	2427.18
722.545	2449.71
722.732	2449.71
722.919	2398.51
723.106	2365.75
723.293	2343.22
723.48	2572.59
723.667	2410.8
723.853	2496.82
724.04	2507.06
724.227	2474.29
724.414	2513.2
724.6	2337.07
724.787	2482.48
724.974	2552.11
725.161	2343.22
725.347	2472.24
725.534	2466.1
725.72	2445.62
725.907	2406.7
726.094	2382.13
726.28	2388.27
726.467	2418.99
726.653	2478.38
726.84	2443.57
727.027	2519.34
727.213	2412.85
727.4	2490.67
727.586	2371.89
727.773	2404.66
727.959	2437.42
728.145	2470.19
728.332	2412.85
728.518	2466.1
728.705	2330.93
728.891	2382.13
729.077	2398.51
729.264	2412.85
729.45	2421.04
729.636	2435.38
729.823	2455.86
730.009	2373.94
730.195	2369.84
730.382	2500.91
730.568	2402.61
730.754	2480.43
730.94	2447.66
731.126	2418.99
731.313	2439.47
731.499	2500.91
731.685	2316.59
731.871	2425.14
732.057	2326.83
732.243	2337.07
732.429	2472.24
732.615	2382.13
732.801	2292.02
732.987	2339.12
733.173	2218.29
733.359	2378.03
733.545	2332.98
733.731	2341.17
733.917	2425.14
734.103	2371.89
734.289	2220.34
734.475	2298.16
734.661	2330.93
734.847	2367.79
735.033	2412.85
735.219	2367.79
735.404	2335.03
735.59	2310.45
735.776	2257.2
735.962	2287.92
736.148	2470.19
736.333	2445.62
736.519	2294.07
736.705	2330.93
736.89	2255.15
737.076	2285.87
737.262	2341.17
737.447	2359.6
737.633	2294.07
737.819	2343.22
738.004	2316.59
738.19	2220.34
738.375	2388.27
738.561	2328.88
738.747	2242.87
738.932	2318.64
739.118	2234.68
739.303	2312.5
739.489	2175.28
739.674	2269.49
739.859	2171.19
740.045	2224.44
740.23	2199.86
740.416	2119.99
740.601	2216.24
740.786	2138.42
740.972	2197.81
741.157	2251.06
741.342	2189.62
741.528	2103.61
741.713	2222.39
741.898	2087.22
742.084	2126.13
742.269	1986.87
742.454	2148.66
742.639	2171.19
742.824	2111.8
743.01	2191.67
743.195	2199.86
743.38	2064.69
743.565	2019.64
743.75	1960.25
743.935	1990.97
744.12	1970.49
744.305	2015.54
744.49	2017.59
744.675	1950.01
744.86	2076.98
745.045	2033.97
745.23	2083.13
745.415	2029.88
745.6	2027.83
745.785	1993.01
745.97	1970.49
746.155	1952.06
746.34	2019.64
746.525	1939.77
746.71	1902.9
746.895	1868.09
747.079	1933.62
747.264	1984.82
747.449	1890.62
747.634	1882.42
747.819	1868.09
748.003	1855.8
748.188	1896.76
748.373	1853.75
748.557	1798.46
748.742	1769.79
748.927	1790.27
749.111	1757.5
749.296	1741.11
749.481	1669.44
749.665	1839.42
749.85	1732.92
750.034	1763.64
750.219	1796.41
750.404	1777.98
750.588	1636.67
750.773	1636.67
750.957	1683.77
751.141	1726.78
751.326	1694.01
751.51	1659.2
751.695	1694.01
751.879	1573.18
752.064	1712.44
752.248	1601.85
752.432	1694.01
752.617	1667.39
752.801	1589.57
752.985	1718.59
753.17	1542.46
753.354	1605.95
753.538	1605.95
753.722	1548.61
753.907	1628.48
754.091	1444.16
754.275	1485.12
754.459	1491.26
754.643	1450.3
754.828	1489.21
755.012	1485.12
755.196	1423.68
755.38	1372.48
755.564	1372.48
755.748	1413.44
755.932	1417.54
756.116	1319.23
756.3	1409.34
756.484	1335.62
756.668	1392.96
756.852	1349.95
757.036	1368.38
757.22	1366.34
757.404	1296.71
757.588	1265.99
757.772	1286.47
757.956	1442.11
758.14	1321.28
758.323	1366.34
758.507	1349.95
758.691	1308.99
758.875	1331.52
759.059	1235.27
759.242	1272.13
759.426	1296.71
759.61	1265.99
759.794	1220.93
759.977	1265.99
760.161	1188.16
760.345	1087.81
760.528	1182.02
760.712	1241.41
760.895	1212.74
761.079	1126.72
761.263	1222.98
761.446	1130.82
761.63	1276.23
761.813	1204.55
761.997	1102.15
762.18	1139.01
762.364	1110.34
762.547	1130.82
762.731	1143.11
762.914	983.37
763.098	1087.81
763.281	1231.17
763.464	1118.53
763.648	1057.09
763.831	1065.29
764.015	987.46
764.198	1032.52
764.381	1106.24
764.564	1061.19
764.748	987.46
764.931	1065.29
765.114	958.79
765.297	985.41
765.481	1005.89
765.664	1003.85
765.847	1044.81
766.03	1026.37
766.213	1018.18
766.397	1067.33
766.58	966.98
766.763	1012.04
766.946	1028.42
767.129	909.64
767.312	1069.38
767.495	985.41
767.678	1036.61
767.861	1026.37
768.044	885.06
768.227	969.03
768.41	891.21
768.593	919.88
768.776	969.03
768.959	844.1
769.142	1003.85
769.324	932.17
769.507	1003.85
769.69	981.32
769.873	962.89
770.056	991.56
770.239	905.54
770.421	905.54
770.604	889.16
770.787	891.21
770.97	921.93
771.152	975.17
771.335	862.54
771.518	786.76
771.7	864.58
771.883	921.93
772.066	880.97
772.248	946.5
772.431	866.63
772.613	856.39
772.796	915.78
772.978	862.54
773.161	893.26
773.343	880.97
773.526	762.19
773.708	770.38
773.891	848.2
774.073	842.06
774.256	821.58
774.438	768.33
774.621	721.23
774.803	858.44
774.985	776.52
775.168	739.66
775.35	819.53
775.532	844.1
775.715	782.67
775.897	717.13
776.079	844.1
776.261	737.61
776.444	799.05
776.626	680.27
776.808	805.19
776.99	698.7
777.173	674.12
777.355	678.22
777.537	721.23
777.719	647.5
777.901	725.32
778.083	692.55
778.265	667.98
778.447	784.71
778.629	661.84
778.811	758.09
778.993	600.4
779.175	721.23
779.357	655.69
779.539	590.16
779.721	606.54
779.903	547.15
780.085	694.6
780.267	713.03
780.449	602.44
780.631	645.45
780.812	606.54
780.994	579.92
781.176	649.55
781.358	577.87
781.54	567.63
781.721	563.53
781.903	653.64
782.085	592.2
782.267	569.68
782.448	495.95
782.63	622.92
782.812	577.87
782.993	610.64
783.175	536.91
783.357	571.72
783.538	579.92
783.72	520.53
783.901	549.2
784.083	514.38
784.264	565.58
784.446	493.9
784.627	522.57
784.809	508.24
784.99	524.62
785.172	495.95
785.353	487.76
785.535	565.58
785.716	450.89
785.897	502.09
786.079	452.94
786.26	452.94
786.441	538.96
786.623	491.85
786.804	518.48
786.985	500.05
787.167	487.76
787.348	514.38
787.529	512.33
787.71	498
787.891	436.56
788.073	448.85
788.254	379.22
788.435	438.61
788.616	426.32
788.797	432.46
788.978	442.7
789.159	375.12
789.34	448.85
789.522	442.7
789.703	360.78
789.884	332.11
790.065	489.81
790.246	422.22
790.427	321.87
790.607	397.65
790.788	409.94
790.969	332.11
791.15	373.07
791.331	360.78
791.512	352.59
791.693	364.88
791.874	377.17
792.054	407.89
792.235	399.7
792.416	356.69
792.597	328.02
792.778	495.95
792.958	338.26
793.139	385.36
793.32	381.26
793.5	381.26
793.681	377.17
793.862	411.98
794.042	295.25
794.223	371.02
794.404	315.73
794.584	321.87
794.765	362.83
794.945	362.83
795.126	401.74
795.306	328.02
795.487	256.34
795.667	270.67
795.848	305.49
796.028	364.88
796.209	268.63
796.389	299.34
796.57	303.44
796.75	311.63
796.93	246.1
797.111	328.02
797.291	258.39
797.471	280.91
797.652	303.44
797.832	211.28
798.012	330.06
798.192	336.21
798.373	276.82
798.553	278.87
798.733	276.82
798.913	307.54
799.093	244.05
799.274	317.78
799.454	250.19
799.634	336.21
799.814	276.82
799.994	254.29
800.174	237.91
800.354	252.24
800.534	287.06
800.714	274.77
800.894	217.43
801.074	192.85
801.254	256.34
801.434	264.53
801.614	229.71
801.794	172.37
801.974	551.24
802.154	315.73
802.334	278.87
802.514	221.52
802.693	260.43
802.873	264.53
803.053	285.01
803.233	174.42
803.413	219.47
803.592	194.9
803.772	153.94
803.952	293.2
804.131	229.71
804.311	237.91
804.491	223.57
804.67	205.14
804.85	256.34
805.03	215.38
805.209	274.77
805.389	229.71
805.568	242
805.748	145.75
805.928	250.19
806.107	213.33
806.287	180.56
806.466	229.71
806.646	250.19
806.825	225.62
807.004	213.33
807.184	188.75
807.363	229.71
807.543	221.52
807.722	194.9
807.901	244.05
808.081	162.13
808.26	205.14
808.439	182.61
808.619	229.71
808.798	209.23
808.977	256.34
809.156	287.06
809.336	235.86
809.515	274.77
809.694	149.84
809.873	137.56
810.052	117.08
810.231	190.8
810.411	164.18
810.59	162.13
810.769	168.27
810.948	162.13
811.127	176.47
811.306	180.56
811.485	194.9
811.664	229.71
811.843	147.8
812.022	143.7
812.201	207.19
812.38	188.75
812.559	182.61
812.737	211.28
812.916	155.99
813.095	176.47
813.274	135.51
813.453	158.03
813.632	184.66
813.811	166.23
813.989	125.27
814.168	207.19
814.347	131.41
814.526	155.99
814.704	213.33
814.883	158.03
815.062	186.71
815.24	174.42
815.419	233.81
815.598	184.66
815.776	205.14
815.955	102.74
816.133	192.85
816.312	188.75
816.49	125.27
816.669	88.4
816.847	188.75
817.026	196.95
817.204	106.84
817.383	203.09
817.561	127.32
817.74	123.22
817.918	162.13
818.097	106.84
818.275	115.03
818.453	260.43
818.632	133.46
818.81	153.94
818.988	160.08
819.167	141.65
819.345	139.6
819.523	176.47
819.701	72.02
819.879	131.41
820.058	78.16
820.236	201.04
820.414	78.16
820.592	92.5
820.77	155.99
820.948	121.17
821.127	98.64
821.305	180.56
821.483	94.55
821.661	194.9
821.839	90.45
822.017	131.41
822.195	106.84
822.373	172.37
822.551	162.13
822.729	123.22
822.907	170.32
823.085	194.9
823.262	74.07
823.44	106.84
823.618	106.84
823.796	123.22
823.974	125.27
824.152	133.46
824.329	123.22
824.507	110.93
824.685	65.88
824.863	78.16
825.04	14.68
825.218	133.46
825.396	112.98
825.574	160.08
825.751	106.84
825.929	209.23
826.107	94.55
826.284	67.92
826.462	86.36
826.639	74.07
826.817	29.01
826.994	112.98
827.172	49.49
827.349	129.36
827.527	115.03
827.704	69.97
827.882	127.32
828.059	98.64
828.237	98.64
828.414	102.74
828.591	78.16
828.769	121.17
828.946	121.17
829.124	115.03
829.301	88.4
829.478	88.4
829.655	131.41
829.833	57.68
830.01	67.92
830.187	158.03
830.364	90.45
830.542	164.18
830.719	149.84
830.896	100.69
831.073	90.45
831.25	131.41
831.427	172.37
831.604	80.21
831.782	78.16
831.959	110.93
832.136	72.02
832.313	37.2
832.49	90.45
832.667	37.2
832.844	12.63
833.021	72.02
833.198	78.16
833.374	96.6
833.551	102.74
833.728	127.32
833.905	121.17
834.082	-3.75
834.259	4.44
834.436	94.55
834.612	57.68
834.789	80.21
834.966	82.26
835.143	78.16
835.319	88.4
835.496	82.26
835.673	57.68
835.85	88.4
836.026	96.6
836.203	86.36
836.38	35.16
836.556	106.84
836.733	22.87
836.909	90.45
837.086	90.45
837.262	12.63
837.439	29.01
837.616	129.36
837.792	39.25
837.968	72.02
838.145	29.01
838.321	39.25
838.498	43.35
838.674	57.68
838.851	22.87
839.027	37.2
839.203	-3.75
839.38	92.5
839.556	110.93
839.732	115.03
839.909	33.11
840.085	123.22
840.261	55.64
840.437	61.78
840.614	88.4
840.79	86.36
840.966	123.22
841.142	65.88
841.318	37.2
841.494	53.59
841.671	63.83
841.847	90.45
842.023	22.87
842.199	43.35
842.375	45.4
842.551	33.11
842.727	33.11
842.903	145.75
843.079	137.56
843.255	67.92
843.431	145.75
843.607	37.2
843.783	0.34
843.959	39.25
844.134	53.59
844.31	35.16
844.486	49.49
844.662	0.34
844.838	16.73
845.013	67.92
845.189	29.01
845.365	61.78
845.541	78.16
845.716	119.12
845.892	47.44
846.068	-3.75
846.244	-13.99
846.419	57.68
846.595	-34.47
846.77	96.6
846.946	65.88
847.122	31.06
847.297	43.35
847.473	72.02
847.648	14.68
847.824	49.49
847.999	14.68
848.175	51.54
848.35	96.6
848.526	143.7
848.701	10.58
848.876	41.3
849.052	84.31
849.227	53.59
849.403	18.77
849.578	69.97
849.753	16.73
849.929	-5.8
850.104	31.06
850.279	84.31
850.454	43.35
850.63	35.16
850.805	69.97
850.98	72.02
851.155	57.68
851.33	49.49
851.505	14.68
851.681	41.3
851.856	-24.23
852.031	98.64
852.206	24.92
852.381	22.87
852.556	51.54
852.731	55.64
852.906	65.88
853.081	100.69
853.256	18.77
853.431	4.44
853.606	4.44
853.781	33.11
853.956	59.73
854.131	49.49
854.305	14.68
854.48	53.59
854.655	22.87
854.83	-20.14
855.005	-20.14
855.18	12.63
855.354	121.17
855.529	47.44
855.704	39.25
855.879	49.49
856.053	41.3
856.228	96.6
856.403	10.58
856.577	-20.14
856.752	69.97
856.926	2.39
857.101	24.92
857.276	10.58
857.45	-22.19
857.625	57.68
857.799	84.31
857.974	78.16
858.148	26.96
858.323	110.93
858.497	-16.04
858.672	59.73
858.846	-16.04
859.02	47.44
859.195	22.87
859.369	20.82
859.543	10.58
859.718	10.58
859.892	20.82
860.066	0.34
860.241	78.16
860.415	4.44
860.589	51.54
860.763	6.49
860.938	90.45
861.112	117.08
861.286	22.87
861.46	-16.04
861.634	-24.23
861.808	72.02
861.982	41.3
862.157	-40.62
862.331	18.77
862.505	18.77
862.679	53.59
862.853	0.34
863.027	4.44
863.201	45.4
863.375	-9.9
863.549	6.49
863.722	53.59
863.896	57.68
864.07	-5.8
864.244	16.73
864.418	39.25
864.592	26.96
864.766	-3.75
864.939	43.35
865.113	57.68
865.287	18.77
865.461	110.93
865.634	24.92
865.808	-1.71
865.982	29.01
866.156	57.68
866.329	37.2
866.503	4.44
866.676	-1.71
866.85	53.59
867.024	67.92
867.197	-24.23
867.371	-16.04
867.544	20.82
867.718	-42.67
867.891	-24.23
868.065	18.77
868.238	-13.99
868.412	8.53
868.585	-44.71
868.759	80.21
868.932	74.07
869.105	88.4
869.279	0.34
869.452	6.49
869.625	16.73
869.799	67.92
869.972	22.87
870.145	49.49
870.319	31.06
870.492	86.36
870.665	29.01
870.838	-7.85
871.011	31.06
871.185	-18.09
871.358	69.97
871.531	26.96
871.704	76.12
871.877	67.92
872.05	10.58
872.223	0.34
872.396	39.25
872.569	33.11
872.742	4.44
872.915	12.63
873.088	-7.85
873.261	0.34
873.434	47.44
873.607	65.88
873.78	43.35
873.953	57.68
874.126	8.53
874.299	53.59
874.471	-67.24
874.644	39.25
874.817	76.12
874.99	65.88
875.163	-42.67
875.335	31.06
875.508	4.44
875.681	53.59
875.853	-16.04
876.026	16.73
876.199	49.49
876.371	59.73
876.544	-28.33
876.717	-30.38
876.889	29.01
877.062	24.92
877.234	65.88
877.407	-42.67
877.579	-11.95
877.752	10.58
877.924	-3.75
878.097	-18.09
878.269	49.49
878.442	-36.52
878.614	-26.28
878.786	-40.62
878.959	20.82
879.131	-3.75
879.303	-11.95
879.476	49.49
879.648	31.06
879.82	24.92
879.993	33.11
880.165	-24.23
880.337	-22.19
880.509	0.34
880.681	0.34
880.854	-9.9
881.026	80.21
881.198	-26.28
881.37	92.5
881.542	92.5
881.714	16.73
881.886	-16.04
882.058	18.77
882.23	-102.06
882.402	43.35
882.574	-3.75
882.746	-3.75
882.918	57.68
883.09	41.3
883.262	12.63
883.434	-16.04
883.606	-1.71
883.778	22.87
883.95	41.3
884.122	100.69
884.293	94.55
884.465	108.88
884.637	55.64
884.809	-22.19
884.98	-44.71
885.152	57.68
885.324	6.49
885.496	-26.28
885.667	-13.99
885.839	92.5
886.011	-11.95
886.182	49.49
886.354	-16.04
886.525	-5.8
886.697	-32.43
886.869	20.82
887.04	10.58
887.212	35.16
887.383	-9.9
887.555	37.2
887.726	29.01
887.897	41.3
888.069	-3.75
888.24	37.2
888.412	-7.85
888.583	-13.99
888.754	-20.14
888.926	-36.52
889.097	20.82
889.268	-7.85
889.44	8.53
889.611	-28.33
889.782	47.44
889.953	14.68
890.125	57.68
890.296	-18.09
890.467	29.01
890.638	22.87
890.809	49.49
890.98	-71.34
891.151	43.35
891.323	69.97
891.494	29.01
891.665	-24.23
891.836	59.73
892.007	-9.9
892.178	-77.48
892.349	86.36
892.52	-18.09
892.691	-16.04
892.862	14.68
893.032	47.44
893.203	45.4
893.374	29.01
893.545	-1.71
893.716	115.03
893.887	41.3
894.057	-32.43
894.228	41.3
894.399	-18.09
894.57	84.31
894.74	59.73
894.911	-18.09
895.082	29.01
895.253	-9.9
895.423	59.73
895.594	82.26
895.764	20.82
895.935	18.77
896.106	61.78
896.276	86.36
896.447	-16.04
896.617	4.44
896.788	-42.67
896.958	-18.09
897.129	20.82
897.299	0.34
897.47	12.63
897.64	14.68
897.81	-30.38
897.981	-22.19
898.151	-34.47
898.322	-77.48
898.492	-28.33
898.662	8.53
898.832	12.63
899.003	-18.09
899.173	-20.14
899.343	-3.75
899.513	33.11
