Data from USB4F104151__61__11-37-25-361.txt Node

Date: Fri Mar 14 11:37:25 EDT 2025
User: louis
Spectrometer: USB4F10415
Trigger mode: 4
Integration Time (sec): 2.000000E-2
Scans to average: 1
Electric dark correction enabled: true
Nonlinearity correction enabled: false
Boxcar width: 0
XAxis mode: Wavelengths
Number of Pixels in Spectrum: 3648
>>>>>Begin Spectral Data<<<<<
178.204	-113.66
178.424	-113.66
178.644	-113.66
178.864	-125.95
179.084	-62.46
179.304	21.5
179.524	1.02
179.744	41.98
179.964	11.26
180.184	3.07
180.404	9.22
180.624	-35.84
180.844	-48.13
181.064	11.26
181.283	-13.31
181.503	-9.22
181.723	7.17
181.943	-60.42
182.163	68.61
182.383	31.74
182.602	-33.79
182.822	27.65
183.042	1.02
183.262	-39.94
183.482	62.46
183.701	44.03
183.921	-23.55
184.141	1.02
184.361	13.31
184.58	-31.74
184.8	-25.6
185.02	-17.41
185.239	-13.31
185.459	3.07
185.679	7.17
185.898	-74.75
186.118	62.46
186.338	78.85
186.557	-13.31
186.777	78.85
186.997	56.32
187.216	-19.46
187.436	39.94
187.655	9.22
187.875	-29.7
188.095	1.02
188.314	54.27
188.534	7.17
188.753	9.22
188.973	21.5
189.192	37.89
189.412	-3.07
189.631	-9.22
189.851	-5.12
190.07	41.98
190.29	23.55
190.509	-72.7
190.729	7.17
190.948	3.07
191.168	91.13
191.387	-33.79
191.607	3.07
191.826	-29.7
192.045	23.55
192.265	-37.89
192.484	-31.74
192.704	-19.46
192.923	-64.51
193.142	56.32
193.362	31.74
193.581	-29.7
193.8	-41.98
194.02	-11.26
194.239	-44.03
194.458	21.5
194.678	-70.65
194.897	39.94
195.116	-9.22
195.335	-35.84
195.555	-39.94
195.774	54.27
195.993	13.31
196.212	-39.94
196.432	46.08
196.651	-1.02
196.87	-35.84
197.089	11.26
197.308	7.17
197.528	-15.36
197.747	-39.94
197.966	-29.7
198.185	27.65
198.404	19.46
198.623	-1.02
198.842	9.22
199.062	-5.12
199.281	41.98
199.5	-15.36
199.719	27.65
199.938	58.37
200.157	58.37
200.376	-27.65
200.595	7.17
200.814	-1.02
201.033	15.36
201.252	-48.13
201.471	-19.46
201.69	39.94
201.909	-29.7
202.128	-64.51
202.347	-37.89
202.566	29.7
202.785	29.7
203.004	-3.07
203.223	70.65
203.442	-7.17
203.661	29.7
203.879	54.27
204.098	46.08
204.317	31.74
204.536	-11.26
204.755	31.74
204.974	7.17
205.193	52.22
205.411	-5.12
205.63	-50.18
205.849	41.98
206.068	-39.94
206.287	-31.74
206.505	-41.98
206.724	35.84
206.943	-44.03
207.162	-23.55
207.381	78.85
207.599	35.84
207.818	9.22
208.037	64.51
208.255	-58.37
208.474	17.41
208.693	27.65
208.911	33.79
209.13	-41.98
209.349	5.12
209.567	-1.02
209.786	37.89
210.005	25.6
210.223	39.94
210.442	9.22
210.661	3.07
210.879	62.46
211.098	21.5
211.316	27.65
211.535	15.36
211.753	31.74
211.972	115.71
212.191	-15.36
212.409	7.17
212.628	-41.98
212.846	-23.55
213.065	5.12
213.283	25.6
213.502	-46.08
213.72	-9.22
213.938	-7.17
214.157	37.89
214.375	9.22
214.594	-41.98
214.812	-29.7
215.031	-48.13
215.249	7.17
215.467	46.08
215.686	62.46
215.904	-11.26
216.122	-11.26
216.341	-62.46
216.559	-31.74
216.778	-3.07
216.996	9.22
217.214	-3.07
217.432	-41.98
217.651	-11.26
217.869	66.56
218.087	-19.46
218.306	7.17
218.524	37.89
218.742	-25.6
218.96	-52.22
219.179	25.6
219.397	5.12
219.615	70.65
219.833	-7.17
220.051	-44.03
220.27	33.79
220.488	66.56
220.706	39.94
220.924	15.36
221.142	19.46
221.36	46.08
221.578	1.02
221.796	29.7
222.015	33.79
222.233	-7.17
222.451	35.84
222.669	27.65
222.887	91.13
223.105	-48.13
223.323	-39.94
223.541	13.31
223.759	48.13
223.977	-48.13
224.195	54.27
224.413	11.26
224.631	33.79
224.849	33.79
225.067	60.42
225.285	-35.84
225.503	52.22
225.721	-13.31
225.939	-23.55
226.157	11.26
226.375	39.94
226.592	7.17
226.81	-25.6
227.028	58.37
227.246	1.02
227.464	-11.26
227.682	19.46
227.9	-46.08
228.117	52.22
228.335	-13.31
228.553	7.17
228.771	11.26
228.989	-27.65
229.206	58.37
229.424	25.6
229.642	44.03
229.86	-62.46
230.077	13.31
230.295	17.41
230.513	72.7
230.731	5.12
230.948	68.61
231.166	56.32
231.384	13.31
231.601	33.79
231.819	82.94
232.037	-56.32
232.254	-35.84
232.472	-31.74
232.689	5.12
232.907	-31.74
233.125	39.94
233.342	-44.03
233.56	-13.31
233.777	39.94
233.995	-27.65
234.213	89.09
234.43	-15.36
234.648	3.07
234.865	54.27
235.083	68.61
235.3	-101.37
235.518	31.74
235.735	33.79
235.953	87.04
236.17	3.07
236.388	23.55
236.605	9.22
236.822	48.13
237.04	23.55
237.257	1.02
237.475	-5.12
237.692	46.08
237.909	-23.55
238.127	33.79
238.344	41.98
238.562	78.85
238.779	-15.36
238.996	7.17
239.214	17.41
239.431	-25.6
239.648	7.17
239.865	99.33
240.083	-5.12
240.3	-46.08
240.517	17.41
240.735	87.04
240.952	56.32
241.169	7.17
241.386	107.52
241.603	33.79
241.821	-7.17
242.038	-19.46
242.255	19.46
242.472	13.31
242.689	13.31
242.907	113.66
243.124	58.37
243.341	15.36
243.558	31.74
243.775	5.12
243.992	13.31
244.209	7.17
244.426	-23.55
244.643	-3.07
244.86	-5.12
245.078	25.6
245.295	11.26
245.512	-41.98
245.729	7.17
245.946	-17.41
246.163	19.46
246.38	9.22
246.597	54.27
246.814	-46.08
247.031	-1.02
247.248	39.94
247.464	-72.7
247.681	91.13
247.898	52.22
248.115	27.65
248.332	9.22
248.549	17.41
248.766	41.98
248.983	41.98
249.2	-31.74
249.417	66.56
249.633	54.27
249.85	-9.22
250.067	-15.36
250.284	1.02
250.501	3.07
250.717	-27.65
250.934	-7.17
251.151	-21.5
251.368	5.12
251.585	56.32
251.801	-31.74
252.018	78.85
252.235	66.56
252.451	-60.42
252.668	56.32
252.885	25.6
253.102	41.98
253.318	5.12
253.535	-21.5
253.752	25.6
253.968	13.31
254.185	-44.03
254.401	33.79
254.618	17.41
254.835	-29.7
255.051	115.71
255.268	9.22
255.484	29.7
255.701	17.41
255.917	52.22
256.134	-31.74
256.351	97.28
256.567	-13.31
256.784	58.37
257	-15.36
257.217	99.33
257.433	33.79
257.65	-52.22
257.866	29.7
258.082	17.41
258.299	-37.89
258.515	-3.07
258.732	48.13
258.948	-13.31
259.165	-1.02
259.381	29.7
259.597	35.84
259.814	-27.65
260.03	1.02
260.246	60.42
260.463	29.7
260.679	-9.22
260.895	19.46
261.112	17.41
261.328	80.89
261.544	-17.41
261.761	84.99
261.977	58.37
262.193	-7.17
262.409	-23.55
262.626	-13.31
262.842	5.12
263.058	-9.22
263.274	25.6
263.49	11.26
263.707	50.18
263.923	25.6
264.139	-62.46
264.355	25.6
264.571	50.18
264.787	9.22
265.004	21.5
265.22	21.5
265.436	17.41
265.652	21.5
265.868	-37.89
266.084	5.12
266.3	13.31
266.516	-58.37
266.732	35.84
266.948	17.41
267.164	-25.6
267.38	-15.36
267.596	19.46
267.812	19.46
268.028	50.18
268.244	25.6
268.46	37.89
268.676	-5.12
268.892	3.07
269.108	3.07
269.324	37.89
269.54	56.32
269.756	58.37
269.972	-17.41
270.188	-25.6
270.403	23.55
270.619	17.41
270.835	-17.41
271.051	33.79
271.267	7.17
271.483	56.32
271.698	-62.46
271.914	13.31
272.13	66.56
272.346	60.42
272.562	11.26
272.777	33.79
272.993	-60.42
273.209	37.89
273.425	41.98
273.64	46.08
273.856	39.94
274.072	-1.02
274.287	66.56
274.503	25.6
274.719	76.8
274.934	58.37
275.15	-41.98
275.366	50.18
275.581	17.41
275.797	39.94
276.012	37.89
276.228	50.18
276.444	25.6
276.659	54.27
276.875	-99.33
277.09	50.18
277.306	-1.02
277.521	7.17
277.737	-7.17
277.952	1.02
278.168	95.23
278.383	5.12
278.599	25.6
278.814	62.46
279.03	-41.98
279.245	109.57
279.461	33.79
279.676	76.8
279.892	-3.07
280.107	-23.55
280.322	-56.32
280.538	19.46
280.753	-44.03
280.969	25.6
281.184	91.13
281.399	52.22
281.615	15.36
281.83	50.18
282.045	1.02
282.26	52.22
282.476	7.17
282.691	33.79
282.906	-21.5
283.122	46.08
283.337	41.98
283.552	-11.26
283.767	25.6
283.983	-9.22
284.198	15.36
284.413	91.13
284.628	-46.08
284.843	66.56
285.058	31.74
285.274	15.36
285.489	-13.31
285.704	9.22
285.919	25.6
286.134	-3.07
286.349	15.36
286.564	7.17
286.779	35.84
286.995	-31.74
287.21	46.08
287.425	-23.55
287.64	-1.02
287.855	39.94
288.07	17.41
288.285	5.12
288.5	-17.41
288.715	66.56
288.93	23.55
289.145	3.07
289.36	9.22
289.575	39.94
289.79	13.31
290.004	37.89
290.219	23.55
290.434	-33.79
290.649	-9.22
290.864	19.46
291.079	-48.13
291.294	23.55
291.509	101.37
291.724	87.04
291.938	9.22
292.153	62.46
292.368	9.22
292.583	-15.36
292.798	5.12
293.012	23.55
293.227	41.98
293.442	-9.22
293.657	5.12
293.871	-39.94
294.086	50.18
294.301	58.37
294.516	-3.07
294.73	128
294.945	-39.94
295.16	76.8
295.374	-56.32
295.589	60.42
295.804	25.6
296.018	31.74
296.233	50.18
296.447	87.04
296.662	23.55
296.877	78.85
297.091	46.08
297.306	19.46
297.52	37.89
297.735	54.27
297.949	13.31
298.164	62.46
298.378	99.33
298.593	17.41
298.807	37.89
299.022	-17.41
299.236	31.74
299.451	-7.17
299.665	-19.46
299.88	35.84
300.094	23.55
300.309	-13.31
300.523	1.02
300.737	-9.22
300.952	29.7
301.166	44.03
301.381	-41.98
301.595	-48.13
301.809	-64.51
302.024	-13.31
302.238	13.31
302.452	-15.36
302.667	41.98
302.881	62.46
303.095	87.04
303.309	-29.7
303.524	-19.46
303.738	9.22
303.952	9.22
304.166	48.13
304.381	-31.74
304.595	27.65
304.809	-101.37
305.023	82.94
305.237	1.02
305.452	23.55
305.666	21.5
305.88	9.22
306.094	76.8
306.308	50.18
306.522	13.31
306.736	72.7
306.95	15.36
307.164	25.6
307.379	-64.51
307.593	72.7
307.807	66.56
308.021	41.98
308.235	31.74
308.449	29.7
308.663	-15.36
308.877	25.6
309.091	44.03
309.305	62.46
309.519	-1.02
309.733	68.61
309.947	52.22
310.161	41.98
310.374	25.6
310.588	17.41
310.802	9.22
311.016	15.36
311.23	17.41
311.444	-48.13
311.658	41.98
311.872	46.08
312.085	115.71
312.299	78.85
312.513	13.31
312.727	37.89
312.941	62.46
313.154	-31.74
313.368	-15.36
313.582	29.7
313.796	68.61
314.009	-13.31
314.223	21.5
314.437	76.8
314.651	29.7
314.864	58.37
315.078	-68.61
315.292	9.22
315.505	-29.7
315.719	66.56
315.933	41.98
316.146	-33.79
316.36	-23.55
316.573	15.36
316.787	-17.41
317.001	-29.7
317.214	39.94
317.428	56.32
317.641	19.46
317.855	-13.31
318.068	-25.6
318.282	-33.79
318.495	50.18
318.709	33.79
318.922	48.13
319.136	64.51
319.349	23.55
319.563	-3.07
319.776	84.99
319.99	-56.32
320.203	41.98
320.417	74.75
320.63	-23.55
320.843	74.75
321.057	7.17
321.27	-19.46
321.483	21.5
321.697	80.89
321.91	-31.74
322.124	15.36
322.337	-17.41
322.55	13.31
322.763	-15.36
322.977	17.41
323.19	5.12
323.403	29.7
323.617	5.12
323.83	21.5
324.043	54.27
324.256	21.5
324.469	-39.94
324.683	41.98
324.896	9.22
325.109	72.7
325.322	-31.74
325.535	-72.7
325.748	74.75
325.962	7.17
326.175	56.32
326.388	17.41
326.601	9.22
326.814	60.42
327.027	44.03
327.24	41.98
327.453	13.31
327.666	72.7
327.879	101.37
328.092	9.22
328.305	82.94
328.518	5.12
328.731	-1.02
328.944	23.55
329.157	50.18
329.37	1.02
329.583	-7.17
329.796	31.74
330.009	25.6
330.222	15.36
330.435	66.56
330.648	-33.79
330.861	3.07
331.073	66.56
331.286	84.99
331.499	-5.12
331.712	13.31
331.925	5.12
332.138	23.55
332.35	48.13
332.563	60.42
332.776	128
332.989	50.18
333.202	58.37
333.414	23.55
333.627	74.75
333.84	25.6
334.053	101.37
334.265	7.17
334.478	25.6
334.691	23.55
334.903	54.27
335.116	-13.31
335.329	-9.22
335.541	54.27
335.754	97.28
335.966	-31.74
336.179	13.31
336.392	13.31
336.604	-138.24
336.817	-11.26
337.029	39.94
337.242	54.27
337.454	72.7
337.667	9.22
337.88	17.41
338.092	-5.12
338.305	19.46
338.517	97.28
338.729	54.27
338.942	91.13
339.154	29.7
339.367	39.94
339.579	-9.22
339.792	-11.26
340.004	19.46
340.217	35.84
340.429	-3.07
340.641	91.13
340.854	-9.22
341.066	-39.94
341.278	-50.18
341.491	68.61
341.703	41.98
341.915	-23.55
342.128	44.03
342.34	58.37
342.552	23.55
342.764	-19.46
342.977	62.46
343.189	87.04
343.401	-5.12
343.613	62.46
343.826	-1.02
344.038	-41.98
344.25	-11.26
344.462	9.22
344.674	7.17
344.886	23.55
345.099	29.7
345.311	48.13
345.523	-72.7
345.735	-3.07
345.947	-9.22
346.159	17.41
346.371	39.94
346.583	46.08
346.795	105.47
347.007	23.55
347.219	-13.31
347.431	9.22
347.643	37.89
347.855	11.26
348.067	-9.22
348.279	5.12
348.491	54.27
348.703	-64.51
348.915	-21.5
349.127	84.99
349.339	39.94
349.551	29.7
349.763	5.12
349.975	-15.36
350.187	54.27
350.399	39.94
350.61	19.46
350.822	-31.74
351.034	33.79
351.246	-29.7
351.458	-15.36
351.669	17.41
351.881	50.18
352.093	1.02
352.305	37.89
352.517	35.84
352.728	31.74
352.94	19.46
353.152	-19.46
353.363	-21.5
353.575	11.26
353.787	37.89
353.999	44.03
354.21	70.65
354.422	-21.5
354.633	84.99
354.845	-66.56
355.057	23.55
355.268	48.13
355.48	17.41
355.692	60.42
355.903	29.7
356.115	7.17
356.326	25.6
356.538	33.79
356.749	33.79
356.961	-3.07
357.172	39.94
357.384	-50.18
357.595	119.81
357.807	72.7
358.018	44.03
358.23	1.02
358.441	91.13
358.653	72.7
358.864	9.22
359.075	48.13
359.287	33.79
359.498	64.51
359.709	41.98
359.921	50.18
360.132	31.74
360.344	58.37
360.555	25.6
360.766	62.46
360.977	-1.02
361.189	123.9
361.4	31.74
361.611	5.12
361.823	95.23
362.034	29.7
362.245	29.7
362.456	21.5
362.667	15.36
362.879	60.42
363.09	17.41
363.301	1.02
363.512	48.13
363.723	-35.84
363.935	48.13
364.146	52.22
364.357	-17.41
364.568	29.7
364.779	1.02
364.99	35.84
365.201	44.03
365.412	-9.22
365.623	58.37
365.834	29.7
366.045	64.51
366.256	31.74
366.467	1.02
366.678	7.17
366.889	13.31
367.1	52.22
367.311	21.5
367.522	23.55
367.733	74.75
367.944	13.31
368.155	97.28
368.366	11.26
368.577	27.65
368.788	82.94
368.999	5.12
369.209	25.6
369.42	62.46
369.631	84.99
369.842	11.26
370.053	13.31
370.264	99.33
370.474	9.22
370.685	-58.37
370.896	113.66
371.107	64.51
371.317	-11.26
371.528	-21.5
371.739	97.28
371.95	52.22
372.16	97.28
372.371	9.22
372.582	48.13
372.792	62.46
373.003	46.08
373.214	-1.02
373.424	-35.84
373.635	-13.31
373.846	74.75
374.056	29.7
374.267	56.32
374.477	52.22
374.688	-13.31
374.898	97.28
375.109	3.07
375.319	107.52
375.53	119.81
375.74	13.31
375.951	64.51
376.161	-21.5
376.372	111.61
376.582	-17.41
376.793	44.03
377.003	64.51
377.214	15.36
377.424	37.89
377.635	72.7
377.845	58.37
378.055	29.7
378.266	17.41
378.476	68.61
378.686	54.27
378.897	56.32
379.107	33.79
379.317	41.98
379.528	13.31
379.738	84.99
379.948	-11.26
380.158	70.65
380.369	54.27
380.579	7.17
380.789	41.98
380.999	19.46
381.21	15.36
381.42	66.56
381.63	35.84
381.84	82.94
382.05	27.65
382.261	41.98
382.471	-15.36
382.681	3.07
382.891	111.61
383.101	62.46
383.311	-5.12
383.521	7.17
383.731	97.28
383.941	74.75
384.151	78.85
384.361	89.09
384.571	95.23
384.781	-15.36
384.991	97.28
385.201	50.18
385.411	37.89
385.621	23.55
385.831	7.17
386.041	7.17
386.251	-19.46
386.461	41.98
386.671	46.08
386.881	99.33
387.091	-25.6
387.301	107.52
387.511	29.7
387.72	99.33
387.93	91.13
388.14	-29.7
388.35	93.18
388.56	48.13
388.769	33.79
388.979	-11.26
389.189	-7.17
389.399	95.23
389.609	58.37
389.818	109.57
390.028	33.79
390.238	33.79
390.447	-64.51
390.657	54.27
390.867	33.79
391.076	23.55
391.286	13.31
391.496	138.24
391.705	115.71
391.915	31.74
392.125	9.22
392.334	72.7
392.544	99.33
392.753	64.51
392.963	76.8
393.172	44.03
393.382	7.17
393.591	74.75
393.801	78.85
394.01	99.33
394.22	80.89
394.429	99.33
394.639	156.67
394.848	115.71
395.058	48.13
395.267	97.28
395.477	48.13
395.686	7.17
395.895	144.38
396.105	91.13
396.314	82.94
396.524	144.38
396.733	13.31
396.942	68.61
397.152	138.24
397.361	132.09
397.57	105.47
397.78	-7.17
397.989	125.95
398.198	89.09
398.407	132.09
398.617	128
398.826	82.94
399.035	54.27
399.244	70.65
399.453	60.42
399.663	25.6
399.872	121.85
400.081	41.98
400.29	156.67
400.499	82.94
400.708	107.52
400.917	82.94
401.127	99.33
401.336	91.13
401.545	146.43
401.754	160.77
401.963	113.66
402.172	41.98
402.381	95.23
402.59	80.89
402.799	136.19
403.008	136.19
403.217	132.09
403.426	74.75
403.635	60.42
403.844	140.29
404.053	148.48
404.262	123.9
404.471	195.58
404.68	154.62
404.888	134.14
405.097	150.53
405.306	130.05
405.515	199.68
405.724	128
405.933	154.62
406.142	177.15
406.35	181.25
406.559	150.53
406.768	187.39
406.977	195.58
407.185	201.72
407.394	175.1
407.603	140.29
407.812	166.91
408.02	189.44
408.229	193.53
408.438	300.03
408.646	205.82
408.855	214.01
409.064	246.78
409.272	261.12
409.481	340.99
409.69	340.99
409.898	238.59
410.107	246.78
410.315	390.14
410.524	332.79
410.733	271.36
410.941	265.21
411.15	355.32
411.358	400.38
411.567	404.47
411.775	474.1
411.984	363.51
412.192	435.19
412.401	410.62
412.609	435.19
412.818	406.52
413.026	523.26
413.234	523.26
413.443	496.63
413.651	517.11
413.86	609.27
414.068	615.41
414.276	580.6
414.485	599.03
414.693	599.03
414.901	642.04
415.11	738.29
415.318	695.29
415.526	758.77
415.734	801.78
415.943	824.31
416.151	787.44
416.359	795.64
416.567	807.92
416.776	834.55
416.984	1025.01
417.192	926.71
417.4	979.95
417.608	984.05
417.817	1139.69
418.025	1074.16
418.233	1160.17
418.441	1127.41
418.649	1174.51
418.857	1305.58
419.065	1403.88
419.273	1383.4
419.481	1379.31
419.689	1364.97
419.897	1453.03
420.105	1516.52
420.313	1573.86
420.521	1596.39
420.729	1575.91
420.937	1700.84
421.145	1870.82
421.353	1840.1
421.561	1946.59
421.769	1979.36
421.977	2065.38
422.185	1979.36
422.393	2165.73
422.601	2261.98
422.809	2413.53
423.017	2249.69
423.224	2434.01
423.432	2417.63
423.64	2589.66
423.848	2767.83
424.056	2581.46
424.263	2997.2
424.471	2980.82
424.679	3003.35
424.887	2997.2
425.094	3187.66
425.302	3206.1
425.51	3333.07
425.718	3437.52
425.925	3380.17
426.133	3705.8
426.341	3894.21
426.548	4121.54
426.756	3922.88
426.964	4010.95
427.171	4334.53
427.379	4348.86
427.586	4387.77
427.794	4670.39
428.001	4793.27
428.209	5010.36
428.417	5034.93
428.624	5321.65
428.832	5200.82
429.039	5268.4
429.247	5381.04
429.454	5634.99
429.662	6001.57
429.869	5708.71
430.076	6226.85
430.284	5983.14
430.491	6239.14
430.699	6728.6
430.906	6673.31
431.114	6710.17
431.321	7050.13
431.528	7009.17
431.736	7375.76
431.943	7865.22
432.15	7742.35
432.358	7691.15
432.565	8106.88
432.772	8004.49
432.979	8506.24
433.187	8858.49
433.394	8762.23
433.601	9280.37
433.808	9352.05
434.016	9288.56
434.223	9708.4
434.43	10218.34
434.637	10154.85
434.844	10509.15
435.052	10746.72
435.259	10908.51
435.466	11053.91
435.673	10740.57
435.88	11621.2
436.087	12243.78
436.294	12276.55
436.501	12004.17
436.708	12286.79
436.915	12346.18
437.122	13112.12
437.329	12981.05
437.537	13488.95
437.743	13806.38
437.95	13802.29
438.157	14531.36
438.364	14668.58
438.571	14746.4
438.778	14750.49
438.985	16339.72
439.192	15907.6
439.399	16210.7
439.606	15784.72
439.813	16720.64
440.02	17871.6
440.227	17244.92
440.433	17416.95
440.64	17974
440.847	17959.66
441.054	18082.54
441.261	19391.19
441.467	18885.34
441.674	19563.22
441.881	20243.15
442.088	20429.51
442.294	20005.58
442.501	20390.6
442.708	20849.35
442.914	21729.97
443.121	22770.34
443.328	22252.2
443.534	23859.86
443.741	22796.96
443.948	22811.3
444.154	24244.88
444.361	24570.51
444.568	24099.47
444.774	24326.8
444.981	24517.26
445.187	25369.21
445.394	26344.05
445.6	25983.6
445.807	28742.22
446.013	27304.54
446.22	27992.66
446.426	29121.09
446.633	29395.52
446.839	30433.84
447.046	28852.81
447.252	30609.96
447.459	30519.85
447.665	30460.46
447.871	31705.63
448.078	33114.63
448.284	31582.75
448.491	32688.65
448.697	33720.83
448.903	34490.87
449.11	34300.4
449.316	33860.09
449.522	34458.1
449.728	35631.58
449.935	35531.23
450.141	35834.33
450.347	36612.56
450.553	35326.44
450.76	35928.54
450.966	37427.65
451.172	36514.26
451.378	37706.18
451.584	36854.22
451.791	38146.49
451.997	37482.95
452.203	38144.44
452.409	38093.24
452.615	37978.56
452.821	36489.68
453.027	36473.3
453.233	38472.12
453.44	37071.31
453.646	37321.16
453.852	37366.21
454.058	38115.77
454.264	36932.04
454.47	37874.11
454.676	36358.61
454.882	38021.56
455.088	34363.89
455.294	35471.84
455.5	35402.21
455.705	35643.87
455.911	34269.69
456.117	34025.98
456.323	33407.49
456.529	32047.64
456.735	33131.01
456.941	32236.05
457.147	32016.92
457.352	30728.75
457.558	30554.67
457.764	30847.53
457.97	30272.05
458.176	29456.96
458.381	29305.41
458.587	27875.93
458.793	27843.16
458.999	26479.21
459.204	28219.99
459.41	27472.48
459.616	25289.34
459.821	25848.44
460.027	25731.7
460.233	25283.2
460.438	23784.09
460.644	24134.29
460.85	23120.54
461.055	22708.9
461.261	22446.76
461.466	21074.62
461.672	20714.18
461.878	21844.66
462.083	20423.37
462.289	20175.56
462.494	19931.86
462.7	19094.24
462.905	18547.43
463.111	19323.61
463.316	19045.09
463.522	18662.12
463.727	18780.9
463.932	18969.31
464.138	18549.48
464.343	18729.7
464.549	18055.92
464.754	18707.17
464.959	18535.14
465.165	18330.34
465.37	17689.33
465.575	17062.65
465.781	18070.25
465.986	18154.22
466.191	17486.58
466.397	16741.12
466.602	15889.17
466.807	16743.17
467.012	16683.78
467.218	16698.11
467.423	16425.73
467.628	16399.11
467.833	17539.83
468.038	16521.99
468.244	16128.78
468.449	16792.32
468.654	15960.84
468.859	16329.48
469.064	15913.74
469.269	15401.75
469.474	15663.89
469.679	15979.28
469.885	15338.26
470.09	15756.05
470.295	15622.93
470.5	15102.75
470.705	15201.05
470.91	14875.42
471.115	14863.13
471.32	14979.87
471.525	14887.71
471.73	14570.27
471.935	14367.52
472.139	13978.41
472.344	14078.76
472.549	13943.6
472.754	13972.27
472.959	13577.01
473.164	13357.88
473.369	13349.68
473.574	13861.68
473.778	13697.84
473.983	13407.03
474.188	13208.37
474.393	12641.09
474.598	12872.51
474.802	12862.27
475.007	12456.77
475.212	12735.29
475.417	12344.13
475.621	12057.42
475.826	12213.06
476.031	11969.35
476.235	11838.28
476.44	11957.07
476.645	11608.91
476.849	11760.46
477.054	11576.14
477.259	11455.31
477.463	11414.35
477.668	10748.76
477.872	11307.86
478.077	10877.79
478.282	10775.39
478.486	10677.09
478.691	10539.87
478.895	10773.34
479.1	10369.89
479.304	10419.04
479.509	10226.53
479.713	10388.32
479.918	10120.04
480.122	10048.36
480.326	10310.5
480.531	10068.84
480.735	10148.71
480.94	9831.27
481.144	10384.23
481.348	9972.58
481.553	9943.91
481.757	9784.17
481.961	9839.47
482.166	9921.38
482.37	9868.14
482.574	9773.93
482.778	9845.61
482.983	9634.67
483.187	9827.18
483.391	9857.9
483.595	9747.31
483.8	9741.16
484.004	9716.59
484.208	9661.29
484.412	9599.85
484.616	9888.62
484.821	9825.13
485.025	9622.38
485.229	9610.09
485.433	9927.53
485.637	9735.02
485.841	9610.09
486.045	9751.4
486.249	9804.65
486.453	9708.4
486.657	9788.27
486.861	9657.2
487.065	9673.58
487.269	9601.9
487.473	9519.98
487.677	9823.08
487.881	9608.05
488.085	9724.78
488.289	9884.52
488.493	9653.1
488.697	9663.34
488.901	9673.58
489.105	9704.3
489.309	9900.9
489.512	10074.98
489.716	9853.8
489.92	9778.03
490.124	9853.8
490.328	10060.65
490.531	9765.74
490.735	10066.79
490.939	10191.72
491.143	10109.8
491.346	9948.01
491.55	10138.47
491.754	10150.76
491.958	10253.16
492.161	10271.59
492.365	10357.6
492.569	10011.5
492.772	10253.16
492.976	10206.05
493.18	10726.24
493.383	10691.42
493.587	10601.31
493.79	10658.65
493.994	10597.21
494.197	10781.53
494.401	10990.42
494.605	10881.88
494.808	11084.63
495.012	11148.12
495.215	11139.93
495.419	11271
495.622	11281.24
495.825	11463.51
496.029	11242.32
496.232	11457.36
496.436	11541.33
496.639	12120.9
496.843	11617.1
497.046	12153.67
497.249	12075.85
497.453	12135.24
497.656	12176.2
497.859	12075.85
498.063	12385.09
498.266	12706.62
498.469	12526.4
498.673	12796.73
498.876	12921.66
499.079	13140.79
499.282	13046.58
499.485	13450.03
499.689	13341.49
499.892	13685.55
500.095	13738.8
500.298	14041.9
500.501	14013.23
500.705	14340.9
500.908	14433.06
501.111	14482.21
501.314	14660.38
501.517	14822.17
501.72	15178.52
501.923	15029.02
502.126	15362.84
502.329	15840.01
502.532	15622.93
502.735	15557.39
502.938	15971.08
503.141	16413.45
503.344	16390.92
503.547	16446.21
503.75	16612.1
503.953	17212.15
504.156	16888.57
504.359	17292.02
504.562	17505.01
504.765	17722.1
504.968	17898.22
505.17	18017.01
505.373	18123.5
505.576	18338.54
505.779	18750.18
505.982	18721.51
506.185	18961.12
506.387	19071.71
506.59	19434.2
506.793	19612.37
506.996	19495.64
507.198	20101.84
507.401	19778.26
507.604	20056.78
507.807	20708.04
508.009	20601.54
508.212	21050.05
508.415	21183.16
508.617	21400.25
508.82	21340.86
509.022	21631.67
509.225	22080.18
509.428	22270.64
509.63	22268.59
509.833	22618.79
510.035	23155.36
510.238	23122.59
510.44	23167.65
510.643	23423.64
510.845	23669.4
511.048	23601.82
511.25	23861.91
511.453	23958.16
511.655	25074.31
511.858	24683.14
512.06	25043.59
512.262	25049.73
512.465	24914.56
512.667	25389.69
512.87	25916.02
513.072	25916.02
513.274	26174.06
513.477	26405.49
513.679	26585.71
513.881	26835.56
514.084	27322.98
514.286	27245.15
514.488	27443.81
514.69	28508.75
514.893	28023.38
515.095	28201.55
515.297	28781.13
515.499	28543.56
515.701	29168.19
515.904	29489.73
516.106	29520.45
516.308	29848.12
516.51	29977.14
516.712	30210.61
516.914	30128.69
517.116	31001.13
517.318	30949.93
517.52	31121.96
517.722	31375.91
517.925	31754.78
518.127	32018.97
518.329	32309.78
518.531	32164.37
518.733	32692.75
518.935	33135.11
519.136	33286.66
519.338	33153.54
519.54	33446.4
519.742	33985.02
519.944	33735.17
520.146	34609.65
520.348	34746.86
520.55	34441.71
520.752	34748.91
520.954	35533.28
521.155	35062.25
521.357	35764.7
521.559	35883.48
521.761	36264.41
521.963	36004.31
522.164	36284.89
522.366	36696.53
522.568	36835.79
522.77	37249.48
522.971	37437.89
523.173	37157.32
523.375	38017.47
523.576	37437.89
523.778	37642.69
523.98	38328.76
524.181	38592.95
524.383	38752.69
524.584	38683.06
524.786	38773.17
524.988	39061.93
525.189	39205.29
525.391	39465.38
525.592	39485.86
525.794	39424.42
525.995	39840.16
526.197	39635.36
526.398	39821.73
526.6	40208.79
526.801	40276.38
527.003	40630.68
527.204	40556.95
527.406	40917.39
527.607	40591.76
527.808	40923.54
528.01	40321.43
528.211	41015.69
528.412	41789.83
528.614	41664.9
528.815	41560.45
529.016	41798.02
529.218	41570.69
529.419	41693.57
529.62	42092.93
529.822	41601.41
530.023	41884.03
530.224	41896.32
530.425	41632.13
530.626	41736.58
530.828	41718.15
531.029	42643.83
531.23	41591.17
531.431	41705.86
531.632	42158.46
531.833	42242.43
532.035	42479.99
532.236	42404.22
532.437	42674.55
532.638	42322.3
532.839	42502.52
533.04	42686.84
533.241	42297.72
533.442	42942.83
533.643	42649.97
533.844	42572.15
534.045	42887.54
534.246	42160.51
534.447	42932.59
534.648	42387.83
534.849	42944.88
535.05	42166.65
535.251	42549.62
535.451	42590.58
535.652	43047.28
535.853	42664.31
536.054	43022.7
536.255	42875.25
536.456	41998.72
536.657	42953.07
536.857	42772.85
537.058	42228.09
537.259	42723.7
537.46	43147.63
537.66	42271.1
537.861	42860.91
538.062	42641.78
538.263	42795.38
538.463	42740.08
538.664	42477.94
538.865	42350.97
539.065	43172.21
539.266	42414.46
539.466	42994.03
539.667	42281.34
539.868	42754.42
540.068	42289.53
540.269	42686.84
540.469	42903.92
540.67	42758.52
540.87	42549.62
541.071	42828.15
541.271	42570.1
541.472	42699.12
541.672	42494.33
541.873	42695.03
542.073	41974.14
542.274	43010.42
542.474	42355.07
542.675	42369.4
542.875	42729.84
543.075	42652.02
543.276	42230.14
543.476	42877.3
543.676	42217.85
543.877	42557.81
544.077	42359.16
544.277	42367.35
544.478	42121.6
544.678	42596.73
544.878	42367.35
545.078	42666.36
545.279	42303.87
545.479	42463.61
545.679	42635.64
545.879	42617.21
546.079	41920.9
546.28	42383.74
546.48	41906.56
546.68	42361.21
546.88	42678.64
547.08	41859.46
547.28	42396.03
547.48	42027.39
547.68	42174.84
547.88	42037.63
548.081	42467.7
548.281	42133.89
548.481	42350.97
548.681	42609.01
548.881	41978.24
549.081	41861.51
549.28	41625.99
549.48	41855.36
549.68	41972.1
549.88	42862.96
550.08	41453.96
550.28	41935.23
550.48	41707.91
550.68	42576.25
550.88	42137.98
551.08	42060.16
551.279	41998.72
551.479	41927.04
551.679	42164.6
551.879	41759.11
552.079	42119.55
552.278	41812.35
552.478	42068.35
552.678	41621.89
552.878	41769.35
553.077	41679.24
553.277	41476.49
553.477	42189.18
553.676	41709.96
553.876	41593.22
554.076	41748.87
554.275	41427.34
554.475	41230.73
554.674	41793.92
554.874	41470.34
555.074	41427.34
555.273	41523.59
555.473	41677.19
555.672	41152.91
555.872	41482.63
556.071	41341.32
556.271	41517.45
556.47	41363.85
556.67	40841.62
556.869	41193.87
557.068	41527.69
557.268	40454.55
557.467	41204.11
557.667	41191.82
557.866	41308.55
558.065	41040.27
558.265	40960.4
558.464	40409.5
558.663	41347.47
558.863	40458.65
559.062	41396.62
559.261	40587.67
559.461	41363.85
559.66	40880.53
559.859	41017.74
560.058	40563.09
560.258	40733.07
560.457	40092.06
560.656	40634.77
560.855	40216.99
561.054	40714.64
561.253	40266.14
561.453	40243.61
561.652	39942.56
561.851	40745.36
562.05	40042.91
562.249	39870.88
562.448	40264.09
562.647	40235.42
562.846	39932.32
563.045	39584.16
563.244	39549.35
563.443	39965.09
563.642	39405.99
563.841	39545.25
564.04	39578.02
564.239	39702.95
564.438	39258.54
564.637	39418.28
564.836	39268.78
565.035	39012.78
565.234	39139.75
565.432	38943.15
565.631	39205.29
565.83	39338.41
566.029	39475.62
566.228	38760.88
566.427	38955.44
566.625	38685.11
566.824	38463.93
567.023	38920.62
567.222	38083
567.42	39000.49
567.619	38451.64
567.818	38578.61
568.016	38316.47
568.215	39266.73
568.414	38220.22
568.612	38588.85
568.811	38078.91
569.01	38040
569.208	37568.96
569.407	38031.8
569.605	37859.77
569.804	38232.5
570.002	37841.34
570.201	37528
570.4	37337.54
570.598	37796.29
570.797	37470.66
570.995	37562.82
571.193	37050.83
571.392	37542.34
571.59	37161.42
571.789	37476.8
571.987	36909.52
572.186	36708.82
572.384	36919.76
572.582	36977.1
572.781	37075.4
572.979	36434.39
573.177	36772.3
573.376	36493.78
573.574	36125.14
573.772	36620.75
573.971	36284.89
574.169	36098.52
574.367	35820
574.565	36508.11
574.763	36002.27
574.962	35994.07
575.16	35854.81
575.358	36385.24
575.556	35482.08
575.754	36252.12
575.952	35441.12
576.151	35793.37
576.349	35457.51
576.547	35287.53
576.745	35402.21
576.943	35238.37
577.141	35445.22
577.339	35117.54
577.537	34851.31
577.735	35426.79
577.933	34863.6
578.131	34943.47
578.329	34871.79
578.527	34714.09
578.725	34617.84
578.923	34578.93
579.121	34478.58
579.319	34474.48
579.516	34478.58
579.714	34261.49
579.912	33950.2
580.11	34132.47
580.308	33987.07
580.506	34136.57
580.704	33825.28
580.901	33718.78
581.099	33911.29
581.297	33712.64
581.495	33247.75
581.692	33757.69
581.89	33374.72
582.088	33350.15
582.285	33444.35
582.483	33370.63
582.681	33372.67
582.878	33055.24
583.076	32586.25
583.274	33073.67
583.471	32324.11
583.669	32487.95
583.866	32494.1
584.064	32727.56
584.262	32125.46
584.459	32748.04
584.657	32524.82
584.854	32510.48
585.052	31783.45
585.249	31984.15
585.447	31873.56
585.644	31992.34
585.841	31816.22
586.039	31978.01
586.236	31611.42
586.434	31433.25
586.631	31216.16
586.828	31396.38
587.026	31437.34
587.223	31279.65
587.42	31056.42
587.618	31240.74
587.815	30640.68
588.012	30849.58
588.21	31048.23
588.407	30892.58
588.604	30583.34
588.801	30458.42
588.999	30710.32
589.196	30534.19
589.393	30644.78
589.59	30263.86
589.787	30091.83
589.984	30028.34
590.182	29678.14
590.379	29897.27
590.576	30001.72
590.773	30018.1
590.97	29731.39
591.167	30085.68
591.364	29534.78
591.561	29592.12
591.758	29176.39
591.955	29311.55
592.152	29461.05
592.349	29219.39
592.546	29293.12
592.743	28820.04
592.94	28856.9
593.137	29196.87
593.334	29311.55
593.531	28418.64
593.727	28736.07
593.924	28736.07
594.121	28228.18
594.318	28705.35
594.515	27984.47
594.712	28578.38
594.908	27867.73
595.105	28023.38
595.302	27974.23
595.499	27943.51
595.696	27705.95
595.892	28050
596.089	28064.34
596.286	27642.46
596.482	27245.15
596.679	27232.86
596.876	27505.24
597.072	27398.75
597.269	27300.45
597.466	27093.6
597.662	27028.07
597.859	27075.17
598.055	27173.47
598.252	26983.01
598.448	26843.75
598.645	26698.34
598.841	26364.53
599.038	26528.36
599.234	26720.87
599.431	26301.04
599.627	26561.13
599.824	26434.16
600.02	26153.58
600.217	26262.13
600.413	26096.24
600.609	25787
600.806	26088.05
601.002	25823.86
601.198	25533.05
601.395	25680.5
601.591	25596.54
601.787	25250.43
601.984	25184.9
602.18	25506.43
602.376	25115.26
602.572	25299.58
602.769	25289.34
602.965	25055.87
603.161	24928.9
603.357	24801.93
603.553	24808.07
603.75	24771.21
603.946	24527.5
604.142	24531.59
604.338	24263.31
604.534	24767.11
604.73	24298.13
604.926	24345.23
605.122	24351.37
605.318	24318.6
605.514	24218.25
605.71	24054.42
605.906	24009.36
606.102	23691.93
606.298	23759.51
606.494	23632.54
606.69	23827.09
606.886	24029.84
607.082	23497.37
607.278	23847.57
607.474	23304.86
607.67	23579.29
607.866	23186.08
608.062	23392.92
608.257	23038.62
608.453	23085.73
608.649	23333.53
608.845	22995.62
609.041	22794.92
609.236	23190.17
609.432	23132.83
609.628	22764.2
609.824	22872.74
610.019	23231.13
610.215	22708.9
610.411	23012
610.606	22651.56
610.802	22592.17
610.998	22708.9
611.193	22700.71
611.389	22702.76
611.584	22645.41
611.78	22137.52
611.976	22307.5
612.171	22475.43
612.367	22473.39
612.562	22135.47
612.758	22088.37
612.953	22125.23
613.149	22237.87
613.344	21713.59
613.539	22319.79
613.735	22020.78
613.93	21998.26
614.126	22168.24
614.321	21955.25
614.517	21996.21
614.712	21791.41
614.907	21815.99
615.103	21723.83
615.298	21777.08
615.493	21951.15
615.688	21488.31
615.884	22041.26
616.079	21404.35
616.274	21822.13
616.47	21547.7
616.665	21459.64
616.86	21463.74
617.055	21490.36
617.25	21633.72
617.445	21494.46
617.641	21002.94
617.836	21498.55
618.031	20925.12
618.226	21195.45
618.421	20859.59
618.616	21263.04
618.811	20667.08
619.006	20802.24
619.201	20390.6
619.396	20763.33
619.591	20224.72
619.786	21068.48
619.981	20298.44
620.176	20419.27
620.371	20087.5
620.566	20038.35
620.761	20114.13
620.956	20290.25
621.151	19872.46
621.346	19950.29
621.541	19532.5
621.735	19921.62
621.93	19311.32
622.125	19552.98
622.32	19073.76
622.515	19278.55
622.709	19247.83
622.904	19065.57
623.099	18895.58
623.294	19032.8
623.488	18748.13
623.683	19043.04
623.878	18373.35
624.072	18592.48
624.267	18617.06
624.462	18617.06
624.656	18141.93
624.851	18256.62
625.046	18035.44
625.24	18012.91
625.435	17851.12
625.629	18123.5
625.824	17621.75
626.018	17414.9
626.213	17457.91
626.407	17543.92
626.602	16990.97
626.796	17236.73
626.991	17148.67
627.185	17023.74
627.38	16894.72
627.574	16749.31
627.768	16927.49
627.963	16413.45
628.157	16495.36
628.352	16593.67
628.546	16139.02
628.74	16544.52
628.935	16323.33
629.129	16214.79
629.323	15981.32
629.517	15850.25
629.712	15667.98
629.906	15813.39
630.1	15588.11
630.294	15620.88
630.489	15516.44
630.683	15758.1
630.877	15211.29
631.071	15389.46
631.265	15366.93
631.459	15207.19
631.653	14910.24
631.848	15274.77
632.042	15061.79
632.236	14676.77
632.43	14717.73
632.624	14723.87
632.818	14687.01
633.012	14367.52
633.206	14228.26
633.4	14334.76
633.594	14140.2
633.788	14218.02
633.982	14261.03
634.176	14283.56
634.369	14048.04
634.563	14078.76
634.757	13775.66
634.951	13925.16
635.145	13843.24
635.339	13800.24
635.533	13599.54
635.726	13845.29
635.92	13452.08
636.114	13781.81
636.308	13314.87
636.501	13339.44
636.695	12962.62
636.889	13177.65
637.083	13191.99
637.276	12899.13
637.47	13196.09
637.664	12759.87
637.857	12888.89
638.051	12559.17
638.244	12704.57
638.438	12827.45
638.632	12495.68
638.825	12290.88
639.019	12337.99
639.212	12327.75
639.406	12634.94
639.599	12319.56
639.793	12256.07
639.986	11965.26
640.18	11869
640.373	11891.53
640.567	11674.45
640.76	11625.29
640.954	11731.79
641.147	11600.72
641.34	11586.38
641.534	11475.79
641.727	11483.98
641.92	11613.01
642.114	11449.17
642.307	11414.35
642.5	11330.39
642.694	11375.44
642.887	11072.34
643.08	11027.29
643.273	11015
643.467	11043.67
643.66	11070.3
643.853	10750.81
644.046	10775.39
644.239	10781.53
644.432	10691.42
644.626	10515.3
644.819	10660.7
645.012	10664.8
645.205	10703.71
645.398	10398.56
645.591	10419.04
645.784	10263.4
645.977	9898.86
646.17	10263.4
646.363	10072.93
646.556	9991.02
646.749	10034.02
646.942	10212.2
647.135	9882.47
647.328	9771.88
647.521	9841.51
647.714	9882.47
647.907	9714.54
648.099	9823.08
648.292	9708.4
648.485	9646.96
648.678	9634.67
648.871	9474.93
649.064	9366.39
649.256	9456.5
649.449	9452.4
649.642	9393.01
649.835	9288.56
650.027	9251.7
650.22	9192.31
650.413	9053.05
650.605	8942.46
650.798	8995.7
650.991	9032.57
651.183	9018.23
651.376	8991.61
651.568	8795
651.761	8559.49
651.954	8608.64
652.146	8510.33
652.339	8596.35
652.531	8551.29
652.724	8647.55
652.916	8328.06
653.109	8491.9
653.301	8352.64
653.494	8549.25
653.686	8194.95
653.879	8221.57
654.071	8283.01
654.263	8074.12
654.456	8215.43
654.648	8246.15
654.84	7965.57
655.033	8029.06
655.225	8004.49
655.417	7945.09
655.61	7895.94
655.802	8027.01
655.994	7764.87
656.186	7750.54
656.379	7752.59
656.571	7734.15
656.763	7555.98
656.955	7603.08
657.148	7564.17
657.34	7529.36
657.532	7314.32
657.724	7295.89
657.916	7349.14
658.108	7312.27
658.3	7295.89
658.492	7338.9
658.684	7287.7
658.876	7334.8
659.068	7256.98
659.26	7074.71
659.452	7078.8
659.644	7156.63
659.836	7041.94
660.028	6902.68
660.22	6912.92
660.412	7013.27
660.604	6859.67
660.796	6828.95
660.988	6747.03
661.18	6728.6
661.372	6532
661.563	6855.58
661.755	6599.58
661.947	6681.5
662.139	6646.68
662.331	6398.88
662.522	6497.18
662.714	6462.37
662.906	6423.45
663.097	6222.75
663.289	6419.36
663.481	6210.47
663.673	6173.6
663.864	6103.97
664.056	6173.6
664.247	6196.13
664.439	6054.82
664.631	6026.15
664.822	6075.3
665.014	6218.66
665.205	6011.81
665.397	6028.2
665.588	5942.18
665.78	5870.5
665.971	5948.33
666.163	5884.84
666.354	5829.54
666.546	5800.87
666.737	5796.78
666.929	5772.2
667.12	5782.44
667.311	5749.67
667.503	5710.76
667.694	5639.08
667.885	5641.13
668.077	5669.8
668.268	5383.09
668.459	5546.92
668.651	5534.64
668.842	5440.43
669.033	5454.76
669.224	5311.41
669.416	5467.05
669.607	5264.3
669.798	5260.21
669.989	5311.41
670.18	5292.98
670.371	5219.25
670.563	5137.33
670.754	5163.95
670.945	5231.54
671.136	5270.45
671.327	5170.1
671.518	5108.66
671.709	5135.28
671.9	5247.92
672.091	4977.59
672.282	5133.23
672.473	4981.68
672.664	5096.37
672.855	4928.44
673.046	4811.7
673.237	4969.4
673.428	4899.77
673.619	4871.09
673.809	4858.81
674	4862.9
674.191	4780.98
674.382	4684.73
674.573	4789.17
674.764	4705.21
674.954	4838.33
675.145	4733.88
675.336	4563.9
675.527	4547.51
675.717	4688.82
675.908	4582.33
676.099	4670.39
676.289	4654.01
676.48	4590.52
676.671	4625.34
676.861	4584.38
677.052	4387.77
677.243	4451.26
677.433	4656.06
677.624	4531.13
677.814	4533.18
678.005	4486.08
678.195	4352.96
678.386	4279.23
678.576	4318.14
678.767	4457.4
678.957	4330.43
679.148	4502.46
679.338	4416.44
679.529	4455.36
679.719	4189.12
679.909	4365.25
680.1	4225.98
680.29	4199.36
680.481	4250.56
680.671	4158.4
680.861	4336.57
681.052	4242.37
681.242	4195.26
681.432	4307.9
681.622	4219.84
681.813	4039.62
682.003	4301.76
682.193	4105.15
682.383	4008.9
682.573	4047.81
682.764	4142.02
682.954	4137.92
683.144	4127.68
683.334	4078.53
683.524	4041.67
683.714	3998.66
683.904	3867.59
684.094	3900.36
684.284	4035.52
684.474	4154.3
684.664	4004.8
684.854	4039.62
685.044	3982.28
685.234	3992.52
685.424	3929.03
685.614	4015.04
685.804	3939.27
685.994	3826.63
686.184	3879.88
686.374	3785.67
686.564	3859.4
686.753	3849.16
686.943	3775.43
687.133	3773.38
687.323	3582.92
687.513	3797.96
687.702	3732.42
687.892	3742.66
688.082	3726.28
688.272	3658.7
688.461	3711.94
688.651	3711.94
688.841	3675.08
689.03	3621.83
689.22	3630.02
689.41	3621.83
689.599	3558.35
689.789	3566.54
689.979	3529.67
690.168	3515.34
690.358	3593.16
690.547	3578.83
690.737	3371.98
690.926	3374.03
691.116	3443.66
691.305	3505.1
691.495	3380.17
691.684	3304.4
691.874	3324.88
692.063	3367.88
692.252	3337.17
692.442	3318.73
692.631	3152.85
692.82	3318.73
693.01	3210.19
693.199	3101.65
693.388	3158.99
693.578	3339.21
693.767	3181.52
693.956	3171.28
694.146	3083.22
694.335	3083.22
694.524	3060.69
694.713	3150.8
694.902	3115.98
695.092	2933.72
695.281	3068.88
695.47	2900.95
695.659	3111.89
695.848	2857.94
696.037	2993.11
696.226	3011.54
696.415	2954.19
696.604	3087.31
696.793	2849.75
696.982	2864.08
697.171	3038.16
697.36	2923.48
697.549	2874.32
697.738	2896.85
697.927	2802.65
698.116	2843.6
698.305	2757.59
698.494	2907.09
698.683	2954.19
698.872	2825.17
699.061	2773.97
699.25	2743.25
699.438	2814.93
699.627	2747.35
699.816	2710.49
700.005	2778.07
700.193	2814.93
700.382	2847.7
700.571	2757.59
700.76	2730.97
700.948	2710.49
701.137	2825.17
701.326	2757.59
701.514	2704.34
701.703	2821.08
701.892	2784.21
702.08	2737.11
702.269	2642.9
702.457	2716.63
702.646	2700.25
702.834	2589.66
703.023	2524.12
703.212	2661.34
703.4	2706.39
703.589	2653.14
703.777	2679.77
703.965	2640.86
704.154	2560.98
704.342	2587.61
704.531	2565.08
704.719	2655.19
704.907	2669.53
705.096	2585.56
705.284	2456.54
705.472	2538.46
705.661	2577.37
705.849	2528.22
706.037	2571.22
706.226	2597.85
706.414	2579.42
706.602	2450.39
706.79	2522.07
706.979	2513.88
707.167	2456.54
707.355	2477.02
707.543	2538.46
707.731	2517.98
707.919	2474.97
708.107	2413.53
708.296	2585.56
708.484	2452.44
708.672	2434.01
708.86	2534.36
709.048	2415.58
709.236	2552.79
709.424	2440.15
709.612	2454.49
709.8	2505.69
709.988	2425.82
710.176	2489.31
710.364	2440.15
710.551	2524.12
710.739	2419.68
710.927	2538.46
711.115	2431.96
711.303	2571.22
711.491	2610.14
711.679	2384.86
711.866	2391
712.054	2368.48
712.242	2429.91
712.43	2464.73
712.617	2460.63
712.805	2325.47
712.993	2376.67
713.181	2421.72
713.368	2448.35
713.556	2474.97
713.744	2393.05
713.931	2489.31
714.119	2331.61
714.306	2401.24
714.494	2472.92
714.682	2323.42
714.869	2454.49
715.057	2325.47
715.244	2331.61
715.432	2434.01
715.619	2350.04
715.807	2454.49
715.994	2497.5
716.182	2413.53
716.369	2442.2
716.556	2370.52
716.744	2397.15
716.931	2442.2
717.119	2397.15
717.306	2407.39
717.493	2413.53
717.681	2337.76
717.868	2438.11
718.055	2405.34
718.242	2378.72
718.43	2466.78
718.617	2366.43
718.804	2409.44
718.991	2405.34
719.179	2388.96
719.366	2270.17
719.553	2382.81
719.74	2360.28
719.927	2440.15
720.114	2436.06
720.301	2388.96
720.488	2479.07
720.676	2360.28
720.863	2343.9
721.05	2348
721.237	2272.22
721.424	2352.09
721.611	2364.38
721.798	2464.73
721.985	2333.66
722.172	2452.44
722.358	2259.93
722.545	2530.27
722.732	2366.43
722.919	2339.8
723.106	2309.08
723.293	2376.67
723.48	2255.84
723.667	2255.84
723.853	2440.15
724.04	2495.45
724.227	2530.27
724.414	2483.16
724.6	2354.14
724.787	2452.44
724.974	2292.7
725.161	2489.31
725.347	2284.51
725.534	2411.48
725.72	2388.96
725.907	2335.71
726.094	2325.47
726.28	2366.43
726.467	2329.56
726.653	2358.24
726.84	2356.19
727.027	2345.95
727.213	2391
727.4	2405.34
727.586	2460.63
727.773	2276.32
727.959	2315.23
728.145	2352.09
728.332	2335.71
728.518	2413.53
728.705	2393.05
728.891	2413.53
729.077	2184.16
729.264	2374.62
729.45	2366.43
729.636	2391
729.823	2315.23
730.009	2417.63
730.195	2468.83
730.382	2253.79
730.568	2413.53
730.754	2313.18
730.94	2341.85
731.126	2405.34
731.313	2145.25
731.499	2300.89
731.685	2354.14
731.871	2237.41
732.057	2372.57
732.243	2313.18
732.429	2329.56
732.615	2290.65
732.801	2483.16
732.987	2319.32
733.173	2298.84
733.359	2388.96
733.545	2290.65
733.731	2358.24
733.917	2204.64
734.103	2290.65
734.289	2319.32
734.475	2311.13
734.661	2264.03
734.847	2348
735.033	2358.24
735.219	2247.65
735.404	2225.12
735.59	2229.21
735.776	2311.13
735.962	2180.06
736.148	2315.23
736.333	2257.89
736.519	2298.84
736.705	2249.69
736.89	2329.56
737.076	2216.93
737.262	2135.01
737.447	2300.89
737.633	2094.05
737.819	2149.34
738.004	2233.31
738.19	2130.91
738.375	2139.1
738.561	2223.07
738.747	2208.73
738.932	2124.77
739.118	2141.15
739.303	2155.49
739.489	2063.33
739.674	2104.29
739.859	2180.06
740.045	2175.97
740.23	2094.05
740.416	1967.07
740.601	2218.97
740.786	2147.3
740.972	1991.65
741.157	2098.14
741.342	2024.42
741.528	2122.72
741.713	2085.86
741.898	2135.01
742.084	2005.99
742.269	2114.53
742.454	2218.97
742.639	2135.01
742.824	2130.91
743.01	1995.75
743.195	2051.04
743.38	2087.9
743.565	1977.31
743.75	1948.64
743.935	1928.16
744.12	2001.89
744.305	1979.36
744.49	1876.96
744.675	1852.39
744.86	1866.72
745.045	1975.27
745.23	1897.44
745.415	1891.3
745.6	1872.87
745.785	1858.53
745.97	2024.42
746.155	1872.87
746.34	1940.45
746.525	1876.96
746.71	1829.86
746.895	1766.37
747.079	1958.88
747.264	1713.13
747.449	1694.69
747.634	1811.43
747.819	1913.83
748.003	1856.48
748.188	1770.47
748.373	1749.99
748.557	1704.93
748.742	1643.49
748.927	1645.54
749.111	1608.68
749.296	1713.13
749.481	1745.89
749.665	1698.79
749.85	1713.13
750.034	1686.5
750.219	1655.78
750.404	1584.1
750.588	1592.3
750.773	1618.92
750.957	1672.17
751.141	1657.83
751.326	1584.1
751.51	1663.97
751.695	1598.44
751.879	1553.38
752.064	1612.78
752.248	1514.47
752.432	1582.06
752.617	1463.27
752.801	1532.9
752.985	1461.23
753.17	1397.74
753.354	1571.82
753.538	1512.42
753.722	1430.51
753.907	1450.99
754.091	1489.9
754.275	1500.14
754.459	1446.89
754.643	1426.41
754.828	1395.69
755.012	1446.89
755.196	1381.35
755.38	1328.11
755.564	1307.63
755.748	1309.68
755.932	1283.05
756.116	1287.15
756.3	1250.28
756.484	1328.11
756.668	1274.86
756.852	1272.81
757.036	1281
757.22	1289.2
757.404	1231.85
757.588	1252.33
757.772	1381.35
757.956	1295.34
758.14	1248.24
758.323	1246.19
758.507	1254.38
758.691	1221.61
758.875	1266.67
759.059	1188.85
759.242	1156.08
759.426	1127.41
759.61	1188.85
759.794	1108.98
759.977	1156.08
760.161	1174.51
760.345	1149.93
760.528	1211.37
760.712	1149.93
760.895	1162.22
761.079	1139.69
761.263	1133.55
761.446	1102.83
761.63	1000.43
761.813	1154.03
761.997	1074.16
762.18	1096.69
762.364	1090.54
762.547	1113.07
762.731	1076.21
762.914	1106.93
763.098	1106.93
763.281	1047.54
763.464	1006.58
763.648	988.14
763.831	1057.78
764.015	1016.82
764.198	1006.58
764.381	975.86
764.564	1008.62
764.748	1080.3
764.931	988.14
765.114	926.71
765.297	996.34
765.481	951.28
765.664	973.81
765.847	930.8
766.03	928.75
766.213	1029.1
766.397	1033.2
766.58	969.71
766.763	1057.78
766.946	955.38
767.129	930.8
767.312	912.37
767.495	959.47
767.678	941.04
767.861	926.71
768.044	973.81
768.227	943.09
768.41	934.9
768.593	984.05
768.776	938.99
768.959	920.56
769.142	861.17
769.324	998.38
769.507	984.05
769.69	807.92
769.873	824.31
770.056	914.42
770.239	893.94
770.421	971.76
770.604	828.4
770.787	891.89
770.97	812.02
771.152	857.07
771.335	818.16
771.518	877.55
771.7	814.07
771.883	828.4
772.066	879.6
772.248	920.56
772.431	861.17
772.613	799.73
772.796	832.5
772.978	816.12
773.161	822.26
773.343	809.97
773.526	830.45
773.708	803.83
773.891	781.3
774.073	797.68
774.256	816.12
774.438	793.59
774.621	754.68
774.803	775.16
774.985	740.34
775.168	812.02
775.35	816.12
775.532	795.64
775.715	711.67
775.897	689.14
776.079	752.63
776.261	719.86
776.444	754.68
776.626	711.67
776.808	705.53
776.99	650.23
777.173	629.75
777.355	652.28
777.537	691.19
777.719	615.41
777.901	672.76
778.083	695.29
778.265	652.28
778.447	631.8
778.629	560.12
778.811	678.9
778.993	680.95
779.175	541.69
779.357	599.03
779.539	652.28
779.721	652.28
779.903	566.26
780.085	619.51
780.267	615.41
780.449	541.69
780.631	617.46
780.812	596.98
780.994	578.55
781.176	521.21
781.358	568.31
781.54	568.31
781.721	615.41
781.903	551.93
782.085	580.6
782.267	551.93
782.448	582.65
782.63	523.26
782.812	533.5
782.993	596.98
783.175	578.55
783.357	652.28
783.538	558.07
783.72	457.72
783.901	455.67
784.083	447.48
784.264	500.73
784.446	416.76
784.627	519.16
784.809	457.72
784.99	529.4
785.172	488.44
785.353	420.86
785.535	494.58
785.716	504.82
785.897	470.01
786.079	470.01
786.26	357.37
786.441	451.58
786.623	408.57
786.804	416.76
786.985	455.67
787.167	476.15
787.348	502.78
787.529	371.71
787.71	371.71
787.891	353.27
788.073	418.81
788.254	343.03
788.435	406.52
788.616	347.13
788.797	383.99
788.978	418.81
789.159	416.76
789.34	369.66
789.522	369.66
789.703	404.47
789.884	373.75
790.065	316.41
790.246	400.38
790.427	336.89
790.607	359.42
790.788	353.27
790.969	398.33
791.15	355.32
791.331	349.18
791.512	379.9
791.693	230.4
791.874	353.27
792.054	365.56
792.235	451.58
792.416	359.42
792.597	324.6
792.778	367.61
792.958	353.27
793.139	334.84
793.32	207.87
793.5	287.74
793.681	312.32
793.862	424.95
794.042	349.18
794.223	349.18
794.404	418.81
794.584	248.83
794.765	273.4
794.945	259.07
795.126	359.42
795.306	275.45
795.487	318.46
795.667	318.46
795.848	297.98
796.028	281.6
796.209	220.16
796.389	273.4
796.57	250.88
796.75	244.73
796.93	285.69
797.111	320.51
797.291	297.98
797.471	345.08
797.652	271.36
797.832	220.16
798.012	238.59
798.192	181.25
798.373	179.2
798.553	205.82
798.733	318.46
798.913	211.96
799.093	211.96
799.274	226.3
799.454	275.45
799.634	267.26
799.814	265.21
799.994	287.74
800.174	218.11
800.354	232.44
800.534	234.49
800.714	238.59
800.894	222.2
801.074	183.29
801.254	207.87
801.434	246.78
801.614	150.53
801.794	193.53
801.974	541.69
802.154	275.45
802.334	295.93
802.514	183.29
802.693	203.77
802.873	211.96
803.053	232.44
803.233	257.02
803.413	209.92
803.592	252.92
803.772	201.72
803.952	201.72
804.131	238.59
804.311	230.4
804.491	201.72
804.67	230.4
804.85	189.44
805.03	207.87
805.209	242.68
805.389	220.16
805.568	140.29
805.748	232.44
805.928	197.63
806.107	203.77
806.287	224.25
806.466	209.92
806.646	232.44
806.825	265.21
807.004	189.44
807.184	209.92
807.363	234.49
807.543	148.48
807.722	185.34
807.901	148.48
808.081	222.2
808.26	191.49
808.439	197.63
808.619	134.14
808.798	156.67
808.977	218.11
809.156	232.44
809.336	177.15
809.515	189.44
809.694	173.05
809.873	132.09
810.052	123.9
810.231	252.92
810.411	205.82
810.59	224.25
810.769	246.78
810.948	160.77
811.127	87.04
811.306	72.7
811.485	205.82
811.664	203.77
811.843	148.48
812.022	179.2
812.201	158.72
812.38	162.81
812.559	138.24
812.737	121.85
812.916	152.57
813.095	136.19
813.274	107.52
813.453	146.43
813.632	76.8
813.811	148.48
813.989	93.18
814.168	236.54
814.347	164.86
814.526	185.34
814.704	179.2
814.883	140.29
815.062	84.99
815.24	138.24
815.419	136.19
815.598	154.62
815.776	125.95
815.955	173.05
816.133	107.52
816.312	168.96
816.49	54.27
816.669	121.85
816.847	117.76
817.026	154.62
817.204	160.77
817.383	66.56
817.561	95.23
817.74	142.33
817.918	156.67
818.097	154.62
818.275	154.62
818.453	87.04
818.632	132.09
818.81	132.09
818.988	87.04
819.167	113.66
819.345	140.29
819.523	164.86
819.701	132.09
819.879	33.79
820.058	62.46
820.236	64.51
820.414	15.36
820.592	74.75
820.77	115.71
820.948	103.42
821.127	25.6
821.305	107.52
821.483	107.52
821.661	80.89
821.839	117.76
822.017	148.48
822.195	101.37
822.373	115.71
822.551	39.94
822.729	107.52
822.907	121.85
823.085	89.09
823.262	50.18
823.44	76.8
823.618	123.9
823.796	-11.26
823.974	66.56
824.152	144.38
824.329	123.9
824.507	109.57
824.685	181.25
824.863	164.86
825.04	89.09
825.218	78.85
825.396	58.37
825.574	48.13
825.751	82.94
825.929	107.52
826.107	39.94
826.284	109.57
826.462	128
826.639	95.23
826.817	91.13
826.994	58.37
827.172	-1.02
827.349	66.56
827.527	84.99
827.704	117.76
827.882	60.42
828.059	146.43
828.237	76.8
828.414	130.05
828.591	107.52
828.769	62.46
828.946	97.28
829.124	132.09
829.301	105.47
829.478	64.51
829.655	82.94
829.833	54.27
830.01	25.6
830.187	113.66
830.364	39.94
830.542	37.89
830.719	84.99
830.896	107.52
831.073	33.79
831.25	97.28
831.427	60.42
831.604	142.33
831.782	70.65
831.959	82.94
832.136	39.94
832.313	181.25
832.49	66.56
832.667	52.22
832.844	70.65
833.021	87.04
833.198	39.94
833.374	76.8
833.551	84.99
833.728	115.71
833.905	13.31
834.082	109.57
834.259	72.7
834.436	-15.36
834.612	15.36
834.789	95.23
834.966	31.74
835.143	130.05
835.319	58.37
835.496	70.65
835.673	132.09
835.85	99.33
836.026	58.37
836.203	105.47
836.38	66.56
836.556	56.32
836.733	31.74
836.909	82.94
837.086	60.42
837.262	-9.22
837.439	-9.22
837.616	35.84
837.792	60.42
837.968	19.46
838.145	50.18
838.321	13.31
838.498	50.18
838.674	50.18
838.851	93.18
839.027	31.74
839.203	44.03
839.38	101.37
839.556	37.89
839.732	33.79
839.909	70.65
840.085	41.98
840.261	134.14
840.437	54.27
840.614	66.56
840.79	60.42
840.966	13.31
841.142	54.27
841.318	46.08
841.494	33.79
841.671	84.99
841.847	13.31
842.023	-44.03
842.199	19.46
842.375	99.33
842.551	37.89
842.727	44.03
842.903	152.57
843.079	15.36
843.255	78.85
843.431	58.37
843.607	3.07
843.783	52.22
843.959	72.7
844.134	9.22
844.31	72.7
844.486	52.22
844.662	-9.22
844.838	7.17
845.013	23.55
845.189	-27.65
845.365	56.32
845.541	27.65
845.716	46.08
845.892	9.22
846.068	74.75
846.244	7.17
846.419	-1.02
846.595	-56.32
846.77	-23.55
846.946	46.08
847.122	44.03
847.297	-58.37
847.473	25.6
847.648	41.98
847.824	66.56
847.999	72.7
848.175	123.9
848.35	13.31
848.526	68.61
848.701	23.55
848.876	11.26
849.052	-27.65
849.227	15.36
849.403	1.02
849.578	29.7
849.753	13.31
849.929	70.65
850.104	25.6
850.279	39.94
850.454	56.32
850.63	17.41
850.805	91.13
850.98	68.61
851.155	1.02
851.33	56.32
851.505	-9.22
851.681	84.99
851.856	27.65
852.031	89.09
852.206	-9.22
852.381	23.55
852.556	-64.51
852.731	50.18
852.906	3.07
853.081	54.27
853.256	82.94
853.431	37.89
853.606	19.46
853.781	39.94
853.956	-66.56
854.131	-3.07
854.305	33.79
854.48	27.65
854.655	3.07
854.83	46.08
855.005	15.36
855.18	-33.79
855.354	-41.98
855.529	-33.79
855.704	48.13
855.879	27.65
856.053	13.31
856.228	41.98
856.403	-9.22
856.577	82.94
856.752	-41.98
856.926	46.08
857.101	31.74
857.276	17.41
857.45	44.03
857.625	58.37
857.799	105.47
857.974	33.79
858.148	23.55
858.323	64.51
858.497	-27.65
858.672	-15.36
858.846	-3.07
859.02	33.79
859.195	-11.26
859.369	89.09
859.543	72.7
859.718	-17.41
859.892	50.18
860.066	87.04
860.241	44.03
860.415	54.27
860.589	72.7
860.763	97.28
860.938	7.17
861.112	-13.31
861.286	1.02
861.46	35.84
861.634	-23.55
861.808	35.84
861.982	17.41
862.157	-74.75
862.331	70.65
862.505	19.46
862.679	-7.17
862.853	17.41
863.027	15.36
863.201	111.61
863.375	13.31
863.549	11.26
863.722	17.41
863.896	99.33
864.07	-35.84
864.244	5.12
864.418	5.12
864.592	11.26
864.766	-1.02
864.939	48.13
865.113	-11.26
865.287	19.46
865.461	37.89
865.634	72.7
865.808	35.84
865.982	-41.98
866.156	-17.41
866.329	-37.89
866.503	39.94
866.676	23.55
866.85	-11.26
867.024	52.22
867.197	123.9
867.371	50.18
867.544	9.22
867.718	37.89
867.891	46.08
868.065	29.7
868.238	58.37
868.412	46.08
868.585	-19.46
868.759	-117.76
868.932	5.12
869.105	-1.02
869.279	-7.17
869.452	39.94
869.625	-13.31
869.799	-23.55
869.972	-19.46
870.145	-31.74
870.319	48.13
870.492	46.08
870.665	-72.7
870.838	25.6
871.011	-23.55
871.185	9.22
871.358	72.7
871.531	52.22
871.704	41.98
871.877	48.13
872.05	13.31
872.223	5.12
872.396	5.12
872.569	31.74
872.742	-78.85
872.915	7.17
873.088	-39.94
873.261	70.65
873.434	-29.7
873.607	58.37
873.78	37.89
873.953	-52.22
874.126	31.74
874.299	-5.12
874.471	41.98
874.644	-80.89
874.817	41.98
874.99	19.46
875.163	-7.17
875.335	64.51
875.508	-5.12
875.681	33.79
875.853	15.36
876.026	-19.46
876.199	3.07
876.371	-13.31
876.544	-9.22
876.717	19.46
876.889	-15.36
877.062	-3.07
877.234	-33.79
877.407	-33.79
877.579	-1.02
877.752	-1.02
877.924	15.36
878.097	82.94
878.269	60.42
878.442	-11.26
878.614	-70.65
878.786	11.26
878.959	78.85
879.131	48.13
879.303	21.5
879.476	33.79
879.648	80.89
879.82	80.89
879.993	11.26
880.165	-27.65
880.337	-19.46
880.509	-44.03
880.681	-54.27
880.854	54.27
881.026	41.98
881.198	-23.55
881.37	-19.46
881.542	46.08
881.714	25.6
881.886	-37.89
882.058	15.36
882.23	21.5
882.402	25.6
882.574	15.36
882.746	11.26
882.918	-46.08
883.09	13.31
883.262	-7.17
883.434	-48.13
883.606	-25.6
883.778	-21.5
883.95	17.41
884.122	-9.22
884.293	17.41
884.465	11.26
884.637	31.74
884.809	-15.36
884.98	9.22
885.152	1.02
885.324	-3.07
885.496	27.65
885.667	37.89
885.839	-41.98
886.011	117.76
886.182	-31.74
886.354	-35.84
886.525	54.27
886.697	-11.26
886.869	68.61
887.04	-39.94
887.212	-25.6
887.383	50.18
887.555	29.7
887.726	-48.13
887.897	-15.36
888.069	-11.26
888.24	13.31
888.412	-11.26
888.583	15.36
888.754	33.79
888.926	23.55
889.097	-15.36
889.268	-35.84
889.44	1.02
889.611	-33.79
889.782	33.79
889.953	39.94
890.125	-7.17
890.296	-48.13
890.467	7.17
890.638	-29.7
890.809	-5.12
890.98	-3.07
891.151	25.6
891.323	1.02
891.494	35.84
891.665	21.5
891.836	5.12
892.007	-35.84
892.178	-9.22
892.349	-66.56
892.52	-15.36
892.691	5.12
892.862	-48.13
893.032	-17.41
893.203	13.31
893.374	-31.74
893.545	50.18
893.716	-1.02
893.887	33.79
894.057	-19.46
894.228	31.74
894.399	-21.5
894.57	-3.07
894.74	-37.89
894.911	29.7
895.082	-25.6
895.253	3.07
895.423	15.36
895.594	9.22
895.764	-19.46
895.935	-23.55
896.106	29.7
896.276	-21.5
896.447	35.84
896.617	17.41
896.788	-37.89
896.958	-72.7
897.129	70.65
897.299	62.46
897.47	19.46
897.64	-15.36
897.81	-15.36
897.981	17.41
898.151	21.5
898.322	3.07
898.492	1.02
898.662	-44.03
898.832	48.13
899.003	9.22
899.173	7.17
899.343	27.65
899.513	72.7
