Data from USB4F104151__87__11-37-51-738.txt Node

Date: Fri Mar 14 11:37:51 EDT 2025
User: louis
Spectrometer: USB4F10415
Trigger mode: 4
Integration Time (sec): 2.000000E-2
Scans to average: 1
Electric dark correction enabled: true
Nonlinearity correction enabled: false
Boxcar width: 0
XAxis mode: Wavelengths
Number of Pixels in Spectrum: 3648
>>>>>Begin Spectral Data<<<<<
178.204	-75.09
178.424	-75.09
178.644	-75.09
178.864	-73.04
179.084	-44.37
179.304	6.83
179.524	37.55
179.744	10.92
179.964	-34.13
180.184	-66.9
180.404	29.35
180.624	-1.37
180.844	62.12
181.064	-13.65
181.283	-19.8
181.503	-11.61
181.723	0.68
181.943	-9.56
182.163	64.17
182.383	45.74
182.602	51.88
182.822	121.51
183.042	70.31
183.262	80.55
183.482	60.07
183.701	64.17
183.921	-30.04
184.141	37.55
184.361	33.45
184.58	-1.37
184.8	43.69
185.02	49.83
185.239	80.55
185.459	15.02
185.679	8.87
185.898	15.02
186.118	64.17
186.338	53.93
186.557	-34.13
186.777	49.83
186.997	8.87
187.216	88.75
187.436	39.59
187.655	29.35
187.875	53.93
188.095	31.4
188.314	4.78
188.534	-3.41
188.753	29.35
188.973	70.31
189.192	86.7
189.412	15.02
189.631	12.97
189.851	58.03
190.07	-30.04
190.29	0.68
190.509	35.5
190.729	51.88
190.948	55.98
191.168	25.26
191.387	58.03
191.607	41.64
191.826	17.07
192.045	4.78
192.265	64.17
192.484	47.79
192.704	17.07
192.923	39.59
193.142	17.07
193.362	-17.75
193.581	2.73
193.8	-1.37
194.02	162.47
194.239	2.73
194.458	80.55
194.678	53.93
194.897	47.79
195.116	43.69
195.335	53.93
195.555	94.89
195.774	47.79
195.993	68.27
196.212	78.51
196.432	58.03
196.651	101.03
196.87	49.83
197.089	80.55
197.308	25.26
197.528	53.93
197.747	-7.51
197.966	103.08
198.185	62.12
198.404	23.21
198.623	72.36
198.842	39.59
199.062	-21.85
199.281	10.92
199.5	39.59
199.719	19.11
199.938	55.98
200.157	154.28
200.376	162.47
200.595	37.55
200.814	29.35
201.033	-13.65
201.252	31.4
201.471	72.36
201.69	41.64
201.909	55.98
202.128	70.31
202.347	35.5
202.566	8.87
202.785	-15.7
203.004	37.55
203.223	68.27
203.442	80.55
203.661	47.79
203.879	60.07
204.098	53.93
204.317	-42.32
204.536	27.31
204.755	21.16
204.974	51.88
205.193	6.83
205.411	58.03
205.63	-1.37
205.849	62.12
206.068	47.79
206.287	27.31
206.505	94.89
206.724	98.99
206.943	25.26
207.162	-27.99
207.381	8.87
207.599	23.21
207.818	33.45
208.037	41.64
208.255	-23.89
208.474	115.37
208.693	15.02
208.911	-11.61
209.13	37.55
209.349	-11.61
209.567	8.87
209.786	101.03
210.005	45.74
210.223	-17.75
210.442	12.97
210.661	39.59
210.879	41.64
211.098	103.08
211.316	92.84
211.535	70.31
211.753	74.41
211.972	152.23
212.191	8.87
212.409	-36.18
212.628	66.22
212.846	39.59
213.065	74.41
213.283	94.89
213.502	35.5
213.72	74.41
213.938	29.35
214.157	23.21
214.375	82.6
214.594	74.41
214.812	39.59
215.031	66.22
215.249	43.69
215.467	35.5
215.686	51.88
215.904	53.93
216.122	19.11
216.341	23.21
216.559	49.83
216.778	58.03
216.996	78.51
217.214	43.69
217.432	70.31
217.651	-19.8
217.869	27.31
218.087	27.31
218.306	66.22
218.524	39.59
218.742	107.18
218.96	37.55
219.179	-3.41
219.397	15.02
219.615	103.08
219.833	-11.61
220.051	27.31
220.27	74.41
220.488	39.59
220.706	58.03
220.924	-3.41
221.142	0.68
221.36	113.32
221.578	25.26
221.796	39.59
222.015	53.93
222.233	115.37
222.451	78.51
222.669	66.22
222.887	8.87
223.105	-27.99
223.323	-11.61
223.541	-73.04
223.759	66.22
223.977	17.07
224.195	107.18
224.413	33.45
224.631	66.22
224.849	4.78
225.067	152.23
225.285	-5.46
225.503	-17.75
225.721	33.45
225.939	90.79
226.157	-15.7
226.375	119.46
226.592	-17.75
226.81	-15.7
227.028	66.22
227.246	115.37
227.464	25.26
227.682	80.55
227.9	49.83
228.117	107.18
228.335	98.99
228.553	123.56
228.771	23.21
228.989	80.55
229.206	60.07
229.424	105.13
229.642	17.07
229.86	21.16
230.077	92.84
230.295	64.17
230.513	15.02
230.731	-32.08
230.948	107.18
231.166	29.35
231.384	39.59
231.601	-3.41
231.819	49.83
232.037	66.22
232.254	45.74
232.472	-13.65
232.689	35.5
232.907	-30.04
233.125	55.98
233.342	33.45
233.56	15.02
233.777	41.64
233.995	8.87
234.213	-27.99
234.43	51.88
234.648	60.07
234.865	66.22
235.083	74.41
235.3	96.94
235.518	66.22
235.735	76.46
235.953	103.08
236.17	6.83
236.388	72.36
236.605	29.35
236.822	47.79
237.04	12.97
237.257	-30.04
237.475	-46.42
237.692	70.31
237.909	39.59
238.127	21.16
238.344	12.97
238.562	68.27
238.779	15.02
238.996	105.13
239.214	39.59
239.431	25.26
239.648	0.68
239.865	62.12
240.083	41.64
240.3	86.7
240.517	101.03
240.735	0.68
240.952	10.92
241.169	66.22
241.386	0.68
241.603	58.03
241.821	60.07
242.038	80.55
242.255	31.4
242.472	47.79
242.689	92.84
242.907	49.83
243.124	25.26
243.341	94.89
243.558	96.94
243.775	33.45
243.992	-38.23
244.209	45.74
244.426	107.18
244.643	113.32
244.86	47.79
245.078	90.79
245.295	43.69
245.512	111.27
245.729	123.56
245.946	53.93
246.163	72.36
246.38	111.27
246.597	-7.51
246.814	47.79
247.031	-38.23
247.248	4.78
247.464	31.4
247.681	55.98
247.898	-9.56
248.115	86.7
248.332	-44.37
248.549	12.97
248.766	62.12
248.983	162.47
249.2	72.36
249.417	-48.47
249.633	37.55
249.85	70.31
250.067	55.98
250.284	37.55
250.501	76.46
250.717	23.21
250.934	35.5
251.151	74.41
251.368	90.79
251.585	60.07
251.801	4.78
252.018	21.16
252.235	105.13
252.451	58.03
252.668	62.12
252.885	39.59
253.102	58.03
253.318	33.45
253.535	-44.37
253.752	12.97
253.968	-19.8
254.185	29.35
254.401	68.27
254.618	58.03
254.835	25.26
255.051	60.07
255.268	49.83
255.484	2.73
255.701	35.5
255.917	70.31
256.134	25.26
256.351	37.55
256.567	8.87
256.784	76.46
257	41.64
257.217	86.7
257.433	96.94
257.65	62.12
257.866	37.55
258.082	43.69
258.299	90.79
258.515	78.51
258.732	70.31
258.948	-3.41
259.165	43.69
259.381	31.4
259.597	53.93
259.814	66.22
260.03	-15.7
260.246	17.07
260.463	60.07
260.679	82.6
260.895	25.26
261.112	43.69
261.328	17.07
261.544	19.11
261.761	86.7
261.977	82.6
262.193	-32.08
262.409	53.93
262.626	64.17
262.842	4.78
263.058	25.26
263.274	37.55
263.49	49.83
263.707	19.11
263.923	76.46
264.139	58.03
264.355	64.17
264.571	113.32
264.787	98.99
265.004	74.41
265.22	37.55
265.436	74.41
265.652	17.07
265.868	-23.89
266.084	12.97
266.3	51.88
266.516	49.83
266.732	33.45
266.948	25.26
267.164	96.94
267.38	49.83
267.596	98.99
267.812	133.8
268.028	92.84
268.244	55.98
268.46	43.69
268.676	19.11
268.892	58.03
269.108	35.5
269.324	45.74
269.54	10.92
269.756	123.56
269.972	-44.37
270.188	33.45
270.403	90.79
270.619	90.79
270.835	29.35
271.051	82.6
271.267	41.64
271.483	49.83
271.698	88.75
271.914	15.02
272.13	43.69
272.346	10.92
272.562	41.64
272.777	37.55
272.993	17.07
273.209	45.74
273.425	31.4
273.64	-19.8
273.856	92.84
274.072	41.64
274.287	27.31
274.503	35.5
274.719	53.93
274.934	29.35
275.15	33.45
275.366	66.22
275.581	17.07
275.797	84.65
276.012	23.21
276.228	49.83
276.444	80.55
276.659	27.31
276.875	37.55
277.09	8.87
277.306	55.98
277.521	53.93
277.737	17.07
277.952	29.35
278.168	72.36
278.383	74.41
278.599	66.22
278.814	45.74
279.03	113.32
279.245	41.64
279.461	86.7
279.676	68.27
279.892	39.59
280.107	45.74
280.322	58.03
280.538	-36.18
280.753	58.03
280.969	-27.99
281.184	-1.37
281.399	29.35
281.615	8.87
281.83	86.7
282.045	2.73
282.26	6.83
282.476	53.93
282.691	82.6
282.906	72.36
283.122	78.51
283.337	74.41
283.552	39.59
283.767	68.27
283.983	127.66
284.198	60.07
284.413	68.27
284.628	45.74
284.843	64.17
285.058	62.12
285.274	90.79
285.489	66.22
285.704	80.55
285.919	115.37
286.134	17.07
286.349	0.68
286.564	49.83
286.779	31.4
286.995	115.37
287.21	-44.37
287.425	39.59
287.64	23.21
287.855	58.03
288.07	70.31
288.285	53.93
288.5	129.7
288.715	66.22
288.93	8.87
289.145	98.99
289.36	129.7
289.575	41.64
289.79	82.6
290.004	25.26
290.219	37.55
290.434	43.69
290.649	29.35
290.864	25.26
291.079	-27.99
291.294	-44.37
291.509	17.07
291.724	21.16
291.938	0.68
292.153	53.93
292.368	8.87
292.583	2.73
292.798	96.94
293.012	49.83
293.227	35.5
293.442	33.45
293.657	4.78
293.871	86.7
294.086	103.08
294.301	135.85
294.516	51.88
294.73	80.55
294.945	25.26
295.16	62.12
295.374	94.89
295.589	129.7
295.804	39.59
296.018	101.03
296.233	60.07
296.447	64.17
296.662	27.31
296.877	17.07
297.091	111.27
297.306	98.99
297.52	115.37
297.735	35.5
297.949	2.73
298.164	60.07
298.378	37.55
298.593	-11.61
298.807	-44.37
299.022	25.26
299.236	37.55
299.451	21.16
299.665	8.87
299.88	58.03
300.094	105.13
300.309	25.26
300.523	-9.56
300.737	-17.75
300.952	74.41
301.166	15.02
301.381	78.51
301.595	41.64
301.809	23.21
302.024	82.6
302.238	96.94
302.452	53.93
302.667	2.73
302.881	115.37
303.095	76.46
303.309	113.32
303.524	119.46
303.738	66.22
303.952	-21.85
304.166	23.21
304.381	66.22
304.595	25.26
304.809	70.31
305.023	72.36
305.237	-11.61
305.452	70.31
305.666	96.94
305.88	133.8
306.094	4.78
306.308	68.27
306.522	96.94
306.736	96.94
306.95	-23.89
307.164	80.55
307.379	17.07
307.593	53.93
307.807	121.51
308.021	105.13
308.235	168.62
308.449	84.65
308.663	37.55
308.877	66.22
309.091	21.16
309.305	21.16
309.519	39.59
309.733	113.32
309.947	-23.89
310.161	68.27
310.374	27.31
310.588	66.22
310.802	8.87
311.016	43.69
311.23	21.16
311.444	35.5
311.658	39.59
311.872	72.36
312.085	129.7
312.299	45.74
312.513	150.18
312.727	90.79
312.941	6.83
313.154	55.98
313.368	123.56
313.582	51.88
313.796	107.18
314.009	37.55
314.223	98.99
314.437	-23.89
314.651	58.03
314.864	58.03
315.078	55.98
315.292	-1.37
315.505	17.07
315.719	15.02
315.933	45.74
316.146	53.93
316.36	82.6
316.573	70.31
316.787	55.98
317.001	66.22
317.214	45.74
317.428	121.51
317.641	58.03
317.855	45.74
318.068	55.98
318.282	29.35
318.495	66.22
318.709	49.83
318.922	53.93
319.136	88.75
319.349	88.75
319.563	115.37
319.776	-23.89
319.99	-23.89
320.203	94.89
320.417	6.83
320.63	12.97
320.843	76.46
321.057	-17.75
321.27	78.51
321.483	47.79
321.697	51.88
321.91	-7.51
322.124	43.69
322.337	60.07
322.55	37.55
322.763	37.55
322.977	39.59
323.19	131.75
323.403	10.92
323.617	43.69
323.83	19.11
324.043	-5.46
324.256	82.6
324.469	4.78
324.683	58.03
324.896	-17.75
325.109	127.66
325.322	82.6
325.535	135.85
325.748	64.17
325.962	60.07
326.175	80.55
326.388	49.83
326.601	10.92
326.814	41.64
327.027	33.45
327.24	129.7
327.453	35.5
327.666	27.31
327.879	103.08
328.092	103.08
328.305	86.7
328.518	37.55
328.731	47.79
328.944	17.07
329.157	64.17
329.37	15.02
329.583	94.89
329.796	35.5
330.009	37.55
330.222	70.31
330.435	103.08
330.648	113.32
330.861	84.65
331.073	37.55
331.286	82.6
331.499	37.55
331.712	19.11
331.925	4.78
332.138	129.7
332.35	105.13
332.563	33.45
332.776	84.65
332.989	62.12
333.202	62.12
333.414	19.11
333.627	8.87
333.84	43.69
334.053	98.99
334.265	70.31
334.478	109.22
334.691	137.9
334.903	103.08
335.116	33.45
335.329	66.22
335.541	111.27
335.754	98.99
335.966	12.97
336.179	109.22
336.392	49.83
336.604	53.93
336.817	82.6
337.029	35.5
337.242	88.75
337.454	78.51
337.667	25.26
337.88	47.79
338.092	96.94
338.305	55.98
338.517	37.55
338.729	64.17
338.942	60.07
339.154	45.74
339.367	-7.51
339.579	133.8
339.792	25.26
340.004	172.71
340.217	45.74
340.429	58.03
340.641	31.4
340.854	39.59
341.066	-3.41
341.278	27.31
341.491	111.27
341.703	8.87
341.915	45.74
342.128	80.55
342.34	64.17
342.552	49.83
342.764	62.12
342.977	98.99
343.189	64.17
343.401	90.79
343.613	72.36
343.826	-9.56
344.038	-17.75
344.25	41.64
344.462	37.55
344.674	58.03
344.886	82.6
345.099	66.22
345.311	12.97
345.523	25.26
345.735	51.88
345.947	8.87
346.159	58.03
346.371	103.08
346.583	21.16
346.795	101.03
347.007	25.26
347.219	49.83
347.431	88.75
347.643	127.66
347.855	43.69
348.067	58.03
348.279	74.41
348.491	92.84
348.703	74.41
348.915	6.83
349.127	45.74
349.339	31.4
349.551	55.98
349.763	156.33
349.975	23.21
350.187	72.36
350.399	146.09
350.61	111.27
350.822	-44.37
351.034	62.12
351.246	66.22
351.458	47.79
351.669	60.07
351.881	150.18
352.093	123.56
352.305	72.36
352.517	105.13
352.728	58.03
352.94	49.83
353.152	49.83
353.363	70.31
353.575	127.66
353.787	137.9
353.999	66.22
354.21	121.51
354.422	68.27
354.633	31.4
354.845	2.73
355.057	90.79
355.268	94.89
355.48	33.45
355.692	12.97
355.903	107.18
356.115	51.88
356.326	31.4
356.538	17.07
356.749	127.66
356.961	164.52
357.172	51.88
357.384	8.87
357.595	66.22
357.807	82.6
358.018	-71
358.23	90.79
358.441	70.31
358.653	88.75
358.864	33.45
359.075	64.17
359.287	4.78
359.498	115.37
359.709	55.98
359.921	86.7
360.132	94.89
360.344	25.26
360.555	39.59
360.766	49.83
360.977	70.31
361.189	127.66
361.4	37.55
361.611	139.94
361.823	76.46
362.034	92.84
362.245	74.41
362.456	101.03
362.667	39.59
362.879	55.98
363.09	-13.65
363.301	68.27
363.512	78.51
363.723	51.88
363.935	117.42
364.146	62.12
364.357	31.4
364.568	49.83
364.779	58.03
364.99	41.64
365.201	101.03
365.412	92.84
365.623	-27.99
365.834	109.22
366.045	45.74
366.256	92.84
366.467	154.28
366.678	58.03
366.889	92.84
367.1	111.27
367.311	137.9
367.522	45.74
367.733	88.75
367.944	21.16
368.155	33.45
368.366	43.69
368.577	88.75
368.788	125.61
368.999	4.78
369.209	-34.13
369.42	19.11
369.631	109.22
369.842	174.76
370.053	31.4
370.264	45.74
370.474	25.26
370.685	45.74
370.896	37.55
371.107	148.14
371.317	107.18
371.528	8.87
371.739	172.71
371.95	39.59
372.16	139.94
372.371	43.69
372.582	146.09
372.792	27.31
373.003	66.22
373.214	2.73
373.424	92.84
373.635	43.69
373.846	78.51
374.056	115.37
374.267	47.79
374.477	144.04
374.688	-1.37
374.898	80.55
375.109	84.65
375.319	98.99
375.53	53.93
375.74	88.75
375.951	103.08
376.161	45.74
376.372	115.37
376.582	-13.65
376.793	49.83
377.003	37.55
377.214	80.55
377.424	94.89
377.635	96.94
377.845	62.12
378.055	45.74
378.266	49.83
378.476	41.64
378.686	70.31
378.897	39.59
379.107	115.37
379.317	152.23
379.528	105.13
379.738	86.7
379.948	72.36
380.158	133.8
380.369	98.99
380.579	43.69
380.789	90.79
380.999	121.51
381.21	131.75
381.42	96.94
381.63	29.35
381.84	70.31
382.05	92.84
382.261	84.65
382.471	88.75
382.681	82.6
382.891	164.52
383.101	49.83
383.311	68.27
383.521	88.75
383.731	131.75
383.941	119.46
384.151	37.55
384.361	74.41
384.571	74.41
384.781	92.84
384.991	146.09
385.201	76.46
385.411	74.41
385.621	105.13
385.831	39.59
386.041	76.46
386.251	60.07
386.461	64.17
386.671	84.65
386.881	92.84
387.091	62.12
387.301	98.99
387.511	47.79
387.72	127.66
387.93	103.08
388.14	35.5
388.35	60.07
388.56	70.31
388.769	92.84
388.979	117.42
389.189	115.37
389.399	66.22
389.609	66.22
389.818	49.83
390.028	144.04
390.238	78.51
390.447	29.35
390.657	101.03
390.867	41.64
391.076	90.79
391.286	74.41
391.496	62.12
391.705	98.99
391.915	88.75
392.125	90.79
392.334	68.27
392.544	29.35
392.753	189.1
392.963	92.84
393.172	58.03
393.382	74.41
393.591	92.84
393.801	113.32
394.01	115.37
394.22	123.56
394.429	113.32
394.639	78.51
394.848	107.18
395.058	115.37
395.267	39.59
395.477	117.42
395.686	111.27
395.895	109.22
396.105	115.37
396.314	152.23
396.524	98.99
396.733	72.36
396.942	103.08
397.152	70.31
397.361	119.46
397.57	123.56
397.78	115.37
397.989	111.27
398.198	141.99
398.407	127.66
398.617	123.56
398.826	125.61
399.035	90.79
399.244	43.69
399.453	205.48
399.663	98.99
399.872	115.37
400.081	109.22
400.29	162.47
400.499	41.64
400.708	129.7
400.917	135.85
401.127	109.22
401.336	111.27
401.545	164.52
401.754	17.07
401.963	180.9
402.172	139.94
402.381	195.24
402.59	86.7
402.799	109.22
403.008	203.43
403.217	156.33
403.426	152.23
403.635	113.32
403.844	148.14
404.053	164.52
404.262	168.62
404.471	254.63
404.68	156.33
404.888	148.14
405.097	162.47
405.306	141.99
405.515	189.1
405.724	178.86
405.933	141.99
406.142	148.14
406.35	197.29
406.559	248.49
406.768	260.77
406.977	273.06
407.185	205.48
407.394	264.87
407.603	168.62
407.812	211.62
408.02	254.63
408.229	287.4
408.438	178.86
408.646	271.01
408.855	250.53
409.064	230.06
409.272	225.96
409.481	275.11
409.69	309.93
409.898	307.88
410.107	363.17
410.315	357.03
410.524	293.54
410.733	418.47
410.941	385.7
411.15	432.8
411.358	451.24
411.567	414.37
411.775	443.04
411.984	481.96
412.192	434.85
412.401	512.67
412.609	531.11
412.818	512.67
413.026	500.39
413.234	584.35
413.443	524.96
413.651	592.55
413.86	551.59
414.068	613.03
414.276	662.18
414.485	647.84
414.693	672.42
414.901	713.38
415.11	754.34
415.318	787.1
415.526	721.57
415.734	768.67
415.943	809.63
416.151	846.49
416.359	852.64
416.567	838.3
416.776	914.08
416.984	1006.24
417.192	1047.19
417.4	1047.19
417.608	1041.05
417.817	1143.45
418.025	1098.39
418.233	1268.38
418.441	1227.42
418.649	1217.18
418.857	1229.46
419.065	1288.85
419.273	1272.47
419.481	1493.65
419.689	1378.97
419.897	1393.3
420.105	1507.99
420.313	1569.43
420.521	1507.99
420.729	1677.97
420.937	1761.94
421.145	1747.6
421.353	1884.81
421.561	1954.44
421.769	1905.29
421.977	2114.19
422.185	2089.61
422.393	2118.28
422.601	2364.04
422.809	2294.41
423.017	2247.3
423.224	2472.58
423.432	2462.34
423.64	2624.13
423.848	2761.34
424.056	2787.97
424.263	2843.26
424.471	2990.72
424.679	3101.31
424.887	3101.31
425.094	3193.47
425.302	3261.05
425.51	3308.15
425.718	3519.09
425.925	3519.09
426.133	3687.03
426.341	3865.2
426.548	4051.56
426.756	3928.69
426.964	4006.51
427.171	4344.42
427.379	4467.3
427.586	4403.82
427.794	4674.15
428.001	4817.51
428.209	4901.47
428.417	4842.08
428.624	5376.6
428.832	5186.14
429.039	5431.9
429.247	5055.07
429.454	5769.81
429.662	6072.91
429.869	5683.8
430.076	6257.23
430.284	5939.79
430.491	6437.45
430.699	6486.6
430.906	6734.4
431.114	6783.56
431.321	7004.74
431.528	7096.89
431.736	7578.17
431.943	7760.44
432.15	7737.91
432.358	7793.2
432.565	8063.54
432.772	8307.24
432.979	8770.08
433.187	8839.72
433.394	8626.73
433.601	9398.81
433.808	9388.57
434.016	9331.23
434.223	9687.57
434.43	10058.26
434.637	10101.26
434.844	10658.31
435.052	10961.41
435.259	10942.98
435.466	11125.25
435.673	10971.65
435.88	11512.32
436.087	12161.52
436.294	11977.2
436.501	11805.17
436.708	12130.8
436.915	12710.38
437.122	13173.22
437.329	13132.26
437.537	13294.05
437.743	13722.07
437.95	13636.06
438.157	14395.85
438.364	14813.64
438.571	14787.02
438.778	14928.33
438.985	16206.26
439.192	15602.11
439.399	16091.57
439.606	15647.16
439.813	16544.17
440.02	17873.31
440.227	17314.21
440.433	17185.19
440.64	17496.48
440.847	17725.85
441.054	18127.25
441.261	19472.77
441.467	19024.26
441.674	19671.42
441.881	20177.27
442.088	20140.41
442.294	20038.01
442.501	20341.11
442.708	20904.3
442.914	21956.96
443.121	22505.81
443.328	22208.86
443.534	23707.97
443.741	22939.98
443.948	22604.11
444.154	24486.2
444.361	24193.34
444.568	24346.94
444.774	24535.35
444.981	24713.52
445.187	25571.62
445.394	26595.6
445.6	26272.03
445.807	28948.72
446.013	27635.97
446.22	28147.97
446.426	29112.56
446.633	29329.64
446.839	30181.6
447.046	29382.89
447.252	30826.71
447.459	30814.42
447.665	30707.93
447.871	32129.22
448.078	33652.91
448.284	31910.08
448.491	32622.78
448.697	34039.97
448.903	34590.87
449.11	34842.77
449.316	34072.74
449.522	34859.16
449.728	35539.08
449.935	36513.92
450.141	36372.61
450.347	37154.93
450.553	35899.53
450.76	36409.47
450.966	37722.22
451.172	37032.05
451.378	38172.77
451.584	37388.4
451.791	38385.76
451.997	38105.19
452.203	38787.16
452.409	39217.24
452.615	38680.67
452.821	37380.21
453.027	36937.85
453.233	38828.12
453.44	37064.82
453.646	37519.47
453.852	38078.57
454.058	38635.61
454.264	37322.87
454.47	38099.05
454.676	37390.45
454.882	38504.54
455.088	35289.23
455.294	35686.54
455.5	36384.9
455.705	36567.16
455.911	35252.37
456.117	34867.35
456.323	33999.01
456.529	32643.26
456.735	34037.92
456.941	32950.45
457.147	32557.24
457.352	31592.65
457.558	31033.55
457.764	31332.56
457.97	30437.59
458.176	29956.32
458.381	29939.94
458.587	28756.21
458.793	28510.46
458.999	27064.59
459.204	29006.06
459.41	28389.63
459.616	26155.29
459.821	26532.12
460.027	26063.13
460.233	25243.95
460.438	24609.08
460.644	25030.96
460.85	23695.68
461.055	23062.86
461.261	23089.48
461.466	21428.58
461.672	20808.05
461.878	22536.53
462.083	20754.8
462.289	20265.33
462.494	20175.22
462.7	19452.29
462.905	18958.73
463.111	19763.58
463.316	19364.23
463.522	19227.01
463.727	19175.81
463.932	19159.43
464.138	18880.91
464.343	18885
464.549	18278.8
464.754	19138.95
464.959	18807.18
465.165	18614.67
465.37	18006.42
465.575	17555.87
465.781	18323.86
465.986	18207.12
466.191	17613.21
466.397	17504.67
466.602	16613.81
466.807	17265.06
467.012	17228.2
467.218	16939.43
467.423	17045.93
467.628	17062.31
467.833	17355.17
468.038	16927.14
468.244	16716.2
468.449	17187.24
468.654	16388.53
468.859	16476.59
469.064	16589.23
469.269	15860.15
469.474	15960.5
469.679	16175.54
469.885	15534.53
470.09	15950.26
470.295	15708.6
470.5	15278.53
470.705	15690.17
470.91	15137.22
471.115	15106.5
471.32	15419.84
471.525	15131.08
471.73	14754.25
471.935	14746.06
472.139	14287.31
472.344	14248.4
472.549	14414.29
472.754	14176.72
472.959	13877.72
473.164	13517.28
473.369	13625.82
473.574	13969.88
473.778	13890.01
473.983	13449.69
474.188	13728.22
474.393	13054.44
474.598	13169.12
474.802	12904.93
475.007	12780.01
475.212	12886.5
475.417	12554.73
475.621	12394.99
475.826	12538.35
476.031	12143.09
476.235	12143.09
476.44	12163.57
476.645	12055.03
476.849	11872.76
477.054	11958.77
477.259	11508.22
477.463	11624.95
477.668	11244.03
477.872	11377.15
478.077	11295.23
478.282	10977.8
478.486	11024.9
478.691	10764.81
478.895	11094.53
479.1	10768.9
479.304	10670.6
479.509	10609.16
479.713	10637.83
479.918	10459.66
480.122	10437.13
480.326	10699.27
480.531	10430.99
480.735	10484.23
480.94	10398.22
481.144	10678.79
481.348	10080.78
481.553	10091.02
481.757	10025.49
481.961	9955.86
482.166	10361.36
482.37	10123.79
482.574	10015.25
482.778	10105.36
482.983	10256.91
483.187	9964.05
483.391	10105.36
483.595	10152.46
483.8	9998.87
484.004	10019.35
484.208	10072.59
484.412	10088.98
484.616	9943.57
484.821	9937.43
485.025	10019.35
485.229	10015.25
485.433	10060.31
485.637	10174.99
485.841	10134.03
486.045	10070.55
486.249	10021.39
486.453	9974.29
486.657	10271.25
486.861	10062.35
487.065	9935.38
487.269	10201.61
487.473	9789.97
487.677	9984.53
487.881	10320.4
488.085	10099.22
488.289	10062.35
488.493	10199.57
488.697	10215.95
488.901	10261.01
489.105	10336.78
489.309	10183.18
489.512	10170.9
489.716	10131.98
489.92	10283.53
490.124	10156.56
490.328	10392.08
490.531	10170.9
490.735	10545.67
490.939	10344.97
491.143	10398.22
491.346	10496.52
491.55	10732.04
491.754	10498.57
491.958	10529.29
492.161	10568.2
492.365	10539.53
492.569	10854.92
492.772	10830.34
492.976	10703.37
493.18	10973.7
493.383	10932.74
493.587	11229.7
493.79	11256.32
493.994	11158.02
494.197	11160.06
494.401	11151.87
494.605	11442.68
494.808	11414.01
495.012	11489.79
495.215	11676.15
495.419	11680.25
495.622	11624.95
495.825	11876.85
496.029	11999.73
496.232	12173.81
496.436	12059.12
496.639	12468.72
496.843	12386.8
497.046	12466.67
497.249	12610.03
497.453	12792.3
497.656	12855.78
497.859	13031.91
498.063	13236.7
498.266	13357.53
498.469	13404.64
498.673	13392.35
498.876	13677.02
499.079	13842.9
499.282	13627.87
499.485	14137.81
499.689	14160.34
499.892	14504.4
500.095	14453.2
500.298	14887.37
500.501	14719.43
500.705	15045.06
500.908	15169.99
501.111	15536.57
501.314	15686.08
501.517	15608.25
501.72	15880.63
501.923	16060.85
502.126	16302.51
502.329	16478.64
502.532	16734.64
502.735	16902.57
502.938	17013.16
503.141	17011.11
503.344	17729.95
503.547	17467.81
503.75	18065.81
503.953	17981.85
504.156	18258.32
504.359	18559.38
504.562	18127.25
504.765	18669.97
504.968	19030.41
505.17	19257.73
505.373	19224.97
505.576	19499.39
505.779	19747.2
505.982	19861.88
506.185	20457.84
506.387	20214.13
506.59	20746.61
506.793	21191.02
506.996	20693.36
507.198	21739.87
507.401	21139.82
507.604	21827.93
507.807	22116.7
508.009	22378.84
508.212	22421.84
508.415	22618.45
508.617	22841.68
508.82	23390.53
509.022	23138.63
509.225	23640.39
509.428	23753.02
509.63	24119.61
509.833	24195.39
510.035	24807.73
510.238	24729.91
510.44	24930.61
510.643	25452.84
510.845	25706.79
511.048	25284.9
511.25	25848.1
511.453	26063.13
511.655	26910.99
511.858	26333.46
512.06	26943.76
512.262	27472.14
512.465	27373.83
512.667	27558.15
512.87	28154.11
513.072	28039.42
513.274	28365.05
513.477	28735.73
513.679	29030.64
513.881	29274.35
514.084	29860.07
514.286	29329.64
514.488	29726.95
514.69	30609.62
514.893	30507.23
515.095	30396.63
515.297	31115.47
515.499	31174.86
515.701	31549.64
515.904	32002.24
516.106	31891.65
516.308	32190.66
516.51	32843.96
516.712	32479.42
516.914	33038.51
517.116	33679.53
517.318	33720.49
517.52	34062.5
517.722	33577.13
517.925	34271.39
518.127	34807.96
518.329	35006.61
518.531	34687.13
518.733	35586.19
518.935	36014.21
519.136	35811.46
519.338	36579.45
519.54	36542.59
519.742	36956.28
519.944	36937.85
520.146	37740.65
520.348	37906.54
520.55	37863.53
520.752	38103.14
520.954	38518.88
521.155	38508.64
521.357	38979.67
521.559	39155.8
521.761	39465.04
521.963	39405.65
522.164	39526.48
522.366	39991.37
522.568	40548.42
522.77	40462.4
522.971	40714.3
523.173	40740.92
523.375	41150.52
523.576	41089.08
523.778	41138.23
523.98	41723.95
524.181	41986.09
524.383	41617.46
524.584	41957.42
524.786	42315.81
524.988	42233.89
525.189	42709.02
525.391	43290.65
525.592	42985.5
525.794	43245.59
525.995	43522.07
526.197	43241.49
526.398	43786.25
526.6	43874.32
526.801	44365.83
527.003	44228.62
527.204	44306.44
527.406	44285.96
527.607	44863.49
527.808	44861.44
528.01	43931.66
528.211	44658.69
528.412	45322.23
528.614	45023.23
528.815	44832.77
529.016	45594.61
529.218	45101.05
529.419	45561.84
529.62	45451.25
529.822	45119.48
530.023	45821.94
530.224	45541.36
530.425	45758.45
530.626	45340.66
530.828	45418.49
531.029	46393.32
531.23	46012.4
531.431	45887.47
531.632	46051.31
531.833	46278.63
532.035	45928.43
532.236	46106.6
532.437	46645.22
532.638	46122.99
532.839	46436.33
533.04	46415.85
533.241	45977.58
533.442	46802.91
533.643	46569.44
533.844	46327.78
534.045	46618.6
534.246	46340.07
534.447	46532.58
534.648	46503.91
534.849	46645.22
535.05	45897.71
535.251	46921.69
535.451	46270.44
535.652	46749.67
535.853	46497.77
536.054	46575.59
536.255	46684.13
536.456	46245.86
536.657	47085.53
536.857	46200.81
537.058	46475.24
537.259	46794.72
537.46	46616.55
537.66	46620.64
537.861	46270.44
538.062	46655.46
538.263	46542.82
538.463	46202.86
538.664	46594.02
538.865	46307.3
539.065	46831.58
539.266	45934.57
539.466	46729.19
539.667	46012.4
539.868	46821.34
540.068	46393.32
540.269	46680.03
540.469	46868.45
540.67	46118.89
540.87	46372.84
541.071	46372.84
541.271	46501.86
541.472	46106.6
541.672	46196.71
541.873	46319.59
542.073	45621.23
542.274	46909.41
542.474	46077.93
542.675	46061.55
542.875	46710.75
543.075	45916.14
543.276	46077.93
543.476	46604.26
543.676	46014.44
543.877	45955.05
544.077	46026.73
544.277	46247.91
544.478	45936.62
544.678	46153.71
544.878	45826.03
545.078	46018.54
545.279	45981.68
545.479	45838.32
545.679	46100.46
545.879	46110.7
546.079	45783.02
546.28	45807.6
546.48	45920.24
546.68	46196.71
546.88	45989.87
547.08	46221.29
547.28	45840.37
547.48	45873.13
547.68	45887.47
547.88	45533.17
548.081	46061.55
548.281	46059.5
548.481	45828.08
548.681	45901.81
548.881	45670.39
549.081	45856.75
549.28	45586.42
549.48	46241.77
549.68	45414.39
549.88	46602.21
550.08	45516.79
550.28	45856.75
550.48	45768.69
550.68	45879.28
550.88	45584.37
551.08	45799.41
551.279	45516.79
551.479	44949.5
551.679	45592.56
551.879	45574.13
552.079	45879.28
552.278	45750.26
552.478	45631.47
552.678	45770.74
552.878	45559.8
553.077	45459.44
553.277	45189.11
553.477	45783.02
553.676	45148.15
553.876	45567.99
554.076	45228.02
554.275	45088.76
554.475	44963.84
554.674	45156.35
554.874	45201.4
555.074	44773.38
555.273	45197.3
555.473	45619.19
555.672	44652.55
555.872	44900.35
556.071	44871.68
556.271	45123.58
556.47	45000.7
556.67	44716.03
556.869	44812.29
557.068	44808.19
557.268	44466.18
557.467	44793.86
557.667	44601.35
557.866	44873.73
558.065	44660.74
558.265	44414.98
558.464	44468.23
558.663	45189.11
558.863	44058.63
559.062	44687.36
559.261	44095.5
559.461	44943.36
559.66	43819.02
559.859	44664.83
560.058	43751.44
560.258	44353.54
560.457	43776.01
560.656	44587.01
560.855	43812.88
561.054	43911.18
561.253	43845.65
561.453	43819.02
561.652	43976.72
561.851	44070.92
562.05	43493.39
562.249	43323.41
562.448	43874.32
562.647	43497.49
562.846	43753.49
563.045	43401.24
563.244	43427.86
563.443	43939.85
563.642	43151.38
563.841	43399.19
564.04	43042.84
564.239	43728.91
564.438	42836
564.637	43026.46
564.836	43059.23
565.035	42375.2
565.234	43028.51
565.432	42879
565.631	42432.55
565.83	42846.24
566.029	42500.13
566.228	42702.88
566.427	42655.78
566.625	42338.34
566.824	41838.64
567.023	42790.94
567.222	41611.31
567.42	42360.87
567.619	42121.26
567.818	42076.2
568.016	41697.33
568.215	42158.12
568.414	41879.6
568.612	42201.13
568.811	41527.34
569.01	41715.76
569.208	41179.19
569.407	41359.41
569.605	41211.96
569.804	41615.41
570.002	40869.95
570.201	40939.58
570.4	41275.44
570.598	40949.82
570.797	41023.54
570.995	40810.56
571.193	40718.4
571.392	41150.52
571.59	40568.9
571.789	40781.88
571.987	40529.98
572.186	40411.2
572.384	40208.45
572.582	40654.91
572.781	40675.39
572.979	39938.12
573.177	40183.88
573.376	40046.66
573.574	39360.59
573.772	40233.03
573.971	39692.36
574.169	39778.38
574.367	39473.23
574.565	40061
574.763	39575.63
574.962	39039.06
575.16	39014.49
575.358	39188.56
575.556	39043.16
575.754	39194.71
575.952	38680.67
576.151	39192.66
576.349	38711.39
576.547	38813.79
576.745	38867.03
576.943	38856.79
577.141	38557.79
577.339	38453.34
577.537	38424.67
577.735	38455.39
577.933	38101.09
578.131	38447.2
578.329	38043.75
578.527	37951.59
578.725	37949.54
578.923	37898.34
579.121	38029.41
579.319	37650.54
579.516	37535.85
579.714	37206.13
579.912	37136.5
580.11	37394.54
580.308	37275.76
580.506	37470.32
580.704	36708.47
580.901	36886.65
581.099	37136.5
581.297	36599.93
581.495	36778.11
581.692	36972.66
581.89	36626.56
582.088	36669.56
582.285	36550.78
582.483	36638.84
582.681	36200.58
582.878	36339.84
583.076	35960.97
583.274	36386.94
583.471	35764.36
583.669	35891.33
583.866	35487.89
584.064	35745.93
584.262	35305.62
584.459	35567.76
584.657	35403.92
584.854	35530.89
585.052	35145.87
585.249	35360.91
585.447	35102.87
585.644	34726.04
585.841	35076.24
586.039	34914.45
586.236	34533.53
586.434	34611.35
586.631	34492.57
586.828	34588.83
587.026	34670.75
587.223	34054.31
587.42	34080.93
587.618	34345.12
587.815	33734.82
588.012	33953.96
588.21	33810.6
588.407	34349.21
588.604	33601.71
588.801	33358
588.999	33419.44
589.196	33380.53
589.393	33312.94
589.59	33433.77
589.787	33200.3
589.984	33048.75
590.182	32721.08
590.379	33038.51
590.576	32929.97
590.773	32577.72
590.97	32360.64
591.167	32594.11
591.364	32024.77
591.561	32348.35
591.758	31815.88
591.955	32123.07
592.152	32360.64
592.349	31881.41
592.546	32135.36
592.743	31805.64
592.94	31488.2
593.137	31826.12
593.334	31508.68
593.531	31148.24
593.727	31740.1
593.924	31529.16
594.121	30906.58
594.318	31295.69
594.515	31002.83
594.712	31045.84
594.908	30933.2
595.105	31084.75
595.302	30337.24
595.499	30738.65
595.696	30709.97
595.892	30531.8
596.089	30458.07
596.286	30644.44
596.482	30142.69
596.679	30382.3
596.876	30040.29
597.072	29864.16
597.269	29774.05
597.466	29454.57
597.662	29751.52
597.859	29741.28
598.055	29663.46
598.252	29260.01
598.448	29411.56
598.645	29397.23
598.841	29147.37
599.038	29104.37
599.234	29235.44
599.431	28666.1
599.627	28639.48
599.824	29112.56
600.02	28506.36
600.217	28600.57
600.413	28780.79
600.609	28090.62
600.806	28420.34
601.002	28446.97
601.198	27945.22
601.395	28164.35
601.591	28006.66
601.787	28006.66
601.984	27803.91
602.18	27986.18
602.376	27623.69
602.572	27810.05
602.769	27564.29
602.965	27353.35
603.161	27539.72
603.357	27078.93
603.553	27285.77
603.75	27289.87
603.946	26919.18
604.142	27175.18
604.338	26401.05
604.534	26788.11
604.73	26730.77
604.926	26691.86
605.122	26507.54
605.318	26292.51
605.514	26257.69
605.71	26183.96
605.906	26007.84
606.102	26044.7
606.298	26079.52
606.494	26059.04
606.69	26165.53
606.886	26011.93
607.082	25747.75
607.278	26018.08
607.474	25344.3
607.67	25960.73
607.866	25489.7
608.062	25952.54
608.257	25291.05
608.453	25241.9
608.649	25422.12
608.845	25368.87
609.041	25514.28
609.236	25766.18
609.432	25194.79
609.628	25217.32
609.824	25254.19
610.019	25039.15
610.215	24963.37
610.411	25100.59
610.606	24967.47
610.802	24623.41
610.998	24932.65
611.193	24658.23
611.389	24551.73
611.584	24607.03
611.78	24551.73
611.976	24492.34
612.171	24647.99
612.367	24344.89
612.562	24482.1
612.758	24117.56
612.953	24322.36
613.149	24242.49
613.344	24058.17
613.539	24344.89
613.735	24127.8
613.93	24297.78
614.126	23992.64
614.321	24412.47
614.517	23941.44
614.712	23783.74
614.907	23771.46
615.103	24314.17
615.298	23437.64
615.493	23880
615.688	23447.88
615.884	23933.25
616.079	23228.74
616.274	23597.38
616.47	23517.51
616.665	23460.16
616.86	23185.74
617.055	23155.02
617.25	23279.94
617.445	23234.89
617.641	22974.8
617.836	23384.39
618.031	23030.09
618.226	23091.53
618.421	23046.47
618.616	22923.6
618.811	22301.01
619.006	22817.1
619.201	22186.33
619.396	22624.59
619.591	22165.85
619.786	22491.48
619.981	22094.17
620.176	22520.15
620.371	22163.8
620.566	22030.68
620.761	21754.21
620.956	22065.5
621.151	21490.02
621.346	21815.65
621.541	21256.55
621.735	21559.65
621.93	20902.25
622.125	21258.6
622.32	21154.15
622.515	21086.57
622.709	20869.48
622.904	20996.46
623.099	20803.95
623.294	20855.15
623.488	20365.68
623.683	20570.48
623.878	20052.34
624.072	20009.34
624.267	20210.04
624.462	19954.04
624.656	19640.7
624.851	20038.01
625.046	19595.65
625.24	19640.7
625.435	19487.11
625.629	19528.06
625.824	19390.85
626.018	19253.64
626.213	18567.57
626.407	19155.33
626.602	18602.38
626.796	19009.93
626.991	18592.14
627.185	18432.4
627.38	18524.56
627.574	18358.67
627.768	18237.84
627.963	18160.02
628.157	18088.34
628.352	18352.53
628.546	17883.55
628.74	17789.34
628.935	17801.63
629.129	17598.88
629.323	17430.94
629.517	17252.77
629.712	17265.06
629.906	17136.04
630.1	16804.27
630.294	16855.47
630.489	16994.73
630.683	17140.13
630.877	16519.6
631.071	16732.59
631.265	16599.47
631.459	16697.77
631.653	16437.68
631.848	16501.17
632.042	16023.99
632.236	16333.23
632.43	16030.13
632.624	16130.48
632.818	15925.69
633.012	15894.97
633.206	15528.38
633.4	15704.51
633.594	15684.03
633.788	15530.43
633.982	15731.13
634.176	15505.85
634.369	15169.99
634.563	15290.82
634.757	15098.31
634.951	15309.25
635.145	14948.81
635.339	15038.92
635.533	14629.32
635.726	14926.28
635.92	14621.13
636.114	14782.92
636.308	14178.77
636.501	14391.76
636.695	14244.31
636.889	14283.22
637.083	14238.16
637.276	14203.35
637.47	14172.63
637.664	13785.56
637.857	14051.8
638.051	13828.57
638.244	13820.38
638.438	13548
638.632	13677.02
638.825	13396.45
639.019	13486.56
639.212	13269.47
639.406	13435.36
639.599	13468.13
639.793	13287.9
639.986	12958.18
640.18	13113.83
640.373	13156.83
640.567	12749.29
640.76	12945.89
640.954	12638.7
641.147	12763.62
641.34	12552.68
641.534	12585.45
641.727	12577.26
641.92	12474.86
642.114	12399.09
642.307	12302.83
642.5	12120.56
642.694	12190.19
642.887	12110.32
643.08	12167.67
643.273	11932.15
643.467	11842.04
643.66	11848.18
643.853	11946.48
644.046	11696.63
644.239	11661.82
644.432	11930.1
644.626	11598.33
644.819	11473.4
645.012	11381.25
645.205	11352.57
645.398	11237.89
645.591	11182.59
645.784	11381.25
645.977	11227.65
646.17	11020.8
646.363	10727.94
646.556	10940.93
646.749	10885.64
646.942	10955.27
647.135	10715.66
647.328	10625.54
647.521	10531.34
647.714	10689.03
647.907	10330.64
648.099	10387.98
648.292	10535.43
648.485	10449.42
648.678	10379.79
648.871	10189.33
649.064	10187.28
649.256	10068.5
649.449	10174.99
649.642	10134.03
649.835	9814.55
650.027	9798.17
650.22	9802.26
650.413	9886.23
650.605	9798.17
650.798	9687.57
650.991	9452.06
651.183	9605.66
651.376	9515.55
651.568	9460.25
651.761	9306.65
651.954	9093.66
652.146	9396.76
652.339	9140.77
652.531	9067.04
652.724	9087.52
652.916	9044.51
653.109	8866.34
653.301	9011.75
653.494	8978.98
653.686	8938.02
653.879	8956.45
654.071	8751.65
654.263	8577.58
654.456	8899.11
654.648	8778.28
654.84	8725.03
655.033	8405.55
655.225	8600.1
655.417	8507.94
655.61	8509.99
655.802	8575.53
655.994	8372.78
656.186	8372.78
656.379	8256.04
656.571	8249.9
656.763	8049.2
656.955	8170.03
657.148	8102.45
657.34	8061.49
657.532	7987.76
657.724	7979.57
657.916	7883.31
658.108	7717.43
658.3	7651.89
658.492	7602.74
658.684	7578.17
658.876	7715.38
659.068	7559.74
659.26	7631.41
659.452	7572.02
659.644	7619.13
659.836	7592.5
660.028	7406.14
660.22	7258.68
660.412	7436.86
660.604	7248.44
660.796	7512.63
660.988	7227.96
661.18	7152.19
661.372	6994.5
661.563	7006.78
661.755	7121.47
661.947	7109.18
662.139	6816.32
662.331	6820.42
662.522	6961.73
662.714	7029.31
662.906	6812.23
663.097	6879.81
663.289	6498.89
663.481	6650.44
663.673	6586.95
663.864	6529.61
664.056	6402.63
664.247	6462.02
664.439	6357.58
664.631	6502.98
664.822	6529.61
665.014	6382.15
665.205	6494.79
665.397	6222.41
665.588	6271.56
665.78	6167.12
665.971	6322.76
666.163	6310.47
666.354	6163.02
666.546	6300.23
666.737	6017.61
666.929	6019.66
667.12	5980.75
667.311	6083.15
667.503	5868.11
667.694	5898.83
667.885	5716.56
668.077	5829.2
668.268	5687.89
668.459	5806.67
668.651	5671.51
668.842	5610.07
669.033	5739.09
669.224	5763.67
669.416	5573.21
669.607	5608.02
669.798	5634.64
669.989	5546.58
670.18	5433.94
670.371	5503.57
670.563	5442.14
670.754	5448.28
670.945	5417.56
671.136	5366.36
671.327	5427.8
671.518	5249.63
671.709	5374.55
671.9	5263.96
672.091	5403.22
672.282	5294.68
672.473	5235.29
672.664	5204.57
672.855	5108.32
673.046	5194.33
673.237	5061.21
673.428	5161.56
673.619	5126.75
673.809	4987.49
674	5083.74
674.191	5163.61
674.382	5139.04
674.573	5055.07
674.764	5012.06
674.954	4833.89
675.145	5012.06
675.336	5014.11
675.527	4880.99
675.717	4946.53
675.908	4733.54
676.099	4907.62
676.289	4852.32
676.48	4805.22
676.671	4813.41
676.861	4801.12
677.052	4778.59
677.243	4735.59
677.433	4809.31
677.624	4754.02
677.814	4717.15
678.005	4711.01
678.195	4659.81
678.386	4797.03
678.576	4586.08
678.767	4518.5
678.957	4635.24
679.148	4663.91
679.338	4530.79
679.529	4545.13
679.719	4555.37
679.909	4620.9
680.1	4573.8
680.29	4528.74
680.481	4553.32
680.671	4647.52
680.861	4561.51
681.052	4579.94
681.242	4391.53
681.432	4512.36
681.622	4440.68
681.813	4455.01
682.003	4412.01
682.193	4371.05
682.383	4518.5
682.573	4489.83
682.764	4379.24
682.954	4403.82
683.144	4426.34
683.334	4346.47
683.524	4307.56
683.714	4375.14
683.904	4303.46
684.094	4399.72
684.284	4387.43
684.474	4385.38
684.664	4305.51
684.854	4276.84
685.044	4268.65
685.234	4215.4
685.424	4309.61
685.614	4211.31
685.804	4153.96
685.994	4274.79
686.184	4364.9
686.374	4219.5
686.564	4299.37
686.753	4022.89
686.943	4156.01
687.133	4162.16
687.323	4055.66
687.513	4051.56
687.702	4129.39
687.892	4143.72
688.082	4033.13
688.272	4141.68
688.461	3973.74
688.651	4088.43
688.841	4012.65
689.03	3983.98
689.22	3881.58
689.41	3914.35
689.599	3971.69
689.789	3924.59
689.979	3926.64
690.168	3752.56
690.358	3959.41
690.547	3897.97
690.737	3883.63
690.926	3805.81
691.116	3932.78
691.305	3805.81
691.495	3834.48
691.684	3732.08
691.874	3756.66
692.063	3687.03
692.252	3715.7
692.442	3547.76
692.631	3625.59
692.82	3627.64
693.01	3670.64
693.199	3588.72
693.388	3621.49
693.578	3535.48
693.767	3582.58
693.956	3492.47
694.146	3519.09
694.335	3517.04
694.524	3324.54
694.713	3496.57
694.902	3465.85
695.092	3381.88
695.281	3336.82
695.47	3431.03
695.659	3334.78
695.848	3379.83
696.037	3342.97
696.226	3361.4
696.415	3304.06
696.604	3261.05
696.793	3271.29
696.982	3230.33
697.171	3324.54
697.36	3302.01
697.549	3297.91
697.738	3140.22
697.927	3164.79
698.116	3285.62
698.305	3179.13
698.494	3097.21
698.683	3099.26
698.872	3070.59
699.061	3160.7
699.25	3064.44
699.438	3023.48
699.627	3054.2
699.816	3142.27
700.005	3093.12
700.193	3125.88
700.382	3177.08
700.571	2947.71
700.76	2980.48
700.948	2970.24
701.137	2970.24
701.326	3033.72
701.514	2937.47
701.703	2878.08
701.892	2953.85
702.08	2978.43
702.269	2855.55
702.457	2929.28
702.646	2986.62
702.834	2916.99
703.023	2947.71
703.212	2865.79
703.4	2867.84
703.589	2886.27
703.777	2939.52
703.965	2798.21
704.154	2749.06
704.342	2880.13
704.531	2853.5
704.719	2867.84
704.907	2775.68
705.096	2667.14
705.284	2781.82
705.472	2830.98
705.661	2640.51
705.849	2732.67
706.037	2777.73
706.226	2730.62
706.414	2742.91
706.602	2583.17
706.79	2773.63
706.979	2714.24
707.167	2773.63
707.355	2685.57
707.543	2808.45
707.731	2699.91
707.919	2769.54
708.107	2712.19
708.296	2665.09
708.484	2704
708.672	2759.3
708.86	2564.74
709.048	2585.22
709.236	2644.61
709.424	2648.71
709.612	2620.03
709.8	2560.64
709.988	2570.88
710.176	2667.14
710.364	2667.14
710.551	2613.89
710.739	2519.68
710.927	2558.6
711.115	2562.69
711.303	2521.73
711.491	2628.23
711.679	2466.44
711.866	2581.12
712.054	2482.82
712.242	2470.53
712.43	2617.99
712.617	2534.02
712.805	2501.25
712.993	2671.23
713.181	2554.5
713.368	2480.77
713.556	2495.11
713.744	2523.78
713.931	2585.22
714.119	2509.44
714.306	2531.97
714.494	2562.69
714.682	2583.17
714.869	2534.02
715.057	2525.83
715.244	2519.68
715.432	2579.08
715.619	2517.64
715.807	2534.02
715.994	2497.16
716.182	2460.29
716.369	2476.68
716.556	2499.2
716.744	2466.44
716.931	2486.92
717.119	2505.35
717.306	2562.69
717.493	2525.83
717.681	2523.78
717.868	2505.35
718.055	2574.98
718.242	2443.91
718.43	2409.09
718.617	2491.01
718.804	2456.2
718.991	2380.42
719.179	2464.39
719.366	2458.25
719.553	2390.66
719.74	2460.29
719.927	2480.77
720.114	2501.25
720.301	2517.64
720.488	2468.48
720.676	2456.2
720.863	2501.25
721.05	2331.27
721.237	2523.78
721.424	2456.2
721.611	2503.3
721.798	2448.01
721.985	2439.81
722.172	2368.13
722.358	2476.68
722.545	2353.8
722.732	2491.01
722.919	2425.48
723.106	2462.34
723.293	2364.04
723.48	2505.35
723.667	2407.05
723.853	2386.57
724.04	2392.71
724.227	2437.77
724.414	2398.85
724.6	2312.84
724.787	2376.33
724.974	2353.8
725.161	2374.28
725.347	2417.29
725.534	2448.01
725.72	2347.65
725.907	2388.61
726.094	2355.85
726.28	2318.98
726.467	2415.24
726.653	2331.27
726.84	2310.79
727.027	2337.41
727.213	2331.27
727.4	2339.46
727.586	2452.1
727.773	2296.46
727.959	2323.08
728.145	2466.44
728.332	2400.9
728.518	2435.72
728.705	2431.62
728.891	2351.75
729.077	2325.13
729.264	2275.98
729.45	2468.48
729.636	2548.36
729.823	2321.03
730.009	2347.65
730.195	2407.05
730.382	2364.04
730.568	2398.85
730.754	2501.25
730.94	2286.22
731.126	2441.86
731.313	2368.13
731.499	2384.52
731.685	2386.57
731.871	2368.13
732.057	2359.94
732.243	2343.56
732.429	2341.51
732.615	2433.67
732.801	2292.36
732.987	2376.33
733.173	2273.93
733.359	2380.42
733.545	2341.51
733.731	2308.74
733.917	2263.69
734.103	2407.05
734.289	2245.26
734.475	2267.78
734.661	2439.81
734.847	2349.7
735.033	2415.24
735.219	2339.46
735.404	2235.02
735.59	2327.18
735.776	2284.17
735.962	2366.09
736.148	2306.7
736.333	2353.8
736.519	2224.78
736.705	2308.74
736.89	2228.87
737.076	2265.74
737.262	2187.91
737.447	2228.87
737.633	2189.96
737.819	2265.74
738.004	2329.22
738.19	2308.74
738.375	2206.35
738.561	2294.41
738.747	2202.25
738.932	2235.02
739.118	2179.72
739.303	2200.2
739.489	2183.82
739.674	2196.11
739.859	2222.73
740.045	2228.87
740.23	2212.49
740.416	2101.9
740.601	2208.39
740.786	2144.91
740.972	2110.09
741.157	2130.57
741.342	2077.32
741.528	2083.47
741.713	2110.09
741.898	2046.6
742.084	1964.68
742.269	2103.95
742.454	2009.74
742.639	2198.15
742.824	2065.04
743.01	2034.32
743.195	2093.71
743.38	1962.64
743.565	2017.93
743.75	2058.89
743.935	2017.93
744.12	2081.42
744.305	2038.41
744.49	1839.76
744.675	2026.12
744.86	2024.08
745.045	2044.56
745.23	2056.84
745.415	1872.53
745.6	2015.88
745.785	1954.44
745.97	1993.36
746.155	1921.68
746.34	2036.36
746.525	1704.59
746.71	1938.06
746.895	1872.53
747.079	1962.64
747.264	1901.2
747.449	1856.14
747.634	1942.16
747.819	1901.2
748.003	1817.23
748.188	1729.17
748.373	1790.61
748.557	1800.85
748.742	1856.14
748.927	1790.61
749.111	1815.18
749.296	1815.18
749.481	1802.9
749.665	1710.74
749.85	1800.85
750.034	1729.17
750.219	1753.74
750.404	1710.74
750.588	1718.93
750.773	1600.15
750.957	1700.5
751.141	1501.84
751.326	1653.39
751.51	1532.56
751.695	1571.47
751.879	1610.39
752.064	1536.66
752.248	1430.16
752.432	1575.57
752.617	1495.7
752.801	1546.9
752.985	1561.23
753.17	1591.95
753.354	1507.99
753.538	1503.89
753.722	1563.28
753.907	1505.94
754.091	1495.7
754.275	1510.04
754.459	1493.65
754.643	1413.78
754.828	1397.4
755.012	1383.06
755.196	1348.25
755.38	1417.88
755.564	1368.73
755.748	1383.06
755.932	1391.25
756.116	1356.44
756.3	1417.88
756.484	1354.39
756.668	1360.53
756.852	1206.94
757.036	1299.09
757.22	1299.09
757.404	1260.18
757.588	1372.82
757.772	1391.25
757.956	1319.57
758.14	1174.17
758.323	1286.81
758.507	1178.26
758.691	1254.04
758.875	1190.55
759.059	1309.33
759.242	1161.88
759.426	1223.32
759.61	1145.5
759.794	1272.47
759.977	1149.59
760.161	1133.21
760.345	1073.82
760.528	1163.93
760.712	1184.41
760.895	1245.85
761.079	1129.11
761.263	1155.74
761.446	1127.07
761.63	1120.92
761.813	1094.3
761.997	1049.24
762.18	1082.01
762.364	1155.74
762.547	1071.77
762.731	1010.33
762.914	1118.87
763.098	1120.92
763.281	1063.58
763.464	1112.73
763.648	1082.01
763.831	1110.68
764.015	1004.19
764.198	1000.09
764.381	1106.59
764.564	1102.49
764.748	1032.86
764.931	1106.59
765.114	969.37
765.297	1145.5
765.481	1028.76
765.664	1059.48
765.847	989.85
766.03	1069.72
766.213	1047.19
766.397	942.75
766.58	955.04
766.763	1002.14
766.946	996
767.129	967.32
767.312	998.04
767.495	961.18
767.678	928.41
767.861	1018.52
768.044	1049.24
768.227	1030.81
768.41	1030.81
768.593	991.9
768.776	957.08
768.959	914.08
769.142	952.99
769.324	934.56
769.507	926.36
769.69	899.74
769.873	938.65
770.056	924.32
770.239	936.6
770.421	963.23
770.604	893.6
770.787	862.88
770.97	936.6
771.152	926.36
771.335	875.17
771.518	912.03
771.7	942.75
771.883	838.3
772.066	744.1
772.248	866.97
772.431	846.49
772.613	819.87
772.796	817.82
772.978	875.17
773.161	834.21
773.343	815.77
773.526	742.05
773.708	809.63
773.891	795.29
774.073	772.77
774.256	750.24
774.438	764.58
774.621	770.72
774.803	840.35
774.985	709.28
775.168	768.67
775.35	815.77
775.532	692.9
775.715	766.62
775.897	770.72
776.079	803.49
776.261	684.7
776.444	715.42
776.626	729.76
776.808	711.33
776.99	721.57
777.173	795.29
777.355	807.58
777.537	803.49
777.719	758.43
777.901	733.86
778.083	678.56
778.265	705.18
778.447	668.32
778.629	617.12
778.811	656.03
778.993	664.22
779.175	537.25
779.357	692.9
779.539	570.02
779.721	617.12
779.903	664.22
780.085	590.5
780.267	572.07
780.449	531.11
780.631	621.22
780.812	678.56
780.994	647.84
781.176	561.83
781.358	594.59
781.54	623.27
781.721	572.07
781.903	608.93
782.085	572.07
782.267	670.37
782.448	531.11
782.63	582.31
782.812	486.05
782.993	606.88
783.175	537.25
783.357	594.59
783.538	606.88
783.72	490.15
783.901	643.74
784.083	516.77
784.264	533.15
784.446	465.57
784.627	475.81
784.809	518.82
784.99	365.22
785.172	547.49
785.353	516.77
785.535	553.63
785.716	514.72
785.897	580.26
786.079	500.39
786.26	449.19
786.441	432.8
786.623	441
786.804	410.28
786.985	434.85
787.167	486.05
787.348	512.67
787.529	463.52
787.71	457.38
787.891	455.33
788.073	365.22
788.254	457.38
788.435	445.09
788.616	463.52
788.797	414.37
788.978	522.91
789.159	397.99
789.34	447.14
789.522	475.81
789.703	436.9
789.884	348.84
790.065	410.28
790.246	479.91
790.427	432.8
790.607	455.33
790.788	471.72
790.969	383.65
791.15	432.8
791.331	445.09
791.512	328.36
791.693	373.41
791.874	410.28
792.054	389.8
792.235	369.32
792.416	340.65
792.597	328.36
792.778	408.23
792.958	318.12
793.139	406.18
793.32	352.93
793.5	346.79
793.681	393.89
793.862	332.45
794.042	400.04
794.223	303.78
794.404	295.59
794.584	344.74
794.765	295.59
794.945	350.89
795.126	287.4
795.306	379.56
795.487	287.4
795.667	324.26
795.848	273.06
796.028	326.31
796.209	379.56
796.389	359.08
796.57	307.88
796.75	332.45
796.93	338.6
797.111	316.07
797.291	279.21
797.471	260.77
797.652	322.21
797.832	307.88
798.012	344.74
798.192	283.3
798.373	322.21
798.553	318.12
798.733	326.31
798.913	324.26
799.093	250.53
799.274	299.69
799.454	309.93
799.634	307.88
799.814	262.82
799.994	172.71
800.174	205.48
800.354	264.87
800.534	244.39
800.714	273.06
800.894	314.02
801.074	260.77
801.254	262.82
801.434	295.59
801.614	217.77
801.794	244.39
801.974	590.5
802.154	236.2
802.334	285.35
802.514	248.49
802.693	295.59
802.873	225.96
803.053	311.97
803.233	252.58
803.413	252.58
803.592	219.82
803.772	219.82
803.952	213.67
804.131	193.19
804.311	279.21
804.491	260.77
804.67	230.06
804.85	217.77
805.03	320.17
805.209	295.59
805.389	209.58
805.568	219.82
805.748	178.86
805.928	232.1
806.107	297.64
806.287	201.38
806.466	260.77
806.646	221.86
806.825	246.44
807.004	228.01
807.184	266.92
807.363	197.29
807.543	221.86
807.722	201.38
807.901	238.25
808.081	266.92
808.26	232.1
808.439	271.01
808.619	172.71
808.798	203.43
808.977	152.23
809.156	244.39
809.336	174.76
809.515	264.87
809.694	242.34
809.873	213.67
810.052	197.29
810.231	279.21
810.411	168.62
810.59	213.67
810.769	213.67
810.948	256.68
811.127	121.51
811.306	123.56
811.485	219.82
811.664	242.34
811.843	225.96
812.022	195.24
812.201	197.29
812.38	240.3
812.559	189.1
812.737	207.53
812.916	178.86
813.095	189.1
813.274	187.05
813.453	189.1
813.632	123.56
813.811	193.19
813.989	82.6
814.168	209.58
814.347	158.38
814.526	236.2
814.704	129.7
814.883	139.94
815.062	121.51
815.24	98.99
815.419	117.42
815.598	160.42
815.776	125.61
815.955	131.75
816.133	125.61
816.312	146.09
816.49	146.09
816.669	125.61
816.847	131.75
817.026	168.62
817.204	141.99
817.383	86.7
817.561	135.85
817.74	217.77
817.918	121.51
818.097	96.94
818.275	150.18
818.453	98.99
818.632	125.61
818.81	150.18
818.988	88.75
819.167	182.95
819.345	197.29
819.523	98.99
819.701	98.99
819.879	189.1
820.058	107.18
820.236	119.46
820.414	119.46
820.592	111.27
820.77	133.8
820.948	66.22
821.127	96.94
821.305	131.75
821.483	123.56
821.661	150.18
821.839	125.61
822.017	127.66
822.195	160.42
822.373	101.03
822.551	123.56
822.729	225.96
822.907	182.95
823.085	109.22
823.262	53.93
823.44	162.47
823.618	119.46
823.796	135.85
823.974	72.36
824.152	189.1
824.329	76.46
824.507	137.9
824.685	139.94
824.863	82.6
825.04	117.42
825.218	88.75
825.396	180.9
825.574	58.03
825.751	84.65
825.929	127.66
826.107	78.51
826.284	68.27
826.462	135.85
826.639	123.56
826.817	146.09
826.994	144.04
827.172	76.46
827.349	178.86
827.527	113.32
827.704	92.84
827.882	103.08
828.059	127.66
828.237	125.61
828.414	103.08
828.591	53.93
828.769	92.84
828.946	25.26
829.124	111.27
829.301	92.84
829.478	146.09
829.655	166.57
829.833	162.47
830.01	78.51
830.187	62.12
830.364	105.13
830.542	70.31
830.719	82.6
830.896	58.03
831.073	55.98
831.25	72.36
831.427	121.51
831.604	193.19
831.782	27.31
831.959	103.08
832.136	82.6
832.313	148.14
832.49	86.7
832.667	94.89
832.844	96.94
833.021	80.55
833.198	125.61
833.374	115.37
833.551	121.51
833.728	58.03
833.905	154.28
834.082	31.4
834.259	41.64
834.436	123.56
834.612	17.07
834.789	70.31
834.966	156.33
835.143	150.18
835.319	64.17
835.496	113.32
835.673	213.67
835.85	101.03
836.026	51.88
836.203	70.31
836.38	53.93
836.556	90.79
836.733	90.79
836.909	94.89
837.086	123.56
837.262	101.03
837.439	51.88
837.616	60.07
837.792	103.08
837.968	86.7
838.145	86.7
838.321	84.65
838.498	98.99
838.674	55.98
838.851	94.89
839.027	53.93
839.203	131.75
839.38	131.75
839.556	64.17
839.732	146.09
839.909	88.75
840.085	72.36
840.261	98.99
840.437	74.41
840.614	111.27
840.79	164.52
840.966	78.51
841.142	-3.41
841.318	125.61
841.494	25.26
841.671	101.03
841.847	76.46
842.023	33.45
842.199	131.75
842.375	96.94
842.551	33.45
842.727	62.12
842.903	96.94
843.079	103.08
843.255	119.46
843.431	68.27
843.607	74.41
843.783	23.21
843.959	107.18
844.134	8.87
844.31	66.22
844.486	82.6
844.662	113.32
844.838	-21.85
845.013	123.56
845.189	162.47
845.365	35.5
845.541	41.64
845.716	27.31
845.892	17.07
846.068	94.89
846.244	25.26
846.419	80.55
846.595	107.18
846.77	62.12
846.946	84.65
847.122	76.46
847.297	23.21
847.473	92.84
847.648	10.92
847.824	160.42
847.999	51.88
848.175	98.99
848.35	68.27
848.526	115.37
848.701	62.12
848.876	111.27
849.052	70.31
849.227	68.27
849.403	15.02
849.578	55.98
849.753	70.31
849.929	-5.46
850.104	107.18
850.279	70.31
850.454	58.03
850.63	94.89
850.805	72.36
850.98	8.87
851.155	37.55
851.33	129.7
851.505	27.31
851.681	51.88
851.856	80.55
852.031	92.84
852.206	-7.51
852.381	33.45
852.556	29.35
852.731	86.7
852.906	58.03
853.081	60.07
853.256	127.66
853.431	60.07
853.606	53.93
853.781	21.16
853.956	78.51
854.131	25.26
854.305	82.6
854.48	51.88
854.655	15.02
854.83	-7.51
855.005	80.55
855.18	90.79
855.354	72.36
855.529	43.69
855.704	51.88
855.879	55.98
856.053	6.83
856.228	70.31
856.403	33.45
856.577	37.55
856.752	0.68
856.926	58.03
857.101	58.03
857.276	70.31
857.45	66.22
857.625	49.83
857.799	51.88
857.974	49.83
858.148	41.64
858.323	55.98
858.497	182.95
858.672	-15.7
858.846	23.21
859.02	86.7
859.195	66.22
859.369	23.21
859.543	82.6
859.718	-15.7
859.892	0.68
860.066	23.21
860.241	-36.18
860.415	-21.85
860.589	58.03
860.763	35.5
860.938	88.75
861.112	72.36
861.286	23.21
861.46	25.26
861.634	41.64
861.808	103.08
861.982	72.36
862.157	39.59
862.331	37.55
862.505	-19.8
862.679	90.79
862.853	-7.51
863.027	64.17
863.201	58.03
863.375	41.64
863.549	123.56
863.722	94.89
863.896	58.03
864.07	101.03
864.244	72.36
864.418	64.17
864.592	-3.41
864.766	4.78
864.939	94.89
865.113	41.64
865.287	68.27
865.461	-42.32
865.634	-5.46
865.808	43.69
865.982	49.83
866.156	41.64
866.329	12.97
866.503	53.93
866.676	23.21
866.85	10.92
867.024	10.92
867.197	90.79
867.371	35.5
867.544	53.93
867.718	43.69
867.891	107.18
868.065	70.31
868.238	35.5
868.412	107.18
868.585	58.03
868.759	12.97
868.932	27.31
869.105	-27.99
869.279	8.87
869.452	80.55
869.625	17.07
869.799	49.83
869.972	-21.85
870.145	23.21
870.319	55.98
870.492	72.36
870.665	-13.65
870.838	49.83
871.011	-9.56
871.185	96.94
871.358	31.4
871.531	86.7
871.704	8.87
871.877	92.84
872.05	-27.99
872.223	-50.52
872.396	74.41
872.569	6.83
872.742	19.11
872.915	58.03
873.088	45.74
873.261	92.84
873.434	39.59
873.607	58.03
873.78	76.46
873.953	86.7
874.126	62.12
874.299	2.73
874.471	27.31
874.644	4.78
874.817	55.98
874.99	25.26
875.163	15.02
875.335	92.84
875.508	74.41
875.681	43.69
875.853	10.92
876.026	37.55
876.199	29.35
876.371	39.59
876.544	0.68
876.717	37.55
876.889	-13.65
877.062	21.16
877.234	-27.99
877.407	96.94
877.579	15.02
877.752	15.02
877.924	-17.75
878.097	17.07
878.269	6.83
878.442	47.79
878.614	58.03
878.786	-7.51
878.959	84.65
879.131	19.11
879.303	-1.37
879.476	55.98
879.648	39.59
879.82	94.89
879.993	47.79
880.165	-71
880.337	25.26
880.509	25.26
880.681	45.74
880.854	4.78
881.026	-40.28
881.198	107.18
881.37	-7.51
881.542	51.88
881.714	72.36
881.886	6.83
882.058	31.4
882.23	17.07
882.402	10.92
882.574	80.55
882.746	64.17
882.918	35.5
883.09	51.88
883.262	70.31
883.434	-19.8
883.606	-25.94
883.778	23.21
883.95	49.83
884.122	12.97
884.293	21.16
884.465	33.45
884.637	107.18
884.809	49.83
884.98	55.98
885.152	-21.85
885.324	43.69
885.496	51.88
885.667	-46.42
885.839	2.73
886.011	66.22
886.182	64.17
886.354	17.07
886.525	-15.7
886.697	37.55
886.869	-42.32
887.04	45.74
887.212	27.31
887.383	80.55
887.555	12.97
887.726	0.68
887.897	-3.41
888.069	55.98
888.24	15.02
888.412	15.02
888.583	33.45
888.754	21.16
888.926	96.94
889.097	-9.56
889.268	-64.85
889.44	41.64
889.611	35.5
889.782	2.73
889.953	-21.85
890.125	-21.85
890.296	17.07
890.467	53.93
890.638	39.59
890.809	41.64
890.98	23.21
891.151	29.35
891.323	-11.61
891.494	88.75
891.665	-25.94
891.836	25.26
892.007	31.4
892.178	49.83
892.349	58.03
892.52	27.31
892.691	4.78
892.862	62.12
893.032	-13.65
893.203	15.02
893.374	62.12
893.545	-30.04
893.716	66.22
893.887	0.68
894.057	21.16
894.228	41.64
894.399	-9.56
894.57	84.65
894.74	25.26
894.911	35.5
895.082	23.21
895.253	10.92
895.423	-7.51
895.594	-23.89
895.764	35.5
895.935	53.93
896.106	33.45
896.276	25.26
896.447	0.68
896.617	43.69
896.788	-44.37
896.958	33.45
897.129	-42.32
897.299	4.78
897.47	41.64
897.64	-7.51
897.81	47.79
897.981	19.11
898.151	25.26
898.322	43.69
898.492	37.55
898.662	29.35
898.832	-5.46
899.003	43.69
899.173	23.21
899.343	62.12
899.513	-50.52
