Data from USB4F104151__20__11-36-30-927.txt Node

Date: Fri Mar 14 11:36:30 EDT 2025
User: louis
Spectrometer: USB4F10415
Trigger mode: 4
Integration Time (sec): 2.000000E-2
Scans to average: 1
Electric dark correction enabled: true
Nonlinearity correction enabled: false
Boxcar width: 0
XAxis mode: Wavelengths
Number of Pixels in Spectrum: 3648
>>>>>Begin Spectral Data<<<<<
178.204	-132.95
178.424	-132.95
178.644	-132.95
178.864	-83.8
179.084	-63.32
179.304	14.51
179.524	-5.97
179.744	-1.88
179.964	24.75
180.184	10.41
180.404	26.79
180.624	-77.65
180.844	-8.02
181.064	-5.97
181.283	34.99
181.503	-14.17
181.723	2.22
181.943	-24.4
182.163	-3.93
182.383	-14.17
182.602	55.47
182.822	47.27
183.042	6.31
183.262	-32.6
183.482	-20.31
183.701	37.03
183.921	26.79
184.141	12.46
184.361	32.94
184.58	-18.26
184.8	14.51
185.02	6.31
185.239	57.51
185.459	22.7
185.679	20.65
185.898	-46.93
186.118	53.42
186.338	45.23
186.557	14.51
186.777	-26.45
186.997	-10.07
187.216	0.17
187.436	51.37
187.655	-16.21
187.875	-22.36
188.095	-53.08
188.314	47.27
188.534	6.31
188.753	22.7
188.973	2.22
189.192	20.65
189.412	45.23
189.631	-42.84
189.851	-30.55
190.07	47.27
190.29	30.89
190.509	-61.27
190.729	0.17
190.948	22.7
191.168	71.85
191.387	47.27
191.607	51.37
191.826	-14.17
192.045	26.79
192.265	-14.17
192.484	26.79
192.704	-89.94
192.923	-34.64
193.142	90.28
193.362	47.27
193.581	47.27
193.8	32.94
194.02	51.37
194.239	10.41
194.458	0.17
194.678	-8.02
194.897	-14.17
195.116	71.85
195.335	-30.55
195.555	84.14
195.774	-22.36
195.993	55.47
196.212	-20.31
196.432	45.23
196.651	-10.07
196.87	-38.74
197.089	22.7
197.308	26.79
197.528	24.75
197.747	-10.07
197.966	4.27
198.185	80.04
198.404	49.32
198.623	8.36
198.842	61.61
199.062	37.03
199.281	32.94
199.5	-16.21
199.719	10.41
199.938	10.41
200.157	16.55
200.376	-61.27
200.595	41.13
200.814	-3.93
201.033	30.89
201.252	63.66
201.471	-14.17
201.69	69.8
201.909	-30.55
202.128	4.27
202.347	104.62
202.566	-34.64
202.785	24.75
203.004	-16.21
203.223	18.6
203.442	20.65
203.661	12.46
203.879	18.6
204.098	80.04
204.317	-1.88
204.536	67.75
204.755	-10.07
204.974	67.75
205.193	55.47
205.411	45.23
205.63	-26.45
205.849	-1.88
206.068	6.31
206.287	6.31
206.505	41.13
206.724	6.31
206.943	-28.5
207.162	-112.47
207.381	6.31
207.599	4.27
207.818	-20.31
208.037	43.18
208.255	-53.08
208.474	6.31
208.693	65.71
208.911	-30.55
209.13	28.84
209.349	34.99
209.567	8.36
209.786	14.51
210.005	-12.12
210.223	10.41
210.442	-3.93
210.661	12.46
210.879	22.7
211.098	6.31
211.316	-55.12
211.535	12.46
211.753	47.27
211.972	92.33
212.191	0.17
212.409	12.46
212.628	-71.51
212.846	32.94
213.065	22.7
213.283	94.38
213.502	65.71
213.72	-10.07
213.938	-44.88
214.157	43.18
214.375	-3.93
214.594	61.61
214.812	57.51
215.031	73.9
215.249	16.55
215.467	-42.84
215.686	84.14
215.904	98.47
216.122	-18.26
216.341	73.9
216.559	-10.07
216.778	30.89
216.996	18.6
217.214	-26.45
217.432	-8.02
217.651	-3.93
217.869	37.03
218.087	30.89
218.306	-10.07
218.524	63.66
218.742	10.41
218.96	102.57
219.179	-40.79
219.397	71.85
219.615	30.89
219.833	-26.45
220.051	43.18
220.27	94.38
220.488	22.7
220.706	22.7
220.924	-14.17
221.142	22.7
221.36	71.85
221.578	37.03
221.796	10.41
222.015	67.75
222.233	12.46
222.451	108.71
222.669	-1.88
222.887	-36.69
223.105	-10.07
223.323	6.31
223.541	-14.17
223.759	22.7
223.977	30.89
224.195	63.66
224.413	67.75
224.631	4.27
224.849	12.46
225.067	67.75
225.285	61.61
225.503	34.99
225.721	-34.64
225.939	16.55
226.157	-24.4
226.375	92.33
226.592	20.65
226.81	0.17
227.028	53.42
227.246	57.51
227.464	30.89
227.682	49.32
227.9	86.19
228.117	75.95
228.335	-51.03
228.553	63.66
228.771	-36.69
228.989	26.79
229.206	-12.12
229.424	-14.17
229.642	-32.6
229.86	45.23
230.077	90.28
230.295	88.23
230.513	55.47
230.731	-59.22
230.948	47.27
231.166	41.13
231.384	39.08
231.601	63.66
231.819	14.51
232.037	24.75
232.254	37.03
232.472	-30.55
232.689	-12.12
232.907	51.37
233.125	22.7
233.342	0.17
233.56	-1.88
233.777	55.47
233.995	-30.55
234.213	18.6
234.43	28.84
234.648	39.08
234.865	53.42
235.083	34.99
235.3	37.03
235.518	18.6
235.735	55.47
235.953	32.94
236.17	12.46
236.388	28.84
236.605	-46.93
236.822	37.03
237.04	-20.31
237.257	30.89
237.475	22.7
237.692	22.7
237.909	-34.64
238.127	-34.64
238.344	-12.12
238.562	16.55
238.779	30.89
238.996	133.29
239.214	-104.28
239.431	100.52
239.648	4.27
239.865	0.17
240.083	41.13
240.3	34.99
240.517	-34.64
240.735	43.18
240.952	22.7
241.169	47.27
241.386	6.31
241.603	45.23
241.821	6.31
242.038	-28.5
242.255	45.23
242.472	73.9
242.689	47.27
242.907	14.51
243.124	39.08
243.341	-20.31
243.558	-42.84
243.775	-18.26
243.992	-77.65
244.209	-5.97
244.426	98.47
244.643	71.85
244.86	71.85
245.078	71.85
245.295	6.31
245.512	39.08
245.729	-30.55
245.946	53.42
246.163	6.31
246.38	57.51
246.597	-30.55
246.814	-32.6
247.031	28.84
247.248	26.79
247.464	14.51
247.681	-20.31
247.898	55.47
248.115	-5.97
248.332	-12.12
248.549	20.65
248.766	18.6
248.983	30.89
249.2	51.37
249.417	34.99
249.633	45.23
249.85	22.7
250.067	-1.88
250.284	2.22
250.501	-14.17
250.717	18.6
250.934	-16.21
251.151	-16.21
251.368	82.09
251.585	-1.88
251.801	45.23
252.018	63.66
252.235	-40.79
252.451	86.19
252.668	43.18
252.885	-44.88
253.102	-1.88
253.318	90.28
253.535	-16.21
253.752	-28.5
253.968	16.55
254.185	22.7
254.401	18.6
254.618	45.23
254.835	16.55
255.051	51.37
255.268	20.65
255.484	14.51
255.701	-30.55
255.917	63.66
256.134	-12.12
256.351	8.36
256.567	6.31
256.784	-73.56
257	-18.26
257.217	32.94
257.433	53.42
257.65	104.62
257.866	16.55
258.082	-16.21
258.299	0.17
258.515	26.79
258.732	-22.36
258.948	59.56
259.165	14.51
259.381	22.7
259.597	-28.5
259.814	90.28
260.03	10.41
260.246	43.18
260.463	75.95
260.679	30.89
260.895	26.79
261.112	32.94
261.328	8.36
261.544	-5.97
261.761	-14.17
261.977	16.55
262.193	20.65
262.409	118.95
262.626	75.95
262.842	53.42
263.058	-30.55
263.274	10.41
263.49	24.75
263.707	10.41
263.923	16.55
264.139	-8.02
264.355	16.55
264.571	121
264.787	-14.17
265.004	12.46
265.22	45.23
265.436	10.41
265.652	82.09
265.868	18.6
266.084	55.47
266.3	57.51
266.516	18.6
266.732	6.31
266.948	28.84
267.164	0.17
267.38	14.51
267.596	49.32
267.812	61.61
268.028	-1.88
268.244	-108.37
268.46	-36.69
268.676	-26.45
268.892	-18.26
269.108	47.27
269.324	47.27
269.54	8.36
269.756	94.38
269.972	22.7
270.188	30.89
270.403	131.24
270.619	34.99
270.835	-28.5
271.051	22.7
271.267	77.99
271.483	-75.6
271.698	-1.88
271.914	71.85
272.13	41.13
272.346	51.37
272.562	61.61
272.777	32.94
272.993	-10.07
273.209	-59.22
273.425	32.94
273.64	-34.64
273.856	37.03
274.072	20.65
274.287	2.22
274.503	8.36
274.719	106.67
274.934	65.71
275.15	43.18
275.366	-26.45
275.581	-10.07
275.797	-22.36
276.012	39.08
276.228	10.41
276.444	6.31
276.659	55.47
276.875	24.75
277.09	8.36
277.306	-5.97
277.521	-28.5
277.737	18.6
277.952	39.08
278.168	18.6
278.383	12.46
278.599	-8.02
278.814	-22.36
279.03	-1.88
279.245	37.03
279.461	-12.12
279.676	39.08
279.892	47.27
280.107	37.03
280.322	8.36
280.538	47.27
280.753	8.36
280.969	43.18
281.184	6.31
281.399	86.19
281.615	51.37
281.83	47.27
282.045	-10.07
282.26	-22.36
282.476	61.61
282.691	82.09
282.906	104.62
283.122	6.31
283.337	-16.21
283.552	49.32
283.767	55.47
283.983	28.84
284.198	-16.21
284.413	59.56
284.628	-3.93
284.843	51.37
285.058	12.46
285.274	-30.55
285.489	43.18
285.704	55.47
285.919	22.7
286.134	94.38
286.349	-32.6
286.564	18.6
286.779	10.41
286.995	-26.45
287.21	20.65
287.425	51.37
287.64	-32.6
287.855	12.46
288.07	57.51
288.285	22.7
288.5	96.43
288.715	32.94
288.93	12.46
289.145	-1.88
289.36	37.03
289.575	71.85
289.79	2.22
290.004	-10.07
290.219	18.6
290.434	67.75
290.649	34.99
290.864	67.75
291.079	-48.98
291.294	-67.41
291.509	22.7
291.724	37.03
291.938	71.85
292.153	-28.5
292.368	18.6
292.583	53.42
292.798	-26.45
293.012	45.23
293.227	96.43
293.442	114.86
293.657	34.99
293.871	59.56
294.086	82.09
294.301	80.04
294.516	26.79
294.73	18.6
294.945	10.41
295.16	71.85
295.374	34.99
295.589	2.22
295.804	-30.55
296.018	53.42
296.233	37.03
296.447	-1.88
296.662	22.7
296.877	30.89
297.091	65.71
297.306	59.56
297.52	-26.45
297.735	39.08
297.949	6.31
298.164	10.41
298.378	28.84
298.593	-20.31
298.807	4.27
299.022	8.36
299.236	8.36
299.451	135.34
299.665	-5.97
299.88	43.18
300.094	22.7
300.309	-3.93
300.523	30.89
300.737	24.75
300.952	61.61
301.166	51.37
301.381	-1.88
301.595	12.46
301.809	45.23
302.024	-3.93
302.238	28.84
302.452	69.8
302.667	51.37
302.881	51.37
303.095	14.51
303.309	-3.93
303.524	63.66
303.738	18.6
303.952	34.99
304.166	37.03
304.381	69.8
304.595	135.34
304.809	2.22
305.023	26.79
305.237	20.65
305.452	63.66
305.666	-16.21
305.88	53.42
306.094	53.42
306.308	51.37
306.522	57.51
306.736	-20.31
306.95	-83.8
307.164	30.89
307.379	-24.4
307.593	47.27
307.807	-40.79
308.021	94.38
308.235	22.7
308.449	-34.64
308.663	28.84
308.877	20.65
309.091	37.03
309.305	65.71
309.519	4.27
309.733	-3.93
309.947	-5.97
310.161	53.42
310.374	32.94
310.588	71.85
310.802	10.41
311.016	26.79
311.23	51.37
311.444	75.95
311.658	-5.97
311.872	71.85
312.085	14.51
312.299	88.23
312.513	69.8
312.727	-1.88
312.941	-32.6
313.154	-10.07
313.368	18.6
313.582	10.41
313.796	-1.88
314.009	-14.17
314.223	57.51
314.437	90.28
314.651	69.8
314.864	24.75
315.078	8.36
315.292	-18.26
315.505	34.99
315.719	43.18
315.933	-18.26
316.146	37.03
316.36	43.18
316.573	61.61
316.787	37.03
317.001	24.75
317.214	6.31
317.428	59.56
317.641	0.17
317.855	75.95
318.068	47.27
318.282	22.7
318.495	-1.88
318.709	37.03
318.922	-20.31
319.136	90.28
319.349	49.32
319.563	6.31
319.776	71.85
319.99	47.27
320.203	63.66
320.417	82.09
320.63	-20.31
320.843	63.66
321.057	55.47
321.27	43.18
321.483	80.04
321.697	75.95
321.91	43.18
322.124	-1.88
322.337	-22.36
322.55	12.46
322.763	4.27
322.977	88.23
323.19	45.23
323.403	63.66
323.617	22.7
323.83	30.89
324.043	-42.84
324.256	55.47
324.469	-1.88
324.683	73.9
324.896	67.75
325.109	108.71
325.322	32.94
325.535	39.08
325.748	24.75
325.962	34.99
326.175	-20.31
326.388	80.04
326.601	-26.45
326.814	14.51
327.027	51.37
327.24	59.56
327.453	16.55
327.666	2.22
327.879	28.84
328.092	125.1
328.305	41.13
328.518	77.99
328.731	-10.07
328.944	24.75
329.157	14.51
329.37	-22.36
329.583	39.08
329.796	43.18
330.009	-38.74
330.222	51.37
330.435	41.13
330.648	28.84
330.861	20.65
331.073	-55.12
331.286	0.17
331.499	30.89
331.712	61.61
331.925	39.08
332.138	55.47
332.35	18.6
332.563	63.66
332.776	131.24
332.989	71.85
333.202	22.7
333.414	30.89
333.627	59.56
333.84	-42.84
334.053	30.89
334.265	28.84
334.478	37.03
334.691	14.51
334.903	80.04
335.116	-44.88
335.329	90.28
335.541	184.49
335.754	43.18
335.966	39.08
336.179	32.94
336.392	30.89
336.604	37.03
336.817	22.7
337.029	69.8
337.242	20.65
337.454	0.17
337.667	-91.99
337.88	65.71
338.092	28.84
338.305	6.31
338.517	12.46
338.729	-16.21
338.942	49.32
339.154	82.09
339.367	12.46
339.579	53.42
339.792	59.56
340.004	14.51
340.217	-42.84
340.429	24.75
340.641	-51.03
340.854	-8.02
341.066	45.23
341.278	39.08
341.491	84.14
341.703	88.23
341.915	71.85
342.128	127.14
342.34	-5.97
342.552	0.17
342.764	10.41
342.977	104.62
343.189	0.17
343.401	69.8
343.613	24.75
343.826	-3.93
344.038	34.99
344.25	59.56
344.462	24.75
344.674	51.37
344.886	28.84
345.099	57.51
345.311	55.47
345.523	86.19
345.735	-5.97
345.947	-61.27
346.159	30.89
346.371	43.18
346.583	34.99
346.795	-1.88
347.007	20.65
347.219	43.18
347.431	26.79
347.643	37.03
347.855	28.84
348.067	55.47
348.279	22.7
348.491	37.03
348.703	43.18
348.915	53.42
349.127	75.95
349.339	45.23
349.551	-42.84
349.763	75.95
349.975	-32.6
350.187	-20.31
350.399	20.65
350.61	6.31
350.822	2.22
351.034	55.47
351.246	-5.97
351.458	88.23
351.669	61.61
351.881	75.95
352.093	-30.55
352.305	34.99
352.517	92.33
352.728	86.19
352.94	69.8
353.152	57.51
353.363	-22.36
353.575	102.57
353.787	49.32
353.999	22.7
354.21	28.84
354.422	22.7
354.633	-1.88
354.845	71.85
355.057	71.85
355.268	16.55
355.48	20.65
355.692	16.55
355.903	-26.45
356.115	16.55
356.326	-55.12
356.538	39.08
356.749	75.95
356.961	73.9
357.172	-5.97
357.384	12.46
357.595	55.47
357.807	18.6
358.018	30.89
358.23	63.66
358.441	37.03
358.653	67.75
358.864	37.03
359.075	88.23
359.287	-18.26
359.498	104.62
359.709	47.27
359.921	-16.21
360.132	-10.07
360.344	8.36
360.555	-65.36
360.766	118.95
360.977	28.84
361.189	28.84
361.4	63.66
361.611	22.7
361.823	-16.21
362.034	12.46
362.245	18.6
362.456	59.56
362.667	110.76
362.879	39.08
363.09	-20.31
363.301	65.71
363.512	-8.02
363.723	-10.07
363.935	16.55
364.146	55.47
364.357	10.41
364.568	22.7
364.779	18.6
364.99	-1.88
365.201	37.03
365.412	0.17
365.623	4.27
365.834	4.27
366.045	16.55
366.256	41.13
366.467	47.27
366.678	53.42
366.889	-26.45
367.1	98.47
367.311	47.27
367.522	-22.36
367.733	47.27
367.944	12.46
368.155	98.47
368.366	69.8
368.577	55.47
368.788	59.56
368.999	20.65
369.209	24.75
369.42	-26.45
369.631	86.19
369.842	47.27
370.053	61.61
370.264	-10.07
370.474	121
370.685	2.22
370.896	34.99
371.107	6.31
371.317	90.28
371.528	20.65
371.739	30.89
371.95	49.32
372.16	90.28
372.371	47.27
372.582	159.91
372.792	49.32
373.003	-22.36
373.214	26.79
373.424	61.61
373.635	57.51
373.846	20.65
374.056	55.47
374.267	65.71
374.477	24.75
374.688	24.75
374.898	82.09
375.109	47.27
375.319	30.89
375.53	110.76
375.74	77.99
375.951	45.23
376.161	37.03
376.372	37.03
376.582	-20.31
376.793	75.95
377.003	-44.88
377.214	-5.97
377.424	88.23
377.635	104.62
377.845	8.36
378.055	53.42
378.266	96.43
378.476	22.7
378.686	28.84
378.897	28.84
379.107	37.03
379.317	26.79
379.528	47.27
379.738	77.99
379.948	-26.45
380.158	43.18
380.369	59.56
380.579	141.48
380.789	125.1
380.999	53.42
381.21	63.66
381.42	90.28
381.63	10.41
381.84	88.23
382.05	100.52
382.261	51.37
382.471	75.95
382.681	59.56
382.891	37.03
383.101	75.95
383.311	22.7
383.521	6.31
383.731	30.89
383.941	92.33
384.151	100.52
384.361	82.09
384.571	94.38
384.781	-16.21
384.991	69.8
385.201	4.27
385.411	86.19
385.621	59.56
385.831	57.51
386.041	28.84
386.251	26.79
386.461	77.99
386.671	39.08
386.881	12.46
387.091	55.47
387.301	102.57
387.511	71.85
387.72	69.8
387.93	14.51
388.14	-12.12
388.35	6.31
388.56	133.29
388.769	86.19
388.979	16.55
389.189	69.8
389.399	61.61
389.609	22.7
389.818	67.75
390.028	14.51
390.238	-42.84
390.447	-18.26
390.657	-22.36
390.867	6.31
391.076	0.17
391.286	39.08
391.496	32.94
391.705	-3.93
391.915	125.1
392.125	51.37
392.334	43.18
392.544	49.32
392.753	28.84
392.963	39.08
393.172	69.8
393.382	43.18
393.591	63.66
393.801	26.79
394.01	118.95
394.22	47.27
394.429	22.7
394.639	22.7
394.848	112.81
395.058	108.71
395.267	63.66
395.477	104.62
395.686	67.75
395.895	63.66
396.105	28.84
396.314	28.84
396.524	108.71
396.733	77.99
396.942	104.62
397.152	30.89
397.361	55.47
397.57	121
397.78	53.42
397.989	96.43
398.198	98.47
398.407	43.18
398.617	121
398.826	53.42
399.035	172.2
399.244	47.27
399.453	86.19
399.663	100.52
399.872	106.67
400.081	90.28
400.29	121
400.499	133.29
400.708	88.23
400.917	43.18
401.127	92.33
401.336	137.38
401.545	69.8
401.754	102.57
401.963	141.48
402.172	86.19
402.381	59.56
402.59	143.53
402.799	75.95
403.008	168.1
403.217	98.47
403.426	108.71
403.635	121
403.844	102.57
404.053	137.38
404.262	166.06
404.471	145.58
404.68	145.58
404.888	98.47
405.097	121
405.306	131.24
405.515	108.71
405.724	196.78
405.933	186.54
406.142	153.77
406.35	190.63
406.559	168.1
406.768	194.73
406.977	141.48
407.185	194.73
407.394	221.35
407.603	151.72
407.812	194.73
408.02	211.11
408.229	207.02
408.438	219.3
408.646	237.74
408.855	213.16
409.064	254.12
409.272	229.54
409.481	192.68
409.69	303.27
409.898	198.82
410.107	307.37
410.315	309.41
410.524	293.03
410.733	333.99
410.941	348.33
411.15	327.85
411.358	338.09
411.567	393.38
411.775	448.68
411.984	368.81
412.192	479.4
412.401	385.19
412.609	417.96
412.818	534.69
413.026	460.96
413.234	530.59
413.443	428.2
413.651	495.78
413.86	473.25
414.068	499.88
414.276	583.84
414.485	581.79
414.693	637.09
414.901	669.86
415.11	725.15
415.318	612.51
415.526	755.87
415.734	702.62
415.943	696.48
416.151	723.1
416.359	817.31
416.567	807.07
416.776	915.61
416.984	936.09
417.192	872.61
417.4	921.76
417.608	1007.77
417.817	940.19
418.025	954.52
418.233	1177.75
418.441	1120.41
418.649	1169.56
418.857	1165.46
419.065	1339.54
419.273	1185.94
419.481	1382.55
419.689	1349.78
419.897	1566.87
420.105	1460.37
420.313	1513.62
420.521	1552.53
420.729	1679.51
420.937	1695.89
421.145	1691.79
421.353	1718.42
421.561	1904.78
421.769	1816.72
421.977	2029.71
422.185	2001.04
422.393	2144.39
422.601	2205.83
422.809	2328.71
423.017	2289.8
423.224	2271.37
423.432	2381.96
423.64	2455.69
423.848	2689.15
424.056	2676.87
424.263	2799.74
424.471	2812.03
424.679	2732.16
424.887	3010.68
425.094	3104.89
425.302	3061.88
425.51	3256.44
425.718	3295.35
425.925	3348.6
426.133	3381.37
426.341	3713.14
426.548	3711.09
426.756	3776.63
426.964	3844.21
427.171	4247.66
427.379	4165.74
427.586	4280.43
427.794	4333.67
428.001	4597.86
428.209	4808.8
428.417	4558.95
428.624	5025.89
428.832	5032.03
429.039	5077.09
429.247	5032.03
429.454	5517.4
429.662	5785.68
429.869	5541.97
430.076	5883.98
430.284	5732.44
430.491	6039.63
430.699	6148.17
430.906	6336.59
431.114	6416.46
431.321	6475.85
431.528	6682.69
431.736	7247.93
431.943	7454.78
432.15	7419.96
432.358	7278.65
432.565	7938.1
432.772	7682.1
432.979	8185.9
433.187	8300.59
433.394	8362.03
433.601	8919.07
433.808	8935.46
434.016	9023.52
434.223	9197.6
434.43	9807.89
434.637	9840.66
434.844	10354.7
435.052	10569.74
435.259	10203.15
435.466	10385.42
435.673	10358.8
435.88	10940.42
436.087	11591.67
436.294	11636.73
436.501	11345.92
436.708	11642.87
436.915	11921.4
437.122	12611.56
437.329	12500.97
437.537	13017.06
437.743	12994.53
437.95	12953.57
438.157	13707.23
438.364	14125.01
438.571	14030.8
438.778	14071.76
438.985	15519.68
439.192	14897.1
439.399	15339.46
439.606	15187.91
439.813	15992.76
440.02	16803.75
440.227	16545.71
440.433	16293.81
440.64	17110.95
440.847	16885.67
441.054	17323.94
441.261	18360.21
441.467	18323.35
441.674	18329.49
441.881	19011.46
442.088	19107.72
442.294	18882.44
442.501	19451.78
442.708	19828.6
442.914	20668.27
443.121	21727.07
443.328	20868.97
443.534	22386.52
443.741	21747.55
443.948	21143.4
444.154	23244.62
444.361	22765.39
444.568	23029.58
444.774	23410.5
444.981	23670.59
445.187	24012.6
445.394	25186.09
445.6	24747.83
445.807	26951.44
446.013	25980.7
446.22	26806.03
446.426	27506.44
446.633	27629.32
446.839	28804.85
447.046	27209.48
447.252	28808.95
447.459	28978.93
447.665	28735.22
447.871	30011.1
448.078	31561.42
448.284	30017.25
448.491	30729.94
448.697	31989.44
448.903	32603.83
449.11	32784.05
449.316	31952.58
449.522	33152.69
449.728	33373.87
449.935	33795.75
450.141	33873.57
450.347	34512.54
450.553	33140.4
450.76	33654.44
450.966	35083.92
451.172	34553.5
451.378	35528.33
451.584	34623.13
451.791	35165.84
451.997	35331.73
452.203	35937.93
452.409	35464.85
452.615	35974.79
452.821	34360.99
453.027	33822.37
453.233	35794.57
453.44	34395.81
453.646	35139.22
453.852	35079.83
454.058	35258
454.264	34647.71
454.47	35552.91
454.676	34111.14
454.882	35604.11
455.088	32661.18
455.294	33103.54
455.5	33377.97
455.705	33691.3
455.911	32214.72
456.117	31776.45
456.323	31121.1
456.529	29458.15
456.735	30643.93
456.941	29978.34
457.147	29339.37
457.352	28593.91
457.558	28622.58
457.764	28944.11
457.97	28016.38
458.176	27238.16
458.381	27191.05
458.587	25882.4
458.793	25685.79
458.999	24717.11
459.204	26443.54
459.41	25743.14
459.616	23822.14
459.821	23807.81
460.027	23641.92
460.233	23340.87
460.438	22107.99
460.644	22548.31
460.85	21522.27
461.055	21178.22
461.261	20799.34
461.466	19539.84
461.672	18599.82
461.878	20133.75
462.083	19027.85
462.289	18700.17
462.494	18284.44
462.7	17461.15
462.905	17026.98
463.111	17581.98
463.316	17852.31
463.522	17375.14
463.727	17330.08
463.932	17373.09
464.138	17246.12
464.343	17266.6
464.549	16805.8
464.754	17213.35
464.959	17203.11
465.165	17016.74
465.37	15931.32
465.575	15556.54
465.781	16672.68
465.986	16807.85
466.191	16011.19
466.397	15804.35
466.602	14817.22
466.807	15474.62
467.012	15335.36
467.218	15237.06
467.423	15204.29
467.628	15464.38
467.833	15902.65
468.038	15329.22
468.244	14745.55
468.449	15466.43
468.654	14833.61
468.859	14886.86
469.064	14485.45
469.269	14276.56
469.474	14342.1
469.679	14809.03
469.885	14294.99
470.09	14407.63
470.295	14331.86
470.5	14000.09
470.705	13905.88
470.91	13682.65
471.115	13420.51
471.32	13875.16
471.525	13744.09
471.73	13545.44
471.935	13481.95
472.139	12818.41
472.344	13096.93
472.549	13019.11
472.754	12904.42
472.959	12552.17
473.164	12400.62
473.369	12189.68
473.574	12562.41
473.778	12326.89
473.983	12091.38
474.188	12216.3
474.393	12046.32
474.598	11761.66
474.802	11696.12
475.007	11589.63
475.212	11505.66
475.417	11313.15
475.621	11069.44
475.826	10995.71
476.031	11077.63
476.235	10919.94
476.44	10954.76
476.645	10690.57
476.849	10768.39
477.054	10608.65
477.259	10358.8
477.463	10455.05
477.668	10199.06
477.872	10233.87
478.077	10065.94
478.282	9861.14
478.486	9832.47
478.691	9752.6
478.895	9873.43
479.1	9742.36
479.304	9742.36
479.509	9236.51
479.713	9463.83
479.918	9308.19
480.122	9189.41
480.326	9482.27
480.531	9164.83
480.735	9244.7
480.94	9275.42
481.144	9388.06
481.348	8929.31
481.553	9050.14
481.757	8849.44
481.961	9054.24
482.166	8984.61
482.37	9136.16
482.574	8882.21
482.778	9025.57
482.983	8937.51
483.187	9062.43
483.391	9162.78
483.595	8976.42
483.8	8730.66
484.004	9123.87
484.208	9113.63
484.412	9021.47
484.616	8908.83
484.821	8824.87
485.025	8890.4
485.229	8968.23
485.433	8761.38
485.637	9000.99
485.841	8710.18
486.045	8914.98
486.249	9037.86
486.453	8837.16
486.657	8816.68
486.861	8769.57
487.065	8800.29
487.269	8771.62
487.473	8861.73
487.677	9070.62
487.881	9070.62
488.085	8839.2
488.289	8933.41
488.493	8882.21
488.697	9109.54
488.901	9048.1
489.105	9015.33
489.309	8898.59
489.512	9029.66
489.716	8785.96
489.92	8992.8
490.124	8921.12
490.328	9173.02
490.531	9074.72
490.735	8955.94
490.939	9289.76
491.143	9087.01
491.346	9263.13
491.55	9314.33
491.754	9177.12
491.958	9418.78
492.161	9275.42
492.365	9197.6
492.569	9218.08
492.772	9275.42
492.976	9426.97
493.18	9566.23
493.383	9445.4
493.587	9605.14
493.79	9787.41
493.994	9642.01
494.197	9631.77
494.401	9574.42
494.605	9871.38
494.808	9898
495.012	10090.51
495.215	10006.55
495.419	10123.28
495.622	10227.73
495.825	10342.41
496.029	10420.24
496.232	10360.84
496.436	10543.11
496.639	10475.53
496.843	10555.4
497.046	10942.47
497.249	11016.19
497.453	10909.7
497.656	11323.39
497.859	11229.18
498.063	11390.97
498.266	11683.83
498.469	11464.7
498.673	11565.05
498.876	11653.11
499.079	11950.07
499.282	11771.9
499.485	12300.27
499.689	12380.14
499.892	12388.33
500.095	12330.99
500.298	12787.69
500.501	12593.13
500.705	13010.92
500.908	13025.25
501.111	13027.3
501.314	13410.27
501.517	13236.19
501.72	13742.04
501.923	13387.74
502.126	14114.77
502.329	14239.7
502.532	14141.39
502.735	14131.16
502.938	14387.15
503.141	14641.1
503.344	14815.18
503.547	14837.7
503.75	15038.41
503.953	15390.66
504.156	15204.29
504.359	15454.14
504.562	15806.39
504.765	15794.11
504.968	15957.94
505.17	16187.32
505.373	16246.71
505.576	16664.49
505.779	16744.36
505.982	16959.4
506.185	17242.02
506.387	17061.8
506.59	17358.75
506.793	17651.61
506.996	17579.93
507.198	18130.84
507.401	18005.91
507.604	17991.58
507.807	18335.63
508.009	18407.31
508.212	18552.72
508.415	18888.59
508.617	19171.21
508.82	19144.58
509.022	19263.36
509.225	19613.57
509.428	20090.74
509.63	19576.7
509.833	20152.18
510.035	20633.46
510.238	20236.15
510.44	20635.5
510.643	21221.22
510.845	21149.54
511.048	20909.93
511.25	21509.99
511.453	21512.03
511.655	22077.27
511.858	21841.76
512.06	22064.99
512.262	22437.72
512.465	22151
512.667	22681.42
512.87	22579.03
513.072	22787.92
513.274	23859.01
513.477	23301.96
513.679	23570.24
513.881	24022.84
514.084	24203.07
514.286	24065.85
514.488	24327.99
514.69	25057.07
514.893	24995.63
515.095	24956.72
515.297	25386.79
515.499	25456.42
515.701	25788.19
515.904	26242.84
516.106	26177.31
516.308	26287.9
516.51	26738.45
516.712	26492.69
516.914	26902.29
517.116	27330.31
517.318	27369.23
517.52	27721.48
517.722	27870.98
517.925	28163.84
518.127	28272.38
518.329	28542.71
518.531	28366.59
518.733	28774.13
518.935	28884.72
519.136	28958.45
519.338	29357.8
519.54	29628.13
519.742	29796.07
519.944	29863.65
520.146	30107.36
520.348	30555.86
520.55	30777.05
520.752	30549.72
520.954	31200.97
521.155	31033.04
521.357	31489.74
521.559	31571.66
521.761	31850.18
521.963	32083.65
522.164	32276.16
522.366	32288.45
522.568	32413.37
522.77	32626.36
522.971	33277.61
523.173	33269.42
523.375	33226.42
523.576	32911.03
523.778	33468.08
523.98	33552.04
524.181	33636.01
524.383	34143.91
524.584	34178.72
524.786	34356.89
524.988	34135.71
525.189	34528.92
525.391	34727.58
525.592	34977.43
525.794	34956.95
525.995	34758.3
526.197	35233.43
526.398	35026.58
526.6	35442.32
526.801	35645.07
527.003	35438.22
527.204	35862.15
527.406	35712.65
527.607	36032.13
527.808	36587.13
528.01	35276.43
528.211	35624.59
528.412	36699.77
528.614	36339.33
528.815	36267.65
529.016	36357.76
529.218	36388.48
529.419	36578.94
529.62	37092.98
529.822	36765.31
530.023	36748.92
530.224	36820.6
530.425	36986.49
530.626	36650.62
530.828	36529.79
531.029	37330.55
531.23	36675.2
531.431	37045.88
531.632	36966.01
531.833	37187.19
532.035	37224.05
532.236	37144.18
532.437	37342.83
532.638	37318.26
532.839	37344.88
533.04	37338.74
533.241	36904.57
533.442	37604.97
533.643	37561.97
533.844	37285.49
534.045	37389.94
534.246	36972.15
534.447	37052.02
534.648	37084.79
534.849	37189.24
535.05	37201.52
535.251	37369.46
535.451	37445.23
535.652	37469.81
535.853	37076.6
536.054	37600.88
536.255	37588.59
536.456	37348.98
536.657	37846.63
536.857	37269.11
537.058	37271.15
537.259	37582.45
537.46	37228.15
537.66	37006.97
537.861	37406.32
538.062	37172.85
538.263	37262.96
538.463	37144.18
538.664	37219.95
538.865	37324.4
539.065	37629.55
539.266	36877.94
539.466	37521.01
539.667	36832.89
539.868	37375.6
540.068	37310.07
540.269	37713.52
540.469	37445.23
540.67	37176.95
540.87	37148.28
541.071	37402.22
541.271	37445.23
541.472	37160.56
541.672	37000.82
541.873	36841.08
542.073	36570.75
542.274	37453.42
542.474	37117.56
542.675	36918.9
542.875	37336.69
543.075	36728.44
543.276	36642.43
543.476	37342.83
543.676	37019.25
543.877	37273.2
544.077	37326.45
544.277	36732.54
544.478	37088.88
544.678	37613.16
544.878	37133.94
545.078	37035.64
545.279	36957.81
545.479	36908.66
545.679	37260.91
545.879	36763.26
546.079	36394.62
546.28	36535.93
546.48	36943.48
546.68	36892.28
546.88	36830.84
547.08	37029.49
547.28	36578.94
547.48	36787.83
547.68	37117.56
547.88	36832.89
548.081	36836.98
548.281	36853.37
548.481	36456.06
548.681	36730.49
548.881	36658.81
549.081	36480.64
549.28	36699.77
549.48	36888.18
549.68	36843.13
549.88	36986.49
550.08	36732.54
550.28	36634.24
550.48	36486.78
550.68	36900.47
550.88	36177.54
551.08	36484.73
551.279	36726.39
551.479	36222.59
551.679	36449.92
551.879	36564.6
552.079	36681.34
552.278	36611.71
552.478	36474.49
552.678	36726.39
552.878	36859.51
553.077	36333.18
553.277	35948.17
553.477	36679.29
553.676	36247.17
553.876	36327.04
554.076	36159.11
554.275	36034.18
554.475	35987.08
554.674	36277.89
554.874	36202.11
555.074	36107.91
555.273	36347.52
555.473	36386.43
555.672	35944.07
555.872	36064.9
556.071	36140.68
556.271	36159.11
556.47	35726.99
556.67	35483.28
556.869	35802.76
557.068	35882.63
557.268	35425.93
557.467	35872.39
557.667	35813
557.866	35577.48
558.065	35638.92
558.265	35702.41
558.464	35393.17
558.663	35763.85
558.863	35061.4
559.062	35872.39
559.261	35096.21
559.461	35665.55
559.66	34750.1
559.859	35278.48
560.058	35135.12
560.258	35481.23
560.457	34576.03
560.656	35544.72
560.855	35004.05
561.054	34963.09
561.253	34936.47
561.453	35225.23
561.652	35071.64
561.851	34903.7
562.05	34932.37
562.249	34549.4
562.448	34862.74
562.647	34838.17
562.846	34408.09
563.045	34602.65
563.244	34381.47
563.443	35020.44
563.642	33672.87
563.841	34332.32
564.04	34168.48
564.239	34414.24
564.438	34272.93
564.637	34324.13
564.836	34381.47
565.035	33681.06
565.234	33838.76
565.432	33846.95
565.631	33955.49
565.83	34180.77
566.029	33586.86
566.228	33795.75
566.427	33881.77
566.625	33343.15
566.824	33359.53
567.023	33740.46
567.222	33332.91
567.42	33992.36
567.619	33535.66
567.818	33529.52
568.016	33529.52
568.215	33109.68
568.414	32984.76
568.612	33533.61
568.811	33103.54
569.01	33130.16
569.208	32526.01
569.407	33033.91
569.605	32618.17
569.804	33005.24
570.002	32419.52
570.201	32798.39
570.4	32437.95
570.598	32431.8
570.797	32218.82
570.995	32491.19
571.193	31964.87
571.392	32876.21
571.59	32009.92
571.789	32163.52
571.987	32095.94
572.186	32001.73
572.384	31530.7
572.582	31766.21
572.781	32059.07
572.979	31268.56
573.177	31604.42
573.376	31942.34
573.574	31575.75
573.772	31620.81
573.971	31377.1
574.169	31270.61
574.367	31110.86
574.565	31282.89
574.763	30891.73
574.962	30813.91
575.16	30625.5
575.358	31334.09
575.556	30729.94
575.754	31211.21
575.952	30836.44
576.151	30840.53
576.349	30795.48
576.547	30813.91
576.745	30609.11
576.943	30615.26
577.141	30613.21
577.339	30453.47
577.537	30400.22
577.735	30459.61
577.933	29845.22
578.131	30226.14
578.329	29877.99
578.527	29773.54
578.725	29566.7
578.923	30217.95
579.121	29935.33
579.319	29671.14
579.516	29824.74
579.714	29499.11
579.912	29419.24
580.11	29343.47
580.308	29394.67
580.506	29185.77
580.704	28755.7
580.901	29439.72
581.099	29298.41
581.297	28999.41
581.495	28731.12
581.692	29155.05
581.89	28686.07
582.088	28907.25
582.285	28739.32
582.483	28704.5
582.681	28843.76
582.878	28434.17
583.076	28413.69
583.274	28815.09
583.471	27959.04
583.669	28065.53
583.866	28311.29
584.064	28411.64
584.262	27768.58
584.459	27911.94
584.657	27997.95
584.854	28018.43
585.052	27432.71
585.249	27795.2
585.447	27838.21
585.644	27088.65
585.841	27619.08
586.039	27602.69
586.236	27258.63
586.434	27395.85
586.631	27545.35
586.828	27205.39
587.026	27184.91
587.223	27275.02
587.42	26648.34
587.618	27146
587.815	26713.88
588.012	26928.91
588.21	26658.58
588.407	26885.9
588.604	26316.57
588.801	26320.67
588.999	26666.77
589.196	26504.98
589.393	26586.9
589.59	26189.6
589.787	26410.78
589.984	26140.44
590.182	25556.77
590.379	26089.24
590.576	25855.78
590.773	25691.94
590.97	25794.34
591.167	25526.05
591.364	25411.37
591.561	25900.83
591.758	25304.87
591.955	25300.78
592.152	25644.84
592.349	25380.65
592.546	25003.82
592.743	24960.81
592.94	24721.2
593.137	24813.36
593.334	25216.81
593.531	24966.96
593.727	24954.67
593.924	24751.92
594.121	24583.99
594.318	24852.27
594.515	24414.01
594.712	24768.3
594.908	24268.6
595.105	24575.8
595.302	24125.24
595.499	24119.1
595.696	24180.54
595.892	23996.22
596.089	24127.29
596.286	24053.56
596.482	23916.35
596.679	23744.32
596.876	23912.25
597.072	23684.93
597.269	23969.6
597.466	23365.45
597.662	23543.62
597.859	23406.41
598.055	23164.75
598.252	23039.82
598.448	23052.11
598.645	22742.86
598.841	22945.61
599.038	23076.68
599.234	22843.21
599.431	22640.47
599.627	22558.55
599.824	23000.91
600.02	22482.77
600.217	22441.81
600.413	22789.97
600.609	22355.8
600.806	22071.13
601.002	22366.04
601.198	22132.57
601.395	22206.3
601.591	22048.6
601.787	22210.39
601.984	22048.6
602.18	22081.37
602.376	21770.08
602.572	21757.79
602.769	21905.24
602.965	21737.31
603.161	21616.48
603.357	21655.39
603.553	21104.49
603.75	21327.72
603.946	21202.79
604.142	21372.77
604.338	20969.32
604.534	21184.36
604.73	21051.24
604.926	20854.64
605.122	20893.55
605.318	20846.44
605.514	20911.98
605.71	20682.61
605.906	20785.01
606.102	20750.19
606.298	20535.15
606.494	20604.78
606.69	20739.95
606.886	20539.25
607.082	20207.48
607.278	20619.12
607.474	20287.35
607.67	20264.82
607.866	20201.33
608.062	20410.23
608.257	20121.46
608.453	20199.29
608.649	20211.57
608.845	20180.85
609.041	19748.73
609.236	19926.91
609.432	19963.77
609.628	19937.15
609.824	19828.6
610.019	19885.95
610.215	19756.93
610.411	20017.02
610.606	19552.13
610.802	19904.38
610.998	19761.02
611.193	19586.94
611.389	19609.47
611.584	19283.84
611.78	19353.48
611.976	19576.7
612.171	19521.41
612.367	19322.76
612.562	19416.96
612.758	19246.98
612.953	18878.35
613.149	19257.22
613.344	18788.24
613.539	19607.42
613.735	19173.25
613.93	19244.93
614.126	19177.35
614.321	19195.78
614.517	19320.71
614.712	18909.07
614.907	18935.69
615.103	18907.02
615.298	19052.42
615.493	18935.69
615.688	18689.93
615.884	19099.53
616.079	18683.79
616.274	18554.77
616.47	18743.18
616.665	18749.32
616.86	18716.56
617.055	18341.78
617.25	18255.76
617.445	18749.32
617.641	17942.42
617.836	18218.9
618.031	18120.6
618.226	18270.1
618.421	18286.48
618.616	18188.18
618.811	18005.91
619.006	18220.95
619.201	17743.77
619.396	17880.99
619.591	17647.52
619.786	17895.32
619.981	17489.82
620.176	17637.28
620.371	17299.36
620.566	17344.42
620.761	17336.23
620.956	17348.51
621.151	17256.36
621.346	17180.58
621.541	16983.98
621.735	16957.35
621.93	16938.92
622.125	16803.75
622.32	16678.83
622.515	16547.76
622.709	16500.65
622.904	16734.12
623.099	16517.04
623.294	16474.03
623.488	16261.04
623.683	16336.82
623.878	15998.9
624.072	16140.21
624.267	16121.78
624.462	15857.59
624.656	15798.2
624.851	15972.28
625.046	15546.3
625.24	15579.07
625.435	15540.16
625.629	15351.74
625.824	15167.43
626.018	15423.42
626.213	14888.9
626.407	15048.65
626.602	14958.53
626.796	15081.41
626.991	14946.25
627.185	14589.9
627.38	14456.78
627.574	14630.86
627.768	14389.2
627.963	14553.04
628.157	14358.48
628.352	14211.03
628.546	14122.96
628.74	14221.27
628.935	14297.04
629.129	13938.65
629.323	13791.19
629.517	13842.39
629.712	13750.23
629.906	13783
630.1	13524.96
630.294	13514.72
630.489	13615.07
630.683	13629.4
630.877	13180.9
631.071	13039.59
631.265	13240.29
631.459	12951.53
631.653	13019.11
631.848	12838.89
632.042	12679.15
632.236	12906.47
632.43	12703.72
632.624	12701.67
632.818	12838.89
633.012	12505.07
633.206	12546.03
633.4	12593.13
633.594	12369.9
633.788	12451.82
633.982	12408.81
634.176	12349.42
634.369	12118
634.563	12095.47
634.757	12148.72
634.951	11972.6
635.145	11945.97
635.339	11747.32
635.533	11601.91
635.726	11821.05
635.92	11417.6
636.114	11542.52
636.308	11462.65
636.501	11544.57
636.695	11675.64
636.889	11323.39
637.083	11474.94
637.276	11309.05
637.47	11122.69
637.664	11163.65
637.857	11192.32
638.051	11104.26
638.244	11012.1
638.438	10883.08
638.632	10829.83
638.825	10846.21
639.019	10690.57
639.212	10766.34
639.406	10754.05
639.599	10418.19
639.793	10522.63
639.986	10498.06
640.18	10364.94
640.373	10403.85
640.567	10082.32
640.76	10301.45
640.954	10149.9
641.147	10121.23
641.34	10135.57
641.534	10012.69
641.727	10094.61
641.92	9893.91
642.114	9887.76
642.307	9926.68
642.5	9605.14
642.694	9627.67
642.887	9676.82
643.08	9711.64
643.273	9662.49
643.467	9680.92
643.66	9263.13
643.853	9492.51
644.046	9197.6
644.239	9371.68
644.432	9340.96
644.626	9226.27
644.819	9283.61
645.012	9158.69
645.205	9207.84
645.398	9015.33
645.591	9107.49
645.784	9111.58
645.977	8878.12
646.17	9025.57
646.363	8957.99
646.556	8665.13
646.749	8828.96
646.942	8691.75
647.135	8681.51
647.328	8556.58
647.521	8538.15
647.714	8581.16
647.907	8386.6
648.099	8527.91
648.292	8398.89
648.485	8534.06
648.678	8181.81
648.871	8337.45
649.064	8167.47
649.256	8345.64
649.449	8079.41
649.642	8120.37
649.835	8091.7
650.027	8153.13
650.22	7911.47
650.413	7821.36
650.605	8032.3
650.798	7768.12
650.991	7694.39
651.183	7868.47
651.376	7626.81
651.568	7985.2
651.761	7725.11
651.954	7565.37
652.146	7532.6
652.339	7446.59
652.531	7632.95
652.724	7385.15
652.916	7508.02
653.109	7370.81
653.301	7594.04
653.494	7409.72
653.686	7170.11
653.879	7268.41
654.071	7209.02
654.263	7231.55
654.456	7008.32
654.648	7170.11
654.84	7071.81
655.033	7104.57
655.225	7172.16
655.417	6862.91
655.61	6928.45
655.802	7032.9
655.994	6961.22
656.186	6746.18
656.379	6770.76
656.571	6731.84
656.763	6766.66
656.955	6631.49
657.148	6559.81
657.34	6727.75
657.532	6502.47
657.724	6557.77
657.916	6525
658.108	6297.67
658.3	6244.43
658.492	6375.5
658.684	6230.09
658.876	6289.48
659.068	6279.24
659.26	6398.03
659.452	6152.27
659.644	6199.37
659.836	6154.32
660.028	6215.76
660.22	6058.06
660.412	6068.3
660.604	5886.03
660.796	6058.06
660.988	6088.78
661.18	5845.07
661.372	5883.98
661.563	6047.82
661.755	5759.06
661.947	5828.69
662.139	5824.59
662.331	5840.98
662.522	5797.97
662.714	5726.29
662.906	5775.44
663.097	5646.42
663.289	5564.5
663.481	5742.68
663.673	5623.89
663.864	5519.45
664.056	5519.45
664.247	5388.38
664.439	5423.19
664.631	5548.12
664.822	5331.03
665.014	5402.71
665.205	5458.01
665.397	5251.16
665.588	5347.42
665.78	5378.14
665.971	5257.31
666.163	5138.52
666.354	5183.58
666.546	5116
666.737	5204.06
666.929	5202.01
667.12	5103.71
667.311	5099.61
667.503	4956.26
667.694	5093.47
667.885	5048.41
668.077	4968.54
668.268	5085.28
668.459	5052.51
668.651	4855.9
668.842	4855.9
669.033	4776.03
669.224	4855.9
669.416	4890.72
669.607	4825.19
669.798	4864.1
669.989	4784.23
670.18	4778.08
670.371	4827.23
670.563	4728.93
670.754	4855.9
670.945	4757.6
671.136	4647.01
671.327	4722.79
671.518	4673.64
671.709	4640.87
671.9	4558.95
672.091	4616.29
672.282	4493.41
672.473	4454.5
672.664	4608.1
672.855	4487.27
673.046	4558.95
673.237	4577.38
673.428	4532.33
673.619	4335.72
673.809	4401.26
674	4300.91
674.191	4571.24
674.382	4233.32
674.573	4335.72
674.764	4276.33
674.954	4405.35
675.145	4237.42
675.336	4323.43
675.527	4337.77
675.717	4278.38
675.908	4147.31
676.099	4284.52
676.289	4225.13
676.48	4227.18
676.671	4233.32
676.861	4296.81
677.052	4106.35
677.243	4167.79
677.433	4180.07
677.624	4137.07
677.814	3967.09
678.005	4112.49
678.195	3958.89
678.386	4178.03
678.576	4081.77
678.767	4024.43
678.957	4102.25
679.148	4094.06
679.338	3950.7
679.529	4044.91
679.719	3999.85
679.909	3948.65
680.1	3860.59
680.29	3962.99
680.481	3956.85
680.671	4003.95
680.861	3909.74
681.052	4003.95
681.242	3919.98
681.432	3944.56
681.622	3977.33
681.813	3876.98
682.003	3887.22
682.193	3805.3
682.383	3911.79
682.573	4053.1
682.764	3817.58
682.954	3776.63
683.144	3991.66
683.334	3788.91
683.524	3848.3
683.714	3848.3
683.904	3676.27
684.094	3852.4
684.284	3852.4
684.474	3856.5
684.664	3754.1
684.854	3616.88
685.044	3723.38
685.234	3733.62
685.424	3690.61
685.614	3553.4
685.804	3498.1
685.994	3555.44
686.184	3668.08
686.374	3651.7
686.564	3563.64
686.753	3639.41
686.943	3487.86
687.133	3500.15
687.323	3508.34
687.513	3477.62
687.702	3528.82
687.892	3455.09
688.082	3426.42
688.272	3471.48
688.461	3407.99
688.651	3348.6
688.841	3434.61
689.03	3362.94
689.22	3283.06
689.41	3248.25
689.599	3315.83
689.789	3291.26
689.979	3295.35
690.168	3274.87
690.358	3328.12
690.547	3258.49
690.737	3229.82
690.926	3278.97
691.116	3002.49
691.305	3238.01
691.495	3074.17
691.684	3086.46
691.874	3133.56
692.063	3209.34
692.252	3082.36
692.442	2992.25
692.631	3063.93
692.82	3080.32
693.01	3035.26
693.199	2959.49
693.388	2914.43
693.578	2904.19
693.767	2945.15
693.956	2859.14
694.146	2975.87
694.335	2830.46
694.524	2824.32
694.713	2992.25
694.902	2789.5
695.092	2793.6
695.281	2732.16
695.47	2717.83
695.659	2943.1
695.848	2713.73
696.037	2713.73
696.226	2726.02
696.415	2676.87
696.604	2672.77
696.793	2730.11
696.982	2824.32
697.171	2625.67
697.36	2609.28
697.549	2701.44
697.738	2676.87
697.927	2656.39
698.116	2580.61
698.305	2582.66
698.494	2574.47
698.683	2631.81
698.872	2662.53
699.061	2531.46
699.25	2500.74
699.438	2646.15
699.627	2447.49
699.816	2594.95
700.005	2414.73
700.193	2535.56
700.382	2539.65
700.571	2429.06
700.76	2449.54
700.948	2437.25
701.137	2447.49
701.326	2470.02
701.514	2461.83
701.703	2484.36
701.892	2414.73
702.08	2492.55
702.269	2455.69
702.457	2455.69
702.646	2381.96
702.834	2431.11
703.023	2461.83
703.212	2435.21
703.4	2424.97
703.589	2457.73
703.777	2412.68
703.965	2300.04
704.154	2398.34
704.342	2355.33
704.531	2373.77
704.719	2424.97
704.907	2445.45
705.096	2322.57
705.284	2312.33
705.472	2363.53
705.661	2287.75
705.849	2381.96
706.037	2402.44
706.226	2367.62
706.414	2293.9
706.602	2328.71
706.79	2295.94
706.979	2334.86
707.167	2326.66
707.355	2347.14
707.543	2283.66
707.731	2386.05
707.919	2406.53
708.107	2412.68
708.296	2420.87
708.484	2228.36
708.672	2289.8
708.86	2263.18
709.048	2316.42
709.236	2265.22
709.424	2244.74
709.612	2306.18
709.8	2302.09
709.988	2367.62
710.176	2357.38
710.364	2341
710.551	2269.32
710.739	2304.14
710.927	2308.23
711.115	2273.42
711.303	2275.46
711.491	2175.11
711.679	2236.55
711.866	2228.36
712.054	2254.98
712.242	2220.17
712.43	2367.62
712.617	2377.86
712.805	2322.57
712.993	2281.61
713.181	2306.18
713.368	2218.12
713.556	2365.57
713.744	2185.35
713.931	2347.14
714.119	2193.55
714.306	2232.46
714.494	2240.65
714.682	2285.7
714.869	2238.6
715.057	2283.66
715.244	2275.46
715.432	2357.38
715.619	2332.81
715.807	2424.97
715.994	2373.77
716.182	2388.1
716.369	2271.37
716.556	2414.73
716.744	2259.08
716.931	2345.09
717.119	2431.11
717.306	2369.67
717.493	2275.46
717.681	2422.92
717.868	2386.05
718.055	2371.72
718.242	2297.99
718.43	2283.66
718.617	2443.4
718.804	2353.29
718.991	2408.58
719.179	2338.95
719.366	2365.57
719.553	2388.1
719.74	2492.55
719.927	2427.01
720.114	2420.87
720.301	2295.94
720.488	2355.33
720.676	2404.49
720.863	2314.38
721.05	2443.4
721.237	2312.33
721.424	2429.06
721.611	2439.3
721.798	2427.01
721.985	2533.51
722.172	2439.3
722.358	2412.68
722.545	2408.58
722.732	2363.53
722.919	2422.92
723.106	2404.49
723.293	2386.05
723.48	2447.49
723.667	2349.19
723.853	2486.4
724.04	2549.89
724.227	2414.73
724.414	2418.82
724.6	2449.54
724.787	2470.02
724.974	2451.59
725.161	2510.98
725.347	2365.57
725.534	2568.32
725.72	2467.97
725.907	2355.33
726.094	2349.19
726.28	2478.21
726.467	2388.1
726.653	2433.16
726.84	2398.34
727.027	2334.86
727.213	2521.22
727.4	2521.22
727.586	2517.12
727.773	2463.88
727.959	2410.63
728.145	2447.49
728.332	2594.95
728.518	2488.45
728.705	2517.12
728.891	2310.28
729.077	2558.08
729.264	2465.93
729.45	2420.87
729.636	2553.99
729.823	2373.77
730.009	2510.98
730.195	2408.58
730.382	2476.16
730.568	2480.26
730.754	2533.51
730.94	2515.08
731.126	2623.62
731.313	2433.16
731.499	2545.8
731.685	2578.56
731.871	2519.17
732.057	2531.46
732.243	2545.8
732.429	2506.88
732.615	2564.23
732.801	2437.25
732.987	2459.78
733.173	2472.07
733.359	2668.67
733.545	2437.25
733.731	2502.79
733.917	2459.78
734.103	2494.6
734.289	2599.04
734.475	2437.25
734.661	2537.6
734.847	2566.28
735.033	2486.4
735.219	2537.6
735.404	2545.8
735.59	2488.45
735.776	2431.11
735.962	2644.1
736.148	2467.97
736.333	2476.16
736.519	2525.32
736.705	2463.88
736.89	2508.93
737.076	2396.29
737.262	2412.68
737.447	2506.88
737.633	2592.9
737.819	2574.47
738.004	2459.78
738.19	2537.6
738.375	2472.07
738.561	2590.85
738.747	2431.11
738.932	2365.57
739.118	2474.12
739.303	2597
739.489	2533.51
739.674	2478.21
739.859	2412.68
740.045	2386.05
740.23	2416.77
740.416	2324.62
740.601	2431.11
740.786	2379.91
740.972	2429.06
741.157	2427.01
741.342	2277.51
741.528	2429.06
741.713	2369.67
741.898	2369.67
742.084	2418.82
742.269	2271.37
742.454	2277.51
742.639	2480.26
742.824	2341
743.01	2361.48
743.195	2455.69
743.38	2357.38
743.565	2304.14
743.75	2336.9
743.935	2209.93
744.12	2183.31
744.305	2173.07
744.49	2234.5
744.675	2181.26
744.86	2218.12
745.045	2310.28
745.23	2347.14
745.415	2283.66
745.6	2328.71
745.785	2234.5
745.97	2142.35
746.155	2121.87
746.34	2230.41
746.525	2240.65
746.71	2087.05
746.895	2162.83
747.079	2136.2
747.264	2060.43
747.449	2150.54
747.634	2060.43
747.819	2134.15
748.003	2039.95
748.188	2039.95
748.373	2025.61
748.557	2015.37
748.742	1978.51
748.927	1988.75
749.111	2029.71
749.296	1984.65
749.481	1900.69
749.665	1953.93
749.85	1872.01
750.034	1874.06
750.219	1845.39
750.404	1890.45
750.588	1890.45
750.773	1833.1
750.957	1857.68
751.141	1857.68
751.326	1779.86
751.51	1822.86
751.695	1835.15
751.879	1783.95
752.064	1732.75
752.248	1734.8
752.432	1745.04
752.617	1796.24
752.801	1804.43
752.985	1706.13
753.17	1732.75
753.354	1626.26
753.538	1591.44
753.722	1673.36
753.907	1679.51
754.091	1720.46
754.275	1648.79
754.459	1656.98
754.643	1603.73
754.828	1487
755.012	1693.84
755.196	1673.36
755.38	1560.72
755.564	1589.39
755.748	1446.04
755.932	1622.16
756.116	1558.67
756.3	1652.88
756.484	1446.04
756.668	1515.67
756.852	1464.47
757.036	1400.98
757.22	1394.84
757.404	1480.85
757.588	1405.08
757.772	1308.82
757.956	1468.56
758.14	1374.36
758.323	1355.93
758.507	1343.64
758.691	1372.31
758.875	1368.21
759.059	1325.21
759.242	1366.17
759.426	1317.01
759.61	1331.35
759.794	1284.25
759.977	1282.2
760.161	1427.6
760.345	1312.92
760.528	1298.58
760.712	1282.2
760.895	1317.01
761.079	1284.25
761.263	1284.25
761.446	1251.48
761.63	1208.47
761.813	1331.35
761.997	1231
762.18	1251.48
762.364	1206.42
762.547	1181.85
762.731	1169.56
762.914	1179.8
763.098	1267.86
763.281	1142.94
763.464	1228.95
763.648	1226.9
763.831	1249.43
764.015	1128.6
764.198	1181.85
764.381	1220.76
764.564	1200.28
764.748	1140.89
764.931	1161.37
765.114	1087.64
765.297	1198.23
765.481	1149.08
765.664	1149.08
765.847	1091.74
766.03	1069.21
766.213	1028.25
766.397	1022.11
766.58	1144.99
766.763	1063.07
766.946	1036.44
767.129	1120.41
767.312	997.53
767.495	1087.64
767.678	970.91
767.861	1136.79
768.044	1063.07
768.227	1026.2
768.41	1042.59
768.593	1052.83
768.776	1085.59
768.959	1050.78
769.142	977.05
769.324	954.52
769.507	1050.78
769.69	968.86
769.873	872.61
770.056	1116.31
770.239	913.56
770.421	997.53
770.604	977.05
770.787	989.34
770.97	872.61
771.152	921.76
771.335	948.38
771.518	1022.11
771.7	882.85
771.883	917.66
772.066	1040.54
772.248	989.34
772.431	895.13
772.613	979.1
772.796	882.85
772.978	913.56
773.161	952.48
773.343	872.61
773.526	860.32
773.708	952.48
773.891	809.12
774.073	870.56
774.256	872.61
774.438	841.89
774.621	852.13
774.803	895.13
774.985	807.07
775.168	850.08
775.35	780.45
775.532	819.36
775.715	845.98
775.897	825.5
776.079	841.89
776.261	784.54
776.444	813.21
776.626	759.97
776.808	782.49
776.99	796.83
777.173	825.5
777.355	874.65
777.537	723.1
777.719	780.45
777.901	622.75
778.083	684.19
778.265	723.1
778.447	716.96
778.629	827.55
778.811	753.82
778.993	716.96
779.175	641.18
779.357	698.53
779.539	594.08
779.721	649.38
779.903	676
780.085	696.48
780.267	657.57
780.449	616.61
780.631	690.34
780.812	694.43
780.994	635.04
781.176	659.62
781.358	641.18
781.54	618.66
781.721	645.28
781.903	532.64
782.085	676
782.267	503.97
782.448	653.47
782.63	661.66
782.812	630.95
782.993	571.55
783.175	575.65
783.357	618.66
783.538	581.79
783.72	616.61
783.901	497.83
784.083	594.08
784.264	495.78
784.446	493.73
784.627	497.83
784.809	450.72
784.99	522.4
785.172	489.64
785.353	516.26
785.535	469.16
785.716	489.64
785.897	475.3
786.079	534.69
786.26	561.31
786.441	405.67
786.623	510.11
786.804	440.48
786.985	479.4
787.167	532.64
787.348	417.96
787.529	430.24
787.71	481.44
787.891	438.44
788.073	405.67
788.254	465.06
788.435	405.67
788.616	522.4
788.797	465.06
788.978	424.1
789.159	403.62
789.34	440.48
789.522	465.06
789.703	417.96
789.884	407.72
790.065	444.58
790.246	436.39
790.427	422.05
790.607	403.62
790.788	493.73
790.969	346.28
791.15	368.81
791.331	387.24
791.512	411.81
791.693	417.96
791.874	426.15
792.054	434.34
792.235	381.09
792.416	379.04
792.597	436.39
792.778	342.18
792.958	354.47
793.139	446.63
793.32	340.13
793.5	325.8
793.681	346.28
793.862	354.47
794.042	321.7
794.223	270.5
794.404	336.04
794.584	368.81
794.765	284.84
794.945	374.95
795.126	372.9
795.306	381.09
795.487	319.65
795.667	346.28
795.848	258.21
796.028	364.71
796.209	331.94
796.389	325.8
796.57	258.21
796.75	317.61
796.93	364.71
797.111	358.57
797.291	286.89
797.471	276.65
797.652	327.85
797.832	354.47
798.012	307.37
798.192	274.6
798.373	303.27
798.553	317.61
798.733	272.55
798.913	293.03
799.093	250.02
799.274	274.6
799.454	200.87
799.634	303.27
799.814	336.04
799.994	223.4
800.174	301.22
800.354	307.37
800.534	241.83
800.714	235.69
800.894	264.36
801.074	260.26
801.254	233.64
801.434	268.45
801.614	198.82
801.794	268.45
801.974	549.03
802.154	282.79
802.334	282.79
802.514	211.11
802.693	209.06
802.873	194.73
803.053	313.51
803.233	231.59
803.413	268.45
803.592	295.08
803.772	168.1
803.952	317.61
804.131	200.87
804.311	217.26
804.491	303.27
804.67	252.07
804.85	215.21
805.03	307.37
805.209	282.79
805.389	241.83
805.568	245.93
805.748	192.68
805.928	168.1
806.107	288.93
806.287	186.54
806.466	252.07
806.646	170.15
806.825	243.88
807.004	237.74
807.184	235.69
807.363	278.69
807.543	186.54
807.722	168.1
807.901	247.97
808.081	207.02
808.26	155.82
808.439	223.4
808.619	231.59
808.798	110.76
808.977	274.6
809.156	149.67
809.336	194.73
809.515	176.3
809.694	121
809.873	159.91
810.052	161.96
810.231	235.69
810.411	194.73
810.59	245.93
810.769	127.14
810.948	221.35
811.127	135.34
811.306	147.62
811.485	118.95
811.664	178.34
811.843	116.9
812.022	209.06
812.201	231.59
812.38	227.5
812.559	190.63
812.737	174.25
812.916	147.62
813.095	112.81
813.274	198.82
813.453	157.86
813.632	182.44
813.811	192.68
813.989	200.87
814.168	264.36
814.347	90.28
814.526	159.91
814.704	202.92
814.883	104.62
815.062	184.49
815.24	166.06
815.419	194.73
815.598	247.97
815.776	143.53
815.955	159.91
816.133	118.95
816.312	215.21
816.49	137.38
816.669	153.77
816.847	123.05
817.026	118.95
817.204	157.86
817.383	180.39
817.561	114.86
817.74	164.01
817.918	172.2
818.097	75.95
818.275	190.63
818.453	112.81
818.632	118.95
818.81	186.54
818.988	141.48
819.167	45.23
819.345	116.9
819.523	94.38
819.701	139.43
819.879	129.19
820.058	125.1
820.236	80.04
820.414	98.47
820.592	151.72
820.77	159.91
820.948	143.53
821.127	80.04
821.305	151.72
821.483	61.61
821.661	202.92
821.839	125.1
822.017	108.71
822.195	143.53
822.373	157.86
822.551	100.52
822.729	34.99
822.907	174.25
823.085	231.59
823.262	129.19
823.44	139.43
823.618	202.92
823.796	143.53
823.974	118.95
824.152	84.14
824.329	157.86
824.507	129.19
824.685	108.71
824.863	108.71
825.04	37.03
825.218	166.06
825.396	96.43
825.574	133.29
825.751	104.62
825.929	110.76
826.107	92.33
826.284	133.29
826.462	59.56
826.639	47.27
826.817	39.08
826.994	110.76
827.172	47.27
827.349	75.95
827.527	96.43
827.704	22.7
827.882	61.61
828.059	161.96
828.237	8.36
828.414	137.38
828.591	51.37
828.769	139.43
828.946	61.61
829.124	67.75
829.301	90.28
829.478	86.19
829.655	147.62
829.833	45.23
830.01	73.9
830.187	112.81
830.364	104.62
830.542	65.71
830.719	131.24
830.896	88.23
831.073	88.23
831.25	75.95
831.427	43.18
831.604	102.57
831.782	149.67
831.959	129.19
832.136	-16.21
832.313	149.67
832.49	22.7
832.667	53.42
832.844	114.86
833.021	43.18
833.198	98.47
833.374	151.72
833.551	37.03
833.728	84.14
833.905	135.34
834.082	61.61
834.259	22.7
834.436	157.86
834.612	-8.02
834.789	102.57
834.966	57.51
835.143	67.75
835.319	53.42
835.496	65.71
835.673	49.32
835.85	108.71
836.026	168.1
836.203	71.85
836.38	71.85
836.556	65.71
836.733	22.7
836.909	30.89
837.086	98.47
837.262	24.75
837.439	100.52
837.616	77.99
837.792	96.43
837.968	96.43
838.145	-65.36
838.321	121
838.498	61.61
838.674	135.34
838.851	51.37
839.027	71.85
839.203	51.37
839.38	112.81
839.556	39.08
839.732	69.8
839.909	37.03
840.085	145.58
840.261	108.71
840.437	2.22
840.614	75.95
840.79	129.19
840.966	71.85
841.142	77.99
841.318	-26.45
841.494	67.75
841.671	108.71
841.847	61.61
842.023	39.08
842.199	20.65
842.375	73.9
842.551	22.7
842.727	121
842.903	100.52
843.079	28.84
843.255	55.47
843.431	39.08
843.607	45.23
843.783	-18.26
843.959	84.14
844.134	43.18
844.31	114.86
844.486	-28.5
844.662	12.46
844.838	47.27
845.013	16.55
845.189	96.43
845.365	-18.26
845.541	37.03
845.716	61.61
845.892	-12.12
846.068	110.76
846.244	63.66
846.419	30.89
846.595	-28.5
846.77	47.27
846.946	135.34
847.122	32.94
847.297	51.37
847.473	59.56
847.648	-26.45
847.824	41.13
847.999	32.94
848.175	14.51
848.35	61.61
848.526	59.56
848.701	43.18
848.876	39.08
849.052	24.75
849.227	10.41
849.403	71.85
849.578	84.14
849.753	34.99
849.929	47.27
850.104	-26.45
850.279	22.7
850.454	-38.74
850.63	39.08
850.805	149.67
850.98	20.65
851.155	8.36
851.33	22.7
851.505	63.66
851.681	14.51
851.856	-20.31
852.031	71.85
852.206	49.32
852.381	26.79
852.556	45.23
852.731	73.9
852.906	71.85
853.081	24.75
853.256	24.75
853.431	14.51
853.606	10.41
853.781	49.32
853.956	-61.27
854.131	-8.02
854.305	63.66
854.48	71.85
854.655	6.31
854.83	-20.31
855.005	47.27
855.18	45.23
855.354	30.89
855.529	28.84
855.704	28.84
855.879	47.27
856.053	-51.03
856.228	-71.51
856.403	88.23
856.577	22.7
856.752	-16.21
856.926	-26.45
857.101	-8.02
857.276	49.32
857.45	-12.12
857.625	51.37
857.799	88.23
857.974	10.41
858.148	-28.5
858.323	84.14
858.497	22.7
858.672	16.55
858.846	24.75
859.02	82.09
859.195	8.36
859.369	-26.45
859.543	43.18
859.718	-18.26
859.892	12.46
860.066	-40.79
860.241	14.51
860.415	71.85
860.589	0.17
860.763	55.47
860.938	10.41
861.112	37.03
861.286	-1.88
861.46	28.84
861.634	22.7
861.808	57.51
861.982	-10.07
862.157	2.22
862.331	-42.84
862.505	4.27
862.679	-61.27
862.853	26.79
863.027	6.31
863.201	39.08
863.375	-18.26
863.549	110.76
863.722	108.71
863.896	43.18
864.07	-26.45
864.244	-3.93
864.418	-20.31
864.592	-16.21
864.766	96.43
864.939	-91.99
865.113	-8.02
865.287	-63.32
865.461	18.6
865.634	80.04
865.808	14.51
865.982	18.6
866.156	2.22
866.329	-14.17
866.503	106.67
866.676	51.37
866.85	-59.22
867.024	39.08
867.197	53.42
867.371	67.75
867.544	-24.4
867.718	-48.98
867.891	-16.21
868.065	-26.45
868.238	26.79
868.412	32.94
868.585	30.89
868.759	-28.5
868.932	-46.93
869.105	2.22
869.279	34.99
869.452	28.84
869.625	6.31
869.799	10.41
869.972	-5.97
870.145	26.79
870.319	20.65
870.492	14.51
870.665	90.28
870.838	-8.02
871.011	-46.93
871.185	20.65
871.358	22.7
871.531	-22.36
871.704	0.17
871.877	20.65
872.05	51.37
872.223	-75.6
872.396	12.46
872.569	53.42
872.742	-3.93
872.915	-34.64
873.088	-1.88
873.261	8.36
873.434	6.31
873.607	12.46
873.78	34.99
873.953	2.22
874.126	45.23
874.299	2.22
874.471	-38.74
874.644	4.27
874.817	-24.4
874.99	32.94
875.163	86.19
875.335	18.6
875.508	63.66
875.681	82.09
875.853	0.17
876.026	12.46
876.199	26.79
876.371	22.7
876.544	-1.88
876.717	22.7
876.889	-10.07
877.062	28.84
877.234	-5.97
877.407	-12.12
877.579	18.6
877.752	16.55
877.924	-8.02
878.097	30.89
878.269	4.27
878.442	4.27
878.614	6.31
878.786	57.51
878.959	2.22
879.131	16.55
879.303	26.79
879.476	67.75
879.648	20.65
879.82	30.89
879.993	-8.02
880.165	51.37
880.337	2.22
880.509	34.99
880.681	-69.46
880.854	8.36
881.026	-3.93
881.198	28.84
881.37	2.22
881.542	22.7
881.714	41.13
881.886	55.47
882.058	-18.26
882.23	-16.21
882.402	-20.31
882.574	-18.26
882.746	-65.36
882.918	37.03
883.09	-44.88
883.262	18.6
883.434	2.22
883.606	75.95
883.778	-38.74
883.95	22.7
884.122	-12.12
884.293	-12.12
884.465	-38.74
884.637	-61.27
884.809	-8.02
884.98	22.7
885.152	24.75
885.324	-1.88
885.496	47.27
885.667	14.51
885.839	-1.88
886.011	53.42
886.182	51.37
886.354	-61.27
886.525	-44.88
886.697	-48.98
886.869	-48.98
887.04	53.42
887.212	24.75
887.383	-22.36
887.555	-38.74
887.726	20.65
887.897	6.31
888.069	-8.02
888.24	34.99
888.412	47.27
888.583	28.84
888.754	22.7
888.926	-26.45
889.097	-24.4
889.268	-46.93
889.44	84.14
889.611	-1.88
889.782	30.89
889.953	-77.65
890.125	59.56
890.296	2.22
890.467	4.27
890.638	51.37
890.809	14.51
890.98	-51.03
891.151	0.17
891.323	-1.88
891.494	47.27
891.665	-61.27
891.836	53.42
892.007	-65.36
892.178	-42.84
892.349	-1.88
892.52	-10.07
892.691	16.55
892.862	2.22
893.032	-53.08
893.203	-18.26
893.374	73.9
893.545	2.22
893.716	12.46
893.887	12.46
894.057	-77.65
894.228	30.89
894.399	32.94
894.57	59.56
894.74	45.23
894.911	-53.08
895.082	-18.26
895.253	61.61
895.423	-46.93
895.594	16.55
895.764	43.18
895.935	37.03
896.106	34.99
896.276	6.31
896.447	4.27
896.617	47.27
896.788	-8.02
896.958	20.65
897.129	10.41
897.299	-46.93
897.47	-42.84
897.64	82.09
897.81	20.65
897.981	39.08
898.151	-3.93
898.322	-34.64
898.492	26.79
898.662	10.41
898.832	12.46
899.003	-34.64
899.173	6.31
899.343	-55.12
899.513	-30.55
