Data from USB4F104151__69__11-37-31-708.txt Node

Date: Fri Mar 14 11:37:31 EDT 2025
User: louis
Spectrometer: USB4F10415
Trigger mode: 4
Integration Time (sec): 2.000000E-2
Scans to average: 1
Electric dark correction enabled: true
Nonlinearity correction enabled: false
Boxcar width: 0
XAxis mode: Wavelengths
Number of Pixels in Spectrum: 3648
>>>>>Begin Spectral Data<<<<<
178.204	-67.92
178.424	-67.92
178.644	-67.92
178.864	-51.54
179.084	-35.16
179.304	-65.88
179.524	3.75
179.744	38.57
179.964	54.95
180.184	-39.25
180.404	18.09
180.624	-12.63
180.844	-20.82
181.064	-6.49
181.283	-43.35
181.503	30.38
181.723	42.67
181.943	-31.06
182.163	34.47
182.383	1.71
182.602	65.19
182.822	50.86
183.042	1.71
183.262	26.28
183.482	65.19
183.701	26.28
183.921	7.85
184.141	1.71
184.361	91.82
184.58	26.28
184.8	71.34
185.02	-63.83
185.239	50.86
185.459	59.05
185.679	16.04
185.898	5.8
186.118	26.28
186.338	-6.49
186.557	38.57
186.777	42.67
186.997	36.52
187.216	-29.01
187.436	52.91
187.655	7.85
187.875	30.38
188.095	-16.73
188.314	63.15
188.534	34.47
188.753	-49.49
188.973	-16.73
189.192	24.23
189.412	-14.68
189.631	16.04
189.851	9.9
190.07	18.09
190.29	61.1
190.509	71.34
190.729	-10.58
190.948	42.67
191.168	42.67
191.387	-8.53
191.607	1.71
191.826	-6.49
192.045	40.62
192.265	42.67
192.484	59.05
192.704	38.57
192.923	-14.68
193.142	116.39
193.362	22.19
193.581	20.14
193.8	18.09
194.02	26.28
194.239	-33.11
194.458	-59.73
194.678	18.09
194.897	38.57
195.116	-26.96
195.335	42.67
195.555	-22.87
195.774	-37.2
195.993	42.67
196.212	-33.11
196.432	85.67
196.651	50.86
196.87	48.81
197.089	38.57
197.308	34.47
197.528	28.33
197.747	-6.49
197.966	59.05
198.185	18.09
198.404	-18.77
198.623	-29.01
198.842	28.33
199.062	16.04
199.281	7.85
199.5	-20.82
199.719	79.53
199.938	42.67
200.157	69.29
200.376	48.81
200.595	-0.34
200.814	-10.58
201.033	57
201.252	71.34
201.471	54.95
201.69	-14.68
201.909	-0.34
202.128	50.86
202.347	87.72
202.566	34.47
202.785	-31.06
203.004	-45.4
203.223	28.33
203.442	22.19
203.661	-10.58
203.879	-43.35
204.098	-2.39
204.317	-74.07
204.536	42.67
204.755	-26.96
204.974	18.09
205.193	1.71
205.411	87.72
205.63	54.95
205.849	34.47
206.068	26.28
206.287	-2.39
206.505	85.67
206.724	46.76
206.943	52.91
207.162	38.57
207.381	1.71
207.599	-4.44
207.818	40.62
208.037	20.14
208.255	-33.11
208.474	-33.11
208.693	52.91
208.911	32.43
209.13	16.04
209.349	102.06
209.567	67.24
209.786	44.71
210.005	9.9
210.223	-0.34
210.442	26.28
210.661	114.34
210.879	-10.58
211.098	-29.01
211.316	9.9
211.535	50.86
211.753	-6.49
211.972	38.57
212.191	67.24
212.409	20.14
212.628	34.47
212.846	-63.83
213.065	32.43
213.283	77.48
213.502	26.28
213.72	69.29
213.938	5.8
214.157	34.47
214.375	75.43
214.594	75.43
214.812	42.67
215.031	59.05
215.249	26.28
215.467	-2.39
215.686	16.04
215.904	61.1
216.122	-6.49
216.341	81.58
216.559	11.95
216.778	-14.68
216.996	-4.44
217.214	57
217.432	48.81
217.651	-39.25
217.869	28.33
218.087	26.28
218.306	-59.73
218.524	75.43
218.742	30.38
218.96	57
219.179	18.09
219.397	50.86
219.615	106.15
219.833	32.43
220.051	-24.92
220.27	5.8
220.488	46.76
220.706	79.53
220.924	-31.06
221.142	-20.82
221.36	-39.25
221.578	7.85
221.796	73.39
222.015	-43.35
222.233	-8.53
222.451	65.19
222.669	59.05
222.887	79.53
223.105	-4.44
223.323	-16.73
223.541	-37.2
223.759	22.19
223.977	52.91
224.195	104.11
224.413	-14.68
224.631	1.71
224.849	-47.44
225.067	52.91
225.285	-51.54
225.503	59.05
225.721	67.24
225.939	-29.01
226.157	67.24
226.375	3.75
226.592	32.43
226.81	32.43
227.028	83.63
227.246	97.96
227.464	73.39
227.682	91.82
227.9	59.05
228.117	-2.39
228.335	50.86
228.553	-10.58
228.771	63.15
228.989	57
229.206	-6.49
229.424	28.33
229.642	9.9
229.86	36.52
230.077	16.04
230.295	-67.92
230.513	11.95
230.731	24.23
230.948	91.82
231.166	114.34
231.384	93.87
231.601	30.38
231.819	18.09
232.037	-14.68
232.254	16.04
232.472	65.19
232.689	-18.77
232.907	108.2
233.125	32.43
233.342	34.47
233.56	-31.06
233.777	54.95
233.995	-4.44
234.213	50.86
234.43	7.85
234.648	65.19
234.865	65.19
235.083	130.73
235.3	-63.83
235.518	81.58
235.735	50.86
235.953	24.23
236.17	65.19
236.388	40.62
236.605	-35.16
236.822	16.04
237.04	-37.2
237.257	-16.73
237.475	13.99
237.692	42.67
237.909	81.58
238.127	11.95
238.344	1.71
238.562	116.39
238.779	52.91
238.996	-24.92
239.214	-14.68
239.431	42.67
239.648	63.15
239.865	32.43
240.083	40.62
240.3	32.43
240.517	46.76
240.735	28.33
240.952	48.81
241.169	16.04
241.386	7.85
241.603	1.71
241.821	26.28
242.038	32.43
242.255	7.85
242.472	-8.53
242.689	52.91
242.907	34.47
243.124	30.38
243.341	18.09
243.558	42.67
243.775	26.28
243.992	-8.53
244.209	-22.87
244.426	26.28
244.643	-31.06
244.86	50.86
245.078	24.23
245.295	-24.92
245.512	50.86
245.729	-47.44
245.946	-14.68
246.163	-31.06
246.38	22.19
246.597	24.23
246.814	40.62
247.031	32.43
247.248	57
247.464	1.71
247.681	59.05
247.898	-29.01
248.115	50.86
248.332	44.71
248.549	87.72
248.766	59.05
248.983	36.52
249.2	-24.92
249.417	59.05
249.633	-12.63
249.85	106.15
250.067	34.47
250.284	18.09
250.501	18.09
250.717	83.63
250.934	-8.53
251.151	13.99
251.368	77.48
251.585	91.82
251.801	46.76
252.018	13.99
252.235	28.33
252.451	28.33
252.668	-10.58
252.885	48.81
253.102	22.19
253.318	9.9
253.535	-39.25
253.752	18.09
253.968	-12.63
254.185	69.29
254.401	44.71
254.618	18.09
254.835	38.57
255.051	38.57
255.268	28.33
255.484	85.67
255.701	63.15
255.917	54.95
256.134	-18.77
256.351	-37.2
256.567	30.38
256.784	3.75
257	75.43
257.217	40.62
257.433	63.15
257.65	46.76
257.866	1.71
258.082	22.19
258.299	3.75
258.515	48.81
258.732	-6.49
258.948	18.09
259.165	91.82
259.381	48.81
259.597	18.09
259.814	-6.49
260.03	-29.01
260.246	18.09
260.463	50.86
260.679	57
260.895	77.48
261.112	112.3
261.328	34.47
261.544	-14.68
261.761	46.76
261.977	22.19
262.193	1.71
262.409	67.24
262.626	85.67
262.842	69.29
263.058	57
263.274	81.58
263.49	5.8
263.707	-10.58
263.923	28.33
264.139	87.72
264.355	1.71
264.571	36.52
264.787	-43.35
265.004	-2.39
265.22	30.38
265.436	3.75
265.652	59.05
265.868	79.53
266.084	11.95
266.3	59.05
266.516	46.76
266.732	38.57
266.948	34.47
267.164	11.95
267.38	20.14
267.596	73.39
267.812	116.39
268.028	81.58
268.244	7.85
268.46	73.39
268.676	-2.39
268.892	34.47
269.108	48.81
269.324	9.9
269.54	9.9
269.756	20.14
269.972	22.19
270.188	40.62
270.403	32.43
270.619	108.2
270.835	44.71
271.051	22.19
271.267	57
271.483	59.05
271.698	16.04
271.914	28.33
272.13	9.9
272.346	-6.49
272.562	73.39
272.777	48.81
272.993	50.86
273.209	46.76
273.425	-10.58
273.64	40.62
273.856	54.95
274.072	26.28
274.287	-74.07
274.503	77.48
274.719	38.57
274.934	26.28
275.15	24.23
275.366	48.81
275.581	11.95
275.797	67.24
276.012	38.57
276.228	26.28
276.444	-2.39
276.659	26.28
276.875	22.19
277.09	20.14
277.306	40.62
277.521	-0.34
277.737	22.19
277.952	67.24
278.168	38.57
278.383	71.34
278.599	59.05
278.814	5.8
279.03	57
279.245	-4.44
279.461	-29.01
279.676	32.43
279.892	91.82
280.107	28.33
280.322	-41.3
280.538	65.19
280.753	48.81
280.969	77.48
281.184	97.96
281.399	59.05
281.615	1.71
281.83	118.44
282.045	26.28
282.26	-82.26
282.476	34.47
282.691	65.19
282.906	-16.73
283.122	50.86
283.337	26.28
283.552	28.33
283.767	73.39
283.983	-26.96
284.198	1.71
284.413	50.86
284.628	34.47
284.843	67.24
285.058	24.23
285.274	20.14
285.489	7.85
285.704	22.19
285.919	28.33
286.134	112.3
286.349	26.28
286.564	-29.01
286.779	38.57
286.995	87.72
287.21	-22.87
287.425	75.43
287.64	32.43
287.855	67.24
288.07	-39.25
288.285	65.19
288.5	-8.53
288.715	34.47
288.93	32.43
289.145	44.71
289.36	83.63
289.575	52.91
289.79	36.52
290.004	59.05
290.219	16.04
290.434	34.47
290.649	28.33
290.864	46.76
291.079	-16.73
291.294	44.71
291.509	50.86
291.724	48.81
291.938	38.57
292.153	97.96
292.368	7.85
292.583	65.19
292.798	9.9
293.012	65.19
293.227	1.71
293.442	50.86
293.657	-2.39
293.871	-4.44
294.086	-26.96
294.301	104.11
294.516	65.19
294.73	28.33
294.945	77.48
295.16	16.04
295.374	42.67
295.589	42.67
295.804	1.71
296.018	-33.11
296.233	61.1
296.447	-2.39
296.662	-35.16
296.877	34.47
297.091	18.09
297.306	83.63
297.52	-20.82
297.735	-49.49
297.949	-2.39
298.164	46.76
298.378	38.57
298.593	9.9
298.807	24.23
299.022	34.47
299.236	71.34
299.451	77.48
299.665	22.19
299.88	-0.34
300.094	34.47
300.309	5.8
300.523	91.82
300.737	59.05
300.952	1.71
301.166	-4.44
301.381	7.85
301.595	7.85
301.809	-33.11
302.024	100.01
302.238	63.15
302.452	48.81
302.667	83.63
302.881	65.19
303.095	32.43
303.309	100.01
303.524	18.09
303.738	44.71
303.952	149.16
304.166	83.63
304.381	32.43
304.595	13.99
304.809	50.86
305.023	22.19
305.237	7.85
305.452	22.19
305.666	63.15
305.88	1.71
306.094	67.24
306.308	1.71
306.522	26.28
306.736	186.02
306.95	69.29
307.164	30.38
307.379	59.05
307.593	140.97
307.807	83.63
308.021	89.77
308.235	40.62
308.449	-6.49
308.663	9.9
308.877	61.1
309.091	42.67
309.305	65.19
309.519	-22.87
309.733	91.82
309.947	-47.44
310.161	26.28
310.374	22.19
310.588	42.67
310.802	7.85
311.016	26.28
311.23	-18.77
311.444	42.67
311.658	61.1
311.872	165.54
312.085	63.15
312.299	1.71
312.513	-18.77
312.727	73.39
312.941	-8.53
313.154	7.85
313.368	36.52
313.582	91.82
313.796	13.99
314.009	50.86
314.223	34.47
314.437	18.09
314.651	3.75
314.864	95.91
315.078	34.47
315.292	16.04
315.505	65.19
315.719	32.43
315.933	67.24
316.146	28.33
316.36	-24.92
316.573	30.38
316.787	13.99
317.001	167.59
317.214	13.99
317.428	1.71
317.641	59.05
317.855	57
318.068	114.34
318.282	93.87
318.495	122.54
318.709	9.9
318.922	24.23
319.136	7.85
319.349	38.57
319.563	122.54
319.776	16.04
319.99	5.8
320.203	-22.87
320.417	26.28
320.63	-31.06
320.843	128.68
321.057	30.38
321.27	9.9
321.483	28.33
321.697	69.29
321.91	32.43
322.124	48.81
322.337	110.25
322.55	-24.92
322.763	22.19
322.977	59.05
323.19	20.14
323.403	16.04
323.617	28.33
323.83	-14.68
324.043	13.99
324.256	38.57
324.469	44.71
324.683	132.78
324.896	-18.77
325.109	9.9
325.322	7.85
325.535	59.05
325.748	59.05
325.962	34.47
326.175	65.19
326.388	97.96
326.601	-8.53
326.814	93.87
327.027	32.43
327.24	9.9
327.453	38.57
327.666	130.73
327.879	30.38
328.092	40.62
328.305	24.23
328.518	-20.82
328.731	42.67
328.944	30.38
329.157	-6.49
329.37	32.43
329.583	79.53
329.796	116.39
330.009	-29.01
330.222	79.53
330.435	24.23
330.648	34.47
330.861	-20.82
331.073	11.95
331.286	54.95
331.499	9.9
331.712	30.38
331.925	34.47
332.138	28.33
332.35	50.86
332.563	11.95
332.776	59.05
332.989	30.38
333.202	97.96
333.414	22.19
333.627	40.62
333.84	-26.96
334.053	118.44
334.265	18.09
334.478	-14.68
334.691	-39.25
334.903	46.76
335.116	-14.68
335.329	42.67
335.541	32.43
335.754	122.54
335.966	24.23
336.179	32.43
336.392	16.04
336.604	-31.06
336.817	24.23
337.029	67.24
337.242	48.81
337.454	89.77
337.667	57
337.88	36.52
338.092	46.76
338.305	57
338.517	65.19
338.729	46.76
338.942	104.11
339.154	-45.4
339.367	9.9
339.579	54.95
339.792	13.99
340.004	81.58
340.217	38.57
340.429	89.77
340.641	97.96
340.854	36.52
341.066	65.19
341.278	128.68
341.491	106.15
341.703	44.71
341.915	18.09
342.128	38.57
342.34	26.28
342.552	32.43
342.764	-26.96
342.977	63.15
343.189	32.43
343.401	38.57
343.613	20.14
343.826	46.76
344.038	59.05
344.25	108.2
344.462	7.85
344.674	22.19
344.886	16.04
345.099	-10.58
345.311	132.78
345.523	42.67
345.735	20.14
345.947	34.47
346.159	-26.96
346.371	95.91
346.583	26.28
346.795	97.96
347.007	1.71
347.219	85.67
347.431	16.04
347.643	75.43
347.855	22.19
348.067	9.9
348.279	-10.58
348.491	26.28
348.703	28.33
348.915	13.99
349.127	28.33
349.339	42.67
349.551	18.09
349.763	1.71
349.975	3.75
350.187	85.67
350.399	108.2
350.61	50.86
350.822	9.9
351.034	52.91
351.246	59.05
351.458	67.24
351.669	32.43
351.881	50.86
352.093	20.14
352.305	140.97
352.517	-6.49
352.728	122.54
352.94	93.87
353.152	91.82
353.363	24.23
353.575	73.39
353.787	77.48
353.999	18.09
354.21	93.87
354.422	9.9
354.633	24.23
354.845	20.14
355.057	-12.63
355.268	20.14
355.48	91.82
355.692	-22.87
355.903	7.85
356.115	108.2
356.326	18.09
356.538	75.43
356.749	81.58
356.961	91.82
357.172	57
357.384	-14.68
357.595	100.01
357.807	-20.82
358.018	32.43
358.23	59.05
358.441	106.15
358.653	44.71
358.864	71.34
359.075	57
359.287	75.43
359.498	97.96
359.709	67.24
359.921	85.67
360.132	26.28
360.344	-26.96
360.555	46.76
360.766	1.71
360.977	9.9
361.189	110.25
361.4	-16.73
361.611	61.1
361.823	54.95
362.034	-6.49
362.245	5.8
362.456	61.1
362.667	40.62
362.879	-65.88
363.09	102.06
363.301	9.9
363.512	93.87
363.723	20.14
363.935	75.43
364.146	28.33
364.357	54.95
364.568	57
364.779	-6.49
364.99	-0.34
365.201	59.05
365.412	67.24
365.623	13.99
365.834	69.29
366.045	11.95
366.256	59.05
366.467	52.91
366.678	24.23
366.889	73.39
367.1	34.47
367.311	108.2
367.522	91.82
367.733	89.77
367.944	61.1
368.155	114.34
368.366	124.58
368.577	73.39
368.788	93.87
368.999	18.09
369.209	18.09
369.42	46.76
369.631	134.82
369.842	71.34
370.053	57
370.264	-22.87
370.474	40.62
370.685	46.76
370.896	100.01
371.107	-6.49
371.317	79.53
371.528	32.43
371.739	118.44
371.95	-18.77
372.16	46.76
372.371	93.87
372.582	61.1
372.792	61.1
373.003	106.15
373.214	38.57
373.424	42.67
373.635	95.91
373.846	59.05
374.056	-14.68
374.267	79.53
374.477	16.04
374.688	120.49
374.898	-26.96
375.109	34.47
375.319	91.82
375.53	46.76
375.74	57
375.951	34.47
376.161	-8.53
376.372	93.87
376.582	1.71
376.793	67.24
377.003	-65.88
377.214	71.34
377.424	36.52
377.635	22.19
377.845	42.67
378.055	65.19
378.266	95.91
378.476	63.15
378.686	136.87
378.897	9.9
379.107	40.62
379.317	122.54
379.528	46.76
379.738	-18.77
379.948	102.06
380.158	79.53
380.369	81.58
380.579	38.57
380.789	93.87
380.999	38.57
381.21	54.95
381.42	42.67
381.63	151.21
381.84	91.82
382.05	59.05
382.261	177.83
382.471	5.8
382.681	36.52
382.891	104.11
383.101	87.72
383.311	52.91
383.521	85.67
383.731	46.76
383.941	93.87
384.151	-20.82
384.361	59.05
384.571	67.24
384.781	120.49
384.991	67.24
385.201	85.67
385.411	5.8
385.621	91.82
385.831	97.96
386.041	79.53
386.251	138.92
386.461	120.49
386.671	50.86
386.881	67.24
387.091	100.01
387.301	32.43
387.511	5.8
387.72	30.38
387.93	38.57
388.14	57
388.35	59.05
388.56	87.72
388.769	40.62
388.979	-2.39
389.189	-82.26
389.399	71.34
389.609	63.15
389.818	108.2
390.028	114.34
390.238	65.19
390.447	132.78
390.657	161.45
390.867	120.49
391.076	48.81
391.286	30.38
391.496	102.06
391.705	38.57
391.915	95.91
392.125	73.39
392.334	114.34
392.544	128.68
392.753	87.72
392.963	59.05
393.172	132.78
393.382	128.68
393.591	100.01
393.801	-8.53
394.01	100.01
394.22	57
394.429	114.34
394.639	108.2
394.848	81.58
395.058	54.95
395.267	34.47
395.477	108.2
395.686	132.78
395.895	120.49
396.105	116.39
396.314	120.49
396.524	130.73
396.733	122.54
396.942	57
397.152	173.74
397.361	75.43
397.57	65.19
397.78	163.5
397.989	122.54
398.198	186.02
398.407	91.82
398.617	93.87
398.826	153.26
399.035	81.58
399.244	122.54
399.453	104.11
399.663	114.34
399.872	222.89
400.081	175.78
400.29	106.15
400.499	79.53
400.708	181.93
400.917	40.62
401.127	124.58
401.336	159.4
401.545	151.21
401.754	163.5
401.963	226.98
402.172	198.31
402.381	188.07
402.59	149.16
402.799	128.68
403.008	140.97
403.217	210.6
403.426	183.98
403.635	167.59
403.844	190.12
404.053	196.26
404.262	116.39
404.471	149.16
404.68	159.4
404.888	155.3
405.097	165.54
405.306	179.88
405.515	278.18
405.724	147.11
405.933	233.13
406.142	263.85
406.35	239.27
406.559	186.02
406.768	128.68
406.977	245.41
407.185	267.94
407.394	308.9
407.603	220.84
407.812	292.52
408.02	253.61
408.229	274.09
408.438	304.81
408.646	272.04
408.855	229.03
409.064	288.42
409.272	337.57
409.481	407.2
409.69	392.87
409.898	374.44
410.107	421.54
410.315	386.72
410.524	390.82
410.733	442.02
410.941	456.36
411.15	542.37
411.358	482.98
411.567	525.99
411.775	448.16
411.984	478.88
412.192	566.95
412.401	538.27
412.609	583.33
412.818	616.1
413.026	681.63
413.234	695.97
413.443	722.59
413.651	665.25
413.86	747.17
414.068	765.6
414.276	835.23
414.485	757.41
414.693	822.94
414.901	878.24
415.11	886.43
415.318	900.76
415.526	884.38
415.734	997.02
415.943	1029.79
416.151	1083.03
416.359	1007.26
416.567	1097.37
416.776	1210.01
416.984	1220.25
417.192	1244.82
417.4	1171.1
417.608	1302.17
417.817	1373.85
418.025	1414.81
418.233	1513.11
418.441	1480.34
418.649	1601.17
418.857	1668.75
419.065	1580.69
419.273	1676.95
419.481	1783.44
419.689	1713.81
419.897	1871.5
420.105	2031.24
420.313	1924.75
420.521	2107.02
420.729	2029.2
420.937	2141.83
421.145	2207.37
421.353	2352.77
421.561	2516.61
421.769	2559.62
421.977	2590.34
422.185	2639.49
422.393	2659.97
422.601	2952.83
422.809	2889.34
423.017	2905.73
423.224	3079.8
423.432	3139.19
423.64	3229.31
423.848	3473.01
424.056	3409.53
424.263	3649.14
424.471	3645.04
424.679	3630.71
424.887	3995.25
425.094	4001.39
425.302	4079.21
425.51	4118.12
425.718	4255.34
425.925	4392.55
426.133	4658.79
426.341	4765.28
426.548	4984.41
426.756	5035.61
426.964	5125.72
427.171	5359.19
427.379	5533.27
427.586	5422.68
427.794	5641.81
428.001	6020.69
428.209	6174.28
428.417	6186.57
428.624	6567.49
428.832	6727.24
429.039	6606.41
429.247	6741.57
429.454	7237.18
429.662	7671.35
429.869	7269.95
430.076	7857.71
430.284	7583.29
430.491	7880.24
430.699	8189.49
430.906	8386.09
431.114	8488.49
431.321	8717.86
431.528	8922.66
431.736	9545.24
431.943	9811.48
432.15	9573.91
432.358	9883.16
432.565	10157.58
432.772	10102.29
432.979	10837.51
433.187	10855.94
433.394	10991.11
433.601	11718.14
433.808	11798.01
434.016	11580.92
434.223	12412.4
434.43	12862.95
434.637	12588.52
434.844	13270.5
435.052	13649.37
435.259	13739.48
435.466	13811.16
435.673	13573.6
435.88	14595.53
436.087	15418.82
436.294	15412.67
436.501	15173.06
436.708	15312.32
436.915	15457.73
437.122	16428.46
437.329	16645.55
437.537	16885.16
437.743	17001.9
437.95	16967.08
438.157	17903
438.364	18408.85
438.571	18539.92
438.778	18455.95
438.985	20288.89
439.192	19643.77
439.399	20120.95
439.606	19590.53
439.813	20870.51
440.02	21966.17
440.227	21882.2
440.433	21624.16
440.64	22232.41
440.847	22066.52
441.054	22721.87
441.261	24223.03
441.467	23778.62
441.674	24491.32
441.881	25058.6
442.088	25011.5
442.294	24892.72
442.501	25681.19
442.708	25996.57
442.914	27178.25
443.121	28079.36
443.328	27673.86
443.534	28980.46
443.741	28630.26
443.948	28022.02
444.154	30338.27
444.361	30299.36
444.568	30393.56
444.774	30098.66
444.981	30502.11
445.187	31382.73
445.394	32650.42
445.6	32068.8
445.807	35038.36
446.013	33868.97
446.22	34731.16
446.426	36332.67
446.633	36203.65
446.839	37516.4
447.046	35687.56
447.252	37620.84
447.459	37960.81
447.665	37715.05
447.871	39638.09
448.078	40948.79
448.284	39076.95
448.491	39933
448.697	41655.34
448.903	42693.66
449.11	42353.7
449.316	41657.39
449.522	42863.64
449.728	43631.63
449.935	43789.33
450.141	43748.37
450.347	44919.81
450.553	43224.09
450.76	44018.7
450.966	45437.94
451.172	45005.82
451.378	46318.57
451.584	44923.9
451.791	46214.12
451.997	45816.82
452.203	47053.79
452.409	46762.98
452.615	46754.79
452.821	44811.26
453.027	44686.34
453.233	46937.05
453.44	44786.69
453.646	45317.11
453.852	45685.75
454.058	46134.25
454.264	44786.69
454.47	45816.82
454.676	44743.68
454.882	46386.15
455.088	42325.03
455.294	43109.4
455.5	43580.43
455.705	44137.48
455.911	42417.19
456.117	41491.51
456.323	40750.14
456.529	38626.4
456.735	40610.88
456.941	39466.06
457.147	39095.38
457.352	37532.78
457.558	37092.47
457.764	37176.44
457.97	36297.86
458.176	35759.24
458.381	35839.11
458.587	33809.57
458.793	34239.65
458.999	32120
459.204	34870.42
459.41	33328.3
459.616	31184.08
459.821	31614.15
460.027	31495.37
460.233	30399.71
460.438	29236.46
460.644	29437.16
460.85	28443.9
461.055	27702.53
461.261	27778.31
461.466	25701.67
461.672	24876.34
461.878	26565.91
462.083	25003.31
462.289	24505.65
462.494	24331.58
462.7	23108.94
462.905	22515.03
463.111	23287.11
463.316	23416.13
463.522	22934.86
463.727	22775.12
463.932	22842.7
464.138	22596.95
464.343	22746.45
464.549	22134.1
464.754	22916.43
464.959	22648.15
465.165	22142.3
465.37	21321.06
465.575	20919.66
465.781	21945.69
465.986	21851.49
466.191	21153.13
466.397	20854.12
466.602	19316.1
466.807	20411.76
467.012	20231.54
467.218	20235.64
467.423	20041.08
467.628	20168.05
467.833	21269.86
468.038	20186.49
468.244	19864.96
468.449	20481.39
468.654	19811.71
468.859	19668.35
469.064	19500.42
469.269	18611.6
469.474	18908.55
469.679	19076.49
469.885	18795.92
470.09	19105.16
470.295	18976.14
470.5	18144.66
470.705	18662.8
470.91	18130.33
471.115	17831.32
471.32	18269.59
471.525	18036.12
471.73	17468.83
471.935	17427.87
472.139	16928.17
472.344	17292.71
472.549	17180.07
472.754	16819.63
472.959	16508.33
473.164	16205.24
473.369	16078.26
473.574	16481.71
473.778	16369.07
473.983	16225.72
474.188	16151.99
474.393	15496.64
474.598	15576.51
474.802	15246.79
475.007	15209.92
475.212	15111.62
475.417	14570.96
475.621	14765.51
475.826	14917.06
476.031	14446.03
476.235	14185.94
476.44	14312.91
476.645	14290.38
476.849	14140.88
477.054	13938.13
477.259	13721.05
477.463	13596.12
477.668	13141.47
477.872	13653.47
478.077	13397.47
478.282	13290.98
478.486	12758.5
478.691	12836.33
478.895	13051.36
479.1	12799.46
479.304	12887.53
479.509	12641.77
479.713	12715.5
479.918	12113.39
480.122	12248.56
480.326	12252.66
480.531	12510.7
480.735	12011
480.94	11965.94
481.144	12412.4
481.348	11888.12
481.553	11838.97
481.757	11881.97
481.961	11910.64
482.166	11931.12
482.37	11941.36
482.574	11638.27
482.778	11955.7
482.983	12109.3
483.187	11992.56
483.391	11904.5
483.595	11820.53
483.8	11521.53
484.004	11933.17
484.208	11916.79
484.412	11732.47
484.616	11638.27
484.821	11646.46
485.025	11597.31
485.229	11703.8
485.433	11773.43
485.637	11830.77
485.841	11597.31
486.045	11683.32
486.249	11732.47
486.453	11597.31
486.657	11820.53
486.861	11783.67
487.065	11468.28
487.269	11662.84
487.473	11566.59
487.677	11701.75
487.881	11826.68
488.085	11611.64
488.289	11683.32
488.493	11703.8
488.697	11820.53
488.901	11793.91
489.105	11650.55
489.309	11863.54
489.512	11771.38
489.716	11951.6
489.92	11861.49
490.124	11699.7
490.328	12094.96
490.531	11668.98
490.735	12142.07
490.939	11961.84
491.143	11843.06
491.346	12152.31
491.55	12158.45
491.754	12316.14
491.958	12211.7
492.161	12457.45
492.365	12377.58
492.569	12240.37
492.772	12469.74
492.976	12637.67
493.18	12559.85
493.383	12774.89
493.587	12809.7
493.79	13039.08
493.994	12725.74
494.197	12905.96
494.401	13055.46
494.605	12752.36
494.808	13151.71
495.012	13385.18
495.215	13219.3
495.419	13239.78
495.622	13417.95
495.825	13454.81
496.029	13581.79
496.232	13948.37
496.436	13637.08
496.639	14157.27
496.843	13884.89
497.046	14306.77
497.249	14509.52
497.453	14443.98
497.656	14515.66
497.859	14853.58
498.063	14626.25
498.266	15146.44
498.469	15089.09
498.673	15431.1
498.876	15619.52
499.079	15803.83
499.282	15572.41
499.485	16151.99
499.689	15941.05
499.892	16207.28
500.095	16149.94
500.298	16711.08
500.501	16573.87
500.705	17092.01
500.908	17118.63
501.111	17335.71
501.314	17360.29
501.517	17661.34
501.72	17859.99
501.923	17870.23
502.126	18097.56
502.329	18267.54
502.532	18736.52
502.735	18818.44
502.938	19314.05
503.141	18881.93
503.344	19246.47
503.547	19641.73
503.75	19795.32
503.953	20188.53
504.156	20086.14
504.359	20379
504.562	20573.55
504.765	20819.31
504.968	21017.96
505.17	21566.82
505.373	21198.18
505.576	21605.73
505.779	21896.54
505.982	22041.95
506.185	22297.94
506.387	22635.86
506.59	22818.13
506.793	23053.64
506.996	23106.89
507.198	23850.3
507.401	23283.02
507.604	23864.64
507.807	24206.65
508.009	24331.58
508.212	24259.9
508.415	24956.21
508.617	25126.19
508.82	25009.45
509.022	25265.45
509.225	25799.97
509.428	26086.68
509.63	26117.4
509.833	26139.93
510.035	26715.41
510.238	26737.94
510.44	27045.13
510.643	27534.6
510.845	27481.35
511.048	27755.78
511.25	28134.65
511.453	27821.31
511.655	28976.37
511.858	28837.11
512.06	29115.63
512.262	29482.22
512.465	29134.06
512.667	29584.62
512.87	29781.22
513.072	30026.98
513.274	30663.89
513.477	30866.64
513.679	31073.49
513.881	31458.51
514.084	31968.45
514.286	31610.06
514.488	31839.43
514.69	32574.65
514.893	32627.9
515.095	33092.79
515.297	32984.24
515.499	33301.68
515.701	33572.01
515.904	34213.02
516.106	33832.1
516.308	34559.13
516.51	34768.02
516.712	34919.57
516.914	35415.18
517.116	35945.61
517.318	35959.94
517.52	36039.81
517.722	35828.87
517.925	36672.64
518.127	36785.27
518.329	36981.88
518.531	36830.33
518.733	37614.7
518.935	38038.63
519.136	37944.42
519.338	38610.01
519.54	38610.01
519.742	39312.47
519.944	39210.07
520.146	39824.46
520.348	39791.69
520.55	39803.98
520.752	39865.42
520.954	40588.35
521.155	40424.51
521.357	40815.68
521.559	41368.63
521.761	41903.15
521.963	41722.93
522.164	41241.65
522.366	41966.63
522.568	42234.92
522.77	42478.63
522.971	43205.66
523.173	43017.24
523.375	43121.69
523.576	43322.39
523.778	43244.57
523.98	43832.33
524.181	43756.56
524.383	43938.83
524.584	44837.89
524.786	44753.92
524.988	44516.36
525.189	45059.07
525.391	44790.78
525.592	45825.01
525.794	45382.65
525.995	45233.14
526.197	45636.59
526.398	45773.81
526.6	45939.69
526.801	45894.64
527.003	45808.62
527.204	46328.81
527.406	46683.11
527.607	46648.29
527.808	46740.45
528.01	46177.26
528.211	46885.86
528.412	47477.72
528.614	47123.42
528.815	47076.32
529.016	47639.51
529.218	47303.64
529.419	47565.78
529.62	47492.05
529.822	47346.65
530.023	47700.95
530.224	47709.14
530.425	47645.65
530.626	47297.5
530.828	47651.8
531.029	48452.55
531.23	47768.53
531.431	47750.1
531.632	48053.2
531.833	48133.07
532.035	48249.8
532.236	48368.58
532.437	48313.29
532.638	48067.53
532.839	48806.85
533.04	48563.14
533.241	47934.42
533.442	48610.24
533.643	48559.05
533.844	48438.22
534.045	48896.96
534.246	48128.97
534.447	48583.62
534.648	48409.54
534.849	48612.29
535.05	47965.13
535.251	48638.92
535.451	48352.2
535.652	48583.62
535.853	48380.87
536.054	48997.31
536.255	48737.22
536.456	48417.74
536.657	48853.95
536.857	48503.75
537.058	48229.32
537.259	48794.56
537.46	48577.48
537.66	48411.59
537.861	48892.86
538.062	48434.12
538.263	48856
538.463	48229.32
538.664	48085.96
538.865	48716.74
539.065	48591.81
539.266	48319.43
539.466	48798.66
539.667	48370.63
539.868	49011.65
540.068	48270.28
540.269	48190.41
540.469	48696.26
540.67	48395.21
540.87	48184.27
541.071	48235.47
541.271	48249.8
541.472	48450.5
541.672	47797.2
541.873	47846.35
542.073	47391.7
542.274	48864.19
542.474	48370.63
542.675	48194.51
542.875	48729.03
543.075	48141.26
543.276	47750.1
543.476	48360.39
543.676	47795.15
543.877	47928.27
544.077	48192.46
544.277	47907.79
544.478	47795.15
544.678	48042.96
544.878	47854.54
545.078	48403.4
545.279	47936.46
545.479	48227.27
545.679	48169.93
545.879	48063.44
546.079	47762.39
546.28	47893.46
546.48	47668.18
546.68	47950.8
546.88	48032.72
547.08	47807.44
547.28	47997.9
547.48	47576.02
547.68	47895.5
547.88	47344.6
548.081	48042.96
548.281	47750.1
548.481	47657.94
548.681	48174.03
548.881	47805.39
549.081	47545.3
549.28	47348.7
549.48	48167.88
549.68	47862.74
549.88	47977.42
550.08	47520.73
550.28	47430.61
550.48	47397.85
550.68	47799.25
550.88	47455.19
551.08	47614.93
551.279	47635.41
551.479	46943.2
551.679	47387.61
551.879	47256.54
552.079	47813.59
552.278	47285.21
552.478	47324.12
552.678	47461.33
552.878	47688.66
553.077	47688.66
553.277	46900.19
553.477	47533.01
553.676	47283.16
553.876	47033.31
554.076	47217.63
554.275	46840.8
554.475	46814.18
554.674	47145.95
554.874	46935.01
555.074	46779.36
555.273	47201.24
555.473	47547.35
555.672	46848.99
555.872	46775.26
556.071	47186.91
556.271	47059.93
556.47	46150.63
556.67	46461.93
556.869	46910.43
557.068	46754.79
557.268	46468.07
557.467	46410.73
557.667	46552.04
557.866	46943.2
558.065	46496.74
558.265	46642.15
558.464	46275.56
558.663	46750.69
558.863	45833.2
559.062	46728.16
559.261	45802.48
559.461	46324.71
559.66	45573.11
559.859	45888.49
560.058	45810.67
560.258	45986.8
560.457	45577.2
560.656	45906.93
560.855	45822.96
561.054	45825.01
561.253	45491.19
561.453	46269.42
561.652	45806.58
561.851	45659.12
562.05	45552.63
562.249	45616.11
562.448	45382.65
562.647	45538.29
562.846	45085.69
563.045	45431.8
563.244	44391.43
563.443	45388.79
563.642	44669.95
563.841	45046.78
564.04	44891.13
564.239	45362.17
564.438	44612.61
564.637	44846.08
564.836	44608.51
565.035	44448.77
565.234	44450.82
565.432	44659.71
565.631	44182.54
565.83	44311.56
566.029	44018.7
566.228	44110.86
566.427	43881.49
566.625	43979.79
566.824	43490.32
567.023	44096.52
567.222	43299.86
567.42	44008.46
567.619	43770.89
567.818	43432.98
568.016	43121.69
568.215	43568.15
568.414	43303.96
568.612	43494.42
568.811	43471.89
569.01	43224.09
569.208	43058.2
569.407	43283.48
569.605	42902.56
569.804	43027.48
570.002	42552.35
570.201	43090.97
570.4	42609.7
570.598	42224.68
570.797	42320.93
570.995	42327.08
571.193	42161.19
571.392	43045.91
571.59	42376.23
571.789	42454.05
571.987	42273.83
572.186	41993.26
572.384	42050.6
572.582	42032.17
572.781	42243.11
572.979	41294.9
573.177	41743.41
573.376	41866.28
573.574	40868.92
573.772	41604.14
573.971	40887.35
574.169	41002.04
574.367	40393.79
574.565	41047.1
574.763	40940.6
574.962	40776.76
575.16	40430.66
575.358	40696.89
575.556	40512.58
575.754	41172.02
575.952	40283.2
576.151	40318.02
576.349	40070.22
576.547	40152.13
576.745	40281.16
576.943	39939.15
577.141	40004.68
577.339	39844.94
577.537	39613.52
577.735	39554.13
577.933	39398.48
578.131	39660.62
578.329	39670.86
578.527	39294.04
578.725	39208.02
578.923	39400.53
579.121	38786.14
579.319	39175.25
579.516	39009.37
579.714	38917.21
579.912	38706.27
580.11	38685.79
580.308	38612.06
580.506	38519.9
580.704	38132.84
580.901	38732.89
581.099	38362.21
581.297	38100.07
581.495	37893.22
581.692	38268
581.89	37708.91
582.088	37887.08
582.285	37739.63
582.483	37958.76
582.681	37639.28
582.878	37608.56
583.076	37303.41
583.274	37522.54
583.471	36750.46
583.669	37047.41
583.866	37031.03
584.064	37252.21
584.262	36893.82
584.459	36838.52
584.657	36643.96
584.854	36846.71
585.052	36056.2
585.249	36580.48
585.447	36504.7
585.644	35988.61
585.841	36136.07
586.039	36359.3
586.236	35847.3
586.434	35890.31
586.631	35632.27
586.828	35632.27
587.026	36045.96
587.223	35607.69
587.42	35359.89
587.618	35325.07
587.815	34831.51
588.012	35284.11
588.21	34729.11
588.407	35212.43
588.604	34624.67
588.801	34673.82
588.999	34684.06
589.196	34575.52
589.393	34552.99
589.59	34610.33
589.787	34057.38
589.984	34438.3
590.182	33995.94
590.379	34260.13
590.576	33873.06
590.773	34122.91
590.97	33844.39
591.167	33711.27
591.364	33248.43
591.561	33928.36
591.758	33283.25
591.955	33418.41
592.152	33344.69
592.349	33107.12
592.546	33311.92
592.743	33230
592.94	32312.51
593.137	32838.84
593.334	33019.06
593.531	32255.17
593.727	32781.49
593.924	32738.49
594.121	32341.18
594.318	32251.07
594.515	32013.51
594.712	32255.17
594.908	31876.29
595.105	32183.49
595.302	31743.17
595.499	31941.83
595.696	31835.33
595.892	31603.91
596.089	31589.58
596.286	31495.37
596.482	31112.4
596.679	31032.53
596.876	31403.21
597.072	31165.65
597.269	31065.3
597.466	30684.37
597.662	30915.79
597.859	30899.41
598.055	30489.82
598.252	30502.11
598.448	30608.6
598.645	30121.18
598.841	29949.15
599.038	30387.42
599.234	30309.6
599.431	29867.23
599.627	30057.7
599.824	30094.56
600.02	29652.2
600.217	29998.3
600.413	29986.02
600.609	29164.78
600.806	29349.1
601.002	29478.12
601.198	29590.76
601.395	29291.76
601.591	29158.64
601.787	29046
601.984	28849.39
602.18	29027.57
602.376	28462.33
602.572	28503.29
602.769	28724.47
602.965	28046.59
603.161	28478.71
603.357	28206.33
603.553	27784.45
603.75	28323.07
603.946	28056.83
604.142	28415.23
604.338	27708.68
604.534	28073.21
604.73	27536.65
604.926	27655.43
605.122	27909.38
605.318	27419.91
605.514	27768.07
605.71	27399.43
605.906	27147.53
606.102	27217.16
606.298	27133.2
606.494	27165.96
606.69	27022.61
606.886	27192.59
607.082	26400.02
607.278	27012.37
607.474	26594.58
607.67	26772.75
607.866	26166.56
608.062	26674.45
608.257	26354.97
608.453	26570.01
608.649	26324.25
608.845	26193.18
609.041	26373.4
609.236	26250.52
609.432	26232.09
609.628	26215.71
609.824	26111.26
610.019	25724.19
610.215	25955.61
610.411	25863.46
610.606	26141.98
610.802	26103.07
610.998	25869.6
611.193	25838.88
611.389	25834.78
611.584	25652.52
611.78	25589.03
611.976	25582.88
612.171	25425.19
612.367	25476.39
612.562	25505.06
612.758	25134.38
612.953	25148.71
613.149	25365.8
613.344	24958.25
613.539	25861.41
613.735	25234.73
613.93	25210.15
614.126	24876.34
614.321	25269.55
614.517	25089.32
614.712	24673.59
614.907	25113.9
615.103	25091.37
615.298	24829.23
615.493	24743.22
615.688	24515.89
615.884	25087.28
616.079	24687.92
616.274	24606
616.47	24804.66
616.665	24347.96
616.86	24542.52
617.055	24366.39
617.25	24401.21
617.445	24491.32
617.641	24134.97
617.836	24587.57
618.031	23741.76
618.226	24051
618.421	23811.39
618.616	24069.44
618.811	23768.38
619.006	24003.9
619.201	23463.24
619.396	23719.23
619.591	23188.81
619.786	23534.92
619.981	23332.17
620.176	23258.44
620.371	23018.83
620.566	23276.87
620.761	22951.24
620.956	23203.14
621.151	22785.36
621.346	22875.47
621.541	22435.16
621.735	22553.94
621.93	22256.98
622.125	22343
622.32	21771.61
622.515	22070.62
622.709	22011.23
622.904	22261.08
623.099	21726.56
623.294	21544.29
623.488	21310.82
623.683	21499.23
623.878	21030.25
624.072	21226.85
624.267	21110.12
624.462	20815.21
624.656	20913.52
624.851	20829.55
625.046	20702.57
625.24	20477.3
625.435	20614.51
625.629	20403.57
625.824	19971.45
626.018	20385.14
626.213	19826.04
626.407	19875.2
626.602	19359.11
626.796	19742.08
626.991	19742.08
627.185	19490.18
627.38	19094.92
627.574	19156.36
627.768	18926.99
627.963	19086.73
628.157	18789.77
628.352	18730.38
628.546	18636.17
628.74	18384.27
628.935	18357.65
629.129	18670.99
629.323	18142.61
629.517	18249.11
629.712	18103.7
629.906	18095.51
630.1	17937.82
630.294	17890.71
630.489	17778.08
630.683	17868.19
630.877	17685.92
631.071	17237.41
631.265	17618.33
631.459	17384.87
631.653	17208.74
631.848	17149.35
632.042	17092.01
632.236	17104.29
632.43	16817.58
632.624	17040.81
632.818	16663.98
633.012	16659.88
633.206	16680.36
633.4	16438.7
633.594	16154.04
633.788	16571.82
633.982	16344.5
634.176	16113.08
634.369	15867.32
634.563	15754.68
634.757	15807.93
634.951	15982.01
635.145	15793.59
635.339	15783.35
635.533	15705.53
635.726	15545.79
635.92	15547.84
636.114	15375.81
636.308	15115.72
636.501	15447.49
636.695	14839.24
636.889	15029.7
637.083	14912.97
637.276	14904.78
637.47	15189.44
637.664	14575.05
637.857	14587.34
638.051	14740.94
638.244	14605.77
638.438	14484.94
638.632	14314.96
638.825	14132.69
639.019	14271.95
639.212	14040.53
639.406	14038.48
639.599	13706.71
639.793	14132.69
639.986	13653.47
640.18	13927.89
640.373	13665.75
640.567	13467.1
640.76	13524.44
640.954	13282.78
641.147	13366.75
641.34	13268.45
641.534	13194.72
641.727	13018.6
641.92	13266.4
642.114	13012.45
642.307	13280.74
642.5	12797.42
642.694	12756.46
642.887	12846.57
643.08	12830.18
643.273	12654.06
643.467	12770.79
643.66	12516.84
643.853	12393.97
644.046	12404.21
644.239	12451.31
644.432	12379.63
644.626	12316.14
644.819	12172.78
645.012	12119.54
645.205	12078.58
645.398	12064.24
645.591	11865.59
645.784	11961.84
645.977	11863.54
646.17	11716.09
646.363	11552.25
646.556	11566.59
646.749	11478.52
646.942	11441.66
647.135	11435.52
647.328	11202.05
647.521	11159.04
647.714	11050.5
647.907	11240.96
648.099	11175.42
648.292	11341.31
648.485	10911.24
648.678	10911.24
648.871	10786.31
649.064	10993.15
649.256	10841.61
649.449	10675.72
649.642	10681.86
649.835	10591.75
650.027	10397.2
650.22	10456.59
650.413	10323.47
650.605	10223.12
650.798	10280.46
650.991	10364.43
651.183	10313.23
651.376	10305.04
651.568	10130.96
651.761	10262.03
651.954	9850.39
652.146	10061.33
652.339	9991.7
652.531	9901.59
652.724	9797.14
652.916	9901.59
653.109	9627.16
653.301	9709.08
653.494	9602.58
653.686	9537.05
653.879	9618.97
654.071	9356.83
654.263	9446.94
654.456	9451.03
654.648	9514.52
654.84	9309.72
655.033	9106.98
655.225	9117.22
655.417	8984.1
655.61	9139.74
655.802	8893.99
655.994	8877.6
656.186	8939.04
656.379	8930.85
656.571	8836.64
656.763	8594.98
656.955	8840.74
657.148	8801.83
657.34	8975.91
657.532	8468.01
657.724	8646.18
657.916	8398.38
658.108	8427.05
658.3	8568.36
658.492	8441.39
658.684	8322.6
658.876	8246.83
659.068	8156.72
659.26	8226.35
659.452	8134.19
659.644	8023.6
659.836	8152.62
660.028	8228.4
660.22	8058.42
660.412	8099.38
660.604	8052.27
660.796	7913.01
660.988	7775.8
661.18	7716.4
661.372	7673.4
661.563	7679.54
661.755	7738.93
661.947	7675.45
662.139	7544.38
662.331	7386.68
662.522	7452.22
662.714	7472.7
662.906	7327.29
663.097	7341.63
663.289	7413.31
663.481	7398.97
663.673	7325.24
663.864	7208.51
664.056	7161.41
664.247	7214.65
664.439	6934.08
664.631	7126.59
664.822	7120.45
665.014	6911.55
665.205	6915.65
665.397	7028.29
665.588	6999.62
665.78	6782.53
665.971	6817.35
666.163	6751.81
666.354	6796.87
666.546	6760
666.737	6630.98
666.929	6897.22
667.12	6571.59
667.311	6542.92
667.503	6475.34
667.694	6602.31
667.885	6475.34
668.077	6610.5
668.268	6557.25
668.459	6360.65
668.651	6344.27
668.842	6264.4
669.033	6334.03
669.224	6266.44
669.416	6133.33
669.607	6245.96
669.798	6245.96
669.989	6241.87
670.18	6129.23
670.371	6223.44
670.563	5998.16
670.754	6174.28
670.945	6075.98
671.136	6002.26
671.327	5971.54
671.518	6098.51
671.709	5992.02
671.9	5918.29
672.091	6039.12
672.282	5949.01
672.473	5774.93
672.664	5799.51
672.855	5781.07
673.046	5848.66
673.237	5742.16
673.428	5645.91
673.619	5920.34
673.809	5533.27
674	5484.12
674.191	5492.31
674.382	5635.67
674.573	5434.97
674.764	5570.13
674.954	5506.65
675.145	5625.43
675.336	5594.71
675.527	5453.4
675.717	5471.83
675.908	5236.31
676.099	5539.41
676.289	5326.43
676.48	5291.61
676.671	5320.28
676.861	5312.09
677.052	5320.28
677.243	5142.11
677.433	5181.02
677.624	5095
677.814	5285.47
678.005	5144.16
678.195	5181.02
678.386	5166.68
678.576	5185.12
678.767	5224.03
678.957	5193.31
679.148	5064.29
679.338	4998.75
679.529	5054.05
679.719	5039.71
679.909	5035.61
680.1	4869.73
680.29	5084.77
680.481	5054.05
680.671	5095
680.861	4912.74
681.052	4908.64
681.242	4886.11
681.432	4963.93
681.622	4865.63
681.813	4859.49
682.003	4914.78
682.193	4902.5
682.383	4771.43
682.573	4685.41
682.764	4687.46
682.954	4744.8
683.144	4734.56
683.334	4699.75
683.524	4601.44
683.714	4626.02
683.904	4576.87
684.094	4701.79
684.284	4689.51
684.474	4585.06
684.664	4458.09
684.854	4585.06
685.044	4574.82
685.234	4570.72
685.424	4648.55
685.614	4410.98
685.804	4355.69
685.994	4464.23
686.184	4533.86
686.374	4564.58
686.564	4376.17
686.753	4333.16
686.943	4273.77
687.133	4322.92
687.323	4286.06
687.513	4337.26
687.702	4247.15
687.892	4245.1
688.082	4238.95
688.272	4265.58
688.461	4189.8
688.651	4066.92
688.841	4138.6
689.03	4171.37
689.22	4236.91
689.41	4120.17
689.599	4003.44
689.789	4097.64
689.979	4071.02
690.168	4038.25
690.358	3765.87
690.547	4005.49
690.737	3780.21
690.926	4005.49
691.116	3776.11
691.305	3905.14
691.495	3798.64
691.684	3702.39
691.874	3880.56
692.063	3718.77
692.252	3767.92
692.442	3778.16
692.631	3679.86
692.82	3638.9
693.01	3602.04
693.199	3573.36
693.388	3690.1
693.578	3704.43
693.767	3464.82
693.956	3491.45
694.146	3591.8
694.335	3565.17
694.524	3575.41
694.713	3591.8
694.902	3450.49
695.092	3417.72
695.281	3411.57
695.47	3604.08
695.659	3438.2
695.848	3380.86
696.037	3413.62
696.226	3405.43
696.415	3343.99
696.604	3319.42
696.793	3376.76
696.982	3298.94
697.171	3333.75
697.36	3315.32
697.549	3331.7
697.738	3253.88
697.927	3262.07
698.116	3446.39
698.305	3272.31
698.494	3204.73
698.683	3274.36
698.872	3387
699.061	3239.55
699.25	3280.5
699.438	3253.88
699.627	3206.78
699.816	3178.11
700.005	3147.39
700.193	3165.82
700.382	3309.18
700.571	3073.66
700.76	3225.21
700.948	3118.72
701.137	2975.36
701.326	3022.46
701.514	3131
701.703	3042.94
701.892	3014.27
702.08	3100.28
702.269	2979.45
702.457	3106.43
702.646	2901.63
702.834	3102.33
703.023	3020.41
703.212	3151.48
703.4	3004.03
703.589	2938.49
703.777	3096.19
703.965	2975.36
704.154	3004.03
704.342	2940.54
704.531	3063.42
704.719	2889.34
704.907	2903.68
705.096	2901.63
705.284	2901.63
705.472	2922.11
705.661	2909.82
705.849	2907.77
706.037	2995.84
706.226	2918.01
706.414	2813.57
706.602	2928.25
706.79	3012.22
706.979	2829.95
707.167	2977.41
707.355	2938.49
707.543	2836.1
707.731	2983.55
707.919	2901.63
708.107	2946.69
708.296	2823.81
708.484	2885.25
708.672	2788.99
708.86	2940.54
709.048	2844.29
709.236	2774.66
709.424	2850.43
709.612	2788.99
709.8	2778.75
709.988	2832
710.176	2862.72
710.364	2922.11
710.551	2934.4
710.739	2756.22
710.927	2764.42
711.115	2821.76
711.303	2801.28
711.491	2944.64
711.679	2838.14
711.866	2862.72
712.054	2891.39
712.242	2705.03
712.43	2872.96
712.617	2680.45
712.805	2733.7
712.993	2926.21
713.181	2809.47
713.368	2741.89
713.556	2786.94
713.744	2735.74
713.931	2745.98
714.119	2735.74
714.306	2778.75
714.494	2846.34
714.682	2768.51
714.869	2829.95
715.057	2895.49
715.244	2731.65
715.432	2766.46
715.619	2799.23
715.807	2715.27
715.994	2817.66
716.182	2813.57
716.369	2725.51
716.556	2739.84
716.744	2748.03
716.931	2696.83
717.119	2805.38
717.306	2762.37
717.493	2686.59
717.681	2668.16
717.868	2778.75
718.055	2713.22
718.242	2862.72
718.43	2788.99
718.617	2739.84
718.804	2686.59
718.991	2682.5
719.179	2647.68
719.366	2829.95
719.553	2692.74
719.74	2774.66
719.927	2782.85
720.114	2748.03
720.301	2700.93
720.488	2709.12
720.676	2745.98
720.863	2805.38
721.05	2762.37
721.237	2805.38
721.424	2662.02
721.611	2840.19
721.798	2723.46
721.985	2786.94
722.172	2729.6
722.358	2721.41
722.545	2805.38
722.732	2668.16
722.919	2725.51
723.106	2641.54
723.293	2596.48
723.48	2698.88
723.667	2739.84
723.853	2676.35
724.04	2748.03
724.227	2735.74
724.414	2672.26
724.6	2709.12
724.787	2705.03
724.974	2670.21
725.161	2680.45
725.347	2653.83
725.534	2723.46
725.72	2719.36
725.907	2694.79
726.094	2653.83
726.28	2713.22
726.467	2614.91
726.653	2631.3
726.84	2741.89
727.027	2692.74
727.213	2647.68
727.4	2709.12
727.586	2510.47
727.773	2737.79
727.959	2662.02
728.145	2868.86
728.332	2602.63
728.518	2625.15
728.705	2664.07
728.891	2721.41
729.077	2625.15
729.264	2610.82
729.45	2627.2
729.636	2674.31
729.823	2590.34
730.009	2752.13
730.195	2473.6
730.382	2717.31
730.568	2700.93
730.754	2637.44
730.94	2717.31
731.126	2655.87
731.313	2647.68
731.499	2590.34
731.685	2623.11
731.871	2528.9
732.057	2788.99
732.243	2539.14
732.429	2545.28
732.615	2684.55
732.801	2637.44
732.987	2586.24
733.173	2555.52
733.359	2514.56
733.545	2633.35
733.731	2578.05
733.917	2772.61
734.103	2668.16
734.289	2524.8
734.475	2524.8
734.661	2676.35
734.847	2629.25
735.033	2487.94
735.219	2526.85
735.404	2576
735.59	2590.34
735.776	2516.61
735.962	2547.33
736.148	2533
736.333	2455.17
736.519	2393.73
736.705	2551.43
736.89	2492.04
737.076	2496.13
737.262	2489.99
737.447	2360.97
737.633	2549.38
737.819	2455.17
738.004	2541.19
738.19	2508.42
738.375	2367.11
738.561	2451.08
738.747	2518.66
738.932	2416.26
739.118	2395.78
739.303	2430.6
739.489	2483.84
739.674	2444.93
739.859	2385.54
740.045	2356.87
740.23	2426.5
740.416	2334.34
740.601	2451.08
740.786	2393.73
740.972	2365.06
741.157	2410.12
741.342	2381.45
741.528	2344.58
741.713	2272.9
741.898	2408.07
742.084	2256.52
742.269	2277
742.454	2410.12
742.639	2401.93
742.824	2270.86
743.01	2285.19
743.195	2215.56
743.38	2311.82
743.565	2225.8
743.75	2178.7
743.935	2193.03
744.12	2225.8
744.305	2162.31
744.49	2215.56
744.675	2150.03
744.86	2211.46
745.045	2184.84
745.23	2223.75
745.415	2172.55
745.6	2014.86
745.785	2166.41
745.97	2160.27
746.155	2156.17
746.34	2090.63
746.525	2078.35
746.71	2080.39
746.895	2055.82
747.079	2080.39
747.264	2115.21
747.449	1959.56
747.634	2012.81
747.819	1992.33
748.003	1955.47
748.188	1865.36
748.373	2012.81
748.557	1959.56
748.742	1988.24
748.927	1891.98
749.111	1949.32
749.296	1945.23
749.481	1826.45
749.665	1867.41
749.85	1703.57
750.034	1900.17
750.219	1832.59
750.404	1838.73
750.588	1805.97
750.773	1812.11
750.957	1816.21
751.141	1812.11
751.326	1808.02
751.51	1773.2
751.695	1746.58
751.879	1736.34
752.064	1746.58
752.248	1812.11
752.432	1816.21
752.617	1650.32
752.801	1678.99
752.985	1638.03
753.17	1709.71
753.354	1590.93
753.538	1638.03
753.722	1621.65
753.907	1701.52
754.091	1525.4
754.275	1629.84
754.459	1599.12
754.643	1529.49
754.828	1468.05
755.012	1615.51
755.196	1515.16
755.38	1560.21
755.564	1607.31
755.748	1398.42
755.932	1476.24
756.116	1463.96
756.3	1509.01
756.484	1517.2
756.668	1468.05
756.852	1373.85
757.036	1474.2
757.22	1480.34
757.404	1433.24
757.588	1472.15
757.772	1414.81
757.956	1394.33
758.14	1369.75
758.323	1343.13
758.507	1377.94
758.691	1363.61
758.875	1382.04
759.059	1371.8
759.242	1308.31
759.426	1345.17
759.61	1291.93
759.794	1349.27
759.977	1228.44
760.161	1386.13
760.345	1326.74
760.528	1234.58
760.712	1277.59
760.895	1263.26
761.079	1283.74
761.263	1193.62
761.446	1255.06
761.63	1238.68
761.813	1167
761.997	1177.24
762.18	1140.38
762.364	1216.15
762.547	1246.87
762.731	1226.39
762.914	1285.78
763.098	1220.25
763.281	1136.28
763.464	1191.58
763.648	1105.56
763.831	1107.61
764.015	1138.33
764.198	1150.62
764.381	1187.48
764.564	1140.38
764.748	1111.71
764.931	1181.34
765.114	1164.95
765.297	1083.03
765.481	1062.55
765.664	1152.67
765.847	1115.8
766.03	1214.1
766.213	1109.66
766.397	1044.12
766.58	990.88
766.763	1023.64
766.946	1011.36
767.129	1031.83
767.312	1027.74
767.495	1091.23
767.678	1009.31
767.861	1111.71
768.044	976.54
768.227	1087.13
768.41	1050.27
768.593	1099.42
768.776	964.25
768.959	1035.93
769.142	1029.79
769.324	1023.64
769.507	1017.5
769.69	1019.55
769.873	954.01
770.056	997.02
770.239	980.64
770.421	960.16
770.604	939.68
770.787	966.3
770.97	1015.45
771.152	1035.93
771.335	974.49
771.518	960.16
771.7	933.53
771.883	1089.18
772.066	999.07
772.248	966.3
772.431	919.2
772.613	917.15
772.796	851.61
772.978	943.77
773.161	906.91
773.343	886.43
773.526	847.52
773.708	870.05
773.891	786.08
774.073	870.05
774.256	880.29
774.438	845.47
774.621	839.33
774.803	947.87
774.985	857.76
775.168	870.05
775.35	878.24
775.532	839.33
775.715	822.94
775.897	802.46
776.079	833.18
776.261	824.99
776.444	857.76
776.626	845.47
776.808	824.99
776.99	771.74
777.173	661.15
777.355	763.55
777.537	749.22
777.719	728.74
777.901	732.83
778.083	808.61
778.265	738.98
778.447	712.35
778.629	687.78
778.811	720.54
778.993	738.98
779.175	738.98
779.357	755.36
779.539	687.78
779.721	732.83
779.903	681.63
780.085	693.92
780.267	655.01
780.449	593.57
780.631	677.54
780.812	648.86
780.994	642.72
781.176	657.06
781.358	669.34
781.54	595.62
781.721	601.76
781.903	632.48
782.085	620.19
782.267	575.14
782.448	489.12
782.63	618.15
782.812	614.05
782.993	532.13
783.175	671.39
783.357	513.7
783.538	542.37
783.72	530.08
783.901	581.28
784.083	562.85
784.264	546.47
784.446	581.28
784.627	573.09
784.809	538.27
784.99	507.55
785.172	464.55
785.353	534.18
785.535	542.37
785.716	456.36
785.897	405.16
786.079	515.75
786.26	605.86
786.441	562.85
786.623	493.22
786.804	452.26
786.985	544.42
787.167	493.22
787.348	476.84
787.529	431.78
787.71	530.08
787.891	515.75
788.073	464.55
788.254	388.77
788.435	507.55
788.616	521.89
788.797	478.88
788.978	429.73
789.159	497.32
789.34	388.77
789.522	372.39
789.703	435.88
789.884	458.4
790.065	439.97
790.246	392.87
790.427	401.06
790.607	399.01
790.788	425.64
790.969	448.16
791.15	370.34
791.331	403.11
791.512	427.68
791.693	245.41
791.874	356.01
792.054	407.2
792.235	417.44
792.416	366.25
792.597	390.82
792.778	415.4
792.958	353.96
793.139	362.15
793.32	429.73
793.5	384.68
793.681	399.01
793.862	300.71
794.042	310.95
794.223	325.29
794.404	358.05
794.584	380.58
794.765	376.48
794.945	394.92
795.126	347.81
795.306	358.05
795.487	269.99
795.667	310.95
795.848	327.33
796.028	345.77
796.209	313
796.389	351.91
796.57	298.66
796.75	341.67
796.93	276.13
797.111	325.29
797.291	304.81
797.471	351.91
797.652	308.9
797.832	284.33
798.012	358.05
798.192	292.52
798.373	337.57
798.553	310.95
798.733	343.72
798.913	243.37
799.093	286.37
799.274	317.09
799.454	222.89
799.634	265.89
799.814	274.09
799.994	284.33
800.174	370.34
800.354	339.62
800.534	267.94
800.714	265.89
800.894	384.68
801.074	243.37
801.254	278.18
801.434	288.42
801.614	292.52
801.794	298.66
801.974	614.05
802.154	222.89
802.334	220.84
802.514	235.18
802.693	198.31
802.873	310.95
803.053	310.95
803.233	259.75
803.413	304.81
803.592	237.22
803.772	237.22
803.952	239.27
804.131	278.18
804.311	257.7
804.491	310.95
804.67	177.83
804.85	222.89
805.03	274.09
805.209	247.46
805.389	208.55
805.568	321.19
805.748	243.37
805.928	196.26
806.107	239.27
806.287	249.51
806.466	247.46
806.646	212.65
806.825	202.41
807.004	251.56
807.184	220.84
807.363	149.16
807.543	284.33
807.722	206.5
807.901	231.08
808.081	239.27
808.26	196.26
808.439	200.36
808.619	226.98
808.798	220.84
808.977	247.46
809.156	280.23
809.336	206.5
809.515	132.78
809.694	224.94
809.873	198.31
810.052	179.88
810.231	235.18
810.411	229.03
810.59	267.94
810.769	200.36
810.948	229.03
811.127	138.92
811.306	214.7
811.485	171.69
811.664	263.85
811.843	171.69
812.022	173.74
812.201	171.69
812.38	186.02
812.559	204.46
812.737	194.22
812.916	104.11
813.095	198.31
813.274	214.7
813.453	181.93
813.632	169.64
813.811	151.21
813.989	204.46
814.168	159.4
814.347	128.68
814.526	145.06
814.704	200.36
814.883	198.31
815.062	140.97
815.24	198.31
815.419	165.54
815.598	204.46
815.776	132.78
815.955	159.4
816.133	114.34
816.312	159.4
816.49	116.39
816.669	181.93
816.847	114.34
817.026	186.02
817.204	118.44
817.383	128.68
817.561	81.58
817.74	138.92
817.918	186.02
818.097	114.34
818.275	163.5
818.453	120.49
818.632	136.87
818.81	171.69
818.988	128.68
819.167	214.7
819.345	177.83
819.523	124.58
819.701	116.39
819.879	165.54
820.058	77.48
820.236	155.3
820.414	161.45
820.592	138.92
820.77	147.11
820.948	118.44
821.127	126.63
821.305	153.26
821.483	79.53
821.661	149.16
821.839	108.2
822.017	145.06
822.195	100.01
822.373	136.87
822.551	42.67
822.729	104.11
822.907	120.49
823.085	128.68
823.262	116.39
823.44	136.87
823.618	138.92
823.796	85.67
823.974	79.53
824.152	30.38
824.329	87.72
824.507	83.63
824.685	97.96
824.863	97.96
825.04	75.43
825.218	149.16
825.396	155.3
825.574	97.96
825.751	106.15
825.929	77.48
826.107	112.3
826.284	163.5
826.462	120.49
826.639	106.15
826.817	87.72
826.994	136.87
827.172	40.62
827.349	130.73
827.527	34.47
827.704	216.74
827.882	81.58
828.059	87.72
828.237	79.53
828.414	73.39
828.591	50.86
828.769	124.58
828.946	110.25
829.124	69.29
829.301	116.39
829.478	134.82
829.655	155.3
829.833	81.58
830.01	73.39
830.187	108.2
830.364	114.34
830.542	116.39
830.719	79.53
830.896	87.72
831.073	134.82
831.25	52.91
831.427	97.96
831.604	116.39
831.782	147.11
831.959	83.63
832.136	38.57
832.313	110.25
832.49	18.09
832.667	130.73
832.844	116.39
833.021	114.34
833.198	91.82
833.374	59.05
833.551	124.58
833.728	73.39
833.905	120.49
834.082	83.63
834.259	69.29
834.436	75.43
834.612	69.29
834.789	106.15
834.966	132.78
835.143	16.04
835.319	83.63
835.496	87.72
835.673	22.19
835.85	114.34
836.026	106.15
836.203	118.44
836.38	63.15
836.556	79.53
836.733	63.15
836.909	93.87
837.086	20.14
837.262	48.81
837.439	7.85
837.616	44.71
837.792	30.38
837.968	97.96
838.145	52.91
838.321	81.58
838.498	42.67
838.674	106.15
838.851	83.63
839.027	161.45
839.203	71.34
839.38	95.91
839.556	38.57
839.732	67.24
839.909	81.58
840.085	79.53
840.261	42.67
840.437	20.14
840.614	100.01
840.79	9.9
840.966	22.19
841.142	46.76
841.318	28.33
841.494	130.73
841.671	138.92
841.847	100.01
842.023	59.05
842.199	153.26
842.375	89.77
842.551	-29.01
842.727	52.91
842.903	44.71
843.079	34.47
843.255	181.93
843.431	-8.53
843.607	91.82
843.783	77.48
843.959	44.71
844.134	108.2
844.31	83.63
844.486	18.09
844.662	124.58
844.838	-6.49
845.013	63.15
845.189	13.99
845.365	-6.49
845.541	34.47
845.716	-2.39
845.892	7.85
846.068	71.34
846.244	48.81
846.419	46.76
846.595	48.81
846.77	26.28
846.946	9.9
847.122	54.95
847.297	63.15
847.473	77.48
847.648	22.19
847.824	22.19
847.999	44.71
848.175	54.95
848.35	54.95
848.526	42.67
848.701	75.43
848.876	16.04
849.052	87.72
849.227	153.26
849.403	52.91
849.578	-47.44
849.753	83.63
849.929	65.19
850.104	26.28
850.279	83.63
850.454	18.09
850.63	116.39
850.805	7.85
850.98	104.11
851.155	48.81
851.33	32.43
851.505	-72.02
851.681	83.63
851.856	42.67
852.031	26.28
852.206	30.38
852.381	48.81
852.556	-6.49
852.731	24.23
852.906	42.67
853.081	75.43
853.256	73.39
853.431	28.33
853.606	26.28
853.781	20.14
853.956	-0.34
854.131	79.53
854.305	3.75
854.48	67.24
854.655	-4.44
854.83	-24.92
855.005	16.04
855.18	83.63
855.354	50.86
855.529	83.63
855.704	-14.68
855.879	30.38
856.053	48.81
856.228	18.09
856.403	24.23
856.577	40.62
856.752	-47.44
856.926	11.95
857.101	18.09
857.276	71.34
857.45	11.95
857.625	71.34
857.799	52.91
857.974	18.09
858.148	-110.93
858.323	9.9
858.497	89.77
858.672	-2.39
858.846	13.99
859.02	48.81
859.195	67.24
859.369	52.91
859.543	34.47
859.718	-6.49
859.892	67.24
860.066	-26.96
860.241	57
860.415	69.29
860.589	32.43
860.763	-12.63
860.938	-0.34
861.112	61.1
861.286	-14.68
861.46	22.19
861.634	42.67
861.808	67.24
861.982	-14.68
862.157	-35.16
862.331	34.47
862.505	-10.58
862.679	5.8
862.853	1.71
863.027	20.14
863.201	71.34
863.375	54.95
863.549	87.72
863.722	1.71
863.896	-10.58
864.07	5.8
864.244	63.15
864.418	67.24
864.592	-16.73
864.766	61.1
864.939	9.9
865.113	-16.73
865.287	-39.25
865.461	28.33
865.634	-8.53
865.808	22.19
865.982	40.62
866.156	75.43
866.329	-39.25
866.503	63.15
866.676	67.24
866.85	59.05
867.024	44.71
867.197	-4.44
867.371	46.76
867.544	50.86
867.718	-2.39
867.891	32.43
868.065	32.43
868.238	50.86
868.412	61.1
868.585	36.52
868.759	3.75
868.932	48.81
869.105	9.9
869.279	59.05
869.452	32.43
869.625	34.47
869.799	57
869.972	-49.49
870.145	42.67
870.319	22.19
870.492	40.62
870.665	81.58
870.838	11.95
871.011	-43.35
871.185	18.09
871.358	34.47
871.531	69.29
871.704	20.14
871.877	5.8
872.05	36.52
872.223	-0.34
872.396	57
872.569	-12.63
872.742	40.62
872.915	112.3
873.088	20.14
873.261	26.28
873.434	9.9
873.607	-49.49
873.78	-33.11
873.953	-47.44
874.126	-8.53
874.299	-47.44
874.471	26.28
874.644	32.43
874.817	26.28
874.99	34.47
875.163	5.8
875.335	69.29
875.508	75.43
875.681	40.62
875.853	20.14
876.026	-8.53
876.199	-49.49
876.371	5.8
876.544	16.04
876.717	13.99
876.889	28.33
877.062	46.76
877.234	-31.06
877.407	59.05
877.579	-12.63
877.752	57
877.924	-2.39
878.097	16.04
878.269	34.47
878.442	97.96
878.614	16.04
878.786	7.85
878.959	24.23
879.131	20.14
879.303	13.99
879.476	52.91
879.648	32.43
879.82	46.76
879.993	5.8
880.165	-31.06
880.337	30.38
880.509	-33.11
880.681	30.38
880.854	18.09
881.026	5.8
881.198	50.86
881.37	-33.11
881.542	-14.68
881.714	16.04
881.886	22.19
882.058	-24.92
882.23	11.95
882.402	13.99
882.574	38.57
882.746	26.28
882.918	-2.39
883.09	63.15
883.262	1.71
883.434	-24.92
883.606	5.8
883.778	16.04
883.95	100.01
884.122	34.47
884.293	79.53
884.465	-14.68
884.637	36.52
884.809	-4.44
884.98	50.86
885.152	-6.49
885.324	-16.73
885.496	77.48
885.667	-26.96
885.839	-0.34
886.011	108.2
886.182	-6.49
886.354	-0.34
886.525	-0.34
886.697	-0.34
886.869	50.86
887.04	-24.92
887.212	36.52
887.383	-12.63
887.555	71.34
887.726	42.67
887.897	9.9
888.069	69.29
888.24	30.38
888.412	-2.39
888.583	-8.53
888.754	28.33
888.926	-6.49
889.097	-39.25
889.268	67.24
889.44	54.95
889.611	13.99
889.782	-10.58
889.953	-0.34
890.125	50.86
890.296	-14.68
890.467	40.62
890.638	32.43
890.809	-2.39
890.98	-55.64
891.151	50.86
891.323	-6.49
891.494	63.15
891.665	-10.58
891.836	-31.06
892.007	65.19
892.178	1.71
892.349	30.38
892.52	-37.2
892.691	20.14
892.862	32.43
893.032	24.23
893.203	16.04
893.374	1.71
893.545	20.14
893.716	-41.3
893.887	-18.77
894.057	-47.44
894.228	3.75
894.399	50.86
894.57	34.47
894.74	44.71
894.911	65.19
895.082	67.24
895.253	3.75
895.423	-53.59
895.594	26.28
895.764	59.05
895.935	-12.63
896.106	1.71
896.276	9.9
896.447	83.63
896.617	61.1
896.788	-98.64
896.958	5.8
897.129	-24.92
897.299	9.9
897.47	5.8
897.64	-37.2
897.81	-2.39
897.981	38.57
898.151	-12.63
898.322	7.85
898.492	22.19
898.662	13.99
898.832	1.71
899.003	-2.39
899.173	34.47
899.343	-29.01
899.513	-24.92
