Data from USB4F104151__93__11-37-56-624.txt Node

Date: Fri Mar 14 11:37:56 EDT 2025
User: louis
Spectrometer: USB4F10415
Trigger mode: 4
Integration Time (sec): 2.000000E-2
Scans to average: 1
Electric dark correction enabled: true
Nonlinearity correction enabled: false
Boxcar width: 0
XAxis mode: Wavelengths
Number of Pixels in Spectrum: 3648
>>>>>Begin Spectral Data<<<<<
178.204	-83.28
178.424	-83.28
178.644	-83.28
178.864	-64.85
179.084	-68.95
179.304	-79.19
179.524	-25.94
179.744	-30.04
179.964	8.87
180.184	-38.23
180.404	35.5
180.624	-21.85
180.844	15.02
181.064	12.97
181.283	53.93
181.503	-11.61
181.723	80.55
181.943	62.12
182.163	-11.61
182.383	29.35
182.602	17.07
182.822	47.79
183.042	-9.56
183.262	-19.8
183.482	70.31
183.701	-50.52
183.921	4.78
184.141	-93.52
184.361	45.74
184.58	-7.51
184.8	-3.41
185.02	-5.46
185.239	98.99
185.459	4.78
185.679	39.59
185.898	-32.08
186.118	84.65
186.338	43.69
186.557	111.27
186.777	62.12
186.997	53.93
187.216	-11.61
187.436	-7.51
187.655	62.12
187.875	49.83
188.095	41.64
188.314	88.75
188.534	55.98
188.753	-32.08
188.973	-3.41
189.192	2.73
189.412	0.68
189.631	27.31
189.851	-32.08
190.07	6.83
190.29	-19.8
190.509	68.27
190.729	53.93
190.948	53.93
191.168	82.6
191.387	-3.41
191.607	82.6
191.826	47.79
192.045	-19.8
192.265	43.69
192.484	66.22
192.704	15.02
192.923	-23.89
193.142	66.22
193.362	21.16
193.581	19.11
193.8	23.21
194.02	17.07
194.239	-40.28
194.458	17.07
194.678	-27.99
194.897	33.45
195.116	8.87
195.335	37.55
195.555	37.55
195.774	66.22
195.993	49.83
196.212	-27.99
196.432	-27.99
196.651	-34.13
196.87	25.26
197.089	111.27
197.308	6.83
197.528	4.78
197.747	-66.9
197.966	31.4
198.185	45.74
198.404	-9.56
198.623	62.12
198.842	15.02
199.062	45.74
199.281	86.7
199.5	-71
199.719	-44.37
199.938	27.31
200.157	117.42
200.376	51.88
200.595	70.31
200.814	-36.18
201.033	25.26
201.252	49.83
201.471	53.93
201.69	-3.41
201.909	45.74
202.128	29.35
202.347	-11.61
202.566	-23.89
202.785	29.35
203.004	37.55
203.223	70.31
203.442	92.84
203.661	76.46
203.879	-11.61
204.098	74.41
204.317	-17.75
204.536	121.51
204.755	31.4
204.974	55.98
205.193	35.5
205.411	41.64
205.63	10.92
205.849	55.98
206.068	78.51
206.287	-27.99
206.505	27.31
206.724	49.83
206.943	33.45
207.162	-48.47
207.381	33.45
207.599	37.55
207.818	47.79
208.037	-32.08
208.255	29.35
208.474	-38.23
208.693	-11.61
208.911	55.98
209.13	33.45
209.349	8.87
209.567	41.64
209.786	-5.46
210.005	-62.8
210.223	35.5
210.442	-38.23
210.661	-27.99
210.879	23.21
211.098	21.16
211.316	-5.46
211.535	66.22
211.753	43.69
211.972	94.89
212.191	0.68
212.409	41.64
212.628	47.79
212.846	94.89
213.065	86.7
213.283	-3.41
213.502	58.03
213.72	98.99
213.938	49.83
214.157	29.35
214.375	-7.51
214.594	31.4
214.812	86.7
215.031	64.17
215.249	33.45
215.467	47.79
215.686	8.87
215.904	74.41
216.122	37.55
216.341	-48.47
216.559	-1.37
216.778	-11.61
216.996	19.11
217.214	58.03
217.432	-19.8
217.651	80.55
217.869	-30.04
218.087	25.26
218.306	51.88
218.524	31.4
218.742	62.12
218.96	41.64
219.179	4.78
219.397	62.12
219.615	37.55
219.833	-3.41
220.051	19.11
220.27	17.07
220.488	53.93
220.706	-15.7
220.924	-11.61
221.142	49.83
221.36	25.26
221.578	113.32
221.796	23.21
222.015	45.74
222.233	-1.37
222.451	10.92
222.669	-11.61
222.887	-30.04
223.105	-56.66
223.323	-13.65
223.541	-23.89
223.759	37.55
223.977	58.03
224.195	111.27
224.413	53.93
224.631	86.7
224.849	43.69
225.067	-48.47
225.285	12.97
225.503	-3.41
225.721	-27.99
225.939	53.93
226.157	12.97
226.375	64.17
226.592	41.64
226.81	12.97
227.028	27.31
227.246	55.98
227.464	41.64
227.682	-32.08
227.9	4.78
228.117	-27.99
228.335	23.21
228.553	27.31
228.771	6.83
228.989	49.83
229.206	-3.41
229.424	17.07
229.642	-91.48
229.86	84.65
230.077	123.56
230.295	-5.46
230.513	66.22
230.731	0.68
230.948	64.17
231.166	51.88
231.384	62.12
231.601	12.97
231.819	62.12
232.037	19.11
232.254	35.5
232.472	78.51
232.689	-9.56
232.907	31.4
233.125	-60.76
233.342	-32.08
233.56	49.83
233.777	8.87
233.995	-17.75
234.213	33.45
234.43	19.11
234.648	-9.56
234.865	-42.32
235.083	115.37
235.3	47.79
235.518	70.31
235.735	45.74
235.953	58.03
236.17	82.6
236.388	55.98
236.605	-34.13
236.822	55.98
237.04	41.64
237.257	51.88
237.475	-27.99
237.692	51.88
237.909	111.27
238.127	12.97
238.344	-11.61
238.562	109.22
238.779	98.99
238.996	55.98
239.214	37.55
239.431	125.61
239.648	45.74
239.865	53.93
240.083	35.5
240.3	-13.65
240.517	25.26
240.735	60.07
240.952	55.98
241.169	0.68
241.386	53.93
241.603	-23.89
241.821	-99.67
242.038	6.83
242.255	12.97
242.472	-60.76
242.689	55.98
242.907	27.31
243.124	62.12
243.341	17.07
243.558	27.31
243.775	-32.08
243.992	-5.46
244.209	74.41
244.426	-21.85
244.643	10.92
244.86	23.21
245.078	15.02
245.295	-36.18
245.512	0.68
245.729	39.59
245.946	64.17
246.163	78.51
246.38	-52.56
246.597	25.26
246.814	4.78
247.031	-25.94
247.248	43.69
247.464	21.16
247.681	-5.46
247.898	55.98
248.115	47.79
248.332	-54.61
248.549	60.07
248.766	35.5
248.983	66.22
249.2	70.31
249.417	68.27
249.633	12.97
249.85	17.07
250.067	-5.46
250.284	82.6
250.501	135.85
250.717	-3.41
250.934	-68.95
251.151	33.45
251.368	-66.9
251.585	76.46
251.801	39.59
252.018	47.79
252.235	51.88
252.451	12.97
252.668	84.65
252.885	-64.85
253.102	-36.18
253.318	109.22
253.535	19.11
253.752	25.26
253.968	27.31
254.185	-32.08
254.401	-13.65
254.618	19.11
254.835	-11.61
255.051	41.64
255.268	-34.13
255.484	0.68
255.701	33.45
255.917	94.89
256.134	12.97
256.351	66.22
256.567	-19.8
256.784	12.97
257	8.87
257.217	19.11
257.433	43.69
257.65	43.69
257.866	76.46
258.082	10.92
258.299	37.55
258.515	47.79
258.732	-19.8
258.948	4.78
259.165	0.68
259.381	12.97
259.597	-9.56
259.814	115.37
260.03	35.5
260.246	107.18
260.463	29.35
260.679	6.83
260.895	78.51
261.112	-3.41
261.328	19.11
261.544	66.22
261.761	111.27
261.977	58.03
262.193	62.12
262.409	27.31
262.626	51.88
262.842	21.16
263.058	86.7
263.274	82.6
263.49	37.55
263.707	105.13
263.923	17.07
264.139	23.21
264.355	-34.13
264.571	21.16
264.787	25.26
265.004	82.6
265.22	23.21
265.436	0.68
265.652	6.83
265.868	21.16
266.084	17.07
266.3	-54.61
266.516	37.55
266.732	74.41
266.948	8.87
267.164	15.02
267.38	10.92
267.596	37.55
267.812	86.7
268.028	66.22
268.244	27.31
268.46	-3.41
268.676	64.17
268.892	-27.99
269.108	4.78
269.324	-1.37
269.54	15.02
269.756	31.4
269.972	94.89
270.188	-34.13
270.403	-36.18
270.619	21.16
270.835	-27.99
271.051	2.73
271.267	21.16
271.483	86.7
271.698	19.11
271.914	17.07
272.13	4.78
272.346	2.73
272.562	-23.89
272.777	90.79
272.993	-27.99
273.209	-27.99
273.425	27.31
273.64	31.4
273.856	-36.18
274.072	10.92
274.287	4.78
274.503	33.45
274.719	-3.41
274.934	66.22
275.15	33.45
275.366	113.32
275.581	53.93
275.797	31.4
276.012	33.45
276.228	-3.41
276.444	12.97
276.659	74.41
276.875	15.02
277.09	12.97
277.306	41.64
277.521	49.83
277.737	78.51
277.952	66.22
278.168	-21.85
278.383	23.21
278.599	19.11
278.814	10.92
279.03	-21.85
279.245	-27.99
279.461	-7.51
279.676	39.59
279.892	27.31
280.107	58.03
280.322	-3.41
280.538	17.07
280.753	45.74
280.969	66.22
281.184	17.07
281.399	43.69
281.615	78.51
281.83	66.22
282.045	55.98
282.26	-5.46
282.476	4.78
282.691	45.74
282.906	-48.47
283.122	-9.56
283.337	10.92
283.552	76.46
283.767	-25.94
283.983	41.64
284.198	19.11
284.413	23.21
284.628	25.26
284.843	-30.04
285.058	4.78
285.274	74.41
285.489	10.92
285.704	98.99
285.919	41.64
286.134	17.07
286.349	60.07
286.564	78.51
286.779	33.45
286.995	37.55
287.21	62.12
287.425	37.55
287.64	39.59
287.855	33.45
288.07	74.41
288.285	92.84
288.5	27.31
288.715	47.79
288.93	47.79
289.145	21.16
289.36	-42.32
289.575	-19.8
289.79	4.78
290.004	-17.75
290.219	53.93
290.434	33.45
290.649	-17.75
290.864	72.36
291.079	105.13
291.294	94.89
291.509	-23.89
291.724	51.88
291.938	62.12
292.153	23.21
292.368	51.88
292.583	70.31
292.798	-21.85
293.012	68.27
293.227	6.83
293.442	33.45
293.657	21.16
293.871	88.75
294.086	41.64
294.301	55.98
294.516	55.98
294.73	51.88
294.945	-15.7
295.16	72.36
295.374	-11.61
295.589	78.51
295.804	17.07
296.018	31.4
296.233	84.65
296.447	27.31
296.662	2.73
296.877	60.07
297.091	82.6
297.306	43.69
297.52	25.26
297.735	62.12
297.949	8.87
298.164	45.74
298.378	-40.28
298.593	53.93
298.807	-13.65
299.022	-5.46
299.236	-62.8
299.451	-7.51
299.665	6.83
299.88	45.74
300.094	-32.08
300.309	80.55
300.523	-25.94
300.737	90.79
300.952	21.16
301.166	84.65
301.381	29.35
301.595	33.45
301.809	43.69
302.024	35.5
302.238	-27.99
302.452	10.92
302.667	-13.65
302.881	39.59
303.095	94.89
303.309	47.79
303.524	-3.41
303.738	15.02
303.952	70.31
304.166	76.46
304.381	51.88
304.595	29.35
304.809	-50.52
305.023	21.16
305.237	2.73
305.452	29.35
305.666	127.66
305.88	27.31
306.094	37.55
306.308	29.35
306.522	58.03
306.736	37.55
306.95	23.21
307.164	115.37
307.379	74.41
307.593	62.12
307.807	78.51
308.021	-36.18
308.235	76.46
308.449	4.78
308.663	0.68
308.877	86.7
309.091	33.45
309.305	144.04
309.519	10.92
309.733	-5.46
309.947	12.97
310.161	55.98
310.374	15.02
310.588	19.11
310.802	-11.61
311.016	31.4
311.23	37.55
311.444	66.22
311.658	82.6
311.872	111.27
312.085	119.46
312.299	37.55
312.513	66.22
312.727	80.55
312.941	70.31
313.154	62.12
313.368	47.79
313.582	41.64
313.796	49.83
314.009	37.55
314.223	23.21
314.437	86.7
314.651	55.98
314.864	45.74
315.078	49.83
315.292	33.45
315.505	66.22
315.719	45.74
315.933	-5.46
316.146	70.31
316.36	4.78
316.573	51.88
316.787	-21.85
317.001	51.88
317.214	2.73
317.428	125.61
317.641	35.5
317.855	107.18
318.068	58.03
318.282	35.5
318.495	60.07
318.709	-15.7
318.922	41.64
319.136	17.07
319.349	58.03
319.563	-11.61
319.776	47.79
319.99	-13.65
320.203	66.22
320.417	25.26
320.63	-3.41
320.843	55.98
321.057	25.26
321.27	70.31
321.483	8.87
321.697	29.35
321.91	51.88
322.124	-1.37
322.337	29.35
322.55	23.21
322.763	70.31
322.977	82.6
323.19	37.55
323.403	23.21
323.617	70.31
323.83	53.93
324.043	78.51
324.256	49.83
324.469	-1.37
324.683	37.55
324.896	45.74
325.109	90.79
325.322	-7.51
325.535	66.22
325.748	55.98
325.962	62.12
326.175	-21.85
326.388	21.16
326.601	47.79
326.814	2.73
327.027	58.03
327.24	152.23
327.453	51.88
327.666	33.45
327.879	10.92
328.092	111.27
328.305	31.4
328.518	131.75
328.731	25.26
328.944	-3.41
329.157	12.97
329.37	92.84
329.583	29.35
329.796	45.74
330.009	37.55
330.222	66.22
330.435	39.59
330.648	39.59
330.861	33.45
331.073	62.12
331.286	8.87
331.499	131.75
331.712	88.75
331.925	60.07
332.138	33.45
332.35	17.07
332.563	4.78
332.776	2.73
332.989	29.35
333.202	53.93
333.414	43.69
333.627	29.35
333.84	27.31
334.053	-52.56
334.265	-1.37
334.478	49.83
334.691	51.88
334.903	-13.65
335.116	39.59
335.329	29.35
335.541	41.64
335.754	60.07
335.966	31.4
336.179	23.21
336.392	-7.51
336.604	-3.41
336.817	66.22
337.029	51.88
337.242	45.74
337.454	62.12
337.667	12.97
337.88	41.64
338.092	12.97
338.305	29.35
338.517	70.31
338.729	43.69
338.942	41.64
339.154	115.37
339.367	12.97
339.579	43.69
339.792	12.97
340.004	27.31
340.217	12.97
340.429	72.36
340.641	27.31
340.854	37.55
341.066	-23.89
341.278	115.37
341.491	17.07
341.703	51.88
341.915	-3.41
342.128	119.46
342.34	19.11
342.552	82.6
342.764	33.45
342.977	6.83
343.189	43.69
343.401	0.68
343.613	29.35
343.826	70.31
344.038	-7.51
344.25	60.07
344.462	-1.37
344.674	47.79
344.886	-25.94
345.099	12.97
345.311	-1.37
345.523	6.83
345.735	29.35
345.947	70.31
346.159	64.17
346.371	17.07
346.583	17.07
346.795	12.97
347.007	-1.37
347.219	90.79
347.431	-9.56
347.643	60.07
347.855	39.59
348.067	111.27
348.279	41.64
348.491	33.45
348.703	117.42
348.915	66.22
349.127	15.02
349.339	86.7
349.551	47.79
349.763	-7.51
349.975	68.27
350.187	31.4
350.399	68.27
350.61	4.78
350.822	-19.8
351.034	80.55
351.246	66.22
351.458	49.83
351.669	105.13
351.881	58.03
352.093	45.74
352.305	92.84
352.517	111.27
352.728	12.97
352.94	80.55
353.152	41.64
353.363	33.45
353.575	78.51
353.787	33.45
353.999	49.83
354.21	94.89
354.422	-17.75
354.633	19.11
354.845	103.08
355.057	43.69
355.268	45.74
355.48	53.93
355.692	94.89
355.903	31.4
356.115	35.5
356.326	17.07
356.538	129.7
356.749	-30.04
356.961	90.79
357.172	55.98
357.384	-1.37
357.595	76.46
357.807	37.55
358.018	51.88
358.23	60.07
358.441	49.83
358.653	82.6
358.864	86.7
359.075	119.46
359.287	58.03
359.498	37.55
359.709	103.08
359.921	62.12
360.132	33.45
360.344	84.65
360.555	111.27
360.766	33.45
360.977	76.46
361.189	78.51
361.4	49.83
361.611	78.51
361.823	60.07
362.034	62.12
362.245	45.74
362.456	70.31
362.667	53.93
362.879	88.75
363.09	4.78
363.301	90.79
363.512	78.51
363.723	4.78
363.935	23.21
364.146	47.79
364.357	35.5
364.568	47.79
364.779	-54.61
364.99	105.13
365.201	-54.61
365.412	-19.8
365.623	-7.51
365.834	207.53
366.045	53.93
366.256	78.51
366.467	2.73
366.678	-1.37
366.889	103.08
367.1	27.31
367.311	35.5
367.522	62.12
367.733	33.45
367.944	23.21
368.155	55.98
368.366	90.79
368.577	101.03
368.788	82.6
368.999	41.64
369.209	66.22
369.42	107.18
369.631	111.27
369.842	62.12
370.053	29.35
370.264	39.59
370.474	47.79
370.685	39.59
370.896	53.93
371.107	25.26
371.317	41.64
371.528	86.7
371.739	103.08
371.95	107.18
372.16	47.79
372.371	39.59
372.582	92.84
372.792	17.07
373.003	78.51
373.214	33.45
373.424	43.69
373.635	35.5
373.846	39.59
374.056	78.51
374.267	60.07
374.477	-5.46
374.688	8.87
374.898	21.16
375.109	103.08
375.319	60.07
375.53	133.8
375.74	92.84
375.951	29.35
376.161	70.31
376.372	-9.56
376.582	60.07
376.793	49.83
377.003	62.12
377.214	74.41
377.424	109.22
377.635	25.26
377.845	92.84
378.055	144.04
378.266	84.65
378.476	53.93
378.686	111.27
378.897	51.88
379.107	53.93
379.317	60.07
379.528	86.7
379.738	45.74
379.948	88.75
380.158	125.61
380.369	49.83
380.579	0.68
380.789	-25.94
380.999	74.41
381.21	123.56
381.42	125.61
381.63	76.46
381.84	53.93
382.05	150.18
382.261	84.65
382.471	35.5
382.681	58.03
382.891	43.69
383.101	0.68
383.311	37.55
383.521	35.5
383.731	70.31
383.941	86.7
384.151	47.79
384.361	33.45
384.571	68.27
384.781	88.75
384.991	64.17
385.201	90.79
385.411	66.22
385.621	96.94
385.831	70.31
386.041	-36.18
386.251	49.83
386.461	111.27
386.671	119.46
386.881	90.79
387.091	60.07
387.301	131.75
387.511	101.03
387.72	10.92
387.93	17.07
388.14	43.69
388.35	10.92
388.56	74.41
388.769	148.14
388.979	66.22
389.189	90.79
389.399	66.22
389.609	82.6
389.818	109.22
390.028	101.03
390.238	86.7
390.447	115.37
390.657	105.13
390.867	64.17
391.076	78.51
391.286	131.75
391.496	35.5
391.705	33.45
391.915	10.92
392.125	8.87
392.334	15.02
392.544	105.13
392.753	86.7
392.963	94.89
393.172	96.94
393.382	58.03
393.591	125.61
393.801	47.79
394.01	82.6
394.22	35.5
394.429	70.31
394.639	64.17
394.848	43.69
395.058	64.17
395.267	86.7
395.477	144.04
395.686	182.95
395.895	133.8
396.105	98.99
396.314	88.75
396.524	84.65
396.733	101.03
396.942	158.38
397.152	37.55
397.361	33.45
397.57	146.09
397.78	53.93
397.989	62.12
398.198	242.34
398.407	160.42
398.617	98.99
398.826	98.99
399.035	111.27
399.244	156.33
399.453	58.03
399.663	25.26
399.872	152.23
400.081	105.13
400.29	62.12
400.499	119.46
400.708	193.19
400.917	92.84
401.127	127.66
401.336	103.08
401.545	135.85
401.754	109.22
401.963	182.95
402.172	160.42
402.381	133.8
402.59	113.32
402.799	176.81
403.008	125.61
403.217	152.23
403.426	160.42
403.635	137.9
403.844	156.33
404.053	193.19
404.262	209.58
404.471	133.8
404.68	125.61
404.888	139.94
405.097	174.76
405.306	219.82
405.515	234.15
405.724	131.75
405.933	168.62
406.142	109.22
406.35	205.48
406.559	217.77
406.768	189.1
406.977	197.29
407.185	203.43
407.394	203.43
407.603	275.11
407.812	340.65
408.02	236.2
408.229	287.4
408.438	252.58
408.646	182.95
408.855	273.06
409.064	291.49
409.272	287.4
409.481	377.51
409.69	379.56
409.898	379.56
410.107	410.28
410.315	395.94
410.524	391.84
410.733	422.56
410.941	418.47
411.15	488.1
411.358	473.76
411.567	576.16
411.775	490.15
411.984	504.48
412.192	463.52
412.401	557.73
412.609	563.87
412.818	533.15
413.026	522.91
413.234	586.4
413.443	690.85
413.651	588.45
413.86	674.46
414.068	699.04
414.276	762.53
414.485	735.9
414.693	760.48
414.901	885.41
415.11	840.35
415.318	807.58
415.526	866.97
415.734	875.17
415.943	893.6
416.151	996
416.359	963.23
416.567	991.9
416.776	1002.14
416.984	1102.49
417.192	1102.49
417.4	1155.74
417.608	1184.41
417.817	1184.41
418.025	1157.78
418.233	1356.44
418.441	1282.71
418.649	1456.79
418.857	1622.67
419.065	1491.6
419.273	1401.49
419.481	1575.57
419.689	1749.65
419.897	1610.39
420.105	1706.64
420.313	1792.66
420.521	1835.66
420.729	2011.79
420.937	1942.16
421.145	1962.64
421.353	2077.32
421.561	2325.13
421.769	2269.83
421.977	2347.65
422.185	2425.48
422.393	2431.62
422.601	2646.66
422.809	2607.75
423.017	2736.77
423.224	2822.78
423.432	2847.36
423.64	2851.46
423.848	3162.75
424.056	3205.75
424.263	3265.14
424.471	3248.76
424.679	3273.34
424.887	3621.49
425.094	3801.71
425.302	3791.47
425.51	3807.86
425.718	3887.73
425.925	3983.98
426.133	4207.21
426.341	4350.57
426.548	4536.93
426.756	4500.07
426.964	4608.61
427.171	4883.04
427.379	5255.77
427.586	5272.15
427.794	5286.49
428.001	5356.12
428.209	5622.36
428.417	5608.02
428.624	6097.49
428.832	6046.29
429.039	5941.84
429.247	6140.49
429.454	6591.05
429.662	6920.77
429.869	6656.58
430.076	7012.93
430.284	6922.82
430.491	7141.95
430.699	7494.2
430.906	7549.5
431.114	7557.69
431.321	7971.38
431.528	8237.61
431.736	8557.1
431.943	8987.17
432.15	8585.77
432.358	8925.73
432.565	9316.89
432.772	9318.94
432.979	9777.69
433.187	9892.37
433.394	10041.87
433.601	10514.95
433.808	10809.86
434.016	10715.66
434.223	11264.51
434.43	11653.62
434.637	11551.23
434.844	12382.7
435.052	12421.61
435.259	12392.94
435.466	12612.07
435.673	12485.1
435.88	13101.54
436.087	13849.05
436.294	13740.5
436.501	13529.56
436.708	13851.1
436.915	14248.4
437.122	15008.2
437.329	14778.83
437.537	15229.38
437.743	15794.62
437.95	15720.89
438.157	16501.17
438.364	16964.01
438.571	17066.41
438.778	17156.52
438.985	18338.19
439.192	17619.36
439.399	18213.27
439.606	17785.24
439.813	19100.04
440.02	20402.55
440.227	19687.81
440.433	19612.03
440.64	20525.43
440.847	20285.81
441.054	20687.22
441.261	21872.99
441.467	21496.16
441.674	22376.79
441.881	23021.9
442.088	22886.73
442.294	22524.24
442.501	23474.5
442.708	24011.07
442.914	24443.19
443.121	25981.21
443.328	24848.69
443.534	27160.84
443.741	25940.25
443.948	25712.93
444.154	27814.15
444.361	27711.75
444.568	27658.5
444.774	27752.71
444.981	28285.18
445.187	29112.56
445.394	29991.14
445.6	29563.11
445.807	32563.39
446.013	31187.15
446.22	31805.64
446.426	33243.31
446.633	33573.03
446.839	34449.57
447.046	32864.44
447.252	35092.63
447.459	34678.94
447.665	34422.94
447.871	35844.23
448.078	38025.32
448.284	36073.6
448.491	36962.42
448.697	38185.06
448.903	38705.24
449.11	38989.91
449.316	38545.5
449.522	38926.42
449.728	40597.57
449.935	40669.25
450.141	40685.63
450.347	41439.28
450.553	40179.78
450.76	40900.67
450.966	42063.91
451.172	41973.8
451.378	43026.46
451.584	41656.37
451.791	42891.29
451.997	42895.39
452.203	43137.05
452.409	43747.34
452.615	42997.79
452.821	41617.46
453.027	41211.96
453.233	43567.12
453.44	41754.67
453.646	42258.47
453.852	42211.37
454.058	43118.62
454.264	41623.6
454.47	42760.22
454.676	41613.36
454.882	42934.3
455.088	39157.85
455.294	39940.17
455.5	40509.5
455.705	41291.83
455.911	39131.22
456.117	38330.47
456.323	37953.64
456.529	35987.59
456.735	37961.83
456.941	36817.02
457.147	36257.92
457.352	35141.78
457.558	34418.85
457.764	34621.59
457.97	33986.72
458.176	33202.35
458.381	33417.39
458.587	31873.22
458.793	31514.83
458.999	30062.82
459.204	32213.18
459.41	31320.27
459.616	29219.05
459.821	29343.98
460.027	29763.81
460.233	28592.37
460.438	27277.58
460.644	27791.62
460.85	26122.52
461.055	25940.25
461.261	26102.04
461.466	23589.19
461.672	23390.53
461.878	25121.07
462.083	23281.99
462.289	22575.44
462.494	22491.48
462.7	21758.3
462.905	21191.02
463.111	21995.87
463.316	21918.04
463.522	21184.87
463.727	21264.74
463.932	21242.21
464.138	20953.45
464.343	21154.15
464.549	20382.07
464.754	21293.41
464.959	20775.28
465.165	21168.49
465.37	20121.98
465.575	19388.8
465.781	20345.2
465.986	20138.36
466.191	19782.01
466.397	19210.63
466.602	18422.16
466.807	18962.83
467.012	19050.89
467.218	19030.41
467.423	18665.87
467.628	18798.99
467.833	19675.52
468.038	18762.12
468.244	18538.9
468.449	19048.84
468.654	18168.21
468.859	18235.8
469.064	18241.94
469.269	17432.99
469.474	17797.53
469.679	18035.1
469.885	17316.26
470.09	17695.13
470.295	17521.06
470.5	16974.25
470.705	17377.7
470.91	17009.06
471.115	16701.87
471.32	16757.16
471.525	16732.59
471.73	16570.8
471.935	16161.2
472.139	15950.26
472.344	15917.5
472.549	15858.1
472.754	15700.41
472.959	15276.48
473.164	15090.12
473.369	14940.61
473.574	15344.06
473.778	15530.43
473.983	15352.26
474.188	15243.71
474.393	14336.46
474.598	14547.4
474.802	14504.4
475.007	14447.05
475.212	14285.26
475.417	13650.39
475.621	13769.18
475.826	13660.63
476.031	13357.53
476.235	13240.8
476.44	13418.97
476.645	13455.84
476.849	13271.52
477.054	12962.28
477.259	12669.42
477.463	12849.64
477.668	12544.49
477.872	12673.51
478.077	12632.55
478.282	12044.79
478.486	11864.57
478.691	12132.85
478.895	11899.38
479.1	12118.51
479.304	11895.29
479.509	11540.99
479.713	11815.41
479.918	11549.18
480.122	11444.73
480.326	11528.7
480.531	11483.64
480.735	11362.81
480.94	11358.72
481.144	11696.63
481.348	11100.67
481.553	11155.97
481.757	10971.65
481.961	11268.61
482.166	11291.13
482.37	11141.63
482.574	10910.21
482.778	11115.01
482.983	11268.61
483.187	10969.6
483.391	11225.6
483.595	10981.89
483.8	10891.78
484.004	11104.77
484.208	11084.29
484.412	10988.03
484.616	11098.63
484.821	11072
485.025	10764.81
485.229	11117.06
485.433	10832.39
485.637	10945.03
485.841	10947.08
486.045	10850.82
486.249	11047.43
486.453	11061.76
486.657	10918.4
486.861	11000.32
487.065	10629.64
487.269	11112.96
487.473	10897.92
487.677	11194.88
487.881	11145.73
488.085	11067.91
488.289	11119.1
488.493	11063.81
488.697	10914.31
488.901	11014.66
489.105	10912.26
489.309	11409.92
489.512	11166.21
489.716	10940.93
489.92	11192.83
490.124	11137.54
490.328	11385.34
490.531	11090.43
490.735	11469.31
490.939	11276.8
491.143	11319.81
491.346	11414.01
491.55	11622.91
491.754	11528.7
491.958	11332.09
492.161	11575.8
492.365	11790.84
492.569	11702.78
492.772	11608.57
492.976	11665.91
493.18	11854.33
493.383	11903.48
493.587	11901.43
493.79	12012.02
493.994	11926
494.197	11889.14
494.401	12284.4
494.605	12231.15
494.808	12567.02
495.012	12374.51
495.215	12415.47
495.419	12585.45
495.622	12495.34
495.825	12749.29
496.029	12702.18
496.232	13079.01
496.436	12980.71
496.639	13531.61
496.843	13277.66
497.046	13570.52
497.249	13648.35
497.453	13697.5
497.656	13947.35
497.859	14084.56
498.063	14205.39
498.266	14578.12
498.469	14303.7
498.673	14385.62
498.876	14666.19
499.079	14916.04
499.282	14952.9
499.485	15235.52
499.689	15251.91
499.892	15438.27
500.095	15499.71
500.298	15962.55
500.501	15851.96
500.705	16110
500.908	16447.92
501.111	16439.73
501.314	16687.53
501.517	16705.96
501.72	16912.81
501.923	17027.49
502.126	17422.75
502.329	17476
502.532	17840.54
502.735	17957.27
502.938	18022.81
503.141	18114.97
503.344	18592.14
503.547	18579.86
503.75	18745.74
503.953	19493.25
504.156	19267.97
504.359	19452.29
504.562	19581.31
504.765	19929.47
504.968	20171.13
505.17	20537.71
505.373	20367.73
505.576	20851.05
505.779	21051.75
505.982	21121.38
506.185	21709.15
506.387	21590.37
506.59	21700.96
506.793	22538.58
506.996	22075.74
507.198	22806.86
507.401	22491.48
507.604	23138.63
507.807	23255.37
508.009	23540.04
508.212	23537.99
508.415	23875.9
508.617	24439.09
508.82	24430.9
509.022	24496.44
509.225	24949.04
509.428	25041.2
509.63	25366.82
509.833	25217.32
510.035	26274.07
510.238	25827.62
510.44	26034.46
510.643	26573.08
510.845	26761.49
511.048	26485.01
511.25	27044.11
511.453	27216.14
511.655	28248.32
511.858	27951.36
512.06	28006.66
512.262	28127.49
512.465	28537.08
512.667	28782.84
512.87	28950.77
513.072	29237.48
513.274	29870.31
513.477	30073.06
513.679	30306.52
513.881	30519.51
514.084	30787.8
514.286	30669.01
514.488	30871.76
514.69	31602.89
514.893	31850.69
515.095	32106.69
515.297	32270.53
515.499	32395.45
515.701	32852.15
515.904	33396.91
516.106	33206.45
516.308	33437.87
516.51	33913
516.712	33724.58
516.914	34261.15
517.116	34830.49
517.318	34683.03
517.52	34764.95
517.722	35281.04
517.925	35485.84
518.127	36194.43
518.329	35954.82
518.531	35991.69
518.733	36538.49
518.935	37298.29
519.136	36880.5
519.338	37419.12
519.54	37859.43
519.742	37746.79
519.944	37791.85
520.146	38246.5
520.348	38615.13
520.55	39510.1
520.752	39123.03
520.954	39694.41
521.155	39303.25
521.357	39833.67
521.559	40216.64
521.761	40818.75
521.963	40677.44
522.164	40755.26
522.366	40722.49
522.568	41379.89
522.77	41261.11
522.971	41861.16
523.173	41453.62
523.375	42223.65
523.576	41746.48
523.778	42403.88
523.98	42459.17
524.181	42895.39
524.383	42641.44
524.584	43538.45
524.786	43368.47
524.988	43161.62
525.189	43538.45
525.391	44042.25
525.592	44007.44
525.794	43878.41
525.995	44412.93
526.197	44410.89
526.398	44406.79
526.6	44754.94
526.801	45223.93
527.003	45471.73
527.204	45209.59
527.406	45660.15
527.607	45778.93
527.808	45617.14
528.01	45029.37
528.211	45619.19
528.412	46718.95
528.614	45856.75
528.815	46172.14
529.016	46342.12
529.218	46106.6
529.419	46155.75
529.62	46409.7
529.822	46041.07
530.023	46516.2
530.224	46438.37
530.425	46577.64
530.626	46174.19
530.828	46049.26
531.029	47280.09
531.23	46716.9
531.431	46475.24
531.632	47200.22
531.833	46815.2
532.035	46970.85
532.236	47052.76
532.437	47216.6
532.638	46995.42
532.839	47030.24
533.04	47474.65
533.241	46546.92
533.442	47849.42
533.643	46870.5
533.844	46960.61
534.045	47415.26
534.246	47054.81
534.447	47443.93
534.648	47192.03
534.849	47415.26
535.05	46733.28
535.251	46907.36
535.451	47069.15
535.652	47337.43
535.853	47286.23
536.054	47366.1
536.255	47740.88
536.456	46882.78
536.657	47898.58
536.857	47126.49
537.058	47060.96
537.259	47687.64
537.46	47196.12
537.66	47249.37
537.861	47335.38
538.062	46901.21
538.263	47398.87
538.463	47030.24
538.664	47323.1
538.865	47308.76
539.065	47267.8
539.266	46866.4
539.466	47675.35
539.667	46626.79
539.868	47210.46
540.068	47235.03
540.269	46958.56
540.469	47138.78
540.67	46970.85
540.87	47237.08
541.071	46819.3
541.271	47216.6
541.472	47087.58
541.672	46968.8
541.873	46741.47
542.073	46657.51
542.274	47165.4
542.474	47054.81
542.675	46516.2
542.875	47140.83
543.075	47007.71
543.276	46340.07
543.476	47114.2
543.676	46393.32
543.877	46747.62
544.077	46821.34
544.277	46618.6
544.478	46614.5
544.678	47161.31
544.878	46563.3
545.078	47108.06
545.279	46573.54
545.479	46653.41
545.679	46624.74
545.879	46888.93
546.079	46653.41
546.28	46233.58
546.48	46518.24
546.68	46628.84
546.88	46829.54
547.08	46622.69
547.28	46391.27
547.48	45832.18
547.68	46411.75
547.88	46221.29
548.081	46604.26
548.281	46426.09
548.481	46389.22
548.681	46841.82
548.881	46262.25
549.081	46184.43
549.28	46319.59
549.48	46346.22
549.68	46649.31
549.88	47015.9
550.08	46063.6
550.28	46254.06
550.48	46360.55
550.68	46671.84
550.88	46157.8
551.08	45924.33
551.279	46374.89
551.479	46176.23
551.679	46434.28
551.879	46053.36
552.079	46462.95
552.278	46161.9
552.478	45993.96
552.678	45647.86
552.878	46174.19
553.077	45629.43
553.277	45766.64
553.477	46546.92
553.676	45789.17
553.876	45965.29
554.076	45578.23
554.275	45254.65
554.475	45393.91
554.674	45697.01
554.874	45864.94
555.074	45359.09
555.273	45654
555.473	46333.93
555.672	45764.59
555.872	45596.66
556.071	45400.05
556.271	45434.87
556.47	45234.17
556.67	45078.52
556.869	45492.21
557.068	45545.46
557.268	45297.66
557.467	45408.25
557.667	45461.49
557.866	45438.97
558.065	45447.16
558.265	45045.76
558.464	44752.9
558.663	45524.98
558.863	44531.72
559.062	45223.93
559.261	44941.31
559.461	45385.72
559.66	44384.26
559.859	44670.98
560.058	44564.48
560.258	44947.45
560.457	44365.83
560.656	44554.24
560.855	44363.78
561.054	44357.64
561.253	44085.26
561.453	44408.84
561.652	44341.25
561.851	44488.71
562.05	44109.83
562.249	44326.92
562.448	44302.34
562.647	44169.22
562.846	44165.13
563.045	43816.97
563.244	44113.93
563.443	44390.41
563.642	43214.87
563.841	44095.5
564.04	43524.11
564.239	44292.1
564.438	43407.38
564.637	43671.57
564.836	43849.74
565.035	43171.86
565.234	43659.28
565.432	43046.94
565.631	43395.09
565.83	43434
566.029	42827.81
566.228	43077.66
566.427	42985.5
566.625	42842.14
566.824	42760.22
567.023	43155.48
567.222	42264.61
567.42	42913.82
567.619	42680.35
567.818	42694.69
568.016	42522.66
568.215	42922.01
568.414	42375.2
568.612	42719.26
568.811	42360.87
569.01	42747.93
569.208	41836.59
569.407	41842.73
569.605	41703.47
569.804	42162.22
570.002	41551.92
570.201	41965.61
570.4	41693.23
570.598	41699.37
570.797	41138.23
570.995	41535.54
571.193	40929.34
571.392	41949.23
571.59	41064.5
571.789	41482.29
571.987	41013.3
572.186	41304.12
572.384	40687.68
572.582	41044.02
572.781	41039.93
572.979	40446.02
573.177	40896.57
573.376	41048.12
573.574	40138.82
573.772	40773.69
573.971	40130.63
574.169	40300.61
574.367	40339.52
574.565	40400.96
574.763	40216.64
574.962	40097.86
575.16	39807.05
575.358	39974.98
575.556	39233.62
575.754	40206.41
575.952	39598.16
576.151	39727.18
576.349	39321.68
576.547	39413.84
576.745	39624.78
576.943	39626.83
577.141	39426.13
577.339	39237.72
577.537	38885.47
577.735	39190.61
577.933	38807.64
578.131	39141.46
578.329	38600.8
578.527	38484.06
578.725	38488.16
578.923	38623.33
579.121	38424.67
579.319	38260.83
579.516	38402.14
579.714	38355.04
579.912	38221.92
580.11	37861.48
580.308	38180.96
580.506	37836.91
580.704	37075.06
580.901	37908.58
581.099	37668.97
581.297	37286
581.495	37460.08
581.692	37492.85
581.89	37161.08
582.088	37144.69
582.285	37279.86
582.483	37374.06
582.681	36900.98
582.878	36817.02
583.076	36647.04
583.274	36788.35
583.471	36180.1
583.669	36554.88
583.866	36051.08
584.064	36569.21
584.262	36089.99
584.459	36049.03
584.657	35721.35
584.854	36034.69
585.052	35403.92
585.249	35848.33
585.447	35850.38
585.644	35582.09
585.841	35735.69
586.039	36008.07
586.236	35104.92
586.434	35141.78
586.631	35274.9
586.828	34945.17
587.026	35338.38
587.223	35074.2
587.42	34490.52
587.618	35100.82
587.815	34541.72
588.012	34439.33
588.21	34076.83
588.407	34416.8
588.604	34924.69
588.801	34226.34
588.999	33972.39
589.196	34154.66
589.393	33945.76
589.59	33763.5
589.787	33364.14
589.984	33714.34
590.182	33743.02
590.379	33861.8
590.576	33349.81
590.773	33657
590.97	33149.1
591.167	33640.62
591.364	32839.86
591.561	33093.81
591.758	32901.3
591.955	32391.36
592.152	33042.61
592.349	32905.4
592.546	32628.92
592.743	32643.26
592.94	31983.81
593.137	32272.57
593.334	32745.65
593.531	31877.32
593.727	32159.94
593.924	32049.35
594.121	31654.09
594.318	32137.41
594.515	31523.02
594.712	31856.84
594.908	31467.72
595.105	31932.61
595.302	31381.71
595.499	31361.23
595.696	30947.54
595.892	30914.77
596.089	31123.66
596.286	30939.35
596.482	30755.03
596.679	30884.05
596.876	30712.02
597.072	30537.94
597.269	30480.6
597.466	30494.94
597.662	30316.76
597.859	30722.26
598.055	30157.02
598.252	29939.94
598.448	30109.92
598.645	29853.92
598.841	29638.89
599.038	30062.82
599.234	29774.05
599.431	29661.41
599.627	29585.64
599.824	29616.36
600.02	29337.83
600.217	29120.75
600.413	29114.61
600.609	29276.4
600.806	28885.23
601.002	29071.6
601.198	28741.88
601.395	28457.21
601.591	28559.61
601.787	28616.95
601.984	28520.7
602.18	28639.48
602.376	28430.58
602.572	28487.93
602.769	28268.8
602.965	28193.02
603.161	28190.97
603.357	27994.37
603.553	27844.87
603.75	27746.56
603.946	27388.17
604.142	28076.29
604.338	27105.55
604.534	27582.73
604.73	27361.55
604.926	27459.85
605.122	27218.19
605.318	27162.89
605.514	26956.05
605.71	26960.14
605.906	26835.22
606.102	26896.66
606.298	26849.55
606.494	26476.82
606.69	26741.01
606.886	26745.11
607.082	26419.48
607.278	26997.01
607.474	26056.99
607.67	26327.32
607.866	26474.77
608.062	26450.2
608.257	26335.51
608.453	26403.1
608.649	26218.78
608.845	25602.34
609.041	26167.58
609.236	26036.51
609.432	25848.1
609.628	25647.4
609.824	25807.14
610.019	25268.52
610.215	26005.79
610.411	25655.59
610.606	25196.84
610.802	25463.08
610.998	25403.69
611.193	25520.42
611.389	25147.69
611.584	25196.84
611.78	25350.44
611.976	25358.63
612.171	25041.2
612.367	24791.34
612.562	24766.77
612.758	24856.88
612.953	24596.79
613.149	25080.11
613.344	24783.15
613.539	25274.67
613.735	24852.78
613.93	24604.98
614.126	24697.14
614.321	24901.93
614.517	24647.99
614.712	24379.7
614.907	24357.17
615.103	24385.85
615.298	24090.94
615.493	24709.43
615.688	24209.72
615.884	24774.96
616.079	23986.49
616.274	24629.55
616.47	24222.01
616.665	24275.26
616.86	23861.57
617.055	23828.8
617.25	23859.52
617.445	24275.26
617.641	23720.26
617.836	24125.75
618.031	23497.03
618.226	23793.98
618.421	23542.08
618.616	23687.49
618.811	23310.66
619.006	23775.55
619.201	23298.38
619.396	23109.96
619.591	23048.52
619.786	23218.5
619.981	22677.84
620.176	22901.07
620.371	22489.43
620.566	22796.62
620.761	22600.02
620.956	23021.9
621.151	22088.03
621.346	22382.93
621.541	22092.12
621.735	22112.6
621.93	21885.28
622.125	21987.68
622.32	21735.78
622.515	21645.66
622.709	21541.22
622.904	21545.31
623.099	21447.01
623.294	21293.41
623.488	21059.95
623.683	20975.98
623.878	20752.75
624.072	20730.22
624.267	20650.35
624.462	20588.91
624.656	20431.22
624.851	20349.3
625.046	20156.79
625.24	20318.58
625.435	19841.4
625.629	19833.21
625.824	19818.88
626.018	19865.98
626.213	19540.35
626.407	19374.47
626.602	19243.4
626.796	19511.68
626.991	19212.68
627.185	18993.54
627.38	19059.08
627.574	18659.73
627.768	18758.03
627.963	18600.33
628.157	18692.49
628.352	18674.06
628.546	18522.51
628.74	18407.83
628.935	18080.15
629.129	17998.23
629.323	17934.74
629.517	18094.49
629.712	17854.87
629.906	17678.75
630.1	17492.38
630.294	17848.73
630.489	17476
630.683	17701.28
630.877	17158.56
631.071	17174.95
631.265	16957.86
631.459	17056.17
631.653	16853.42
631.848	16798.12
632.042	16679.34
632.236	16599.47
632.43	16578.99
632.624	16841.13
632.818	16314.8
633.012	16316.85
633.206	16173.49
633.4	16251.31
633.594	16140.72
633.788	16021.94
633.982	16105.91
634.176	15946.17
634.369	15813.05
634.563	15569.34
634.757	15677.88
634.951	15759.8
635.145	15589.82
635.339	15610.3
635.533	15176.13
635.726	15143.36
635.92	14846.41
636.114	15126.98
636.308	14991.81
636.501	15116.74
636.695	14954.95
636.889	14957
637.083	14817.74
637.276	14825.93
637.47	14410.19
637.664	14680.52
637.857	14578.12
638.051	14281.17
638.244	14049.75
638.438	14049.75
638.632	14012.88
638.825	13887.96
639.019	13890.01
639.212	13836.76
639.406	13803.99
639.599	13849.05
639.793	13681.11
639.986	13603.29
640.18	13507.04
640.373	13451.74
640.567	13171.17
640.76	13287.9
640.954	13142.5
641.147	13140.45
641.34	12933.61
641.534	12892.65
641.727	13132.26
641.92	13146.59
642.114	13007.33
642.307	12585.45
642.5	12677.61
642.694	12517.87
642.887	12491.24
643.08	12693.99
643.273	12454.38
643.467	12458.48
643.66	12392.94
643.853	12149.23
644.046	11964.92
644.239	12177.9
644.432	11928.05
644.626	11909.62
644.819	12145.14
645.012	11885.05
645.205	11934.2
645.398	11762.17
645.591	11612.67
645.784	11670.01
645.977	11409.92
646.17	11483.64
646.363	11510.27
646.556	11278.85
646.749	11262.46
646.942	11371.01
647.135	11176.45
647.328	11127.3
647.521	11110.91
647.714	10920.45
647.907	10963.46
648.099	10981.89
648.292	10834.44
648.485	10723.85
648.678	10643.98
648.871	10705.42
649.064	10471.95
649.256	10705.42
649.449	10551.82
649.642	10402.32
649.835	10357.26
650.027	10138.13
650.22	10420.75
650.413	10261.01
650.605	10168.85
650.798	10336.78
650.991	10164.75
651.183	10103.31
651.376	9792.02
651.568	9937.43
651.761	9884.18
651.954	9773.59
652.146	9798.17
652.339	9761.3
652.531	9630.23
652.724	9673.24
652.916	9349.66
653.109	9644.57
653.301	9439.77
653.494	9341.47
653.686	9185.82
653.879	9280.03
654.071	9112.1
654.263	9056.8
654.456	9249.31
654.648	9241.12
654.84	8942.11
655.033	9005.6
655.225	8978.98
655.417	8864.29
655.61	9001.51
655.802	8782.37
655.994	8757.8
656.186	8839.72
656.379	8602.15
656.571	8665.64
656.763	8395.31
656.955	8579.62
657.148	8372.78
657.34	8481.32
657.532	8378.92
657.724	8464.94
657.916	8096.3
658.108	8391.21
658.3	8081.97
658.492	8376.87
658.684	8180.27
658.876	8108.59
659.068	8145.45
659.26	7965.23
659.452	8006.19
659.644	7914.03
659.836	7821.88
660.028	7967.28
660.22	7748.15
660.412	7684.66
660.604	7578.17
660.796	7803.44
660.988	7664.18
661.18	7406.14
661.372	7500.34
661.563	7504.44
661.755	7424.57
661.947	7379.51
662.139	7213.63
662.331	7350.84
662.522	7313.98
662.714	7115.33
662.906	7379.51
663.097	7184.96
663.289	7201.34
663.481	7180.86
663.673	7014.98
663.864	7012.93
664.056	7078.46
664.247	6939.2
664.439	6928.96
664.631	6836.8
664.822	6820.42
665.014	6951.49
665.205	6914.63
665.397	6734.4
665.588	6632.01
665.78	6648.39
665.971	6476.36
666.163	6560.33
666.354	6449.74
666.546	6419.02
666.737	6378.06
666.929	6433.35
667.12	6507.08
667.311	6453.83
667.503	6355.53
667.694	6355.53
667.885	6281.8
668.077	6441.54
668.268	6038.09
668.459	6107.73
668.651	6253.13
668.842	6085.2
669.033	6271.56
669.224	5986.9
669.416	6019.66
669.607	5882.45
669.798	5872.21
669.989	6113.87
670.18	5884.5
670.371	5818.96
670.563	6042.19
670.754	5921.36
670.945	5775.95
671.136	5960.27
671.327	5800.53
671.518	5614.16
671.709	5603.93
671.9	5691.99
672.091	5605.97
672.282	5577.3
672.473	5513.81
672.664	5616.21
672.855	5440.09
673.046	5509.72
673.237	5593.69
673.428	5546.58
673.619	5446.23
673.809	5411.42
674	5405.27
674.191	5409.37
674.382	5309.02
674.573	5306.97
674.764	5358.17
674.954	5296.73
675.145	5214.81
675.336	5296.73
675.527	5173.85
675.717	5288.54
675.908	5128.8
676.099	5147.23
676.289	5188.19
676.48	5149.28
676.671	5077.6
676.861	5083.74
677.052	5059.17
677.243	5096.03
677.433	5128.8
677.624	4989.53
677.814	5007.97
678.005	5024.35
678.195	5003.87
678.386	4999.77
678.576	4842.08
678.767	4887.14
678.957	5042.78
679.148	4938.34
679.338	4784.74
679.529	4926.05
679.719	4797.03
679.909	4842.08
680.1	4721.25
680.29	4760.16
680.481	4727.39
680.671	4700.77
680.861	4833.89
681.052	4883.04
681.242	4653.67
681.432	4819.55
681.622	4674.15
681.813	4733.54
682.003	4827.74
682.193	4723.3
682.383	4657.76
682.573	4584.04
682.764	4498.02
682.954	4602.47
683.144	4553.32
683.334	4567.65
683.524	4430.44
683.714	4545.13
683.904	4450.92
684.094	4606.56
684.284	4620.9
684.474	4618.85
684.664	4510.31
684.854	4387.43
685.044	4354.66
685.234	4442.73
685.424	4596.32
685.614	4412.01
685.804	4481.64
685.994	4483.69
686.184	4325.99
686.374	4391.53
686.564	4319.85
686.753	4348.52
686.943	4207.21
687.133	4307.56
687.323	4301.42
687.513	4264.55
687.702	4067.95
687.892	4315.75
688.082	4108.91
688.272	4074.09
688.461	4141.68
688.651	3977.84
688.841	4016.75
689.03	4065.9
689.22	4131.44
689.41	3994.22
689.599	4115.05
689.789	3863.15
689.979	4080.24
690.168	3947.12
690.358	3969.65
690.547	3877.49
690.737	3687.03
690.926	3846.77
691.116	3676.79
691.305	3746.42
691.495	3779.18
691.684	3664.5
691.874	3857.01
692.063	3711.6
692.252	3658.35
692.442	3615.35
692.631	3613.3
692.82	3705.46
693.01	3652.21
693.199	3664.5
693.388	3566.2
693.578	3592.82
693.767	3629.68
693.956	3596.92
694.146	3527.28
694.335	3340.92
694.524	3345.02
694.713	3537.52
694.902	3406.45
695.092	3388.02
695.281	3347.06
695.47	3527.28
695.659	3484.28
695.848	3379.83
696.037	3355.26
696.226	3347.06
696.415	3254.9
696.604	3314.3
696.793	3410.55
696.982	3205.75
697.171	3220.09
697.36	3269.24
697.549	3138.17
697.738	3269.24
697.927	3193.47
698.116	3115.64
698.305	3220.09
698.494	3070.59
698.683	3097.21
698.872	3168.89
699.061	3097.21
699.25	3029.63
699.438	3144.31
699.627	3046.01
699.816	3099.26
700.005	2943.61
700.193	3070.59
700.382	2970.24
700.571	3000.96
700.76	2947.71
700.948	3115.64
701.137	3099.26
701.326	3003
701.514	2949.76
701.703	2972.29
701.892	2908.8
702.08	2988.67
702.269	2882.17
702.457	2835.07
702.646	2925.18
702.834	2816.64
703.023	2880.13
703.212	2849.41
703.4	2869.89
703.589	2925.18
703.777	2919.04
703.965	2697.86
704.154	2820.74
704.342	2790.02
704.531	2755.2
704.719	2747.01
704.907	2835.07
705.096	2755.2
705.284	2693.76
705.472	2755.2
705.661	2683.52
705.849	2794.11
706.037	2802.3
706.226	2708.1
706.414	2767.49
706.602	2712.19
706.79	2753.15
706.979	2730.62
707.167	2603.65
707.355	2704
707.543	2757.25
707.731	2771.58
707.919	2603.65
708.107	2697.86
708.296	2673.28
708.484	2732.67
708.672	2765.44
708.86	2732.67
709.048	2708.1
709.236	2646.66
709.424	2722.43
709.612	2599.55
709.8	2636.42
709.988	2583.17
710.176	2478.72
710.364	2527.88
710.551	2583.17
710.739	2736.77
710.927	2685.57
711.115	2589.32
711.303	2560.64
711.491	2488.96
711.679	2587.27
711.866	2507.4
712.054	2589.32
712.242	2519.68
712.43	2620.03
712.617	2601.6
712.805	2456.2
712.993	2525.83
713.181	2566.79
713.368	2560.64
713.556	2540.16
713.744	2540.16
713.931	2527.88
714.119	2552.45
714.306	2601.6
714.494	2501.25
714.682	2605.7
714.869	2583.17
715.057	2652.8
715.244	2480.77
715.432	2585.22
715.619	2550.4
715.807	2564.74
715.994	2540.16
716.182	2581.12
716.369	2609.79
716.556	2540.16
716.744	2402.95
716.931	2437.77
717.119	2546.31
717.306	2634.37
717.493	2470.53
717.681	2415.24
717.868	2392.71
718.055	2613.89
718.242	2548.36
718.43	2583.17
718.617	2419.33
718.804	2435.72
718.991	2507.4
719.179	2513.54
719.366	2499.2
719.553	2493.06
719.74	2419.33
719.927	2525.83
720.114	2534.02
720.301	2488.96
720.488	2511.49
720.676	2429.57
720.863	2497.16
721.05	2577.03
721.237	2452.1
721.424	2472.58
721.611	2574.98
721.798	2452.1
721.985	2540.16
722.172	2515.59
722.358	2482.82
722.545	2349.7
722.732	2466.44
722.919	2452.1
723.106	2534.02
723.293	2454.15
723.48	2507.4
723.667	2456.2
723.853	2419.33
724.04	2484.87
724.227	2384.52
724.414	2470.53
724.6	2409.09
724.787	2519.68
724.974	2441.86
725.161	2411.14
725.347	2476.68
725.534	2372.23
725.72	2458.25
725.907	2466.44
726.094	2335.37
726.28	2396.81
726.467	2458.25
726.653	2425.48
726.84	2409.09
727.027	2325.13
727.213	2503.3
727.4	2292.36
727.586	2339.46
727.773	2423.43
727.959	2429.57
728.145	2421.38
728.332	2407.05
728.518	2417.29
728.705	2450.05
728.891	2531.97
729.077	2503.3
729.264	2507.4
729.45	2480.77
729.636	2392.71
729.823	2476.68
730.009	2554.5
730.195	2458.25
730.382	2478.72
730.568	2517.64
730.754	2294.41
730.94	2421.38
731.126	2411.14
731.313	2499.2
731.499	2472.58
731.685	2327.18
731.871	2431.62
732.057	2400.9
732.243	2372.23
732.429	2433.67
732.615	2351.75
732.801	2364.04
732.987	2480.77
733.173	2407.05
733.359	2351.75
733.545	2409.09
733.731	2484.87
733.917	2359.94
734.103	2333.32
734.289	2474.63
734.475	2429.57
734.661	2337.41
734.847	2353.8
735.033	2476.68
735.219	2380.42
735.404	2364.04
735.59	2353.8
735.776	2517.64
735.962	2441.86
736.148	2396.81
736.333	2390.66
736.519	2435.72
736.705	2394.76
736.89	2290.31
737.076	2265.74
737.262	2273.93
737.447	2339.46
737.633	2335.37
737.819	2308.74
738.004	2337.41
738.19	2308.74
738.375	2216.58
738.561	2216.58
738.747	2398.85
738.932	2251.4
739.118	2286.22
739.303	2232.97
739.489	2282.12
739.674	2288.26
739.859	2298.5
740.045	2306.7
740.23	2228.87
740.416	2159.24
740.601	2398.85
740.786	2185.87
740.972	2157.19
741.157	2095.75
741.342	2220.68
741.528	2179.72
741.713	2316.94
741.898	2194.06
742.084	2118.28
742.269	2230.92
742.454	2222.73
742.639	2167.43
742.824	2220.68
743.01	2222.73
743.195	2140.81
743.38	2146.95
743.565	2130.57
743.75	2130.57
743.935	2024.08
744.12	2196.11
744.305	2036.36
744.49	2085.51
744.675	2124.43
744.86	2019.98
745.045	2095.75
745.23	1944.2
745.415	2036.36
745.6	2040.46
745.785	2036.36
745.97	2077.32
746.155	1923.73
746.34	1985.16
746.525	2007.69
746.71	1911.44
746.895	2062.99
747.079	1845.9
747.264	1886.86
747.449	1944.2
747.634	2017.93
747.819	1905.29
748.003	1880.72
748.188	1806.99
748.373	1899.15
748.557	1786.51
748.742	1897.1
748.927	1788.56
749.111	1784.46
749.296	1782.42
749.481	1798.8
749.665	1757.84
749.85	1792.66
750.034	1815.18
750.219	1692.3
750.404	1786.51
750.588	1794.7
750.773	1774.22
750.957	1671.83
751.141	1604.24
751.326	1682.06
751.51	1630.87
751.695	1632.91
751.879	1684.11
752.064	1710.74
752.248	1520.28
752.432	1630.87
752.617	1632.91
752.801	1630.87
752.985	1602.19
753.17	1589.91
753.354	1538.71
753.538	1526.42
753.722	1567.38
753.907	1548.95
754.091	1454.74
754.275	1530.52
754.459	1567.38
754.643	1426.07
754.828	1565.33
755.012	1372.82
755.196	1491.6
755.38	1553.04
755.564	1444.5
755.748	1352.34
755.932	1522.32
756.116	1430.16
756.3	1471.12
756.484	1385.11
756.668	1467.03
756.852	1387.16
757.036	1368.73
757.22	1340.05
757.404	1317.53
757.588	1340.05
757.772	1454.74
757.956	1303.19
758.14	1333.91
758.323	1260.18
758.507	1284.76
758.691	1303.19
758.875	1295
759.059	1260.18
759.242	1264.28
759.426	1233.56
759.61	1192.6
759.794	1229.46
759.977	1213.08
760.161	1161.88
760.345	1192.6
760.528	1219.22
760.712	1108.63
760.895	1174.17
761.079	1174.17
761.263	1192.6
761.446	1184.41
761.63	1186.46
761.813	1233.56
761.997	1155.74
762.18	1192.6
762.364	1155.74
762.547	1090.2
762.731	1153.69
762.914	1118.87
763.098	1196.7
763.281	1153.69
763.464	1125.02
763.648	1125.02
763.831	1157.78
764.015	1143.45
764.198	1196.7
764.381	1034.91
764.564	938.65
764.748	1022.62
764.931	1030.81
765.114	1045.15
765.297	1041.05
765.481	985.76
765.664	1073.82
765.847	1067.67
766.03	1034.91
766.213	1018.52
766.397	1092.25
766.58	969.37
766.763	998.04
766.946	1092.25
767.129	1122.97
767.312	987.8
767.495	932.51
767.678	1004.19
767.861	1010.33
768.044	983.71
768.227	1012.38
768.41	918.17
768.593	1012.38
768.776	948.89
768.959	879.26
769.142	1043.1
769.324	993.95
769.507	955.04
769.69	991.9
769.873	856.73
770.056	1008.28
770.239	869.02
770.421	991.9
770.604	905.88
770.787	1036.95
770.97	860.83
771.152	955.04
771.335	934.56
771.518	922.27
771.7	864.93
771.883	930.46
772.066	799.39
772.248	969.37
772.431	895.64
772.613	817.82
772.796	789.15
772.978	932.51
773.161	955.04
773.343	807.58
773.526	838.3
773.708	832.16
773.891	854.69
774.073	764.57
774.256	791.2
774.438	930.46
774.621	733.86
774.803	832.16
774.985	801.44
775.168	836.25
775.35	778.91
775.532	807.58
775.715	754.34
775.897	783.01
776.079	723.62
776.261	735.9
776.444	713.38
776.626	826.01
776.808	735.9
776.99	682.66
777.173	717.47
777.355	750.24
777.537	748.19
777.719	723.62
777.901	651.94
778.083	656.03
778.265	576.16
778.447	703.14
778.629	727.71
778.811	567.97
778.993	656.03
779.175	729.76
779.357	742.05
779.539	635.55
779.721	629.41
779.903	582.31
780.085	572.07
780.267	594.59
780.449	623.27
780.631	684.7
780.812	629.41
780.994	682.66
781.176	668.32
781.358	627.36
781.54	639.65
781.721	662.18
781.903	666.27
782.085	590.5
782.267	610.98
782.448	561.83
782.63	621.22
782.812	524.96
782.993	500.39
783.175	518.82
783.357	557.73
783.538	576.16
783.72	531.11
783.901	518.82
784.083	447.14
784.264	531.11
784.446	553.63
784.627	539.3
784.809	481.96
784.99	514.72
785.172	508.58
785.353	524.96
785.535	545.44
785.716	477.86
785.897	484
786.079	527.01
786.26	502.43
786.441	420.52
786.623	565.92
786.804	436.9
786.985	481.96
787.167	455.33
787.348	492.2
787.529	410.28
787.71	447.14
787.891	510.63
788.073	373.41
788.254	381.6
788.435	504.48
788.616	455.33
788.797	406.18
788.978	498.34
789.159	365.22
789.34	416.42
789.522	373.41
789.703	410.28
789.884	428.71
790.065	465.57
790.246	404.13
790.427	389.8
790.607	418.47
790.788	387.75
790.969	393.89
791.15	387.75
791.331	361.13
791.512	336.55
791.693	371.36
791.874	354.98
792.054	404.13
792.235	375.46
792.416	430.76
792.597	391.84
792.778	352.93
792.958	328.36
793.139	361.13
793.32	309.93
793.5	400.04
793.681	377.51
793.862	348.84
794.042	365.22
794.223	326.31
794.404	318.12
794.584	326.31
794.765	381.6
794.945	230.06
795.126	359.08
795.306	234.15
795.487	303.78
795.667	264.87
795.848	291.49
796.028	346.79
796.209	324.26
796.389	369.32
796.57	287.4
796.75	279.21
796.93	397.99
797.111	225.96
797.291	262.82
797.471	410.28
797.652	291.49
797.832	240.29
798.012	408.23
798.192	291.49
798.373	316.07
798.553	264.87
798.733	281.25
798.913	279.21
799.093	316.07
799.274	299.69
799.454	289.45
799.634	297.64
799.814	279.21
799.994	281.25
800.174	273.06
800.354	219.82
800.534	287.4
800.714	279.21
800.894	307.88
801.074	264.87
801.254	160.42
801.434	307.88
801.614	223.91
801.794	221.86
801.974	604.83
802.154	148.14
802.334	311.97
802.514	244.39
802.693	246.44
802.873	238.25
803.053	250.53
803.233	211.62
803.413	236.2
803.592	244.39
803.772	238.25
803.952	193.19
804.131	244.39
804.311	244.39
804.491	305.83
804.67	193.19
804.85	199.34
805.03	283.3
805.209	223.91
805.389	256.68
805.568	191.14
805.748	248.49
805.928	246.44
806.107	125.61
806.287	223.91
806.466	139.94
806.646	185
806.825	113.32
807.004	182.95
807.184	209.58
807.363	119.46
807.543	297.64
807.722	232.1
807.901	248.49
808.081	262.82
808.26	185
808.439	213.67
808.619	180.9
808.798	215.72
808.977	185
809.156	225.96
809.336	203.43
809.515	197.29
809.694	182.95
809.873	129.7
810.052	182.95
810.231	152.23
810.411	205.48
810.59	160.42
810.769	164.52
810.948	203.43
811.127	111.27
811.306	205.48
811.485	211.62
811.664	189.1
811.843	203.43
812.022	271.01
812.201	205.48
812.38	119.46
812.559	137.9
812.737	234.15
812.916	137.9
813.095	178.86
813.274	158.38
813.453	152.23
813.632	207.53
813.811	223.91
813.989	141.99
814.168	115.37
814.347	144.04
814.526	168.62
814.704	189.1
814.883	217.77
815.062	139.94
815.24	131.75
815.419	152.23
815.598	121.51
815.776	82.6
815.955	150.18
816.133	197.29
816.312	72.36
816.49	88.75
816.669	225.96
816.847	107.18
817.026	201.38
817.204	131.75
817.383	189.1
817.561	164.52
817.74	164.52
817.918	215.72
818.097	203.43
818.275	152.23
818.453	201.38
818.632	127.66
818.81	101.03
818.988	86.7
819.167	76.46
819.345	109.22
819.523	160.42
819.701	139.94
819.879	121.51
820.058	62.12
820.236	164.52
820.414	84.65
820.592	127.66
820.77	141.99
820.948	125.61
821.127	127.66
821.305	187.05
821.483	111.27
821.661	174.76
821.839	129.7
822.017	141.99
822.195	70.31
822.373	86.7
822.551	150.18
822.729	41.64
822.907	111.27
823.085	82.6
823.262	78.51
823.44	162.47
823.618	94.89
823.796	131.75
823.974	55.98
824.152	53.93
824.329	131.75
824.507	96.94
824.685	107.18
824.863	123.56
825.04	72.36
825.218	129.7
825.396	86.7
825.574	133.8
825.751	72.36
825.929	70.31
826.107	119.46
826.284	96.94
826.462	60.07
826.639	41.64
826.817	98.99
826.994	31.4
827.172	29.35
827.349	90.79
827.527	98.99
827.704	123.56
827.882	98.99
828.059	92.84
828.237	25.26
828.414	103.08
828.591	4.78
828.769	101.03
828.946	45.74
829.124	53.93
829.301	103.08
829.478	70.31
829.655	107.18
829.833	78.51
830.01	135.85
830.187	82.6
830.364	135.85
830.542	70.31
830.719	62.12
830.896	47.79
831.073	60.07
831.25	168.62
831.427	62.12
831.604	101.03
831.782	41.64
831.959	152.23
832.136	84.65
832.313	109.22
832.49	45.74
832.667	72.36
832.844	66.22
833.021	2.73
833.198	78.51
833.374	80.55
833.551	15.02
833.728	31.4
833.905	141.99
834.082	90.79
834.259	51.88
834.436	156.33
834.612	96.94
834.789	68.27
834.966	150.18
835.143	92.84
835.319	23.21
835.496	144.04
835.673	105.13
835.85	68.27
836.026	53.93
836.203	156.33
836.38	35.5
836.556	45.74
836.733	84.65
836.909	53.93
837.086	45.74
837.262	31.4
837.439	33.45
837.616	78.51
837.792	15.02
837.968	74.41
838.145	55.98
838.321	37.55
838.498	27.31
838.674	121.51
838.851	74.41
839.027	55.98
839.203	39.59
839.38	78.51
839.556	25.26
839.732	113.32
839.909	96.94
840.085	0.68
840.261	49.83
840.437	109.22
840.614	43.69
840.79	66.22
840.966	29.35
841.142	66.22
841.318	19.11
841.494	164.52
841.671	70.31
841.847	72.36
842.023	86.7
842.199	37.55
842.375	55.98
842.551	-9.56
842.727	-5.46
842.903	37.55
843.079	29.35
843.255	148.14
843.431	78.51
843.607	37.55
843.783	70.31
843.959	39.59
844.134	8.87
844.31	70.31
844.486	33.45
844.662	64.17
844.838	21.16
845.013	123.56
845.189	74.41
845.365	82.6
845.541	-7.51
845.716	80.55
845.892	62.12
846.068	47.79
846.244	115.37
846.419	37.55
846.595	17.07
846.77	51.88
846.946	66.22
847.122	47.79
847.297	8.87
847.473	17.07
847.648	37.55
847.824	152.23
847.999	86.7
848.175	62.12
848.35	0.68
848.526	47.79
848.701	125.61
848.876	133.8
849.052	86.7
849.227	-40.28
849.403	60.07
849.578	37.55
849.753	58.03
849.929	94.89
850.104	17.07
850.279	29.35
850.454	78.51
850.63	12.97
850.805	51.88
850.98	4.78
851.155	23.21
851.33	41.64
851.505	43.69
851.681	148.14
851.856	-15.7
852.031	55.98
852.206	25.26
852.381	-7.51
852.556	15.02
852.731	62.12
852.906	29.35
853.081	60.07
853.256	19.11
853.431	25.26
853.606	-11.61
853.781	37.55
853.956	23.21
854.131	15.02
854.305	-15.7
854.48	-9.56
854.655	37.55
854.83	55.98
855.005	2.73
855.18	115.37
855.354	23.21
855.529	0.68
855.704	-11.61
855.879	45.74
856.053	31.4
856.228	53.93
856.403	12.97
856.577	37.55
856.752	21.16
856.926	109.22
857.101	-3.41
857.276	31.4
857.45	53.93
857.625	76.46
857.799	17.07
857.974	68.27
858.148	60.07
858.323	68.27
858.497	27.31
858.672	64.17
858.846	21.16
859.02	35.5
859.195	-11.61
859.369	-36.18
859.543	60.07
859.718	-15.7
859.892	66.22
860.066	29.35
860.241	80.55
860.415	-17.75
860.589	29.35
860.763	62.12
860.938	45.74
861.112	76.46
861.286	33.45
861.46	86.7
861.634	-17.75
861.808	86.7
861.982	29.35
862.157	62.12
862.331	4.78
862.505	23.21
862.679	45.74
862.853	94.89
863.027	23.21
863.201	25.26
863.375	-46.42
863.549	39.59
863.722	-3.41
863.896	86.7
864.07	15.02
864.244	6.83
864.418	39.59
864.592	12.97
864.766	31.4
864.939	78.51
865.113	27.31
865.287	39.59
865.461	6.83
865.634	37.55
865.808	4.78
865.982	25.26
866.156	51.88
866.329	-11.61
866.503	31.4
866.676	45.74
866.85	78.51
867.024	37.55
867.197	-32.08
867.371	84.65
867.544	-3.41
867.718	12.97
867.891	68.27
868.065	-42.32
868.238	39.59
868.412	6.83
868.585	109.22
868.759	27.31
868.932	6.83
869.105	80.55
869.279	-21.85
869.452	-1.37
869.625	70.31
869.799	37.55
869.972	-17.75
870.145	-5.46
870.319	-17.75
870.492	2.73
870.665	4.78
870.838	-15.7
871.011	-34.13
871.185	-54.61
871.358	-7.51
871.531	27.31
871.704	-17.75
871.877	19.11
872.05	27.31
872.223	-21.85
872.396	21.16
872.569	21.16
872.742	41.64
872.915	-42.32
873.088	84.65
873.261	25.26
873.434	-11.61
873.607	10.92
873.78	10.92
873.953	4.78
874.126	51.88
874.299	70.31
874.471	45.74
874.644	107.18
874.817	-34.13
874.99	72.36
875.163	33.45
875.335	55.98
875.508	-48.47
875.681	74.41
875.853	19.11
876.026	-1.37
876.199	86.7
876.371	29.35
876.544	37.55
876.717	29.35
876.889	6.83
877.062	43.69
877.234	8.87
877.407	15.02
877.579	35.5
877.752	-13.65
877.924	-32.08
878.097	-32.08
878.269	-87.38
878.442	-38.23
878.614	29.35
878.786	47.79
878.959	43.69
879.131	41.64
879.303	19.11
879.476	6.83
879.648	-66.9
879.82	27.31
879.993	51.88
880.165	21.16
880.337	-19.8
880.509	-1.37
880.681	-36.18
880.854	23.21
881.026	-17.75
881.198	53.93
881.37	-11.61
881.542	60.07
881.714	21.16
881.886	12.97
882.058	43.69
882.23	51.88
882.402	6.83
882.574	53.93
882.746	0.68
882.918	51.88
883.09	35.5
883.262	12.97
883.434	-60.76
883.606	-9.56
883.778	25.26
883.95	64.17
884.122	53.93
884.293	78.51
884.465	39.59
884.637	72.36
884.809	-34.13
884.98	-15.7
885.152	-5.46
885.324	41.64
885.496	-5.46
885.667	53.93
885.839	45.74
886.011	39.59
886.182	21.16
886.354	115.37
886.525	35.5
886.697	45.74
886.869	12.97
887.04	47.79
887.212	37.55
887.383	-3.41
887.555	-30.04
887.726	-40.28
887.897	-101.72
888.069	37.55
888.24	43.69
888.412	12.97
888.583	-44.37
888.754	12.97
888.926	-42.32
889.097	2.73
889.268	-48.47
889.44	-19.8
889.611	-44.37
889.782	-11.61
889.953	8.87
890.125	37.55
890.296	37.55
890.467	17.07
890.638	19.11
890.809	-23.89
890.98	12.97
891.151	-11.61
891.323	103.08
891.494	-3.41
891.665	-7.51
891.836	6.83
892.007	2.73
892.178	111.27
892.349	43.69
892.52	23.21
892.691	-36.18
892.862	-11.61
893.032	-27.99
893.203	-30.04
893.374	-27.99
893.545	29.35
893.716	-5.46
893.887	74.41
894.057	4.78
894.228	21.16
894.399	-11.61
894.57	0.68
894.74	58.03
894.911	17.07
895.082	21.16
895.253	-46.42
895.423	15.02
895.594	0.68
895.764	33.45
895.935	-38.23
896.106	-34.13
896.276	21.16
896.447	27.31
896.617	45.74
896.788	15.02
896.958	66.22
897.129	-46.42
897.299	-3.41
897.47	-30.04
897.64	76.46
897.81	2.73
897.981	98.99
898.151	4.78
898.322	-13.65
898.492	-7.51
898.662	4.78
898.832	33.45
899.003	2.73
899.173	35.5
899.343	-62.8
899.513	-15.7
