Data from USB4F104151__57__11-37-21-681.txt Node

Date: Fri Mar 14 11:37:21 EDT 2025
User: louis
Spectrometer: USB4F10415
Trigger mode: 4
Integration Time (sec): 2.000000E-2
Scans to average: 1
Electric dark correction enabled: true
Nonlinearity correction enabled: false
Boxcar width: 0
XAxis mode: Wavelengths
Number of Pixels in Spectrum: 3648
>>>>>Begin Spectral Data<<<<<
178.204	-21.5
178.424	-21.5
178.644	-21.5
178.864	-87.04
179.084	-78.85
179.304	37.89
179.524	-17.41
179.744	17.41
179.964	-23.55
180.184	7.17
180.404	27.65
180.624	-37.89
180.844	13.31
181.064	-15.36
181.283	31.74
181.503	-9.22
181.723	-31.74
181.943	-50.18
182.163	31.74
182.383	60.42
182.602	11.26
182.822	-7.17
183.042	-46.08
183.262	-7.17
183.482	-39.94
183.701	52.22
183.921	39.94
184.141	-3.07
184.361	50.18
184.58	-13.31
184.8	-9.22
185.02	82.94
185.239	27.65
185.459	74.75
185.679	52.22
185.898	-5.12
186.118	60.42
186.338	-15.36
186.557	25.6
186.777	25.6
186.997	-48.13
187.216	9.22
187.436	97.28
187.655	76.8
187.875	27.65
188.095	3.07
188.314	130.05
188.534	58.37
188.753	-58.37
188.973	76.8
189.192	35.84
189.412	19.46
189.631	19.46
189.851	-5.12
190.07	23.55
190.29	-35.84
190.509	-7.17
190.729	27.65
190.948	109.57
191.168	93.18
191.387	11.26
191.607	-13.31
191.826	-31.74
192.045	7.17
192.265	37.89
192.484	76.8
192.704	41.98
192.923	15.36
193.142	109.57
193.362	50.18
193.581	60.42
193.8	56.32
194.02	11.26
194.239	19.46
194.458	35.84
194.678	9.22
194.897	52.22
195.116	17.41
195.335	-35.84
195.555	35.84
195.774	-9.22
195.993	76.8
196.212	62.46
196.432	11.26
196.651	132.09
196.87	58.37
197.089	31.74
197.308	58.37
197.528	21.5
197.747	-5.12
197.966	35.84
198.185	101.37
198.404	-11.26
198.623	-9.22
198.842	60.42
199.062	109.57
199.281	-7.17
199.5	3.07
199.719	105.47
199.938	68.61
200.157	56.32
200.376	54.27
200.595	35.84
200.814	19.46
201.033	-50.18
201.252	54.27
201.471	60.42
201.69	101.37
201.909	41.98
202.128	76.8
202.347	3.07
202.566	-31.74
202.785	3.07
203.004	-70.65
203.223	62.46
203.442	-33.79
203.661	-19.46
203.879	37.89
204.098	89.09
204.317	11.26
204.536	62.46
204.755	-5.12
204.974	46.08
205.193	-5.12
205.411	50.18
205.63	-9.22
205.849	-39.94
206.068	-3.07
206.287	5.12
206.505	121.85
206.724	44.03
206.943	46.08
207.162	50.18
207.381	-87.04
207.599	19.46
207.818	70.65
208.037	66.56
208.255	23.55
208.474	15.36
208.693	-54.27
208.911	-21.5
209.13	3.07
209.349	66.56
209.567	68.61
209.786	39.94
210.005	115.71
210.223	35.84
210.442	-21.5
210.661	72.7
210.879	-72.7
211.098	41.98
211.316	64.51
211.535	-39.94
211.753	7.17
211.972	60.42
212.191	7.17
212.409	33.79
212.628	17.41
212.846	31.74
213.065	-29.7
213.283	60.42
213.502	52.22
213.72	78.85
213.938	31.74
214.157	50.18
214.375	76.8
214.594	48.13
214.812	25.6
215.031	-13.31
215.249	1.02
215.467	-13.31
215.686	-27.65
215.904	60.42
216.122	-27.65
216.341	60.42
216.559	60.42
216.778	31.74
216.996	46.08
217.214	48.13
217.432	33.79
217.651	7.17
217.869	44.03
218.087	27.65
218.306	44.03
218.524	84.99
218.742	-7.17
218.96	115.71
219.179	-7.17
219.397	17.41
219.615	48.13
219.833	84.99
220.051	-13.31
220.27	23.55
220.488	74.75
220.706	37.89
220.924	9.22
221.142	-15.36
221.36	-5.12
221.578	25.6
221.796	23.55
222.015	19.46
222.233	29.7
222.451	62.46
222.669	70.65
222.887	17.41
223.105	27.65
223.323	82.94
223.541	35.84
223.759	-7.17
223.977	-44.03
224.195	31.74
224.413	19.46
224.631	27.65
224.849	35.84
225.067	107.52
225.285	19.46
225.503	-1.02
225.721	-5.12
225.939	82.94
226.157	113.66
226.375	103.42
226.592	-7.17
226.81	3.07
227.028	52.22
227.246	52.22
227.464	-25.6
227.682	31.74
227.9	25.6
228.117	84.99
228.335	-5.12
228.553	9.22
228.771	60.42
228.989	-25.6
229.206	35.84
229.424	1.02
229.642	54.27
229.86	-41.98
230.077	89.09
230.295	72.7
230.513	-5.12
230.731	68.61
230.948	72.7
231.166	91.13
231.384	23.55
231.601	5.12
231.819	56.32
232.037	64.51
232.254	80.89
232.472	23.55
232.689	35.84
232.907	35.84
233.125	87.04
233.342	48.13
233.56	-7.17
233.777	-11.26
233.995	72.7
234.213	105.47
234.43	19.46
234.648	-1.02
234.865	-1.02
235.083	91.13
235.3	99.33
235.518	50.18
235.735	80.89
235.953	31.74
236.17	13.31
236.388	97.28
236.605	19.46
236.822	-7.17
237.04	46.08
237.257	87.04
237.475	72.7
237.692	5.12
237.909	-7.17
238.127	15.36
238.344	-7.17
238.562	19.46
238.779	-64.51
238.996	-27.65
239.214	91.13
239.431	37.89
239.648	39.94
239.865	56.32
240.083	54.27
240.3	89.09
240.517	-25.6
240.735	66.56
240.952	-9.22
241.169	84.99
241.386	60.42
241.603	21.5
241.821	27.65
242.038	68.61
242.255	27.65
242.472	-23.55
242.689	31.74
242.907	58.37
243.124	56.32
243.341	68.61
243.558	-5.12
243.775	-50.18
243.992	-25.6
244.209	-5.12
244.426	87.04
244.643	25.6
244.86	41.98
245.078	91.13
245.295	15.36
245.512	-19.46
245.729	-17.41
245.946	-35.84
246.163	3.07
246.38	11.26
246.597	-33.79
246.814	19.46
247.031	50.18
247.248	37.89
247.464	54.27
247.681	72.7
247.898	17.41
248.115	35.84
248.332	60.42
248.549	78.85
248.766	95.23
248.983	13.31
249.2	19.46
249.417	35.84
249.633	19.46
249.85	-50.18
250.067	60.42
250.284	72.7
250.501	1.02
250.717	7.17
250.934	5.12
251.151	23.55
251.368	39.94
251.585	7.17
251.801	-29.7
252.018	46.08
252.235	76.8
252.451	58.37
252.668	29.7
252.885	66.56
253.102	80.89
253.318	23.55
253.535	31.74
253.752	-5.12
253.968	80.89
254.185	-35.84
254.401	-13.31
254.618	-5.12
254.835	9.22
255.051	84.99
255.268	58.37
255.484	19.46
255.701	-21.5
255.917	33.79
256.134	3.07
256.351	80.89
256.567	-1.02
256.784	25.6
257	-3.07
257.217	39.94
257.433	21.5
257.65	-1.02
257.866	-9.22
258.082	35.84
258.299	-21.5
258.515	44.03
258.732	29.7
258.948	17.41
259.165	44.03
259.381	7.17
259.597	46.08
259.814	-35.84
260.03	70.65
260.246	-7.17
260.463	41.98
260.679	-29.7
260.895	3.07
261.112	64.51
261.328	62.46
261.544	-25.6
261.761	84.99
261.977	-21.5
262.193	19.46
262.409	115.71
262.626	-50.18
262.842	11.26
263.058	23.55
263.274	121.85
263.49	-5.12
263.707	60.42
263.923	-11.26
264.139	21.5
264.355	48.13
264.571	50.18
264.787	15.36
265.004	99.33
265.22	1.02
265.436	31.74
265.652	44.03
265.868	19.46
266.084	11.26
266.3	11.26
266.516	-25.6
266.732	80.89
266.948	-103.42
267.164	-39.94
267.38	39.94
267.596	25.6
267.812	31.74
268.028	27.65
268.244	-41.98
268.46	19.46
268.676	70.65
268.892	-33.79
269.108	-13.31
269.324	46.08
269.54	21.5
269.756	146.43
269.972	-7.17
270.188	46.08
270.403	13.31
270.619	44.03
270.835	1.02
271.051	-13.31
271.267	-17.41
271.483	3.07
271.698	60.42
271.914	17.41
272.13	-3.07
272.346	19.46
272.562	27.65
272.777	60.42
272.993	60.42
273.209	9.22
273.425	91.13
273.64	-54.27
273.856	41.98
274.072	44.03
274.287	52.22
274.503	3.07
274.719	58.37
274.934	3.07
275.15	25.6
275.366	-3.07
275.581	52.22
275.797	-13.31
276.012	82.94
276.228	27.65
276.444	31.74
276.659	11.26
276.875	3.07
277.09	7.17
277.306	107.52
277.521	58.37
277.737	54.27
277.952	23.55
278.168	25.6
278.383	80.89
278.599	70.65
278.814	74.75
279.03	-37.89
279.245	52.22
279.461	52.22
279.676	31.74
279.892	23.55
280.107	9.22
280.322	1.02
280.538	97.28
280.753	52.22
280.969	99.33
281.184	1.02
281.399	37.89
281.615	37.89
281.83	5.12
282.045	19.46
282.26	48.13
282.476	46.08
282.691	23.55
282.906	48.13
283.122	54.27
283.337	50.18
283.552	-31.74
283.767	33.79
283.983	101.37
284.198	-48.13
284.413	50.18
284.628	19.46
284.843	84.99
285.058	58.37
285.274	58.37
285.489	-39.94
285.704	113.66
285.919	44.03
286.134	21.5
286.349	17.41
286.564	-11.26
286.779	-13.31
286.995	31.74
287.21	25.6
287.425	23.55
287.64	35.84
287.855	11.26
288.07	-58.37
288.285	56.32
288.5	-21.5
288.715	9.22
288.93	-39.94
289.145	19.46
289.36	3.07
289.575	41.98
289.79	52.22
290.004	68.61
290.219	84.99
290.434	-9.22
290.649	97.28
290.864	27.65
291.079	80.89
291.294	60.42
291.509	29.7
291.724	1.02
291.938	9.22
292.153	-13.31
292.368	68.61
292.583	11.26
292.798	7.17
293.012	-3.07
293.227	95.23
293.442	58.37
293.657	33.79
293.871	11.26
294.086	-19.46
294.301	56.32
294.516	31.74
294.73	-1.02
294.945	11.26
295.16	15.36
295.374	66.56
295.589	23.55
295.804	-25.6
296.018	23.55
296.233	3.07
296.447	52.22
296.662	-39.94
296.877	74.75
297.091	64.51
297.306	-1.02
297.52	7.17
297.735	103.42
297.949	11.26
298.164	11.26
298.378	-27.65
298.593	3.07
298.807	23.55
299.022	56.32
299.236	50.18
299.451	60.42
299.665	7.17
299.88	23.55
300.094	29.7
300.309	17.41
300.523	105.47
300.737	-25.6
300.952	17.41
301.166	101.37
301.381	35.84
301.595	31.74
301.809	58.37
302.024	58.37
302.238	-3.07
302.452	109.57
302.667	27.65
302.881	27.65
303.095	91.13
303.309	3.07
303.524	-15.36
303.738	58.37
303.952	35.84
304.166	68.61
304.381	-33.79
304.595	87.04
304.809	-15.36
305.023	-7.17
305.237	23.55
305.452	41.98
305.666	-23.55
305.88	64.51
306.094	7.17
306.308	68.61
306.522	46.08
306.736	68.61
306.95	58.37
307.164	23.55
307.379	15.36
307.593	50.18
307.807	78.85
308.021	25.6
308.235	-33.79
308.449	-17.41
308.663	91.13
308.877	72.7
309.091	-9.22
309.305	44.03
309.519	23.55
309.733	66.56
309.947	-27.65
310.161	48.13
310.374	21.5
310.588	41.98
310.802	-9.22
311.016	19.46
311.23	13.31
311.444	56.32
311.658	1.02
311.872	29.7
312.085	54.27
312.299	35.84
312.513	60.42
312.727	23.55
312.941	54.27
313.154	78.85
313.368	62.46
313.582	52.22
313.796	76.8
314.009	17.41
314.223	44.03
314.437	132.09
314.651	-5.12
314.864	31.74
315.078	84.99
315.292	-9.22
315.505	44.03
315.719	41.98
315.933	19.46
316.146	19.46
316.36	19.46
316.573	21.5
316.787	87.04
317.001	109.57
317.214	19.46
317.428	44.03
317.641	19.46
317.855	56.32
318.068	39.94
318.282	1.02
318.495	97.28
318.709	50.18
318.922	76.8
319.136	60.42
319.349	66.56
319.563	-46.08
319.776	115.71
319.99	56.32
320.203	87.04
320.417	5.12
320.63	25.6
320.843	33.79
321.057	33.79
321.27	21.5
321.483	41.98
321.697	13.31
321.91	82.94
322.124	101.37
322.337	1.02
322.55	33.79
322.763	27.65
322.977	-19.46
323.19	11.26
323.403	23.55
323.617	52.22
323.83	48.13
324.043	82.94
324.256	130.05
324.469	7.17
324.683	89.09
324.896	64.51
325.109	9.22
325.322	-15.36
325.535	54.27
325.748	35.84
325.962	-33.79
326.175	7.17
326.388	132.09
326.601	128
326.814	25.6
327.027	56.32
327.24	93.18
327.453	39.94
327.666	54.27
327.879	19.46
328.092	-44.03
328.305	-41.98
328.518	21.5
328.731	29.7
328.944	44.03
329.157	-23.55
329.37	72.7
329.583	52.22
329.796	70.65
330.009	23.55
330.222	-9.22
330.435	41.98
330.648	3.07
330.861	64.51
331.073	64.51
331.286	19.46
331.499	9.22
331.712	52.22
331.925	64.51
332.138	-1.02
332.35	89.09
332.563	15.36
332.776	115.71
332.989	-54.27
333.202	23.55
333.414	13.31
333.627	44.03
333.84	-23.55
334.053	-3.07
334.265	52.22
334.478	46.08
334.691	44.03
334.903	64.51
335.116	-5.12
335.329	7.17
335.541	91.13
335.754	19.46
335.966	17.41
336.179	11.26
336.392	3.07
336.604	56.32
336.817	58.37
337.029	11.26
337.242	56.32
337.454	27.65
337.667	33.79
337.88	111.61
338.092	54.27
338.305	35.84
338.517	60.42
338.729	95.23
338.942	21.5
339.154	23.55
339.367	25.6
339.579	82.94
339.792	-7.17
340.004	70.65
340.217	44.03
340.429	62.46
340.641	35.84
340.854	76.8
341.066	31.74
341.278	7.17
341.491	80.89
341.703	44.03
341.915	29.7
342.128	68.61
342.34	62.46
342.552	7.17
342.764	23.55
342.977	97.28
343.189	3.07
343.401	19.46
343.613	23.55
343.826	39.94
344.038	84.99
344.25	21.5
344.462	37.89
344.674	97.28
344.886	-37.89
345.099	84.99
345.311	7.17
345.523	9.22
345.735	-39.94
345.947	13.31
346.159	-1.02
346.371	72.7
346.583	52.22
346.795	101.37
347.007	68.61
347.219	-15.36
347.431	60.42
347.643	72.7
347.855	-17.41
348.067	82.94
348.279	72.7
348.491	27.65
348.703	70.65
348.915	25.6
349.127	25.6
349.339	-25.6
349.551	-7.17
349.763	5.12
349.975	25.6
350.187	44.03
350.399	46.08
350.61	35.84
350.822	91.13
351.034	74.75
351.246	78.85
351.458	50.18
351.669	21.5
351.881	60.42
352.093	33.79
352.305	156.67
352.517	35.84
352.728	41.98
352.94	101.37
353.152	11.26
353.363	41.98
353.575	25.6
353.787	64.51
353.999	64.51
354.21	80.89
354.422	39.94
354.633	62.46
354.845	134.14
355.057	50.18
355.268	15.36
355.48	68.61
355.692	31.74
355.903	17.41
356.115	78.85
356.326	7.17
356.538	56.32
356.749	25.6
356.961	103.42
357.172	48.13
357.384	76.8
357.595	52.22
357.807	35.84
358.018	95.23
358.23	58.37
358.441	64.51
358.653	60.42
358.864	-5.12
359.075	37.89
359.287	48.13
359.498	125.95
359.709	82.94
359.921	58.37
360.132	68.61
360.344	15.36
360.555	5.12
360.766	87.04
360.977	25.6
361.189	48.13
361.4	1.02
361.611	37.89
361.823	74.75
362.034	78.85
362.245	78.85
362.456	50.18
362.667	31.74
362.879	39.94
363.09	23.55
363.301	95.23
363.512	-9.22
363.723	19.46
363.935	5.12
364.146	37.89
364.357	52.22
364.568	60.42
364.779	44.03
364.99	76.8
365.201	39.94
365.412	84.99
365.623	66.56
365.834	72.7
366.045	99.33
366.256	80.89
366.467	58.37
366.678	25.6
366.889	52.22
367.1	29.7
367.311	109.57
367.522	109.57
367.733	-5.12
367.944	84.99
368.155	109.57
368.366	62.46
368.577	76.8
368.788	44.03
368.999	3.07
369.209	76.8
369.42	19.46
369.631	68.61
369.842	58.37
370.053	60.42
370.264	23.55
370.474	23.55
370.685	-5.12
370.896	15.36
371.107	117.76
371.317	113.66
371.528	58.37
371.739	23.55
371.95	60.42
372.16	11.26
372.371	23.55
372.582	-68.61
372.792	15.36
373.003	117.76
373.214	44.03
373.424	29.7
373.635	52.22
373.846	84.99
374.056	109.57
374.267	50.18
374.477	101.37
374.688	52.22
374.898	54.27
375.109	115.71
375.319	3.07
375.53	39.94
375.74	68.61
375.951	48.13
376.161	7.17
376.372	5.12
376.582	21.5
376.793	23.55
377.003	74.75
377.214	64.51
377.424	9.22
377.635	58.37
377.845	44.03
378.055	-25.6
378.266	11.26
378.476	132.09
378.686	87.04
378.897	11.26
379.107	125.95
379.317	11.26
379.528	78.85
379.738	132.09
379.948	25.6
380.158	80.89
380.369	78.85
380.579	74.75
380.789	-1.02
380.999	54.27
381.21	64.51
381.42	91.13
381.63	60.42
381.84	39.94
382.05	91.13
382.261	123.9
382.471	66.56
382.681	78.85
382.891	54.27
383.101	41.98
383.311	93.18
383.521	7.17
383.731	84.99
383.941	150.53
384.151	-35.84
384.361	60.42
384.571	58.37
384.781	52.22
384.991	134.14
385.201	31.74
385.411	5.12
385.621	62.46
385.831	31.74
386.041	76.8
386.251	62.46
386.461	15.36
386.671	84.99
386.881	82.94
387.091	66.56
387.301	76.8
387.511	80.89
387.72	99.33
387.93	54.27
388.14	58.37
388.35	44.03
388.56	117.76
388.769	87.04
388.979	87.04
389.189	-5.12
389.399	62.46
389.609	76.8
389.818	44.03
390.028	48.13
390.238	111.61
390.447	27.65
390.657	97.28
390.867	82.94
391.076	25.6
391.286	64.51
391.496	84.99
391.705	93.18
391.915	97.28
392.125	50.18
392.334	84.99
392.544	136.19
392.753	115.71
392.963	66.56
393.172	23.55
393.382	74.75
393.591	148.48
393.801	97.28
394.01	111.61
394.22	11.26
394.429	46.08
394.639	66.56
394.848	117.76
395.058	132.09
395.267	62.46
395.477	93.18
395.686	48.13
395.895	144.38
396.105	113.66
396.314	29.7
396.524	164.86
396.733	84.99
396.942	82.94
397.152	154.62
397.361	150.53
397.57	142.33
397.78	166.91
397.989	80.89
398.198	125.95
398.407	173.05
398.617	125.95
398.826	60.42
399.035	119.81
399.244	142.33
399.453	125.95
399.663	93.18
399.872	31.74
400.081	119.81
400.29	158.72
400.499	154.62
400.708	107.52
400.917	146.43
401.127	168.96
401.336	148.48
401.545	173.05
401.754	56.32
401.963	199.68
402.172	119.81
402.381	142.33
402.59	87.04
402.799	205.82
403.008	162.81
403.217	191.49
403.426	164.86
403.635	138.24
403.844	171.01
404.053	150.53
404.262	119.81
404.471	199.68
404.68	130.05
404.888	125.95
405.097	82.94
405.306	142.33
405.515	189.44
405.724	78.85
405.933	179.2
406.142	191.49
406.35	175.1
406.559	183.29
406.768	195.58
406.977	138.24
407.185	257.02
407.394	271.36
407.603	93.18
407.812	222.2
408.02	240.64
408.229	252.92
408.438	375.8
408.646	285.69
408.855	216.06
409.064	285.69
409.272	293.88
409.481	295.93
409.69	291.84
409.898	312.32
410.107	310.27
410.315	304.12
410.524	304.12
410.733	302.08
410.941	324.6
411.15	371.71
411.358	351.23
411.567	365.56
411.775	388.09
411.984	410.62
412.192	365.56
412.401	420.86
412.609	529.4
412.818	490.49
413.026	470.01
413.234	515.06
413.443	506.87
413.651	570.36
413.86	623.61
414.068	658.42
414.276	599.03
414.485	592.89
414.693	650.23
414.901	762.87
415.11	752.63
415.318	701.43
415.526	822.26
415.734	869.36
415.943	758.77
416.151	769.01
416.359	846.84
416.567	895.99
416.776	904.18
416.984	1002.48
417.192	1035.25
417.4	982
417.608	1047.54
417.817	1045.49
418.025	1082.35
418.233	1233.9
418.441	1213.42
418.649	1203.18
418.857	1321.96
419.065	1354.73
419.273	1299.44
419.481	1403.88
419.689	1588.2
419.897	1487.85
420.105	1565.67
420.313	1598.44
420.521	1657.83
420.729	1706.98
420.937	1774.56
421.145	1854.44
421.353	1934.31
421.561	1905.63
421.769	2075.62
421.977	2120.67
422.185	2069.47
422.393	2182.11
422.601	2448.35
422.809	2323.42
423.017	2253.79
423.224	2419.68
423.432	2546.65
423.64	2505.69
423.848	2767.83
424.056	2687.96
424.263	2913.24
424.471	2927.57
424.679	3111.89
424.887	3087.31
425.094	3296.21
425.302	3218.38
425.51	3486.67
425.718	3503.05
425.925	3656.65
426.133	3587.02
426.341	3814.34
426.548	4121.54
426.756	3992.52
426.964	4101.06
427.171	4232.13
427.379	4537.27
427.586	4701.11
427.794	4637.63
428.001	4895.67
428.209	5131.19
428.417	4930.48
428.624	5327.79
428.832	5432.24
429.039	5448.62
429.247	5342.13
429.454	5831.59
429.662	6106.02
429.869	5911.46
430.076	6362.01
430.284	6157.22
430.491	6364.06
430.699	6736.79
430.906	6712.22
431.114	6810.52
431.321	7025.56
431.528	7125.91
431.736	7740.3
431.943	8027.01
432.15	7670.67
432.358	7648.14
432.565	8229.76
432.772	8166.28
432.979	8604.54
433.187	8975.22
433.394	8784.76
433.601	9556.85
433.808	9612.14
434.016	9419.63
434.223	9816.94
434.43	10586.97
434.637	10134.37
434.844	10793.82
435.052	11072.34
435.259	11096.92
435.466	11076.44
435.673	11115.35
435.88	11658.06
436.087	12264.26
436.294	12448.58
436.501	12184.39
436.708	12247.88
436.915	12659.52
437.122	13331.25
437.329	13456.18
437.537	13624.11
437.743	13865.77
437.95	13720.37
438.157	14639.9
438.364	14824.22
438.571	15061.79
438.778	15133.47
438.985	16526.08
439.192	15696.66
439.399	16122.63
439.606	16073.48
439.813	16864
440.02	17785.58
440.227	17462.01
440.433	17335.03
440.64	17853.17
440.847	17779.44
441.054	18215.66
441.261	19485.4
441.467	19034.85
441.674	19790.55
441.881	20351.69
442.088	20562.63
442.294	20318.92
442.501	20593.35
442.708	21002.94
442.914	21756.6
443.121	22567.59
443.328	22522.54
443.534	23603.86
443.741	23077.54
443.948	22813.35
444.154	24724.1
444.361	24068.75
444.568	24402.57
444.774	24640.14
444.981	24998.53
445.187	25088.64
445.394	26552.94
445.6	26266.22
445.807	28787.27
446.013	27386.46
446.22	27777.62
446.426	28850.76
446.633	29327.94
446.839	30583.34
447.046	28901.96
447.252	30577.2
447.459	30626.35
447.665	30536.24
447.871	31801.88
448.078	33395.2
448.284	31611.42
448.491	32451.09
448.697	33804.8
448.903	34556.4
449.11	34279.92
449.316	34261.49
449.522	34863.6
449.728	35549.67
449.935	35629.54
450.141	35467.75
450.347	36624.85
450.553	35551.71
450.76	35617.25
450.966	37179.85
451.172	36583.89
451.378	37460.42
451.584	36809.17
451.791	37450.18
451.997	37382.6
452.203	38066.62
452.409	37910.97
452.615	38007.23
452.821	36469.2
453.027	36358.61
453.233	38201.79
453.44	36405.72
453.646	37059.02
453.852	36917.71
454.058	37507.52
454.264	36442.58
454.47	37579.2
454.676	36458.96
454.882	37317.06
455.088	34513.39
455.294	34982.38
455.5	35103.21
455.705	35914.2
455.911	34314.74
456.117	33565.18
456.323	33049.1
456.529	31455.78
456.735	32647.69
456.941	31744.54
457.147	31683.1
457.352	30509.61
457.558	30116.4
457.764	30374.45
457.97	29452.86
458.176	29106.76
458.381	28992.07
458.587	27658.84
458.793	27515.48
458.999	26194.54
459.204	27914.84
459.41	27343.45
459.616	25326.21
459.821	25639.54
460.027	24990.34
460.233	24887.94
460.438	23704.21
460.644	24107.66
460.85	22495.91
461.055	22397.61
461.261	22487.72
461.466	20738.76
461.672	20138.7
461.878	21455.54
462.083	20273.87
462.289	19610.32
462.494	19686.1
462.7	18578.15
462.905	18137.84
463.111	18940.64
463.316	18883.3
463.522	18371.3
463.727	18658.02
463.932	18557.67
464.138	18268.91
464.343	18410.22
464.549	17806.06
464.754	18582.24
464.959	18238.19
465.165	18113.26
465.37	17341.18
465.575	17113.85
465.781	17419
465.986	17754.87
466.191	16974.59
466.397	16755.46
466.602	15749.9
466.807	16370.44
467.012	16515.84
467.218	16392.97
467.423	16392.97
467.628	16356.1
467.833	17095.42
468.038	16255.75
468.244	16028.43
468.449	16870.14
468.654	15942.41
468.859	15866.64
469.064	15704.85
469.269	14949.15
469.474	15336.21
469.679	15610.64
469.885	15072.03
470.09	15432.47
470.295	15237.91
470.5	14746.4
470.705	14971.68
470.91	14641.95
471.115	14711.58
471.32	14906.14
471.525	14326.57
471.73	14281.51
471.935	14248.74
472.139	13773.61
472.344	13804.33
472.549	13919.02
472.754	13544.24
472.959	13331.25
473.164	13011.77
473.369	12878.65
473.574	13302.58
473.778	13288.25
473.983	13151.03
474.188	13015.87
474.393	12315.46
474.598	12438.34
474.802	12409.67
475.007	12262.21
475.212	12421.95
475.417	11969.35
475.621	12157.77
475.826	12063.56
476.031	11688.78
476.235	11514.7
476.44	11703.12
476.645	11215.7
476.849	11285.33
477.054	11492.18
477.259	11035.48
477.463	11223.89
477.668	10832.73
477.872	10994.52
478.077	10965.85
478.282	10447.71
478.486	10548.06
478.691	10369.89
478.895	10369.89
479.1	10357.6
479.304	10271.59
479.509	10083.17
479.713	10337.12
479.918	9931.62
480.122	9804.65
480.326	10130.28
480.531	9784.17
480.735	9857.9
480.94	9769.83
481.144	10052.45
481.348	9538.41
481.553	9591.66
481.757	9485.17
481.961	9843.56
482.166	9907.05
482.37	9673.58
482.574	9509.74
482.778	9366.39
482.983	9630.57
483.187	9458.54
483.391	9775.98
483.595	9646.96
483.8	9397.1
484.004	9450.35
484.208	9419.63
484.412	9544.56
484.616	9333.62
484.821	9526.13
485.025	9321.33
485.229	9626.48
485.433	9460.59
485.637	9597.81
485.841	9474.93
486.045	9325.43
486.249	9526.13
486.453	9552.75
486.657	9583.47
486.861	9616.24
487.065	9243.51
487.269	9573.23
487.473	9380.72
487.677	9456.5
487.881	9571.18
488.085	9579.37
488.289	9681.77
488.493	9489.26
488.697	9540.46
488.901	9792.36
489.105	9356.15
489.309	9753.45
489.512	9681.77
489.716	9710.44
489.92	9552.75
490.124	9454.45
490.328	9780.07
490.531	9696.11
490.735	9735.02
490.939	9911.14
491.143	9755.5
491.346	9749.36
491.55	9839.47
491.754	9935.72
491.958	9960.3
492.161	9915.24
492.365	10060.65
492.569	9952.1
492.772	9980.78
492.976	10158.95
493.18	10249.06
493.383	10247.01
493.587	10343.27
493.79	10439.52
493.994	10181.48
494.197	10437.47
494.401	10505.06
494.605	10279.78
494.808	10537.82
495.012	10603.36
495.215	10591.07
495.419	10963.8
495.622	10994.52
495.825	11234.13
496.029	11107.16
496.232	11258.71
496.436	11131.73
496.639	11424.59
496.843	11283.28
497.046	11367.25
497.249	11899.72
497.453	11719.5
497.656	11977.55
497.859	11905.87
498.063	12073.8
498.266	12415.81
498.469	12176.2
498.673	12575.55
498.876	12585.79
499.079	12604.22
499.282	12843.84
499.485	12966.71
499.689	13005.63
499.892	13335.35
500.095	13310.77
500.298	13667.12
500.501	13388.6
500.705	14099.24
500.908	13966.12
501.111	14183.21
501.314	14150.44
501.517	14162.73
501.72	14730.02
501.923	14750.49
502.126	14822.17
502.329	15074.07
502.532	15041.31
502.735	15074.07
502.938	15225.62
503.141	15618.83
503.344	15749.9
503.547	15635.22
503.75	15932.17
503.953	16413.45
504.156	16481.03
504.359	16554.76
504.562	16624.39
504.765	16904.96
504.968	17169.15
505.17	17269.5
505.373	17427.19
505.576	17756.91
505.779	17832.69
505.982	17859.31
506.185	18393.83
506.387	18166.51
506.59	18285.29
506.793	19016.41
506.996	18959.07
507.198	18979.55
507.401	19024.61
507.604	19423.96
507.807	19811.03
508.009	19942.1
508.212	19981.01
508.415	20247.24
508.617	20513.48
508.82	20652.74
509.022	20437.7
509.225	21082.81
509.428	21189.31
509.63	21478.07
509.833	21279.42
510.035	21961.39
510.238	21510.84
510.44	21975.73
510.643	22004.4
510.845	22680.23
511.048	22465.19
511.25	22885.03
511.453	22561.45
511.655	23724.69
511.858	23415.45
512.06	23544.47
512.262	23949.97
512.465	23786.13
512.667	24119.95
512.87	24736.39
513.072	24498.83
513.274	24869.51
513.477	25250.43
513.679	25563.77
513.881	25770.61
514.084	25897.59
514.286	25797.24
514.488	26045.04
514.69	26819.17
514.893	26864.23
515.095	26767.98
515.297	27349.6
515.499	26980.96
515.701	27648.6
515.904	27859.54
516.106	27935.32
516.308	27904.6
516.51	28543.56
516.712	28228.18
516.914	28815.94
517.116	29438.53
517.318	29311.55
517.52	29096.52
517.722	29557.31
517.925	29858.36
518.127	29893.18
518.329	30437.94
518.531	30390.83
518.733	30921.26
518.935	30810.67
519.136	30829.1
519.338	31539.74
519.54	31703.58
519.742	31656.48
519.944	31906.33
520.146	32303.64
520.348	32543.25
520.55	32537.1
520.752	32653.84
520.954	33497.6
521.155	33176.07
521.357	33577.47
521.559	33874.43
521.761	34347.51
521.963	34372.08
522.164	33954.3
522.366	34255.35
522.568	34525.68
522.77	34849.26
522.971	35054.06
523.173	35342.82
523.375	35439.08
523.576	35291.62
523.778	35283.43
523.98	36252.12
524.181	35789.28
524.383	35762.65
524.584	36383.19
524.786	36547.03
524.988	36331.99
525.189	36663.76
525.391	36936.14
525.592	37315.01
525.794	37278.15
525.995	37157.32
526.197	37194.18
526.398	37460.42
526.6	37482.95
526.801	37714.37
527.003	37847.49
527.204	37925.31
527.406	38496.69
527.607	38416.82
527.808	38281.66
528.01	37839.29
528.211	37978.56
528.412	38738.35
528.614	38498.74
528.815	38650.29
529.016	38986.16
529.218	38580.66
529.419	38855.09
529.62	38470.07
529.822	38844.85
530.023	39066.03
530.224	39147.95
530.425	38973.87
530.626	39006.64
530.828	38807.98
531.029	39604.64
531.23	38750.64
531.431	39211.43
531.632	39182.76
531.833	39432.61
532.035	39336.36
532.236	39766.43
532.437	39809.44
532.638	39784.86
532.839	39664.03
533.04	39758.24
533.241	39055.79
533.442	40182.17
533.643	39588.26
533.844	39670.18
534.045	39731.62
534.246	39641.51
534.447	39819.68
534.648	39551.4
534.849	39973.28
535.05	39395.75
535.251	40427.93
535.451	39813.54
535.652	40006.05
535.853	39608.74
536.054	40284.57
536.255	39762.34
536.456	39567.78
536.657	40092.06
536.857	39881.12
537.058	39516.58
537.259	39528.87
537.46	39657.89
537.66	39614.88
537.861	39713.19
538.062	39485.86
538.263	40083.87
538.463	39788.96
538.664	39672.23
538.865	39696.8
539.065	39704.99
539.266	39549.35
539.466	40059.29
539.667	39367.08
539.868	39999.9
540.068	39346.6
540.269	39743.91
540.469	39797.15
540.67	39592.36
540.87	39592.36
541.071	39324.07
541.271	39721.38
541.472	39897.5
541.672	39707.04
541.873	39270.82
542.073	39127.47
542.274	39586.21
542.474	39379.37
542.675	39403.94
542.875	39530.92
543.075	39274.92
543.276	39084.46
543.476	39373.22
543.676	39313.83
543.877	39725.47
544.077	39066.03
544.277	39477.67
544.478	39279.02
544.678	39385.51
544.878	39297.45
545.078	39145.9
545.279	38965.68
545.479	39252.39
545.679	39424.42
545.879	39324.07
546.079	39332.26
546.28	39027.12
546.48	38582.71
546.68	39506.34
546.88	39362.98
547.08	39446.95
547.28	39209.39
547.48	39256.49
547.68	39459.24
547.88	38988.21
548.081	38988.21
548.281	38943.15
548.481	39201.19
548.681	39178.67
548.881	38889.9
549.081	38900.14
549.28	38937.01
549.48	39076.27
549.68	39164.33
549.88	39408.04
550.08	39059.88
550.28	38998.44
550.48	38681.01
550.68	39166.38
550.88	38711.73
551.08	38894
551.279	38846.9
551.479	38740.4
551.679	38820.27
551.879	38785.46
552.079	38867.37
552.278	38678.96
552.478	38957.49
552.678	39010.73
552.878	38857.14
553.077	38775.22
553.277	38087.1
553.477	39076.27
553.676	38631.86
553.876	38711.73
554.076	38871.47
554.275	38556.08
554.475	38244.79
554.674	38726.07
554.874	38339
555.074	38519.22
555.273	38341.05
555.473	38523.32
555.672	38343.09
555.872	38275.51
556.071	38492.6
556.271	38414.77
556.47	38089.15
556.67	37921.21
556.869	38035.9
557.068	38330.81
557.268	38058.43
557.467	37894.59
557.667	38113.72
557.866	37843.39
558.065	37575.11
558.265	37818.81
558.464	37800.38
558.663	38355.38
558.863	37614.02
559.062	38392.25
559.261	37425.6
559.461	37956.03
559.66	37304.77
559.859	37683.65
560.058	37081.55
560.258	37441.99
560.457	37222.86
560.656	37591.49
560.855	37384.65
561.054	37339.59
561.253	37202.38
561.453	37491.14
561.652	37319.11
561.851	37523.91
562.05	37116.36
562.249	37233.1
562.448	37030.35
562.647	37398.98
562.846	37194.18
563.045	37087.69
563.244	36739.54
563.443	37222.86
563.642	36461.01
563.841	36471.25
564.04	36524.5
564.239	36862.41
564.438	36649.42
564.637	36465.11
564.836	36424.15
565.035	35963.36
565.234	36522.45
565.432	36225.5
565.631	36125.14
565.83	36133.34
566.029	36131.29
566.228	35475.94
566.427	36092.38
566.625	35959.26
566.824	35549.67
567.023	35910.11
567.222	35414.5
567.42	36162.01
567.619	35731.93
567.818	35320.29
568.016	35432.93
568.215	35959.26
568.414	35490.27
568.612	35856.86
568.811	35062.25
569.01	35318.25
569.208	35092.97
569.407	35439.08
569.605	34562.54
569.804	35250.66
570.002	34681.33
570.201	35006.95
570.4	34884.08
570.598	34679.28
570.797	34370.04
570.995	34675.18
571.193	34339.32
571.392	34521.59
571.59	34238.97
571.789	34734.57
571.987	34263.54
572.186	34222.58
572.384	33847.8
572.582	34222.58
572.781	34109.94
572.979	33468.93
573.177	33952.25
573.376	34095.61
573.574	33468.93
573.772	33860.09
573.971	33698.3
574.169	33860.09
574.367	33618.43
574.565	33749.5
574.763	33116.68
574.962	33673.73
575.16	33116.68
575.358	33499.65
575.556	32621.07
575.754	33397.25
575.952	32668.17
576.151	33305.09
576.349	32694.8
576.547	32815.63
576.745	32821.77
576.943	32823.82
577.141	32580.11
577.339	32700.94
577.537	32248.34
577.735	32490
577.933	32274.96
578.131	32475.66
578.329	32297.49
578.527	32307.73
578.725	31996.44
578.923	32203.28
579.121	31552.03
579.319	31865.37
579.516	31947.29
579.714	31826.46
579.912	31412.77
580.11	31564.32
580.308	31273.51
580.506	31676.96
580.704	31158.82
580.901	31451.68
581.099	31545.89
581.297	31162.92
581.495	30966.31
581.692	31275.55
581.89	30609.96
582.088	31183.4
582.285	30798.38
582.483	31273.51
582.681	30546.48
582.878	30528.05
583.076	30489.13
583.274	30519.85
583.471	30433.84
583.669	30595.63
583.866	30020.15
584.064	30394.93
584.262	29794.87
584.459	30321.2
584.657	29690.43
584.854	30073.4
585.052	29411.9
585.249	29776.44
585.447	29751.87
585.644	29526.59
585.841	29432.38
586.039	29841.98
586.236	29166.15
586.434	29235.78
586.631	29516.35
586.828	29463.1
587.026	29121.09
587.223	29037.12
587.42	28967.49
587.618	28996.17
587.815	28701.26
588.012	28680.78
588.21	28635.72
588.407	28662.35
588.604	28461.65
588.801	28406.35
588.999	28598.86
589.196	27939.41
589.393	28406.35
589.59	28070.48
589.787	27736.66
589.984	28103.25
590.182	27791.96
590.379	27851.35
590.576	27591.26
590.773	27755.1
590.97	27535.96
591.167	27757.14
591.364	27253.34
591.561	27542.11
591.758	26903.14
591.955	27159.14
592.152	27525.72
592.349	27126.37
592.546	27271.78
592.743	27109.99
592.94	26624.62
593.137	26692.2
593.334	26946.15
593.531	26432.11
593.727	26686.06
593.924	26505.84
594.121	26557.03
594.318	26634.86
594.515	26016.37
594.712	26483.31
594.908	26040.95
595.105	26387.05
595.302	25842.29
595.499	25916.02
595.696	25653.88
595.892	25508.47
596.089	25762.42
596.286	25682.55
596.482	25354.88
596.679	25465.47
596.876	25492.09
597.072	25500.28
597.269	25524.86
597.466	25049.73
597.662	25301.63
597.859	25178.75
598.055	25225.86
598.252	24681.1
598.448	24769.16
598.645	24623.75
598.841	24668.81
599.038	24922.76
599.234	24507.02
599.431	24515.21
599.627	24382.09
599.824	24531.59
600.02	23886.48
600.217	24375.95
600.413	24064.66
600.609	24117.9
600.806	23730.84
601.002	23898.77
601.198	23884.44
601.395	23657.11
601.591	23679.64
601.787	23730.84
601.984	23554.71
602.18	23968.4
602.376	23423.64
602.572	23480.99
602.769	23294.62
602.965	23259.81
603.161	23196.32
603.357	23429.79
603.553	23007.9
603.75	23018.14
603.946	22737.57
604.142	23050.91
604.338	22430.38
604.534	22760.1
604.73	22448.81
604.926	22622.89
605.122	22821.54
605.318	22493.86
605.514	22221.48
605.71	22399.66
605.906	22264.49
606.102	22205.1
606.298	22260.4
606.494	22104.75
606.69	21752.5
606.886	22151.85
607.082	21772.98
607.278	22155.95
607.474	21547.7
607.67	21795.51
607.866	21744.31
608.062	21799.6
608.257	21590.71
608.453	21695.16
608.649	21701.3
608.845	21641.91
609.041	21404.35
609.236	21600.95
609.432	21209.79
609.628	21500.6
609.824	21404.35
610.019	20931.26
610.215	21256.89
610.411	21441.21
610.606	20816.58
610.802	21064.38
610.998	21158.59
611.193	21113.53
611.389	21013.18
611.584	20875.97
611.78	20841.15
611.976	21097.15
612.171	21017.28
612.367	20619.97
612.562	20525.77
612.758	20351.69
612.953	20333.26
613.149	20871.87
613.344	20609.73
613.539	20812.48
613.735	20425.42
613.93	20406.98
614.126	20310.73
614.321	20777.67
614.517	20472.52
614.712	20513.48
614.907	20212.43
615.103	20320.97
615.298	20167.37
615.493	20220.62
615.688	20136.65
615.884	20609.73
616.079	19987.15
616.274	20312.78
616.47	20073.17
616.665	20114.13
616.86	19917.52
617.055	19913.42
617.25	19913.42
617.445	20251.34
617.641	19839.7
617.836	19684.05
618.031	19626.71
618.226	19919.57
618.421	19419.86
618.616	19819.22
618.811	19413.72
619.006	19690.2
619.201	19184.35
619.396	19135.2
619.591	19024.61
619.786	19542.74
619.981	19051.23
620.176	19129.05
620.371	18834.14
620.566	18987.74
620.761	18598.63
620.956	19010.27
621.151	18473.7
621.346	18553.57
621.541	18481.89
621.735	18211.56
621.93	18010.86
622.125	18264.81
622.32	18000.62
622.515	18240.23
622.709	17974
622.904	17752.82
623.099	17902.32
623.294	17894.13
623.488	17578.74
623.683	17486.58
623.878	17093.37
624.072	17435.38
624.267	17263.35
624.462	16935.68
624.656	16859.9
624.851	16970.49
625.046	16917.25
625.24	16710.4
625.435	16634.63
625.629	16616.19
625.824	16540.42
626.018	16644.87
626.213	16139.02
626.407	16583.43
626.602	16110.35
626.796	16016.14
626.991	15997.71
627.185	16003.85
627.38	15821.58
627.574	15665.94
627.768	15676.18
627.963	15416.08
628.157	15561.49
628.352	15547.15
628.546	15127.32
628.74	15205.14
628.935	15256.34
629.129	15108.89
629.323	14959.39
629.517	14803.74
629.712	14781.21
629.906	14986.01
630.1	14480.16
630.294	14588.71
630.489	14517.03
630.683	14582.56
630.877	14117.67
631.071	14215.98
631.265	14166.82
631.459	13947.69
631.653	14322.47
631.848	13947.69
632.042	14248.74
632.236	14115.62
632.43	13785.9
632.624	13986.6
632.818	13728.56
633.012	13476.66
633.206	13534
633.4	13607.73
633.594	13402.93
633.788	13353.78
633.982	13327.16
634.176	13316.92
634.369	12997.43
634.563	13237.05
634.757	12837.69
634.951	12929.85
635.145	12870.46
635.339	12909.37
635.533	12686.14
635.726	12553.02
635.92	12342.08
636.114	12569.41
636.308	12512.07
636.501	12292.93
636.695	12305.22
636.889	12215.11
637.083	12108.62
637.276	12217.16
637.47	12053.32
637.664	11995.98
637.857	12034.89
638.051	11938.63
638.244	11705.17
638.438	11709.26
638.632	11721.55
638.825	11680.59
639.019	11459.41
639.212	11551.57
639.406	11311.96
639.599	11504.46
639.793	11492.18
639.986	11154.26
640.18	11445.07
640.373	11373.39
640.567	11129.69
640.76	11221.84
640.954	10939.23
641.147	11000.66
641.34	10793.82
641.534	10722.14
641.727	10783.58
641.92	10652.51
642.114	10728.28
642.307	10709.85
642.5	10763.1
642.694	10421.09
642.887	10394.47
643.08	10632.03
643.273	10105.7
643.467	10275.68
643.66	10122.09
643.853	10296.16
644.046	9972.58
644.239	10290.02
644.432	9997.16
644.626	9988.97
644.819	9917.29
645.012	9886.57
645.205	9857.9
645.398	9968.49
645.591	9706.35
645.784	9495.41
645.977	9714.54
646.17	9606
646.363	9548.65
646.556	9352.05
646.749	9608.05
646.942	9325.43
647.135	9522.03
647.328	9364.34
647.521	9296.75
647.714	9302.9
647.907	9210.74
648.099	9137.01
648.292	8969.08
648.485	8932.22
648.678	8870.78
648.871	8981.37
649.064	8981.37
649.256	8751.99
649.449	8825.72
649.642	8641.4
649.835	8629.12
650.027	8575.87
650.22	8461.18
650.413	8739.71
650.605	8678.27
650.798	8377.22
650.991	8452.99
651.183	8338.3
651.376	8444.8
651.568	8246.15
651.761	8229.76
651.954	8346.5
652.146	8178.56
652.339	8029.06
652.531	8080.26
652.724	8156.04
652.916	8014.73
653.109	7961.48
653.301	7822.22
653.494	7807.88
653.686	7867.27
653.879	7691.15
654.071	7875.46
654.263	7816.07
654.456	7682.95
654.648	7875.46
654.84	7662.48
655.033	7660.43
655.225	7465.87
655.417	7394.19
655.61	7439.25
655.802	7373.71
655.994	7379.86
656.186	7496.59
656.379	7138.2
656.571	7324.56
656.763	7189.39
656.955	7123.86
657.148	7246.74
657.34	7150.48
657.532	7197.59
657.724	7093.14
657.916	6886.29
658.108	6955.93
658.3	6892.44
658.492	6912.92
658.684	6722.46
658.876	6751.13
659.068	6847.38
659.26	6599.58
659.452	6677.4
659.644	6691.74
659.836	6583.2
660.028	6824.86
660.22	6536.09
660.412	6720.41
660.604	6439.84
660.796	6470.56
660.988	6445.98
661.18	6235.04
661.372	6380.45
661.563	6398.88
661.755	6466.46
661.947	6288.29
662.139	6216.61
662.331	6259.62
662.522	6140.83
662.714	6083.49
662.906	6118.31
663.097	6210.47
663.289	6103.97
663.481	6015.91
663.673	6044.58
663.864	6202.27
664.056	6022.05
664.247	5923.75
664.439	5858.21
664.631	5927.85
664.822	5925.8
665.014	5917.61
665.205	5637.03
665.397	5841.83
665.588	5729.19
665.78	5659.56
665.971	5637.03
666.163	5651.37
666.354	5467.05
666.546	5542.83
666.737	5589.93
666.929	5403.57
667.12	5491.63
667.311	5563.31
667.503	5452.72
667.694	5366.7
667.885	5307.31
668.077	5368.75
668.268	5290.93
668.459	5303.22
668.651	5159.86
668.842	5172.15
669.033	5241.78
669.224	5229.49
669.416	5168.05
669.607	5286.83
669.798	5057.46
669.989	5176.24
670.18	5145.52
670.371	4985.78
670.563	4981.68
670.754	5014.45
670.945	5000.12
671.136	4983.73
671.327	5059.51
671.518	4940.72
671.709	4989.88
671.9	4912.05
672.091	4940.72
672.282	4959.16
672.473	4772.79
672.664	4744.12
672.855	4750.26
673.046	4969.4
673.237	4840.37
673.428	4701.11
673.619	4660.15
673.809	4672.44
674	4778.94
674.191	4514.75
674.382	4651.96
674.573	4604.86
674.764	4371.39
674.954	4615.1
675.145	4473.79
675.336	4740.02
675.527	4479.93
675.717	4621.24
675.908	4535.23
676.099	4492.22
676.289	4549.56
676.48	4486.08
676.671	4373.44
676.861	4443.07
677.052	4391.87
677.243	4336.57
677.433	4295.61
677.624	4389.82
677.814	4385.73
678.005	4447.16
678.195	4406.2
678.386	4459.45
678.576	4219.84
678.767	4342.72
678.957	4316.09
679.148	4318.14
679.338	4367.29
679.529	4334.53
679.719	4117.44
679.909	4344.77
680.1	4309.95
680.29	4115.39
680.481	4185.02
680.671	4125.63
680.861	4092.87
681.052	4127.68
681.242	4092.87
681.432	4123.59
681.622	4088.77
681.813	4049.86
682.003	4180.93
682.193	4103.11
682.383	4230.08
682.573	3953.6
682.764	4078.53
682.954	3988.42
683.144	4023.23
683.334	4029.38
683.524	3963.84
683.714	3939.27
683.904	4033.47
684.094	4000.71
684.284	3924.93
684.474	3994.56
684.664	3886.02
684.854	3959.75
685.044	3820.49
685.234	3773.38
685.424	3722.18
685.614	3834.82
685.804	3879.88
685.994	3777.48
686.184	3689.42
686.374	3861.45
686.564	3734.47
686.753	3826.63
686.943	3773.38
687.133	3703.75
687.323	3683.27
687.513	3630.02
687.702	3646.41
687.892	3728.33
688.082	3582.92
688.272	3615.69
688.461	3587.02
688.651	3580.87
688.841	3693.51
689.03	3509.19
689.22	3501
689.41	3556.3
689.599	3435.47
689.789	3468.24
689.979	3443.66
690.168	3417.04
690.358	3369.93
690.547	3369.93
690.737	3478.47
690.926	3402.7
691.116	3371.98
691.305	3320.78
691.495	3331.02
691.684	3283.92
691.874	3152.85
692.063	3263.44
692.252	3148.75
692.442	3171.28
692.631	3132.37
692.82	3009.49
693.01	3183.57
693.199	3167.18
693.388	3105.74
693.578	3050.45
693.767	3034.07
693.956	3007.44
694.146	3091.41
694.335	3034.07
694.524	3052.5
694.713	3025.87
694.902	2935.76
695.092	2999.25
695.281	2927.57
695.47	2872.28
695.659	2827.22
695.848	2835.41
696.037	2868.18
696.226	2782.17
696.415	2763.73
696.604	2712.53
696.793	2698.2
696.982	2829.27
697.171	2841.56
697.36	2696.15
697.549	2765.78
697.738	2706.39
697.927	2892.76
698.116	2728.92
698.305	2745.3
698.494	2649.05
698.683	2728.92
698.872	2671.58
699.061	2644.95
699.25	2679.77
699.438	2524.12
699.627	2675.67
699.816	2624.47
700.005	2657.24
700.193	2558.94
700.382	2696.15
700.571	2603.99
700.76	2593.75
700.948	2657.24
701.137	2659.29
701.326	2595.8
701.514	2534.36
701.703	2595.8
701.892	2483.16
702.08	2569.18
702.269	2526.17
702.457	2565.08
702.646	2622.42
702.834	2517.98
703.023	2624.47
703.212	2474.97
703.4	2524.12
703.589	2384.86
703.777	2501.59
703.965	2415.58
704.154	2497.5
704.342	2411.48
704.531	2509.79
704.719	2329.56
704.907	2411.48
705.096	2460.63
705.284	2425.82
705.472	2458.59
705.661	2300.89
705.849	2493.4
706.037	2509.79
706.226	2417.63
706.414	2526.17
706.602	2499.55
706.79	2409.44
706.979	2405.34
707.167	2364.38
707.355	2397.15
707.543	2331.61
707.731	2425.82
707.919	2460.63
708.107	2292.7
708.296	2352.09
708.484	2307.04
708.672	2341.85
708.86	2397.15
709.048	2327.52
709.236	2341.85
709.424	2268.13
709.612	2407.39
709.8	2327.52
709.988	2331.61
710.176	2462.68
710.364	2329.56
710.551	2399.2
710.739	2360.28
710.927	2491.35
711.115	2452.44
711.303	2294.75
711.491	2350.04
711.679	2382.81
711.866	2358.24
712.054	2376.67
712.242	2206.69
712.43	2423.77
712.617	2452.44
712.805	2405.34
712.993	2366.43
713.181	2378.72
713.368	2425.82
713.556	2378.72
713.744	2296.8
713.931	2335.71
714.119	2380.76
714.306	2436.06
714.494	2307.04
714.682	2391
714.869	2317.28
715.057	2345.95
715.244	2374.62
715.432	2423.77
715.619	2423.77
715.807	2300.89
715.994	2491.35
716.182	2300.89
716.369	2264.03
716.556	2345.95
716.744	2276.32
716.931	2298.84
717.119	2268.13
717.306	2395.1
717.493	2272.22
717.681	2374.62
717.868	2280.41
718.055	2348
718.242	2407.39
718.43	2368.48
718.617	2407.39
718.804	2372.57
718.991	2427.87
719.179	2419.68
719.366	2491.35
719.553	2360.28
719.74	2292.7
719.927	2372.57
720.114	2352.09
720.301	2337.76
720.488	2266.08
720.676	2356.19
720.863	2448.35
721.05	2321.37
721.237	2401.24
721.424	2317.28
721.611	2362.33
721.798	2280.41
721.985	2282.46
722.172	2444.25
722.358	2345.95
722.545	2405.34
722.732	2368.48
722.919	2448.35
723.106	2542.55
723.293	2278.37
723.48	2370.52
723.667	2436.06
723.853	2335.71
724.04	2386.91
724.227	2464.73
724.414	2333.66
724.6	2388.96
724.787	2341.85
724.974	2401.24
725.161	2425.82
725.347	2479.07
725.534	2411.48
725.72	2431.96
725.907	2360.28
726.094	2489.31
726.28	2337.76
726.467	2313.18
726.653	2452.44
726.84	2491.35
727.027	2554.84
727.213	2329.56
727.4	2477.02
727.586	2444.25
727.773	2337.76
727.959	2419.68
728.145	2331.61
728.332	2431.96
728.518	2517.98
728.705	2481.11
728.891	2425.82
729.077	2468.83
729.264	2395.1
729.45	2554.84
729.636	2460.63
729.823	2399.2
730.009	2452.44
730.195	2434.01
730.382	2573.27
730.568	2528.22
730.754	2368.48
730.94	2374.62
731.126	2391
731.313	2419.68
731.499	2497.5
731.685	2479.07
731.871	2540.51
732.057	2464.73
732.243	2526.17
732.429	2434.01
732.615	2374.62
732.801	2331.61
732.987	2425.82
733.173	2364.38
733.359	2497.5
733.545	2427.87
733.731	2472.92
733.917	2421.72
734.103	2522.07
734.289	2487.26
734.475	2425.82
734.661	2440.15
734.847	2458.59
735.033	2489.31
735.219	2444.25
735.404	2472.92
735.59	2423.77
735.776	2452.44
735.962	2448.35
736.148	2462.68
736.333	2417.63
736.519	2374.62
736.705	2358.24
736.89	2366.43
737.076	2401.24
737.262	2509.79
737.447	2343.9
737.633	2348
737.819	2360.28
738.004	2434.01
738.19	2391
738.375	2315.23
738.561	2436.06
738.747	2380.76
738.932	2366.43
739.118	2366.43
739.303	2364.38
739.489	2413.53
739.674	2304.99
739.859	2331.61
740.045	2325.47
740.23	2225.12
740.416	2292.7
740.601	2321.37
740.786	2366.43
740.972	2304.99
741.157	2137.06
741.342	2227.17
741.528	2266.08
741.713	2370.52
741.898	2139.1
742.084	2206.69
742.269	2231.26
742.454	2227.17
742.639	2237.41
742.824	2264.03
743.01	2270.17
743.195	2182.11
743.38	2169.82
743.565	2276.32
743.75	2198.49
743.935	2122.72
744.12	2171.87
744.305	2139.1
744.49	2003.94
744.675	2198.49
744.86	2235.36
745.045	2235.36
745.23	2118.62
745.415	2034.66
745.6	2210.78
745.785	2116.58
745.97	2132.96
746.155	2081.76
746.34	1997.79
746.525	2048.99
746.71	2132.96
746.895	1995.75
747.079	1942.5
747.264	2120.67
747.449	2032.61
747.634	2040.8
747.819	1977.31
748.003	2005.99
748.188	1848.29
748.373	1932.26
748.557	1993.7
748.742	1850.34
748.927	1977.31
749.111	1891.3
749.296	1911.78
749.481	1883.11
749.665	1819.62
749.85	1739.75
750.034	1905.63
750.219	1813.48
750.404	1893.35
750.588	1682.41
750.773	1670.12
750.957	1780.71
751.141	1643.49
751.326	1825.76
751.51	1709.03
751.695	1774.56
751.879	1723.37
752.064	1680.36
752.248	1715.17
752.432	1616.87
752.617	1702.89
752.801	1674.21
752.985	1686.5
753.17	1647.59
753.354	1631.21
753.538	1586.15
753.722	1606.63
753.907	1549.29
754.091	1606.63
754.275	1661.93
754.459	1526.76
754.643	1543.14
754.828	1432.55
755.012	1500.14
755.196	1461.23
755.38	1500.14
755.564	1467.37
755.748	1506.28
755.932	1397.74
756.116	1475.56
756.3	1500.14
756.484	1401.83
756.668	1391.59
756.852	1418.22
757.036	1418.22
757.22	1407.98
757.404	1297.39
757.588	1416.17
757.772	1383.4
757.956	1321.96
758.14	1379.31
758.323	1285.1
758.507	1410.03
758.691	1311.72
758.875	1319.92
759.059	1350.64
759.242	1270.76
759.426	1240.05
759.61	1309.68
759.794	1272.81
759.977	1256.43
760.161	1293.29
760.345	1246.19
760.528	1231.85
760.712	1221.61
760.895	1256.43
761.079	1217.52
761.263	1227.76
761.446	1254.38
761.63	1215.47
761.813	1285.1
761.997	1139.69
762.18	1156.08
762.364	1154.03
762.547	1156.08
762.731	1231.85
762.914	1119.21
763.098	1151.98
763.281	1086.45
763.464	1084.4
763.648	1096.69
763.831	1051.63
764.015	998.38
764.198	1033.2
764.381	1127.41
764.564	1141.74
764.748	1074.16
764.931	1111.02
765.114	1133.55
765.297	1090.54
765.481	1078.26
765.664	1096.69
765.847	1119.21
766.03	1070.06
766.213	1039.34
766.397	1043.44
766.58	1057.78
766.763	1166.32
766.946	1027.06
767.129	1008.62
767.312	986.1
767.495	984.05
767.678	1018.86
767.861	1053.68
768.044	1014.77
768.227	1002.48
768.41	1059.82
768.593	1022.96
768.776	1090.54
768.959	1010.67
769.142	977.91
769.324	1041.39
769.507	904.18
769.69	949.23
769.873	947.19
770.056	1059.82
770.239	943.09
770.421	1008.62
770.604	934.9
770.787	984.05
770.97	957.43
771.152	982
771.335	922.61
771.518	975.86
771.7	961.52
771.883	975.86
772.066	936.95
772.248	836.6
772.431	881.65
772.613	871.41
772.796	885.75
772.978	818.16
773.161	861.17
773.343	916.47
773.526	865.27
773.708	842.74
773.891	904.18
774.073	852.98
774.256	916.47
774.438	904.18
774.621	830.45
774.803	789.49
774.985	855.03
775.168	857.07
775.35	938.99
775.532	852.98
775.715	764.92
775.897	805.88
776.079	803.83
776.261	799.73
776.444	785.4
776.626	726
776.808	773.11
776.99	726
777.173	707.57
777.355	701.43
777.537	740.34
777.719	674.81
777.901	783.35
778.083	781.3
778.265	660.47
778.447	746.48
778.629	707.57
778.811	711.67
778.993	646.13
779.175	766.96
779.357	691.19
779.539	617.46
779.721	650.23
779.903	726
780.085	695.29
780.267	662.52
780.449	730.1
780.631	660.47
780.812	613.37
780.994	619.51
781.176	650.23
781.358	637.94
781.54	658.42
781.721	639.99
781.903	537.59
782.085	609.27
782.267	627.7
782.448	594.93
782.63	556.02
782.812	588.79
782.993	596.98
783.175	578.55
783.357	510.97
783.538	590.84
783.72	525.3
783.901	572.41
784.083	551.93
784.264	486.39
784.446	486.39
784.627	484.34
784.809	494.58
784.99	543.74
785.172	508.92
785.353	484.34
785.535	558.07
785.716	457.72
785.897	523.26
786.079	500.73
786.26	519.16
786.441	465.91
786.623	457.72
786.804	443.39
786.985	422.91
787.167	486.39
787.348	429.05
787.529	474.1
787.71	484.34
787.891	508.92
788.073	400.38
788.254	482.3
788.435	443.39
788.616	459.77
788.797	478.2
788.978	429.05
789.159	427
789.34	412.67
789.522	340.99
789.703	330.75
789.884	357.37
790.065	404.47
790.246	445.43
790.427	355.32
790.607	429.05
790.788	404.47
790.969	451.58
791.15	375.8
791.331	289.79
791.512	316.41
791.693	412.67
791.874	424.95
792.054	422.91
792.235	396.28
792.416	361.47
792.597	361.47
792.778	340.99
792.958	320.51
793.139	330.75
793.32	345.08
793.5	332.79
793.681	377.85
793.862	379.9
794.042	400.38
794.223	273.4
794.404	271.36
794.584	355.32
794.765	330.75
794.945	379.9
795.126	349.18
795.306	365.56
795.487	396.28
795.667	318.46
795.848	328.7
796.028	261.12
796.209	285.69
796.389	361.47
796.57	304.12
796.75	277.5
796.93	306.17
797.111	300.03
797.291	359.42
797.471	406.52
797.652	263.16
797.832	199.68
798.012	338.94
798.192	295.93
798.373	263.16
798.553	338.94
798.733	306.17
798.913	261.12
799.093	265.21
799.274	324.6
799.454	257.02
799.634	267.26
799.814	328.7
799.994	306.17
800.174	232.44
800.354	300.03
800.534	271.36
800.714	277.5
800.894	271.36
801.074	285.69
801.254	308.22
801.434	232.44
801.614	279.55
801.794	207.87
801.974	543.74
802.154	191.49
802.334	277.5
802.514	183.29
802.693	326.65
802.873	279.55
803.053	234.49
803.233	140.29
803.413	267.26
803.592	207.87
803.772	238.59
803.952	207.87
804.131	257.02
804.311	187.39
804.491	269.31
804.67	226.3
804.85	234.49
805.03	222.2
805.209	181.25
805.389	209.92
805.568	189.44
805.748	175.1
805.928	220.16
806.107	246.78
806.287	205.82
806.466	240.64
806.646	211.96
806.825	162.81
807.004	222.2
807.184	197.63
807.363	228.35
807.543	320.51
807.722	181.25
807.901	265.21
808.081	281.6
808.26	173.05
808.439	209.92
808.619	250.88
808.798	189.44
808.977	216.06
809.156	238.59
809.336	261.12
809.515	189.44
809.694	242.68
809.873	125.95
810.052	158.72
810.231	218.11
810.411	119.81
810.59	189.44
810.769	302.08
810.948	240.64
811.127	183.29
811.306	168.96
811.485	168.96
811.664	207.87
811.843	224.25
812.022	162.81
812.201	177.15
812.38	218.11
812.559	132.09
812.737	214.01
812.916	183.29
813.095	160.77
813.274	216.06
813.453	177.15
813.632	154.62
813.811	216.06
813.989	142.33
814.168	101.37
814.347	162.81
814.526	205.82
814.704	242.68
814.883	158.72
815.062	105.47
815.24	214.01
815.419	203.77
815.598	183.29
815.776	146.43
815.955	125.95
816.133	183.29
816.312	156.67
816.49	82.94
816.669	138.24
816.847	150.53
817.026	154.62
817.204	142.33
817.383	211.96
817.561	222.2
817.74	166.91
817.918	148.48
818.097	134.14
818.275	84.99
818.453	171.01
818.632	125.95
818.81	140.29
818.988	117.76
819.167	214.01
819.345	95.23
819.523	105.47
819.701	128
819.879	158.72
820.058	193.53
820.236	187.39
820.414	130.05
820.592	56.32
820.77	125.95
820.948	142.33
821.127	150.53
821.305	136.19
821.483	146.43
821.661	144.38
821.839	109.57
822.017	138.24
822.195	173.05
822.373	117.76
822.551	117.76
822.729	91.13
822.907	91.13
823.085	121.85
823.262	52.22
823.44	99.33
823.618	164.86
823.796	148.48
823.974	101.37
824.152	130.05
824.329	140.29
824.507	46.08
824.685	105.47
824.863	158.72
825.04	105.47
825.218	175.1
825.396	125.95
825.574	158.72
825.751	177.15
825.929	87.04
826.107	76.8
826.284	142.33
826.462	91.13
826.639	76.8
826.817	134.14
826.994	156.67
827.172	78.85
827.349	166.91
827.527	115.71
827.704	117.76
827.882	35.84
828.059	140.29
828.237	58.37
828.414	156.67
828.591	60.42
828.769	166.91
828.946	117.76
829.124	115.71
829.301	95.23
829.478	80.89
829.655	125.95
829.833	72.7
830.01	44.03
830.187	50.18
830.364	111.61
830.542	175.1
830.719	76.8
830.896	80.89
831.073	97.28
831.25	158.72
831.427	80.89
831.604	101.37
831.782	103.42
831.959	72.7
832.136	68.61
832.313	23.55
832.49	142.33
832.667	74.75
832.844	121.85
833.021	113.66
833.198	130.05
833.374	103.42
833.551	152.57
833.728	134.14
833.905	121.85
834.082	-5.12
834.259	101.37
834.436	117.76
834.612	101.37
834.789	117.76
834.966	68.61
835.143	70.65
835.319	60.42
835.496	132.09
835.673	144.38
835.85	101.37
836.026	105.47
836.203	175.1
836.38	78.85
836.556	93.18
836.733	15.36
836.909	64.51
837.086	117.76
837.262	103.42
837.439	101.37
837.616	37.89
837.792	91.13
837.968	78.85
838.145	17.41
838.321	56.32
838.498	48.13
838.674	97.28
838.851	82.94
839.027	66.56
839.203	64.51
839.38	136.19
839.556	35.84
839.732	68.61
839.909	103.42
840.085	121.85
840.261	29.7
840.437	80.89
840.614	-3.07
840.79	87.04
840.966	52.22
841.142	-1.02
841.318	74.75
841.494	95.23
841.671	117.76
841.847	72.7
842.023	74.75
842.199	7.17
842.375	134.14
842.551	103.42
842.727	35.84
842.903	64.51
843.079	29.7
843.255	41.98
843.431	78.85
843.607	130.05
843.783	27.65
843.959	82.94
844.134	39.94
844.31	72.7
844.486	95.23
844.662	115.71
844.838	107.52
845.013	31.74
845.189	41.98
845.365	58.37
845.541	70.65
845.716	27.65
845.892	105.47
846.068	54.27
846.244	66.56
846.419	52.22
846.595	29.7
846.77	66.56
846.946	56.32
847.122	31.74
847.297	9.22
847.473	128
847.648	58.37
847.824	48.13
847.999	19.46
848.175	64.51
848.35	-5.12
848.526	50.18
848.701	31.74
848.876	72.7
849.052	70.65
849.227	60.42
849.403	89.09
849.578	48.13
849.753	-11.26
849.929	1.02
850.104	89.09
850.279	48.13
850.454	1.02
850.63	52.22
850.805	15.36
850.98	15.36
851.155	27.65
851.33	46.08
851.505	29.7
851.681	60.42
851.856	-15.36
852.031	89.09
852.206	50.18
852.381	56.32
852.556	56.32
852.731	60.42
852.906	27.65
853.081	54.27
853.256	99.33
853.431	66.56
853.606	41.98
853.781	27.65
853.956	19.46
854.131	52.22
854.305	15.36
854.48	1.02
854.655	11.26
854.83	60.42
855.005	87.04
855.18	7.17
855.354	25.6
855.529	70.65
855.704	5.12
855.879	70.65
856.053	19.46
856.228	48.13
856.403	25.6
856.577	31.74
856.752	-64.51
856.926	9.22
857.101	44.03
857.276	25.6
857.45	60.42
857.625	-33.79
857.799	66.56
857.974	-56.32
858.148	23.55
858.323	74.75
858.497	-44.03
858.672	29.7
858.846	48.13
859.02	64.51
859.195	-11.26
859.369	-5.12
859.543	41.98
859.718	68.61
859.892	-9.22
860.066	113.66
860.241	25.6
860.415	1.02
860.589	-1.02
860.763	109.57
860.938	80.89
861.112	76.8
861.286	3.07
861.46	62.46
861.634	25.6
861.808	-29.7
861.982	27.65
862.157	35.84
862.331	-50.18
862.505	-39.94
862.679	23.55
862.853	13.31
863.027	76.8
863.201	31.74
863.375	-9.22
863.549	148.48
863.722	27.65
863.896	82.94
864.07	1.02
864.244	54.27
864.418	54.27
864.592	74.75
864.766	-1.02
864.939	48.13
865.113	11.26
865.287	50.18
865.461	-11.26
865.634	33.79
865.808	89.09
865.982	74.75
866.156	25.6
866.329	54.27
866.503	-21.5
866.676	48.13
866.85	-9.22
867.024	31.74
867.197	17.41
867.371	95.23
867.544	27.65
867.718	15.36
867.891	99.33
868.065	50.18
868.238	-23.55
868.412	-1.02
868.585	64.51
868.759	3.07
868.932	74.75
869.105	-31.74
869.279	76.8
869.452	27.65
869.625	72.7
869.799	-23.55
869.972	-13.31
870.145	-7.17
870.319	97.28
870.492	5.12
870.665	-27.65
870.838	1.02
871.011	19.46
871.185	5.12
871.358	33.79
871.531	44.03
871.704	11.26
871.877	29.7
872.05	-46.08
872.223	19.46
872.396	35.84
872.569	44.03
872.742	-70.65
872.915	44.03
873.088	-19.46
873.261	35.84
873.434	31.74
873.607	9.22
873.78	5.12
873.953	44.03
874.126	-58.37
874.299	13.31
874.471	-37.89
874.644	37.89
874.817	7.17
874.99	58.37
875.163	-25.6
875.335	23.55
875.508	-13.31
875.681	123.9
875.853	-1.02
876.026	15.36
876.199	37.89
876.371	68.61
876.544	56.32
876.717	7.17
876.889	-5.12
877.062	29.7
877.234	56.32
877.407	-3.07
877.579	5.12
877.752	17.41
877.924	91.13
878.097	58.37
878.269	-25.6
878.442	1.02
878.614	44.03
878.786	31.74
878.959	27.65
879.131	35.84
879.303	35.84
879.476	3.07
879.648	-74.75
879.82	109.57
879.993	19.46
880.165	82.94
880.337	-52.22
880.509	-5.12
880.681	-19.46
880.854	23.55
881.026	-17.41
881.198	21.5
881.37	-3.07
881.542	25.6
881.714	39.94
881.886	-13.31
882.058	-13.31
882.23	27.65
882.402	41.98
882.574	-21.5
882.746	7.17
882.918	66.56
883.09	13.31
883.262	72.7
883.434	37.89
883.606	41.98
883.778	33.79
883.95	48.13
884.122	-13.31
884.293	1.02
884.465	39.94
884.637	41.98
884.809	-41.98
884.98	56.32
885.152	50.18
885.324	3.07
885.496	15.36
885.667	1.02
885.839	35.84
886.011	-41.98
886.182	23.55
886.354	19.46
886.525	-37.89
886.697	140.29
886.869	21.5
887.04	-1.02
887.212	33.79
887.383	80.89
887.555	-1.02
887.726	-9.22
887.897	-21.5
888.069	68.61
888.24	15.36
888.412	-3.07
888.583	13.31
888.754	41.98
888.926	46.08
889.097	50.18
889.268	17.41
889.44	9.22
889.611	9.22
889.782	5.12
889.953	-13.31
890.125	31.74
890.296	-46.08
890.467	25.6
890.638	-27.65
890.809	13.31
890.98	-17.41
891.151	3.07
891.323	39.94
891.494	31.74
891.665	87.04
891.836	54.27
892.007	-13.31
892.178	52.22
892.349	29.7
892.52	23.55
892.691	1.02
892.862	-21.5
893.032	35.84
893.203	39.94
893.374	-25.6
893.545	-9.22
893.716	-19.46
893.887	80.89
894.057	41.98
894.228	23.55
894.399	3.07
894.57	-25.6
894.74	64.51
894.911	31.74
895.082	27.65
895.253	-5.12
895.423	-29.7
895.594	15.36
895.764	44.03
895.935	19.46
896.106	52.22
896.276	-13.31
896.447	1.02
896.617	-60.42
896.788	-15.36
896.958	3.07
897.129	93.18
897.299	-37.89
897.47	9.22
897.64	-46.08
897.81	62.46
897.981	-13.31
898.151	31.74
898.322	52.22
898.492	27.65
898.662	52.22
898.832	41.98
899.003	29.7
899.173	11.26
899.343	19.46
899.513	17.41
