Data from USB4F104151__0__11-36-14-485.txt Node

Date: Fri Mar 14 11:36:14 EDT 2025
User: louis
Spectrometer: USB4F10415
Trigger mode: 4
Integration Time (sec): 2.000000E-2
Scans to average: 1
Electric dark correction enabled: true
Nonlinearity correction enabled: false
Boxcar width: 0
XAxis mode: Wavelengths
Number of Pixels in Spectrum: 3648
>>>>>Begin Spectral Data<<<<<
178.204	-150.36
178.424	-150.36
178.644	-150.36
178.864	-66.39
179.084	-15.19
179.304	25.77
179.524	-11.09
179.744	9.39
179.964	64.68
180.184	9.39
180.404	50.35
180.624	1.19
180.844	-43.86
181.064	-121.68
181.283	-27.48
181.503	44.2
181.723	-0.85
181.943	-45.91
182.163	-9.05
182.383	-4.95
182.602	31.91
182.822	38.06
183.042	7.34
183.262	-31.57
183.482	-43.86
183.701	-50
183.921	52.39
184.141	-50
184.361	66.73
184.58	70.83
184.8	9.39
185.02	36.01
185.239	70.83
185.459	66.73
185.679	5.29
185.898	-19.29
186.118	33.96
186.338	9.39
186.557	87.21
186.777	17.58
186.997	-27.48
187.216	1.19
187.436	42.15
187.655	9.39
187.875	-2.9
188.095	-15.19
188.314	74.92
188.534	44.2
188.753	68.78
188.973	25.77
189.192	46.25
189.412	3.24
189.631	44.2
189.851	7.34
190.07	93.35
190.29	17.58
190.509	-0.85
190.729	58.54
190.948	-25.43
191.168	97.45
191.387	42.15
191.607	83.11
191.826	23.72
192.045	-31.57
192.265	21.67
192.484	-13.14
192.704	50.35
192.923	40.11
193.142	50.35
193.362	38.06
193.581	38.06
193.8	-52.05
194.02	9.39
194.239	-11.09
194.458	-80.72
194.678	-11.09
194.897	-33.62
195.116	25.77
195.335	9.39
195.555	70.83
195.774	-17.24
195.993	52.39
196.212	42.15
196.432	-58.2
196.651	62.63
196.87	25.77
197.089	50.35
197.308	62.63
197.528	-41.81
197.747	11.43
197.966	1.19
198.185	95.4
198.404	-9.05
198.623	29.87
198.842	5.29
199.062	58.54
199.281	58.54
199.5	109.74
199.719	-15.19
199.938	1.19
200.157	38.06
200.376	44.2
200.595	31.91
200.814	-27.48
201.033	9.39
201.252	58.54
201.471	19.63
201.69	58.54
201.909	1.19
202.128	7.34
202.347	9.39
202.566	29.87
202.785	40.11
203.004	23.72
203.223	56.49
203.442	-7
203.661	19.63
203.879	5.29
204.098	62.63
204.317	33.96
204.536	27.82
204.755	36.01
204.974	21.67
205.193	74.92
205.411	29.87
205.63	-7
205.849	60.59
206.068	42.15
206.287	31.91
206.505	-0.85
206.724	44.2
206.943	48.3
207.162	25.77
207.381	-2.9
207.599	-15.19
207.818	-7
208.037	38.06
208.255	13.48
208.474	-27.48
208.693	-27.48
208.911	68.78
209.13	64.68
209.349	5.29
209.567	25.77
209.786	25.77
210.005	-19.29
210.223	3.24
210.442	-0.85
210.661	46.25
210.879	56.49
211.098	56.49
211.316	25.77
211.535	23.72
211.753	66.73
211.972	-9.05
212.191	13.48
212.409	-62.29
212.628	-11.09
212.846	21.67
213.065	25.77
213.283	56.49
213.502	31.91
213.72	50.35
213.938	-15.19
214.157	54.44
214.375	-43.86
214.594	-31.57
214.812	-11.09
215.031	33.96
215.249	60.59
215.467	-7
215.686	29.87
215.904	101.55
216.122	5.29
216.341	1.19
216.559	40.11
216.778	9.39
216.996	66.73
217.214	-23.38
217.432	7.34
217.651	62.63
217.869	-64.34
218.087	-11.09
218.306	-27.48
218.524	58.54
218.742	17.58
218.96	31.91
219.179	-33.62
219.397	-39.76
219.615	52.39
219.833	109.74
220.051	-15.19
220.27	54.44
220.488	56.49
220.706	5.29
220.924	-70.48
221.142	5.29
221.36	-39.76
221.578	11.43
221.796	-58.2
222.015	38.06
222.233	-19.29
222.451	42.15
222.669	-33.62
222.887	21.67
223.105	-37.72
223.323	-74.58
223.541	89.26
223.759	25.77
223.977	-11.09
224.195	76.97
224.413	74.92
224.631	70.83
224.849	33.96
225.067	72.87
225.285	38.06
225.503	9.39
225.721	-23.38
225.939	36.01
226.157	54.44
226.375	111.78
226.592	70.83
226.81	54.44
227.028	29.87
227.246	21.67
227.464	-13.14
227.682	17.58
227.9	-41.81
228.117	-27.48
228.335	-7
228.553	17.58
228.771	42.15
228.989	25.77
229.206	13.48
229.424	-82.77
229.642	5.29
229.86	-58.2
230.077	44.2
230.295	68.78
230.513	31.91
230.731	44.2
230.948	21.67
231.166	66.73
231.384	25.77
231.601	25.77
231.819	29.87
232.037	21.67
232.254	70.83
232.472	52.39
232.689	33.96
232.907	29.87
233.125	21.67
233.342	54.44
233.56	-21.33
233.777	25.77
233.995	25.77
234.213	5.29
234.43	64.68
234.648	38.06
234.865	-35.67
235.083	-17.24
235.3	29.87
235.518	-4.95
235.735	-4.95
235.953	-37.72
236.17	33.96
236.388	23.72
236.605	5.29
236.822	-7
237.04	15.53
237.257	33.96
237.475	13.48
237.692	40.11
237.909	1.19
238.127	-39.76
238.344	9.39
238.562	-2.9
238.779	-19.29
238.996	-41.81
239.214	91.31
239.431	5.29
239.648	11.43
239.865	42.15
240.083	62.63
240.3	68.78
240.517	19.63
240.735	74.92
240.952	25.77
241.169	38.06
241.386	-43.86
241.603	-29.52
241.821	-31.57
242.038	29.87
242.255	31.91
242.472	-50
242.689	21.67
242.907	56.49
243.124	33.96
243.341	58.54
243.558	9.39
243.775	17.58
243.992	7.34
244.209	-15.19
244.426	68.78
244.643	-4.95
244.86	42.15
245.078	-9.05
245.295	-33.62
245.512	25.77
245.729	-7
245.946	11.43
246.163	42.15
246.38	9.39
246.597	17.58
246.814	3.24
247.031	17.58
247.248	11.43
247.464	1.19
247.681	52.39
247.898	5.29
248.115	31.91
248.332	-11.09
248.549	25.77
248.766	5.29
248.983	-0.85
249.2	-2.9
249.417	11.43
249.633	7.34
249.85	-9.05
250.067	25.77
250.284	-17.24
250.501	36.01
250.717	81.07
250.934	-72.53
251.151	-2.9
251.368	-23.38
251.585	-41.81
251.801	23.72
252.018	-13.14
252.235	56.49
252.451	29.87
252.668	36.01
252.885	-21.33
253.102	-23.38
253.318	13.48
253.535	-35.67
253.752	19.63
253.968	-25.43
254.185	83.11
254.401	109.74
254.618	81.07
254.835	17.58
255.051	-0.85
255.268	52.39
255.484	-11.09
255.701	25.77
255.917	36.01
256.134	-27.48
256.351	-11.09
256.567	21.67
256.784	91.31
257	29.87
257.217	33.96
257.433	-7
257.65	-0.85
257.866	-21.33
258.082	31.91
258.299	-2.9
258.515	-17.24
258.732	25.77
258.948	31.91
259.165	-0.85
259.381	79.02
259.597	62.63
259.814	31.91
260.03	-17.24
260.246	48.3
260.463	-52.05
260.679	64.68
260.895	25.77
261.112	-9.05
261.328	9.39
261.544	70.83
261.761	74.92
261.977	-23.38
262.193	40.11
262.409	74.92
262.626	25.77
262.842	44.2
263.058	-2.9
263.274	40.11
263.49	23.72
263.707	83.11
263.923	33.96
264.139	-19.29
264.355	83.11
264.571	-17.24
264.787	7.34
265.004	95.4
265.22	74.92
265.436	54.44
265.652	70.83
265.868	48.3
266.084	33.96
266.3	7.34
266.516	-2.9
266.732	31.91
266.948	-29.52
267.164	25.77
267.38	62.63
267.596	-19.29
267.812	103.59
268.028	9.39
268.244	-2.9
268.46	-0.85
268.676	-33.62
268.892	17.58
269.108	-0.85
269.324	-39.76
269.54	-31.57
269.756	11.43
269.972	-15.19
270.188	66.73
270.403	13.48
270.619	40.11
270.835	54.44
271.051	13.48
271.267	29.87
271.483	1.19
271.698	54.44
271.914	56.49
272.13	21.67
272.346	68.78
272.562	74.92
272.777	29.87
272.993	15.53
273.209	21.67
273.425	40.11
273.64	74.92
273.856	76.97
274.072	74.92
274.287	-21.33
274.503	11.43
274.719	23.72
274.934	15.53
275.15	-23.38
275.366	7.34
275.581	15.53
275.797	66.73
276.012	44.2
276.228	7.34
276.444	7.34
276.659	52.39
276.875	-17.24
277.09	1.19
277.306	40.11
277.521	27.82
277.737	29.87
277.952	-13.14
278.168	13.48
278.383	1.19
278.599	-9.05
278.814	52.39
279.03	21.67
279.245	9.39
279.461	64.68
279.676	31.91
279.892	21.67
280.107	-17.24
280.322	13.48
280.538	-2.9
280.753	7.34
280.969	50.35
281.184	-27.48
281.399	74.92
281.615	-35.67
281.83	21.67
282.045	3.24
282.26	44.2
282.476	-0.85
282.691	38.06
282.906	44.2
283.122	50.35
283.337	7.34
283.552	38.06
283.767	21.67
283.983	91.31
284.198	83.11
284.413	17.58
284.628	-2.9
284.843	76.97
285.058	-54.1
285.274	31.91
285.489	13.48
285.704	64.68
285.919	-33.62
286.134	21.67
286.349	-9.05
286.564	17.58
286.779	48.3
286.995	17.58
287.21	-2.9
287.425	9.39
287.64	33.96
287.855	50.35
288.07	13.48
288.285	9.39
288.5	19.63
288.715	44.2
288.93	-17.24
289.145	5.29
289.36	33.96
289.575	-25.43
289.79	23.72
290.004	74.92
290.219	9.39
290.434	7.34
290.649	-41.81
290.864	31.91
291.079	58.54
291.294	38.06
291.509	29.87
291.724	1.19
291.938	21.67
292.153	42.15
292.368	-58.2
292.583	29.87
292.798	19.63
293.012	15.53
293.227	46.25
293.442	-19.29
293.657	-0.85
293.871	66.73
294.086	-43.86
294.301	5.29
294.516	33.96
294.73	23.72
294.945	79.02
295.16	33.96
295.374	56.49
295.589	-15.19
295.804	-13.14
296.018	1.19
296.233	74.92
296.447	23.72
296.662	27.82
296.877	17.58
297.091	3.24
297.306	50.35
297.52	-0.85
297.735	54.44
297.949	-35.67
298.164	29.87
298.378	36.01
298.593	25.77
298.807	38.06
299.022	29.87
299.236	58.54
299.451	17.58
299.665	50.35
299.88	46.25
300.094	1.19
300.309	13.48
300.523	42.15
300.737	-60.24
300.952	52.39
301.166	58.54
301.381	-13.14
301.595	36.01
301.809	72.87
302.024	38.06
302.238	-27.48
302.452	-19.29
302.667	17.58
302.881	17.58
303.095	23.72
303.309	40.11
303.524	105.64
303.738	25.77
303.952	85.16
304.166	1.19
304.381	-21.33
304.595	70.83
304.809	11.43
305.023	1.19
305.237	25.77
305.452	31.91
305.666	38.06
305.88	103.59
306.094	74.92
306.308	-31.57
306.522	31.91
306.736	-13.14
306.95	36.01
307.164	52.39
307.379	-33.62
307.593	44.2
307.807	-31.57
308.021	9.39
308.235	1.19
308.449	62.63
308.663	-2.9
308.877	46.25
309.091	-17.24
309.305	50.35
309.519	1.19
309.733	25.77
309.947	50.35
310.161	1.19
310.374	50.35
310.588	-2.9
310.802	21.67
311.016	52.39
311.23	62.63
311.444	-9.05
311.658	17.58
311.872	99.5
312.085	7.34
312.299	7.34
312.513	62.63
312.727	21.67
312.941	-33.62
313.154	3.24
313.368	58.54
313.582	33.96
313.796	21.67
314.009	17.58
314.223	66.73
314.437	42.15
314.651	40.11
314.864	-25.43
315.078	-23.38
315.292	13.48
315.505	40.11
315.719	1.19
315.933	44.2
316.146	21.67
316.36	40.11
316.573	31.91
316.787	-9.05
317.001	33.96
317.214	-2.9
317.428	109.74
317.641	3.24
317.855	1.19
318.068	-60.24
318.282	46.25
318.495	5.29
318.709	9.39
318.922	1.19
319.136	52.39
319.349	48.3
319.563	-4.95
319.776	40.11
319.99	25.77
320.203	38.06
320.417	105.64
320.63	9.39
320.843	136.36
321.057	-47.96
321.27	36.01
321.483	46.25
321.697	89.26
321.91	-19.29
322.124	11.43
322.337	42.15
322.55	15.53
322.763	-39.76
322.977	33.96
323.19	-27.48
323.403	11.43
323.617	91.31
323.83	72.87
324.043	9.39
324.256	23.72
324.469	33.96
324.683	36.01
324.896	38.06
325.109	33.96
325.322	19.63
325.535	38.06
325.748	33.96
325.962	93.35
326.175	105.64
326.388	109.74
326.601	42.15
326.814	93.35
327.027	50.35
327.24	74.92
327.453	-7
327.666	25.77
327.879	58.54
328.092	64.68
328.305	19.63
328.518	52.39
328.731	29.87
328.944	31.91
329.157	-2.9
329.37	-11.09
329.583	31.91
329.796	42.15
330.009	66.73
330.222	-35.67
330.435	52.39
330.648	-11.09
330.861	54.44
331.073	101.55
331.286	36.01
331.499	-39.76
331.712	13.48
331.925	-0.85
332.138	-19.29
332.35	99.5
332.563	9.39
332.776	13.48
332.989	44.2
333.202	60.59
333.414	-11.09
333.627	29.87
333.84	-11.09
334.053	-0.85
334.265	58.54
334.478	33.96
334.691	25.77
334.903	54.44
335.116	-17.24
335.329	79.02
335.541	25.77
335.754	13.48
335.966	-11.09
336.179	17.58
336.392	64.68
336.604	54.44
336.817	31.91
337.029	1.19
337.242	62.63
337.454	52.39
337.667	-13.14
337.88	19.63
338.092	27.82
338.305	11.43
338.517	23.72
338.729	50.35
338.942	130.22
339.154	50.35
339.367	-33.62
339.579	62.63
339.792	115.88
340.004	19.63
340.217	-2.9
340.429	17.58
340.641	31.91
340.854	5.29
341.066	25.77
341.278	72.87
341.491	89.26
341.703	68.78
341.915	76.97
342.128	68.78
342.34	31.91
342.552	58.54
342.764	-15.19
342.977	38.06
343.189	21.67
343.401	7.34
343.613	-0.85
343.826	27.82
344.038	11.43
344.25	113.83
344.462	38.06
344.674	40.11
344.886	5.29
345.099	-27.48
345.311	25.77
345.523	36.01
345.735	36.01
345.947	54.44
346.159	19.63
346.371	74.92
346.583	11.43
346.795	66.73
347.007	40.11
347.219	25.77
347.431	-21.33
347.643	-19.29
347.855	58.54
348.067	-23.38
348.279	29.87
348.491	25.77
348.703	21.67
348.915	-25.43
349.127	25.77
349.339	19.63
349.551	93.35
349.763	-47.96
349.975	29.87
350.187	33.96
350.399	48.3
350.61	70.83
350.822	-35.67
351.034	-37.72
351.246	5.29
351.458	42.15
351.669	33.96
351.881	97.45
352.093	36.01
352.305	103.59
352.517	50.35
352.728	27.82
352.94	81.07
353.152	42.15
353.363	-60.24
353.575	107.69
353.787	21.67
353.999	97.45
354.21	58.54
354.422	103.59
354.633	-41.81
354.845	-7
355.057	33.96
355.268	62.63
355.48	48.3
355.692	17.58
355.903	17.58
356.115	7.34
356.326	-19.29
356.538	52.39
356.749	17.58
356.961	33.96
357.172	-11.09
357.384	3.24
357.595	52.39
357.807	115.88
358.018	9.39
358.23	56.49
358.441	58.54
358.653	46.25
358.864	117.93
359.075	33.96
359.287	25.77
359.498	68.78
359.709	-11.09
359.921	31.91
360.132	85.16
360.344	21.67
360.555	-2.9
360.766	19.63
360.977	91.31
361.189	58.54
361.4	-15.19
361.611	42.15
361.823	-4.95
362.034	9.39
362.245	-0.85
362.456	105.64
362.667	1.19
362.879	62.63
363.09	25.77
363.301	25.77
363.512	117.93
363.723	-41.81
363.935	3.24
364.146	21.67
364.357	83.11
364.568	-4.95
364.779	-27.48
364.99	33.96
365.201	42.15
365.412	54.44
365.623	11.43
365.834	15.53
366.045	-0.85
366.256	44.2
366.467	50.35
366.678	76.97
366.889	85.16
367.1	-21.33
367.311	21.67
367.522	62.63
367.733	70.83
367.944	140.46
368.155	33.96
368.366	-9.05
368.577	-15.19
368.788	29.87
368.999	74.92
369.209	54.44
369.42	-7
369.631	50.35
369.842	21.67
370.053	23.72
370.264	119.98
370.474	33.96
370.685	-15.19
370.896	25.77
371.107	-72.53
371.317	42.15
371.528	-29.52
371.739	52.39
371.95	113.83
372.16	-21.33
372.371	81.07
372.582	1.19
372.792	60.59
373.003	58.54
373.214	83.11
373.424	89.26
373.635	40.11
373.846	58.54
374.056	-9.05
374.267	89.26
374.477	40.11
374.688	19.63
374.898	74.92
375.109	56.49
375.319	38.06
375.53	48.3
375.74	17.58
375.951	27.82
376.161	23.72
376.372	42.15
376.582	33.96
376.793	54.44
377.003	33.96
377.214	15.53
377.424	-7
377.635	1.19
377.845	31.91
378.055	1.19
378.266	33.96
378.476	115.88
378.686	11.43
378.897	25.77
379.107	15.53
379.317	25.77
379.528	48.3
379.738	48.3
379.948	11.43
380.158	1.19
380.369	21.67
380.579	-4.95
380.789	-21.33
380.999	70.83
381.21	103.59
381.42	87.21
381.63	74.92
381.84	62.63
382.05	-58.2
382.261	-2.9
382.471	62.63
382.681	-19.29
382.891	70.83
383.101	29.87
383.311	19.63
383.521	50.35
383.731	29.87
383.941	21.67
384.151	-11.09
384.361	21.67
384.571	25.77
384.781	33.96
384.991	50.35
385.201	76.97
385.411	-11.09
385.621	115.88
385.831	-19.29
386.041	25.77
386.251	40.11
386.461	101.55
386.671	-41.81
386.881	-23.38
387.091	64.68
387.301	54.44
387.511	68.78
387.72	33.96
387.93	21.67
388.14	44.2
388.35	29.87
388.56	-23.38
388.769	25.77
388.979	38.06
389.189	56.49
389.399	44.2
389.609	115.88
389.818	9.39
390.028	46.25
390.238	91.31
390.447	64.68
390.657	56.49
390.867	-19.29
391.076	1.19
391.286	99.5
391.496	38.06
391.705	-31.57
391.915	15.53
392.125	31.91
392.334	7.34
392.544	19.63
392.753	152.74
392.963	105.64
393.172	21.67
393.382	83.11
393.591	101.55
393.801	56.49
394.01	66.73
394.22	29.87
394.429	85.16
394.639	103.59
394.848	31.91
395.058	95.4
395.267	23.72
395.477	74.92
395.686	81.07
395.895	76.97
396.105	111.78
396.314	56.49
396.524	128.17
396.733	97.45
396.942	142.5
397.152	31.91
397.361	54.44
397.57	72.87
397.78	68.78
397.989	13.48
398.198	83.11
398.407	113.83
398.617	160.94
398.826	58.54
399.035	62.63
399.244	40.11
399.453	79.02
399.663	60.59
399.872	122.02
400.081	64.68
400.29	103.59
400.499	122.02
400.708	128.17
400.917	19.63
401.127	183.46
401.336	107.69
401.545	124.07
401.754	99.5
401.963	72.87
402.172	93.35
402.381	111.78
402.59	60.59
402.799	64.68
403.008	189.61
403.217	109.74
403.426	54.44
403.635	17.58
403.844	81.07
404.053	91.31
404.262	38.06
404.471	158.89
404.68	101.55
404.888	160.94
405.097	109.74
405.306	99.5
405.515	138.41
405.724	156.84
405.933	130.22
406.142	160.94
406.35	167.08
406.559	187.56
406.768	54.44
406.977	132.26
407.185	205.99
407.394	238.76
407.603	185.51
407.812	162.98
408.02	148.65
408.229	169.13
408.438	226.47
408.646	246.95
408.855	199.85
409.064	212.14
409.272	154.79
409.481	189.61
409.69	167.08
409.898	152.74
410.107	255.14
410.315	210.09
410.524	140.46
410.733	271.53
410.941	203.94
411.15	195.75
411.358	277.67
411.567	259.24
411.775	292.01
411.984	318.63
412.192	285.86
412.401	375.97
412.609	332.97
412.818	431.27
413.026	378.02
413.234	404.64
413.443	373.92
413.651	392.36
413.86	402.6
414.068	494.76
414.276	476.32
414.485	502.95
414.693	484.52
414.901	517.28
415.11	470.18
415.318	564.39
415.526	582.82
415.734	529.57
415.943	564.39
416.151	613.54
416.359	558.24
416.567	584.87
416.776	617.63
416.984	734.37
417.192	744.61
417.4	754.85
417.608	689.31
417.817	697.5
418.025	844.96
418.233	877.73
418.441	722.08
418.649	824.48
418.857	933.02
419.065	924.83
419.273	1008.8
419.481	990.36
419.689	1039.51
419.897	963.74
420.105	1236.12
420.313	1254.55
420.521	1176.73
420.729	1213.59
420.937	1209.5
421.145	1223.83
421.353	1375.38
421.561	1389.72
421.769	1498.26
421.977	1535.12
422.185	1406.1
422.393	1588.37
422.601	1701.01
422.809	1672.34
423.017	1803.41
423.224	1719.44
423.432	1799.31
423.64	1901.71
423.848	1991.82
424.056	1965.2
424.263	2053.26
424.471	1983.63
424.679	2151.56
424.887	2202.76
425.094	2260.1
425.302	2331.78
425.51	2454.66
425.718	2495.62
425.925	2559.11
426.133	2761.86
426.341	2735.23
426.548	2849.92
426.756	2804.86
426.964	2890.88
427.171	3038.33
427.379	3216.51
427.586	3112.06
427.794	3306.62
428.001	3380.34
428.209	3587.19
428.417	3572.85
428.624	3802.22
428.832	3705.97
429.039	3847.28
429.247	3841.14
429.454	4138.09
429.662	4490.34
429.869	4258.92
430.076	4447.33
430.284	4228.2
430.491	4457.57
430.699	4914.27
430.906	4820.07
431.114	4949.09
431.321	5055.58
431.528	5137.5
431.736	5405.78
431.943	5839.95
432.15	5549.14
432.358	5678.16
432.565	5895.25
432.772	5844.05
432.979	6177.87
433.187	6239.31
433.394	6239.31
433.601	6784.07
433.808	6751.3
434.016	6779.97
434.223	7091.26
434.43	7507
434.637	7423.03
434.844	7701.56
435.052	7765.04
435.259	7775.28
435.466	7785.52
435.673	7867.44
435.88	8293.42
436.087	8834.08
436.294	8905.76
436.501	8600.62
436.708	8844.32
436.915	8862.76
437.122	9309.21
437.329	9393.18
437.537	9712.66
437.743	9896.98
437.95	9847.83
438.157	10193.94
438.364	10494.99
438.571	10710.02
438.778	10734.6
438.985	11746.3
439.192	11265.02
439.399	11658.23
439.606	11213.82
439.813	12043.25
440.02	12561.39
440.227	12463.08
440.433	12372.97
440.64	12817.38
440.847	12645.35
441.054	13036.52
441.261	13741.02
441.467	13738.97
441.674	13824.98
441.881	14341.07
442.088	14611.4
442.294	14253.01
442.501	14617.55
442.708	15094.72
442.914	15637.44
443.121	16223.16
443.328	15786.94
443.534	16853.93
443.741	16374.7
443.948	16268.21
444.154	17372.07
444.361	17236.9
444.568	17648.54
444.774	17271.72
444.981	17562.53
445.187	18117.53
445.394	18791.31
445.6	18785.16
445.807	20493.17
446.013	19612.54
446.22	19843.96
446.426	20790.13
446.633	20818.8
446.839	21586.79
447.046	20460.4
447.252	21781.34
447.459	21756.77
447.665	21629.79
447.871	22932.3
448.078	23673.67
448.284	22891.34
448.491	23214.92
448.697	24437.56
448.903	24513.33
449.11	24234.81
449.316	24171.32
449.522	24822.58
449.728	25191.21
449.935	25531.17
450.141	25420.58
450.347	26135.32
450.553	25150.25
450.76	25776.93
450.966	26213.15
451.172	25922.34
451.378	26776.34
451.584	26090.27
451.791	26639.12
451.997	26665.75
452.203	27253.51
452.409	27319.05
452.615	26966.8
452.821	26250.01
453.027	25744.16
453.233	27190.03
453.44	25987.87
453.646	26563.35
453.852	26516.25
454.058	26667.8
454.264	25901.86
454.47	26690.32
454.676	25756.45
454.882	26739.47
455.088	24277.82
455.294	25131.82
455.5	24857.39
455.705	25412.39
455.911	24212.28
456.117	24093.5
456.323	23554.88
456.529	22344.53
456.735	23366.47
456.941	22461.27
457.147	22276.95
457.352	21738.33
457.558	21341.03
457.764	21697.38
457.97	21142.38
458.176	20826.99
458.381	20839.28
458.587	19356.55
458.793	20005.75
458.999	18529.17
459.204	19903.35
459.41	19262.34
459.616	17900.44
459.821	18076.57
460.027	18097.05
460.233	17644.45
460.438	16714.67
460.644	16878.51
460.85	16233.39
461.055	15977.4
461.261	15924.15
461.466	14775.24
461.672	14261.2
461.878	15184.83
462.083	14246.87
462.289	13964.25
462.494	13779.93
462.7	13112.29
462.905	12813.29
463.111	13286.37
463.316	13394.91
463.522	13020.13
463.727	13059.04
463.932	12981.22
464.138	13040.61
464.343	12930.02
464.549	12487.66
464.754	12846.05
464.959	12911.59
465.165	12631.02
465.37	12035.06
465.575	11957.24
465.781	12442.6
465.986	12463.08
466.191	11836.41
466.397	11615.23
466.602	11154.43
466.807	11666.42
467.012	11629.56
467.218	11627.51
467.423	11445.24
467.628	11545.59
467.833	12030.96
468.038	11664.38
468.244	11344.89
468.449	11652.09
468.654	11406.33
468.859	11287.55
469.064	11332.61
469.269	10746.89
469.474	10978.31
469.679	10963.97
469.885	10679.3
470.09	10576.91
470.295	10839.05
470.5	10607.62
470.705	10570.76
470.91	10372.11
471.115	10163.22
471.32	10474.51
471.525	10419.21
471.73	10085.39
471.935	10017.81
472.139	9755.67
472.344	9731.09
472.549	9552.92
472.754	9720.85
472.959	9509.91
473.164	9212.96
473.369	9085.98
473.574	9432.09
473.778	9221.15
473.983	9290.78
474.188	9176.09
474.393	9092.13
474.598	8809.51
474.802	8711.21
475.007	8698.92
475.212	8864.8
475.417	8406.06
475.621	8483.88
475.826	8332.33
476.031	8272.94
476.235	8168.49
476.44	8318
476.645	8158.25
476.849	8182.83
477.054	8143.92
477.259	7726.13
477.463	7785.52
477.668	7578.68
477.872	7621.69
478.077	7568.44
478.282	7341.11
478.486	7337.02
478.691	7314.49
478.895	7283.77
479.1	7355.45
479.304	7124.03
479.509	6968.38
479.713	7390.27
479.918	7070.78
480.122	6972.48
480.326	6980.67
480.531	6952
480.735	7107.65
480.94	6683.72
481.144	7052.35
481.348	6779.97
481.553	6769.73
481.757	6730.82
481.961	6763.59
482.166	6990.91
482.37	6884.42
482.574	6646.85
482.778	6859.84
482.983	6927.42
483.187	6747.2
483.391	6810.69
483.595	6722.63
483.8	6630.47
484.004	6706.24
484.208	6888.51
484.412	6749.25
484.616	6865.99
484.821	6728.77
485.025	6808.64
485.229	6820.93
485.433	6653
485.637	6810.69
485.841	6636.61
486.045	6700.1
486.249	6470.73
486.453	6775.88
486.657	6669.38
486.861	6741.06
487.065	6511.69
487.269	6775.88
487.473	6560.84
487.677	7003.2
487.881	6855.75
488.085	6669.38
488.289	6687.81
488.493	6794.31
488.697	6773.83
488.901	6661.19
489.105	6933.57
489.309	6767.68
489.512	6747.2
489.716	6788.16
489.92	6886.47
490.124	6710.34
490.328	6984.77
490.531	6863.94
490.735	6896.71
490.939	7005.25
491.143	7003.2
491.346	7081.02
491.55	6980.67
491.754	6964.29
491.958	7013.44
492.161	7089.21
492.365	7001.15
492.569	7060.54
492.772	6982.72
492.976	7158.85
493.18	7287.87
493.383	7152.7
493.587	7306.3
493.79	7461.94
493.994	7455.8
494.197	7371.83
494.401	7453.75
494.605	7531.58
494.808	7601.21
495.012	7527.48
495.215	7611.45
495.419	7586.87
495.622	7578.68
495.825	7689.27
496.029	7883.83
496.232	8047.66
496.436	7756.85
496.639	8004.66
496.843	8207.41
497.046	8375.34
497.249	8344.62
497.453	8475.69
497.656	8408.11
497.859	8426.54
498.063	8447.02
498.266	8864.8
498.469	8731.69
498.673	8778.79
498.876	8916
499.079	9116.7
499.282	8873
499.485	9172
499.689	9440.28
499.892	9239.58
500.095	9647.13
500.298	9786.39
500.501	9356.32
500.705	9862.16
500.908	9944.08
501.111	10060.82
501.314	10142.74
501.517	10019.86
501.72	10376.2
501.923	9997.33
502.126	10611.72
502.329	10478.6
502.532	10595.34
502.735	10849.29
502.938	11015.17
503.141	11023.36
503.344	11201.54
503.547	11406.33
503.75	11392
503.953	11461.63
504.156	11740.15
504.359	11793.4
504.562	11785.21
504.765	11975.67
504.968	12278.77
505.17	12311.53
505.373	12235.76
505.576	12522.48
505.779	12489.71
505.982	12651.5
506.185	13018.08
506.387	12897.25
506.59	13245.41
506.793	13245.41
506.996	13169.63
507.198	13503.45
507.401	13538.27
507.604	13376.48
507.807	13876.18
508.009	14132.18
508.212	14091.22
508.415	14332.88
508.617	14531.53
508.82	14476.24
509.022	14445.52
509.225	14767.05
509.428	15088.58
509.63	15221.7
509.833	15338.43
510.035	15457.21
510.238	15328.19
510.44	15573.95
510.643	15846.33
510.845	15893.43
511.048	16047.03
511.25	16137.14
511.453	16503.73
511.655	16720.81
511.858	16407.47
512.06	16817.07
512.262	16866.22
512.465	16815.02
512.667	17122.21
512.87	17091.49
513.072	17556.38
513.274	17658.78
513.477	17730.46
513.679	18013.08
513.881	18217.88
514.084	18219.92
514.286	17978.26
514.488	18606.99
514.69	19004.3
514.893	19141.51
515.095	19086.22
515.297	19065.74
515.499	19381.12
515.701	19319.68
515.904	19682.17
516.106	19954.55
516.308	19880.83
516.51	20185.97
516.712	20136.82
516.914	20575.09
517.116	20505.46
517.318	20816.75
517.52	20786.03
517.722	20984.68
517.925	21154.66
518.127	21588.83
518.329	21488.48
518.531	21433.19
518.733	22141.78
518.935	21990.24
519.136	22309.72
519.338	22188.89
519.54	22393.68
519.742	22829.9
519.944	23196.49
520.146	23141.19
520.348	23479.11
520.55	23196.49
520.752	23485.25
520.954	23923.52
521.155	23804.74
521.357	24146.75
521.559	24451.89
521.761	24552.24
521.963	24421.17
522.164	24439.61
522.366	24673.07
522.568	25123.63
522.77	24924.97
522.971	25031.47
523.173	25277.22
523.375	25340.71
523.576	25424.68
523.778	25629.48
523.98	25768.74
524.181	25940.77
524.383	25774.88
524.584	25895.71
524.786	26641.17
524.988	26284.83
525.189	26612.5
525.391	26743.57
525.592	26979.09
525.794	26907.41
525.995	27020.05
526.197	26784.53
526.398	27247.37
526.6	27411.21
526.801	27282.19
527.003	27464.46
527.204	27714.31
527.406	27841.28
527.607	27742.98
527.808	27808.51
528.01	27609.86
528.211	27804.42
528.412	28365.56
528.614	27669.25
528.815	28257.02
529.016	28373.75
529.218	28117.76
529.419	28091.13
529.62	28453.62
529.822	28392.19
530.023	28662.52
530.224	28406.52
530.425	28750.58
530.626	28371.71
530.828	27935.49
531.029	29188.85
531.23	28863.22
531.431	29111.02
531.632	28715.76
531.833	28859.12
532.035	29113.07
532.236	29201.13
532.437	28977.9
532.638	28785.4
532.839	28775.16
533.04	29133.55
533.241	28955.38
533.442	29246.19
533.643	29260.52
533.844	29305.58
534.045	29158.13
534.246	28838.64
534.447	29450.99
534.648	28895.99
534.849	29448.94
535.05	28963.57
535.251	29215.47
535.451	28945.14
535.652	29119.21
535.853	29020.91
536.054	29168.37
536.255	29526.76
536.456	29018.86
536.657	29438.7
536.857	29176.56
537.058	29129.45
537.259	29145.84
537.46	29356.78
537.66	29192.94
537.861	29133.55
538.062	29117.17
538.263	29606.63
538.463	29035.25
538.664	29225.71
538.865	29248.24
539.065	29446.89
539.266	28781.3
539.466	29551.34
539.667	29143.79
539.868	29319.92
540.068	29311.72
540.269	29199.09
540.469	29485.8
540.67	29190.89
540.87	28861.17
541.071	28936.95
541.271	29317.87
541.472	28996.34
541.672	29020.91
541.873	28803.83
542.073	29057.78
542.274	29438.7
542.474	29258.48
542.675	28777.2
542.875	29080.3
543.075	29100.78
543.276	28816.11
543.476	29721.32
543.676	28963.57
543.877	29283.05
544.077	28979.95
544.277	29051.63
544.478	29029.1
544.678	28830.45
544.878	28799.73
545.078	29119.21
545.279	29268.72
545.479	28658.42
545.679	28982
545.879	28986.1
546.079	29027.06
546.28	28906.23
546.48	28644.09
546.68	28986.1
546.88	28504.82
547.08	28719.86
547.28	28975.86
547.48	28238.59
547.68	29092.59
547.88	28590.84
548.081	28900.08
548.281	28830.45
548.481	29102.83
548.681	29113.07
548.881	28517.11
549.081	28984.05
549.28	28775.16
549.48	28836.59
549.68	28613.37
549.88	29188.85
550.08	28529.4
550.28	28773.11
550.48	28803.83
550.68	28730.1
550.88	28388.09
551.08	28648.18
551.279	28588.79
551.479	28324.6
551.679	28838.64
551.879	28721.91
552.079	28621.56
552.278	28435.19
552.478	28564.21
552.678	28650.23
552.878	28859.12
553.077	28746.48
553.277	28429.05
553.477	28572.41
553.676	28459.77
553.876	28308.22
554.076	28099.33
554.275	28730.1
554.475	28021.5
554.674	28259.07
554.874	28486.39
555.074	28265.21
555.273	28455.67
555.473	28752.63
555.672	28361.47
555.872	28447.48
556.071	28283.64
556.271	28320.51
556.47	28271.36
556.67	27775.75
556.869	28228.35
557.068	28179.2
557.268	28185.34
557.467	28080.89
557.667	27968.26
557.866	28152.57
558.065	28035.84
558.265	28273.4
558.464	27874.05
558.663	27962.11
558.863	27486.98
559.062	28312.31
559.261	27558.66
559.461	27839.23
559.66	27460.36
559.859	27931.39
560.058	27462.41
560.258	27710.21
560.457	27517.7
560.656	27616.01
560.855	27466.5
561.054	27534.09
561.253	27181.84
561.453	27398.92
561.652	27175.69
561.851	27435.78
562.05	27138.83
562.249	27106.06
562.448	27202.32
562.647	26888.98
562.846	27048.72
563.045	27317
563.244	26876.69
563.443	27222.8
563.642	26653.46
563.841	27228.94
564.04	26860.3
564.239	27089.68
564.438	26440.47
564.637	26880.78
564.836	26680.08
565.035	26524.44
565.234	26522.39
565.432	26112.8
565.631	26475.29
565.83	26612.5
566.029	26348.31
566.228	26268.44
566.427	26153.76
566.625	26057.5
566.824	25750.31
567.023	26247.96
567.222	25557.8
567.42	26282.78
567.619	25901.86
567.818	25869.09
568.016	25652
568.215	26012.45
568.414	25590.56
568.612	26221.34
568.811	25754.4
569.01	25676.58
569.208	25498.41
569.407	25664.29
569.605	25461.54
569.804	25701.15
570.002	25017.13
570.201	25353
570.4	25301.8
570.598	25117.48
570.797	24955.69
570.995	25195.31
571.193	24843.06
571.392	24906.54
571.59	24857.39
571.789	24900.4
571.987	24738.61
572.186	24771.38
572.384	24599.35
572.582	24851.25
572.781	24992.56
572.979	24273.72
573.177	24658.74
573.376	24517.43
573.574	24003.39
573.772	24707.89
573.971	24445.75
574.169	24107.83
574.367	23970.62
574.565	24480.57
574.763	24193.85
574.962	24040.25
575.16	23565.12
575.358	23886.65
575.556	23491.4
575.754	23864.13
575.952	23649.09
576.151	23487.3
576.349	23266.12
576.547	23735.1
576.745	23620.42
576.943	23501.64
577.141	23194.44
577.339	23192.39
577.537	23259.98
577.735	23544.64
577.933	23016.27
578.131	23032.65
578.329	23063.37
578.527	22956.88
578.725	22989.64
578.923	22815.57
579.121	22672.21
579.319	22811.47
579.516	22856.53
579.714	22895.44
579.912	22690.64
580.11	22354.77
580.308	22555.47
580.506	22741.84
580.704	22403.92
580.901	22405.97
581.099	22502.23
581.297	22322.01
581.495	22135.64
581.692	22369.11
581.89	21732.19
582.088	22078.3
582.285	22059.87
582.483	22119.26
582.681	21785.44
582.878	21898.08
583.076	21676.9
583.274	22135.64
583.471	21439.33
583.669	21902.17
583.866	21349.22
584.064	21795.68
584.262	21193.58
584.459	21439.33
584.657	21281.64
584.854	21689.18
585.052	21058.41
585.249	21209.96
585.447	21336.93
585.644	21099.37
585.841	20956.01
586.039	21113.7
586.236	21095.27
586.434	20878.19
586.631	20767.6
586.828	20663.15
587.026	20808.56
587.223	20749.17
587.42	20661.1
587.618	21072.75
587.815	20630.38
588.012	20609.9
588.21	20401.01
588.407	20542.32
588.604	20446.07
588.801	20323.19
588.999	20163.45
589.196	20159.35
589.393	20147.06
589.59	20257.65
589.787	19983.23
589.984	19999.61
590.182	19831.68
590.379	19706.75
590.576	19676.03
590.773	19600.26
590.97	19727.23
591.167	19565.44
591.364	19254.15
591.561	19456.9
591.758	19278.72
591.955	19452.8
592.152	19555.2
592.349	19299.2
592.546	19389.31
592.743	19272.58
592.94	18942.86
593.137	19116.93
593.334	19403.65
593.531	18824.08
593.727	19045.26
593.924	19065.74
594.121	18686.86
594.318	19231.62
594.515	18559.89
594.712	19000.2
594.908	18287.51
595.105	18981.77
595.302	18523.02
595.499	18228.12
595.696	18385.81
595.892	18324.37
596.089	18146.2
596.286	18357.14
596.482	18109.33
596.679	18140.05
596.876	18168.73
597.072	18084.76
597.269	17841.05
597.466	17941.4
597.662	17677.21
597.859	17687.45
598.055	17666.97
598.252	17466.27
598.448	17503.14
598.645	17363.87
598.841	17288.1
599.038	17595.29
599.234	17386.4
599.431	17437.6
599.627	17331.11
599.824	17460.13
600.02	17013.67
600.217	17400.74
600.413	17236.9
600.609	17001.38
600.806	16792.49
601.002	16970.66
601.198	17011.62
601.395	16681.9
601.591	16774.06
601.787	16860.07
601.984	16862.12
602.18	16790.44
602.376	16583.6
602.572	16831.4
602.769	16520.11
602.965	16237.49
603.161	16556.97
603.357	16421.81
603.553	16485.3
603.75	16440.24
603.946	16030.65
604.142	16415.66
604.338	15934.39
604.534	16268.21
604.73	16108.47
604.926	15958.97
605.122	16014.26
605.318	15872.95
605.514	15926.2
605.71	15881.14
605.906	15866.81
606.102	15897.53
606.298	15803.32
606.494	15799.23
606.69	15731.64
606.886	15563.71
607.082	15479.74
607.278	15776.7
607.474	15393.73
607.67	15375.3
607.866	15242.18
608.062	15287.23
608.257	15221.7
608.453	15604.67
608.649	15317.95
608.845	15289.28
609.041	15262.66
609.236	15350.72
609.432	15090.63
609.628	15305.67
609.824	15080.39
610.019	14842.82
610.215	15102.92
610.411	15225.79
610.606	14851.02
610.802	15098.82
610.998	14908.36
611.193	14906.31
611.389	14803.91
611.584	14625.74
611.78	14824.39
611.976	14793.67
612.171	14631.88
612.367	14906.31
612.562	14420.94
612.758	14547.92
612.953	14650.32
613.149	14879.69
613.344	14312.4
613.539	14654.41
613.735	14443.47
613.93	14470.09
614.126	14304.21
614.321	14359.5
614.517	14418.89
614.712	14203.86
614.907	14427.09
615.103	14500.81
615.298	14296.02
615.493	14490.57
615.688	14142.42
615.884	14384.08
616.079	13997.01
616.274	14138.32
616.47	14328.78
616.665	13999.06
616.86	14040.02
617.055	14164.95
617.25	13800.41
617.445	13951.96
617.641	13929.43
617.836	14113.75
618.031	13575.13
618.226	14103.51
618.421	13886.42
618.616	13788.12
618.811	13317.09
619.006	13870.04
619.201	13464.54
619.396	13806.55
619.591	13353.95
619.786	13661.15
619.981	13265.89
620.176	13302.75
620.371	13259.74
620.566	13310.94
620.761	13059.04
620.956	13362.14
621.151	13190.11
621.346	13167.59
621.541	12829.67
621.735	13097.95
621.93	12659.69
622.125	12798.95
622.32	12569.58
622.515	12739.56
622.709	12602.35
622.904	12633.07
623.099	12639.21
623.294	12665.83
623.488	12327.92
623.683	12606.44
623.878	12264.43
624.072	12164.08
624.267	12182.51
624.462	12112.88
624.656	11920.37
624.851	11961.33
625.046	11936.76
625.24	11809.78
625.435	11744.25
625.629	11815.93
625.824	11568.12
626.018	11545.59
626.213	11488.25
626.407	11447.29
626.602	11312.13
626.796	11254.78
626.991	11371.52
627.185	11205.63
627.38	11092.99
627.574	11011.07
627.768	11052.03
627.963	10970.12
628.157	11027.46
628.352	10904.58
628.546	10712.07
628.74	10773.51
628.935	10624.01
629.129	10695.69
629.323	10308.62
629.517	10527.75
629.712	10581
629.906	10456.08
630.1	10288.14
630.294	10454.03
630.489	10216.46
630.683	10411.02
630.877	10130.45
631.071	10193.94
631.265	10226.7
631.459	10079.25
631.653	9968.66
631.848	10026
632.042	9667.61
632.236	9907.22
632.43	9581.59
632.624	9757.72
632.818	9823.25
633.012	9446.43
633.206	9534.49
633.4	9616.41
633.594	9298.97
633.788	9389.08
633.982	9473.05
634.176	9219.1
634.369	9143.33
634.563	9489.43
634.757	9335.84
634.951	9061.41
635.145	9147.42
635.339	9088.03
635.533	8774.69
635.726	8940.58
635.92	8840.23
636.114	8868.9
636.308	8846.37
636.501	8856.61
636.695	8829.99
636.889	8582.18
637.083	8782.88
637.276	8553.51
637.47	8688.68
637.664	8334.38
637.857	8553.51
638.051	8516.65
638.244	8373.29
638.438	8371.24
638.632	8322.09
638.825	8115.25
639.019	8172.59
639.212	7920.69
639.406	8150.06
639.599	8174.64
639.793	8000.56
639.986	8070.19
640.18	8025.14
640.373	7912.5
640.567	7765.04
640.76	7818.29
640.954	7746.61
641.147	7533.62
641.34	7662.65
641.534	7668.79
641.727	7738.42
641.92	7666.74
642.114	7607.35
642.307	7472.18
642.5	7326.78
642.694	7326.78
642.887	7208
643.08	7400.51
643.273	7296.06
643.467	7183.42
643.66	7193.66
643.853	7382.07
644.046	7261.24
644.239	7134.27
644.432	7230.52
644.626	6906.95
644.819	6972.48
645.012	7136.32
645.205	7171.13
645.398	7019.58
645.591	6870.08
645.784	6929.47
645.977	6708.29
646.17	6831.17
646.363	6532.17
646.556	6558.79
646.749	6753.35
646.942	6530.12
647.135	6552.65
647.328	6528.07
647.521	6595.65
647.714	6558.79
647.907	6401.1
648.099	6329.42
648.292	6259.79
648.485	6417.48
648.678	6290.51
648.871	6208.59
649.064	6358.09
649.256	6253.64
649.449	6310.99
649.642	6120.53
649.835	6089.81
650.027	6124.62
650.22	6046.8
650.413	6036.56
650.605	6110.29
650.798	5899.34
650.991	5925.97
651.183	5856.34
651.376	5977.17
651.568	5842
651.761	5702.74
651.954	5817.43
652.146	5743.7
652.339	5637.2
652.531	5751.89
652.724	5708.88
652.916	5651.54
653.109	5672.02
653.301	5620.82
653.494	5583.96
653.686	5543
653.879	5471.32
654.071	5596.25
654.263	5325.91
654.456	5411.93
654.648	5456.98
654.84	5524.57
655.033	5231.71
655.225	5301.34
655.417	5327.96
655.61	5291.1
655.802	5088.35
655.994	5264.47
656.186	5295.19
656.379	5160.03
656.571	5121.12
656.763	5090.4
656.955	5106.78
657.148	4965.47
657.34	5012.57
657.532	5117.02
657.724	4904.03
657.916	4998.24
658.108	4897.89
658.3	4850.78
658.492	4936.8
658.684	4785.25
658.876	4756.58
659.068	4738.15
659.26	4734.05
659.452	4668.52
659.644	4844.64
659.836	4600.93
660.028	4670.56
660.22	4514.92
660.412	4701.28
660.604	4756.58
660.796	4631.65
660.988	4564.07
661.18	4547.69
661.372	4478.05
661.563	4584.55
661.755	4525.16
661.947	4439.14
662.139	4379.75
662.331	4381.8
662.522	4355.18
662.714	4269.16
662.906	4220.01
663.097	4476.01
663.289	4392.04
663.481	4291.69
663.673	4381.8
663.864	4338.79
664.056	4207.72
664.247	4193.39
664.439	4097.13
664.631	4170.86
664.822	4211.82
665.014	4146.28
665.205	4179.05
665.397	4209.77
665.588	3933.29
665.78	3959.92
665.971	4070.51
666.163	4068.46
666.354	3961.97
666.546	3982.45
666.737	3916.91
666.929	3941.49
667.12	3910.77
667.311	3904.62
667.503	3744.88
667.694	3894.38
667.885	3859.57
668.077	3826.8
668.268	3837.04
668.459	3761.27
668.651	3775.6
668.842	3810.42
669.033	3740.79
669.224	3748.98
669.416	3925.1
669.607	3751.03
669.798	3773.55
669.989	3751.03
670.18	3529.84
670.371	3671.15
670.563	3581.04
670.754	3681.39
670.945	3568.76
671.136	3636.34
671.327	3603.57
671.518	3601.52
671.709	3748.98
671.9	3597.43
672.091	3581.04
672.282	3548.28
672.473	3488.89
672.664	3509.37
672.855	3609.72
673.046	3519.6
673.237	3472.5
673.428	3372.15
673.619	3556.47
673.809	3406.97
674	3394.68
674.191	3318.9
674.382	3249.27
674.573	3439.73
674.764	3349.62
674.954	3302.52
675.145	3318.9
675.336	3318.9
675.527	3292.28
675.717	3357.82
675.908	3390.58
676.099	3310.71
676.289	3314.81
676.48	3404.92
676.671	3304.57
676.861	3347.58
677.052	3196.03
677.243	3200.12
677.433	3183.74
677.624	3173.5
677.814	3236.99
678.005	3138.68
678.195	3306.62
678.386	3171.45
678.576	3204.22
678.767	3159.16
678.957	3081.34
679.148	3146.87
679.338	3130.49
679.529	3241.08
679.719	3273.85
679.909	3249.27
680.1	3169.4
680.29	3134.59
680.481	3236.99
680.671	3277.94
680.861	3091.58
681.052	3226.75
681.242	3095.68
681.432	3130.49
681.622	3134.59
681.813	3048.57
682.003	3054.72
682.193	3243.13
682.383	3071.1
682.573	3040.38
682.764	3067
682.954	3052.67
683.144	3118.2
683.334	3007.61
683.524	3040.38
683.714	3087.48
683.904	3081.34
684.094	2983.04
684.284	3130.49
684.474	3161.21
684.664	3060.86
684.854	2993.28
685.044	2892.93
685.234	2880.64
685.424	3017.85
685.614	2974.85
685.804	2897.02
685.994	2819.2
686.184	2931.84
686.374	2804.86
686.564	2835.58
686.753	2913.41
686.943	2892.93
687.133	2835.58
687.323	2843.78
687.513	2743.42
687.702	2837.63
687.892	2737.28
688.082	2614.4
688.272	2774.14
688.461	2849.92
688.651	2835.58
688.841	2786.43
689.03	2681.99
689.22	2677.89
689.41	2770.05
689.599	2604.16
689.789	2688.13
689.979	2684.03
690.168	2600.07
690.358	2561.16
690.547	2571.4
690.737	2671.75
690.926	2512
691.116	2526.34
691.305	2591.88
691.495	2604.16
691.684	2344.07
691.874	2495.62
692.063	2550.92
692.252	2483.33
692.442	2555.01
692.631	2378.89
692.82	2290.82
693.01	2462.85
693.199	2483.33
693.388	2323.59
693.578	2352.26
693.767	2466.95
693.956	2278.54
694.146	2419.85
694.335	2294.92
694.524	2348.17
694.713	2274.44
694.902	2368.65
695.092	2217.1
695.281	2315.4
695.47	2319.5
695.659	2204.81
695.848	2288.78
696.037	2362.5
696.226	2196.62
696.415	2118.79
696.604	2215.05
696.793	2182.28
696.982	2038.92
697.171	2264.2
697.36	2155.66
697.549	2188.43
697.738	2167.95
697.927	2213
698.116	2151.56
698.305	2032.78
698.494	2176.14
698.683	2088.07
698.872	2194.57
699.061	2010.25
699.25	2063.5
699.438	2116.75
699.627	2065.55
699.816	2016.4
700.005	2145.42
700.193	1971.34
700.382	1965.2
700.571	2038.92
700.76	2045.07
700.948	2020.49
701.137	2102.41
701.326	2102.41
701.514	2100.36
701.703	2022.54
701.892	1899.66
702.08	2077.83
702.269	1995.92
702.457	2010.25
702.646	1914
702.834	2090.12
703.023	1975.44
703.212	2040.97
703.4	1979.53
703.589	2051.21
703.777	2073.74
703.965	2018.44
704.154	2020.49
704.342	2081.93
704.531	2024.59
704.719	1852.56
704.907	1979.53
705.096	1959.05
705.284	1977.48
705.472	1971.34
705.661	1963.15
705.849	1909.9
706.037	1987.72
706.226	1969.29
706.414	1969.29
706.602	2014.35
706.79	1932.43
706.979	1965.2
707.167	1954.96
707.355	1907.85
707.543	2053.26
707.731	2047.12
707.919	1934.48
708.107	1977.48
708.296	1991.82
708.484	1938.57
708.672	1952.91
708.86	2004.11
709.048	1885.33
709.236	1934.48
709.424	2024.59
709.612	1948.81
709.8	1942.67
709.988	1975.44
710.176	2071.69
710.364	2014.35
710.551	1987.72
710.739	2012.3
710.927	1940.62
711.115	1967.24
711.303	1965.2
711.491	1963.15
711.679	1983.63
711.866	1977.48
712.054	2022.54
712.242	2102.41
712.43	2110.6
712.617	2047.12
712.805	2096.27
712.993	2159.75
713.181	2092.17
713.368	2045.07
713.556	2055.31
713.744	2020.49
713.931	1979.53
714.119	2020.49
714.306	2063.5
714.494	2024.59
714.682	2008.2
714.869	2002.06
715.057	2069.64
715.244	1989.77
715.432	2106.51
715.619	2102.41
715.807	2167.95
715.994	2116.75
716.182	1997.96
716.369	2143.37
716.556	2063.5
716.744	2124.94
716.931	2071.69
717.119	2163.85
717.306	2055.31
717.493	2135.18
717.681	2040.97
717.868	2229.38
718.055	2122.89
718.242	2227.34
718.43	2229.38
718.617	2129.03
718.804	2102.41
718.991	2196.62
719.179	2077.83
719.366	2126.99
719.553	2172.04
719.74	2157.71
719.927	2159.75
720.114	2233.48
720.301	2178.19
720.488	2104.46
720.676	2176.14
720.863	2208.9
721.05	2208.9
721.237	2163.85
721.424	2167.95
721.611	2223.24
721.798	2133.13
721.985	2086.03
722.172	2200.71
722.358	2245.77
722.545	2149.51
722.732	2131.08
722.919	2221.19
723.106	2303.11
723.293	2258.06
723.48	2278.54
723.667	2192.52
723.853	2307.21
724.04	2198.67
724.227	2202.76
724.414	2292.87
724.6	2223.24
724.787	2178.19
724.974	2229.38
725.161	2208.9
725.347	2196.62
725.534	2294.92
725.72	2213
725.907	2286.73
726.094	2278.54
726.28	2151.56
726.467	2206.86
726.653	2368.65
726.84	2245.77
727.027	2329.74
727.213	2315.4
727.4	2319.5
727.586	2329.74
727.773	2235.53
727.959	2403.46
728.145	2251.91
728.332	2241.67
728.518	2213
728.705	2415.75
728.891	2358.41
729.077	2335.88
729.264	2178.19
729.45	2350.21
729.636	2323.59
729.823	2319.5
730.009	2325.64
730.195	2364.55
730.382	2374.79
730.568	2305.16
730.754	2385.03
730.94	2331.78
731.126	2436.23
731.313	2229.38
731.499	2325.64
731.685	2342.02
731.871	2299.02
732.057	2380.93
732.243	2307.21
732.429	2333.83
732.615	2397.32
732.801	2344.07
732.987	2391.17
733.173	2413.7
733.359	2409.61
733.545	2307.21
733.731	2262.15
733.917	2374.79
734.103	2311.3
734.289	2311.3
734.475	2387.08
734.661	2296.97
734.847	2346.12
735.033	2405.51
735.219	2268.3
735.404	2245.77
735.59	2303.11
735.776	2299.02
735.962	2325.64
736.148	2346.12
736.333	2335.88
736.519	2342.02
736.705	2319.5
736.89	2219.14
737.076	2335.88
737.262	2329.74
737.447	2327.69
737.633	2337.93
737.819	2358.41
738.004	2301.06
738.19	2321.54
738.375	2243.72
738.561	2280.58
738.747	2311.3
738.932	2235.53
739.118	2356.36
739.303	2296.97
739.489	2280.58
739.674	2262.15
739.859	2339.97
740.045	2231.43
740.23	2221.19
740.416	2088.07
740.601	2276.49
740.786	2268.3
740.972	2245.77
741.157	2237.58
741.342	2258.06
741.528	2221.19
741.713	2278.54
741.898	2284.68
742.084	2331.78
742.269	2176.14
742.454	2249.86
742.639	2172.04
742.824	2204.81
743.01	2206.86
743.195	2307.21
743.38	2204.81
743.565	2241.67
743.75	2124.94
743.935	2143.37
744.12	2131.08
744.305	2057.36
744.49	2194.57
744.675	2114.7
744.86	2143.37
745.045	2159.75
745.23	2057.36
745.415	2165.9
745.6	2040.97
745.785	2069.64
745.97	2131.08
746.155	2065.55
746.34	2038.92
746.525	2157.71
746.71	2059.4
746.895	1987.72
747.079	1950.86
747.264	1950.86
747.449	1852.56
747.634	1889.42
747.819	1963.15
748.003	1877.13
748.188	1987.72
748.373	1862.8
748.557	1920.14
748.742	1840.27
748.927	1873.04
749.111	1780.88
749.296	1909.9
749.481	1838.22
749.665	1811.6
749.85	1914
750.034	1811.6
750.219	1811.6
750.404	1799.31
750.588	1660.05
750.773	1737.87
750.957	1627.28
751.141	1819.79
751.326	1705.1
751.51	1762.45
751.695	1739.92
751.879	1647.76
752.064	1752.21
752.248	1612.95
752.432	1639.57
752.617	1664.15
752.801	1686.67
752.985	1627.28
753.17	1553.55
753.354	1684.62
753.538	1590.42
753.722	1531.03
753.907	1514.64
754.091	1582.23
754.275	1602.71
754.459	1574.03
754.643	1537.17
754.828	1477.78
755.012	1518.74
755.196	1410.2
755.38	1506.45
755.564	1436.82
755.748	1363.09
755.932	1451.16
756.116	1395.86
756.3	1465.49
756.484	1414.29
756.668	1445.01
756.852	1301.65
757.036	1350.81
757.22	1344.66
757.404	1367.19
757.588	1391.77
757.772	1330.33
757.956	1369.24
758.14	1348.76
758.323	1375.38
758.507	1330.33
758.691	1262.74
758.875	1330.33
759.059	1348.76
759.242	1297.56
759.426	1291.41
759.61	1264.79
759.794	1213.59
759.977	1240.22
760.161	1246.36
760.345	1193.11
760.528	1176.73
760.712	1172.63
760.895	1242.26
761.079	1262.74
761.263	1133.72
761.446	1137.82
761.63	1205.4
761.813	1262.74
761.997	1189.02
762.18	1115.29
762.364	1178.78
762.547	1057.95
762.731	1111.19
762.914	1131.67
763.098	1119.39
763.281	1156.25
763.464	1166.49
763.648	1113.24
763.831	1092.76
764.015	1135.77
764.198	1119.39
764.381	1057.95
764.564	1070.23
764.748	1082.52
764.931	1053.85
765.114	1025.18
765.297	1090.71
765.481	978.08
765.664	1041.56
765.847	1033.37
766.03	1184.92
766.213	980.12
766.397	1049.75
766.58	963.74
766.763	955.55
766.946	1014.94
767.129	965.79
767.312	992.41
767.495	947.36
767.678	992.41
767.861	988.32
768.044	978.08
768.227	1012.89
768.41	1004.7
768.593	924.83
768.776	986.27
768.959	978.08
769.142	992.41
769.324	883.87
769.507	947.36
769.69	947.36
769.873	900.25
770.056	969.88
770.239	930.97
770.421	957.6
770.604	928.92
770.787	879.77
770.97	996.51
771.152	896.16
771.335	976.03
771.518	887.97
771.7	922.78
771.883	912.54
772.066	818.33
772.248	885.92
772.431	887.97
772.613	906.4
772.796	836.77
772.978	814.24
773.161	832.67
773.343	912.54
773.526	877.73
773.708	816.29
773.891	791.71
774.073	812.19
774.256	763.04
774.438	871.58
774.621	701.6
774.803	771.23
774.985	765.09
775.168	797.85
775.35	701.6
775.532	838.81
775.715	791.71
775.897	726.18
776.079	746.66
776.261	730.27
776.444	722.08
776.626	677.02
776.808	689.31
776.99	695.46
777.173	763.04
777.355	822.43
777.537	636.06
777.719	638.11
777.901	685.22
778.083	664.74
778.265	638.11
778.447	660.64
778.629	734.37
778.811	746.66
778.993	627.87
779.175	677.02
779.357	656.54
779.539	662.69
779.721	619.68
779.903	672.93
780.085	539.81
780.267	648.35
780.449	527.52
780.631	640.16
780.812	599.2
780.994	644.26
781.176	660.64
781.358	621.73
781.54	511.14
781.721	591.01
781.903	623.78
782.085	525.47
782.267	558.24
782.448	560.29
782.63	619.68
782.812	584.87
782.993	541.86
783.175	584.87
783.357	474.28
783.538	521.38
783.72	482.47
783.901	509.09
784.083	472.23
784.264	492.71
784.446	476.32
784.627	519.33
784.809	468.13
784.99	423.08
785.172	572.58
785.353	480.42
785.535	435.36
785.716	470.18
785.897	457.89
786.079	496.8
786.26	388.26
786.441	482.47
786.623	421.03
786.804	388.26
786.985	488.61
787.167	414.88
787.348	517.28
787.529	433.32
787.71	529.57
787.891	418.98
788.073	455.84
788.254	404.64
788.435	423.08
788.616	425.12
788.797	445.6
788.978	457.89
789.159	371.88
789.34	380.07
789.522	388.26
789.703	414.88
789.884	418.98
790.065	390.31
790.246	398.5
790.427	388.26
790.607	418.98
790.788	427.17
790.969	316.58
791.15	380.07
791.331	353.45
791.512	355.49
791.693	369.83
791.874	328.87
792.054	380.07
792.235	361.64
792.416	369.83
792.597	337.06
792.778	367.78
792.958	433.32
793.139	353.45
793.32	310.44
793.5	318.63
793.681	363.69
793.862	275.62
794.042	365.73
794.223	271.53
794.404	326.82
794.584	304.29
794.765	271.53
794.945	320.68
795.126	312.49
795.306	363.69
795.487	306.34
795.667	279.72
795.848	318.63
796.028	296.1
796.209	277.67
796.389	283.81
796.57	273.57
796.75	240.81
796.93	318.63
797.111	296.1
797.291	369.83
797.471	273.57
797.652	263.33
797.832	287.91
798.012	318.63
798.192	214.18
798.373	261.29
798.553	285.86
798.733	335.01
798.913	263.33
799.093	310.44
799.274	271.53
799.454	324.77
799.634	214.18
799.814	359.59
799.994	210.09
800.174	263.33
800.354	269.48
800.534	212.14
800.714	279.72
800.894	214.18
801.074	199.85
801.254	263.33
801.434	253.09
801.614	244.9
801.794	220.33
801.974	564.39
802.154	230.57
802.334	187.56
802.514	185.51
802.693	228.52
802.873	195.75
803.053	259.24
803.233	222.38
803.413	183.46
803.592	218.28
803.772	289.96
803.952	197.8
804.131	259.24
804.311	265.38
804.491	283.81
804.67	185.51
804.85	165.03
805.03	175.27
805.209	205.99
805.389	238.76
805.568	171.18
805.748	183.46
805.928	173.22
806.107	201.9
806.287	205.99
806.466	230.57
806.646	203.94
806.825	146.6
807.004	175.27
807.184	197.8
807.363	181.42
807.543	214.18
807.722	220.33
807.901	136.36
808.081	310.44
808.26	185.51
808.439	173.22
808.619	253.09
808.798	140.46
808.977	302.25
809.156	179.37
809.336	203.94
809.515	142.5
809.694	193.7
809.873	169.13
810.052	189.61
810.231	230.57
810.411	240.81
810.59	162.98
810.769	173.22
810.948	228.52
811.127	138.41
811.306	197.8
811.485	146.6
811.664	203.94
811.843	152.74
812.022	148.65
812.201	154.79
812.38	191.66
812.559	124.07
812.737	226.47
812.916	165.03
813.095	111.78
813.274	201.9
813.453	152.74
813.632	187.56
813.811	128.17
813.989	132.26
814.168	179.37
814.347	107.69
814.526	152.74
814.704	95.4
814.883	236.71
815.062	156.84
815.24	201.9
815.419	154.79
815.598	146.6
815.776	158.89
815.955	162.98
816.133	122.02
816.312	79.02
816.49	154.79
816.669	150.7
816.847	189.61
817.026	179.37
817.204	179.37
817.383	150.7
817.561	122.02
817.74	136.36
817.918	165.03
818.097	89.26
818.275	105.64
818.453	185.51
818.632	162.98
818.81	181.42
818.988	124.07
819.167	136.36
819.345	136.36
819.523	169.13
819.701	109.74
819.879	162.98
820.058	54.44
820.236	144.55
820.414	142.5
820.592	107.69
820.77	101.55
820.948	99.5
821.127	140.46
821.305	136.36
821.483	54.44
821.661	76.97
821.839	89.26
822.017	40.11
822.195	101.55
822.373	201.9
822.551	152.74
822.729	171.18
822.907	48.3
823.085	122.02
823.262	134.31
823.44	134.31
823.618	13.48
823.796	83.11
823.974	87.21
824.152	140.46
824.329	66.73
824.507	179.37
824.685	66.73
824.863	173.22
825.04	83.11
825.218	62.63
825.396	81.07
825.574	113.83
825.751	76.97
825.929	42.15
826.107	40.11
826.284	158.89
826.462	103.59
826.639	89.26
826.817	103.59
826.994	68.78
827.172	62.63
827.349	119.98
827.527	140.46
827.704	130.22
827.882	93.35
828.059	103.59
828.237	66.73
828.414	107.69
828.591	93.35
828.769	74.92
828.946	56.49
829.124	70.83
829.301	140.46
829.478	85.16
829.655	160.94
829.833	111.78
830.01	117.93
830.187	46.25
830.364	132.26
830.542	52.39
830.719	115.88
830.896	107.69
831.073	115.88
831.25	76.97
831.427	64.68
831.604	119.98
831.782	31.91
831.959	140.46
832.136	136.36
832.313	70.83
832.49	109.74
832.667	103.59
832.844	5.29
833.021	93.35
833.198	64.68
833.374	107.69
833.551	81.07
833.728	111.78
833.905	91.31
834.082	76.97
834.259	115.88
834.436	87.21
834.612	66.73
834.789	74.92
834.966	68.78
835.143	165.03
835.319	50.35
835.496	85.16
835.673	97.45
835.85	76.97
836.026	101.55
836.203	99.5
836.38	91.31
836.556	56.49
836.733	38.06
836.909	72.87
837.086	74.92
837.262	36.01
837.439	44.2
837.616	27.82
837.792	54.44
837.968	95.4
838.145	13.48
838.321	36.01
838.498	36.01
838.674	83.11
838.851	21.67
839.027	46.25
839.203	68.78
839.38	38.06
839.556	72.87
839.732	72.87
839.909	79.02
840.085	44.2
840.261	-0.85
840.437	101.55
840.614	70.83
840.79	105.64
840.966	83.11
841.142	138.41
841.318	83.11
841.494	40.11
841.671	58.54
841.847	-7
842.023	-4.95
842.199	29.87
842.375	134.31
842.551	9.39
842.727	70.83
842.903	70.83
843.079	48.3
843.255	81.07
843.431	62.63
843.607	21.67
843.783	-0.85
843.959	162.98
844.134	74.92
844.31	27.82
844.486	33.96
844.662	13.48
844.838	83.11
845.013	85.16
845.189	42.15
845.365	-17.24
845.541	38.06
845.716	89.26
845.892	66.73
846.068	25.77
846.244	31.91
846.419	79.02
846.595	29.87
846.77	60.59
846.946	66.73
847.122	40.11
847.297	33.96
847.473	48.3
847.648	119.98
847.824	48.3
847.999	7.34
848.175	52.39
848.35	-2.9
848.526	60.59
848.701	60.59
848.876	54.44
849.052	31.91
849.227	31.91
849.403	1.19
849.578	60.59
849.753	70.83
849.929	5.29
850.104	15.53
850.279	56.49
850.454	113.83
850.63	60.59
850.805	-4.95
850.98	29.87
851.155	-43.86
851.33	66.73
851.505	44.2
851.681	44.2
851.856	81.07
852.031	101.55
852.206	54.44
852.381	-39.76
852.556	38.06
852.731	91.31
852.906	23.72
853.081	74.92
853.256	11.43
853.431	46.25
853.606	68.78
853.781	54.44
853.956	-0.85
854.131	93.35
854.305	60.59
854.48	68.78
854.655	40.11
854.83	38.06
855.005	-4.95
855.18	-35.67
855.354	-9.05
855.529	15.53
855.704	31.91
855.879	62.63
856.053	42.15
856.228	52.39
856.403	13.48
856.577	13.48
856.752	19.63
856.926	62.63
857.101	-7
857.276	119.98
857.45	74.92
857.625	56.49
857.799	9.39
857.974	50.35
858.148	56.49
858.323	66.73
858.497	-72.53
858.672	13.48
858.846	46.25
859.02	105.64
859.195	-64.34
859.369	9.39
859.543	46.25
859.718	29.87
859.892	-11.09
860.066	83.11
860.241	-54.1
860.415	-33.62
860.589	76.97
860.763	-2.9
860.938	-0.85
861.112	-11.09
861.286	-9.05
861.46	50.35
861.634	70.83
861.808	58.54
861.982	1.19
862.157	1.19
862.331	46.25
862.505	19.63
862.679	25.77
862.853	70.83
863.027	23.72
863.201	25.77
863.375	58.54
863.549	15.53
863.722	44.2
863.896	79.02
864.07	-15.19
864.244	-29.52
864.418	89.26
864.592	64.68
864.766	46.25
864.939	105.64
865.113	1.19
865.287	29.87
865.461	9.39
865.634	56.49
865.808	-0.85
865.982	83.11
866.156	-21.33
866.329	-66.39
866.503	-27.48
866.676	33.96
866.85	29.87
867.024	17.58
867.197	40.11
867.371	1.19
867.544	105.64
867.718	-4.95
867.891	50.35
868.065	-33.62
868.238	-11.09
868.412	31.91
868.585	62.63
868.759	31.91
868.932	58.54
869.105	3.24
869.279	23.72
869.452	11.43
869.625	62.63
869.799	25.77
869.972	-27.48
870.145	54.44
870.319	42.15
870.492	27.82
870.665	15.53
870.838	11.43
871.011	1.19
871.185	93.35
871.358	-0.85
871.531	103.59
871.704	-35.67
871.877	-2.9
872.05	27.82
872.223	79.02
872.396	33.96
872.569	62.63
872.742	54.44
872.915	7.34
873.088	50.35
873.261	38.06
873.434	-13.14
873.607	-7
873.78	-62.29
873.953	33.96
874.126	33.96
874.299	3.24
874.471	-9.05
874.644	23.72
874.817	23.72
874.99	-29.52
875.163	42.15
875.335	3.24
875.508	23.72
875.681	38.06
875.853	62.63
876.026	27.82
876.199	33.96
876.371	105.64
876.544	85.16
876.717	25.77
876.889	-2.9
877.062	3.24
877.234	52.39
877.407	-23.38
877.579	66.73
877.752	46.25
877.924	11.43
878.097	124.07
878.269	3.24
878.442	79.02
878.614	46.25
878.786	64.68
878.959	42.15
879.131	19.63
879.303	62.63
879.476	-23.38
879.648	-72.53
879.82	50.35
879.993	-41.81
880.165	50.35
880.337	-15.19
880.509	38.06
880.681	79.02
880.854	17.58
881.026	-23.38
881.198	-4.95
881.37	25.77
881.542	-15.19
881.714	-9.05
881.886	-39.76
882.058	-0.85
882.23	50.35
882.402	17.58
882.574	19.63
882.746	-0.85
882.918	-19.29
883.09	-2.9
883.262	58.54
883.434	-19.29
883.606	33.96
883.778	17.58
883.95	-4.95
884.122	-2.9
884.293	-60.24
884.465	13.48
884.637	5.29
884.809	-37.72
884.98	13.48
885.152	74.92
885.324	31.91
885.496	15.53
885.667	9.39
885.839	31.91
886.011	68.78
886.182	-9.05
886.354	62.63
886.525	40.11
886.697	54.44
886.869	-11.09
887.04	9.39
887.212	48.3
887.383	70.83
887.555	58.54
887.726	68.78
887.897	7.34
888.069	17.58
888.24	36.01
888.412	56.49
888.583	-11.09
888.754	9.39
888.926	17.58
889.097	68.78
889.268	-50
889.44	11.43
889.611	-29.52
889.782	91.31
889.953	-7
890.125	58.54
890.296	-11.09
890.467	-17.24
890.638	-7
890.809	66.73
890.98	-19.29
891.151	7.34
891.323	70.83
891.494	-0.85
891.665	-11.09
891.836	-7
892.007	1.19
892.178	19.63
892.349	21.67
892.52	-21.33
892.691	-11.09
892.862	7.34
893.032	5.29
893.203	48.3
893.374	38.06
893.545	-27.48
893.716	-0.85
893.887	29.87
894.057	9.39
894.228	117.93
894.399	13.48
894.57	38.06
894.74	-19.29
894.911	21.67
895.082	-25.43
895.253	-29.52
895.423	31.91
895.594	-4.95
895.764	-17.24
895.935	48.3
896.106	-25.43
896.276	9.39
896.447	58.54
896.617	-39.76
896.788	-2.9
896.958	38.06
897.129	13.48
897.299	62.63
897.47	-15.19
897.64	44.2
897.81	7.34
897.981	38.06
898.151	-45.91
898.322	64.68
898.492	7.34
898.662	31.91
898.832	50.35
899.003	-64.34
899.173	29.87
899.343	-37.72
899.513	-0.85
