Data from USB4F104151__73__11-37-35-200.txt Node

Date: Fri Mar 14 11:37:35 EDT 2025
User: louis
Spectrometer: USB4F10415
Trigger mode: 4
Integration Time (sec): 2.000000E-2
Scans to average: 1
Electric dark correction enabled: true
Nonlinearity correction enabled: false
Boxcar width: 0
XAxis mode: Wavelengths
Number of Pixels in Spectrum: 3648
>>>>>Begin Spectral Data<<<<<
178.204	-77.48
178.424	-77.48
178.644	-77.48
178.864	-91.82
179.084	-57
179.304	4.44
179.524	-9.9
179.744	-3.75
179.964	14.68
180.184	-93.87
180.404	39.25
180.624	72.02
180.844	37.2
181.064	-11.95
181.283	-79.53
181.503	-16.04
181.723	47.44
181.943	8.53
182.163	29.01
182.383	4.44
182.602	45.4
182.822	-9.9
183.042	74.07
183.262	-52.91
183.482	22.87
183.701	0.34
183.921	33.11
184.141	80.21
184.361	14.68
184.58	24.92
184.8	-5.8
185.02	-3.75
185.239	26.96
185.459	-5.8
185.679	-54.95
185.898	-28.33
186.118	20.82
186.338	4.44
186.557	78.16
186.777	-32.43
186.997	61.78
187.216	-18.09
187.436	41.3
187.655	4.44
187.875	10.58
188.095	2.39
188.314	74.07
188.534	-26.28
188.753	-28.33
188.973	47.44
189.192	102.74
189.412	16.73
189.631	-69.29
189.851	41.3
190.07	37.2
190.29	4.44
190.509	-18.09
190.729	41.3
190.948	49.49
191.168	63.83
191.387	-7.85
191.607	37.2
191.826	0.34
192.045	18.77
192.265	14.68
192.484	24.92
192.704	16.73
192.923	0.34
193.142	41.3
193.362	59.73
193.581	22.87
193.8	14.68
194.02	-13.99
194.239	-24.23
194.458	127.32
194.678	26.96
194.897	2.39
195.116	41.3
195.335	24.92
195.555	-22.19
195.774	20.82
195.993	39.25
196.212	33.11
196.432	-7.85
196.651	6.49
196.87	14.68
197.089	45.4
197.308	18.77
197.528	-26.28
197.747	31.06
197.966	37.2
198.185	10.58
198.404	-24.23
198.623	12.63
198.842	26.96
199.062	33.11
199.281	33.11
199.5	24.92
199.719	29.01
199.938	-11.95
200.157	14.68
200.376	65.88
200.595	55.64
200.814	4.44
201.033	-50.86
201.252	45.4
201.471	78.16
201.69	82.26
201.909	-7.85
202.128	-24.23
202.347	4.44
202.566	4.44
202.785	-83.63
203.004	39.25
203.223	102.74
203.442	-11.95
203.661	0.34
203.879	14.68
204.098	61.78
204.317	-36.52
204.536	76.12
204.755	26.96
204.974	33.11
205.193	-16.04
205.411	82.26
205.63	20.82
205.849	90.45
206.068	57.68
206.287	55.64
206.505	90.45
206.724	-3.75
206.943	47.44
207.162	-38.57
207.381	12.63
207.599	53.59
207.818	12.63
208.037	-83.63
208.255	47.44
208.474	67.92
208.693	39.25
208.911	-3.75
209.13	-24.23
209.349	33.11
209.567	8.53
209.786	35.16
210.005	16.73
210.223	55.64
210.442	45.4
210.661	35.16
210.879	-50.86
211.098	-24.23
211.316	-3.75
211.535	80.21
211.753	-11.95
211.972	47.44
212.191	-13.99
212.409	88.4
212.628	102.74
212.846	24.92
213.065	-28.33
213.283	47.44
213.502	26.96
213.72	-11.95
213.938	10.58
214.157	0.34
214.375	47.44
214.594	-46.76
214.812	39.25
215.031	-40.62
215.249	47.44
215.467	12.63
215.686	-52.91
215.904	55.64
216.122	33.11
216.341	110.93
216.559	55.64
216.778	29.01
216.996	26.96
217.214	-28.33
217.432	-3.75
217.651	45.4
217.869	-1.71
218.087	2.39
218.306	24.92
218.524	47.44
218.742	20.82
218.96	33.11
219.179	4.44
219.397	61.78
219.615	26.96
219.833	-1.71
220.051	-3.75
220.27	33.11
220.488	-1.71
220.706	31.06
220.924	45.4
221.142	74.07
221.36	-3.75
221.578	39.25
221.796	82.26
222.015	0.34
222.233	20.82
222.451	90.45
222.669	-11.95
222.887	8.53
223.105	4.44
223.323	-7.85
223.541	4.44
223.759	8.53
223.977	4.44
224.195	72.02
224.413	-3.75
224.631	4.44
224.849	90.45
225.067	37.2
225.285	-36.52
225.503	55.64
225.721	8.53
225.939	29.01
226.157	24.92
226.375	86.36
226.592	-16.04
226.81	90.45
227.028	67.92
227.246	53.59
227.464	51.54
227.682	90.45
227.9	45.4
228.117	0.34
228.335	-22.19
228.553	82.26
228.771	78.16
228.989	51.54
229.206	49.49
229.424	8.53
229.642	22.87
229.86	10.58
230.077	41.3
230.295	80.21
230.513	-20.14
230.731	76.12
230.948	33.11
231.166	41.3
231.384	6.49
231.601	8.53
231.819	74.07
232.037	24.92
232.254	-24.23
232.472	4.44
232.689	-54.95
232.907	59.73
233.125	33.11
233.342	4.44
233.56	22.87
233.777	8.53
233.995	-24.23
234.213	108.88
234.43	-18.09
234.648	16.73
234.865	57.68
235.083	-9.9
235.3	-30.38
235.518	16.73
235.735	76.12
235.953	51.54
236.17	-3.75
236.388	41.3
236.605	49.49
236.822	80.21
237.04	78.16
237.257	29.01
237.475	8.53
237.692	37.2
237.909	-83.63
238.127	-1.71
238.344	47.44
238.562	49.49
238.779	47.44
238.996	4.44
239.214	-7.85
239.431	35.16
239.648	47.44
239.865	20.82
240.083	4.44
240.3	33.11
240.517	49.49
240.735	33.11
240.952	16.73
241.169	-18.09
241.386	26.96
241.603	61.78
241.821	-7.85
242.038	43.35
242.255	26.96
242.472	35.16
242.689	53.59
242.907	-36.52
243.124	33.11
243.341	115.03
243.558	59.73
243.775	-20.14
243.992	-42.67
244.209	-36.52
244.426	16.73
244.643	31.06
244.86	-18.09
245.078	37.2
245.295	-26.28
245.512	-44.71
245.729	6.49
245.946	24.92
246.163	-1.71
246.38	31.06
246.597	41.3
246.814	20.82
247.031	4.44
247.248	72.02
247.464	33.11
247.681	86.36
247.898	-32.43
248.115	22.87
248.332	72.02
248.549	20.82
248.766	-7.85
248.983	22.87
249.2	51.54
249.417	49.49
249.633	16.73
249.85	74.07
250.067	8.53
250.284	-20.14
250.501	33.11
250.717	24.92
250.934	-20.14
251.151	0.34
251.368	20.82
251.585	-11.95
251.801	31.06
252.018	10.58
252.235	82.26
252.451	-9.9
252.668	18.77
252.885	24.92
253.102	49.49
253.318	72.02
253.535	61.78
253.752	6.49
253.968	43.35
254.185	53.59
254.401	-7.85
254.618	57.68
254.835	-57
255.051	69.97
255.268	-48.81
255.484	31.06
255.701	0.34
255.917	55.64
256.134	0.34
256.351	-1.71
256.567	-50.86
256.784	-1.71
257	-22.19
257.217	35.16
257.433	0.34
257.65	-1.71
257.866	51.54
258.082	37.2
258.299	12.63
258.515	96.6
258.732	78.16
258.948	-40.62
259.165	49.49
259.381	16.73
259.597	14.68
259.814	29.01
260.03	112.98
260.246	57.68
260.463	-54.95
260.679	12.63
260.895	115.03
261.112	69.97
261.328	18.77
261.544	-34.47
261.761	63.83
261.977	-46.76
262.193	53.59
262.409	-24.23
262.626	-44.71
262.842	100.69
263.058	16.73
263.274	2.39
263.49	-38.57
263.707	37.2
263.923	-1.71
264.139	2.39
264.355	41.3
264.571	110.93
264.787	-11.95
265.004	12.63
265.22	4.44
265.436	-1.71
265.652	16.73
265.868	6.49
266.084	33.11
266.3	20.82
266.516	-11.95
266.732	31.06
266.948	35.16
267.164	37.2
267.38	98.64
267.596	49.49
267.812	-3.75
268.028	45.4
268.244	37.2
268.46	8.53
268.676	-18.09
268.892	-11.95
269.108	45.4
269.324	67.92
269.54	-32.43
269.756	69.97
269.972	-3.75
270.188	24.92
270.403	57.68
270.619	94.55
270.835	41.3
271.051	12.63
271.267	41.3
271.483	4.44
271.698	18.77
271.914	53.59
272.13	45.4
272.346	-9.9
272.562	-22.19
272.777	39.25
272.993	20.82
273.209	-24.23
273.425	31.06
273.64	22.87
273.856	74.07
274.072	-1.71
274.287	51.54
274.503	80.21
274.719	90.45
274.934	8.53
275.15	-5.8
275.366	8.53
275.581	26.96
275.797	22.87
276.012	-48.81
276.228	-24.23
276.444	47.44
276.659	69.97
276.875	2.39
277.09	8.53
277.306	65.88
277.521	14.68
277.737	-24.23
277.952	45.4
278.168	55.64
278.383	26.96
278.599	-18.09
278.814	106.84
279.03	80.21
279.245	57.68
279.461	-18.09
279.676	76.12
279.892	47.44
280.107	-24.23
280.322	-11.95
280.538	33.11
280.753	-13.99
280.969	24.92
281.184	14.68
281.399	29.01
281.615	14.68
281.83	63.83
282.045	-30.38
282.26	67.92
282.476	-3.75
282.691	41.3
282.906	33.11
283.122	24.92
283.337	-5.8
283.552	6.49
283.767	26.96
283.983	-1.71
284.198	-5.8
284.413	49.49
284.628	-9.9
284.843	-13.99
285.058	-16.04
285.274	-22.19
285.489	45.4
285.704	104.79
285.919	-20.14
286.134	-9.9
286.349	0.34
286.564	78.16
286.779	88.4
286.995	-63.15
287.21	55.64
287.425	4.44
287.64	61.78
287.855	0.34
288.07	41.3
288.285	33.11
288.5	31.06
288.715	14.68
288.93	18.77
289.145	41.3
289.36	45.4
289.575	26.96
289.79	47.44
290.004	16.73
290.219	6.49
290.434	74.07
290.649	33.11
290.864	14.68
291.079	6.49
291.294	12.63
291.509	-16.04
291.724	39.25
291.938	8.53
292.153	-32.43
292.368	65.88
292.583	39.25
292.798	82.26
293.012	-16.04
293.227	84.31
293.442	4.44
293.657	88.4
293.871	26.96
294.086	61.78
294.301	29.01
294.516	20.82
294.73	22.87
294.945	22.87
295.16	65.88
295.374	-3.75
295.589	-18.09
295.804	45.4
296.018	-59.05
296.233	69.97
296.447	61.78
296.662	78.16
296.877	41.3
297.091	20.82
297.306	31.06
297.52	47.44
297.735	-57
297.949	24.92
298.164	53.59
298.378	-5.8
298.593	2.39
298.807	33.11
299.022	53.59
299.236	26.96
299.451	59.73
299.665	-3.75
299.88	8.53
300.094	29.01
300.309	61.78
300.523	24.92
300.737	-18.09
300.952	0.34
301.166	67.92
301.381	18.77
301.595	24.92
301.809	-32.43
302.024	33.11
302.238	-7.85
302.452	-24.23
302.667	39.25
302.881	20.82
303.095	76.12
303.309	55.64
303.524	-13.99
303.738	67.92
303.952	37.2
304.166	45.4
304.381	37.2
304.595	94.55
304.809	12.63
305.023	0.34
305.237	55.64
305.452	37.2
305.666	47.44
305.88	4.44
306.094	67.92
306.308	33.11
306.522	145.75
306.736	49.49
306.95	41.3
307.164	4.44
307.379	45.4
307.593	22.87
307.807	16.73
308.021	96.6
308.235	57.68
308.449	33.11
308.663	-42.67
308.877	88.4
309.091	-48.81
309.305	131.41
309.519	-16.04
309.733	41.3
309.947	-22.19
310.161	108.88
310.374	-42.67
310.588	41.3
310.802	-11.95
311.016	14.68
311.23	10.58
311.444	-40.62
311.658	90.45
311.872	110.93
312.085	4.44
312.299	-3.75
312.513	14.68
312.727	29.01
312.941	0.34
313.154	10.58
313.368	131.41
313.582	78.16
313.796	74.07
314.009	26.96
314.223	112.98
314.437	74.07
314.651	0.34
314.864	10.58
315.078	18.77
315.292	31.06
315.505	22.87
315.719	-16.04
315.933	67.92
316.146	57.68
316.36	14.68
316.573	104.79
316.787	12.63
317.001	14.68
317.214	33.11
317.428	65.88
317.641	-13.99
317.855	14.68
318.068	6.49
318.282	78.16
318.495	8.53
318.709	112.98
318.922	4.44
319.136	65.88
319.349	26.96
319.563	39.25
319.776	12.63
319.99	76.12
320.203	26.96
320.417	8.53
320.63	47.44
320.843	98.64
321.057	-7.85
321.27	61.78
321.483	10.58
321.697	53.59
321.91	26.96
322.124	37.2
322.337	18.77
322.55	43.35
322.763	20.82
322.977	18.77
323.19	22.87
323.403	35.16
323.617	8.53
323.83	86.36
324.043	-32.43
324.256	12.63
324.469	92.5
324.683	110.93
324.896	10.58
325.109	45.4
325.322	14.68
325.535	12.63
325.748	92.5
325.962	-7.85
326.175	72.02
326.388	78.16
326.601	-1.71
326.814	-54.95
327.027	33.11
327.24	82.26
327.453	35.16
327.666	24.92
327.879	-24.23
328.092	98.64
328.305	33.11
328.518	-9.9
328.731	55.64
328.944	-13.99
329.157	6.49
329.37	90.45
329.583	80.21
329.796	16.73
330.009	-28.33
330.222	14.68
330.435	31.06
330.648	-1.71
330.861	20.82
331.073	63.83
331.286	82.26
331.499	80.21
331.712	57.68
331.925	10.58
332.138	88.4
332.35	39.25
332.563	92.5
332.776	39.25
332.989	14.68
333.202	-1.71
333.414	-22.19
333.627	2.39
333.84	55.64
334.053	127.32
334.265	119.12
334.478	67.92
334.691	-40.62
334.903	78.16
335.116	20.82
335.329	57.68
335.541	51.54
335.754	76.12
335.966	10.58
336.179	31.06
336.392	76.12
336.604	49.49
336.817	80.21
337.029	10.58
337.242	55.64
337.454	51.54
337.667	39.25
337.88	74.07
338.092	20.82
338.305	76.12
338.517	51.54
338.729	155.99
338.942	-30.38
339.154	-13.99
339.367	-16.04
339.579	33.11
339.792	-34.47
340.004	22.87
340.217	53.59
340.429	-1.71
340.641	20.82
340.854	72.02
341.066	108.88
341.278	98.64
341.491	69.97
341.703	90.45
341.915	49.49
342.128	47.44
342.34	41.3
342.552	16.73
342.764	-30.38
342.977	0.34
343.189	8.53
343.401	4.44
343.613	26.96
343.826	84.31
344.038	16.73
344.25	53.59
344.462	65.88
344.674	74.07
344.886	82.26
345.099	-48.81
345.311	35.16
345.523	160.08
345.735	47.44
345.947	63.83
346.159	106.84
346.371	51.54
346.583	-24.23
346.795	45.4
347.007	65.88
347.219	22.87
347.431	26.96
347.643	20.82
347.855	6.49
348.067	59.73
348.279	67.92
348.491	123.22
348.703	94.55
348.915	16.73
349.127	37.2
349.339	123.22
349.551	31.06
349.763	35.16
349.975	39.25
350.187	63.83
350.399	112.98
350.61	76.12
350.822	-7.85
351.034	18.77
351.246	22.87
351.458	92.5
351.669	49.49
351.881	47.44
352.093	41.3
352.305	26.96
352.517	37.2
352.728	100.69
352.94	53.59
353.152	20.82
353.363	51.54
353.575	84.31
353.787	90.45
353.999	8.53
354.21	49.49
354.422	61.78
354.633	22.87
354.845	29.01
355.057	78.16
355.268	61.78
355.48	-13.99
355.692	14.68
355.903	-16.04
356.115	4.44
356.326	16.73
356.538	43.35
356.749	57.68
356.961	2.39
357.172	98.64
357.384	-38.57
357.595	51.54
357.807	104.79
358.018	35.16
358.23	-9.9
358.441	55.64
358.653	8.53
358.864	-30.38
359.075	57.68
359.287	47.44
359.498	65.88
359.709	29.01
359.921	41.3
360.132	0.34
360.344	24.92
360.555	104.79
360.766	47.44
360.977	49.49
361.189	6.49
361.4	-5.8
361.611	74.07
361.823	57.68
362.034	102.74
362.245	35.16
362.456	115.03
362.667	57.68
362.879	84.31
363.09	49.49
363.301	90.45
363.512	22.87
363.723	18.77
363.935	35.16
364.146	61.78
364.357	-24.23
364.568	45.4
364.779	39.25
364.99	74.07
365.201	29.01
365.412	110.93
365.623	57.68
365.834	55.64
366.045	74.07
366.256	20.82
366.467	14.68
366.678	24.92
366.889	39.25
367.1	-1.71
367.311	53.59
367.522	102.74
367.733	4.44
367.944	59.73
368.155	47.44
368.366	37.2
368.577	53.59
368.788	31.06
368.999	4.44
369.209	35.16
369.42	151.89
369.631	78.16
369.842	49.49
370.053	53.59
370.264	39.25
370.474	-22.19
370.685	45.4
370.896	82.26
371.107	33.11
371.317	29.01
371.528	49.49
371.739	96.6
371.95	78.16
372.16	96.6
372.371	12.63
372.582	78.16
372.792	78.16
373.003	-5.8
373.214	-5.8
373.424	69.97
373.635	-5.8
373.846	86.36
374.056	98.64
374.267	6.49
374.477	35.16
374.688	84.31
374.898	8.53
375.109	153.94
375.319	24.92
375.53	43.35
375.74	67.92
375.951	4.44
376.161	29.01
376.372	24.92
376.582	53.59
376.793	82.26
377.003	53.59
377.214	41.3
377.424	78.16
377.635	65.88
377.845	39.25
378.055	51.54
378.266	20.82
378.476	80.21
378.686	104.79
378.897	108.88
379.107	108.88
379.317	39.25
379.528	-3.75
379.738	12.63
379.948	-11.95
380.158	76.12
380.369	80.21
380.579	49.49
380.789	74.07
380.999	-1.71
381.21	33.11
381.42	78.16
381.63	-20.14
381.84	76.12
382.05	18.77
382.261	82.26
382.471	72.02
382.681	84.31
382.891	78.16
383.101	57.68
383.311	90.45
383.521	8.53
383.731	92.5
383.941	4.44
384.151	47.44
384.361	88.4
384.571	96.6
384.781	22.87
384.991	80.21
385.201	74.07
385.411	57.68
385.621	112.98
385.831	16.73
386.041	47.44
386.251	57.68
386.461	53.59
386.671	53.59
386.881	74.07
387.091	78.16
387.301	143.7
387.511	117.08
387.72	26.96
387.93	84.31
388.14	82.26
388.35	78.16
388.56	129.36
388.769	74.07
388.979	94.55
389.189	6.49
389.399	121.17
389.609	72.02
389.818	20.82
390.028	82.26
390.238	6.49
390.447	53.59
390.657	14.68
390.867	88.4
391.076	65.88
391.286	10.58
391.496	10.58
391.705	86.36
391.915	96.6
392.125	90.45
392.334	22.87
392.544	102.74
392.753	65.88
392.963	0.34
393.172	102.74
393.382	94.55
393.591	131.41
393.801	82.26
394.01	41.3
394.22	45.4
394.429	63.83
394.639	16.73
394.848	131.41
395.058	-7.85
395.267	18.77
395.477	106.84
395.686	61.78
395.895	92.5
396.105	137.56
396.314	86.36
396.524	131.41
396.733	92.5
396.942	153.94
397.152	82.26
397.361	135.51
397.57	166.23
397.78	115.03
397.989	88.4
398.198	172.37
398.407	145.75
398.617	102.74
398.826	94.55
399.035	74.07
399.244	61.78
399.453	112.98
399.663	100.69
399.872	29.01
400.081	90.45
400.29	84.31
400.499	102.74
400.708	176.47
400.917	164.18
401.127	143.7
401.336	98.64
401.545	141.65
401.754	127.32
401.963	174.42
402.172	82.26
402.381	47.44
402.59	147.8
402.799	141.65
403.008	164.18
403.217	119.12
403.426	129.36
403.635	168.27
403.844	53.59
404.053	211.28
404.262	143.7
404.471	176.47
404.68	194.9
404.888	162.13
405.097	198.99
405.306	217.43
405.515	149.84
405.724	143.7
405.933	155.99
406.142	139.6
406.35	266.58
406.559	174.42
406.768	196.95
406.977	260.43
407.185	198.99
407.394	260.43
407.603	170.32
407.812	186.71
408.02	266.58
408.229	291.15
408.438	237.91
408.646	266.58
408.855	299.34
409.064	323.92
409.272	313.68
409.481	336.21
409.69	319.82
409.898	328.02
410.107	336.21
410.315	319.82
410.524	371.02
410.733	397.65
410.941	328.02
411.15	411.98
411.358	344.4
411.567	457.04
411.775	430.41
411.984	487.76
412.192	549.2
412.401	534.86
412.609	498
412.818	530.77
413.026	532.81
413.234	569.68
413.443	586.06
413.651	592.2
413.86	680.27
414.068	706.89
414.276	694.6
414.485	665.93
414.693	696.65
414.901	743.75
415.11	813.38
415.318	813.38
415.526	782.67
415.734	872.78
415.943	975.17
416.151	854.34
416.359	944.45
416.567	952.65
416.776	1003.85
416.984	1040.71
417.192	1165.64
417.4	1175.88
417.608	1102.15
417.817	1208.64
418.025	1229.12
418.233	1290.56
418.441	1323.33
418.649	1413.44
418.857	1425.73
419.065	1483.07
419.273	1421.63
419.481	1581.37
419.689	1571.13
419.897	1700.16
420.105	1671.48
420.313	1804.6
420.521	1872.18
420.729	1755.45
420.937	1933.62
421.145	1950.01
421.353	2130.23
421.561	2144.56
421.769	2226.48
421.977	2300.21
422.185	2306.35
422.393	2439.47
422.601	2498.86
422.809	2629.93
423.017	2652.46
423.224	2652.46
423.432	2801.96
423.64	2896.17
423.848	3168.55
424.056	3094.82
424.263	3244.32
424.471	3277.09
424.679	3461.41
424.887	3438.88
425.094	3455.26
425.302	3641.63
425.51	3832.09
425.718	3866.91
425.925	4077.85
426.133	4065.56
426.341	4296.98
426.548	4546.83
426.756	4536.59
426.964	4520.21
427.171	4675.85
427.379	4899.08
427.586	4948.23
427.794	5165.32
428.001	5495.04
428.209	5701.89
428.417	5576.96
428.624	5902.59
428.832	6076.66
429.039	6011.13
429.247	5941.5
429.454	6533.36
429.662	6643.95
429.869	6406.39
430.076	6813.93
430.284	6648.05
430.491	6914.28
430.699	7332.07
430.906	7260.39
431.114	7504.1
431.321	7876.83
431.528	7983.32
431.736	8480.98
431.943	8730.83
432.15	8407.25
432.358	8835.28
432.565	9078.99
432.772	9066.7
432.979	9695.43
433.187	9427.14
433.394	9846.98
433.601	10436.79
433.808	10291.38
434.016	10500.28
434.223	10938.54
434.43	11415.72
434.637	11376.81
434.844	11999.39
435.052	12239
435.259	12202.14
435.466	12378.26
435.673	12083.36
435.88	12834.96
436.087	13512.84
436.294	13674.63
436.501	13361.29
436.708	13713.54
436.915	14270.59
437.122	14563.45
437.329	14590.07
437.537	14934.13
437.743	15474.79
437.95	15351.92
438.157	15837.28
438.364	16533.59
438.571	16486.49
438.778	16660.57
438.985	18276.41
439.192	17358.92
439.399	17860.68
439.606	17713.22
439.813	18526.27
440.02	19540.01
440.227	19238.96
440.433	19363.89
440.64	19884.07
440.847	19380.27
441.054	20019.24
441.261	21506.06
441.467	21018.64
441.674	21569.55
441.881	22525.95
442.088	22204.42
442.294	22104.07
442.501	22597.63
442.708	23283.7
442.914	24131.56
443.121	25118.68
443.328	24704.99
443.534	26204.1
443.741	25395.15
443.948	25012.18
444.154	27269.05
444.361	26953.66
444.568	27004.86
444.774	27146.17
444.981	27293.62
445.187	28069.8
445.394	28956.57
445.6	28923.8
445.807	31735.67
446.013	30091.15
446.22	30805.89
446.426	31885.17
446.633	32188.27
446.839	32909.15
447.046	31954.8
447.252	33986.38
447.459	33980.24
447.665	33415
447.871	35409.72
448.078	36390.7
448.284	34815.81
448.491	35841.84
448.697	37101.34
448.903	38094.61
449.11	37652.25
449.316	37558.04
449.522	38027.03
449.728	38672.14
449.935	39333.63
450.141	39108.35
450.347	39970.55
450.553	38758.15
450.76	39284.48
450.966	40795.88
451.172	40390.38
451.378	41086.69
451.584	40449.77
451.791	41219.81
451.997	41109.22
452.203	41803.48
452.409	41744.09
452.615	41750.23
452.821	39888.63
453.027	39780.09
453.233	41551.58
453.44	40068.85
453.646	40769.26
453.852	41006.82
454.058	41328.35
454.264	39986.93
454.47	40877.8
454.676	40228.59
454.882	41512.67
455.088	37779.22
455.294	38156.05
455.5	38684.42
455.705	39204.61
455.911	37349.15
456.117	36685.61
456.323	36523.82
456.529	34740.04
456.735	36218.67
456.941	35344.19
457.147	34426.7
457.352	33603.41
457.558	33335.13
457.764	33460.05
457.97	32591.72
458.176	32014.19
458.381	31764.34
458.587	30449.54
458.793	30492.55
458.999	28938.14
459.204	31240.06
459.41	30459.78
459.616	27873.2
459.821	27809.71
460.027	27778.99
460.233	26996.67
460.438	25647.05
460.644	26396.61
460.85	25167.83
461.055	24721.37
461.261	24512.48
461.466	23097.33
461.672	22239.23
461.878	24039.4
462.083	22290.43
462.289	22126.6
462.494	21512.21
462.7	20602.91
462.905	20250.66
463.111	20756.5
463.316	20779.03
463.522	20219.94
463.727	20445.21
463.932	20424.73
464.138	20027.43
464.343	20195.36
464.549	19523.63
464.754	20097.06
464.959	19933.22
465.165	19791.91
465.37	19144.75
465.575	18653.24
465.781	19345.45
465.986	19439.66
466.191	18520.12
466.397	18516.03
466.602	17508.43
466.807	18270.27
467.012	18174.02
467.218	17928.26
467.423	17809.48
467.628	17877.06
467.833	18575.42
468.038	17719.37
468.244	17758.28
468.449	18284.61
468.654	17408.08
468.859	17373.26
469.064	17391.69
469.269	17045.59
469.474	16889.94
469.679	17291.34
469.885	16740.44
470.09	16883.8
470.295	16805.97
470.5	16390.24
470.705	16506.97
470.91	16203.87
471.115	15878.24
471.32	15990.88
471.525	16015.46
471.73	15591.53
471.935	15446.12
472.139	14952.56
472.344	15255.66
472.549	15130.73
472.754	14979.18
472.959	14923.89
473.164	14454.9
473.369	14176.38
473.574	14884.98
473.778	14665.85
473.983	14368.89
474.188	14688.37
474.393	13676.68
474.598	13752.45
474.802	13725.83
475.007	13426.82
475.212	13650.05
475.417	13031.57
475.621	13170.83
475.826	13260.94
476.031	12904.59
476.235	12736.66
476.44	12863.63
476.645	12634.26
476.849	12419.22
477.054	12271.77
477.259	12185.76
477.463	12181.66
477.668	11958.43
477.872	11991.2
478.077	11731.11
478.282	11532.45
478.486	11595.94
478.691	11641
478.895	11595.94
479.1	11344.04
479.304	11366.57
479.509	11065.52
479.713	11307.18
479.918	11092.14
480.122	10883.25
480.326	10946.73
480.531	10952.88
480.735	10985.65
480.94	10793.14
481.144	10930.35
481.348	10614.96
481.553	10549.43
481.757	10412.21
481.961	10584.24
482.166	10582.2
482.37	10629.3
482.574	10340.54
482.778	10485.94
482.983	10555.57
483.187	10526.9
483.391	10598.58
483.595	10410.17
483.8	10461.37
484.004	10465.46
484.208	10504.37
484.412	10377.4
484.616	10686.64
484.821	10393.78
485.025	10084.54
485.229	10412.21
485.433	10500.28
485.637	10418.36
485.841	10324.15
486.045	10496.18
486.249	10311.86
486.453	10440.89
486.657	10399.93
486.861	10539.19
487.065	10176.7
487.269	10526.9
487.473	10408.12
487.677	10256.57
487.881	10393.78
488.085	10412.21
488.289	10371.26
488.493	10430.65
488.697	10528.95
488.901	10608.82
489.105	10553.52
489.309	10543.28
489.512	10547.38
489.716	10563.76
489.92	10582.2
490.124	10520.76
490.328	10688.69
490.531	10633.4
490.735	10873.01
490.939	10541.24
491.143	10780.85
491.346	10733.75
491.55	10899.63
491.754	10778.8
491.958	10916.01
492.161	10944.69
492.365	10838.19
492.569	10731.7
492.772	10999.98
492.976	11172.01
493.18	11069.61
493.383	11268.27
493.587	11395.24
493.79	11466.92
493.994	11305.13
494.197	11536.55
494.401	11522.21
494.605	11550.89
494.808	11763.87
495.012	11907.23
495.215	11837.6
495.419	11868.32
495.622	11968.67
495.825	12040.35
496.029	11940
496.232	12542.1
496.436	12060.83
496.639	12529.81
496.843	12458.14
497.046	12701.84
497.249	13111.44
497.453	12779.67
497.656	13105.29
497.859	12914.83
498.063	13086.86
498.266	13508.74
498.469	13228.17
498.673	13664.39
498.876	13918.34
499.079	14037.12
499.282	13779.08
499.485	14352.51
499.689	14176.38
499.892	14375.03
500.095	14442.62
500.298	14803.06
500.501	14690.42
500.705	15071.34
500.908	15325.29
501.111	15241.32
501.314	15595.62
501.517	15581.29
501.72	15941.73
501.923	15954.02
502.126	16142.43
502.329	16549.98
502.532	16498.78
502.735	16511.07
502.938	16894.04
503.141	16773.21
503.344	17182.8
503.547	17229.9
503.75	17653.83
503.953	17846.34
504.156	17721.41
504.359	18319.42
504.562	18274.37
504.765	18618.43
504.968	18667.58
505.17	18780.21
505.373	18657.34
505.576	19163.18
505.779	19466.28
505.982	19660.84
506.185	19920.93
506.387	20150.31
506.59	20228.13
506.793	20398.11
506.996	20480.03
507.198	21164.05
507.401	20842.52
507.604	21014.55
507.807	21665.8
508.009	21524.49
508.212	21739.53
508.415	22134.79
508.617	22546.43
508.82	22595.58
509.022	22228.99
509.225	23021.56
509.428	23162.87
509.63	23302.13
509.833	23353.33
510.035	23945.19
510.238	23656.43
510.44	24115.17
510.643	24332.26
510.845	24502.24
511.048	24557.53
511.25	25044.95
511.453	24764.38
511.655	25745.36
511.858	25628.62
512.06	25927.63
512.262	26030.02
512.465	25870.28
512.667	26722.24
512.87	26775.48
513.072	26871.74
513.274	27242.42
513.477	27404.21
513.679	27672.5
513.881	27912.11
514.084	28452.77
514.286	28299.17
514.488	28608.42
514.69	29136.79
514.893	29177.75
515.095	29609.87
515.297	29792.14
515.499	29667.22
515.701	29996.94
515.904	30347.14
516.106	30412.68
516.308	30846.85
516.51	31137.66
516.712	31139.71
516.914	31729.52
517.116	31866.74
517.318	31887.21
517.52	32274.28
517.722	32216.94
517.925	32528.23
518.127	32966.49
518.329	33371.99
518.531	33314.65
518.733	33814.35
518.935	33935.18
519.136	33912.66
519.338	34037.58
519.54	34553.67
519.742	35016.51
519.944	34993.98
520.146	35419.96
520.348	35649.33
520.55	35249.98
520.752	36063.02
520.954	36343.59
521.155	36149.04
521.357	36708.13
521.559	37009.18
521.761	37410.59
521.963	37404.44
522.164	37390.11
522.366	37779.22
522.568	37988.11
522.77	38393.61
522.971	38729.48
523.173	38414.09
523.375	38764.29
523.576	38692.61
523.778	38713.09
523.98	39565.05
524.181	39134.98
524.383	39401.21
524.584	40314.61
524.786	40118
524.988	39843.57
525.189	40521.45
525.391	40756.97
525.592	40812.26
525.794	40775.4
525.995	41170.66
526.197	40836.84
526.398	41012.96
526.6	41262.82
526.801	41453.28
527.003	41625.31
527.204	41645.79
527.406	42129.11
527.607	42157.78
527.808	42247.89
528.01	41873.11
528.211	41832.15
528.412	42763.98
528.614	42464.97
528.815	42798.79
529.016	43060.93
529.218	42657.48
529.419	42716.87
529.62	43005.64
529.822	42862.28
530.023	42817.22
530.224	43081.41
530.425	43105.99
530.626	42639.05
530.828	43003.59
531.029	43333.31
531.23	43323.07
531.431	43271.87
531.632	43558.59
531.833	43763.39
532.035	43497.15
532.236	43660.99
532.437	43992.76
532.638	43368.13
532.839	43747
533.04	44123.83
533.241	43351.74
533.442	44383.92
533.643	43624.12
533.844	43425.47
534.045	44230.32
534.246	43640.51
534.447	44226.23
534.648	43425.47
534.849	43941.56
535.05	43527.87
535.251	43921.08
535.451	43986.61
535.652	44246.71
535.853	44183.22
536.054	44033.72
536.255	44095.16
536.456	43570.88
536.657	44080.82
536.857	44011.19
537.058	43828.92
537.259	43884.22
537.46	44099.25
537.66	43755.19
537.861	44095.16
538.062	43894.46
538.263	43964.09
538.463	43769.53
538.664	43749.05
538.865	44400.3
539.065	44009.14
539.266	43687.61
539.466	43964.09
539.667	43359.94
539.868	44213.94
540.068	43609.79
540.269	43413.18
540.469	44150.45
540.67	43787.96
540.87	43968.18
541.071	43730.62
541.271	43935.41
541.472	43509.44
541.672	43558.59
541.873	43462.33
542.073	43232.96
542.274	43706.04
542.474	43495.1
542.675	43247.3
542.875	43822.78
543.075	43996.85
543.276	43259.59
543.476	43792.06
543.676	43417.28
543.877	43769.53
544.077	43812.54
544.277	43038.4
544.478	43484.86
544.678	43695.8
544.878	43642.56
545.078	43605.69
545.279	43304.64
545.479	43417.28
545.679	43607.74
545.879	43689.66
546.079	43419.33
546.28	43112.13
546.48	43269.83
546.68	43783.87
546.88	42829.51
547.08	43579.07
547.28	43187.91
547.48	42970.82
547.68	43237.06
547.88	43220.67
548.081	43525.82
548.281	43288.26
548.481	42901.19
548.681	43665.08
548.881	43628.22
549.081	43237.06
549.28	43060.93
549.48	43296.45
549.68	43249.35
549.88	43833.02
550.08	42854.09
550.28	43255.49
550.48	42946.25
550.68	43419.33
550.88	43050.69
551.08	42829.51
551.279	42938.05
551.479	42880.71
551.679	42979.01
551.879	42528.46
552.079	43271.87
552.278	42755.78
552.478	42964.68
552.678	42796.74
552.878	43321.02
553.077	42948.29
553.277	42682.06
553.477	43298.5
553.676	42698.44
553.876	43192
554.076	42272.46
554.275	42626.76
554.475	42063.57
554.674	42467.02
554.874	42637
555.074	42387.15
555.273	42890.95
555.473	42600.14
555.672	42338
555.872	42479.31
556.071	42841.8
556.271	42411.73
556.47	42415.82
556.67	41752.28
556.869	42348.24
557.068	42772.17
557.268	42127.06
557.467	42307.28
557.667	42112.72
557.866	42065.62
558.065	42084.05
558.265	41680.6
558.464	41586.39
558.663	42213.07
558.863	41574.11
559.062	42491.6
559.261	41574.11
559.461	41938.65
559.66	41572.06
559.859	41529.05
560.058	41154.27
560.258	41680.6
560.457	41254.62
560.656	41459.42
560.855	41416.41
561.054	41455.32
561.253	40941.28
561.453	41076.45
561.652	41117.41
561.851	41447.13
562.05	41109.22
562.249	41109.22
562.448	41623.26
562.647	41068.26
562.846	41101.03
563.045	40754.92
563.244	40677.1
563.443	41277.15
563.642	40285.93
563.841	40691.43
564.04	40273.65
564.239	40863.46
564.438	39941.88
564.637	40404.72
564.836	40439.53
565.035	40021.75
565.234	40240.88
565.432	39991.03
565.631	39655.16
565.83	40224.5
566.029	40275.69
566.228	39962.36
566.427	39683.83
566.625	39343.87
566.824	39292.67
567.023	39513.85
567.222	39046.91
567.42	39397.12
567.619	39556.86
567.818	39321.34
568.016	39372.54
568.215	39509.75
568.414	38891.27
568.612	39624.44
568.811	38784.77
569.01	39442.17
569.208	38786.82
569.407	38878.98
569.605	38510.35
569.804	38500.11
570.002	38156.05
570.201	38958.85
570.4	38268.69
570.598	38072.08
570.797	38260.49
570.995	38371.08
571.193	37916.43
571.392	38522.63
571.59	37908.24
571.789	37967.63
571.987	37703.45
572.186	37455.64
572.384	37594.9
572.582	37844.76
572.781	37572.38
572.979	37029.66
573.177	37422.87
573.376	37383.96
573.574	37218.08
573.772	37439.26
573.971	37316.38
574.169	36857.63
574.367	36394.79
574.565	37480.22
574.763	36884.26
574.962	36587.3
575.16	36411.18
575.358	36742.95
575.556	36116.27
575.754	36499.24
575.952	36284.2
576.151	36532.01
576.349	35954.48
576.547	35946.29
576.745	35960.62
576.943	36058.93
577.141	35847.99
577.339	35766.07
577.537	35352.38
577.735	35870.51
577.933	35481.4
578.131	35438.39
578.329	35387.19
578.527	35264.32
578.725	35297.08
578.923	35446.58
579.121	35270.46
579.319	35252.03
579.516	34948.93
579.714	34961.22
579.912	34445.13
580.11	34600.77
580.308	34633.54
580.506	34498.37
580.704	33992.53
580.901	34568.01
581.099	34492.23
581.297	34158.41
581.495	34066.25
581.692	34318.15
581.89	33881.94
582.088	33851.22
582.285	33943.38
582.483	34152.27
582.681	33890.13
582.878	33511.25
583.076	33591.12
583.274	33564.5
583.471	33068.89
583.669	33642.32
583.866	33013.6
584.064	33292.12
584.262	32517.99
584.459	32837.47
584.657	32933.73
584.854	32782.18
585.052	32243.56
585.249	32581.48
585.447	32958.3
585.644	32370.54
585.841	32325.48
586.039	32612.2
586.236	31915.89
586.434	31778.67
586.631	32030.57
586.828	31903.6
587.026	31754.1
587.223	31854.45
587.42	31534.96
587.618	31489.91
587.815	31674.23
588.012	31201.15
588.21	31072.12
588.407	31776.62
588.604	31059.84
588.801	30916.48
588.999	31188.86
589.196	31106.94
589.393	31078.27
589.59	30621.57
589.787	30611.33
589.984	30584.71
590.182	30029.71
590.379	30748.54
590.576	30123.91
590.773	30365.57
590.97	29683.6
591.167	30381.96
591.364	29702.03
591.561	29890.45
591.758	29443.99
591.955	29804.43
592.152	30119.82
592.349	29542.29
592.546	29560.72
592.743	29274.01
592.94	29196.18
593.137	29591.44
593.334	29419.41
593.531	29075.35
593.727	28968.86
593.924	28805.02
594.121	28358.56
594.318	29132.7
594.515	28682.14
594.712	28850.08
594.908	28739.49
595.105	28614.56
595.302	28217.25
595.499	28680.1
595.696	28639.14
595.892	28632.99
596.089	28190.63
596.286	28229.54
596.482	27883.44
596.679	27822
596.876	28069.8
597.072	27932.59
597.269	27367.35
597.466	27422.64
597.662	27592.62
597.859	27420.59
598.055	27455.41
598.252	27244.47
598.448	27232.18
598.645	26855.36
598.841	26642.37
599.038	26955.71
599.234	26873.79
599.431	26916.79
599.627	26798.01
599.824	26574.78
600.02	26451.91
600.217	26496.96
600.413	26529.73
600.609	26357.7
600.806	26046.41
601.002	26472.39
601.198	26179.53
601.395	25532.37
601.591	26132.42
601.787	26036.17
601.984	25864.14
602.18	25456.59
602.376	25722.83
602.572	25528.27
602.769	25636.81
602.965	25155.54
603.161	25413.59
603.357	25606.09
603.553	25460.69
603.75	25305.04
603.946	25358.29
604.142	25212.88
604.338	24616.93
604.534	25003.99
604.73	24905.69
604.926	24621.02
605.122	24643.55
605.318	24446.94
605.514	24133.61
605.71	24358.88
605.906	24336.35
606.102	24176.61
606.298	24252.39
606.494	24066.02
606.69	24119.27
606.886	24141.8
607.082	23678.96
607.278	24203.24
607.474	23783.4
607.67	23777.26
607.866	23601.13
608.062	23904.23
608.257	23611.37
608.453	23660.52
608.649	23918.57
608.845	23463.92
609.041	23490.54
609.236	23250.93
609.432	23453.68
609.628	23246.83
609.824	23089.14
610.019	22966.26
610.215	23105.52
610.411	23367.66
610.606	22788.09
610.802	23240.69
610.998	23185.4
611.193	22810.62
611.389	23218.16
611.584	23005.17
611.78	22530.05
611.976	22810.62
612.171	22683.64
612.367	22433.79
612.562	22503.42
612.758	22167.56
612.953	22497.28
613.149	22677.5
613.344	22534.14
613.539	22876.15
613.735	22374.4
613.93	22487.04
614.126	22380.54
614.321	22482.94
614.517	22198.27
614.712	22341.63
614.907	22261.76
615.103	22151.17
615.298	22061.06
615.493	22358.02
615.688	21823.5
615.884	22312.96
616.079	21817.35
616.274	22040.58
616.47	21858.31
616.665	22009.86
616.86	21600.27
617.055	21921.8
617.25	21747.72
617.445	21864.46
617.641	21448.72
617.836	21643.28
618.031	21168.15
618.226	21252.11
618.421	21409.81
618.616	21432.33
618.811	20776.98
619.006	21172.24
619.201	20912.15
619.396	20992.02
619.591	20832.28
619.786	21100.56
619.981	20506.65
620.176	20842.52
620.371	20281.38
620.566	20527.13
620.761	20461.6
620.956	20324.38
621.151	20129.83
621.346	20254.75
621.541	19978.28
621.735	20021.28
621.93	19841.06
622.125	19718.18
622.32	19589.16
622.515	19738.66
622.709	19519.53
622.904	19353.65
623.099	19298.35
623.294	19410.99
623.488	19355.69
623.683	19068.98
623.878	19017.78
624.072	18864.18
624.267	18999.35
624.462	18835.51
624.656	18628.67
624.851	18612.28
625.046	18317.37
625.24	18022.47
625.435	18118.72
625.629	18069.57
625.824	17672.26
626.018	17967.17
626.213	17588.3
626.407	17870.92
626.602	17600.58
626.796	17578.06
626.991	17555.53
627.185	17518.67
627.38	17313.87
627.574	17104.98
627.768	17025.11
627.963	16844.88
628.157	16830.55
628.352	16961.62
628.546	16453.72
628.74	16437.34
628.935	16400.48
629.129	16549.98
629.323	16261.21
629.517	16470.11
629.712	16042.08
629.906	16185.44
630.1	15839.33
630.294	15861.86
630.489	15556.71
630.683	15816.8
630.877	15741.03
631.071	15302.76
631.265	15345.77
631.459	15220.85
631.653	15276.14
631.848	15122.54
632.042	14844.02
632.236	15347.82
632.43	14930.03
632.624	15106.16
632.818	14868.59
633.012	14813.3
633.206	14692.47
633.4	14633.08
633.594	14520.44
633.788	14426.23
633.982	14471.29
634.176	14579.83
634.369	14237.82
634.563	14168.19
634.757	14200.96
634.951	14190.72
635.145	14121.09
635.339	14028.93
635.533	13680.77
635.726	14024.83
635.92	13576.33
636.114	13621.38
636.308	13293.71
636.501	13453.45
636.695	13621.38
636.889	13217.93
637.083	13346.95
637.276	13252.75
637.47	13125.77
637.664	12955.79
637.857	13119.63
638.051	13033.61
638.244	12992.66
638.438	12828.82
638.632	12857.49
638.825	12595.35
639.019	12603.54
639.212	12626.07
639.406	12449.94
639.599	12370.07
639.793	12558.49
639.986	12064.93
640.18	12257.43
640.373	12144.8
640.567	12056.73
640.76	12177.56
640.954	11987.1
641.147	12089.5
641.34	11722.91
641.534	11800.74
641.727	11813.03
641.92	11714.72
642.114	11804.83
642.307	11630.76
642.5	11509.93
642.694	11460.77
642.887	11450.53
643.08	11464.87
643.273	11282.6
643.467	11024.56
643.66	11014.32
643.853	10895.54
644.046	10830
644.239	10803.38
644.432	10938.54
644.626	10858.67
644.819	10758.32
645.012	10780.85
645.205	10850.48
645.398	10645.68
645.591	10500.28
645.784	10541.24
645.977	10369.21
646.17	10563.76
646.363	10307.77
646.556	10115.26
646.749	10305.72
646.942	10301.62
647.135	10027.2
647.328	10051.77
647.521	9978.05
647.714	9943.23
647.907	10102.97
648.099	9871.55
648.292	9892.03
648.485	10010.81
648.678	9529.54
648.871	9650.37
649.064	9494.72
649.256	9771.2
649.449	9486.53
649.642	9558.21
649.835	9451.72
650.027	9287.88
650.22	9171.15
650.413	9033.93
650.605	9107.66
650.798	9169.1
650.991	9099.47
651.183	9068.75
651.376	9038.03
651.568	9072.84
651.761	8970.44
651.954	9076.94
652.146	8720.59
652.339	8919.25
652.531	8771.79
652.724	8788.18
652.916	8687.82
653.109	8433.88
653.301	8483.03
653.494	8589.52
653.686	8444.12
653.879	8437.97
654.071	8419.54
654.263	8347.86
654.456	8321.24
654.648	8536.28
654.84	8196.31
655.033	8122.59
655.225	8315.09
655.417	8024.28
655.61	8206.55
655.802	8081.63
655.994	7950.56
656.186	8108.25
656.379	7868.64
656.571	7805.15
656.763	7704.8
656.955	7725.28
657.148	7803.1
657.34	7725.28
657.532	7596.26
657.724	7543.01
657.916	7839.97
658.108	7702.75
658.3	7416.04
658.492	7497.95
658.684	7360.74
658.876	7313.64
659.068	7336.17
659.26	7379.17
659.452	7489.76
659.644	7166.18
659.836	7205.1
660.028	7307.49
660.22	7059.69
660.412	6936.81
660.604	6953.2
660.796	6963.44
660.988	6938.86
661.18	7026.92
661.372	6801.65
661.563	6854.89
661.755	6830.32
661.947	6889.71
662.139	6719.73
662.331	6762.73
662.522	6736.11
662.714	6631.66
662.906	6547.7
663.097	6574.32
663.289	6652.14
663.481	6564.08
663.673	6559.99
663.864	6414.58
664.056	6322.42
664.247	6326.52
664.439	6289.65
664.631	6260.98
664.822	6539.51
665.014	6269.17
665.205	6179.06
665.397	6185.21
665.588	6205.69
665.78	6134.01
665.971	6156.54
666.163	6047.99
666.354	6086.9
666.546	5904.64
666.737	5982.46
666.929	6029.56
667.12	6080.76
667.311	5855.48
667.503	5964.03
667.694	6037.75
667.885	5806.33
668.077	5898.49
668.268	5775.61
668.459	5855.48
668.651	5746.94
668.842	5662.97
669.033	5619.97
669.224	5609.73
669.416	5513.47
669.607	5740.8
669.798	5646.59
669.989	5538.05
670.18	5439.75
670.371	5693.69
670.563	5437.7
670.754	5433.6
670.945	5224.71
671.136	5349.64
671.327	5402.88
671.518	5193.99
671.709	5290.24
671.9	5314.82
672.091	5325.06
672.282	5318.92
672.473	5237
672.664	5126.41
672.855	5140.74
673.046	5189.89
673.237	5038.34
673.428	5251.33
673.619	5234.95
673.809	5122.31
674	4888.84
674.191	5165.32
674.382	4868.36
674.573	5060.87
674.764	4968.71
674.954	4960.52
675.145	4950.28
675.336	4833.55
675.527	4894.99
675.717	4937.99
675.908	4962.57
676.099	4806.92
676.289	4825.36
676.48	4792.59
676.671	4833.55
676.861	4854.03
677.052	4675.85
677.243	4718.86
677.433	4634.89
677.624	4718.86
677.814	4733.2
678.005	4708.62
678.195	4653.33
678.386	4616.46
678.576	4641.04
678.767	4477.2
678.957	4520.21
679.148	4602.13
679.338	4606.22
679.529	4704.53
679.719	4434.19
679.909	4514.06
680.1	4464.91
680.29	4415.76
680.481	4407.57
680.671	4438.29
680.861	4411.67
681.052	4454.67
681.242	4350.23
681.432	4450.58
681.622	4407.57
681.813	4329.75
682.003	4286.74
682.193	4473.11
682.383	4221.2
682.573	4325.65
682.764	4270.36
682.954	4344.08
683.144	4270.36
683.334	4231.44
683.524	4143.38
683.714	4317.46
683.904	4325.65
684.094	4133.14
684.284	4333.84
684.474	4145.43
684.664	4079.9
684.854	4108.57
685.044	4155.67
685.234	4096.28
685.424	4051.22
685.614	4092.18
685.804	4047.13
685.994	3967.26
686.184	3946.78
686.374	3934.49
686.564	4018.46
686.753	4057.37
686.943	3817.76
687.133	3832.09
687.323	3895.58
687.513	3842.33
687.702	3825.95
687.892	3784.99
688.082	3813.66
688.272	3756.32
688.461	3703.07
688.651	3838.23
688.841	3725.6
689.03	3813.66
689.22	3686.69
689.41	3703.07
689.599	3692.83
689.789	3746.08
689.979	3809.56
690.168	3612.96
690.358	3588.38
690.547	3490.08
690.737	3518.75
690.926	3549.47
691.116	3514.66
691.305	3436.83
691.495	3488.03
691.684	3434.78
691.874	3359.01
692.063	3436.83
692.252	3494.18
692.442	3467.55
692.631	3293.48
692.82	3369.25
693.01	3273
693.199	3313.95
693.388	3240.23
693.578	3281.19
693.767	3234.08
693.956	3215.65
694.146	3121.45
694.335	3154.21
694.524	3193.12
694.713	3127.59
694.902	3137.83
695.092	3098.92
695.281	3146.02
695.47	3006.76
695.659	3254.56
695.848	3141.93
696.037	3100.97
696.226	3084.58
696.415	3068.2
696.604	3088.68
696.793	2965.8
696.982	3033.38
697.171	3055.91
697.36	2988.33
697.549	2916.65
697.738	2879.79
697.927	2994.47
698.116	2941.22
698.305	2830.63
698.494	2883.88
698.683	2924.84
698.872	2883.88
699.061	2943.27
699.25	2877.74
699.438	2842.92
699.627	2955.56
699.816	3002.66
700.005	2914.6
700.193	2969.9
700.382	2840.87
700.571	2859.31
700.76	2806.06
700.948	2871.59
701.137	2763.05
701.326	2826.54
701.514	2793.77
701.703	2791.72
701.892	2750.76
702.08	2894.12
702.269	2750.76
702.457	2785.58
702.646	2830.63
702.834	2726.19
703.023	2722.09
703.212	2703.66
703.4	2777.39
703.589	2767.15
703.777	2752.81
703.965	2650.41
704.154	2832.68
704.342	2707.76
704.531	2701.61
704.719	2636.08
704.907	2730.28
705.096	2695.47
705.284	2699.56
705.472	2828.59
705.661	2650.41
705.849	2703.66
706.037	2740.52
706.226	2711.85
706.414	2736.43
706.602	2605.36
706.79	2709.8
706.979	2642.22
707.167	2560.3
707.355	2601.26
707.543	2720.04
707.731	2892.07
707.919	2660.65
708.107	2685.23
708.296	2615.6
708.484	2701.61
708.672	2736.43
708.86	2652.46
709.048	2703.66
709.236	2652.46
709.424	2732.33
709.612	2711.85
709.8	2627.89
709.988	2732.33
710.176	2591.02
710.364	2713.9
710.551	2668.84
710.739	2654.51
710.927	2724.14
711.115	2484.53
711.303	2715.95
711.491	2625.84
711.679	2535.73
711.866	2564.4
712.054	2662.7
712.242	2507.06
712.43	2718
712.617	2623.79
712.805	2810.15
712.993	2638.13
713.181	2588.97
713.368	2634.03
713.556	2591.02
713.744	2642.22
713.931	2634.03
714.119	2654.51
714.306	2593.07
714.494	2572.59
714.682	2642.22
714.869	2701.61
715.057	2480.43
715.244	2756.91
715.432	2668.84
715.619	2617.65
715.807	2672.94
715.994	2591.02
716.182	2525.49
716.369	2595.12
716.556	2668.84
716.744	2638.13
716.931	2681.13
717.119	2603.31
717.306	2564.4
717.493	2625.84
717.681	2634.03
717.868	2582.83
718.055	2681.13
718.242	2621.74
718.43	2548.01
718.617	2535.73
718.804	2603.31
718.991	2580.78
719.179	2584.88
719.366	2568.49
719.553	2648.36
719.74	2554.16
719.927	2652.46
720.114	2654.51
720.301	2541.87
720.488	2595.12
720.676	2679.08
720.863	2601.26
721.05	2588.97
721.237	2572.59
721.424	2726.19
721.611	2482.48
721.798	2550.06
721.985	2558.25
722.172	2601.26
722.358	2687.28
722.545	2533.68
722.732	2625.84
722.919	2634.03
723.106	2464.05
723.293	2525.49
723.48	2554.16
723.667	2603.31
723.853	2658.6
724.04	2580.78
724.227	2625.84
724.414	2556.21
724.6	2662.7
724.787	2541.87
724.974	2654.51
725.161	2543.92
725.347	2548.01
725.534	2523.44
725.72	2560.3
725.907	2369.84
726.094	2527.53
726.28	2511.15
726.467	2543.92
726.653	2654.51
726.84	2634.03
727.027	2531.63
727.213	2574.64
727.4	2619.69
727.586	2580.78
727.773	2513.2
727.959	2582.83
728.145	2560.3
728.332	2525.49
728.518	2548.01
728.705	2595.12
728.891	2593.07
729.077	2474.29
729.264	2498.86
729.45	2494.77
729.636	2670.89
729.823	2550.06
730.009	2482.48
730.195	2523.44
730.382	2523.44
730.568	2511.15
730.754	2613.55
730.94	2439.47
731.126	2554.16
731.313	2498.86
731.499	2478.38
731.685	2449.71
731.871	2515.25
732.057	2482.48
732.243	2486.58
732.429	2619.69
732.615	2543.92
732.801	2480.43
732.987	2545.97
733.173	2566.45
733.359	2515.25
733.545	2351.41
733.731	2525.49
733.917	2400.56
734.103	2507.06
734.289	2457.9
734.475	2412.85
734.661	2515.25
734.847	2472.24
735.033	2531.63
735.219	2433.33
735.404	2478.38
735.59	2357.55
735.776	2400.56
735.962	2525.49
736.148	2351.41
736.333	2373.94
736.519	2408.75
736.705	2425.14
736.89	2509.1
737.076	2486.58
737.262	2484.53
737.447	2357.55
737.633	2421.04
737.819	2439.47
738.004	2431.28
738.19	2296.11
738.375	2449.71
738.561	2416.94
738.747	2339.12
738.932	2330.93
739.118	2330.93
739.303	2414.9
739.489	2310.45
739.674	2316.59
739.859	2253.11
740.045	2339.12
740.23	2242.87
740.416	2261.3
740.601	2283.83
740.786	2294.07
740.972	2160.95
741.157	2253.11
741.342	2238.77
741.528	2279.73
741.713	2187.57
741.898	2101.56
742.084	2308.4
742.269	2163
742.454	2173.24
742.639	2259.25
742.824	2257.2
743.01	2134.32
743.195	2234.68
743.38	2072.89
743.565	2179.38
743.75	2220.34
743.935	2017.59
744.12	2126.13
744.305	2160.95
744.49	2044.21
744.675	1990.97
744.86	2177.33
745.045	2027.83
745.23	2064.69
745.415	1964.34
745.6	2195.76
745.785	1950.01
745.97	2007.35
746.155	1900.86
746.34	2007.35
746.525	1882.42
746.71	1984.82
746.895	1806.65
747.079	1890.62
747.264	1878.33
747.449	1997.11
747.634	1812.79
747.819	1855.8
748.003	1945.91
748.188	1853.75
748.373	1835.32
748.557	1886.52
748.742	1810.75
748.927	1818.94
749.111	1831.23
749.296	1808.7
749.481	1872.18
749.665	1767.74
749.85	1800.51
750.034	1839.42
750.219	1753.4
750.404	1765.69
750.588	1681.72
750.773	1687.87
750.957	1775.93
751.141	1823.03
751.326	1773.88
751.51	1675.58
751.695	1673.53
751.879	1743.16
752.064	1636.67
752.248	1657.15
752.432	1603.9
752.617	1696.06
752.801	1569.09
752.985	1548.61
753.17	1593.66
753.354	1548.61
753.538	1577.28
753.722	1499.45
753.907	1564.99
754.091	1534.27
754.275	1548.61
754.459	1392.96
754.643	1511.74
754.828	1429.82
755.012	1476.93
755.196	1390.91
755.38	1519.93
755.564	1499.45
755.748	1452.35
755.932	1501.5
756.116	1507.65
756.3	1339.71
756.484	1331.52
756.668	1435.97
756.852	1341.76
757.036	1341.76
757.22	1274.18
757.404	1360.19
757.588	1384.77
757.772	1384.77
757.956	1235.27
758.14	1399.1
758.323	1276.23
758.507	1222.98
758.691	1276.23
758.875	1331.52
759.059	1366.34
759.242	1227.07
759.426	1188.16
759.61	1218.88
759.794	1229.12
759.977	1218.88
760.161	1208.64
760.345	1313.09
760.528	1229.12
760.712	1128.77
760.895	1227.07
761.079	1204.55
761.263	1145.16
761.446	1194.31
761.63	1200.45
761.813	1200.45
761.997	1159.49
762.18	1069.38
762.364	1167.68
762.547	1034.57
762.731	1059.14
762.914	1040.71
763.098	1036.61
763.281	1110.34
763.464	1085.76
763.648	1165.64
763.831	1067.33
764.015	1122.63
764.198	1093.96
764.381	1063.24
764.564	1110.34
764.748	1122.63
764.931	1085.76
765.114	1171.78
765.297	991.56
765.481	1063.24
765.664	971.08
765.847	1032.52
766.03	1104.2
766.213	995.65
766.397	1069.38
766.58	1044.81
766.763	1030.47
766.946	1001.8
767.129	1001.8
767.312	1026.37
767.495	1124.68
767.678	1057.09
767.861	958.79
768.044	991.56
768.227	995.65
768.41	1065.29
768.593	993.61
768.776	973.13
768.959	915.78
769.142	985.41
769.324	962.89
769.507	1040.71
769.69	917.83
769.873	868.68
770.056	934.22
770.239	1012.04
770.421	995.65
770.604	919.88
770.787	946.5
770.97	950.6
771.152	905.54
771.335	868.68
771.518	901.45
771.7	938.31
771.883	876.87
772.066	899.4
772.248	899.4
772.431	950.6
772.613	821.58
772.796	878.92
772.978	825.67
773.161	866.63
773.343	850.25
773.526	762.19
773.708	913.74
773.891	797
774.073	803.15
774.256	803.15
774.438	760.14
774.621	774.47
774.803	878.92
774.985	778.57
775.168	856.39
775.35	758.09
775.532	751.95
775.715	817.48
775.897	786.76
776.079	729.42
776.261	821.58
776.444	835.91
776.626	715.08
776.808	735.56
776.99	653.64
777.173	784.71
777.355	733.51
777.537	749.9
777.719	735.56
777.901	635.21
778.083	637.26
778.265	667.98
778.447	659.79
778.629	653.64
778.811	725.32
778.993	645.45
779.175	594.25
779.357	710.99
779.539	655.69
779.721	667.98
779.903	627.02
780.085	631.12
780.267	649.55
780.449	635.21
780.631	633.16
780.812	559.44
780.994	622.92
781.176	557.39
781.358	602.44
781.54	565.58
781.721	571.72
781.903	665.93
782.085	629.07
782.267	571.72
782.448	618.83
782.63	584.01
782.812	610.64
782.993	530.77
783.175	541.01
783.357	559.44
783.538	584.01
783.72	489.81
783.901	481.61
784.083	549.2
784.264	485.71
784.446	569.68
784.627	518.48
784.809	528.72
784.99	522.57
785.172	598.35
785.353	465.23
785.535	452.94
785.716	434.51
785.897	538.96
786.079	454.99
786.26	475.47
786.441	522.57
786.623	475.47
786.804	428.37
786.985	483.66
787.167	424.27
787.348	391.5
787.529	538.96
787.71	524.62
787.891	586.06
788.073	362.83
788.254	434.51
788.435	483.66
788.616	504.14
788.797	457.04
788.978	489.81
789.159	448.85
789.34	352.59
789.522	340.3
789.703	461.13
789.884	332.11
790.065	420.17
790.246	311.63
790.427	401.74
790.607	332.11
790.788	434.51
790.969	342.35
791.15	403.79
791.331	338.26
791.512	436.56
791.693	375.12
791.874	323.92
792.054	434.51
792.235	383.31
792.416	375.12
792.597	354.64
792.778	416.08
792.958	358.74
793.139	303.44
793.32	297.3
793.5	323.92
793.681	385.36
793.862	344.4
794.042	301.39
794.223	293.2
794.404	356.69
794.584	358.74
794.765	358.74
794.945	328.02
795.126	344.4
795.306	276.82
795.487	237.91
795.667	348.5
795.848	330.06
796.028	289.1
796.209	287.06
796.389	287.06
796.57	344.4
796.75	313.68
796.93	287.06
797.111	289.1
797.291	252.24
797.471	282.96
797.652	264.53
797.832	233.81
798.012	315.73
798.192	340.3
798.373	254.29
798.553	242
798.733	274.77
798.913	246.1
799.093	235.86
799.274	219.47
799.454	328.02
799.634	305.49
799.814	258.39
799.994	426.32
800.174	231.76
800.354	317.78
800.534	221.52
800.714	196.95
800.894	287.06
801.074	168.27
801.254	235.86
801.434	266.58
801.614	205.14
801.794	223.57
801.974	571.72
802.154	325.97
802.334	285.01
802.514	209.23
802.693	221.52
802.873	225.62
803.053	299.34
803.233	237.91
803.413	182.61
803.592	239.95
803.772	205.14
803.952	237.91
804.131	209.23
804.311	287.06
804.491	223.57
804.67	160.08
804.85	221.52
805.03	258.39
805.209	313.68
805.389	244.05
805.568	248.15
805.748	162.13
805.928	297.3
806.107	123.22
806.287	119.12
806.466	278.87
806.646	203.09
806.825	143.7
807.004	233.81
807.184	203.09
807.363	235.86
807.543	258.39
807.722	209.23
807.901	221.52
808.081	184.66
808.26	182.61
808.439	219.47
808.619	242
808.798	252.24
808.977	176.47
809.156	149.84
809.336	213.33
809.515	139.6
809.694	205.14
809.873	170.32
810.052	174.42
810.231	209.23
810.411	170.32
810.59	250.19
810.769	233.81
810.948	174.42
811.127	211.28
811.306	176.47
811.485	190.8
811.664	239.95
811.843	235.86
812.022	141.65
812.201	162.13
812.38	158.03
812.559	184.66
812.737	272.72
812.916	53.59
813.095	133.46
813.274	115.03
813.453	145.75
813.632	194.9
813.811	194.9
813.989	119.12
814.168	162.13
814.347	92.5
814.526	229.71
814.704	170.32
814.883	121.17
815.062	123.22
815.24	203.09
815.419	80.21
815.598	135.51
815.776	125.27
815.955	57.68
816.133	67.92
816.312	49.49
816.49	176.47
816.669	108.88
816.847	190.8
817.026	145.75
817.204	194.9
817.383	182.61
817.561	147.8
817.74	237.91
817.918	135.51
818.097	90.45
818.275	135.51
818.453	80.21
818.632	106.84
818.81	110.93
818.988	94.55
819.167	145.75
819.345	110.93
819.523	158.03
819.701	151.89
819.879	94.55
820.058	115.03
820.236	160.08
820.414	168.27
820.592	33.11
820.77	139.6
820.948	129.36
821.127	98.64
821.305	90.45
821.483	141.65
821.661	104.79
821.839	143.7
822.017	72.02
822.195	125.27
822.373	170.32
822.551	164.18
822.729	108.88
822.907	84.31
823.085	121.17
823.262	141.65
823.44	72.02
823.618	135.51
823.796	125.27
823.974	106.84
824.152	129.36
824.329	149.84
824.507	139.6
824.685	82.26
824.863	108.88
825.04	69.97
825.218	88.4
825.396	115.03
825.574	131.41
825.751	121.17
825.929	141.65
826.107	145.75
826.284	90.45
826.462	18.77
826.639	47.44
826.817	55.64
826.994	63.83
827.172	106.84
827.349	53.59
827.527	121.17
827.704	133.46
827.882	155.99
828.059	78.16
828.237	137.56
828.414	153.94
828.591	20.82
828.769	67.92
828.946	96.6
829.124	106.84
829.301	139.6
829.478	76.12
829.655	76.12
829.833	104.79
830.01	29.01
830.187	61.78
830.364	88.4
830.542	39.25
830.719	110.93
830.896	149.84
831.073	51.54
831.25	123.22
831.427	155.99
831.604	88.4
831.782	55.64
831.959	168.27
832.136	65.88
832.313	143.7
832.49	86.36
832.667	166.23
832.844	39.25
833.021	125.27
833.198	104.79
833.374	115.03
833.551	137.56
833.728	45.4
833.905	8.53
834.082	76.12
834.259	45.4
834.436	92.5
834.612	31.06
834.789	119.12
834.966	-18.09
835.143	98.64
835.319	16.73
835.496	121.17
835.673	135.51
835.85	76.12
836.026	90.45
836.203	117.08
836.38	53.59
836.556	63.83
836.733	76.12
836.909	72.02
837.086	47.44
837.262	-32.43
837.439	98.64
837.616	-7.85
837.792	51.54
837.968	55.64
838.145	47.44
838.321	-36.52
838.498	37.2
838.674	123.22
838.851	57.68
839.027	80.21
839.203	45.4
839.38	8.53
839.556	-16.04
839.732	164.18
839.909	88.4
840.085	57.68
840.261	63.83
840.437	41.3
840.614	-26.28
840.79	65.88
840.966	67.92
841.142	-24.23
841.318	43.35
841.494	47.44
841.671	74.07
841.847	90.45
842.023	55.64
842.199	115.03
842.375	96.6
842.551	65.88
842.727	14.68
842.903	151.89
843.079	96.6
843.255	112.98
843.431	-24.23
843.607	39.25
843.783	43.35
843.959	47.44
844.134	47.44
844.31	94.55
844.486	61.78
844.662	16.73
844.838	74.07
845.013	74.07
845.189	94.55
845.365	51.54
845.541	92.5
845.716	16.73
845.892	57.68
846.068	72.02
846.244	67.92
846.419	47.44
846.595	31.06
846.77	22.87
846.946	49.49
847.122	4.44
847.297	-26.28
847.473	110.93
847.648	37.2
847.824	39.25
847.999	41.3
848.175	78.16
848.35	22.87
848.526	78.16
848.701	24.92
848.876	45.4
849.052	57.68
849.227	22.87
849.403	31.06
849.578	100.69
849.753	39.25
849.929	57.68
850.104	2.39
850.279	31.06
850.454	-11.95
850.63	26.96
850.805	59.73
850.98	80.21
851.155	84.31
851.33	43.35
851.505	106.84
851.681	106.84
851.856	16.73
852.031	10.58
852.206	41.3
852.381	82.26
852.556	-1.71
852.731	20.82
852.906	-3.75
853.081	6.49
853.256	137.56
853.431	22.87
853.606	24.92
853.781	41.3
853.956	45.4
854.131	74.07
854.305	24.92
854.48	-7.85
854.655	37.2
854.83	33.11
855.005	45.4
855.18	-11.95
855.354	-3.75
855.529	6.49
855.704	65.88
855.879	-11.95
856.053	-1.71
856.228	65.88
856.403	-54.95
856.577	74.07
856.752	-24.23
856.926	-44.71
857.101	51.54
857.276	82.26
857.45	29.01
857.625	74.07
857.799	55.64
857.974	76.12
858.148	20.82
858.323	63.83
858.497	-9.9
858.672	18.77
858.846	-16.04
859.02	76.12
859.195	-32.43
859.369	106.84
859.543	82.26
859.718	35.16
859.892	4.44
860.066	59.73
860.241	51.54
860.415	39.25
860.589	39.25
860.763	57.68
860.938	33.11
861.112	31.06
861.286	10.58
861.46	-1.71
861.634	-34.47
861.808	6.49
861.982	-20.14
862.157	45.4
862.331	-7.85
862.505	-71.34
862.679	-11.95
862.853	57.68
863.027	2.39
863.201	37.2
863.375	29.01
863.549	59.73
863.722	29.01
863.896	82.26
864.07	98.64
864.244	0.34
864.418	41.3
864.592	20.82
864.766	41.3
864.939	-26.28
865.113	-3.75
865.287	-44.71
865.461	14.68
865.634	-13.99
865.808	-1.71
865.982	8.53
866.156	-20.14
866.329	45.4
866.503	18.77
866.676	57.68
866.85	63.83
867.024	10.58
867.197	59.73
867.371	12.63
867.544	-7.85
867.718	14.68
867.891	8.53
868.065	-77.48
868.238	22.87
868.412	53.59
868.585	57.68
868.759	-34.47
868.932	2.39
869.105	-24.23
869.279	20.82
869.452	16.73
869.625	-7.85
869.799	90.45
869.972	-1.71
870.145	2.39
870.319	61.78
870.492	-65.19
870.665	-22.19
870.838	-7.85
871.011	6.49
871.185	20.82
871.358	2.39
871.531	35.16
871.704	57.68
871.877	39.25
872.05	65.88
872.223	-1.71
872.396	26.96
872.569	12.63
872.742	-13.99
872.915	-3.75
873.088	22.87
873.261	24.92
873.434	65.88
873.607	53.59
873.78	2.39
873.953	10.58
874.126	22.87
874.299	37.2
874.471	96.6
874.644	14.68
874.817	14.68
874.99	131.41
875.163	49.49
875.335	4.44
875.508	-11.95
875.681	2.39
875.853	24.92
876.026	43.35
876.199	-13.99
876.371	8.53
876.544	49.49
876.717	12.63
876.889	-9.9
877.062	74.07
877.234	-24.23
877.407	69.97
877.579	26.96
877.752	-11.95
877.924	43.35
878.097	31.06
878.269	-40.62
878.442	0.34
878.614	-11.95
878.786	43.35
878.959	2.39
879.131	76.12
879.303	-32.43
879.476	-1.71
879.648	-3.75
879.82	39.25
879.993	2.39
880.165	61.78
880.337	-44.71
880.509	-1.71
880.681	31.06
880.854	90.45
881.026	41.3
881.198	80.21
881.37	-1.71
881.542	33.11
881.714	-65.19
881.886	-16.04
882.058	-7.85
882.23	-24.23
882.402	-50.86
882.574	4.44
882.746	-9.9
882.918	29.01
883.09	53.59
883.262	22.87
883.434	8.53
883.606	31.06
883.778	74.07
883.95	18.77
884.122	33.11
884.293	8.53
884.465	-26.28
884.637	26.96
884.809	29.01
884.98	57.68
885.152	45.4
885.324	-63.15
885.496	22.87
885.667	-11.95
885.839	4.44
886.011	-7.85
886.182	31.06
886.354	24.92
886.525	-28.33
886.697	51.54
886.869	61.78
887.04	-36.52
887.212	20.82
887.383	33.11
887.555	33.11
887.726	41.3
887.897	39.25
888.069	4.44
888.24	14.68
888.412	45.4
888.583	-40.62
888.754	-30.38
888.926	-22.19
889.097	-28.33
889.268	-40.62
889.44	-79.53
889.611	-3.75
889.782	-13.99
889.953	-20.14
890.125	20.82
890.296	-40.62
890.467	74.07
890.638	-13.99
890.809	-16.04
890.98	-18.09
891.151	-85.67
891.323	47.44
891.494	6.49
891.665	24.92
891.836	16.73
892.007	20.82
892.178	55.64
892.349	-20.14
892.52	61.78
892.691	-65.19
892.862	-26.28
893.032	-20.14
893.203	33.11
893.374	-26.28
893.545	-3.75
893.716	16.73
893.887	-28.33
894.057	20.82
894.228	-34.47
894.399	-9.9
894.57	20.82
894.74	10.58
894.911	12.63
895.082	39.25
895.253	-22.19
895.423	6.49
895.594	-5.8
895.764	35.16
895.935	-7.85
896.106	61.78
896.276	-18.09
896.447	18.77
896.617	29.01
896.788	-7.85
896.958	-1.71
897.129	-57
897.299	82.26
897.47	-3.75
897.64	69.97
897.81	47.44
897.981	20.82
898.151	63.83
898.322	76.12
898.492	-5.8
898.662	-1.71
898.832	2.39
899.003	-13.99
899.173	-3.75
899.343	-54.95
899.513	-52.91
