Data from USB4F104151__96__11-38-00-256.txt Node

Date: Fri Mar 14 11:38:00 EDT 2025
User: louis
Spectrometer: USB4F10415
Trigger mode: 4
Integration Time (sec): 2.000000E-2
Scans to average: 1
Electric dark correction enabled: true
Nonlinearity correction enabled: false
Boxcar width: 0
XAxis mode: Wavelengths
Number of Pixels in Spectrum: 3648
>>>>>Begin Spectral Data<<<<<
178.204	-79.02
178.424	-79.02
178.644	-79.02
178.864	-128.17
179.084	-101.55
179.304	35.67
179.524	31.57
179.744	-56.49
179.964	0.85
180.184	-62.63
180.404	60.24
180.624	58.2
180.844	-50.35
181.064	-7.34
181.283	-38.06
181.503	15.19
181.723	13.14
181.943	-38.06
182.163	29.52
182.383	7
182.602	45.91
182.822	9.05
183.042	-70.83
183.262	25.43
183.482	56.15
183.701	-42.15
183.921	-19.63
184.141	-17.58
184.361	107.35
184.58	2.9
184.8	80.72
185.02	43.86
185.239	29.52
185.459	-5.29
185.679	82.77
185.898	-56.49
186.118	39.76
186.338	19.29
186.557	-1.19
186.777	11.09
186.997	-44.2
187.216	11.09
187.436	54.1
187.655	-13.48
187.875	31.57
188.095	21.33
188.314	43.86
188.534	25.43
188.753	11.09
188.973	-46.25
189.192	58.2
189.412	-15.53
189.631	-27.82
189.851	19.29
190.07	-38.06
190.29	-46.25
190.509	58.2
190.729	-42.15
190.948	17.24
191.168	56.15
191.387	31.57
191.607	-29.87
191.826	-11.43
192.045	25.43
192.265	43.86
192.484	39.76
192.704	82.77
192.923	9.05
193.142	88.92
193.362	7
193.581	56.15
193.8	68.44
194.02	27.48
194.239	31.57
194.458	17.24
194.678	31.57
194.897	41.81
195.116	-62.63
195.335	27.48
195.555	4.95
195.774	-7.34
195.993	41.81
196.212	11.09
196.432	-13.48
196.651	17.24
196.87	23.38
197.089	25.43
197.308	39.76
197.528	76.63
197.747	-15.53
197.966	90.96
198.185	76.63
198.404	-17.58
198.623	64.34
198.842	-15.53
199.062	21.33
199.281	129.88
199.5	58.2
199.719	90.96
199.938	37.72
200.157	-1.19
200.376	15.19
200.595	47.96
200.814	-15.53
201.033	31.57
201.252	15.19
201.471	25.43
201.69	88.92
201.909	13.14
202.128	33.62
202.347	-3.24
202.566	-40.11
202.785	45.91
203.004	-66.73
203.223	15.19
203.442	19.29
203.661	15.19
203.879	47.96
204.098	97.11
204.317	-31.91
204.536	50
204.755	7
204.974	60.24
205.193	9.05
205.411	23.38
205.63	21.33
205.849	-7.34
206.068	-29.87
206.287	2.9
206.505	64.34
206.724	-33.96
206.943	41.81
207.162	27.48
207.381	31.57
207.599	-15.53
207.818	11.09
208.037	15.19
208.255	37.72
208.474	41.81
208.693	47.96
208.911	-25.77
209.13	-27.82
209.349	50
209.567	56.15
209.786	101.2
210.005	70.48
210.223	-5.29
210.442	-5.29
210.661	7
210.879	35.67
211.098	-25.77
211.316	50
211.535	76.63
211.753	80.72
211.972	60.24
212.191	17.24
212.409	-31.91
212.628	37.72
212.846	2.9
213.065	60.24
213.283	60.24
213.502	-3.24
213.72	7
213.938	29.52
214.157	37.72
214.375	72.53
214.594	-62.63
214.812	41.81
215.031	-70.83
215.249	-29.87
215.467	41.81
215.686	-9.39
215.904	-15.53
216.122	11.09
216.341	21.33
216.559	33.62
216.778	58.2
216.996	27.48
217.214	56.15
217.432	-1.19
217.651	25.43
217.869	-7.34
218.087	11.09
218.306	29.52
218.524	0.85
218.742	50
218.96	74.58
219.179	-23.72
219.397	-13.48
219.615	109.4
219.833	33.62
220.051	37.72
220.27	93.01
220.488	33.62
220.706	11.09
220.924	31.57
221.142	47.96
221.36	0.85
221.578	27.48
221.796	27.48
222.015	-93.35
222.233	19.29
222.451	2.9
222.669	41.81
222.887	11.09
223.105	17.24
223.323	-29.87
223.541	52.05
223.759	39.76
223.977	7
224.195	-25.77
224.413	78.68
224.631	2.9
224.849	-31.91
225.067	-15.53
225.285	-17.58
225.503	-17.58
225.721	-13.48
225.939	25.43
226.157	9.05
226.375	17.24
226.592	-17.58
226.81	50
227.028	-1.19
227.246	-7.34
227.464	50
227.682	13.14
227.9	74.58
228.117	41.81
228.335	0.85
228.553	80.72
228.771	41.81
228.989	7
229.206	29.52
229.424	-27.82
229.642	9.05
229.86	-11.43
230.077	15.19
230.295	45.91
230.513	-1.19
230.731	68.44
230.948	39.76
231.166	45.91
231.384	56.15
231.601	-9.39
231.819	50
232.037	-1.19
232.254	35.67
232.472	43.86
232.689	4.95
232.907	45.91
233.125	-46.25
233.342	-27.82
233.56	41.81
233.777	7
233.995	27.48
234.213	39.76
234.43	43.86
234.648	4.95
234.865	-33.96
235.083	64.34
235.3	25.43
235.518	29.52
235.735	21.33
235.953	-13.48
236.17	-83.11
236.388	41.81
236.605	-15.53
236.822	56.15
237.04	19.29
237.257	86.87
237.475	47.96
237.692	45.91
237.909	17.24
238.127	58.2
238.344	-17.58
238.562	13.14
238.779	-48.3
238.996	11.09
239.214	-13.48
239.431	66.39
239.648	21.33
239.865	25.43
240.083	47.96
240.3	43.86
240.517	35.67
240.735	88.92
240.952	27.48
241.169	105.3
241.386	41.81
241.603	21.33
241.821	27.48
242.038	25.43
242.255	-70.83
242.472	15.19
242.689	19.29
242.907	37.72
243.124	-36.01
243.341	-7.34
243.558	-25.77
243.775	-62.63
243.992	43.86
244.209	60.24
244.426	27.48
244.643	37.72
244.86	2.9
245.078	62.29
245.295	31.57
245.512	62.29
245.729	-3.24
245.946	88.92
246.163	2.9
246.38	41.81
246.597	-7.34
246.814	33.62
247.031	41.81
247.248	27.48
247.464	39.76
247.681	56.15
247.898	27.48
248.115	37.72
248.332	-33.96
248.549	41.81
248.766	-15.53
248.983	88.92
249.2	27.48
249.417	29.52
249.633	2.9
249.85	-5.29
250.067	37.72
250.284	29.52
250.501	27.48
250.717	25.43
250.934	-56.49
251.151	31.57
251.368	54.1
251.585	11.09
251.801	-1.19
252.018	-33.96
252.235	-15.53
252.451	39.76
252.668	25.43
252.885	-7.34
253.102	39.76
253.318	19.29
253.535	-31.91
253.752	7
253.968	68.44
254.185	-13.48
254.401	31.57
254.618	-72.87
254.835	-27.82
255.051	-21.67
255.268	64.34
255.484	4.95
255.701	-31.91
255.917	56.15
256.134	11.09
256.351	37.72
256.567	17.24
256.784	58.2
257	70.48
257.217	64.34
257.433	4.95
257.65	70.48
257.866	76.63
258.082	11.09
258.299	15.19
258.515	15.19
258.732	-23.72
258.948	-7.34
259.165	35.67
259.381	82.77
259.597	35.67
259.814	15.19
260.03	-1.19
260.246	43.86
260.463	41.81
260.679	138.07
260.895	19.29
261.112	15.19
261.328	54.1
261.544	41.81
261.761	86.87
261.977	37.72
262.193	62.29
262.409	109.4
262.626	19.29
262.842	43.86
263.058	-48.3
263.274	13.14
263.49	99.16
263.707	2.9
263.923	-7.34
264.139	23.38
264.355	54.1
264.571	37.72
264.787	39.76
265.004	-1.19
265.22	-33.96
265.436	-21.67
265.652	-29.87
265.868	86.87
266.084	-29.87
266.3	-13.48
266.516	45.91
266.732	27.48
266.948	-56.49
267.164	47.96
267.38	27.48
267.596	-87.21
267.812	-23.72
268.028	52.05
268.244	107.35
268.46	0.85
268.676	11.09
268.892	15.19
269.108	35.67
269.324	-15.53
269.54	35.67
269.756	50
269.972	-31.91
270.188	60.24
270.403	-9.39
270.619	4.95
270.835	37.72
271.051	25.43
271.267	-31.91
271.483	-36.01
271.698	27.48
271.914	-7.34
272.13	-19.63
272.346	56.15
272.562	-13.48
272.777	-23.72
272.993	25.43
273.209	-33.96
273.425	43.86
273.64	-17.58
273.856	27.48
274.072	35.67
274.287	-46.25
274.503	56.15
274.719	29.52
274.934	4.95
275.15	9.05
275.366	-19.63
275.581	17.24
275.797	0.85
276.012	0.85
276.228	47.96
276.444	76.63
276.659	84.82
276.875	4.95
277.09	-9.39
277.306	29.52
277.521	27.48
277.737	60.24
277.952	72.53
278.168	-29.87
278.383	54.1
278.599	56.15
278.814	156.5
279.03	-21.67
279.245	2.9
279.461	4.95
279.676	78.68
279.892	-13.48
280.107	19.29
280.322	29.52
280.538	37.72
280.753	25.43
280.969	15.19
281.184	19.29
281.399	41.81
281.615	41.81
281.83	97.11
282.045	66.39
282.26	31.57
282.476	37.72
282.691	-1.19
282.906	13.14
283.122	-1.19
283.337	-31.91
283.552	47.96
283.767	35.67
283.983	19.29
284.198	17.24
284.413	99.16
284.628	-3.24
284.843	11.09
285.058	68.44
285.274	-27.82
285.489	11.09
285.704	99.16
285.919	-29.87
286.134	-25.77
286.349	-25.77
286.564	21.33
286.779	25.43
286.995	-27.82
287.21	11.09
287.425	47.96
287.64	2.9
287.855	-42.15
288.07	70.48
288.285	80.72
288.5	62.29
288.715	39.76
288.93	35.67
289.145	-52.39
289.36	72.53
289.575	-50.35
289.79	-19.63
290.004	56.15
290.219	-5.29
290.434	52.05
290.649	47.96
290.864	-36.01
291.079	15.19
291.294	41.81
291.509	15.19
291.724	27.48
291.938	50
292.153	37.72
292.368	17.24
292.583	29.52
292.798	60.24
293.012	41.81
293.227	11.09
293.442	35.67
293.657	-46.25
293.871	68.44
294.086	2.9
294.301	9.05
294.516	105.3
294.73	66.39
294.945	23.38
295.16	31.57
295.374	9.05
295.589	47.96
295.804	-70.83
296.018	64.34
296.233	58.2
296.447	45.91
296.662	27.48
296.877	27.48
297.091	37.72
297.306	68.44
297.52	11.09
297.735	-17.58
297.949	35.67
298.164	62.29
298.378	-25.77
298.593	17.24
298.807	97.11
299.022	35.67
299.236	7
299.451	62.29
299.665	62.29
299.88	88.92
300.094	29.52
300.309	4.95
300.523	2.9
300.737	13.14
300.952	27.48
301.166	56.15
301.381	31.57
301.595	19.29
301.809	66.39
302.024	-25.77
302.238	17.24
302.452	47.96
302.667	-21.67
302.881	99.16
303.095	97.11
303.309	21.33
303.524	56.15
303.738	13.14
303.952	19.29
304.166	27.48
304.381	-1.19
304.595	43.86
304.809	23.38
305.023	52.05
305.237	-1.19
305.452	-25.77
305.666	27.48
305.88	56.15
306.094	25.43
306.308	15.19
306.522	125.78
306.736	23.38
306.95	15.19
307.164	29.52
307.379	41.81
307.593	70.48
307.807	47.96
308.021	31.57
308.235	25.43
308.449	60.24
308.663	68.44
308.877	123.73
309.091	47.96
309.305	23.38
309.519	-48.3
309.733	37.72
309.947	-5.29
310.161	86.87
310.374	-23.72
310.588	41.81
310.802	15.19
311.016	58.2
311.23	58.2
311.444	37.72
311.658	68.44
311.872	31.57
312.085	62.29
312.299	47.96
312.513	47.96
312.727	66.39
312.941	74.58
313.154	52.05
313.368	-5.29
313.582	-9.39
313.796	-54.44
314.009	4.95
314.223	-5.29
314.437	0.85
314.651	52.05
314.864	76.63
315.078	78.68
315.292	-7.34
315.505	60.24
315.719	-17.58
315.933	29.52
316.146	25.43
316.36	27.48
316.573	84.82
316.787	52.05
317.001	11.09
317.214	58.2
317.428	43.86
317.641	27.48
317.855	-19.63
318.068	39.76
318.282	31.57
318.495	62.29
318.709	90.96
318.922	15.19
319.136	0.85
319.349	-3.24
319.563	-25.77
319.776	66.39
319.99	-7.34
320.203	4.95
320.417	19.29
320.63	113.49
320.843	142.16
321.057	-1.19
321.27	2.9
321.483	15.19
321.697	43.86
321.91	41.81
322.124	27.48
322.337	9.05
322.55	74.58
322.763	64.34
322.977	50
323.19	13.14
323.403	15.19
323.617	52.05
323.83	45.91
324.043	11.09
324.256	66.39
324.469	2.9
324.683	17.24
324.896	82.77
325.109	39.76
325.322	0.85
325.535	123.73
325.748	11.09
325.962	78.68
326.175	101.2
326.388	39.76
326.601	-9.39
326.814	-27.82
327.027	17.24
327.24	97.11
327.453	70.48
327.666	19.29
327.879	-3.24
328.092	82.77
328.305	43.86
328.518	76.63
328.731	-36.01
328.944	33.62
329.157	31.57
329.37	76.63
329.583	19.29
329.796	95.06
330.009	17.24
330.222	31.57
330.435	50
330.648	25.43
330.861	56.15
331.073	29.52
331.286	47.96
331.499	17.24
331.712	17.24
331.925	76.63
332.138	58.2
332.35	27.48
332.563	-23.72
332.776	19.29
332.989	-23.72
333.202	37.72
333.414	7
333.627	-19.63
333.84	52.05
334.053	35.67
334.265	52.05
334.478	17.24
334.691	15.19
334.903	66.39
335.116	-3.24
335.329	64.34
335.541	9.05
335.754	54.1
335.966	9.05
336.179	-5.29
336.392	9.05
336.604	50
336.817	21.33
337.029	19.29
337.242	109.4
337.454	99.16
337.667	58.2
337.88	72.53
338.092	27.48
338.305	0.85
338.517	2.9
338.729	50
338.942	54.1
339.154	45.91
339.367	-3.24
339.579	58.2
339.792	-21.67
340.004	39.76
340.217	17.24
340.429	47.96
340.641	4.95
340.854	43.86
341.066	19.29
341.278	127.83
341.491	80.72
341.703	76.63
341.915	-9.39
342.128	-40.11
342.34	43.86
342.552	17.24
342.764	-1.19
342.977	39.76
343.189	54.1
343.401	-33.96
343.613	19.29
343.826	47.96
344.038	-21.67
344.25	64.34
344.462	-11.43
344.674	86.87
344.886	4.95
345.099	23.38
345.311	35.67
345.523	82.77
345.735	93.01
345.947	119.64
346.159	9.05
346.371	41.81
346.583	76.63
346.795	23.38
347.007	33.62
347.219	2.9
347.431	39.76
347.643	64.34
347.855	-31.91
348.067	45.91
348.279	93.01
348.491	78.68
348.703	13.14
348.915	68.44
349.127	62.29
349.339	-5.29
349.551	43.86
349.763	15.19
349.975	62.29
350.187	54.1
350.399	84.82
350.61	45.91
350.822	-38.06
351.034	58.2
351.246	-48.3
351.458	58.2
351.669	103.25
351.881	60.24
352.093	47.96
352.305	19.29
352.517	58.2
352.728	64.34
352.94	-11.43
353.152	-23.72
353.363	70.48
353.575	72.53
353.787	52.05
353.999	45.91
354.21	74.58
354.422	35.67
354.633	-1.19
354.845	33.62
355.057	-50.35
355.268	25.43
355.48	66.39
355.692	54.1
355.903	78.68
356.115	43.86
356.326	2.9
356.538	60.24
356.749	58.2
356.961	50
357.172	9.05
357.384	-21.67
357.595	41.81
357.807	27.48
358.018	-3.24
358.23	23.38
358.441	52.05
358.653	56.15
358.864	4.95
359.075	58.2
359.287	29.52
359.498	47.96
359.709	56.15
359.921	84.82
360.132	17.24
360.344	19.29
360.555	33.62
360.766	115.54
360.977	-13.48
361.189	35.67
361.4	-9.39
361.611	35.67
361.823	31.57
362.034	35.67
362.245	35.67
362.456	31.57
362.667	-31.91
362.879	58.2
363.09	15.19
363.301	56.15
363.512	41.81
363.723	35.67
363.935	138.07
364.146	-9.39
364.357	27.48
364.568	27.48
364.779	23.38
364.99	9.05
365.201	23.38
365.412	52.05
365.623	17.24
365.834	39.76
366.045	-15.53
366.256	-25.77
366.467	-36.01
366.678	-9.39
366.889	19.29
367.1	27.48
367.311	13.14
367.522	93.01
367.733	29.52
367.944	43.86
368.155	84.82
368.366	15.19
368.577	84.82
368.788	80.72
368.999	11.09
369.209	78.68
369.42	60.24
369.631	60.24
369.842	64.34
370.053	-17.58
370.264	54.1
370.474	11.09
370.685	-7.34
370.896	9.05
371.107	105.3
371.317	39.76
371.528	-1.19
371.739	76.63
371.95	76.63
372.16	62.29
372.371	15.19
372.582	62.29
372.792	84.82
373.003	27.48
373.214	11.09
373.424	17.24
373.635	-13.48
373.846	35.67
374.056	-5.29
374.267	74.58
374.477	64.34
374.688	19.29
374.898	-38.06
375.109	4.95
375.319	101.2
375.53	7
375.74	31.57
375.951	19.29
376.161	41.81
376.372	64.34
376.582	62.29
376.793	17.24
377.003	-5.29
377.214	50
377.424	25.43
377.635	41.81
377.845	45.91
378.055	99.16
378.266	58.2
378.476	66.39
378.686	27.48
378.897	76.63
379.107	33.62
379.317	-7.34
379.528	29.52
379.738	31.57
379.948	19.29
380.158	82.77
380.369	33.62
380.579	93.01
380.789	54.1
380.999	4.95
381.21	115.54
381.42	82.77
381.63	31.57
381.84	78.68
382.05	11.09
382.261	86.87
382.471	9.05
382.681	25.43
382.891	60.24
383.101	9.05
383.311	84.82
383.521	60.24
383.731	68.44
383.941	43.86
384.151	37.72
384.361	-7.34
384.571	74.58
384.781	7
384.991	84.82
385.201	117.59
385.411	109.4
385.621	27.48
385.831	70.48
386.041	58.2
386.251	101.2
386.461	7
386.671	74.58
386.881	80.72
387.091	82.77
387.301	88.92
387.511	47.96
387.72	33.62
387.93	-7.34
388.14	-1.19
388.35	52.05
388.56	97.11
388.769	23.38
388.979	58.2
389.189	47.96
389.399	95.06
389.609	-1.19
389.818	115.54
390.028	60.24
390.238	86.87
390.447	29.52
390.657	31.57
390.867	17.24
391.076	31.57
391.286	-29.87
391.496	58.2
391.705	93.01
391.915	27.48
392.125	17.24
392.334	50
392.544	97.11
392.753	90.96
392.963	29.52
393.172	70.48
393.382	41.81
393.591	-7.34
393.801	23.38
394.01	93.01
394.22	84.82
394.429	21.33
394.639	-13.48
394.848	52.05
395.058	101.2
395.267	136.02
395.477	74.58
395.686	72.53
395.895	27.48
396.105	88.92
396.314	90.96
396.524	-13.48
396.733	47.96
396.942	82.77
397.152	15.19
397.361	111.44
397.57	60.24
397.78	76.63
397.989	88.92
398.198	78.68
398.407	27.48
398.617	70.48
398.826	107.35
399.035	62.29
399.244	109.4
399.453	31.57
399.663	80.72
399.872	66.39
400.081	82.77
400.29	105.3
400.499	84.82
400.708	162.64
400.917	101.2
401.127	50
401.336	164.69
401.545	213.84
401.754	103.25
401.963	86.87
402.172	84.82
402.381	86.87
402.59	170.83
402.799	68.44
403.008	158.55
403.217	125.78
403.426	150.36
403.635	160.59
403.844	170.83
404.053	125.78
404.262	68.44
404.471	179.03
404.68	127.83
404.888	111.44
405.097	172.88
405.306	193.36
405.515	156.5
405.724	160.59
405.933	170.83
406.142	201.55
406.35	195.41
406.559	140.12
406.768	219.99
406.977	224.08
407.185	250.71
407.394	117.59
407.603	113.49
407.812	213.84
408.02	230.23
408.229	207.7
408.438	191.31
408.646	189.27
408.855	230.23
409.064	224.08
409.272	189.27
409.481	316.24
409.69	183.12
409.898	201.55
410.107	310.1
410.315	357.2
410.524	275.28
410.733	363.34
410.941	256.85
411.15	293.71
411.358	363.34
411.567	373.58
411.775	346.96
411.984	336.72
412.192	432.97
412.401	430.93
412.609	426.83
412.818	455.5
413.026	451.41
413.234	394.06
413.443	502.61
413.651	455.5
413.86	619.34
414.068	586.57
414.276	580.43
414.485	594.76
414.693	570.19
414.901	576.33
415.11	650.06
415.318	643.92
415.526	666.44
415.734	682.83
415.943	670.54
416.151	785.23
416.359	725.83
416.567	828.23
416.776	777.03
416.984	1071.94
417.192	944.97
417.4	840.52
417.608	942.92
417.817	932.68
418.025	967.49
418.233	1112.9
418.441	1061.7
418.649	1078.08
418.857	1231.68
419.065	1155.91
419.273	1155.91
419.481	1346.37
419.689	1284.93
419.897	1352.51
420.105	1360.7
420.313	1444.67
420.521	1473.34
420.729	1489.73
420.937	1581.89
421.145	1653.56
421.353	1733.43
421.561	1796.92
421.769	1772.35
421.977	1811.26
422.185	1835.83
422.393	2014.01
422.601	2075.45
422.809	2067.25
423.017	2138.93
423.224	2204.47
423.432	2343.73
423.64	2212.66
423.848	2429.74
424.056	2388.78
424.263	2612.01
424.471	2673.45
424.679	2695.98
424.887	2751.28
425.094	2980.65
425.302	2960.17
425.51	3007.27
425.718	3003.18
425.925	3089.19
426.133	3158.82
426.341	3302.18
426.548	3613.47
426.756	3576.61
426.964	3631.9
427.171	3828.51
427.379	3957.53
427.586	3971.86
427.794	4086.55
428.001	4336.4
428.209	4655.89
428.417	4557.58
428.624	4684.56
428.832	4872.97
429.039	4723.47
429.247	4717.33
429.454	5147.4
429.662	5544.7
429.869	4973.32
430.076	5565.18
430.284	5315.33
430.491	5663.49
430.699	6001.4
430.906	5931.77
431.114	5999.35
431.321	6216.44
431.528	6411
431.736	6710
431.943	6908.65
432.15	6941.42
432.358	6914.8
432.565	7295.72
432.772	7486.18
432.979	7797.47
433.187	7949.02
433.394	7820
433.601	8243.93
433.808	8440.53
434.016	8401.62
434.223	8800.98
434.43	9286.34
434.637	9097.93
434.844	9931.45
435.052	9771.71
435.259	9673.41
435.466	9906.88
435.673	9515.72
435.88	10281.66
436.087	10953.39
436.294	11188.91
436.501	10785.46
436.708	11008.69
436.915	11231.91
437.122	11836.06
437.329	11819.68
437.537	12112.54
437.743	12286.62
437.95	12090.01
438.157	12817.04
438.364	13304.46
438.571	13263.5
438.778	13580.93
438.985	14404.22
439.192	14092.93
439.399	14582.39
439.606	14346.87
439.813	15022.7
440.02	15716.97
440.227	15485.55
440.433	15524.46
440.64	15837.8
440.847	16138.85
441.054	16261.73
441.261	17484.36
441.467	17095.25
441.674	17517.13
441.881	18092.61
442.088	18045.51
442.294	17771.08
442.501	18446.91
442.708	18766.39
442.914	19501.61
443.121	20103.71
443.328	19769.9
443.534	21096.98
443.741	20654.62
443.948	20533.79
444.154	21766.67
444.361	21623.31
444.568	21883.4
444.774	21821.96
444.981	22071.81
445.187	22770.17
445.394	23706.09
445.6	23411.18
445.807	25764.3
446.013	24625.63
446.22	24969.69
446.426	26098.12
446.633	26370.5
446.839	27427.25
447.046	26182.09
447.252	27607.47
447.459	27785.65
447.665	27580.85
447.871	29004.19
448.078	30261.64
448.284	28486.05
448.491	29315.48
448.697	30345.61
448.903	31162.75
449.11	31097.21
449.316	30210.44
449.522	31136.12
449.728	31930.73
449.935	32309.61
450.141	32000.37
450.347	33147.23
450.553	31846.77
450.76	32522.6
450.966	33775.95
451.172	33235.29
451.378	33632.6
451.584	33147.23
451.791	33866.06
451.997	34263.37
452.203	34439.5
452.409	34601.29
452.615	34384.2
452.821	33206.62
453.027	33071.45
453.233	34959.68
453.44	33605.97
453.646	33851.73
453.852	33583.44
454.058	34439.5
454.264	33147.23
454.47	33956.18
454.676	33180
454.882	34152.78
455.088	31467.89
455.294	32137.58
455.5	32282.98
455.705	32489.83
455.911	31564.15
456.117	30640.51
456.323	30329.22
456.529	28801.44
456.735	30105.99
456.941	29307.29
457.147	28793.25
457.352	27918.76
457.558	27802.03
457.764	27916.72
457.97	27093.43
458.176	26679.74
458.381	26532.29
458.587	25283.03
458.793	25162.2
458.999	23914.98
459.204	25883.08
459.41	25020.89
459.616	23357.94
459.821	23101.94
460.027	23222.77
460.233	22901.24
460.438	21772.81
460.644	22045.19
460.85	20838.94
461.055	20650.52
461.261	20574.75
461.466	19079.73
461.672	18530.87
461.878	19849.77
462.083	18553.4
462.289	18506.3
462.494	17791.56
462.7	17082.96
462.905	16724.57
463.111	17113.68
463.316	17400.4
463.522	16943.7
463.727	17132.11
463.932	16964.18
464.138	16941.65
464.343	16890.45
464.549	16448.09
464.754	16931.41
464.959	16763.48
465.165	16624.22
465.37	15934.05
465.575	15682.15
465.781	16167.52
465.986	16126.56
466.191	15739.49
466.397	15239.79
466.602	14514.81
466.807	15229.55
467.012	15170.16
467.218	15022.7
467.423	14889.59
467.628	14969.46
467.833	15641.19
468.038	14877.3
468.244	14424.7
468.449	15098.48
468.654	14830.2
468.859	14895.73
469.064	14592.63
469.269	14144.13
469.474	14076.54
469.679	14215.8
469.885	13830.79
470.09	14211.71
470.295	14049.92
470.5	13767.3
470.705	13800.07
470.91	13603.46
471.115	13144.72
471.32	13650.57
471.525	13490.82
471.73	13302.41
471.935	13152.91
472.139	12624.53
472.344	12950.16
472.549	12712.6
472.754	12374.68
472.959	12321.43
473.164	11979.42
473.369	11981.47
473.574	12331.67
473.778	12417.69
473.983	12264.09
474.188	11922.08
474.393	11715.23
474.598	11641.51
474.802	11365.03
475.007	11467.43
475.212	11238.06
475.417	11016.88
475.621	10920.62
475.826	11125.42
476.031	10644.15
476.235	10597.04
476.44	10599.09
476.645	10638
476.849	10578.61
477.054	10502.84
477.259	10242.75
477.463	10187.45
477.668	10070.72
477.872	10156.73
478.077	9939.65
478.282	9722.56
478.486	9908.93
478.691	9710.27
478.895	9558.72
479.1	9644.74
479.304	9585.35
479.509	9323.21
479.713	9509.57
479.918	9235.14
480.122	9321.16
480.326	9192.14
480.531	9401.03
480.735	9292.49
480.94	9087.69
481.144	9267.91
481.348	8913.61
481.553	9065.16
481.757	8860.37
481.961	9054.92
482.166	8948.43
482.37	8960.72
482.574	8680.14
482.778	8882.89
482.983	9206.47
483.187	8813.26
483.391	9032.4
483.595	8962.76
483.8	8719.06
484.004	8874.7
484.208	8919.76
484.412	9077.45
484.616	8776.4
484.821	8917.71
485.025	8897.23
485.229	9069.26
485.433	8659.67
485.637	8921.81
485.841	8919.76
486.045	8811.21
486.249	8960.72
486.453	8706.77
486.657	8731.34
486.861	8784.59
487.065	8766.16
487.269	8907.47
487.473	8719.06
487.677	8841.93
487.881	8952.52
488.085	8950.48
488.289	8958.67
488.493	8823.5
488.697	9018.06
488.901	9040.59
489.105	9087.69
489.309	8800.98
489.512	9075.4
489.716	8997.58
489.92	8901.33
490.124	8907.47
490.328	9239.24
490.531	8958.67
490.735	9157.32
490.939	9263.82
491.143	9077.45
491.346	9083.59
491.55	9415.37
491.754	9267.91
491.958	9370.31
492.161	9464.52
492.365	9456.33
492.569	9446.09
492.772	9542.34
492.976	9411.27
493.18	9392.84
493.383	9571.01
493.587	9497.28
493.79	9736.9
493.994	9634.5
494.197	9769.66
494.401	9824.96
494.605	9814.72
494.808	10050.24
495.012	10060.48
495.215	10101.44
495.419	10431.16
495.622	10128.06
495.825	10459.83
496.029	10502.84
496.232	10670.77
496.436	10525.36
496.639	10939.05
496.843	10904.24
497.046	10906.29
497.249	11250.35
497.453	10957.49
497.656	11190.95
497.859	11174.57
498.063	11551.4
498.266	11727.52
498.469	11412.14
498.673	11713.19
498.876	11897.5
499.079	11967.13
499.282	12075.68
499.485	12423.83
499.689	12313.24
499.892	12788.37
500.095	12487.32
500.298	13023.89
500.501	12716.69
500.705	13204.11
500.908	13324.94
501.111	13611.65
501.314	13802.11
501.517	13634.18
501.72	13908.61
501.923	13947.52
502.126	14383.74
502.329	14264.96
502.532	14535.29
502.735	14328.44
502.938	14787.19
503.141	14844.53
503.344	15344.24
503.547	15143.53
503.75	15610.47
503.953	15602.28
504.156	15864.42
504.359	16020.06
504.562	15909.47
504.765	16335.45
504.968	16413.27
505.17	16654.94
505.373	16867.92
505.576	16943.7
505.779	17269.33
505.982	17433.16
506.185	17662.54
506.387	17367.63
506.59	17746.5
506.793	18139.71
506.996	18078.27
507.198	18432.57
507.401	18221.63
507.604	18788.92
507.807	19356.21
508.009	19069.49
508.212	19454.51
508.415	19509.8
508.617	19720.74
508.82	19921.45
509.022	19982.88
509.225	20402.72
509.428	20845.08
509.63	20609.56
509.833	20865.56
510.035	21172.75
510.238	21232.15
510.44	21559.82
510.643	21817.86
510.845	21983.75
511.048	21690.89
511.25	22499.84
511.453	22362.62
511.655	23261.68
511.858	23056.89
512.06	23040.5
512.262	23327.22
512.465	23591.41
512.667	23788.01
512.87	23806.44
513.072	23771.63
513.274	24388.07
513.477	24648.16
513.679	25094.61
513.881	25160.15
514.084	25295.32
514.286	25332.18
514.488	25696.72
514.69	25899.47
514.893	26198.47
515.095	26372.55
515.297	26513.86
515.499	26896.83
515.701	27234.74
515.904	27152.82
516.106	27541.94
516.308	27447.73
516.51	28021.16
516.712	27949.48
516.914	28479.91
517.116	28641.7
517.318	28869.02
517.52	28991.9
517.722	29084.06
517.925	29743.5
518.127	29800.85
518.329	30136.71
518.531	30216.58
518.733	30503.3
518.935	30435.72
519.136	30771.58
519.338	31256.95
519.54	31306.1
519.742	31564.15
519.944	31371.64
520.146	32143.72
520.348	32321.9
520.55	32276.84
520.752	32581.99
520.954	32805.22
521.155	32919.9
521.357	33210.71
521.559	33571.16
521.761	33747.28
521.963	33976.65
522.164	34314.57
522.366	33956.18
522.568	34722.12
522.77	34664.77
522.971	34928.96
523.173	34677.06
523.375	35561.78
523.576	34937.15
523.778	35053.89
523.98	35680.56
524.181	35889.46
524.383	36045.1
524.584	36190.51
524.786	36507.94
524.988	36301.1
525.189	36542.76
525.391	36581.67
525.592	36819.24
525.794	37105.95
525.995	37173.53
526.197	37472.54
526.398	37282.08
526.6	37654.81
526.801	37798.16
527.003	37540.12
527.204	37726.49
527.406	38234.38
527.607	37906.71
527.808	37994.77
528.01	37769.49
528.211	38183.18
528.412	38977.79
528.614	38729.99
528.815	38527.24
529.016	39168.26
529.218	38437.13
529.419	38719.75
529.62	38820.1
529.822	38959.36
530.023	39074.05
530.224	39276.8
530.425	39655.67
530.626	39084.29
530.828	38512.91
531.029	39715.06
531.23	38920.45
531.431	39475.45
531.632	39223.55
531.833	39627
532.035	39680.25
532.236	39538.94
532.437	39811.32
532.638	39272.7
532.839	39985.4
533.04	39792.89
533.241	39276.8
533.442	40243.44
533.643	40237.3
533.844	40083.7
534.045	40046.83
534.246	39481.59
534.447	40079.6
534.648	39784.69
534.849	40149.23
535.05	39444.73
535.251	39782.65
535.451	39872.76
535.652	40075.51
535.853	39829.75
536.054	39950.58
536.255	40108.27
536.456	39323.9
536.657	40364.27
536.857	39891.19
537.058	39538.94
537.259	40343.79
537.46	40134.9
537.66	39586.04
537.861	39796.98
538.062	39823.61
538.263	39946.48
538.463	39956.72
538.664	39692.54
538.865	39809.27
539.065	40022.26
539.266	40026.35
539.466	40497.39
539.667	39520.51
539.868	40059.12
540.068	39649.53
540.269	39694.58
540.469	40052.98
540.67	40034.55
540.87	39577.85
541.071	39432.44
541.271	39878.9
541.472	40222.96
541.672	39612.66
541.873	39725.3
542.073	39219.45
542.274	40399.08
542.474	39866.61
542.675	39647.48
542.875	40147.18
543.075	39586.04
543.276	39170.3
543.476	39807.22
543.676	39395.58
543.877	39975.16
544.077	39926
544.277	39614.71
544.478	39749.88
544.678	40073.46
544.878	39932.15
545.078	39819.51
545.279	39463.16
545.479	39385.34
545.679	39479.55
545.879	39694.58
546.079	39342.33
546.28	39295.23
546.48	39231.74
546.68	39782.65
546.88	39735.54
547.08	39651.58
547.28	39430.4
547.48	39053.57
547.68	39356.67
547.88	39047.43
548.081	39190.78
548.281	39358.72
548.481	39463.16
548.681	39475.45
548.881	39293.18
549.081	39540.99
549.28	39401.72
549.48	39489.79
549.68	39055.62
549.88	40192.24
550.08	38826.24
550.28	39115.01
550.48	39233.79
550.68	39440.64
550.88	38834.44
551.08	39112.96
551.279	39231.74
551.479	38934.79
551.679	39076.1
551.879	39270.65
552.079	39577.85
552.278	38697.22
552.478	38973.7
552.678	39139.58
552.878	39297.28
553.077	38940.93
553.277	38519.05
553.477	39174.4
553.676	38926.6
553.876	38678.79
554.076	38777.09
554.275	38830.34
554.475	38136.08
554.674	39117.06
554.874	38775.05
555.074	38537.48
555.273	38969.6
555.473	38852.87
555.672	38349.07
555.872	38746.37
556.071	38461.71
556.271	38686.98
556.47	38310.16
556.67	38437.13
556.869	38404.36
557.068	38729.99
557.268	38013.2
557.467	38463.75
557.667	38359.31
557.866	38148.37
558.065	38224.14
558.265	38263.05
558.464	38113.55
558.663	38592.78
558.863	37880.08
559.062	38588.68
559.261	37445.91
559.461	38486.28
559.66	37689.62
559.859	38068.5
560.058	37886.23
560.258	37962
560.457	37622.04
560.656	38068.5
560.855	37366.04
561.054	38062.35
561.253	37445.91
561.453	37392.67
561.652	37706.01
561.851	37237.02
562.05	37253.4
562.249	37310.75
562.448	37519.64
562.647	37605.66
562.846	37472.54
563.045	37335.32
563.244	37032.22
563.443	37503.26
563.642	36712.74
563.841	37204.25
564.04	36905.25
564.239	37122.33
564.438	36753.7
564.637	36995.36
564.836	36868.39
565.035	36163.89
565.234	36940.07
565.432	36415.79
565.631	36397.35
565.83	36464.94
566.029	36485.42
566.228	35979.57
566.427	36239.66
566.625	36331.82
566.824	35729.72
567.023	36243.76
567.222	35424.57
567.42	36114.73
567.619	35944.75
567.818	36075.82
568.016	35918.13
568.215	36288.81
568.414	35717.43
568.612	35940.66
568.811	35518.78
569.01	35713.33
569.208	35166.52
569.407	35576.12
569.605	35078.46
569.804	35567.93
570.002	35137.85
570.201	35459.38
570.4	34777.41
570.598	35105.09
570.797	34935.1
570.995	35111.23
571.193	34738.5
571.392	35174.72
571.59	34634.05
571.789	35019.07
571.987	34378.06
572.186	34752.84
572.384	34470.22
572.582	34763.07
572.781	34421.06
572.979	33976.65
573.177	33993.04
573.376	34529.61
573.574	33818.96
573.772	33993.04
573.971	34042.19
574.169	33710.42
574.367	33550.68
574.565	34038.09
574.763	33835.35
574.962	33526.1
575.16	33173.85
575.358	33483.09
575.556	33202.52
575.754	33624.4
575.952	33231.19
576.151	33526.1
576.349	33190.23
576.547	33112.41
576.745	33235.29
576.943	33132.89
577.141	32809.31
577.339	33057.12
577.537	32581.99
577.735	32631.14
577.933	32432.49
578.131	32715.11
578.329	32182.63
578.527	31988.08
578.725	32274.79
578.923	32160.11
579.121	32342.38
579.319	32264.55
579.516	32375.14
579.714	32123.24
579.912	31951.21
580.11	31727.99
580.308	31953.26
580.506	31768.94
580.704	31148.41
580.901	31701.36
581.099	31895.92
581.297	31138.17
581.495	31498.61
581.692	31275.38
581.89	30988.67
582.088	31459.7
582.285	31275.38
582.483	31295.86
582.681	31066.49
582.878	30898.56
583.076	30400.9
583.274	30841.21
583.471	30503.3
583.669	30781.82
583.866	30054.79
584.064	30470.53
584.262	30247.3
584.459	30218.63
584.657	30146.95
584.854	30269.83
585.052	30046.6
585.249	30001.55
585.447	29575.57
585.644	29557.14
585.841	30056.84
586.039	30159.24
586.236	29725.07
586.434	29493.65
586.631	29303.19
586.828	29344.15
587.026	29544.85
587.223	29098.39
587.42	28815.77
587.618	29325.72
587.815	28864.92
588.012	28799.39
588.21	28676.51
588.407	29104.54
588.604	28311.97
588.801	28508.58
588.999	28586.4
589.196	28385.7
589.393	28150.18
589.59	28283.3
589.787	28318.12
589.984	28187.05
590.182	28055.98
590.379	28236.2
590.576	27724.21
590.773	27679.15
590.97	27699.63
591.167	27982.25
591.364	27353.52
591.561	27722.16
591.758	27607.47
591.955	27333.04
592.152	27439.54
592.349	27261.37
592.546	27324.85
592.743	27589.04
592.94	26601.92
593.137	27036.09
593.334	26956.22
593.531	26679.74
593.727	26843.58
593.924	26835.39
594.121	26436.03
594.318	26417.6
594.515	26235.33
594.712	26567.1
594.908	26139.08
595.105	26626.5
595.302	26264
595.499	26337.73
595.696	25868.75
595.892	25731.53
596.089	26153.41
596.286	25399.76
596.482	25979.34
596.679	25973.19
596.876	25952.71
597.072	25231.83
597.269	25287.12
597.466	25475.54
597.662	25227.73
597.859	25268.69
598.055	25123.29
598.252	25098.71
598.448	25086.42
598.645	24938.97
598.841	25065.94
599.038	24938.97
599.234	25074.13
599.431	24445.41
599.627	24590.81
599.824	24822.23
600.02	24246.76
600.217	24232.42
600.413	24179.17
600.609	24019.43
600.806	24003.05
601.002	24259.04
601.198	23663.08
601.395	23945.7
601.591	23673.32
601.787	24209.89
601.984	23699.95
602.18	24003.05
602.376	23247.35
602.572	23615.98
602.769	23359.98
602.965	23226.87
603.161	23486.96
603.357	23038.45
603.553	23280.11
603.75	23261.68
603.946	22952.44
604.142	23491.05
604.338	22727.16
604.534	23013.88
604.73	22837.75
604.926	22569.47
605.122	22952.44
605.318	22551.04
605.514	22057.48
605.71	22233.6
605.906	22190.59
606.102	22411.78
606.298	22544.89
606.494	22135.3
606.69	22043.14
606.886	22458.88
607.082	21834.25
607.278	22278.66
607.474	21535.24
607.67	22037
607.866	21608.97
608.062	22133.25
608.257	21828.1
608.453	21844.49
608.649	21639.69
608.845	21549.58
609.041	21608.97
609.236	21654.03
609.432	21463.57
609.628	21596.68
609.824	21484.05
610.019	21297.68
610.215	21627.4
610.411	21383.7
610.606	21070.36
610.802	21133.84
610.998	20961.81
611.193	21377.55
611.389	21148.18
611.584	20830.74
611.78	20990.49
611.976	21027.35
612.171	21035.54
612.367	20804.12
612.562	20828.7
612.758	20326.94
612.953	20511.26
613.149	20853.27
613.344	20455.97
613.539	20744.73
613.735	20412.96
613.93	20720.15
614.126	20447.77
614.321	20388.38
614.517	20398.62
614.712	20433.44
614.907	20322.85
615.103	20509.21
615.298	20238.88
615.493	20437.53
615.688	19952.16
615.884	20367.9
616.079	20077.09
616.274	20453.92
616.47	20091.43
616.665	20036.13
616.86	20019.75
617.055	20070.95
617.25	19806.76
617.445	19968.55
617.641	19452.46
617.836	19913.25
618.031	19841.57
618.226	19728.94
618.421	19589.67
618.616	19939.88
618.811	19259.95
619.006	19829.29
619.201	19225.14
619.396	19331.63
619.591	18963
619.786	19135.03
619.981	18666.04
620.176	19055.15
620.371	18752.06
620.566	18891.32
620.761	18700.86
620.956	18821.69
621.151	18229.82
621.346	18879.03
621.541	18467.39
621.735	18657.85
621.93	18113.09
622.125	18348.61
622.32	18076.23
622.515	18217.54
622.709	17814.09
622.904	18033.22
623.099	17572.43
623.294	17750.6
623.488	17496.65
623.683	17644.1
623.878	17498.7
624.072	17361.48
624.267	17267.28
624.462	17042
624.656	17119.82
624.851	17068.62
625.046	16912.98
625.24	16904.79
625.435	16628.31
625.629	16814.68
625.824	16489.05
626.018	16128.61
626.213	16007.78
626.407	16224.86
626.602	15985.25
626.796	16015.97
626.991	16296.54
627.185	15975.01
627.38	15594.09
627.574	15876.71
627.768	15864.42
627.963	15497.83
628.157	15508.07
628.352	15364.71
628.546	15256.17
628.74	15518.31
628.935	15063.66
629.129	15118.96
629.323	14973.55
629.517	14791.28
629.712	15104.62
629.906	14963.31
630.1	14682.74
630.294	14627.45
630.489	14467.7
630.683	14326.39
630.877	14482.04
631.071	14260.86
631.265	14389.88
631.459	14191.23
631.653	14111.36
631.848	14129.79
632.042	14004.86
632.236	14000.77
632.43	13722.24
632.624	13718.15
632.818	13503.11
633.012	13433.48
633.206	13496.97
633.4	13638.28
633.594	13159.05
633.788	13331.08
633.982	13355.66
634.176	13042.32
634.369	12948.11
634.563	13011.6
634.757	12812.95
634.951	12858
635.145	12946.06
635.339	12714.64
635.533	12855.95
635.726	12552.85
635.92	12487.32
636.114	12282.52
636.308	12528.28
636.501	12247.71
636.695	12489.37
636.889	12092.06
637.083	12044.96
637.276	12026.53
637.47	12167.84
637.664	11965.09
637.857	12079.77
638.051	11907.74
638.244	11805.35
638.438	11637.41
638.632	11743.91
638.825	11676.32
639.019	11584.16
639.212	11424.42
639.406	11489.96
639.599	11358.89
639.793	11307.69
639.986	11190.95
640.18	11270.83
640.373	11119.28
640.567	11162.28
640.76	11063.98
640.954	10900.14
641.147	10822.32
641.34	10855.09
641.534	10914.48
641.727	10740.4
641.92	10842.8
642.114	10617.52
642.307	10640.05
642.5	10502.84
642.694	10371.77
642.887	10252.98
643.08	10416.82
643.273	10228.41
643.467	10154.68
643.66	10191.55
643.853	10111.68
644.046	10027.71
644.239	10255.03
644.432	10056.38
644.626	9822.91
644.819	9925.31
645.012	9704.13
645.205	9939.65
645.398	9777.86
645.591	9515.72
645.784	9749.18
645.977	9556.68
646.17	9669.31
646.363	9263.82
646.556	9456.33
646.749	9376.45
646.942	9194.19
647.135	9265.86
647.328	9349.83
647.521	9188.04
647.714	9077.45
647.907	9091.79
648.099	8917.71
648.292	8989.39
648.485	9038.54
648.678	8757.97
648.871	8843.98
649.064	8753.87
649.256	8751.82
649.449	8710.86
649.642	8776.4
649.835	8794.83
650.027	8424.15
650.22	8448.72
650.413	8469.2
650.605	8448.72
650.798	8317.65
650.991	8325.85
651.183	8256.22
651.376	8248.02
651.568	8102.62
651.761	8205.02
651.954	8174.3
652.146	8125.15
652.339	8037.08
652.531	8002.27
652.724	7858.91
652.916	7820
653.109	7877.34
653.301	7807.71
653.494	7789.28
653.686	7678.69
653.879	7772.89
654.071	7693.02
654.263	7486.18
654.456	7516.9
654.648	7602.91
654.84	7324.39
655.033	7527.14
655.225	7293.67
655.417	7203.56
655.61	7340.77
655.802	7189.22
655.994	7258.85
656.186	7103.21
656.379	7283.43
656.571	7049.96
656.763	6976.23
656.955	7033.58
657.148	6853.36
657.34	7056.11
657.532	6877.93
657.724	6724.33
657.916	6869.74
658.108	6720.24
658.3	6726.38
658.492	6695.66
658.684	6683.38
658.876	6652.66
659.068	6687.47
659.26	6587.12
659.452	6554.35
659.644	6462.19
659.836	6408.95
660.028	6576.88
660.22	6335.22
660.412	6466.29
660.604	6245.11
660.796	6423.28
660.988	6441.72
661.18	6238.97
661.372	6320.88
661.563	6210.29
661.755	6146.81
661.947	6109.94
662.139	5970.68
662.331	6167.29
662.522	5931.77
662.714	6079.22
662.906	6001.4
663.097	5868.28
663.289	5786.37
663.481	5868.28
663.673	6011.64
663.864	5743.36
664.056	5815.04
664.247	5696.25
664.439	5622.53
664.631	5608.19
664.822	5708.54
665.014	5864.19
665.205	5757.69
665.397	5571.33
665.588	5501.7
665.78	5399.3
665.971	5483.27
666.163	5380.87
666.354	5368.58
666.546	5462.79
666.737	5303.04
666.929	5460.74
667.12	5298.95
667.311	5198.6
667.503	5233.41
667.694	5200.65
667.885	5217.03
668.077	5198.6
668.268	4961.03
668.459	5157.64
668.651	5079.82
668.842	5161.73
669.033	4840.2
669.224	5057.29
669.416	5063.43
669.607	4979.47
669.798	4926.22
669.989	5051.14
670.18	4991.75
670.371	4852.49
670.563	4782.86
670.754	4868.88
670.945	4809.48
671.136	4842.25
671.327	4659.98
671.518	4709.13
671.709	4881.16
671.9	4750.09
672.091	4780.81
672.282	4623.12
672.473	4723.47
672.664	4653.84
672.855	4590.35
673.046	4553.49
673.237	4684.56
673.428	4496.14
673.619	4457.23
673.809	4573.97
674	4328.21
674.191	4451.09
674.382	4389.65
674.573	4451.09
674.764	4412.18
674.954	4379.41
675.145	4356.88
675.336	4283.16
675.527	4440.85
675.717	4397.84
675.908	4281.11
676.099	4311.83
676.289	4317.97
676.48	4340.5
676.671	4262.68
676.861	4387.6
677.052	4240.15
677.243	4295.44
677.433	4180.76
677.624	4268.82
677.814	4234
678.005	4188.95
678.195	4092.69
678.386	4207.38
678.576	4080.41
678.767	4094.74
678.957	4139.8
679.148	4129.56
679.338	3932.95
679.529	4137.75
679.719	3990.3
679.909	4127.51
680.1	4141.85
680.29	4068.12
680.481	3887.9
680.671	3996.44
680.861	4033.3
681.052	4137.75
681.242	3986.2
681.432	4098.84
681.622	3975.96
681.813	3883.8
682.003	4129.56
682.193	4064.02
682.383	3965.72
682.573	4014.87
682.764	3881.75
682.954	3975.96
683.144	3801.88
683.334	3887.9
683.524	3826.46
683.714	3916.57
683.904	3889.95
684.094	3838.75
684.284	3867.42
684.474	3967.77
684.664	3840.79
684.854	3848.99
685.044	3750.68
685.234	3672.86
685.424	3654.43
685.614	3754.78
685.804	3717.92
685.994	3689.25
686.184	3609.37
686.374	3586.85
686.564	3531.55
686.753	3713.82
686.943	3580.7
687.133	3670.81
687.323	3539.74
687.513	3650.33
687.702	3554.08
687.892	3523.36
688.082	3513.12
688.272	3568.41
688.461	3445.54
688.651	3492.64
688.841	3386.15
689.03	3447.58
689.22	3423.01
689.41	3416.87
689.599	3490.59
689.789	3435.3
689.979	3388.19
690.168	3361.57
690.358	3330.85
690.547	3357.47
690.737	3236.64
690.926	3343.14
691.116	3232.55
691.305	3359.52
691.495	3154.73
691.684	3218.21
691.874	3138.34
692.063	3089.19
692.252	3175.2
692.442	3293.99
692.631	3089.19
692.82	3212.07
693.01	3140.39
693.199	3056.42
693.388	3117.86
693.578	3040.04
693.767	3142.44
693.956	2994.98
694.146	2792.23
694.335	3062.57
694.524	3054.37
694.713	2951.98
694.902	3050.28
695.092	3058.47
695.281	3037.99
695.47	2911.02
695.659	2902.83
695.848	2884.39
696.037	2884.39
696.226	2958.12
696.415	2833.19
696.604	2855.72
696.793	2874.15
696.982	2726.7
697.171	2890.54
697.36	2911.02
697.549	2784.04
697.738	2718.51
697.927	2816.81
698.116	2564.91
698.305	2720.56
698.494	2804.52
698.683	2659.12
698.872	2702.12
699.061	2738.99
699.25	2681.64
699.438	2726.7
699.627	2720.56
699.816	2732.84
700.005	2669.36
700.193	2597.68
700.382	2669.36
700.571	2601.77
700.76	2634.54
700.948	2677.55
701.137	2585.39
701.326	2472.75
701.514	2616.11
701.703	2558.77
701.892	2587.44
702.08	2577.2
702.269	2616.11
702.457	2526
702.646	2468.66
702.834	2472.75
703.023	2442.03
703.212	2542.38
703.4	2472.75
703.589	2491.18
703.777	2542.38
703.965	2472.75
704.154	2444.08
704.342	2433.84
704.531	2462.51
704.719	2439.98
704.907	2493.23
705.096	2304.82
705.284	2544.43
705.472	2579.25
705.661	2392.88
705.849	2425.65
706.037	2464.56
706.226	2388.78
706.414	2476.85
706.602	2335.54
706.79	2399.02
706.979	2306.87
707.167	2448.18
707.355	2466.61
707.543	2425.65
707.731	2392.88
707.919	2401.07
708.107	2358.07
708.296	2272.05
708.484	2267.95
708.672	2302.77
708.86	2317.11
709.048	2280.24
709.236	2376.5
709.424	2419.5
709.612	2384.69
709.8	2216.76
709.988	2337.59
710.176	2466.61
710.364	2321.2
710.551	2448.18
710.739	2468.66
710.927	2386.74
711.115	2247.48
711.303	2351.92
711.491	2362.16
711.679	2349.87
711.866	2292.53
712.054	2325.3
712.242	2241.33
712.43	2325.3
712.617	2294.58
712.805	2319.15
712.993	2390.83
713.181	2378.55
713.368	2319.15
713.556	2306.87
713.744	2280.24
713.931	2313.01
714.119	2388.78
714.306	2247.48
714.494	2288.43
714.682	2315.06
714.869	2270
715.057	2270
715.244	2290.48
715.432	2450.22
715.619	2323.25
715.807	2181.94
715.994	2370.35
716.182	2315.06
716.369	2372.4
716.556	2304.82
716.744	2247.48
716.931	2308.91
717.119	2341.68
717.306	2280.24
717.493	2270
717.681	2394.93
717.868	2265.91
718.055	2313.01
718.242	2218.8
718.43	2227
718.617	2308.91
718.804	2265.91
718.991	2396.98
719.179	2302.77
719.366	2310.96
719.553	2329.39
719.74	2257.71
719.927	2327.35
720.114	2227
720.301	2259.76
720.488	2304.82
720.676	2212.66
720.863	2356.02
721.05	2304.82
721.237	2263.86
721.424	2390.83
721.611	2218.8
721.798	2345.78
721.985	2212.66
722.172	2345.78
722.358	2216.76
722.545	2349.87
722.732	2323.25
722.919	2255.67
723.106	2294.58
723.293	2317.11
723.48	2282.29
723.667	2255.67
723.853	2337.59
724.04	2173.75
724.227	2263.86
724.414	2147.12
724.6	2292.53
724.787	2382.64
724.974	2274.1
725.161	2241.33
725.347	2321.2
725.534	2388.78
725.72	2333.49
725.907	2204.47
726.094	2378.55
726.28	2278.19
726.467	2286.39
726.653	2239.28
726.84	2255.67
727.027	2317.11
727.213	2222.9
727.4	2310.96
727.586	2241.33
727.773	2261.81
727.959	2259.76
728.145	2317.11
728.332	2251.57
728.518	2276.15
728.705	2313.01
728.891	2186.04
729.077	2288.43
729.264	2212.66
729.45	2253.62
729.636	2192.18
729.823	2259.76
730.009	2235.19
730.195	2259.76
730.382	2206.52
730.568	2229.04
730.754	2386.74
730.94	2370.35
731.126	2251.57
731.313	2374.45
731.499	2315.06
731.685	2222.9
731.871	2247.48
732.057	2343.73
732.243	2255.67
732.429	2349.87
732.615	2317.11
732.801	2270
732.987	2247.48
733.173	2235.19
733.359	2265.91
733.545	2173.75
733.731	2173.75
733.917	2308.91
734.103	2304.82
734.289	2263.86
734.475	2249.52
734.661	2349.87
734.847	2239.28
735.033	2263.86
735.219	2265.91
735.404	2259.76
735.59	2231.09
735.776	2257.71
735.962	2339.63
736.148	2280.24
736.333	2288.43
736.519	2124.6
736.705	2212.66
736.89	2208.56
737.076	2237.24
737.262	2171.7
737.447	2231.09
737.633	2282.29
737.819	2274.1
738.004	2222.9
738.19	2100.02
738.375	2143.03
738.561	2149.17
738.747	2181.94
738.932	2239.28
739.118	2143.03
739.303	2253.62
739.489	2253.62
739.674	2106.17
739.859	2130.74
740.045	2194.23
740.23	2227
740.416	1966.9
740.601	2122.55
740.786	2112.31
740.972	2061.11
741.157	2128.69
741.342	2114.36
741.528	2100.02
741.713	2059.06
741.898	1952.57
742.084	2040.63
742.269	2044.73
742.454	2005.81
742.639	2001.72
742.824	1930.04
743.01	2071.35
743.195	2065.21
743.38	2079.54
743.565	1993.53
743.75	1977.14
743.935	1899.32
744.12	2061.11
744.305	1884.98
744.49	1989.43
744.675	1811.26
744.86	2032.44
745.045	1944.38
745.23	1950.52
745.415	1915.7
745.6	1940.28
745.785	1823.55
745.97	1870.65
746.155	1817.4
746.34	1895.22
746.525	1829.69
746.71	1893.18
746.895	1905.46
747.079	1854.27
747.264	1731.39
747.449	1811.26
747.634	1768.25
747.819	1831.74
748.003	1755.96
748.188	1747.77
748.373	1801.02
748.557	1665.85
748.742	1739.58
748.927	1690.43
749.111	1657.66
749.296	1643.32
749.481	1764.15
749.665	1561.41
749.85	1686.33
750.034	1655.61
750.219	1663.8
750.404	1661.76
750.588	1692.48
750.773	1579.84
750.957	1565.5
751.141	1669.95
751.326	1569.6
751.51	1542.97
751.695	1514.3
751.879	1518.4
752.064	1555.26
752.248	1536.83
752.432	1493.82
752.617	1409.86
752.801	1514.3
752.985	1485.63
753.17	1497.92
753.354	1422.14
753.538	1477.44
753.722	1497.92
753.907	1477.44
754.091	1372.99
754.275	1346.37
754.459	1338.18
754.643	1440.58
754.828	1432.38
755.012	1354.56
755.196	1372.99
755.38	1379.14
755.564	1368.9
755.748	1272.64
755.932	1395.52
756.116	1315.65
756.3	1350.46
756.484	1227.59
756.668	1280.83
756.852	1211.2
757.036	1319.75
757.22	1198.92
757.404	1278.79
757.588	1258.31
757.772	1229.63
757.956	1239.87
758.14	1149.76
758.323	1207.11
758.507	1186.63
758.691	1239.87
758.875	1110.85
759.059	1135.43
759.242	1174.34
759.426	1215.3
759.61	1239.87
759.794	1186.63
759.977	1162.05
760.161	1157.96
760.345	1149.76
760.528	1198.92
760.712	1174.34
760.895	1098.56
761.079	1164.1
761.263	1117
761.446	1051.46
761.63	1149.76
761.813	1182.53
761.997	1073.99
762.18	1065.8
762.364	1006.41
762.547	1028.93
762.731	1166.15
762.914	1051.46
763.098	1071.94
763.281	1080.13
763.464	1125.19
763.648	1012.55
763.831	1082.18
764.015	1006.41
764.198	1012.55
764.381	949.06
764.564	1016.65
764.748	1098.56
764.931	1037.13
765.114	944.97
765.297	961.35
765.481	975.69
765.664	932.68
765.847	1024.84
766.03	924.49
766.213	912.2
766.397	1037.13
766.58	953.16
766.763	1028.93
766.946	932.68
767.129	830.28
767.312	949.06
767.495	885.58
767.678	953.16
767.861	895.82
768.044	944.97
768.227	949.06
768.41	942.92
768.593	891.72
768.776	906.06
768.959	899.91
769.142	926.54
769.324	842.57
769.507	975.69
769.69	856.9
769.873	838.47
770.056	891.72
770.239	912.2
770.421	928.58
770.604	817.99
770.787	817.99
770.97	863.05
771.152	893.77
771.335	912.2
771.518	881.48
771.7	922.44
771.883	824.14
772.066	801.61
772.248	850.76
772.431	834.38
772.613	813.9
772.796	809.8
772.978	781.13
773.161	832.33
773.343	854.86
773.526	723.79
773.708	813.9
773.891	809.8
774.073	740.17
774.256	695.11
774.438	793.42
774.621	783.18
774.803	738.12
774.985	701.26
775.168	846.66
775.35	711.5
775.532	721.74
775.715	760.65
775.897	820.04
776.079	639.82
776.261	764.75
776.444	762.7
776.626	691.02
776.808	662.35
776.99	713.55
777.173	764.75
777.355	666.44
777.537	641.87
777.719	686.92
777.901	658.25
778.083	758.6
778.265	643.92
778.447	678.73
778.629	654.16
778.811	674.64
778.993	670.54
779.175	631.63
779.357	590.67
779.539	574.28
779.721	617.29
779.903	686.92
780.085	674.64
780.267	590.67
780.449	562
780.631	596.81
780.812	615.24
780.994	570.19
781.176	566.09
781.358	621.39
781.54	512.85
781.721	582.48
781.903	518.99
782.085	541.52
782.267	553.8
782.448	611.15
782.63	510.8
782.812	521.04
782.993	473.93
783.175	441.17
783.357	418.64
783.538	555.85
783.72	428.88
783.901	475.98
784.083	504.65
784.264	426.83
784.446	469.84
784.627	441.17
784.809	437.07
784.99	465.74
785.172	584.52
785.353	508.75
785.535	387.92
785.716	385.87
785.897	445.26
786.079	453.45
786.26	459.6
786.441	392.02
786.623	408.4
786.804	437.07
786.985	492.37
787.167	412.5
787.348	430.93
787.529	430.93
787.71	490.32
787.891	473.93
788.073	435.02
788.254	361.3
788.435	510.8
788.616	424.78
788.797	426.83
788.978	441.17
789.159	396.11
789.34	371.54
789.522	377.68
789.703	373.58
789.884	389.97
790.065	480.08
790.246	379.73
790.427	275.28
790.607	351.06
790.788	342.86
790.969	346.96
791.15	342.86
791.331	344.91
791.512	328.53
791.693	365.39
791.874	340.82
792.054	369.49
792.235	383.82
792.416	306
792.597	351.06
792.778	328.53
792.958	418.64
793.139	355.15
793.32	346.96
793.5	287.57
793.681	301.9
793.862	326.48
794.042	353.1
794.223	303.95
794.404	275.28
794.584	254.8
794.765	273.23
794.945	297.81
795.126	351.06
795.306	269.14
795.487	324.43
795.667	320.34
795.848	346.96
796.028	207.7
796.209	303.95
796.389	240.47
796.57	228.18
796.75	308.05
796.93	299.86
797.111	273.23
797.291	297.81
797.471	209.75
797.652	310.1
797.832	289.62
798.012	328.53
798.192	277.33
798.373	189.27
798.553	314.19
798.733	326.48
798.913	222.03
799.093	262.99
799.274	215.89
799.454	269.14
799.634	224.08
799.814	287.57
799.994	295.76
800.174	310.1
800.354	297.81
800.534	187.22
800.714	252.75
800.894	203.6
801.074	166.74
801.254	310.1
801.434	273.23
801.614	267.09
801.794	289.62
801.974	629.58
802.154	279.38
802.334	244.56
802.514	170.83
802.693	248.66
802.873	215.89
803.053	224.08
803.233	260.95
803.413	283.47
803.592	185.17
803.772	144.21
803.952	183.12
804.131	256.85
804.311	142.16
804.491	224.08
804.67	162.64
804.85	195.41
805.03	228.18
805.209	209.75
805.389	209.75
805.568	164.69
805.748	160.59
805.928	179.03
806.107	244.56
806.287	236.37
806.466	211.79
806.646	164.69
806.825	158.55
807.004	201.55
807.184	203.6
807.363	232.27
807.543	224.08
807.722	131.92
807.901	146.26
808.081	168.79
808.26	154.45
808.439	95.06
808.619	232.27
808.798	152.4
808.977	193.36
809.156	213.84
809.336	129.88
809.515	201.55
809.694	156.5
809.873	187.22
810.052	246.61
810.231	127.83
810.411	164.69
810.59	258.9
810.769	170.83
810.948	215.89
811.127	158.55
811.306	133.97
811.485	166.74
811.664	138.07
811.843	193.36
812.022	166.74
812.201	127.83
812.38	172.88
812.559	154.45
812.737	162.64
812.916	131.92
813.095	174.93
813.274	164.69
813.453	160.59
813.632	152.4
813.811	131.92
813.989	133.97
814.168	109.4
814.347	199.51
814.526	230.23
814.704	162.64
814.883	158.55
815.062	101.2
815.24	76.63
815.419	97.11
815.598	170.83
815.776	121.68
815.955	146.26
816.133	121.68
816.312	144.21
816.49	125.78
816.669	168.79
816.847	156.5
817.026	131.92
817.204	138.07
817.383	123.73
817.561	109.4
817.74	121.68
817.918	195.41
818.097	156.5
818.275	117.59
818.453	193.36
818.632	123.73
818.81	168.79
818.988	107.35
819.167	142.16
819.345	172.88
819.523	144.21
819.701	64.34
819.879	117.59
820.058	113.49
820.236	156.5
820.414	125.78
820.592	117.59
820.77	82.77
820.948	76.63
821.127	172.88
821.305	211.79
821.483	64.34
821.661	154.45
821.839	86.87
822.017	84.82
822.195	90.96
822.373	142.16
822.551	172.88
822.729	181.07
822.907	158.55
823.085	113.49
823.262	109.4
823.44	115.54
823.618	115.54
823.796	193.36
823.974	62.29
824.152	25.43
824.329	76.63
824.507	52.05
824.685	152.4
824.863	97.11
825.04	115.54
825.218	82.77
825.396	50
825.574	162.64
825.751	84.82
825.929	123.73
826.107	54.1
826.284	119.64
826.462	109.4
826.639	99.16
826.817	78.68
826.994	60.24
827.172	117.59
827.349	82.77
827.527	62.29
827.704	103.25
827.882	60.24
828.059	144.21
828.237	54.1
828.414	97.11
828.591	76.63
828.769	136.02
828.946	43.86
829.124	86.87
829.301	111.44
829.478	80.72
829.655	64.34
829.833	101.2
830.01	93.01
830.187	107.35
830.364	103.25
830.542	111.44
830.719	17.24
830.896	56.15
831.073	97.11
831.25	78.68
831.427	45.91
831.604	54.1
831.782	68.44
831.959	82.77
832.136	41.81
832.313	45.91
832.49	54.1
832.667	41.81
832.844	56.15
833.021	58.2
833.198	82.77
833.374	68.44
833.551	179.03
833.728	142.16
833.905	45.91
834.082	35.67
834.259	41.81
834.436	54.1
834.612	109.4
834.789	105.3
834.966	113.49
835.143	140.12
835.319	-38.06
835.496	31.57
835.673	119.64
835.85	99.16
836.026	93.01
836.203	2.9
836.38	60.24
836.556	52.05
836.733	11.09
836.909	131.92
837.086	74.58
837.262	113.49
837.439	56.15
837.616	4.95
837.792	11.09
837.968	99.16
838.145	121.68
838.321	31.57
838.498	113.49
838.674	13.14
838.851	50
839.027	33.62
839.203	27.48
839.38	54.1
839.556	72.53
839.732	68.44
839.909	54.1
840.085	41.81
840.261	-1.19
840.437	39.76
840.614	52.05
840.79	33.62
840.966	21.33
841.142	52.05
841.318	62.29
841.494	84.82
841.671	52.05
841.847	88.92
842.023	13.14
842.199	58.2
842.375	35.67
842.551	35.67
842.727	-9.39
842.903	43.86
843.079	7
843.255	82.77
843.431	68.44
843.607	80.72
843.783	2.9
843.959	54.1
844.134	64.34
844.31	19.29
844.486	72.53
844.662	90.96
844.838	74.58
845.013	125.78
845.189	19.29
845.365	23.38
845.541	29.52
845.716	82.77
845.892	66.39
846.068	31.57
846.244	52.05
846.419	109.4
846.595	43.86
846.77	0.85
846.946	37.72
847.122	45.91
847.297	2.9
847.473	62.29
847.648	-9.39
847.824	-33.96
847.999	72.53
848.175	76.63
848.35	27.48
848.526	82.77
848.701	121.68
848.876	113.49
849.052	68.44
849.227	-21.67
849.403	43.86
849.578	27.48
849.753	-15.53
849.929	56.15
850.104	4.95
850.279	25.43
850.454	7
850.63	15.19
850.805	76.63
850.98	41.81
851.155	13.14
851.33	107.35
851.505	47.96
851.681	119.64
851.856	52.05
852.031	29.52
852.206	84.82
852.381	56.15
852.556	58.2
852.731	41.81
852.906	68.44
853.081	27.48
853.256	68.44
853.431	27.48
853.606	-17.58
853.781	76.63
853.956	47.96
854.131	-5.29
854.305	-36.01
854.48	58.2
854.655	31.57
854.83	-1.19
855.005	-66.73
855.18	-7.34
855.354	47.96
855.529	29.52
855.704	-13.48
855.879	39.76
856.053	4.95
856.228	-29.87
856.403	-21.67
856.577	-17.58
856.752	9.05
856.926	-5.29
857.101	37.72
857.276	-9.39
857.45	50
857.625	66.39
857.799	-56.49
857.974	43.86
858.148	54.1
858.323	80.72
858.497	27.48
858.672	76.63
858.846	-54.44
859.02	99.16
859.195	21.33
859.369	47.96
859.543	45.91
859.718	37.72
859.892	-23.72
860.066	52.05
860.241	47.96
860.415	25.43
860.589	39.76
860.763	84.82
860.938	72.53
861.112	29.52
861.286	-54.44
861.46	-36.01
861.634	9.05
861.808	35.67
861.982	19.29
862.157	70.48
862.331	11.09
862.505	23.38
862.679	27.48
862.853	-21.67
863.027	50
863.201	76.63
863.375	52.05
863.549	41.81
863.722	45.91
863.896	50
864.07	-46.25
864.244	72.53
864.418	-3.24
864.592	7
864.766	23.38
864.939	2.9
865.113	0.85
865.287	56.15
865.461	0.85
865.634	43.86
865.808	23.38
865.982	-23.72
866.156	19.29
866.329	-27.82
866.503	33.62
866.676	41.81
866.85	15.19
867.024	39.76
867.197	33.62
867.371	39.76
867.544	9.05
867.718	-33.96
867.891	31.57
868.065	35.67
868.238	25.43
868.412	25.43
868.585	-27.82
868.759	-58.54
868.932	66.39
869.105	-83.11
869.279	-5.29
869.452	-54.44
869.625	19.29
869.799	-9.39
869.972	23.38
870.145	-25.77
870.319	74.58
870.492	-19.63
870.665	-15.53
870.838	29.52
871.011	37.72
871.185	35.67
871.358	7
871.531	7
871.704	-17.58
871.877	41.81
872.05	-54.44
872.223	-23.72
872.396	111.44
872.569	23.38
872.742	4.95
872.915	-21.67
873.088	60.24
873.261	25.43
873.434	33.62
873.607	-27.82
873.78	62.29
873.953	-3.24
874.126	25.43
874.299	-29.87
874.471	66.39
874.644	-21.67
874.817	9.05
874.99	0.85
875.163	-19.63
875.335	-33.96
875.508	-40.11
875.681	13.14
875.853	11.09
876.026	-31.91
876.199	64.34
876.371	43.86
876.544	17.24
876.717	-3.24
876.889	2.9
877.062	2.9
877.234	17.24
877.407	15.19
877.579	-36.01
877.752	56.15
877.924	35.67
878.097	17.24
878.269	88.92
878.442	45.91
878.614	2.9
878.786	2.9
878.959	13.14
879.131	15.19
879.303	-42.15
879.476	15.19
879.648	-44.2
879.82	74.58
879.993	43.86
880.165	-36.01
880.337	-9.39
880.509	9.05
880.681	35.67
880.854	45.91
881.026	-15.53
881.198	56.15
881.37	15.19
881.542	23.38
881.714	2.9
881.886	11.09
882.058	-17.58
882.23	35.67
882.402	-17.58
882.574	2.9
882.746	-52.39
882.918	-29.87
883.09	-21.67
883.262	-23.72
883.434	31.57
883.606	15.19
883.778	25.43
883.95	41.81
884.122	4.95
884.293	19.29
884.465	-19.63
884.637	-11.43
884.809	4.95
884.98	9.05
885.152	-1.19
885.324	-23.72
885.496	-40.11
885.667	-27.82
885.839	31.57
886.011	60.24
886.182	-38.06
886.354	-5.29
886.525	-21.67
886.697	19.29
886.869	15.19
887.04	9.05
887.212	0.85
887.383	-3.24
887.555	7
887.726	-25.77
887.897	2.9
888.069	-21.67
888.24	43.86
888.412	7
888.583	-9.39
888.754	146.26
888.926	-38.06
889.097	-5.29
889.268	-83.11
889.44	54.1
889.611	-21.67
889.782	0.85
889.953	21.33
890.125	13.14
890.296	17.24
890.467	-38.06
890.638	-46.25
890.809	-3.24
890.98	62.29
891.151	66.39
891.323	-9.39
891.494	50
891.665	4.95
891.836	13.14
892.007	9.05
892.178	-11.43
892.349	-21.67
892.52	-46.25
892.691	41.81
892.862	-17.58
893.032	-46.25
893.203	13.14
893.374	-13.48
893.545	105.3
893.716	-31.91
893.887	52.05
894.057	0.85
894.228	25.43
894.399	-17.58
894.57	68.44
894.74	-25.77
894.911	47.96
895.082	-27.82
895.253	35.67
895.423	52.05
895.594	21.33
895.764	23.38
895.935	37.72
896.106	37.72
896.276	7
896.447	-36.01
896.617	-72.87
896.788	-21.67
896.958	-13.48
897.129	0.85
897.299	33.62
897.47	-13.48
897.64	31.57
897.81	-9.39
897.981	80.72
898.151	-40.11
898.322	39.76
898.492	15.19
898.662	15.19
898.832	-13.48
899.003	-19.63
899.173	-25.77
899.343	-5.29
899.513	-1.19
