Data from USB4F104151__91__11-37-55-517.txt Node

Date: Fri Mar 14 11:37:55 EDT 2025
User: louis
Spectrometer: USB4F10415
Trigger mode: 4
Integration Time (sec): 2.000000E-2
Scans to average: 1
Electric dark correction enabled: true
Nonlinearity correction enabled: false
Boxcar width: 0
XAxis mode: Wavelengths
Number of Pixels in Spectrum: 3648
>>>>>Begin Spectral Data<<<<<
178.204	-96.43
178.424	-96.43
178.644	-96.43
178.864	-88.23
179.084	-30.89
179.304	-34.99
179.524	8.02
179.744	-116.9
179.964	-10.41
180.184	-51.37
180.404	3.93
180.624	-32.94
180.844	44.88
181.064	32.6
181.283	-39.08
181.503	77.65
181.723	118.61
181.943	55.12
182.163	65.36
182.383	91.99
182.602	12.12
182.822	69.46
183.042	-20.65
183.262	18.26
183.482	36.69
183.701	-37.03
183.921	40.79
184.141	-41.13
184.361	63.32
184.58	-18.6
184.8	40.79
185.02	24.4
185.239	22.36
185.459	38.74
185.679	-43.18
185.898	34.64
186.118	24.4
186.338	67.41
186.557	26.45
186.777	-16.55
186.997	16.21
187.216	48.98
187.436	71.51
187.655	-14.51
187.875	48.98
188.095	-8.36
188.314	59.22
188.534	46.93
188.753	-12.46
188.973	5.97
189.192	79.7
189.412	34.64
189.631	79.7
189.851	-22.7
190.07	65.36
190.29	-92.33
190.509	-59.56
190.729	-73.9
190.948	26.45
191.168	128.85
191.387	10.07
191.607	20.31
191.826	-18.6
192.045	24.4
192.265	-24.75
192.484	-4.27
192.704	-8.36
192.923	-34.99
193.142	42.84
193.362	44.88
193.581	14.17
193.8	81.75
194.02	3.93
194.239	-24.75
194.458	57.17
194.678	1.88
194.897	-24.75
195.116	22.36
195.335	16.21
195.555	67.41
195.774	32.6
195.993	26.45
196.212	102.23
196.432	40.79
196.651	1.88
196.87	14.17
197.089	67.41
197.308	69.46
197.528	-12.46
197.747	3.93
197.966	-14.51
198.185	34.64
198.404	1.88
198.623	-4.27
198.842	71.51
199.062	53.08
199.281	22.36
199.5	10.07
199.719	-39.08
199.938	46.93
200.157	61.27
200.376	-24.75
200.595	55.12
200.814	42.84
201.033	-4.27
201.252	53.08
201.471	42.84
201.69	94.04
201.909	61.27
202.128	-37.03
202.347	-10.41
202.566	46.93
202.785	96.08
203.004	12.12
203.223	36.69
203.442	-30.89
203.661	24.4
203.879	-8.36
204.098	44.88
204.317	12.12
204.536	-16.55
204.755	44.88
204.974	-20.65
205.193	-41.13
205.411	75.6
205.63	5.97
205.849	-6.31
206.068	16.21
206.287	-26.79
206.505	132.95
206.724	57.17
206.943	38.74
207.162	-10.41
207.381	59.22
207.599	-77.99
207.818	10.07
208.037	94.04
208.255	12.12
208.474	42.84
208.693	3.93
208.911	1.88
209.13	30.55
209.349	40.79
209.567	69.46
209.786	40.79
210.005	32.6
210.223	8.02
210.442	3.93
210.661	-6.31
210.879	-0.17
211.098	-47.27
211.316	44.88
211.535	30.55
211.753	-24.75
211.972	22.36
212.191	-16.55
212.409	-10.41
212.628	-53.42
212.846	38.74
213.065	5.97
213.283	87.89
213.502	-28.84
213.72	42.84
213.938	42.84
214.157	5.97
214.375	38.74
214.594	-69.8
214.812	79.7
215.031	8.02
215.249	5.97
215.467	-16.55
215.686	73.56
215.904	-6.31
216.122	3.93
216.341	38.74
216.559	-14.51
216.778	57.17
216.996	59.22
217.214	59.22
217.432	53.08
217.651	71.51
217.869	1.88
218.087	8.02
218.306	-8.36
218.524	30.55
218.742	-6.31
218.96	-16.55
219.179	89.94
219.397	42.84
219.615	85.84
219.833	12.12
220.051	14.17
220.27	55.12
220.488	8.02
220.706	24.4
220.924	-0.17
221.142	38.74
221.36	81.75
221.578	-10.41
221.796	24.4
222.015	-4.27
222.233	-24.75
222.451	157.52
222.669	14.17
222.887	-53.42
223.105	40.79
223.323	57.17
223.541	-10.41
223.759	79.7
223.977	3.93
224.195	46.93
224.413	1.88
224.631	38.74
224.849	12.12
225.067	3.93
225.285	40.79
225.503	-26.79
225.721	-2.22
225.939	24.4
226.157	36.69
226.375	53.08
226.592	22.36
226.81	48.98
227.028	14.17
227.246	24.4
227.464	87.89
227.682	18.26
227.9	-16.55
228.117	77.65
228.335	12.12
228.553	34.64
228.771	94.04
228.989	48.98
229.206	1.88
229.424	53.08
229.642	30.55
229.86	-30.89
230.077	22.36
230.295	46.93
230.513	5.97
230.731	51.03
230.948	44.88
231.166	34.64
231.384	26.45
231.601	-24.75
231.819	51.03
232.037	40.79
232.254	-16.55
232.472	36.69
232.689	51.03
232.907	20.31
233.125	-0.17
233.342	30.55
233.56	40.79
233.777	-22.7
233.995	83.8
234.213	30.55
234.43	-22.7
234.648	5.97
234.865	46.93
235.083	3.93
235.3	51.03
235.518	40.79
235.735	20.31
235.953	24.4
236.17	63.32
236.388	-6.31
236.605	-8.36
236.822	-30.89
237.04	24.4
237.257	5.97
237.475	16.21
237.692	108.37
237.909	75.6
238.127	-10.41
238.344	40.79
238.562	-51.37
238.779	1.88
238.996	46.93
239.214	12.12
239.431	73.56
239.648	-2.22
239.865	14.17
240.083	48.98
240.3	53.08
240.517	-24.75
240.735	36.69
240.952	3.93
241.169	10.07
241.386	48.98
241.603	-8.36
241.821	18.26
242.038	3.93
242.255	-8.36
242.472	-41.13
242.689	77.65
242.907	48.98
243.124	-8.36
243.341	24.4
243.558	-20.65
243.775	20.31
243.992	16.21
244.209	26.45
244.426	51.03
244.643	48.98
244.86	-20.65
245.078	-4.27
245.295	10.07
245.512	-0.17
245.729	77.65
245.946	53.08
246.163	40.79
246.38	65.36
246.597	-28.84
246.814	-39.08
247.031	8.02
247.248	-8.36
247.464	-12.46
247.681	28.5
247.898	-0.17
248.115	14.17
248.332	-37.03
248.549	48.98
248.766	3.93
248.983	61.27
249.2	38.74
249.417	28.5
249.633	36.69
249.85	12.12
250.067	-16.55
250.284	-8.36
250.501	26.45
250.717	73.56
250.934	-20.65
251.151	-32.94
251.368	-10.41
251.585	42.84
251.801	-49.32
252.018	67.41
252.235	75.6
252.451	-4.27
252.668	24.4
252.885	38.74
253.102	-16.55
253.318	65.36
253.535	-0.17
253.752	40.79
253.968	28.5
254.185	40.79
254.401	3.93
254.618	8.02
254.835	44.88
255.051	16.21
255.268	26.45
255.484	57.17
255.701	-51.37
255.917	22.36
256.134	12.12
256.351	42.84
256.567	24.4
256.784	81.75
257	5.97
257.217	-10.41
257.433	28.5
257.65	53.08
257.866	38.74
258.082	-37.03
258.299	79.7
258.515	46.93
258.732	-8.36
258.948	57.17
259.165	-16.55
259.381	1.88
259.597	94.04
259.814	-8.36
260.03	5.97
260.246	-16.55
260.463	38.74
260.679	24.4
260.895	38.74
261.112	67.41
261.328	3.93
261.544	24.4
261.761	65.36
261.977	30.55
262.193	24.4
262.409	91.99
262.626	-0.17
262.842	59.22
263.058	-16.55
263.274	12.12
263.49	-18.6
263.707	83.8
263.923	16.21
264.139	34.64
264.355	12.12
264.571	71.51
264.787	40.79
265.004	42.84
265.22	-0.17
265.436	61.27
265.652	48.98
265.868	-30.89
266.084	28.5
266.3	30.55
266.516	-45.23
266.732	46.93
266.948	-26.79
267.164	-32.94
267.38	16.21
267.596	55.12
267.812	18.26
268.028	-0.17
268.244	57.17
268.46	34.64
268.676	-34.99
268.892	16.21
269.108	12.12
269.324	16.21
269.54	38.74
269.756	65.36
269.972	3.93
270.188	30.55
270.403	36.69
270.619	18.26
270.835	69.46
271.051	55.12
271.267	-0.17
271.483	42.84
271.698	-45.23
271.914	20.31
272.13	75.6
272.346	40.79
272.562	110.42
272.777	65.36
272.993	14.17
273.209	-2.22
273.425	10.07
273.64	-24.75
273.856	38.74
274.072	65.36
274.287	38.74
274.503	8.02
274.719	-12.46
274.934	32.6
275.15	14.17
275.366	-14.51
275.581	28.5
275.797	36.69
276.012	42.84
276.228	-28.84
276.444	-2.22
276.659	24.4
276.875	-47.27
277.09	12.12
277.306	-8.36
277.521	40.79
277.737	26.45
277.952	40.79
278.168	55.12
278.383	30.55
278.599	-4.27
278.814	44.88
279.03	5.97
279.245	75.6
279.461	73.56
279.676	75.6
279.892	73.56
280.107	-51.37
280.322	12.12
280.538	67.41
280.753	-26.79
280.969	20.31
281.184	-14.51
281.399	40.79
281.615	18.26
281.83	59.22
282.045	-16.55
282.26	22.36
282.476	8.02
282.691	36.69
282.906	-2.22
283.122	1.88
283.337	14.17
283.552	22.36
283.767	-10.41
283.983	24.4
284.198	51.03
284.413	26.45
284.628	57.17
284.843	96.08
285.058	1.88
285.274	26.45
285.489	55.12
285.704	51.03
285.919	-18.6
286.134	85.84
286.349	34.64
286.564	87.89
286.779	85.84
286.995	-16.55
287.21	-22.7
287.425	100.18
287.64	32.6
287.855	85.84
288.07	-12.46
288.285	36.69
288.5	3.93
288.715	69.46
288.93	48.98
289.145	26.45
289.36	128.85
289.575	26.45
289.79	28.5
290.004	102.23
290.219	46.93
290.434	44.88
290.649	18.26
290.864	-10.41
291.079	32.6
291.294	40.79
291.509	26.45
291.724	34.64
291.938	36.69
292.153	30.55
292.368	69.46
292.583	89.94
292.798	73.56
293.012	16.21
293.227	32.6
293.442	32.6
293.657	40.79
293.871	42.84
294.086	24.4
294.301	53.08
294.516	8.02
294.73	26.45
294.945	-4.27
295.16	12.12
295.374	28.5
295.589	46.93
295.804	-16.55
296.018	53.08
296.233	100.18
296.447	14.17
296.662	3.93
296.877	1.88
297.091	-4.27
297.306	-4.27
297.52	8.02
297.735	-2.22
297.949	36.69
298.164	36.69
298.378	65.36
298.593	-49.32
298.807	14.17
299.022	38.74
299.236	18.26
299.451	120.66
299.665	14.17
299.88	30.55
300.094	-4.27
300.309	61.27
300.523	34.64
300.737	20.31
300.952	63.32
301.166	46.93
301.381	26.45
301.595	-4.27
301.809	-24.75
302.024	40.79
302.238	73.56
302.452	149.33
302.667	-24.75
302.881	81.75
303.095	26.45
303.309	18.26
303.524	-8.36
303.738	48.98
303.952	1.88
304.166	100.18
304.381	-0.17
304.595	57.17
304.809	22.36
305.023	59.22
305.237	18.26
305.452	8.02
305.666	87.89
305.88	32.6
306.094	38.74
306.308	40.79
306.522	75.6
306.736	3.93
306.95	57.17
307.164	-20.65
307.379	-16.55
307.593	73.56
307.807	34.64
308.021	24.4
308.235	98.13
308.449	61.27
308.663	22.36
308.877	114.52
309.091	3.93
309.305	104.28
309.519	-20.65
309.733	-18.6
309.947	5.97
310.161	40.79
310.374	12.12
310.588	65.36
310.802	3.93
311.016	8.02
311.23	46.93
311.444	44.88
311.658	12.12
311.872	30.55
312.085	1.88
312.299	28.5
312.513	46.93
312.727	-18.6
312.941	-24.75
313.154	55.12
313.368	44.88
313.582	57.17
313.796	65.36
314.009	-18.6
314.223	22.36
314.437	10.07
314.651	51.03
314.864	3.93
315.078	-4.27
315.292	-18.6
315.505	38.74
315.719	53.08
315.933	-10.41
316.146	48.98
316.36	-4.27
316.573	67.41
316.787	38.74
317.001	20.31
317.214	34.64
317.428	96.08
317.641	-8.36
317.855	106.32
318.068	46.93
318.282	36.69
318.495	61.27
318.709	87.89
318.922	-69.8
319.136	36.69
319.349	57.17
319.563	-12.46
319.776	18.26
319.99	-8.36
320.203	-32.94
320.417	96.08
320.63	30.55
320.843	59.22
321.057	-0.17
321.27	16.21
321.483	32.6
321.697	63.32
321.91	65.36
322.124	143.19
322.337	-20.65
322.55	26.45
322.763	67.41
322.977	38.74
323.19	-34.99
323.403	30.55
323.617	81.75
323.83	28.5
324.043	118.61
324.256	38.74
324.469	65.36
324.683	24.4
324.896	32.6
325.109	8.02
325.322	38.74
325.535	137.04
325.748	69.46
325.962	67.41
326.175	42.84
326.388	79.7
326.601	91.99
326.814	38.74
327.027	1.88
327.24	24.4
327.453	-12.46
327.666	40.79
327.879	24.4
328.092	26.45
328.305	22.36
328.518	26.45
328.731	-51.37
328.944	12.12
329.157	110.42
329.37	-41.13
329.583	44.88
329.796	44.88
330.009	16.21
330.222	79.7
330.435	-32.94
330.648	-20.65
330.861	40.79
331.073	14.17
331.286	24.4
331.499	20.31
331.712	22.36
331.925	48.98
332.138	69.46
332.35	108.37
332.563	30.55
332.776	38.74
332.989	-49.32
333.202	89.94
333.414	81.75
333.627	32.6
333.84	-4.27
334.053	5.97
334.265	5.97
334.478	3.93
334.691	26.45
334.903	24.4
335.116	-8.36
335.329	-12.46
335.541	8.02
335.754	28.5
335.966	73.56
336.179	53.08
336.392	24.4
336.604	5.97
336.817	30.55
337.029	81.75
337.242	16.21
337.454	40.79
337.667	59.22
337.88	-4.27
338.092	77.65
338.305	36.69
338.517	-32.94
338.729	48.98
338.942	57.17
339.154	-6.31
339.367	94.04
339.579	96.08
339.792	53.08
340.004	-8.36
340.217	14.17
340.429	67.41
340.641	40.79
340.854	-20.65
341.066	48.98
341.278	14.17
341.491	87.89
341.703	16.21
341.915	-24.75
342.128	65.36
342.34	34.64
342.552	18.26
342.764	38.74
342.977	61.27
343.189	81.75
343.401	1.88
343.613	87.89
343.826	53.08
344.038	-14.51
344.25	106.32
344.462	32.6
344.674	40.79
344.886	32.6
345.099	42.84
345.311	12.12
345.523	-10.41
345.735	61.27
345.947	46.93
346.159	14.17
346.371	79.7
346.583	51.03
346.795	96.08
347.007	79.7
347.219	-14.51
347.431	1.88
347.643	14.17
347.855	79.7
348.067	24.4
348.279	16.21
348.491	40.79
348.703	48.98
348.915	14.17
349.127	20.31
349.339	5.97
349.551	32.6
349.763	77.65
349.975	79.7
350.187	61.27
350.399	124.76
350.61	-4.27
350.822	46.93
351.034	44.88
351.246	-41.13
351.458	36.69
351.669	65.36
351.881	65.36
352.093	12.12
352.305	36.69
352.517	-8.36
352.728	128.85
352.94	42.84
353.152	28.5
353.363	8.02
353.575	28.5
353.787	-39.08
353.999	40.79
354.21	46.93
354.422	65.36
354.633	44.88
354.845	22.36
355.057	28.5
355.268	48.98
355.48	20.31
355.692	-16.55
355.903	26.45
356.115	44.88
356.326	-16.55
356.538	104.28
356.749	44.88
356.961	-71.85
357.172	-30.89
357.384	55.12
357.595	46.93
357.807	110.42
358.018	-14.51
358.23	-16.55
358.441	55.12
358.653	48.98
358.864	14.17
359.075	-39.08
359.287	40.79
359.498	8.02
359.709	18.26
359.921	-24.75
360.132	-2.22
360.344	-18.6
360.555	61.27
360.766	83.8
360.977	48.98
361.189	63.32
361.4	-2.22
361.611	73.56
361.823	81.75
362.034	81.75
362.245	-28.84
362.456	-0.17
362.667	40.79
362.879	36.69
363.09	36.69
363.301	96.08
363.512	38.74
363.723	26.45
363.935	32.6
364.146	130.9
364.357	-4.27
364.568	-6.31
364.779	65.36
364.99	69.46
365.201	51.03
365.412	42.84
365.623	44.88
365.834	-4.27
366.045	57.17
366.256	36.69
366.467	65.36
366.678	-0.17
366.889	57.17
367.1	94.04
367.311	63.32
367.522	102.23
367.733	81.75
367.944	104.28
368.155	69.46
368.366	87.89
368.577	36.69
368.788	61.27
368.999	-26.79
369.209	30.55
369.42	10.07
369.631	48.98
369.842	65.36
370.053	63.32
370.264	-6.31
370.474	40.79
370.685	143.19
370.896	118.61
371.107	98.13
371.317	75.6
371.528	57.17
371.739	-20.65
371.95	57.17
372.16	22.36
372.371	-10.41
372.582	10.07
372.792	51.03
373.003	61.27
373.214	1.88
373.424	89.94
373.635	79.7
373.846	53.08
374.056	100.18
374.267	-47.27
374.477	38.74
374.688	124.76
374.898	-20.65
375.109	71.51
375.319	108.37
375.53	32.6
375.74	81.75
375.951	63.32
376.161	67.41
376.372	24.4
376.582	34.64
376.793	30.55
377.003	36.69
377.214	44.88
377.424	67.41
377.635	53.08
377.845	3.93
378.055	73.56
378.266	85.84
378.476	-8.36
378.686	26.45
378.897	-6.31
379.107	63.32
379.317	104.28
379.528	98.13
379.738	53.08
379.948	-4.27
380.158	128.85
380.369	8.02
380.579	24.4
380.789	12.12
380.999	104.28
381.21	36.69
381.42	63.32
381.63	40.79
381.84	116.56
382.05	5.97
382.261	24.4
382.471	61.27
382.681	18.26
382.891	-2.22
383.101	89.94
383.311	-18.6
383.521	38.74
383.731	28.5
383.941	51.03
384.151	53.08
384.361	94.04
384.571	14.17
384.781	137.04
384.991	104.28
385.201	61.27
385.411	94.04
385.621	26.45
385.831	55.12
386.041	71.51
386.251	28.5
386.461	100.18
386.671	53.08
386.881	63.32
387.091	85.84
387.301	147.28
387.511	-10.41
387.72	106.32
387.93	46.93
388.14	-10.41
388.35	108.37
388.56	26.45
388.769	83.8
388.979	87.89
389.189	73.56
389.399	53.08
389.609	14.17
389.818	77.65
390.028	48.98
390.238	30.55
390.447	42.84
390.657	149.33
390.867	57.17
391.076	61.27
391.286	-0.17
391.496	85.84
391.705	22.36
391.915	91.99
392.125	48.98
392.334	57.17
392.544	85.84
392.753	57.17
392.963	73.56
393.172	110.42
393.382	42.84
393.591	139.09
393.801	130.9
394.01	81.75
394.22	110.42
394.429	71.51
394.639	42.84
394.848	118.61
395.058	128.85
395.267	161.62
395.477	61.27
395.686	104.28
395.895	112.47
396.105	73.56
396.314	44.88
396.524	61.27
396.733	53.08
396.942	130.9
397.152	153.43
397.361	98.13
397.57	89.94
397.78	114.52
397.989	98.13
398.198	163.67
398.407	55.12
398.617	118.61
398.826	155.47
399.035	26.45
399.244	110.42
399.453	81.75
399.663	57.17
399.872	81.75
400.081	102.23
400.29	128.85
400.499	34.64
400.708	147.28
400.917	102.23
401.127	114.52
401.336	155.47
401.545	116.56
401.754	126.8
401.963	106.32
402.172	108.37
402.381	89.94
402.59	135
402.799	155.47
403.008	126.8
403.217	87.89
403.426	89.94
403.635	151.38
403.844	243.54
404.053	212.82
404.262	206.67
404.471	167.76
404.68	135
404.888	114.52
405.097	200.53
405.306	200.53
405.515	221.01
405.724	233.3
405.933	143.19
406.142	169.81
406.35	175.95
406.559	204.63
406.768	190.29
406.977	237.39
407.185	188.24
407.394	180.05
407.603	247.63
407.812	225.11
408.02	259.92
408.229	286.54
408.438	274.26
408.646	251.73
408.855	249.68
409.064	288.59
409.272	261.97
409.481	319.31
409.69	317.26
409.898	337.74
410.107	370.51
410.315	298.83
410.524	401.23
410.733	405.33
410.941	354.13
411.15	434
411.358	333.65
411.567	450.38
411.775	522.06
411.984	446.29
412.192	499.53
412.401	503.63
412.609	472.91
412.818	618.32
413.026	606.03
413.234	569.16
413.443	644.94
413.651	587.6
413.86	661.32
414.068	720.71
414.276	722.76
414.485	628.56
414.693	761.67
414.901	827.21
415.11	784.2
415.318	880.46
415.526	784.2
415.734	948.04
415.943	872.26
416.151	984.9
416.359	1048.39
416.567	995.14
416.776	1023.81
416.984	1021.77
417.192	1099.59
417.4	1115.97
417.608	1136.45
417.817	1201.99
418.025	1324.87
418.233	1365.82
418.441	1355.58
418.649	1417.02
418.857	1406.78
419.065	1584.96
419.273	1406.78
419.481	1533.76
419.689	1750.84
419.897	1806.14
420.105	1793.85
420.313	1791.8
420.521	1871.67
420.729	1896.25
420.937	1894.2
421.145	1998.65
421.353	2060.09
421.561	2158.39
421.769	2297.65
421.977	2412.34
422.185	2346.8
422.393	2524.97
422.601	2649.9
422.809	2567.98
423.017	2631.47
423.224	2801.45
423.432	2920.23
423.64	2828.07
423.848	3004.2
424.056	3098.41
424.263	3270.44
424.471	3405.6
424.679	3362.59
424.887	3620.64
425.094	3499.81
425.302	3682.08
425.51	3862.3
425.718	3964.7
425.925	4013.85
426.133	4235.03
426.341	4290.32
426.548	4609.81
426.756	4474.64
426.964	4484.88
427.171	4855.56
427.379	4943.63
427.586	5046.02
427.794	5254.92
428.001	5453.57
428.209	5639.94
428.417	5652.22
428.624	6051.58
428.832	5943.03
429.039	6147.83
429.247	6045.43
429.454	6678.26
429.662	6962.92
429.869	6549.23
430.076	7053.03
430.284	6672.11
430.491	7055.08
430.699	7407.33
430.906	7569.12
431.114	7599.84
431.321	7956.19
431.528	8132.31
431.736	8603.35
431.943	9049.8
432.15	8656.59
432.358	8879.82
432.565	9371.33
432.772	9232.07
432.979	9789.12
433.187	9983.68
433.394	9696.96
433.601	10634.93
433.808	10446.52
434.016	10542.77
434.223	11114.16
434.43	11722.4
434.637	11427.49
434.844	12091.04
435.052	12719.76
435.259	12328.6
435.466	12650.13
435.673	12322.46
435.88	13231.76
436.087	13790.85
436.294	13674.12
436.501	13416.07
436.708	13764.23
436.915	14718.58
437.122	14730.87
437.329	15068.78
437.537	15394.41
437.743	15724.13
437.95	15500.9
438.157	16348.76
438.364	16973.39
438.571	16854.61
438.778	17141.33
438.985	18380.35
439.192	17915.46
439.399	18679.35
439.606	17720.9
439.813	19205.68
440.02	20182.56
440.227	19609.13
440.433	19531.31
440.64	20192.8
440.847	19967.52
441.054	20327.97
441.261	21732.87
441.467	21509.65
441.674	22251.01
441.881	22953.46
442.088	22883.83
442.294	22590.97
442.501	23186.93
442.708	23700.97
442.914	24700.38
443.121	25787.85
443.328	25134.55
443.534	26977.72
443.741	26027.46
443.948	25963.98
444.154	27483.57
444.361	27534.77
444.568	27758
444.774	27305.4
444.981	27997.61
445.187	28751.26
445.394	29875.6
445.6	29576.59
445.807	32693.6
446.013	31159.67
446.22	31507.83
446.426	32585.06
446.633	33351
446.839	34518.34
447.046	32920.93
447.252	34956.61
447.459	34880.83
447.665	34596.17
447.871	36414.76
448.078	37479.71
448.284	35652.92
448.491	36922.66
448.697	38130.96
448.903	39466.24
449.11	39273.73
449.316	38335.76
449.522	39218.43
449.728	40207.6
449.935	40570.09
450.141	40406.25
450.347	41481.44
450.553	40088.82
450.76	40553.71
450.966	41641.18
451.172	41647.32
451.378	42702.03
451.584	41696.47
451.791	42767.56
451.997	42566.86
452.203	43439.29
452.409	43508.93
452.615	43191.49
452.821	41659.61
453.027	41219.3
453.233	43078.85
453.44	41600.22
453.646	41665.75
453.852	42525.9
454.058	43003.08
454.264	41280.74
454.47	42652.87
454.676	41657.56
454.882	42632.39
455.088	39486.71
455.294	39894.26
455.5	40137.97
455.705	40668.39
455.911	39200
456.117	38376.72
456.323	38210.83
456.529	36365.61
456.735	37680.41
456.941	36459.82
457.147	35943.73
457.352	34661.7
457.558	34676.04
457.764	34174.28
457.97	34112.84
458.176	33312.09
458.381	33211.74
458.587	31516.02
458.793	31763.82
458.999	30176.65
459.204	32154.99
459.41	31231.35
459.616	29080.99
459.821	29201.82
460.027	28958.11
460.233	28618.14
460.438	26963.39
460.644	27686.32
460.85	26299.84
461.055	25869.77
461.261	25601.49
461.466	23725.55
461.672	23152.12
461.878	24888.79
462.083	23184.88
462.289	22554.11
462.494	22521.34
462.7	21751.31
462.905	20833.82
463.111	21741.07
463.316	21626.38
463.522	20997.65
463.727	21349.9
463.932	21237.27
464.138	20743.7
464.343	21052.95
464.549	20739.61
464.754	21081.62
464.959	20936.21
465.165	20829.72
465.37	19879.46
465.575	19418.67
465.781	20340.25
465.986	20176.42
466.191	19578.41
466.397	19107.38
466.602	18112.06
466.807	18970.16
467.012	19080.75
467.218	18953.78
467.423	18552.38
467.628	18804.28
467.833	19344.94
468.038	18806.33
468.244	18247.23
468.449	18896.44
468.654	18351.68
468.859	18355.77
469.064	18236.99
469.269	17659.46
469.474	17585.74
469.679	17565.26
469.885	17446.48
470.09	17503.82
470.295	17426
470.5	16903.76
470.705	17131.09
470.91	16809.56
471.115	16750.17
471.32	16782.93
471.525	16658.01
471.73	16334.43
471.935	16240.22
472.139	15812.2
472.344	16119.39
472.549	15973.99
472.754	15554.15
472.959	15285.87
473.164	15195.76
473.369	14831.22
473.574	15396.46
473.778	15246.96
473.983	14859.89
474.188	15068.78
474.393	14192.25
474.598	14573.17
474.802	14343.8
475.007	14182.01
475.212	14016.13
475.417	13710.98
475.621	13680.26
475.826	13770.37
476.031	13569.67
476.235	13205.13
476.44	13506.18
476.645	13102.73
476.849	13235.85
477.054	12918.42
477.259	12756.63
477.463	12740.24
477.668	12426.9
477.872	12797.59
478.077	12246.68
478.282	12107.42
478.486	12144.28
478.691	12017.31
478.895	12111.52
479.1	11902.62
479.304	11974.3
479.509	11642.53
479.713	11986.59
479.918	11321
480.122	11347.62
480.326	11724.45
480.531	11632.29
480.735	11333.29
480.94	11210.41
481.144	11587.24
481.348	11073.2
481.553	11155.12
481.757	10895.02
481.961	11103.92
482.166	11277.99
482.37	11200.17
482.574	10993.33
482.778	11165.35
482.983	11091.63
483.187	10942.13
483.391	11015.85
483.595	10870.45
483.8	10835.63
484.004	11202.22
484.208	11028.14
484.412	10981.04
484.616	11157.16
484.821	11116.2
485.025	10917.55
485.229	11050.67
485.433	10999.47
485.637	11089.58
485.841	10862.26
486.045	10917.55
486.249	10856.11
486.453	10708.66
486.657	10993.33
486.861	11099.82
487.065	10796.72
487.269	10833.58
487.473	10804.91
487.677	10991.28
487.881	11067.05
488.085	10942.13
488.289	10985.13
488.493	11009.71
488.697	11255.47
488.901	11189.93
489.105	11097.77
489.309	11077.29
489.512	10960.56
489.716	11026.09
489.92	11030.19
490.124	10948.27
490.328	11169.45
490.531	11237.03
490.735	11202.22
490.939	11349.67
491.143	11267.75
491.346	11409.06
491.55	11425.45
491.754	11519.65
491.958	11413.16
492.161	11409.06
492.365	11648.68
492.569	11665.06
492.772	11538.09
492.976	11599.52
493.18	11603.62
493.383	11888.29
493.587	12011.17
493.79	12177.05
493.994	12033.69
494.197	12132
494.401	12170.91
494.605	12189.34
494.808	12375.7
495.012	12494.49
495.215	12514.97
495.419	12639.89
495.622	12695.19
495.825	12734.1
496.029	12752.53
496.232	13026.96
496.436	13178.51
496.639	13350.54
496.843	13293.19
497.046	13639.3
497.249	13731.46
497.453	13844.1
497.656	13903.49
497.859	13776.52
498.063	14100.09
498.266	14061.18
498.469	14159.49
498.673	14331.51
498.876	14540.41
499.079	14829.17
499.282	14716.53
499.485	15255.15
499.689	15091.31
499.892	15672.93
500.095	15550.06
500.298	15840.87
500.501	15818.34
500.705	16213.6
500.908	16139.87
501.111	16576.09
501.314	16748.12
501.517	16703.06
501.72	17233.49
501.923	16885.33
502.126	17321.55
502.329	17557.07
502.532	17757.77
502.735	17929.8
502.938	18081.35
503.141	18282.05
503.344	18535.99
503.547	18636.34
503.75	18964.02
503.953	18947.64
504.156	19101.23
504.359	19521.07
504.562	19310.13
504.765	19893.8
504.968	19889.7
505.17	20301.34
505.373	20260.38
505.576	20913.69
505.779	20749.85
505.982	21057.04
506.185	21605.9
506.387	21505.55
506.59	21362.19
506.793	22220.29
506.996	21597.71
507.198	22748.67
507.401	22689.28
507.604	22638.08
507.807	23387.63
508.009	23563.76
508.212	23465.46
508.415	23887.34
508.617	24059.37
508.82	24626.65
509.022	24227.3
509.225	24655.33
509.428	25079.25
509.63	25195.99
509.833	25462.22
510.035	25863.63
510.238	25779.66
510.44	25933.26
510.643	26336.71
510.845	26684.86
511.048	26453.44
511.25	27071.93
511.453	27405.75
511.655	28013.99
511.858	27741.61
512.06	28233.13
512.262	28120.49
512.465	28202.41
512.667	28763.55
512.87	29238.68
513.072	29150.62
513.274	29703.57
513.477	29848.97
513.679	30119.31
513.881	30240.14
514.084	30768.51
514.286	30713.22
514.488	30977.4
514.69	32034.16
514.893	31661.43
515.095	32261.48
515.297	32224.62
515.499	32177.51
515.701	32783.71
515.904	32544.1
516.106	33164.64
516.308	33277.27
516.51	33975.63
516.712	33942.86
516.914	34469.19
517.116	34936.13
517.318	34583.88
517.52	34895.17
517.722	34805.06
517.925	35448.12
518.127	36064.56
518.329	36195.63
518.531	36146.48
518.733	36566.31
518.935	36623.65
519.136	36693.29
519.338	37526.81
519.54	37575.96
519.742	37889.3
519.944	38204.69
520.146	38311.18
520.348	39134.46
520.55	39081.22
520.752	38931.72
520.954	39609.59
521.155	38976.77
521.357	39544.06
521.559	40393.96
521.761	40568.04
521.963	40371.44
522.164	40410.35
522.366	40879.33
522.568	41141.47
522.77	41217.25
522.971	41952.47
523.173	41768.15
523.375	41927.89
523.576	41987.28
523.778	42147.03
523.98	42820.81
524.181	42755.27
524.383	42931.4
524.584	43371.71
524.786	43107.52
524.988	43201.73
525.189	43951.29
525.391	43676.86
525.592	44025.01
525.794	44010.68
525.995	44393.65
526.197	44479.66
526.398	44250.29
526.6	44889.26
526.801	44887.21
527.003	44969.13
527.204	44776.62
527.406	45192.36
527.607	45114.53
527.808	45956.25
528.01	44504.24
528.211	45313.19
528.412	45868.19
528.614	46064.79
528.815	45995.16
529.016	46564.49
529.218	45972.63
529.419	46234.77
529.62	46169.24
529.822	46150.81
530.023	46587.02
530.224	46625.93
530.425	46576.78
530.626	46388.37
530.828	46077.08
531.029	47172.74
531.23	46253.2
531.431	46404.75
531.632	46292.11
531.833	47168.65
532.035	46765.2
532.236	46642.32
532.437	47207.56
532.638	46345.36
532.839	46673.04
533.04	46984.33
533.241	46660.75
533.442	47322.24
533.643	46818.44
533.844	46849.16
534.045	47017.1
534.246	46568.59
534.447	47494.27
534.648	47221.89
534.849	47088.77
535.05	47107.21
535.251	47019.14
535.451	46969.99
535.652	47074.44
535.853	47346.82
536.054	47013
536.255	47234.18
536.456	46797.96
536.657	47322.24
536.857	46605.45
537.058	46408.85
537.259	47269
537.46	47176.84
537.66	46763.15
537.861	46642.32
538.062	46568.59
538.263	47318.15
538.463	46978.18
538.664	46699.66
538.865	47508.61
539.065	47262.85
539.266	46509.2
539.466	47139.97
539.667	46597.26
539.868	47041.67
540.068	46681.23
540.269	46830.73
540.469	47420.55
540.67	46840.97
540.87	47072.39
541.071	47260.8
541.271	46863.5
541.472	46845.07
541.672	46652.56
541.873	46912.65
542.073	46130.33
542.274	47342.72
542.474	46427.28
542.675	46818.44
542.875	47131.78
543.075	46851.21
543.276	46443.66
543.476	46718.09
543.676	46763.15
543.877	46941.32
544.077	46822.54
544.277	46609.55
544.478	46331.03
544.678	46896.27
544.878	47062.15
545.078	46771.34
545.279	46214.29
545.479	46384.27
545.679	46736.52
545.879	46595.21
546.079	46328.98
546.28	46482.58
546.48	46455.95
546.68	46447.76
546.88	46714
547.08	46705.8
547.28	46484.62
547.48	46318.74
547.68	46128.28
547.88	45991.06
548.081	46789.77
548.281	46068.89
548.481	46318.74
548.681	46746.76
548.881	45954.2
549.081	46130.33
549.28	45855.9
549.48	46101.65
549.68	46275.73
549.88	46437.52
550.08	45733.02
550.28	45790.36
550.48	46245.01
550.68	46183.57
550.88	45671.58
551.08	46097.56
551.279	46038.17
551.479	45825.18
551.679	46367.89
551.879	46044.31
552.079	46322.83
552.278	45819.03
552.478	45913.24
552.678	46283.92
552.878	46011.54
553.077	45638.81
553.277	45821.08
553.477	46320.79
553.676	45952.15
553.876	46064.79
554.076	45808.79
554.275	45610.14
554.475	45601.95
554.674	46027.93
554.874	45503.65
555.074	45589.66
555.273	45526.17
555.473	46171.28
555.672	45399.2
555.872	45221.03
556.071	45495.46
556.271	45477.02
556.47	45282.47
556.67	44870.82
556.869	44971.18
557.068	45556.89
557.268	45077.67
557.467	45157.54
557.667	44833.96
557.866	45315.23
558.065	45151.4
558.265	44686.51
558.464	44823.72
558.663	45055.14
558.863	44659.88
559.062	45298.85
559.261	44598.44
559.461	45122.72
559.66	44405.94
559.859	44819.63
560.058	44618.92
560.258	44829.87
560.457	44203.19
560.656	44860.58
560.855	44467.37
561.054	44790.95
561.253	44160.18
561.453	44702.89
561.652	44510.38
561.851	44500.14
562.05	44412.08
562.249	43734.2
562.448	44238
562.647	44201.14
562.846	43859.13
563.045	44162.23
563.244	43510.97
563.443	44278.96
563.642	43459.77
563.841	43424.96
564.04	43807.93
564.239	44104.88
564.438	43248.83
564.637	43742.39
564.836	43486.4
565.035	43115.72
565.234	43427.01
565.432	42992.84
565.631	42910.92
565.83	43533.5
566.029	42839.24
566.228	42773.7
566.427	42763.46
566.625	42650.83
566.824	41870.55
567.023	42960.07
567.222	41870.55
567.42	43316.42
567.619	42702.03
567.818	42443.98
568.016	42796.23
568.215	42460.37
568.414	42355.92
568.612	42304.72
568.811	42108.11
569.01	42443.98
569.208	41940.18
569.407	42028.24
569.605	41387.23
569.804	42562.76
570.002	41585.88
570.201	42095.83
570.4	41606.36
570.598	41475.29
570.797	41270.5
570.995	41651.42
571.193	41202.91
571.392	41528.54
571.59	40979.68
571.789	40940.77
571.987	41047.27
572.186	41172.19
572.384	40787.17
572.582	41143.52
572.781	41002.21
572.979	40223.98
573.177	40871.14
573.376	40963.3
573.574	40623.34
573.772	40410.35
573.971	39970.04
574.169	40396.01
574.367	39658.74
574.565	40146.16
574.763	39955.7
574.962	39982.32
575.16	39503.1
575.358	40031.47
575.556	39548.15
575.754	39611.64
575.952	39279.87
576.151	39654.65
576.349	38956.29
576.547	39310.59
576.745	39482.62
576.943	38886.66
577.141	38993.15
577.339	39380.22
577.537	38923.52
577.735	39021.83
577.933	38937.86
578.131	38866.18
578.329	38368.52
578.527	38348.04
578.725	38450.44
578.923	38915.33
579.121	37999.89
579.319	38311.18
579.516	38389
579.714	38073.62
579.912	37856.53
580.11	37668.12
580.308	38059.28
580.506	37815.57
580.704	37573.91
580.901	37700.89
581.099	37922.07
581.297	37414.17
581.495	37002.53
581.692	37332.25
581.89	37152.03
582.088	37109.02
582.285	36949.28
582.483	37356.83
582.681	36865.31
582.878	36898.08
583.076	36291.88
583.274	36531.5
583.471	36058.42
583.669	36537.64
583.866	36412.71
584.064	36115.76
584.262	36177.2
584.459	36324.65
584.657	35710.26
584.854	36162.86
585.052	35294.52
585.249	35648.82
585.447	35902.77
585.644	35351.87
585.841	35038.53
586.039	35857.71
586.236	35382.59
586.434	35310.91
586.631	35132.73
586.828	34829.63
587.026	34979.14
587.223	34979.14
587.42	34723.14
587.618	34770.24
587.815	34323.79
588.012	34350.41
588.21	34514.25
588.407	34747.72
588.604	34133.32
588.801	34217.29
588.999	34030.93
589.196	34278.73
589.393	34069.84
589.59	33801.55
589.787	33918.29
589.984	33459.54
590.182	33684.82
590.379	33793.36
590.576	33070.43
590.773	33490.26
590.97	33174.88
591.167	33432.92
591.364	32871.78
591.561	33185.11
591.758	32656.74
591.955	32990.56
592.152	33064.28
592.349	32595.3
592.546	32277.86
592.743	32550.24
592.94	31855.98
593.137	32189.8
593.334	32220.52
593.531	31851.89
593.727	32191.85
593.924	31788.4
594.121	31585.65
594.318	31954.29
594.515	31425.91
594.712	31919.47
594.908	31362.42
595.105	31178.11
595.302	31188.35
595.499	31155.58
595.696	31298.94
595.892	30803.33
596.089	31214.97
596.286	31049.08
596.482	30651.78
596.679	30576
596.876	30510.47
597.072	30395.78
597.269	30588.29
597.466	30432.64
597.662	30080.39
597.859	30330.25
598.055	30184.84
598.252	29873.55
598.448	30125.45
598.645	29595.03
598.841	29648.27
599.038	29838.73
599.234	29699.47
599.431	29554.07
599.627	29293.97
599.824	29439.38
600.02	29293.97
600.217	29226.39
600.413	29154.71
600.609	28988.83
600.806	28673.44
601.002	29097.37
601.198	28456.36
601.395	28417.44
601.591	28437.92
601.787	28544.42
601.984	28294.57
602.18	28530.08
602.376	28136.87
602.572	28292.52
602.769	28198.31
602.965	27846.06
603.161	27858.35
603.357	27968.94
603.553	28038.57
603.75	27608.5
603.946	27502
604.142	27610.54
604.338	27395.51
604.534	27530.67
604.73	27073.98
604.926	27061.69
605.122	27350.45
605.318	27280.82
605.514	26992.06
605.71	26854.84
605.906	26770.88
606.102	26979.77
606.298	27051.45
606.494	26742.21
606.69	26811.84
606.886	26838.46
607.082	26123.72
607.278	26514.88
607.474	26170.82
607.67	26406.34
607.866	26107.33
608.062	26344.9
608.257	25988.55
608.453	25945.55
608.649	26240.45
608.845	25812.43
609.041	25757.13
609.236	25791.95
609.432	25646.54
609.628	25662.93
609.824	25667.02
610.019	25396.69
610.215	25538
610.411	25687.5
610.606	25288.15
610.802	25560.53
610.998	25535.95
611.193	25322.96
611.389	25486.8
611.584	25189.84
611.78	25124.31
611.976	25271.76
612.171	25171.41
612.367	25005.53
612.562	24937.94
612.758	24782.3
612.953	24565.21
613.149	25075.16
613.344	24698.33
613.539	25236.95
613.735	24733.15
613.93	24620.51
614.126	24536.54
614.321	24761.82
614.517	24489.44
614.712	24411.62
614.907	24188.39
615.103	24354.27
615.298	24182.24
615.493	24679.9
615.688	23834.09
615.884	24645.09
616.079	24149.48
616.274	24233.44
616.47	24073.7
616.665	24376.8
616.86	23815.66
617.055	23959.02
617.25	23832.04
617.445	23891.43
617.641	23827.95
617.836	23889.38
618.031	23561.71
618.226	23592.43
618.421	23279.09
618.616	23547.37
618.811	23229.94
619.006	23600.62
619.201	23041.53
619.396	23432.69
619.591	22525.44
619.786	22867.45
619.981	22402.56
620.176	23070.2
620.371	22685.18
620.566	22709.75
620.761	22584.83
620.956	22281.73
621.151	22189.57
621.346	22343.17
621.541	22007.3
621.735	22531.58
621.93	21745.16
622.125	22115.84
622.32	21296.66
622.515	21931.53
622.709	21382.67
622.904	21427.73
623.099	21313.04
623.294	21120.53
623.488	21118.48
623.683	21026.32
623.878	20895.25
624.072	20813.34
624.267	20825.62
624.462	20592.16
624.656	20620.83
624.851	20373.02
625.046	20426.27
625.24	20088.35
625.435	19996.2
625.629	19912.23
625.824	19533.36
626.018	19840.55
626.213	19328.56
626.407	19772.97
626.602	19207.73
626.796	19287.6
626.991	19367.47
627.185	18875.96
627.38	18916.92
627.574	18732.6
627.768	18818.61
627.963	18423.36
628.157	18837.05
628.352	18742.84
628.546	18284.09
628.74	18615.87
628.935	18073.15
629.129	18191.94
629.323	18005.57
629.517	17688.14
629.712	17626.7
629.906	18007.62
630.1	17278.54
630.294	17530.44
630.489	17376.84
630.683	17485.39
630.877	17137.23
631.071	17024.59
631.265	17262.16
631.459	16854.61
631.653	16971.35
631.848	17059.41
632.042	16721.49
632.236	16877.14
632.43	16604.76
632.624	16594.52
632.818	16551.51
633.012	16270.94
633.206	15965.79
633.4	16191.07
633.594	15761
633.788	16055.9
633.982	16062.05
634.176	15634.02
634.369	15666.79
634.563	15654.5
634.757	15457.9
634.951	15683.17
635.145	15461.99
635.339	15511.14
635.533	15013.49
635.726	15267.44
635.92	15011.44
636.114	15212.14
636.308	14820.98
636.501	14837.36
636.695	14956.15
636.889	14734.96
637.083	14681.72
637.276	14474.87
637.47	14364.28
637.664	14562.94
637.857	14337.66
638.051	14255.74
638.244	14186.11
638.438	14438.01
638.632	14218.88
638.825	13860.48
639.019	13999.74
639.212	13811.33
639.406	13893.25
639.599	13536.9
639.793	13670.02
639.986	13168.27
640.18	13518.47
640.373	13352.59
640.567	13133.45
640.76	13340.3
640.954	13082.25
641.147	13168.27
641.34	12885.65
641.534	13006.48
641.727	13051.53
641.92	12787.35
642.114	12689.04
642.307	12811.92
642.5	12547.73
642.694	12586.65
642.887	12152.48
643.08	12592.79
643.273	12576.41
643.467	12318.36
643.66	12054.17
643.853	12230.3
644.046	12197.53
644.239	12209.82
644.432	11941.54
644.626	12000.93
644.819	11771.55
645.012	11871.9
645.205	11771.55
645.398	11581.09
645.591	11746.98
645.784	11699.87
645.977	11486.89
646.17	11308.71
646.363	11302.57
646.556	11151.02
646.749	11318.95
646.942	11239.08
647.135	11210.41
647.328	11112.11
647.521	11042.48
647.714	10698.42
647.907	11060.91
648.099	10796.72
648.292	10884.78
648.485	10954.41
648.678	10727.09
648.871	10553.01
649.064	10360.5
649.256	10469.05
649.449	10458.81
649.642	10671.79
649.835	10258.1
650.027	10243.77
650.22	10497.72
650.413	10036.92
650.605	10143.42
650.798	10215.1
650.991	10010.3
651.183	9791.17
651.376	10104.51
651.568	9903.81
651.761	9797.31
651.954	9756.35
652.146	9688.77
652.339	9868.99
652.531	9602.75
652.724	9518.79
652.916	9305.8
653.109	9367.24
653.301	9440.97
653.494	9330.37
653.686	9164.49
653.879	9389.77
654.071	9201.35
654.263	9125.58
654.456	9324.23
654.648	9135.82
654.84	8955.6
655.033	8974.03
655.225	8920.78
655.417	9008.84
655.61	8765.14
655.802	8789.71
655.994	8787.66
656.186	8789.71
656.379	8722.13
656.571	8572.63
656.763	8609.49
656.955	8527.57
657.148	8226.52
657.34	8259.29
657.532	8222.42
657.724	8363.73
657.916	8156.89
658.108	8124.12
658.3	8103.64
658.492	8111.83
658.684	8019.67
658.876	8054.49
659.068	8126.17
659.26	7853.79
659.452	7950.04
659.644	7816.93
659.836	7671.52
660.028	7892.7
660.22	7714.53
660.412	7741.15
660.604	7462.63
660.796	7773.92
660.988	7599.84
661.18	7540.45
661.372	7401.19
661.563	7462.63
661.755	7309.03
661.947	7380.71
662.139	7155.43
662.331	7347.94
662.522	7151.34
662.714	7184.1
662.906	7137
663.097	7171.82
663.289	7048.94
663.481	7071.47
663.673	6950.64
663.864	6921.96
664.056	6866.67
664.247	6899.44
664.439	6754.03
664.631	6926.06
664.822	6756.08
665.014	6786.8
665.205	6569.71
665.397	6715.12
665.588	6627.06
665.78	6645.49
665.971	6674.16
666.163	6588.14
666.354	6700.78
666.546	6405.88
666.737	6395.64
666.929	6330.1
667.12	6373.11
667.311	6471.41
667.503	6381.3
667.694	6350.58
667.885	6274.81
668.077	6393.59
668.268	6244.09
668.459	6203.13
668.651	6151.93
668.842	6057.72
669.033	6027
669.224	5932.79
669.416	6029.05
669.607	5912.32
669.798	5877.5
669.989	5918.46
670.18	5846.78
670.371	5807.87
670.563	5789.44
670.754	5797.63
670.945	5838.59
671.136	5758.72
671.327	5766.91
671.518	5773.05
671.709	5603.07
671.9	5732.09
672.091	5693.18
672.282	5517.06
672.473	5576.45
672.664	5596.93
672.855	5547.78
673.046	5455.62
673.237	5617.41
673.428	5564.16
673.619	5289.73
673.809	5467.91
674	5359.36
674.191	5390.08
674.382	5277.44
674.573	5334.79
674.764	5232.39
674.954	5322.5
675.145	5297.92
675.336	5361.41
675.527	5218.05
675.717	5351.17
675.908	5062.41
676.099	5254.92
676.289	5181.19
676.48	5060.36
676.671	5101.32
676.861	5259.01
677.052	4976.39
677.243	5078.79
677.433	5074.7
677.624	4882.19
677.814	4980.49
678.005	5009.16
678.195	4833.04
678.386	4892.43
678.576	4886.28
678.767	4876.04
678.957	4929.29
679.148	4923.15
679.338	4841.23
679.529	4806.41
679.719	4697.87
679.909	4775.69
680.1	4773.64
680.29	4738.83
680.481	4859.66
680.671	4939.53
680.861	4648.72
681.052	4822.8
681.242	4636.43
681.432	4939.53
681.622	4634.38
681.813	4560.66
682.003	4626.19
682.193	4529.94
682.383	4691.73
682.573	4472.59
682.764	4552.46
682.954	4527.89
683.144	4640.53
683.334	4513.55
683.524	4497.17
683.714	4474.64
683.904	4382.48
684.094	4556.56
684.284	4626.19
684.474	4542.22
684.664	4374.29
684.854	4329.24
685.044	4407.06
685.234	4327.19
685.424	4405.01
685.614	4562.7
685.804	4308.76
685.994	4402.96
686.184	4228.88
686.374	4278.04
686.564	4337.43
686.753	4167.45
686.943	4212.5
687.133	4220.69
687.323	4226.84
687.513	4194.07
687.702	4044.57
687.892	4030.23
688.082	4140.82
688.272	4128.53
688.461	4159.25
688.651	4044.57
688.841	4013.85
689.03	4009.75
689.22	4048.66
689.41	4060.95
689.599	3968.79
689.789	3960.6
689.979	3999.51
690.168	3944.22
690.358	3817.24
690.547	3884.83
690.737	3774.24
690.926	3755.8
691.116	3792.67
691.305	3745.56
691.495	3589.92
691.684	3704.6
691.874	3710.75
692.063	3743.52
692.252	3764
692.442	3594.01
692.631	3561.25
692.82	3618.59
693.01	3608.35
693.199	3583.77
693.388	3565.34
693.578	3514.14
693.767	3469.09
693.956	3428.13
694.146	3450.66
694.335	3329.83
694.524	3405.6
694.713	3473.18
694.902	3397.41
695.092	3385.12
695.281	3395.36
695.47	3317.54
695.659	3260.2
695.848	3514.14
696.037	3309.35
696.226	3260.2
696.415	3184.42
696.604	3354.4
696.793	3338.02
696.982	3094.31
697.171	3182.37
697.36	3202.85
697.549	3254.05
697.738	3163.94
697.927	3120.93
698.116	3192.61
698.305	3168.04
698.494	3065.64
698.683	3016.49
698.872	3112.74
699.061	3129.13
699.25	3020.58
699.438	3084.07
699.627	3014.44
699.816	2977.58
700.005	3065.64
700.193	3018.54
700.382	3079.97
700.571	2936.62
700.76	3069.73
700.948	3018.54
701.137	2905.9
701.326	2969.38
701.514	2916.14
701.703	3039.01
701.892	2766.64
702.08	3002.15
702.269	2891.56
702.457	2838.31
702.646	2864.94
702.834	2793.26
703.023	2901.8
703.212	2869.03
703.4	2817.83
703.589	2881.32
703.777	2756.4
703.965	2750.25
704.154	2850.6
704.342	2864.94
704.531	2750.25
704.719	2780.97
704.907	2725.68
705.096	2699.05
705.284	2862.89
705.472	2723.63
705.661	2752.3
705.849	2760.49
706.037	2762.54
706.226	2684.72
706.414	2654
706.602	2740.01
706.79	2594.61
706.979	2639.66
707.167	2637.61
707.355	2678.57
707.543	2680.62
707.731	2719.53
707.919	2641.71
708.107	2682.67
708.296	2746.16
708.484	2596.65
708.672	2539.31
708.86	2537.26
709.048	2680.62
709.236	2635.57
709.424	2721.58
709.612	2631.47
709.8	2621.23
709.988	2563.89
710.176	2588.46
710.364	2535.21
710.551	2629.42
710.739	2545.45
710.927	2631.47
711.115	2512.69
711.303	2664.24
711.491	2524.97
711.679	2533.17
711.866	2457.39
712.054	2649.9
712.242	2586.41
712.43	2594.61
712.617	2490.16
712.805	2578.22
712.993	2451.25
713.181	2514.73
713.368	2584.37
713.556	2447.15
713.744	2449.2
713.931	2494.26
714.119	2508.59
714.306	2522.93
714.494	2490.16
714.682	2514.73
714.869	2529.07
715.057	2588.46
715.244	2524.97
715.432	2506.54
715.619	2498.35
715.807	2488.11
715.994	2539.31
716.182	2467.63
716.369	2547.5
716.556	2531.12
716.744	2488.11
716.931	2420.53
717.119	2500.4
717.306	2467.63
717.493	2275.12
717.681	2432.82
717.868	2516.78
718.055	2502.45
718.242	2496.3
718.43	2488.11
718.617	2555.69
718.804	2398
718.991	2592.56
719.179	2400.05
719.366	2465.58
719.553	2430.77
719.74	2498.35
719.927	2504.5
720.114	2328.37
720.301	2465.58
720.488	2461.49
720.676	2477.87
720.863	2385.71
721.05	2541.36
721.237	2465.58
721.424	2498.35
721.611	2510.64
721.798	2473.78
721.985	2346.8
722.172	2432.82
722.358	2488.11
722.545	2518.83
722.732	2422.58
722.919	2477.87
723.106	2533.17
723.293	2354.99
723.48	2357.04
723.667	2471.73
723.853	2412.34
724.04	2514.73
724.227	2389.81
724.414	2481.97
724.6	2406.19
724.787	2346.8
724.974	2420.53
725.161	2455.34
725.347	2385.71
725.534	2334.51
725.72	2252.59
725.907	2473.78
726.094	2391.86
726.28	2455.34
726.467	2381.62
726.653	2395.95
726.84	2383.66
727.027	2449.2
727.213	2324.27
727.4	2467.63
727.586	2408.24
727.773	2422.58
727.959	2352.95
728.145	2408.24
728.332	2322.23
728.518	2361.14
728.705	2410.29
728.891	2385.71
729.077	2402.1
729.264	2342.71
729.45	2391.86
729.636	2424.62
729.823	2441.01
730.009	2414.38
730.195	2416.43
730.382	2391.86
730.568	2398
730.754	2445.1
730.94	2451.25
731.126	2328.37
731.313	2430.77
731.499	2348.85
731.685	2496.3
731.871	2406.19
732.057	2357.04
732.243	2481.97
732.429	2324.27
732.615	2383.66
732.801	2389.81
732.987	2322.23
733.173	2389.81
733.359	2301.75
733.545	2287.41
733.731	2314.03
733.917	2471.73
734.103	2340.66
734.289	2338.61
734.475	2293.55
734.661	2402.1
734.847	2379.57
735.033	2324.27
735.219	2398
735.404	2359.09
735.59	2334.51
735.776	2348.85
735.962	2375.47
736.148	2273.07
736.333	2375.47
736.519	2346.8
736.705	2223.92
736.89	2299.7
737.076	2346.8
737.262	2305.84
737.447	2373.43
737.633	2246.45
737.819	2350.9
738.004	2260.79
738.19	2328.37
738.375	2225.97
738.561	2334.51
738.747	2168.63
738.932	2285.36
739.118	2199.35
739.303	2297.65
739.489	2223.92
739.674	2242.36
739.859	2228.02
740.045	2203.44
740.23	2191.16
740.416	2015.03
740.601	2289.46
740.786	2234.16
740.972	2197.3
741.157	2215.73
741.342	2203.44
741.528	2201.4
741.713	2180.92
741.898	2139.96
742.084	2178.87
742.269	2180.92
742.454	2099
742.639	2099
742.824	2109.24
743.01	2103.09
743.195	2174.77
743.38	2129.72
743.565	2221.88
743.75	2185.01
743.935	2086.71
744.12	2066.23
744.305	1976.12
744.49	2053.94
744.675	1904.44
744.86	2082.61
745.045	2004.79
745.23	1974.07
745.415	1904.44
745.6	1949.5
745.785	1896.25
745.97	1877.82
746.155	1943.35
746.34	1929.02
746.525	1945.4
746.71	1863.48
746.895	1937.21
747.079	1935.16
747.264	1957.69
747.449	1892.15
747.634	1947.45
747.819	1816.38
748.003	1879.86
748.188	1791.8
748.373	1754.94
748.557	1875.77
748.742	1916.73
748.927	1769.27
749.111	1863.48
749.296	1756.99
749.481	1748.79
749.665	1773.37
749.85	1761.08
750.034	1662.78
750.219	1867.58
750.404	1756.99
750.588	1652.54
750.773	1683.26
750.957	1642.3
751.141	1601.34
751.326	1736.51
751.51	1634.11
751.695	1556.29
751.879	1627.96
752.064	1613.63
752.248	1648.44
752.432	1576.77
752.617	1535.81
752.801	1533.76
752.985	1570.62
753.17	1521.47
753.354	1584.96
753.538	1525.57
753.722	1498.94
753.907	1503.04
754.091	1464.13
754.275	1380.16
754.459	1462.08
754.643	1429.31
754.828	1541.95
755.012	1496.89
755.196	1396.54
755.38	1417.02
755.564	1417.02
755.748	1392.45
755.932	1318.72
756.116	1257.28
756.3	1349.44
756.484	1281.86
756.668	1380.16
756.852	1216.32
757.036	1218.37
757.22	1298.24
757.404	1277.76
757.588	1324.87
757.772	1285.95
757.956	1316.67
758.14	1316.67
758.323	1259.33
758.507	1318.72
758.691	1251.14
758.875	1302.34
759.059	1265.47
759.242	1265.47
759.426	1242.95
759.61	1210.18
759.794	1259.33
759.977	1249.09
760.161	1226.56
760.345	1185.6
760.528	1177.41
760.712	1109.83
760.895	1148.74
761.079	1212.23
761.263	1124.16
761.446	1072.96
761.63	1154.88
761.813	1138.5
761.997	1068.87
762.18	1040.2
762.364	1058.63
762.547	1050.44
762.731	1218.37
762.914	1095.49
763.098	1064.77
763.281	1062.73
763.464	1097.54
763.648	1013.57
763.831	1075.01
764.015	1081.16
764.198	1052.49
764.381	1070.92
764.564	1062.73
764.748	1095.49
764.931	1111.88
765.114	1070.92
765.297	1077.06
765.481	1032.01
765.664	978.76
765.847	1003.33
766.03	1093.44
766.213	991.05
766.397	993.09
766.58	1042.25
766.763	1048.39
766.946	964.42
767.129	950.09
767.312	923.46
767.495	917.32
767.678	851.78
767.861	1036.1
768.044	1072.96
768.227	974.66
768.41	972.61
768.593	917.32
768.776	989
768.959	952.13
769.142	915.27
769.324	925.51
769.507	972.61
769.69	968.52
769.873	870.22
770.056	935.75
770.239	991.05
770.421	835.4
770.604	857.93
770.787	939.85
770.97	866.12
771.152	835.4
771.335	905.03
771.518	972.61
771.7	874.31
771.883	884.55
772.066	845.64
772.248	892.74
772.431	896.84
772.613	796.49
772.796	890.7
772.978	792.39
773.161	849.74
773.343	812.87
773.526	816.97
773.708	769.87
773.891	798.54
774.073	898.89
774.256	757.58
774.438	841.54
774.621	786.25
774.803	819.02
774.985	855.88
775.168	776.01
775.35	739.15
775.532	726.86
775.715	720.71
775.897	745.29
776.079	843.59
776.261	763.72
776.444	724.81
776.626	700.23
776.808	733
776.99	737.1
777.173	718.67
777.355	747.34
777.537	667.47
777.719	761.67
777.901	638.8
778.083	642.89
778.265	737.1
778.447	673.61
778.629	673.61
778.811	696.14
778.993	685.9
779.175	646.99
779.357	700.23
779.539	692.04
779.721	710.47
779.903	638.8
780.085	632.65
780.267	632.65
780.449	601.93
780.631	550.73
780.812	610.12
780.994	677.71
781.176	548.68
781.358	603.98
781.54	497.49
781.721	593.74
781.903	546.64
782.085	544.59
782.267	632.65
782.448	579.4
782.63	511.82
782.812	546.64
782.993	644.94
783.175	495.44
783.357	520.01
783.538	579.4
783.72	501.58
783.901	563.02
784.083	548.68
784.264	536.4
784.446	530.25
784.627	474.96
784.809	515.92
784.99	503.63
785.172	415.57
785.353	593.74
785.535	403.28
785.716	376.66
785.897	456.53
786.079	515.92
786.26	552.78
786.441	491.34
786.623	425.81
786.804	470.86
786.985	409.42
787.167	493.39
787.348	491.34
787.529	458.57
787.71	460.62
787.891	409.42
788.073	442.19
788.254	436.05
788.435	509.77
788.616	456.53
788.797	413.52
788.978	462.67
789.159	266.07
789.34	409.42
789.522	376.66
789.703	388.94
789.884	431.95
790.065	434
790.246	413.52
790.427	431.95
790.607	384.85
790.788	421.71
790.969	405.33
791.15	382.8
791.331	388.94
791.512	296.78
791.693	374.61
791.874	436.05
792.054	452.43
792.235	329.55
792.416	276.31
792.597	327.5
792.778	372.56
792.958	358.22
793.139	298.83
793.32	350.03
793.5	356.18
793.681	458.57
793.862	360.27
794.042	335.7
794.223	329.55
794.404	319.31
794.584	300.88
794.765	304.98
794.945	366.42
795.126	335.7
795.306	315.22
795.487	331.6
795.667	264.02
795.848	249.68
796.028	239.44
796.209	257.87
796.389	311.12
796.57	325.46
796.75	335.7
796.93	313.17
797.111	333.65
797.291	194.39
797.471	290.64
797.652	307.02
797.832	286.54
798.012	354.13
798.192	282.45
798.373	288.59
798.553	231.25
798.733	276.31
798.913	290.64
799.093	300.88
799.274	290.64
799.454	294.74
799.634	343.89
799.814	343.89
799.994	245.59
800.174	266.07
800.354	221.01
800.534	284.5
800.714	167.76
800.894	249.68
801.074	229.2
801.254	175.95
801.434	212.82
801.614	286.54
801.794	231.25
801.974	517.97
802.154	257.87
802.334	288.59
802.514	200.53
802.693	210.77
802.873	221.01
803.053	276.31
803.233	235.35
803.413	282.45
803.592	223.06
803.772	212.82
803.952	280.4
804.131	237.39
804.311	216.91
804.491	212.82
804.67	206.67
804.85	243.54
805.03	188.24
805.209	243.54
805.389	114.52
805.568	216.91
805.748	204.63
805.928	161.62
806.107	165.71
806.287	139.09
806.466	192.34
806.646	192.34
806.825	214.87
807.004	175.95
807.184	223.06
807.363	237.39
807.543	106.32
807.722	229.2
807.901	159.57
808.081	257.87
808.26	155.47
808.439	153.43
808.619	153.43
808.798	261.97
808.977	280.4
809.156	216.91
809.336	214.87
809.515	165.71
809.694	249.68
809.873	167.76
810.052	208.72
810.231	161.62
810.411	184.15
810.59	204.63
810.769	272.21
810.948	212.82
811.127	96.08
811.306	155.47
811.485	153.43
811.664	212.82
811.843	276.31
812.022	128.85
812.201	178
812.38	186.19
812.559	204.63
812.737	155.47
812.916	147.28
813.095	169.81
813.274	188.24
813.453	190.29
813.632	161.62
813.811	249.68
813.989	151.38
814.168	235.35
814.347	173.91
814.526	112.47
814.704	155.47
814.883	253.78
815.062	151.38
815.24	130.9
815.419	139.09
815.598	151.38
815.776	147.28
815.955	167.76
816.133	112.47
816.312	239.44
816.49	122.71
816.669	237.39
816.847	126.8
817.026	106.32
817.204	178
817.383	122.71
817.561	186.19
817.74	167.76
817.918	120.66
818.097	194.39
818.275	126.8
818.453	137.04
818.632	118.61
818.81	91.99
818.988	128.85
819.167	83.8
819.345	120.66
819.523	132.95
819.701	145.24
819.879	145.24
820.058	96.08
820.236	173.91
820.414	132.95
820.592	159.57
820.77	190.29
820.948	167.76
821.127	85.84
821.305	184.15
821.483	118.61
821.661	110.42
821.839	30.55
822.017	104.28
822.195	108.37
822.373	151.38
822.551	114.52
822.729	48.98
822.907	57.17
823.085	163.67
823.262	94.04
823.44	118.61
823.618	143.19
823.796	126.8
823.974	198.48
824.152	147.28
824.329	40.79
824.507	151.38
824.685	81.75
824.863	91.99
825.04	139.09
825.218	182.1
825.396	157.52
825.574	98.13
825.751	71.51
825.929	110.42
826.107	100.18
826.284	143.19
826.462	96.08
826.639	73.56
826.817	145.24
826.994	137.04
827.172	65.36
827.349	102.23
827.527	57.17
827.704	104.28
827.882	61.27
828.059	120.66
828.237	87.89
828.414	106.32
828.591	118.61
828.769	159.57
828.946	112.47
829.124	85.84
829.301	163.67
829.478	67.41
829.655	89.94
829.833	30.55
830.01	112.47
830.187	89.94
830.364	126.8
830.542	178
830.719	118.61
830.896	118.61
831.073	94.04
831.25	130.9
831.427	79.7
831.604	98.13
831.782	30.55
831.959	128.85
832.136	-43.18
832.313	94.04
832.49	85.84
832.667	102.23
832.844	57.17
833.021	75.6
833.198	59.22
833.374	30.55
833.551	81.75
833.728	130.9
833.905	149.33
834.082	59.22
834.259	73.56
834.436	40.79
834.612	32.6
834.789	3.93
834.966	65.36
835.143	155.47
835.319	30.55
835.496	75.6
835.673	24.4
835.85	44.88
836.026	75.6
836.203	124.76
836.38	-0.17
836.556	3.93
836.733	65.36
836.909	147.28
837.086	46.93
837.262	20.31
837.439	42.84
837.616	65.36
837.792	36.69
837.968	16.21
838.145	46.93
838.321	59.22
838.498	61.27
838.674	67.41
838.851	108.37
839.027	46.93
839.203	65.36
839.38	75.6
839.556	57.17
839.732	22.36
839.909	16.21
840.085	-0.17
840.261	61.27
840.437	132.95
840.614	53.08
840.79	98.13
840.966	73.56
841.142	57.17
841.318	57.17
841.494	79.7
841.671	98.13
841.847	1.88
842.023	18.26
842.199	106.32
842.375	16.21
842.551	12.12
842.727	-24.75
842.903	59.22
843.079	44.88
843.255	83.8
843.431	22.36
843.607	53.08
843.783	24.4
843.959	55.12
844.134	73.56
844.31	46.93
844.486	-0.17
844.662	94.04
844.838	30.55
845.013	40.79
845.189	24.4
845.365	61.27
845.541	-4.27
845.716	32.6
845.892	32.6
846.068	-18.6
846.244	22.36
846.419	34.64
846.595	14.17
846.77	87.89
846.946	67.41
847.122	3.93
847.297	67.41
847.473	75.6
847.648	22.36
847.824	40.79
847.999	8.02
848.175	85.84
848.35	22.36
848.526	73.56
848.701	94.04
848.876	28.5
849.052	46.93
849.227	98.13
849.403	10.07
849.578	14.17
849.753	38.74
849.929	112.47
850.104	38.74
850.279	57.17
850.454	42.84
850.63	87.89
850.805	-59.56
850.98	24.4
851.155	116.56
851.33	-24.75
851.505	38.74
851.681	44.88
851.856	38.74
852.031	5.97
852.206	55.12
852.381	53.08
852.556	-14.51
852.731	44.88
852.906	-2.22
853.081	-32.94
853.256	65.36
853.431	36.69
853.606	-47.27
853.781	55.12
853.956	24.4
854.131	69.46
854.305	-20.65
854.48	-30.89
854.655	-22.7
854.83	-4.27
855.005	20.31
855.18	-2.22
855.354	18.26
855.529	114.52
855.704	-26.79
855.879	-8.36
856.053	22.36
856.228	85.84
856.403	40.79
856.577	69.46
856.752	-10.41
856.926	10.07
857.101	-0.17
857.276	46.93
857.45	-10.41
857.625	130.9
857.799	63.32
857.974	36.69
858.148	-2.22
858.323	55.12
858.497	46.93
858.672	30.55
858.846	10.07
859.02	65.36
859.195	42.84
859.369	-26.79
859.543	-32.94
859.718	-8.36
859.892	-2.22
860.066	40.79
860.241	36.69
860.415	-45.23
860.589	-6.31
860.763	34.64
860.938	-43.18
861.112	55.12
861.286	-4.27
861.46	-43.18
861.634	22.36
861.808	34.64
861.982	-14.51
862.157	-16.55
862.331	12.12
862.505	-16.55
862.679	24.4
862.853	-4.27
863.027	-2.22
863.201	91.99
863.375	63.32
863.549	-10.41
863.722	14.17
863.896	3.93
864.07	55.12
864.244	10.07
864.418	83.8
864.592	28.5
864.766	40.79
864.939	53.08
865.113	28.5
865.287	-10.41
865.461	12.12
865.634	28.5
865.808	55.12
865.982	-37.03
866.156	8.02
866.329	40.79
866.503	53.08
866.676	57.17
866.85	5.97
867.024	38.74
867.197	44.88
867.371	98.13
867.544	18.26
867.718	1.88
867.891	26.45
868.065	-0.17
868.238	36.69
868.412	59.22
868.585	-24.75
868.759	-20.65
868.932	57.17
869.105	10.07
869.279	24.4
869.452	-22.7
869.625	-2.22
869.799	40.79
869.972	1.88
870.145	8.02
870.319	83.8
870.492	-49.32
870.665	-30.89
870.838	-69.8
871.011	-12.46
871.185	28.5
871.358	14.17
871.531	55.12
871.704	77.65
871.877	44.88
872.05	51.03
872.223	-20.65
872.396	40.79
872.569	16.21
872.742	8.02
872.915	81.75
873.088	-39.08
873.261	51.03
873.434	14.17
873.607	-67.75
873.78	-4.27
873.953	-0.17
874.126	-49.32
874.299	89.94
874.471	-16.55
874.644	32.6
874.817	-28.84
874.99	48.98
875.163	8.02
875.335	18.26
875.508	16.21
875.681	18.26
875.853	-22.7
876.026	30.55
876.199	28.5
876.371	-12.46
876.544	40.79
876.717	40.79
876.889	26.45
877.062	46.93
877.234	8.02
877.407	-34.99
877.579	-65.71
877.752	8.02
877.924	-22.7
878.097	53.08
878.269	91.99
878.442	-6.31
878.614	42.84
878.786	-39.08
878.959	71.51
879.131	16.21
879.303	-84.14
879.476	48.98
879.648	10.07
879.82	32.6
879.993	36.69
880.165	-20.65
880.337	-20.65
880.509	-16.55
880.681	28.5
880.854	-14.51
881.026	20.31
881.198	28.5
881.37	-12.46
881.542	1.88
881.714	-20.65
881.886	51.03
882.058	-32.94
882.23	32.6
882.402	22.36
882.574	65.36
882.746	12.12
882.918	73.56
883.09	18.26
883.262	-12.46
883.434	8.02
883.606	-10.41
883.778	30.55
883.95	-18.6
884.122	-6.31
884.293	20.31
884.465	-65.71
884.637	12.12
884.809	38.74
884.98	-20.65
885.152	-30.89
885.324	24.4
885.496	-45.23
885.667	3.93
885.839	-34.99
886.011	53.08
886.182	-67.75
886.354	20.31
886.525	36.69
886.697	18.26
886.869	20.31
887.04	26.45
887.212	38.74
887.383	40.79
887.555	28.5
887.726	-10.41
887.897	-4.27
888.069	1.88
888.24	16.21
888.412	-6.31
888.583	5.97
888.754	53.08
888.926	-51.37
889.097	-61.61
889.268	-8.36
889.44	-2.22
889.611	-43.18
889.782	5.97
889.953	-10.41
890.125	20.31
890.296	3.93
890.467	12.12
890.638	24.4
890.809	51.03
890.98	8.02
891.151	-2.22
891.323	46.93
891.494	-45.23
891.665	-26.79
891.836	89.94
892.007	14.17
892.178	-24.75
892.349	73.56
892.52	-69.8
892.691	-88.23
892.862	26.45
893.032	24.4
893.203	28.5
893.374	-12.46
893.545	-14.51
893.716	-22.7
893.887	-10.41
894.057	3.93
894.228	-20.65
894.399	-16.55
894.57	61.27
894.74	-32.94
894.911	30.55
895.082	-69.8
895.253	-69.8
895.423	-26.79
895.594	18.26
895.764	-22.7
895.935	1.88
896.106	5.97
896.276	5.97
896.447	3.93
896.617	-12.46
896.788	-8.36
896.958	-16.55
897.129	16.21
897.299	3.93
897.47	-12.46
897.64	46.93
897.81	14.17
897.981	12.12
898.151	-32.94
898.322	36.69
898.492	-16.55
898.662	-41.13
898.832	5.97
899.003	30.55
899.173	-49.32
899.343	-26.79
899.513	28.5
