Data from USB4F104151__63__11-37-26-200.txt Node

Date: Fri Mar 14 11:37:26 EDT 2025
User: louis
Spectrometer: USB4F10415
Trigger mode: 4
Integration Time (sec): 2.000000E-2
Scans to average: 1
Electric dark correction enabled: true
Nonlinearity correction enabled: false
Boxcar width: 0
XAxis mode: Wavelengths
Number of Pixels in Spectrum: 3648
>>>>>Begin Spectral Data<<<<<
178.204	-42.67
178.424	-42.67
178.644	-42.67
178.864	-100.01
179.084	-42.67
179.304	-42.67
179.524	20.82
179.744	78.16
179.964	-36.52
180.184	-30.38
180.404	47.44
180.624	22.87
180.844	-71.34
181.064	-3.75
181.283	-44.71
181.503	20.82
181.723	39.25
181.943	-38.57
182.163	26.96
182.383	14.68
182.602	6.49
182.822	22.87
183.042	47.44
183.262	22.87
183.482	-26.28
183.701	37.2
183.921	51.54
184.141	35.16
184.361	2.39
184.58	16.73
184.8	24.92
185.02	-63.15
185.239	-5.8
185.459	33.11
185.679	121.17
185.898	-34.47
186.118	-5.8
186.338	41.3
186.557	4.44
186.777	53.59
186.997	43.35
187.216	-42.67
187.436	18.77
187.655	61.78
187.875	29.01
188.095	-1.71
188.314	20.82
188.534	-28.33
188.753	-16.04
188.973	31.06
189.192	59.73
189.412	0.34
189.631	53.59
189.851	90.45
190.07	31.06
190.29	-7.85
190.509	-24.23
190.729	-26.28
190.948	55.64
191.168	39.25
191.387	78.16
191.607	16.73
191.826	80.21
192.045	18.77
192.265	-81.58
192.484	-20.14
192.704	-3.75
192.923	53.59
193.142	80.21
193.362	10.58
193.581	35.16
193.8	31.06
194.02	96.6
194.239	24.92
194.458	8.53
194.678	29.01
194.897	55.64
195.116	65.88
195.335	41.3
195.555	20.82
195.774	0.34
195.993	22.87
196.212	47.44
196.432	10.58
196.651	43.35
196.87	-9.9
197.089	43.35
197.308	55.64
197.528	59.73
197.747	6.49
197.966	-50.86
198.185	78.16
198.404	8.53
198.623	29.01
198.842	39.25
199.062	14.68
199.281	-11.95
199.5	88.4
199.719	31.06
199.938	10.58
200.157	-48.81
200.376	33.11
200.595	16.73
200.814	80.21
201.033	18.77
201.252	67.92
201.471	69.97
201.69	153.94
201.909	33.11
202.128	-48.81
202.347	41.3
202.566	-22.19
202.785	26.96
203.004	33.11
203.223	78.16
203.442	20.82
203.661	-63.15
203.879	39.25
204.098	51.54
204.317	22.87
204.536	43.35
204.755	49.49
204.974	18.77
205.193	31.06
205.411	63.83
205.63	31.06
205.849	88.4
206.068	92.5
206.287	22.87
206.505	39.25
206.724	-106.15
206.943	12.63
207.162	41.3
207.381	29.01
207.599	10.58
207.818	37.2
208.037	51.54
208.255	16.73
208.474	67.92
208.693	26.96
208.911	51.54
209.13	35.16
209.349	8.53
209.567	80.21
209.786	59.73
210.005	-20.14
210.223	8.53
210.442	-26.28
210.661	35.16
210.879	67.92
211.098	20.82
211.316	39.25
211.535	-24.23
211.753	-18.09
211.972	8.53
212.191	49.49
212.409	26.96
212.628	-26.28
212.846	6.49
213.065	47.44
213.283	12.63
213.502	-30.38
213.72	-13.99
213.938	143.7
214.157	63.83
214.375	74.07
214.594	63.83
214.812	129.36
215.031	51.54
215.249	0.34
215.467	8.53
215.686	26.96
215.904	12.63
216.122	41.3
216.341	41.3
216.559	18.77
216.778	84.31
216.996	106.84
217.214	0.34
217.432	2.39
217.651	149.84
217.869	74.07
218.087	-54.95
218.306	41.3
218.524	37.2
218.742	39.25
218.96	12.63
219.179	-9.9
219.397	135.51
219.615	115.03
219.833	26.96
220.051	-50.86
220.27	26.96
220.488	35.16
220.706	33.11
220.924	4.44
221.142	-9.9
221.36	14.68
221.578	65.88
221.796	82.26
222.015	-36.52
222.233	53.59
222.451	33.11
222.669	6.49
222.887	-36.52
223.105	-7.85
223.323	65.88
223.541	-9.9
223.759	78.16
223.977	61.78
224.195	47.44
224.413	67.92
224.631	31.06
224.849	-61.1
225.067	108.88
225.285	-38.57
225.503	-18.09
225.721	4.44
225.939	14.68
226.157	49.49
226.375	69.97
226.592	-22.19
226.81	-28.33
227.028	2.39
227.246	0.34
227.464	4.44
227.682	31.06
227.9	41.3
228.117	127.32
228.335	39.25
228.553	20.82
228.771	20.82
228.989	18.77
229.206	2.39
229.424	47.44
229.642	14.68
229.86	29.01
230.077	-9.9
230.295	84.31
230.513	115.03
230.731	84.31
230.948	57.68
231.166	55.64
231.384	16.73
231.601	69.97
231.819	51.54
232.037	76.12
232.254	-9.9
232.472	24.92
232.689	-13.99
232.907	125.27
233.125	12.63
233.342	90.45
233.56	-30.38
233.777	37.2
233.995	59.73
234.213	51.54
234.43	-57
234.648	104.79
234.865	14.68
235.083	43.35
235.3	-30.38
235.518	88.4
235.735	20.82
235.953	18.77
236.17	-42.67
236.388	22.87
236.605	88.4
236.822	63.83
237.04	14.68
237.257	26.96
237.475	-1.71
237.692	82.26
237.909	47.44
238.127	4.44
238.344	104.79
238.562	49.49
238.779	24.92
238.996	47.44
239.214	20.82
239.431	74.07
239.648	12.63
239.865	22.87
240.083	31.06
240.3	35.16
240.517	94.55
240.735	37.2
240.952	-26.28
241.169	61.78
241.386	12.63
241.603	61.78
241.821	14.68
242.038	-22.19
242.255	63.83
242.472	55.64
242.689	-50.86
242.907	61.78
243.124	22.87
243.341	-22.19
243.558	-18.09
243.775	-18.09
243.992	4.44
244.209	18.77
244.426	72.02
244.643	33.11
244.86	33.11
245.078	69.97
245.295	88.4
245.512	6.49
245.729	80.21
245.946	33.11
246.163	8.53
246.38	22.87
246.597	4.44
246.814	18.77
247.031	84.31
247.248	-38.57
247.464	26.96
247.681	-5.8
247.898	31.06
248.115	33.11
248.332	6.49
248.549	67.92
248.766	168.27
248.983	51.54
249.2	51.54
249.417	8.53
249.633	-3.75
249.85	6.49
250.067	-18.09
250.284	39.25
250.501	63.83
250.717	92.5
250.934	47.44
251.151	-18.09
251.368	-18.09
251.585	-11.95
251.801	43.35
252.018	-26.28
252.235	41.3
252.451	6.49
252.668	18.77
252.885	100.69
253.102	20.82
253.318	67.92
253.535	-30.38
253.752	-13.99
253.968	18.77
254.185	31.06
254.401	80.21
254.618	14.68
254.835	18.77
255.051	63.83
255.268	6.49
255.484	8.53
255.701	37.2
255.917	-44.71
256.134	-26.28
256.351	6.49
256.567	39.25
256.784	94.55
257	4.44
257.217	43.35
257.433	88.4
257.65	86.36
257.866	76.12
258.082	39.25
258.299	67.92
258.515	14.68
258.732	6.49
258.948	29.01
259.165	37.2
259.381	-18.09
259.597	2.39
259.814	67.92
260.03	10.58
260.246	-22.19
260.463	41.3
260.679	61.78
260.895	24.92
261.112	33.11
261.328	20.82
261.544	-20.14
261.761	45.4
261.977	-52.91
262.193	-34.47
262.409	37.2
262.626	41.3
262.842	29.01
263.058	-16.04
263.274	47.44
263.49	-5.8
263.707	20.82
263.923	8.53
264.139	-1.71
264.355	69.97
264.571	37.2
264.787	26.96
265.004	14.68
265.22	43.35
265.436	31.06
265.652	2.39
265.868	84.31
266.084	0.34
266.3	12.63
266.516	69.97
266.732	63.83
266.948	-13.99
267.164	-13.99
267.38	100.69
267.596	76.12
267.812	51.54
268.028	61.78
268.244	33.11
268.46	-28.33
268.676	10.58
268.892	31.06
269.108	16.73
269.324	20.82
269.54	47.44
269.756	39.25
269.972	-1.71
270.188	47.44
270.403	47.44
270.619	10.58
270.835	76.12
271.051	26.96
271.267	2.39
271.483	12.63
271.698	82.26
271.914	59.73
272.13	-38.57
272.346	69.97
272.562	98.64
272.777	88.4
272.993	31.06
273.209	61.78
273.425	69.97
273.64	-18.09
273.856	53.59
274.072	47.44
274.287	43.35
274.503	-1.71
274.719	84.31
274.934	47.44
275.15	39.25
275.366	-11.95
275.581	55.64
275.797	37.2
276.012	37.2
276.228	86.36
276.444	8.53
276.659	29.01
276.875	2.39
277.09	63.83
277.306	39.25
277.521	26.96
277.737	14.68
277.952	45.4
278.168	8.53
278.383	-1.71
278.599	2.39
278.814	51.54
279.03	18.77
279.245	39.25
279.461	53.59
279.676	43.35
279.892	-22.19
280.107	22.87
280.322	49.49
280.538	160.08
280.753	14.68
280.969	98.64
281.184	61.78
281.399	82.26
281.615	82.26
281.83	20.82
282.045	-16.04
282.26	-75.43
282.476	106.84
282.691	41.3
282.906	49.49
283.122	24.92
283.337	16.73
283.552	12.63
283.767	47.44
283.983	-20.14
284.198	-5.8
284.413	51.54
284.628	-5.8
284.843	47.44
285.058	-13.99
285.274	6.49
285.489	43.35
285.704	31.06
285.919	16.73
286.134	67.92
286.349	59.73
286.564	53.59
286.779	72.02
286.995	145.75
287.21	-18.09
287.425	57.68
287.64	37.2
287.855	20.82
288.07	37.2
288.285	65.88
288.5	29.01
288.715	39.25
288.93	-67.24
289.145	10.58
289.36	-26.28
289.575	10.58
289.79	49.49
290.004	72.02
290.219	-7.85
290.434	131.41
290.649	59.73
290.864	8.53
291.079	-54.95
291.294	57.68
291.509	86.36
291.724	57.68
291.938	12.63
292.153	47.44
292.368	16.73
292.583	22.87
292.798	45.4
293.012	33.11
293.227	2.39
293.442	20.82
293.657	-57
293.871	119.12
294.086	-1.71
294.301	141.65
294.516	80.21
294.73	39.25
294.945	-1.71
295.16	41.3
295.374	6.49
295.589	78.16
295.804	-3.75
296.018	39.25
296.233	100.69
296.447	10.58
296.662	78.16
296.877	43.35
297.091	72.02
297.306	55.64
297.52	63.83
297.735	14.68
297.949	26.96
298.164	61.78
298.378	18.77
298.593	10.58
298.807	39.25
299.022	61.78
299.236	61.78
299.451	51.54
299.665	61.78
299.88	82.26
300.094	-38.57
300.309	69.97
300.523	-9.9
300.737	26.96
300.952	-1.71
301.166	-9.9
301.381	-7.85
301.595	33.11
301.809	59.73
302.024	-3.75
302.238	69.97
302.452	82.26
302.667	59.73
302.881	-3.75
303.095	-22.19
303.309	55.64
303.524	18.77
303.738	20.82
303.952	24.92
304.166	49.49
304.381	47.44
304.595	-1.71
304.809	0.34
305.023	37.2
305.237	55.64
305.452	37.2
305.666	12.63
305.88	78.16
306.094	8.53
306.308	47.44
306.522	-1.71
306.736	61.78
306.95	43.35
307.164	24.92
307.379	110.93
307.593	53.59
307.807	41.3
308.021	22.87
308.235	35.16
308.449	39.25
308.663	22.87
308.877	-91.82
309.091	14.68
309.305	96.6
309.519	-50.86
309.733	55.64
309.947	2.39
310.161	80.21
310.374	-1.71
310.588	26.96
310.802	-9.9
311.016	22.87
311.23	-9.9
311.444	22.87
311.658	-18.09
311.872	55.64
312.085	80.21
312.299	80.21
312.513	-7.85
312.727	10.58
312.941	67.92
313.154	-1.71
313.368	0.34
313.582	104.79
313.796	51.54
314.009	82.26
314.223	31.06
314.437	123.22
314.651	53.59
314.864	76.12
315.078	39.25
315.292	88.4
315.505	47.44
315.719	33.11
315.933	59.73
316.146	80.21
316.36	41.3
316.573	51.54
316.787	37.2
317.001	82.26
317.214	78.16
317.428	4.44
317.641	-24.23
317.855	51.54
318.068	53.59
318.282	104.79
318.495	6.49
318.709	20.82
318.922	-9.9
319.136	-13.99
319.349	90.45
319.563	10.58
319.776	29.01
319.99	35.16
320.203	92.5
320.417	43.35
320.63	4.44
320.843	-32.43
321.057	35.16
321.27	119.12
321.483	45.4
321.697	39.25
321.91	-28.33
322.124	14.68
322.337	63.83
322.55	43.35
322.763	72.02
322.977	10.58
323.19	55.64
323.403	14.68
323.617	18.77
323.83	67.92
324.043	53.59
324.256	18.77
324.469	22.87
324.683	18.77
324.896	88.4
325.109	69.97
325.322	-1.71
325.535	78.16
325.748	69.97
325.962	78.16
326.175	12.63
326.388	2.39
326.601	63.83
326.814	49.49
327.027	-38.57
327.24	80.21
327.453	80.21
327.666	92.5
327.879	-9.9
328.092	100.69
328.305	65.88
328.518	57.68
328.731	2.39
328.944	51.54
329.157	41.3
329.37	26.96
329.583	94.55
329.796	51.54
330.009	14.68
330.222	47.44
330.435	63.83
330.648	10.58
330.861	-5.8
331.073	-1.71
331.286	67.92
331.499	43.35
331.712	72.02
331.925	31.06
332.138	24.92
332.35	33.11
332.563	72.02
332.776	16.73
332.989	76.12
333.202	49.49
333.414	-50.86
333.627	22.87
333.84	49.49
334.053	59.73
334.265	45.4
334.478	22.87
334.691	80.21
334.903	117.08
335.116	-3.75
335.329	53.59
335.541	104.79
335.754	37.2
335.966	72.02
336.179	26.96
336.392	39.25
336.604	139.6
336.817	55.64
337.029	108.88
337.242	-11.95
337.454	69.97
337.667	-9.9
337.88	63.83
338.092	26.96
338.305	86.36
338.517	29.01
338.729	92.5
338.942	39.25
339.154	84.31
339.367	2.39
339.579	2.39
339.792	37.2
340.004	35.16
340.217	41.3
340.429	41.3
340.641	-3.75
340.854	123.22
341.066	90.45
341.278	76.12
341.491	49.49
341.703	76.12
341.915	41.3
342.128	61.78
342.34	0.34
342.552	92.5
342.764	14.68
342.977	55.64
343.189	43.35
343.401	55.64
343.613	-26.28
343.826	26.96
344.038	2.39
344.25	104.79
344.462	18.77
344.674	41.3
344.886	-11.95
345.099	-3.75
345.311	39.25
345.523	80.21
345.735	6.49
345.947	6.49
346.159	69.97
346.371	51.54
346.583	10.58
346.795	100.69
347.007	-30.38
347.219	-24.23
347.431	67.92
347.643	92.5
347.855	-13.99
348.067	104.79
348.279	125.27
348.491	37.2
348.703	-22.19
348.915	53.59
349.127	6.49
349.339	18.77
349.551	20.82
349.763	53.59
349.975	26.96
350.187	88.4
350.399	-11.95
350.61	63.83
350.822	59.73
351.034	14.68
351.246	96.6
351.458	18.77
351.669	-22.19
351.881	72.02
352.093	47.44
352.305	76.12
352.517	22.87
352.728	69.97
352.94	14.68
353.152	-7.85
353.363	47.44
353.575	74.07
353.787	86.36
353.999	33.11
354.21	43.35
354.422	43.35
354.633	55.64
354.845	43.35
355.057	35.16
355.268	14.68
355.48	26.96
355.692	65.88
355.903	92.5
356.115	-1.71
356.326	-67.24
356.538	22.87
356.749	-42.67
356.961	43.35
357.172	59.73
357.384	-11.95
357.595	112.98
357.807	72.02
358.018	51.54
358.23	129.36
358.441	88.4
358.653	67.92
358.864	47.44
359.075	80.21
359.287	100.69
359.498	86.36
359.709	12.63
359.921	74.07
360.132	-32.43
360.344	51.54
360.555	14.68
360.766	24.92
360.977	31.06
361.189	100.69
361.4	-3.75
361.611	39.25
361.823	76.12
362.034	22.87
362.245	6.49
362.456	72.02
362.667	117.08
362.879	61.78
363.09	47.44
363.301	76.12
363.512	69.97
363.723	92.5
363.935	29.01
364.146	-52.91
364.357	22.87
364.568	37.2
364.779	14.68
364.99	74.07
365.201	-34.47
365.412	117.08
365.623	6.49
365.834	59.73
366.045	72.02
366.256	8.53
366.467	61.78
366.678	31.06
366.889	22.87
367.1	143.7
367.311	69.97
367.522	20.82
367.733	51.54
367.944	69.97
368.155	102.74
368.366	26.96
368.577	43.35
368.788	39.25
368.999	59.73
369.209	45.4
369.42	74.07
369.631	94.55
369.842	26.96
370.053	-50.86
370.264	119.12
370.474	41.3
370.685	45.4
370.896	49.49
371.107	55.64
371.317	18.77
371.528	20.82
371.739	20.82
371.95	-9.9
372.16	20.82
372.371	6.49
372.582	129.36
372.792	24.92
373.003	10.58
373.214	102.74
373.424	14.68
373.635	53.59
373.846	158.03
374.056	78.16
374.267	121.17
374.477	49.49
374.688	26.96
374.898	82.26
375.109	-1.71
375.319	74.07
375.53	86.36
375.74	53.59
375.951	43.35
376.161	74.07
376.372	33.11
376.582	8.53
376.793	74.07
377.003	33.11
377.214	45.4
377.424	39.25
377.635	43.35
377.845	72.02
378.055	47.44
378.266	78.16
378.476	96.6
378.686	63.83
378.897	10.58
379.107	37.2
379.317	92.5
379.528	57.68
379.738	69.97
379.948	90.45
380.158	135.51
380.369	26.96
380.579	-26.28
380.789	33.11
380.999	39.25
381.21	69.97
381.42	43.35
381.63	127.32
381.84	69.97
382.05	-3.75
382.261	100.69
382.471	29.01
382.681	14.68
382.891	29.01
383.101	59.73
383.311	12.63
383.521	63.83
383.731	72.02
383.941	96.6
384.151	78.16
384.361	31.06
384.571	112.98
384.781	65.88
384.991	16.73
385.201	110.93
385.411	55.64
385.621	51.54
385.831	26.96
386.041	63.83
386.251	72.02
386.461	80.21
386.671	51.54
386.881	-7.85
387.091	106.84
387.301	102.74
387.511	59.73
387.72	-1.71
387.93	61.78
388.14	82.26
388.35	80.21
388.56	108.88
388.769	14.68
388.979	45.4
389.189	96.6
389.399	59.73
389.609	67.92
389.818	-11.95
390.028	31.06
390.238	39.25
390.447	125.27
390.657	108.88
390.867	65.88
391.076	72.02
391.286	24.92
391.496	29.01
391.705	45.4
391.915	82.26
392.125	80.21
392.334	0.34
392.544	96.6
392.753	137.56
392.963	63.83
393.172	133.46
393.382	29.01
393.591	135.51
393.801	20.82
394.01	80.21
394.22	69.97
394.429	123.22
394.639	47.44
394.848	39.25
395.058	92.5
395.267	33.11
395.477	63.83
395.686	135.51
395.895	72.02
396.105	135.51
396.314	121.17
396.524	78.16
396.733	61.78
396.942	170.32
397.152	110.93
397.361	137.56
397.57	137.56
397.78	84.31
397.989	74.07
398.198	125.27
398.407	90.45
398.617	141.65
398.826	-1.71
399.035	82.26
399.244	102.74
399.453	92.5
399.663	129.36
399.872	121.17
400.081	141.65
400.29	198.99
400.499	125.27
400.708	147.8
400.917	33.11
401.127	133.46
401.336	151.89
401.545	219.47
401.754	164.18
401.963	129.36
402.172	92.5
402.381	153.94
402.59	88.4
402.799	51.54
403.008	158.03
403.217	135.51
403.426	149.84
403.635	139.6
403.844	125.27
404.053	127.32
404.262	100.69
404.471	125.27
404.68	160.08
404.888	196.95
405.097	203.09
405.306	129.36
405.515	233.81
405.724	115.03
405.933	211.28
406.142	121.17
406.35	248.15
406.559	221.52
406.768	186.71
406.977	223.57
407.185	172.37
407.394	276.82
407.603	139.6
407.812	244.05
408.02	268.63
408.229	205.14
408.438	287.06
408.646	276.82
408.855	239.95
409.064	256.34
409.272	276.82
409.481	258.39
409.69	301.39
409.898	307.54
410.107	282.96
410.315	344.4
410.524	330.06
410.733	336.21
410.941	432.46
411.15	409.94
411.358	375.12
411.567	389.46
411.775	399.7
411.984	434.51
412.192	381.26
412.401	483.66
412.609	409.94
412.818	520.53
413.026	463.18
413.234	457.04
413.443	473.42
413.651	495.95
413.86	600.4
414.068	538.96
414.276	721.23
414.485	604.49
414.693	694.6
414.901	676.17
415.11	817.48
415.318	665.93
415.526	715.08
415.734	678.22
415.943	821.58
416.151	833.86
416.359	817.48
416.567	829.77
416.776	971.08
416.984	1030.47
417.192	1014.09
417.4	1087.81
417.608	915.78
417.817	1014.09
418.025	1139.01
418.233	1141.06
418.441	1038.66
418.649	1161.54
418.857	1284.42
419.065	1198.4
419.273	1270.08
419.481	1296.71
419.689	1415.49
419.897	1446.21
420.105	1511.74
420.313	1583.42
420.521	1564.99
420.729	1773.88
420.937	1708.35
421.145	1700.16
421.353	1806.65
421.561	1976.63
421.769	1976.63
421.977	2091.32
422.185	2085.17
422.393	2167.09
422.601	2271.54
422.809	2249.01
423.017	2316.59
423.224	2515.25
423.432	2586.93
423.64	2550.06
423.848	2705.71
424.056	2738.48
424.263	2869.55
424.471	2853.16
424.679	2951.46
424.887	3060.01
425.094	3258.66
425.302	3119.4
425.51	3303.71
425.718	3455.26
425.925	3471.65
426.133	3627.29
426.341	3897.63
426.548	3959.06
426.756	3891.48
426.964	3997.98
427.171	4221.2
427.379	4342.04
427.586	4571.41
427.794	4671.76
428.001	4839.69
428.209	5015.82
428.417	4851.98
428.624	5396.74
428.832	5271.81
429.039	5212.42
429.247	5214.47
429.454	5855.48
429.662	5980.41
429.869	5589.25
430.076	6131.96
430.284	6000.89
430.491	6281.46
430.699	6680.82
430.906	6562.03
431.114	6695.15
431.321	6936.81
431.528	7016.68
431.736	7508.19
431.943	7880.93
432.15	7649.5
432.358	7837.92
432.565	8138.97
432.772	8181.98
432.979	8476.88
433.187	8589.52
433.394	8648.91
433.601	9367.75
433.808	9384.13
434.016	9302.22
434.223	9754.82
434.43	10221.75
434.637	10109.12
434.844	10649.78
435.052	10942.64
435.259	10809.52
435.466	11086
435.673	10748.08
435.88	11641
436.087	12044.45
436.294	12310.68
436.501	11911.33
436.708	12331.16
436.915	12834.96
437.122	13121.68
437.329	13283.47
437.537	13451.4
437.743	13817.99
437.95	13680.77
438.157	14397.56
438.364	15003.76
438.571	14827.64
438.778	15003.76
438.985	16373.85
439.192	15855.72
439.399	16187.49
439.606	15700.07
439.813	16838.74
440.02	17467.47
440.227	17373.26
440.433	17242.19
440.64	17883.2
440.847	17856.58
441.054	18360.38
441.261	19564.59
441.467	19157.04
441.674	19597.35
441.881	20234.27
442.088	19963.94
442.294	20064.29
442.501	20547.61
442.708	21114.9
442.914	21954.57
443.121	22425.6
443.328	22091.78
443.534	23908.33
443.741	23039.99
443.948	22552.57
444.154	24289.25
444.361	24084.45
444.568	24322.02
444.774	24569.82
444.981	24565.73
445.187	25378.77
445.394	26603.46
445.6	25966.54
445.807	28751.77
446.013	27502.51
446.22	28186.54
446.426	28739.49
446.633	29378.45
446.839	30246.79
447.046	28909.47
447.252	30646.15
447.459	31088.51
447.665	30433.16
447.871	31823.73
448.078	33118.04
448.284	31631.22
448.491	32905.06
448.697	34160.46
448.903	34705.22
449.11	34656.07
449.316	33982.29
449.522	34443.08
449.728	35481.4
449.935	35626.81
450.141	35897.14
450.347	36638.5
450.553	35718.96
450.76	36212.52
450.966	37091.1
451.172	36728.61
451.378	37627.67
451.584	36745
451.791	37799.7
451.997	37711.64
452.203	38508.3
452.409	38211.34
452.615	38022.93
452.821	36712.23
453.027	36831.01
453.233	38383.37
453.44	36986.66
453.646	37168.93
453.852	37369.63
454.058	38160.14
454.264	36730.66
454.47	37680.92
454.676	36953.89
454.882	37887.76
455.088	34791.23
455.294	35104.57
455.5	35864.37
455.705	36235.05
455.911	34744.13
456.117	33763.15
456.323	33630.04
456.529	31813.49
456.735	33152.86
456.941	32331.62
457.147	31666.03
457.352	30605.19
457.558	30594.95
457.764	30486.4
457.97	29833.1
458.176	29271.96
458.381	29585.3
458.587	27895.72
458.793	27803.57
458.999	26449.86
459.204	28313.51
459.41	27613.1
459.616	25972.68
459.821	25966.54
460.027	25677.77
460.233	25309.14
460.438	23873.51
460.644	24360.93
460.85	23179.25
461.055	22829.05
461.261	22927.35
461.466	21303.31
461.672	20727.83
461.878	22106.12
462.083	20191.27
462.289	20293.66
462.494	19685.42
462.7	19154.99
462.905	18518.07
463.111	19296.3
463.316	19050.55
463.522	18880.57
463.727	18663.48
463.932	18960.44
464.138	18645.05
464.343	18815.03
464.549	18010.18
464.754	18726.97
464.959	18399.29
465.165	18116.67
465.37	17533
465.575	16947.28
465.781	17975.36
465.986	17891.4
466.191	17217.61
466.397	16988.24
466.602	16109.66
466.807	16928.85
467.012	16728.15
467.218	16685.14
467.423	16369.76
467.628	16652.38
467.833	17217.61
468.038	16494.68
468.244	16050.27
468.449	16826.45
468.654	16425.05
468.859	16175.2
469.064	16093.28
469.269	15542.38
469.474	15695.97
469.679	15851.62
469.885	15212.65
470.09	15667.3
470.295	15530.09
470.5	15153.26
470.705	15110.25
470.91	14839.92
471.115	14635.13
471.32	14870.64
471.525	14655.61
471.73	14680.18
471.935	14344.31
472.139	14203
472.344	13879.43
472.549	14178.43
472.754	13850.75
472.959	13658.24
473.164	13222.03
473.369	13275.27
473.574	13596.81
473.778	13467.78
473.983	13551.75
474.188	13324.43
474.393	12658.84
474.598	12791.95
474.802	12572.82
475.007	12439.7
475.212	12468.38
475.417	12079.26
475.621	12142.75
475.826	12245.15
476.031	11886.75
476.235	11794.59
476.44	11665.57
476.645	11622.56
476.849	11886.75
477.054	11456.68
477.259	11421.86
477.463	11425.96
477.668	11145.39
477.872	11298.98
478.077	10971.31
478.282	10743.99
478.486	10733.75
478.691	10805.42
478.895	10682.55
479.1	10508.47
479.304	10569.91
479.509	10135.74
479.713	10526.9
479.918	10279.1
480.122	10033.34
480.326	10275
480.531	10326.2
480.735	10080.44
480.94	9935.04
481.144	10301.62
481.348	9674.95
481.553	10225.85
481.757	9662.66
481.961	9998.52
482.166	9877.69
482.37	9787.58
482.574	9547.97
482.778	9758.91
482.983	9781.44
483.187	9720
483.391	9830.59
483.595	9382.09
483.8	9709.76
484.004	9752.77
484.208	9709.76
484.412	9912.51
484.616	9715.91
484.821	9730.24
485.025	9773.25
485.229	9887.93
485.433	9750.72
485.637	9791.68
485.841	9695.43
486.045	9771.2
486.249	9713.86
486.453	9771.2
486.657	9640.13
486.861	9951.42
487.065	9484.48
487.269	9713.86
487.473	9601.22
487.677	9830.59
487.881	9838.78
488.085	9894.08
488.289	9799.87
488.493	9482.44
488.697	9976
488.901	9756.86
489.105	9724.1
489.309	9750.72
489.512	9742.53
489.716	10117.31
489.92	9863.36
490.124	9828.54
490.328	10076.35
490.531	9988.28
490.735	9982.14
490.939	9998.52
491.143	9861.31
491.346	9998.52
491.55	10213.56
491.754	10057.92
491.958	10068.16
492.161	10100.92
492.365	10328.25
492.569	10367.16
492.772	10330.3
492.976	10270.9
493.18	10571.96
493.383	10442.93
493.587	10463.41
493.79	10852.53
493.994	10463.41
494.197	10786.99
494.401	10918.06
494.605	10797.23
494.808	11077.8
495.012	10739.89
495.215	11139.24
495.419	11284.65
495.622	11024.56
495.825	11307.18
496.029	11425.96
496.232	11466.92
496.436	11407.53
496.639	11794.59
496.843	11743.39
497.046	12120.22
497.249	12019.87
497.453	11890.85
497.656	12320.92
497.859	12243.1
498.063	12454.04
498.266	12634.26
498.469	12843.15
498.673	12718.23
498.876	12980.37
499.079	13207.69
499.282	13025.42
499.485	13410.44
499.689	13133.96
499.892	13719.68
500.095	13658.24
500.298	14147.71
500.501	14028.93
500.705	14444.66
500.908	14653.56
501.111	14594.17
501.314	14747.76
501.517	15114.35
501.72	14956.66
501.923	15243.37
502.126	15521.9
502.329	15841.38
502.532	15489.13
502.735	15644.77
502.938	16158.81
503.141	16240.73
503.344	16312.41
503.547	16453.72
503.75	16687.19
503.953	16918.61
504.156	16953.43
504.359	17332.3
504.562	17160.27
504.765	17578.06
504.968	17963.08
505.17	17950.79
505.373	18108.48
505.576	18274.37
505.779	18884.66
505.982	18634.81
506.185	19003.44
506.387	18909.24
506.59	19165.23
506.793	19527.72
506.996	19470.38
507.198	19998.76
507.401	20013.09
507.604	20101.15
507.807	20742.17
508.009	20742.17
508.212	20684.83
508.415	21026.84
508.617	21518.35
508.82	21454.86
509.022	21499.92
509.225	21876.74
509.428	22161.41
509.63	22712.31
509.833	22405.12
510.035	23044.09
510.238	22695.93
510.44	23255.03
510.643	23195.64
510.845	23693.29
511.048	23646.19
511.25	24143.84
511.453	23937
511.655	25047
511.858	24598.49
512.06	24637.41
512.262	24844.25
512.465	24907.74
512.667	25608.14
512.87	25962.44
513.072	25944.01
513.274	26304.45
513.477	26535.87
513.679	26587.07
513.881	26765.24
514.084	27262.9
514.286	27656.11
514.488	27819.95
514.69	28387.24
514.893	28331.94
515.095	28272.55
515.297	28884.89
515.499	28612.51
515.701	28962.72
515.904	29433.75
516.106	29566.87
516.308	29769.62
516.51	30203.78
516.712	30087.05
516.914	30611.33
517.116	30896
517.318	30871.42
517.52	31100.79
517.722	31063.93
517.925	31940.46
518.127	32120.68
518.329	31977.33
518.531	32192.36
518.733	32579.43
518.935	32900.96
519.136	32792.42
519.338	33490.77
519.54	33351.51
519.742	33883.98
519.944	33972.05
520.146	34588.49
520.348	34561.86
520.55	34621.25
520.752	35098.43
520.954	35432.25
521.155	35213.12
521.357	35602.23
521.559	35934
521.761	36233
521.963	36638.5
522.164	36759.33
522.366	36732.71
522.568	37304.09
522.77	37121.82
522.971	37459.74
523.173	37371.68
523.375	37781.27
523.576	37609.24
523.778	38115.09
523.98	38496.01
524.181	38600.46
524.383	38176.53
524.584	39337.73
524.786	39048.96
524.988	38702.85
525.189	39128.83
525.391	39343.87
525.592	39522.04
525.794	40242.93
525.995	39784.18
526.197	40281.84
526.398	40044.27
526.6	40374
526.801	40113.91
527.003	40509.16
527.204	40224.5
527.406	41180.9
527.607	41000.68
527.808	41461.47
528.01	40513.26
528.211	41012.96
528.412	41844.44
528.614	41397.98
528.815	41434.85
529.016	41959.13
529.218	41696.99
529.419	41680.6
529.62	41973.46
529.822	41500.38
530.023	41447.13
530.224	41783
530.425	42129.11
530.626	41547.48
530.828	41645.79
531.029	42536.65
531.23	41791.19
531.431	41987.8
531.632	42481.36
531.833	42720.97
532.035	42329.81
532.236	42346.19
532.437	42712.78
532.638	42436.3
532.839	42698.44
533.04	42667.72
533.241	42434.25
533.442	43110.08
533.643	42696.39
533.844	42438.35
534.045	42606.28
534.246	42559.18
534.447	42829.51
534.648	42696.39
534.849	42714.83
535.05	42702.54
535.251	43065.03
535.451	42317.52
535.652	42966.73
535.853	42749.64
536.054	42688.2
536.255	43019.97
536.456	42499.79
536.657	43558.59
536.857	42241.74
537.058	42866.38
537.259	43136.71
537.46	42966.73
537.66	42749.64
537.861	43159.23
538.062	42677.96
538.263	42802.89
538.463	42725.07
538.664	42454.73
538.865	42823.37
539.065	43048.64
539.266	42376.91
539.466	42751.69
539.667	42133.2
539.868	43177.67
540.068	42505.93
540.269	42333.9
540.469	42774.22
540.67	42526.41
540.87	42614.48
541.071	42200.79
541.271	42671.82
541.472	42491.6
541.672	42381.01
541.873	42317.52
542.073	41932.5
542.274	42557.13
542.474	42350.29
542.675	42342.1
542.875	42878.66
543.075	42321.62
543.276	42096.34
543.476	42409.68
543.676	42655.43
543.877	42837.7
544.077	42624.71
544.277	42065.62
544.478	42329.81
544.678	42606.28
544.878	42602.19
545.078	42192.59
545.279	42196.69
545.479	42573.52
545.679	42383.05
545.879	42579.66
546.079	42241.74
546.28	42249.94
546.48	42331.86
546.68	41969.36
546.88	42264.27
547.08	42591.95
547.28	42610.38
547.48	41731.8
547.68	42354.38
547.88	41889.49
548.081	42376.91
548.281	42079.96
548.481	41928.41
548.681	42534.6
548.881	42010.32
549.081	42094.29
549.28	41854.68
549.48	42151.63
549.68	41860.82
549.88	42718.92
550.08	41936.6
550.28	42313.42
550.48	41889.49
550.68	42514.12
550.88	41805.53
551.08	41815.77
551.279	42245.84
551.479	41389.79
551.679	41842.39
551.879	41719.51
552.079	42034.9
552.278	42049.24
552.478	41848.53
552.678	41768.66
552.878	41864.92
553.077	41783
553.277	41707.22
553.477	42299.09
553.676	41531.1
553.876	41961.17
554.076	41721.56
554.275	41316.06
554.475	41426.65
554.674	41590.49
554.874	41914.07
555.074	41699.03
555.273	41516.76
555.473	41268.96
555.672	41301.73
555.872	41576.15
556.071	41465.56
556.271	41815.77
556.47	41328.35
556.67	40982.24
556.869	41117.41
557.068	41238.24
557.268	41010.92
557.467	41098.98
557.667	41072.35
557.866	40926.95
558.065	40986.34
558.265	40881.89
558.464	40576.75
558.663	41496.28
558.863	40308.46
559.062	41336.54
559.261	40365.81
559.461	41176.8
559.66	40537.83
559.859	40644.33
560.058	40402.67
560.258	40247.02
560.457	40083.19
560.656	40597.23
560.855	40281.84
561.054	40255.22
561.253	40324.85
561.453	40314.61
561.652	40042.23
561.851	40333.04
562.05	40361.71
562.249	39993.08
562.448	40306.41
562.647	40378.09
562.846	39857.91
563.045	40122.1
563.244	39423.74
563.443	40046.32
563.642	39589.63
563.841	39948.02
564.04	39651.06
564.239	39964.4
564.438	39272.19
564.637	39855.86
564.836	39829.24
565.035	39186.18
565.234	39247.61
565.432	38985.47
565.631	38878.98
565.83	39333.63
566.029	38788.87
566.228	38862.6
566.427	38993.67
566.625	38917.89
566.824	38631.18
567.023	38903.56
567.222	38295.31
567.42	38833.92
567.619	38754.05
567.818	38864.64
568.016	38862.6
568.215	38805.25
568.414	38258.45
568.612	38428.43
568.811	38194.96
569.01	37984.02
569.208	37961.49
569.407	37902.1
569.605	37678.87
569.804	38299.4
570.002	37914.39
570.201	37867.28
570.4	37334.81
570.598	37232.41
570.797	37381.91
570.995	37992.21
571.193	37052.19
571.392	37429.02
571.59	37164.83
571.789	37254.94
571.987	37228.32
572.186	37265.18
572.384	36785.96
572.582	37185.31
572.781	36876.07
572.979	36489
573.177	36710.18
573.376	36986.66
573.574	36421.42
573.772	36808.48
573.971	36056.88
574.169	36267.82
574.367	36126.51
574.565	36212.52
574.763	36103.98
574.962	35815.22
575.16	35540.79
575.358	36210.48
575.556	35749.68
575.754	35962.67
575.952	35508.02
576.151	35809.07
576.349	35598.13
576.547	35430.2
576.745	35395.39
576.943	35297.08
577.141	34869.06
577.339	35254.08
577.537	35082.05
577.735	35288.89
577.933	34725.7
578.131	35090.24
578.329	34613.06
578.527	34709.32
578.725	34484.04
578.923	35018.56
579.121	34408.26
579.319	34631.49
579.516	34803.52
579.714	34594.63
579.912	34326.35
580.11	34090.83
580.308	34176.84
580.506	33990.48
580.704	33519.45
580.901	33701.72
581.099	34084.69
581.297	33673.04
581.495	33503.06
581.692	33288.03
581.89	33513.3
582.088	33339.22
582.285	33183.58
582.483	33324.89
582.681	33292.12
582.878	32874.34
583.076	32970.59
583.274	33177.44
583.471	32749.41
583.669	32845.66
583.866	32331.62
584.064	32989.02
584.262	32505.7
584.459	32655.2
584.657	32302.95
584.854	32724.83
585.052	31774.58
585.249	32071.53
585.447	32184.17
585.644	31598.45
585.841	31774.58
586.039	32218.99
586.236	31768.43
586.434	31655.79
586.631	31580.02
586.828	31588.21
587.026	31262.58
587.223	31219.58
587.42	31158.14
587.618	31367.03
587.815	30857.09
588.012	31033.21
588.21	30840.7
588.407	31254.39
588.604	30701.44
588.801	30570.37
588.999	30674.82
589.196	30621.57
589.393	30549.89
589.59	30095.24
589.787	30377.86
589.984	30365.57
590.182	29929.36
590.379	30164.87
590.576	29654.93
590.773	30211.98
590.97	29505.43
591.167	29900.69
591.364	29411.22
591.561	29581.2
591.758	29681.55
591.955	29429.65
592.152	29331.35
592.349	29337.49
592.546	29136.79
592.743	29144.98
592.94	28616.61
593.137	28952.48
593.334	28870.56
593.531	28456.87
593.727	28737.44
593.924	28659.62
594.121	28526.5
594.318	28645.28
594.515	28067.75
594.712	29001.63
594.908	28168.1
595.105	28399.52
595.302	27836.33
595.499	27959.21
595.696	27465.65
595.892	27836.33
596.089	27606.96
596.286	27928.49
596.482	27828.14
596.679	27600.82
596.876	27434.93
597.072	27172.79
597.269	27320.24
597.466	27137.98
597.662	26855.36
597.859	27144.12
598.055	27180.98
598.252	26625.98
598.448	26841.02
598.645	26718.14
598.841	26351.56
599.038	26392.51
599.234	26630.08
599.431	26202.05
599.627	26353.6
599.824	26322.88
600.02	26224.58
600.217	26283.97
600.413	26165.19
600.609	25690.06
600.806	26056.65
601.002	25872.33
601.198	25718.73
601.395	25849.8
601.591	25614.29
601.787	25440.21
601.984	25569.23
602.18	25745.36
602.376	25173.97
602.572	25190.36
602.769	24885.21
602.965	25202.64
603.161	25014.23
603.357	25100.25
603.553	24748
603.75	24825.82
603.946	24588.25
604.142	24897.5
604.338	24281.06
604.534	24371.17
604.73	24324.07
604.926	24160.23
605.122	24633.31
605.318	24195.04
605.514	24213.48
605.71	23959.53
605.906	23994.34
606.102	23932.9
606.298	23846.89
606.494	23984.1
606.69	23797.74
606.886	23992.3
607.082	23531.5
607.278	24158.18
607.474	23238.64
607.67	23887.85
607.866	23445.49
608.062	23668.72
608.257	23105.52
608.453	23334.9
608.649	23390.19
608.845	23052.28
609.041	23226.35
609.236	23212.02
609.432	23121.91
609.628	23037.94
609.824	23195.64
610.019	22988.79
610.215	22839.29
610.411	22943.74
610.606	22824.95
610.802	22720.51
610.998	22661.12
611.193	22892.54
611.389	22585.34
611.584	22650.88
611.78	22548.48
611.976	22720.51
612.171	22482.94
612.367	22634.49
612.562	21991.43
612.758	21985.29
612.953	22145.03
613.149	22394.88
613.344	22214.66
613.539	22360.06
613.735	22384.64
613.93	22249.47
614.126	22128.64
614.321	22183.94
614.517	22040.58
614.712	22048.77
614.907	21868.55
615.103	21825.54
615.298	21829.64
615.493	21817.35
615.688	21569.55
615.884	21934.09
616.079	21702.67
616.274	21854.22
616.47	21680.14
616.665	21303.31
616.86	21184.53
617.055	21387.28
617.25	21454.86
617.445	21454.86
617.641	21018.64
617.836	21135.38
618.031	21205.01
618.226	21297.17
618.421	20987.93
618.616	21205.01
618.811	20863
619.006	21098.52
619.201	20437.02
619.396	21176.34
619.591	20408.35
619.786	20607
619.981	20150.31
620.176	20508.7
620.371	20301.86
620.566	20373.53
620.761	19808.3
620.956	20193.31
621.151	19898.41
621.346	20017.19
621.541	19705.9
621.735	19648.55
621.93	19666.99
622.125	19613.74
622.32	19128.37
622.515	19537.96
622.709	19126.32
622.904	19314.73
623.099	19120.18
623.294	19046.45
623.488	18692.15
623.683	18862.13
623.878	18499.64
624.072	18620.47
624.267	18520.12
624.462	18309.18
624.656	18006.08
624.851	18303.04
625.046	18260.03
625.24	18012.23
625.435	18069.57
625.629	17905.73
625.824	17834.05
626.018	17928.26
626.213	17684.55
626.407	17385.55
626.602	17403.98
626.796	17299.53
626.991	17545.29
627.185	17092.69
627.38	17008.72
627.574	16853.08
627.768	16771.16
627.963	16744.53
628.157	16654.42
628.352	16781.4
628.546	16416.86
628.74	16543.83
628.935	16156.77
629.129	16334.94
629.323	16095.33
629.517	16152.67
629.712	15827.04
629.906	15861.86
630.1	15734.89
630.294	15904.87
630.489	15573.1
630.683	15544.42
630.877	15448.17
631.071	15356.01
631.265	15530.09
631.459	14989.42
631.653	15196.27
631.848	15114.35
632.042	14784.63
632.236	15106.16
632.43	14608.5
632.624	14833.78
632.818	14659.7
633.012	14512.25
633.206	14567.54
633.4	14354.55
633.594	14450.81
633.788	14196.86
633.982	14286.97
634.176	14116.99
634.369	13736.07
634.563	13922.43
634.757	13912.19
634.951	13901.95
635.145	13912.19
635.339	13770.88
635.533	13426.82
635.726	13508.74
635.92	13353.1
636.114	13518.98
636.308	13219.98
636.501	13328.52
636.695	13250.7
636.889	13160.59
637.083	13193.36
637.276	12984.46
637.47	12986.51
637.664	12923.02
637.857	12818.58
638.051	12777.62
638.244	12505.24
638.438	12658.84
638.632	12654.74
638.825	12683.41
639.019	12347.54
639.212	12374.17
639.406	12198.04
639.599	12423.32
639.793	12533.91
639.986	11966.62
640.18	12269.72
640.373	12001.44
640.567	11907.23
640.76	11770.02
640.954	11737.25
641.147	11903.14
641.34	11630.76
641.534	11567.27
641.727	11606.18
641.92	11581.6
642.114	11294.89
642.307	11288.75
642.5	11155.63
642.694	11303.08
642.887	11272.36
643.08	11147.44
643.273	11200.68
643.467	11260.07
643.66	11169.96
643.853	10934.45
644.046	10684.59
644.239	10905.77
644.432	10657.97
644.626	10737.84
644.819	10604.72
645.012	10838.19
645.205	10670.26
645.398	10590.39
645.591	10586.29
645.784	10342.58
645.977	10254.52
646.17	10205.37
646.363	9969.85
646.556	10057.92
646.749	10021.05
646.942	10084.54
647.135	10019
647.328	10059.96
647.521	9883.84
647.714	9828.54
647.907	9906.37
648.099	9597.12
648.292	9711.81
648.485	9767.1
648.678	9382.09
648.871	9531.59
649.064	9373.89
649.256	9408.71
649.449	9298.12
649.642	9377.99
649.835	9183.43
650.027	9134.28
650.22	9171.15
650.413	9234.63
650.605	9050.32
650.798	9072.84
650.991	8984.78
651.183	9111.75
651.376	8827.09
651.568	8784.08
651.761	8812.75
651.954	8843.47
652.146	8755.41
652.339	8876.24
652.531	8624.34
652.724	8673.49
652.916	8419.54
653.109	8501.46
653.301	8417.49
653.494	8509.65
653.686	8179.93
653.879	8354.01
654.071	8093.91
654.263	8124.63
654.456	8032.47
654.648	8132.83
654.84	7921.88
655.033	7989.47
655.225	7825.63
655.417	7960.8
655.61	7854.3
655.802	7788.77
655.994	7825.63
656.186	7702.75
656.379	7751.9
656.571	7917.79
656.763	7645.41
656.955	7500
657.148	7639.26
657.34	7655.65
657.532	7448.8
657.724	7332.07
657.916	7475.43
658.108	7354.6
658.3	7272.68
658.492	7354.6
658.684	7284.97
658.876	7219.43
659.068	7178.47
659.26	7010.54
659.452	7100.65
659.644	7090.41
659.836	7018.73
660.028	7112.94
660.22	6766.83
660.412	6799.6
660.604	6783.21
660.796	6721.77
660.988	6920.43
661.18	6701.3
661.372	6646
661.563	6519.03
661.755	6572.27
661.947	6654.19
662.139	6643.95
662.331	6512.88
662.522	6480.11
662.714	6402.29
662.906	6273.27
663.097	6369.52
663.289	6234.36
663.481	6314.23
663.673	6271.22
663.864	6377.72
664.056	6189.3
664.247	6279.41
664.439	6220.02
664.631	5929.21
664.822	6041.85
665.014	6070.52
665.205	6007.03
665.397	6041.85
665.588	5959.93
665.78	6082.81
665.971	5869.82
666.163	5808.38
666.354	5921.02
666.546	5964.03
666.737	5681.41
666.929	5638.4
667.12	5828.86
667.311	5753.09
667.503	5554.43
667.694	5591.3
667.885	5732.61
668.077	5806.33
668.268	5611.78
668.459	5658.88
668.651	5447.94
668.842	5480.71
669.033	5495.04
669.224	5447.94
669.416	5306.63
669.607	5341.44
669.798	5204.23
669.989	5361.92
670.18	5294.34
670.371	5304.58
670.563	5290.24
670.754	5234.95
670.945	5064.97
671.136	5210.37
671.327	5134.6
671.518	5097.74
671.709	5026.06
671.9	5116.17
672.091	5048.58
672.282	4993.29
672.473	4991.24
672.664	4933.9
672.855	4925.71
673.046	4925.71
673.237	4950.28
673.428	4854.03
673.619	4858.12
673.809	4786.44
674	4749.58
674.191	4952.33
674.382	4733.2
674.573	4722.96
674.764	4790.54
674.954	4692.24
675.145	4649.23
675.336	4876.55
675.527	4794.64
675.717	4772.11
675.908	4729.1
676.099	4557.07
676.289	4548.88
676.48	4585.74
676.671	4634.89
676.861	4569.36
677.052	4514.06
677.243	4565.26
677.433	4473.11
677.624	4518.16
677.814	4354.32
678.005	4462.87
678.195	4444.43
678.386	4473.11
678.576	4526.35
678.767	4487.44
678.957	4421.91
679.148	4514.06
679.338	4323.6
679.529	4485.39
679.719	4352.27
679.909	4612.37
680.1	4446.48
680.29	4372.75
680.481	4292.88
680.671	4268.31
680.861	4292.88
681.052	4319.51
681.242	4213.01
681.432	4262.16
681.622	4264.21
681.813	4313.36
682.003	4264.21
682.193	4102.42
682.383	4202.77
682.573	4149.53
682.764	4098.33
682.954	4194.58
683.144	4239.64
683.334	4077.85
683.524	4135.19
683.714	4040.98
683.904	4178.2
684.094	4225.3
684.284	3985.69
684.474	4002.07
684.664	3965.21
684.854	4081.94
685.044	4096.28
685.234	3981.59
685.424	3899.67
685.614	3930.39
685.804	3895.58
685.994	3916.06
686.184	3830.04
686.374	3782.94
686.564	3850.52
686.753	3965.21
686.943	3758.36
687.133	3909.91
687.323	3860.76
687.513	3844.38
687.702	3703.07
687.892	3741.98
688.082	3709.21
688.272	3733.79
688.461	3686.69
688.651	3690.78
688.841	3713.31
689.03	3565.85
689.22	3617.05
689.41	3576.09
689.599	3451.17
689.789	3537.18
689.979	3572
690.168	3572
690.358	3461.41
690.547	3508.51
690.737	3524.9
690.926	3414.31
691.116	3432.74
691.305	3363.11
691.495	3543.33
691.684	3422.5
691.874	3524.9
692.063	3418.4
692.252	3318.05
692.442	3352.87
692.631	3275.04
692.82	3270.95
693.01	3252.52
693.199	3348.77
693.388	3197.22
693.578	3076.39
693.767	3197.22
693.956	3275.04
694.146	3141.93
694.335	3172.64
694.524	3152.17
694.713	3086.63
694.902	3143.97
695.092	3074.34
695.281	3133.73
695.47	3088.68
695.659	2908.46
695.848	2986.28
696.037	2941.22
696.226	2986.28
696.415	2945.32
696.604	3121.45
696.793	3012.9
696.982	3094.82
697.171	2988.33
697.36	2869.55
697.549	2941.22
697.738	2853.16
697.927	2986.28
698.116	2943.27
698.305	2853.16
698.494	2961.7
698.683	2820.39
698.872	2799.91
699.061	2879.79
699.25	2847.02
699.438	2853.16
699.627	2806.06
699.816	2926.89
700.005	2824.49
700.193	2859.31
700.382	2689.32
700.571	2689.32
700.76	2781.48
700.948	2724.14
701.137	2761
701.326	2826.54
701.514	2769.2
701.703	2728.24
701.892	2658.6
702.08	2763.05
702.269	2820.39
702.457	2636.08
702.646	2726.19
702.834	2652.46
703.023	2730.28
703.212	2701.61
703.4	2634.03
703.589	2642.22
703.777	2840.87
703.965	2668.84
704.154	2642.22
704.342	2591.02
704.531	2746.67
704.719	2603.31
704.907	2758.96
705.096	2607.41
705.284	2601.26
705.472	2648.36
705.661	2650.41
705.849	2576.69
706.037	2586.93
706.226	2619.69
706.414	2662.7
706.602	2472.24
706.79	2623.79
706.979	2574.64
707.167	2570.54
707.355	2582.83
707.543	2523.44
707.731	2566.45
707.919	2462
708.107	2564.4
708.296	2545.97
708.484	2398.51
708.672	2451.76
708.86	2490.67
709.048	2402.61
709.236	2560.3
709.424	2437.42
709.612	2435.38
709.8	2457.9
709.988	2445.62
710.176	2478.38
710.364	2527.53
710.551	2369.84
710.739	2552.11
710.927	2468.14
711.115	2535.73
711.303	2576.69
711.491	2562.35
711.679	2468.14
711.866	2308.4
712.054	2603.31
712.242	2390.32
712.43	2455.86
712.617	2554.16
712.805	2453.81
712.993	2500.91
713.181	2455.86
713.368	2418.99
713.556	2595.12
713.744	2545.97
713.931	2505.01
714.119	2390.32
714.306	2398.51
714.494	2414.9
714.682	2402.61
714.869	2437.42
715.057	2509.1
715.244	2359.6
715.432	2386.22
715.619	2408.75
715.807	2513.2
715.994	2443.57
716.182	2435.38
716.369	2437.42
716.556	2494.77
716.744	2332.98
716.931	2400.56
717.119	2382.13
717.306	2588.97
717.493	2576.69
717.681	2486.58
717.868	2529.58
718.055	2439.47
718.242	2488.62
718.43	2511.15
718.617	2459.95
718.804	2535.73
718.991	2464.05
719.179	2505.01
719.366	2322.74
719.553	2486.58
719.74	2429.23
719.927	2390.32
720.114	2449.71
720.301	2470.19
720.488	2382.13
720.676	2494.77
720.863	2421.04
721.05	2429.23
721.237	2361.65
721.424	2441.52
721.611	2439.47
721.798	2502.96
721.985	2441.52
722.172	2414.9
722.358	2337.07
722.545	2455.86
722.732	2398.51
722.919	2541.87
723.106	2343.22
723.293	2490.67
723.48	2330.93
723.667	2396.46
723.853	2400.56
724.04	2525.49
724.227	2283.83
724.414	2408.75
724.6	2390.32
724.787	2382.13
724.974	2310.45
725.161	2455.86
725.347	2363.7
725.534	2410.8
725.72	2396.46
725.907	2367.79
726.094	2421.04
726.28	2517.29
726.467	2285.87
726.653	2322.74
726.84	2425.14
727.027	2523.44
727.213	2347.31
727.4	2511.15
727.586	2304.31
727.773	2394.42
727.959	2361.65
728.145	2545.97
728.332	2367.79
728.518	2328.88
728.705	2375.99
728.891	2429.23
729.077	2369.84
729.264	2328.88
729.45	2386.22
729.636	2474.29
729.823	2326.83
730.009	2427.18
730.195	2414.9
730.382	2400.56
730.568	2330.93
730.754	2361.65
730.94	2320.69
731.126	2439.47
731.313	2363.7
731.499	2259.25
731.685	2332.98
731.871	2406.7
732.057	2414.9
732.243	2412.85
732.429	2476.34
732.615	2378.03
732.801	2351.41
732.987	2324.79
733.173	2275.63
733.359	2216.24
733.545	2337.07
733.731	2371.89
733.917	2425.14
734.103	2296.11
734.289	2435.38
734.475	2296.11
734.661	2359.6
734.847	2335.03
735.033	2437.42
735.219	2222.39
735.404	2308.4
735.59	2359.6
735.776	2431.28
735.962	2347.31
736.148	2353.46
736.333	2300.21
736.519	2300.21
736.705	2287.92
736.89	2216.24
737.076	2296.11
737.262	2226.48
737.447	2363.7
737.633	2253.11
737.819	2210.1
738.004	2199.86
738.19	2271.54
738.375	2220.34
738.561	2240.82
738.747	2283.83
738.932	2316.59
739.118	2314.55
739.303	2216.24
739.489	2201.91
739.674	2193.72
739.859	2146.61
740.045	2150.71
740.23	2124.08
740.416	2142.52
740.601	2097.46
740.786	2099.51
740.972	2165.04
741.157	2117.94
741.342	2201.91
741.528	2099.51
741.713	2099.51
741.898	2029.88
742.084	2046.26
742.269	2070.84
742.454	1988.92
742.639	2119.99
742.824	2056.5
743.01	2050.36
743.195	2052.41
743.38	2038.07
743.565	2017.59
743.75	2054.45
743.935	2064.69
744.12	2040.12
744.305	2066.74
744.49	2015.54
744.675	1915.19
744.86	1911.1
745.045	1976.63
745.23	1939.77
745.415	1950.01
745.6	1935.67
745.785	1810.75
745.97	1935.67
746.155	1880.38
746.34	1892.66
746.525	1937.72
746.71	1964.34
746.895	1929.53
747.079	1857.85
747.264	1853.75
747.449	1913.14
747.634	1917.24
747.819	1847.61
748.003	1808.7
748.188	1831.23
748.373	1859.9
748.557	1765.69
748.742	1730.87
748.927	1739.07
749.111	1689.92
749.296	1784.12
749.481	1763.64
749.665	1747.26
749.85	1728.83
750.034	1675.58
750.219	1702.2
750.404	1747.26
750.588	1730.87
750.773	1732.92
750.957	1587.52
751.141	1636.67
751.326	1694.01
751.51	1579.33
751.695	1583.42
751.879	1620.28
752.064	1685.82
752.248	1485.12
752.432	1536.32
752.617	1593.66
752.801	1448.26
752.985	1569.09
753.17	1538.37
753.354	1487.17
753.538	1491.26
753.722	1534.27
753.907	1407.3
754.091	1530.17
754.275	1491.26
754.459	1370.43
754.643	1362.24
754.828	1440.06
755.012	1386.82
755.196	1337.66
755.38	1356.1
755.564	1317.19
755.748	1337.66
755.932	1317.19
756.116	1317.19
756.3	1298.75
756.484	1308.99
756.668	1298.75
756.852	1298.75
757.036	1374.53
757.22	1306.95
757.404	1202.5
757.588	1280.32
757.772	1169.73
757.956	1292.61
758.14	1225.03
758.323	1257.79
758.507	1263.94
758.691	1231.17
758.875	1268.03
759.059	1290.56
759.242	1206.59
759.426	1179.97
759.61	1243.46
759.794	1235.27
759.977	1304.9
760.161	1321.28
760.345	1214.79
760.528	1202.5
760.712	1175.88
760.895	1190.21
761.079	1153.35
761.263	1196.36
761.446	1202.5
761.63	1079.62
761.813	1067.33
761.997	1042.76
762.18	1098.05
762.364	999.75
762.547	1030.47
762.731	1030.47
762.914	1091.91
763.098	1003.85
763.281	989.51
763.464	1020.23
763.648	1034.57
763.831	1053
764.015	938.31
764.198	969.03
764.381	1093.96
764.564	1171.78
764.748	1022.28
764.931	997.7
765.114	1026.37
765.297	899.4
765.481	1087.81
765.664	1020.23
765.847	909.64
766.03	915.78
766.213	964.93
766.397	1075.52
766.58	964.93
766.763	1050.95
766.946	979.27
767.129	944.45
767.312	950.6
767.495	1007.94
767.678	862.54
767.861	985.41
768.044	999.75
768.227	989.51
768.41	915.78
768.593	944.45
768.776	983.37
768.959	989.51
769.142	926.02
769.324	911.69
769.507	897.35
769.69	862.54
769.873	893.26
770.056	921.93
770.239	887.11
770.421	909.64
770.604	973.13
770.787	883.02
770.97	874.82
771.152	768.33
771.335	833.86
771.518	901.45
771.7	887.11
771.883	821.58
772.066	778.57
772.248	833.86
772.431	893.26
772.613	938.31
772.796	792.91
772.978	866.63
773.161	864.58
773.343	829.77
773.526	833.86
773.708	805.19
773.891	825.67
774.073	768.33
774.256	846.15
774.438	864.58
774.621	788.81
774.803	823.62
774.985	792.91
775.168	678.22
775.35	715.08
775.532	792.91
775.715	825.67
775.897	760.14
776.079	782.67
776.261	741.71
776.444	792.91
776.626	733.51
776.808	721.23
776.99	715.08
777.173	672.08
777.355	725.32
777.537	764.23
777.719	766.28
777.901	696.65
778.083	708.94
778.265	698.7
778.447	684.36
778.629	641.36
778.811	602.44
778.993	659.79
779.175	604.49
779.357	637.26
779.539	659.79
779.721	561.48
779.903	620.88
780.085	637.26
780.267	690.51
780.449	592.2
780.631	604.49
780.812	575.82
780.994	616.78
781.176	667.98
781.358	545.1
781.54	545.1
781.721	565.58
781.903	629.07
782.085	545.1
782.267	573.77
782.448	604.49
782.63	581.96
782.812	633.16
782.993	526.67
783.175	530.77
783.357	489.81
783.538	553.29
783.72	510.29
783.901	551.24
784.083	452.94
784.264	629.07
784.446	508.24
784.627	536.91
784.809	485.71
784.99	534.86
785.172	463.18
785.353	549.2
785.535	547.15
785.716	530.77
785.897	442.7
786.079	495.95
786.26	477.52
786.441	438.61
786.623	512.33
786.804	426.32
786.985	440.65
787.167	471.37
787.348	457.04
787.529	436.56
787.71	512.33
787.891	463.18
788.073	403.79
788.254	446.8
788.435	469.33
788.616	536.91
788.797	407.89
788.978	399.7
789.159	473.42
789.34	418.13
789.522	368.98
789.703	416.08
789.884	446.8
790.065	334.16
790.246	383.31
790.427	391.5
790.607	448.85
790.788	381.26
790.969	407.89
791.15	457.04
791.331	397.65
791.512	362.83
791.693	360.78
791.874	262.48
792.054	364.88
792.235	346.45
792.416	459.09
792.597	371.02
792.778	336.21
792.958	352.59
793.139	448.85
793.32	303.44
793.5	299.34
793.681	307.54
793.862	330.06
794.042	309.58
794.223	371.02
794.404	301.39
794.584	358.74
794.765	360.78
794.945	332.11
795.126	336.21
795.306	321.87
795.487	211.28
795.667	252.24
795.848	291.15
796.028	282.96
796.209	332.11
796.389	280.91
796.57	321.87
796.75	196.95
796.93	340.3
797.111	350.54
797.291	282.96
797.471	325.97
797.652	301.39
797.832	285.01
798.012	246.1
798.192	272.72
798.373	303.44
798.553	274.77
798.733	237.91
798.913	242
799.093	278.87
799.274	301.39
799.454	301.39
799.634	270.67
799.814	244.05
799.994	215.38
800.174	221.52
800.354	276.82
800.534	250.19
800.714	246.1
800.894	285.01
801.074	223.57
801.254	274.77
801.434	219.47
801.614	256.34
801.794	237.91
801.974	631.12
802.154	184.66
802.334	309.58
802.514	256.34
802.693	258.39
802.873	194.9
803.053	285.01
803.233	250.19
803.413	258.39
803.592	229.71
803.772	176.47
803.952	225.62
804.131	235.86
804.311	223.57
804.491	201.04
804.67	186.71
804.85	215.38
805.03	280.91
805.209	256.34
805.389	153.94
805.568	215.38
805.748	217.43
805.928	182.61
806.107	256.34
806.287	252.24
806.466	153.94
806.646	215.38
806.825	252.24
807.004	194.9
807.184	268.63
807.363	231.76
807.543	211.28
807.722	184.66
807.901	176.47
808.081	246.1
808.26	172.37
808.439	219.47
808.619	221.52
808.798	221.52
808.977	215.38
809.156	176.47
809.336	209.23
809.515	196.95
809.694	155.99
809.873	192.85
810.052	215.38
810.231	196.95
810.411	256.34
810.59	239.95
810.769	133.46
810.948	198.99
811.127	127.32
811.306	127.32
811.485	194.9
811.664	211.28
811.843	207.19
812.022	137.56
812.201	170.32
812.38	125.27
812.559	201.04
812.737	190.8
812.916	137.56
813.095	168.27
813.274	211.28
813.453	186.71
813.632	143.7
813.811	194.9
813.989	119.12
814.168	153.94
814.347	172.37
814.526	131.41
814.704	119.12
814.883	170.32
815.062	158.03
815.24	252.24
815.419	121.17
815.598	129.36
815.776	131.41
815.955	231.76
816.133	160.08
816.312	121.17
816.49	149.84
816.669	205.14
816.847	119.12
817.026	133.46
817.204	59.73
817.383	147.8
817.561	61.78
817.74	170.32
817.918	201.04
818.097	151.89
818.275	166.23
818.453	180.56
818.632	127.32
818.81	110.93
818.988	149.84
819.167	108.88
819.345	133.46
819.523	65.88
819.701	86.36
819.879	110.93
820.058	141.65
820.236	112.98
820.414	147.8
820.592	76.12
820.77	135.51
820.948	131.41
821.127	160.08
821.305	102.74
821.483	112.98
821.661	143.7
821.839	131.41
822.017	84.31
822.195	139.6
822.373	155.99
822.551	158.03
822.729	182.61
822.907	141.65
823.085	149.84
823.262	100.69
823.44	162.13
823.618	117.08
823.796	112.98
823.974	115.03
824.152	84.31
824.329	100.69
824.507	190.8
824.685	151.89
824.863	168.27
825.04	178.51
825.218	104.79
825.396	110.93
825.574	102.74
825.751	127.32
825.929	135.51
826.107	92.5
826.284	63.83
826.462	112.98
826.639	35.16
826.817	80.21
826.994	141.65
827.172	61.78
827.349	129.36
827.527	153.94
827.704	67.92
827.882	129.36
828.059	88.4
828.237	141.65
828.414	76.12
828.591	86.36
828.769	90.45
828.946	94.55
829.124	59.73
829.301	96.6
829.478	45.4
829.655	61.78
829.833	168.27
830.01	76.12
830.187	137.56
830.364	86.36
830.542	82.26
830.719	104.79
830.896	47.44
831.073	14.68
831.25	57.68
831.427	55.64
831.604	100.69
831.782	90.45
831.959	209.23
832.136	63.83
832.313	51.54
832.49	67.92
832.667	67.92
832.844	82.26
833.021	100.69
833.198	88.4
833.374	78.16
833.551	69.97
833.728	39.25
833.905	12.63
834.082	6.49
834.259	145.75
834.436	98.64
834.612	96.6
834.789	63.83
834.966	49.49
835.143	80.21
835.319	37.2
835.496	80.21
835.673	147.8
835.85	100.69
836.026	88.4
836.203	100.69
836.38	55.64
836.556	6.49
836.733	129.36
836.909	82.26
837.086	72.02
837.262	51.54
837.439	74.07
837.616	31.06
837.792	63.83
837.968	47.44
838.145	24.92
838.321	104.79
838.498	47.44
838.674	67.92
838.851	82.26
839.027	69.97
839.203	55.64
839.38	59.73
839.556	51.54
839.732	69.97
839.909	88.4
840.085	86.36
840.261	84.31
840.437	112.98
840.614	63.83
840.79	84.31
840.966	22.87
841.142	59.73
841.318	67.92
841.494	63.83
841.671	37.2
841.847	31.06
842.023	112.98
842.199	37.2
842.375	57.68
842.551	-63.15
842.727	45.4
842.903	78.16
843.079	49.49
843.255	16.73
843.431	61.78
843.607	39.25
843.783	-28.33
843.959	47.44
844.134	108.88
844.31	59.73
844.486	41.3
844.662	35.16
844.838	84.31
845.013	151.89
845.189	10.58
845.365	14.68
845.541	33.11
845.716	129.36
845.892	45.4
846.068	4.44
846.244	84.31
846.419	45.4
846.595	39.25
846.77	74.07
846.946	80.21
847.122	98.64
847.297	22.87
847.473	84.31
847.648	-20.14
847.824	51.54
847.999	61.78
848.175	16.73
848.35	31.06
848.526	121.17
848.701	39.25
848.876	88.4
849.052	10.58
849.227	39.25
849.403	18.77
849.578	26.96
849.753	6.49
849.929	43.35
850.104	-22.19
850.279	33.11
850.454	26.96
850.63	86.36
850.805	6.49
850.98	53.59
851.155	-1.71
851.33	18.77
851.505	63.83
851.681	39.25
851.856	-1.71
852.031	37.2
852.206	98.64
852.381	55.64
852.556	-48.81
852.731	31.06
852.906	53.59
853.081	6.49
853.256	39.25
853.431	88.4
853.606	-16.04
853.781	43.35
853.956	-50.86
854.131	110.93
854.305	69.97
854.48	12.63
854.655	26.96
854.83	39.25
855.005	61.78
855.18	47.44
855.354	63.83
855.529	22.87
855.704	22.87
855.879	33.11
856.053	45.4
856.228	57.68
856.403	-5.8
856.577	10.58
856.752	-20.14
856.926	0.34
857.101	22.87
857.276	-7.85
857.45	37.2
857.625	8.53
857.799	33.11
857.974	47.44
858.148	61.78
858.323	-1.71
858.497	33.11
858.672	86.36
858.846	39.25
859.02	82.26
859.195	-63.15
859.369	16.73
859.543	-18.09
859.718	72.02
859.892	61.78
860.066	6.49
860.241	47.44
860.415	55.64
860.589	-9.9
860.763	22.87
860.938	-36.52
861.112	59.73
861.286	24.92
861.46	-1.71
861.634	65.88
861.808	72.02
861.982	-26.28
862.157	-30.38
862.331	84.31
862.505	88.4
862.679	12.63
862.853	59.73
863.027	-9.9
863.201	125.27
863.375	-36.52
863.549	49.49
863.722	59.73
863.896	41.3
864.07	-13.99
864.244	55.64
864.418	26.96
864.592	10.58
864.766	2.39
864.939	22.87
865.113	31.06
865.287	51.54
865.461	10.58
865.634	29.01
865.808	37.2
865.982	14.68
866.156	12.63
866.329	22.87
866.503	14.68
866.676	31.06
866.85	-44.71
867.024	6.49
867.197	8.53
867.371	92.5
867.544	20.82
867.718	33.11
867.891	29.01
868.065	4.44
868.238	8.53
868.412	67.92
868.585	55.64
868.759	31.06
868.932	53.59
869.105	-44.71
869.279	-9.9
869.452	55.64
869.625	14.68
869.799	43.35
869.972	43.35
870.145	33.11
870.319	2.39
870.492	-5.8
870.665	31.06
870.838	-3.75
871.011	-30.38
871.185	76.12
871.358	-13.99
871.531	8.53
871.704	-38.57
871.877	26.96
872.05	-30.38
872.223	-11.95
872.396	76.12
872.569	4.44
872.742	-5.8
872.915	45.4
873.088	6.49
873.261	-1.71
873.434	69.97
873.607	-11.95
873.78	0.34
873.953	6.49
874.126	8.53
874.299	92.5
874.471	-22.19
874.644	0.34
874.817	-22.19
874.99	45.4
875.163	-16.04
875.335	49.49
875.508	12.63
875.681	-50.86
875.853	92.5
876.026	86.36
876.199	55.64
876.371	2.39
876.544	-18.09
876.717	63.83
876.889	-5.8
877.062	69.97
877.234	-22.19
877.407	20.82
877.579	14.68
877.752	104.79
877.924	33.11
878.097	-30.38
878.269	39.25
878.442	43.35
878.614	-34.47
878.786	37.2
878.959	82.26
879.131	29.01
879.303	-5.8
879.476	51.54
879.648	-30.38
879.82	-87.72
879.993	80.21
880.165	55.64
880.337	-93.87
880.509	24.92
880.681	-36.52
880.854	-18.09
881.026	53.59
881.198	65.88
881.37	14.68
881.542	29.01
881.714	-32.43
881.886	2.39
882.058	-32.43
882.23	41.3
882.402	65.88
882.574	-16.04
882.746	61.78
882.918	2.39
883.09	-11.95
883.262	4.44
883.434	14.68
883.606	-57
883.778	-9.9
883.95	125.27
884.122	14.68
884.293	24.92
884.465	61.78
884.637	96.6
884.809	4.44
884.98	-42.67
885.152	22.87
885.324	-22.19
885.496	-59.05
885.667	-5.8
885.839	-5.8
886.011	55.64
886.182	-3.75
886.354	-13.99
886.525	-9.9
886.697	49.49
886.869	14.68
887.04	-11.95
887.212	43.35
887.383	82.26
887.555	0.34
887.726	49.49
887.897	0.34
888.069	72.02
888.24	53.59
888.412	-11.95
888.583	69.97
888.754	-16.04
888.926	-79.53
889.097	6.49
889.268	41.3
889.44	-26.28
889.611	-54.95
889.782	14.68
889.953	-75.43
890.125	31.06
890.296	4.44
890.467	-26.28
890.638	-1.71
890.809	4.44
890.98	-42.67
891.151	24.92
891.323	12.63
891.494	10.58
891.665	-3.75
891.836	16.73
892.007	29.01
892.178	29.01
892.349	10.58
892.52	-9.9
892.691	-22.19
892.862	-28.33
893.032	-36.52
893.203	-1.71
893.374	61.78
893.545	67.92
893.716	-52.91
893.887	37.2
894.057	12.63
894.228	69.97
894.399	33.11
894.57	53.59
894.74	-61.1
894.911	26.96
895.082	-28.33
895.253	18.77
895.423	20.82
895.594	16.73
895.764	88.4
895.935	-20.14
896.106	-50.86
896.276	-5.8
896.447	98.64
896.617	35.16
896.788	-5.8
896.958	12.63
897.129	-26.28
897.299	16.73
897.47	2.39
897.64	-40.62
897.81	31.06
897.981	-61.1
898.151	-20.14
898.322	31.06
898.492	39.25
898.662	41.3
898.832	10.58
899.003	31.06
899.173	55.64
899.343	2.39
899.513	-1.71
