Data from USB4F104151__29__11-36-43-945.txt Node

Date: Fri Mar 14 11:36:43 EDT 2025
User: louis
Spectrometer: USB4F10415
Trigger mode: 4
Integration Time (sec): 2.000000E-2
Scans to average: 1
Electric dark correction enabled: true
Nonlinearity correction enabled: false
Boxcar width: 0
XAxis mode: Wavelengths
Number of Pixels in Spectrum: 3648
>>>>>Begin Spectral Data<<<<<
178.204	-82.43
178.424	-82.43
178.644	-82.43
178.864	-57.86
179.084	-92.67
179.304	-6.66
179.524	-8.7
179.744	-23.04
179.964	7.68
180.184	11.78
180.404	-12.8
180.624	-6.66
180.844	22.02
181.064	36.35
181.283	-35.33
181.503	1.54
181.723	13.82
181.943	-4.61
182.163	-14.85
182.383	-53.76
182.602	-27.14
182.822	-4.61
183.042	71.17
183.262	60.93
183.482	73.21
183.701	-12.8
183.921	58.88
184.141	-4.61
184.361	15.87
184.58	-8.7
184.8	13.82
185.02	-49.66
185.239	38.4
185.459	32.26
185.679	118.27
185.898	-10.75
186.118	7.68
186.338	48.64
186.557	28.16
186.777	-23.04
186.997	-10.75
187.216	-27.14
187.436	69.12
187.655	67.07
187.875	11.78
188.095	-86.53
188.314	73.21
188.534	95.74
188.753	13.82
188.973	3.58
189.192	40.45
189.412	13.82
189.631	22.02
189.851	26.11
190.07	32.26
190.29	-0.51
190.509	-55.81
190.729	-33.28
190.948	3.58
191.168	69.12
191.387	60.93
191.607	22.02
191.826	11.78
192.045	-12.8
192.265	-25.09
192.484	85.5
192.704	-0.51
192.923	44.54
193.142	83.45
193.362	32.26
193.581	32.26
193.8	50.69
194.02	73.21
194.239	-37.38
194.458	-8.7
194.678	3.58
194.897	87.55
195.116	9.73
195.335	93.69
195.555	60.93
195.774	19.97
195.993	52.74
196.212	28.16
196.432	11.78
196.651	-20.99
196.87	32.26
197.089	40.45
197.308	42.5
197.528	54.78
197.747	30.21
197.966	81.41
198.185	52.74
198.404	-10.75
198.623	-53.76
198.842	36.35
199.062	83.45
199.281	103.93
199.5	60.93
199.719	50.69
199.938	48.64
200.157	97.79
200.376	36.35
200.595	44.54
200.814	-29.18
201.033	58.88
201.252	44.54
201.471	48.64
201.69	15.87
201.909	7.68
202.128	71.17
202.347	-10.75
202.566	11.78
202.785	-20.99
203.004	44.54
203.223	67.07
203.442	93.69
203.661	-29.18
203.879	85.5
204.098	108.03
204.317	-37.38
204.536	40.45
204.755	24.06
204.974	5.63
205.193	97.79
205.411	26.11
205.63	75.26
205.849	-0.51
206.068	60.93
206.287	-39.42
206.505	-37.38
206.724	-14.85
206.943	89.6
207.162	7.68
207.381	44.54
207.599	81.41
207.818	-25.09
208.037	-18.94
208.255	44.54
208.474	-29.18
208.693	9.73
208.911	56.83
209.13	71.17
209.349	7.68
209.567	28.16
209.786	48.64
210.005	42.5
210.223	-20.99
210.442	-29.18
210.661	48.64
210.879	-27.14
211.098	95.74
211.316	11.78
211.535	95.74
211.753	40.45
211.972	19.97
212.191	-86.53
212.409	32.26
212.628	97.79
212.846	17.92
213.065	15.87
213.283	73.21
213.502	-31.23
213.72	-25.09
213.938	38.4
214.157	71.17
214.375	77.31
214.594	52.74
214.812	-31.23
215.031	54.78
215.249	7.68
215.467	26.11
215.686	46.59
215.904	-0.51
216.122	30.21
216.341	79.36
216.559	44.54
216.778	105.98
216.996	75.26
217.214	-0.51
217.432	7.68
217.651	-4.61
217.869	-39.42
218.087	24.06
218.306	-33.28
218.524	-0.51
218.742	36.35
218.96	28.16
219.179	-6.66
219.397	44.54
219.615	-4.61
219.833	-49.66
220.051	3.58
220.27	-35.33
220.488	40.45
220.706	19.97
220.924	17.92
221.142	62.98
221.36	17.92
221.578	-31.23
221.796	32.26
222.015	-6.66
222.233	28.16
222.451	-23.04
222.669	-12.8
222.887	97.79
223.105	-8.7
223.323	-20.99
223.541	-0.51
223.759	81.41
223.977	30.21
224.195	81.41
224.413	132.61
224.631	15.87
224.849	-2.56
225.067	101.89
225.285	-6.66
225.503	-10.75
225.721	-2.56
225.939	15.87
226.157	-6.66
226.375	132.61
226.592	30.21
226.81	93.69
227.028	50.69
227.246	58.88
227.464	56.83
227.682	60.93
227.9	-12.8
228.117	17.92
228.335	44.54
228.553	71.17
228.771	91.65
228.989	67.07
229.206	67.07
229.424	-2.56
229.642	-31.23
229.86	-59.9
230.077	-6.66
230.295	3.58
230.513	-8.7
230.731	11.78
230.948	69.12
231.166	50.69
231.384	52.74
231.601	34.3
231.819	34.3
232.037	28.16
232.254	13.82
232.472	11.78
232.689	-23.04
232.907	-12.8
233.125	-23.04
233.342	60.93
233.56	-41.47
233.777	-41.47
233.995	-12.8
234.213	-2.56
234.43	-0.51
234.648	13.82
234.865	42.5
235.083	24.06
235.3	9.73
235.518	15.87
235.735	11.78
235.953	67.07
236.17	15.87
236.388	136.7
236.605	52.74
236.822	46.59
237.04	7.68
237.257	-57.86
237.475	-55.81
237.692	46.59
237.909	62.98
238.127	17.92
238.344	34.3
238.562	52.74
238.779	-20.99
238.996	9.73
239.214	28.16
239.431	65.02
239.648	40.45
239.865	44.54
240.083	114.17
240.3	44.54
240.517	7.68
240.735	9.73
240.952	87.55
241.169	19.97
241.386	24.06
241.603	13.82
241.821	-25.09
242.038	9.73
242.255	-37.38
242.472	110.08
242.689	19.97
242.907	48.64
243.124	48.64
243.341	46.59
243.558	36.35
243.775	32.26
243.992	-12.8
244.209	56.83
244.426	26.11
244.643	93.69
244.86	-6.66
245.078	46.59
245.295	-12.8
245.512	95.74
245.729	9.73
245.946	22.02
246.163	-25.09
246.38	99.84
246.597	34.3
246.814	73.21
247.031	9.73
247.248	17.92
247.464	22.02
247.681	5.63
247.898	-14.85
248.115	62.98
248.332	79.36
248.549	17.92
248.766	73.21
248.983	32.26
249.2	26.11
249.417	36.35
249.633	-18.94
249.85	3.58
250.067	-20.99
250.284	65.02
250.501	93.69
250.717	93.69
250.934	30.21
251.151	-35.33
251.368	-45.57
251.585	56.83
251.801	32.26
252.018	54.78
252.235	42.5
252.451	1.54
252.668	-33.28
252.885	46.59
253.102	17.92
253.318	9.73
253.535	-16.9
253.752	17.92
253.968	48.64
254.185	-37.38
254.401	48.64
254.618	5.63
254.835	42.5
255.051	52.74
255.268	26.11
255.484	-2.56
255.701	34.3
255.917	46.59
256.134	36.35
256.351	75.26
256.567	11.78
256.784	17.92
257	11.78
257.217	-37.38
257.433	-6.66
257.65	87.55
257.866	46.59
258.082	48.64
258.299	44.54
258.515	15.87
258.732	-2.56
258.948	-4.61
259.165	9.73
259.381	15.87
259.597	60.93
259.814	30.21
260.03	-4.61
260.246	91.65
260.463	50.69
260.679	-18.94
260.895	56.83
261.112	-45.57
261.328	148.99
261.544	-4.61
261.761	32.26
261.977	-61.95
262.193	3.58
262.409	-45.57
262.626	46.59
262.842	30.21
263.058	32.26
263.274	-31.23
263.49	-4.61
263.707	38.4
263.923	60.93
264.139	13.82
264.355	-8.7
264.571	-45.57
264.787	28.16
265.004	128.51
265.22	81.41
265.436	30.21
265.652	32.26
265.868	3.58
266.084	-37.38
266.3	-25.09
266.516	34.3
266.732	79.36
266.948	17.92
267.164	-45.57
267.38	-35.33
267.596	-6.66
267.812	91.65
268.028	9.73
268.244	-20.99
268.46	28.16
268.676	-16.9
268.892	67.07
269.108	-4.61
269.324	126.46
269.54	-25.09
269.756	60.93
269.972	7.68
270.188	67.07
270.403	-2.56
270.619	71.17
270.835	17.92
271.051	22.02
271.267	58.88
271.483	19.97
271.698	30.21
271.914	3.58
272.13	-45.57
272.346	19.97
272.562	30.21
272.777	42.5
272.993	-53.76
273.209	48.64
273.425	-29.18
273.64	32.26
273.856	30.21
274.072	7.68
274.287	77.31
274.503	-16.9
274.719	108.03
274.934	-41.47
275.15	-0.51
275.366	40.45
275.581	9.73
275.797	-53.76
276.012	91.65
276.228	-2.56
276.444	36.35
276.659	26.11
276.875	-25.09
277.09	50.69
277.306	26.11
277.521	22.02
277.737	11.78
277.952	77.31
278.168	-39.42
278.383	-6.66
278.599	-70.14
278.814	17.92
279.03	60.93
279.245	42.5
279.461	-2.56
279.676	60.93
279.892	65.02
280.107	24.06
280.322	17.92
280.538	9.73
280.753	34.3
280.969	34.3
281.184	93.69
281.399	28.16
281.615	34.3
281.83	58.88
282.045	-6.66
282.26	26.11
282.476	54.78
282.691	-12.8
282.906	-43.52
283.122	60.93
283.337	85.5
283.552	-8.7
283.767	40.45
283.983	52.74
284.198	17.92
284.413	93.69
284.628	11.78
284.843	62.98
285.058	9.73
285.274	1.54
285.489	3.58
285.704	-35.33
285.919	-6.66
286.134	81.41
286.349	48.64
286.564	-53.76
286.779	118.27
286.995	-0.51
287.21	42.5
287.425	48.64
287.64	-16.9
287.855	-37.38
288.07	3.58
288.285	3.58
288.5	9.73
288.715	101.89
288.93	-2.56
289.145	-8.7
289.36	-23.04
289.575	11.78
289.79	-35.33
290.004	44.54
290.219	34.3
290.434	13.82
290.649	-6.66
290.864	44.54
291.079	40.45
291.294	-0.51
291.509	93.69
291.724	1.54
291.938	1.54
292.153	-37.38
292.368	-37.38
292.583	110.08
292.798	-20.99
293.012	34.3
293.227	60.93
293.442	87.55
293.657	-12.8
293.871	5.63
294.086	56.83
294.301	34.3
294.516	46.59
294.73	28.16
294.945	87.55
295.16	-0.51
295.374	52.74
295.589	69.12
295.804	-37.38
296.018	26.11
296.233	46.59
296.447	9.73
296.662	24.06
296.877	52.74
297.091	91.65
297.306	15.87
297.52	62.98
297.735	19.97
297.949	60.93
298.164	89.6
298.378	-41.47
298.593	34.3
298.807	77.31
299.022	50.69
299.236	-20.99
299.451	34.3
299.665	15.87
299.88	58.88
300.094	60.93
300.309	-41.47
300.523	-12.8
300.737	36.35
300.952	-10.75
301.166	67.07
301.381	-14.85
301.595	3.58
301.809	71.17
302.024	-4.61
302.238	-2.56
302.452	1.54
302.667	15.87
302.881	73.21
303.095	-23.04
303.309	122.37
303.524	28.16
303.738	38.4
303.952	26.11
304.166	5.63
304.381	9.73
304.595	44.54
304.809	-4.61
305.023	32.26
305.237	30.21
305.452	3.58
305.666	67.07
305.88	34.3
306.094	67.07
306.308	38.4
306.522	19.97
306.736	22.02
306.95	81.41
307.164	-29.18
307.379	-10.75
307.593	118.27
307.807	36.35
308.021	30.21
308.235	28.16
308.449	-27.14
308.663	-20.99
308.877	-12.8
309.091	-16.9
309.305	17.92
309.519	-23.04
309.733	19.97
309.947	-4.61
310.161	-49.66
310.374	19.97
310.588	105.98
310.802	7.68
311.016	58.88
311.23	83.45
311.444	118.27
311.658	44.54
311.872	69.12
312.085	34.3
312.299	-61.95
312.513	9.73
312.727	62.98
312.941	-23.04
313.154	85.5
313.368	50.69
313.582	71.17
313.796	34.3
314.009	62.98
314.223	75.26
314.437	67.07
314.651	75.26
314.864	32.26
315.078	83.45
315.292	52.74
315.505	5.63
315.719	34.3
315.933	44.54
316.146	32.26
316.36	1.54
316.573	58.88
316.787	52.74
317.001	114.17
317.214	19.97
317.428	52.74
317.641	48.64
317.855	-16.9
318.068	1.54
318.282	-6.66
318.495	-2.56
318.709	85.5
318.922	17.92
319.136	44.54
319.349	75.26
319.563	71.17
319.776	38.4
319.99	19.97
320.203	19.97
320.417	13.82
320.63	81.41
320.843	19.97
321.057	13.82
321.27	60.93
321.483	75.26
321.697	36.35
321.91	99.84
322.124	69.12
322.337	40.45
322.55	62.98
322.763	48.64
322.977	77.31
323.19	112.13
323.403	-6.66
323.617	34.3
323.83	40.45
324.043	58.88
324.256	1.54
324.469	15.87
324.683	-6.66
324.896	42.5
325.109	89.6
325.322	-29.18
325.535	19.97
325.748	9.73
325.962	44.54
326.175	56.83
326.388	32.26
326.601	3.58
326.814	85.5
327.027	97.79
327.24	44.54
327.453	38.4
327.666	52.74
327.879	42.5
328.092	38.4
328.305	-10.75
328.518	-6.66
328.731	1.54
328.944	67.07
329.157	3.58
329.37	67.07
329.583	3.58
329.796	44.54
330.009	52.74
330.222	34.3
330.435	26.11
330.648	11.78
330.861	40.45
331.073	26.11
331.286	56.83
331.499	34.3
331.712	-8.7
331.925	7.68
332.138	124.41
332.35	9.73
332.563	97.79
332.776	-0.51
332.989	48.64
333.202	42.5
333.414	-6.66
333.627	38.4
333.84	46.59
334.053	114.17
334.265	24.06
334.478	77.31
334.691	28.16
334.903	52.74
335.116	28.16
335.329	-25.09
335.541	38.4
335.754	-53.76
335.966	42.5
336.179	48.64
336.392	77.31
336.604	-16.9
336.817	87.55
337.029	65.02
337.242	26.11
337.454	69.12
337.667	9.73
337.88	52.74
338.092	60.93
338.305	48.64
338.517	28.16
338.729	48.64
338.942	19.97
339.154	11.78
339.367	56.83
339.579	40.45
339.792	1.54
340.004	32.26
340.217	79.36
340.429	75.26
340.641	48.64
340.854	1.54
341.066	-4.61
341.278	1.54
341.491	62.98
341.703	95.74
341.915	52.74
342.128	69.12
342.34	11.78
342.552	95.74
342.764	15.87
342.977	-29.18
343.189	52.74
343.401	11.78
343.613	9.73
343.826	58.88
344.038	-16.9
344.25	60.93
344.462	34.3
344.674	-2.56
344.886	67.07
345.099	17.92
345.311	11.78
345.523	52.74
345.735	-33.28
345.947	69.12
346.159	36.35
346.371	48.64
346.583	69.12
346.795	112.13
347.007	1.54
347.219	13.82
347.431	71.17
347.643	54.78
347.855	-14.85
348.067	81.41
348.279	71.17
348.491	97.79
348.703	-25.09
348.915	83.45
349.127	32.26
349.339	155.13
349.551	-20.99
349.763	11.78
349.975	-20.99
350.187	60.93
350.399	146.94
350.61	60.93
350.822	36.35
351.034	19.97
351.246	85.5
351.458	91.65
351.669	32.26
351.881	93.69
352.093	101.89
352.305	126.46
352.517	15.87
352.728	60.93
352.94	-0.51
353.152	54.78
353.363	19.97
353.575	56.83
353.787	42.5
353.999	-18.94
354.21	22.02
354.422	-18.94
354.633	-33.28
354.845	110.08
355.057	73.21
355.268	34.3
355.48	30.21
355.692	-2.56
355.903	5.63
356.115	54.78
356.326	-23.04
356.538	69.12
356.749	19.97
356.961	65.02
357.172	-20.99
357.384	-4.61
357.595	36.35
357.807	5.63
358.018	30.21
358.23	58.88
358.441	116.22
358.653	28.16
358.864	42.5
359.075	87.55
359.287	73.21
359.498	44.54
359.709	-41.47
359.921	15.87
360.132	-10.75
360.344	11.78
360.555	34.3
360.766	67.07
360.977	75.26
361.189	46.59
361.4	-35.33
361.611	81.41
361.823	65.02
362.034	116.22
362.245	-6.66
362.456	3.58
362.667	26.11
362.879	-8.7
363.09	-18.94
363.301	85.5
363.512	-37.38
363.723	19.97
363.935	30.21
364.146	48.64
364.357	56.83
364.568	46.59
364.779	17.92
364.99	28.16
365.201	13.82
365.412	157.18
365.623	-16.9
365.834	89.6
366.045	24.06
366.256	58.88
366.467	28.16
366.678	-12.8
366.889	50.69
367.1	116.22
367.311	32.26
367.522	91.65
367.733	11.78
367.944	24.06
368.155	36.35
368.366	34.3
368.577	54.78
368.788	87.55
368.999	50.69
369.209	-14.85
369.42	101.89
369.631	44.54
369.842	79.36
370.053	89.6
370.264	60.93
370.474	-29.18
370.685	52.74
370.896	-10.75
371.107	40.45
371.317	-0.51
371.528	71.17
371.739	73.21
371.95	-23.04
372.16	71.17
372.371	11.78
372.582	99.84
372.792	17.92
373.003	-0.51
373.214	30.21
373.424	62.98
373.635	24.06
373.846	73.21
374.056	7.68
374.267	17.92
374.477	28.16
374.688	24.06
374.898	-4.61
375.109	-45.57
375.319	56.83
375.53	52.74
375.74	50.69
375.951	52.74
376.161	110.08
376.372	9.73
376.582	42.5
376.793	110.08
377.003	-4.61
377.214	15.87
377.424	52.74
377.635	83.45
377.845	52.74
378.055	128.51
378.266	56.83
378.476	132.61
378.686	15.87
378.897	136.7
379.107	32.26
379.317	22.02
379.528	-18.94
379.738	97.79
379.948	-16.9
380.158	81.41
380.369	81.41
380.579	85.5
380.789	26.11
380.999	58.88
381.21	81.41
381.42	122.37
381.63	58.88
381.84	44.54
382.05	54.78
382.261	50.69
382.471	28.16
382.681	69.12
382.891	114.17
383.101	124.41
383.311	-70.14
383.521	36.35
383.731	118.27
383.941	56.83
384.151	32.26
384.361	87.55
384.571	1.54
384.781	69.12
384.991	50.69
385.201	110.08
385.411	65.02
385.621	67.07
385.831	-10.75
386.041	54.78
386.251	48.64
386.461	36.35
386.671	67.07
386.881	69.12
387.091	73.21
387.301	52.74
387.511	28.16
387.72	60.93
387.93	17.92
388.14	-61.95
388.35	50.69
388.56	40.45
388.769	97.79
388.979	-66.05
389.189	77.31
389.399	-0.51
389.609	15.87
389.818	54.78
390.028	93.69
390.238	69.12
390.447	52.74
390.657	46.59
390.867	73.21
391.076	-12.8
391.286	60.93
391.496	32.26
391.705	44.54
391.915	91.65
392.125	93.69
392.334	77.31
392.544	73.21
392.753	124.41
392.963	52.74
393.172	71.17
393.382	38.4
393.591	148.99
393.801	-0.51
394.01	134.65
394.22	77.31
394.429	50.69
394.639	67.07
394.848	65.02
395.058	69.12
395.267	95.74
395.477	83.45
395.686	89.6
395.895	116.22
396.105	148.99
396.314	9.73
396.524	50.69
396.733	87.55
396.942	110.08
397.152	151.04
397.361	83.45
397.57	73.21
397.78	67.07
397.989	120.32
398.198	83.45
398.407	81.41
398.617	73.21
398.826	91.65
399.035	101.89
399.244	56.83
399.453	85.5
399.663	165.37
399.872	101.89
400.081	73.21
400.29	157.18
400.499	52.74
400.708	17.92
400.917	130.56
401.127	91.65
401.336	34.3
401.545	146.94
401.754	87.55
401.963	101.89
402.172	183.81
402.381	126.46
402.59	93.69
402.799	134.65
403.008	181.76
403.217	146.94
403.426	146.94
403.635	32.26
403.844	85.5
404.053	155.13
404.262	99.84
404.471	130.56
404.68	177.66
404.888	206.33
405.097	103.93
405.306	192
405.515	130.56
405.724	173.57
405.933	157.18
406.142	173.57
406.35	146.94
406.559	192
406.768	179.71
406.977	208.38
407.185	249.34
407.394	173.57
407.603	130.56
407.812	155.13
408.02	255.48
408.229	177.66
408.438	224.76
408.646	200.19
408.855	253.44
409.064	253.44
409.272	173.57
409.481	306.68
409.69	253.44
409.898	282.11
410.107	331.26
410.315	378.36
410.524	333.31
410.733	349.69
410.941	349.69
411.15	327.16
411.358	396.79
411.567	470.52
411.775	425.47
411.984	513.53
412.192	521.72
412.401	427.51
412.609	484.86
412.818	470.52
413.026	517.62
413.234	523.77
413.443	581.11
413.651	441.85
413.86	626.17
414.068	708.09
414.276	632.31
414.485	617.97
414.693	656.89
414.901	701.94
415.11	689.65
415.318	708.09
415.526	744.95
415.734	843.25
415.943	826.87
416.151	818.68
416.359	939.51
416.567	806.39
416.776	988.66
416.984	998.9
417.192	1015.28
417.4	992.75
417.608	1025.52
417.817	1068.53
418.025	1142.25
418.233	1183.21
418.441	1154.54
418.649	1230.32
418.857	1191.41
419.065	1279.47
419.273	1322.48
419.481	1314.28
419.689	1437.16
419.897	1541.61
420.105	1500.65
420.313	1467.88
420.521	1592.81
420.729	1592.81
420.937	1707.49
421.145	1791.46
421.353	1805.8
421.561	1883.62
421.769	1906.15
421.977	2117.09
422.185	2043.36
422.393	2190.81
422.601	2346.46
422.809	2346.46
423.017	2164.19
423.224	2293.21
423.432	2532.83
423.64	2434.52
423.848	2725.33
424.056	2629.08
424.263	2858.45
424.471	2856.4
424.679	2878.93
424.887	3122.64
425.094	3169.74
425.302	3163.6
425.51	3233.23
425.718	3526.09
425.925	3468.75
426.133	3683.78
426.341	3780.04
426.548	3999.17
426.756	3974.6
426.964	4007.36
427.171	4199.87
427.379	4275.65
427.586	4410.81
427.794	4533.69
428.001	4664.76
428.209	4924.85
428.417	4896.18
428.624	5152.18
428.832	5125.55
429.039	5156.27
429.247	5209.52
429.454	5610.92
429.662	5987.75
429.869	5588.39
430.076	6196.64
430.284	5965.22
430.491	6104.48
430.699	6507.93
430.906	6395.29
431.114	6602.14
431.321	6817.18
431.528	7103.89
431.736	7433.61
431.943	7712.14
432.15	7415.18
432.358	7697.8
432.565	8025.48
432.772	7951.75
432.979	8467.84
433.187	8578.43
433.394	8566.14
433.601	9094.52
433.808	9325.94
434.016	9108.85
434.223	9250.16
434.43	10235.24
434.637	9833.83
434.844	10210.66
435.052	10700.12
435.259	10491.23
435.466	10653.02
435.673	10874.2
435.88	11306.32
436.087	11949.39
436.294	11853.13
436.501	11666.77
436.708	11889.99
436.915	12440.9
437.122	12950.84
437.329	12713.28
437.537	13507.89
437.743	13743.41
437.95	13415.73
438.157	14015.79
438.364	14687.52
438.571	14368.04
438.778	14560.55
438.985	15877.39
439.192	15377.69
439.399	15813.9
439.606	15607.06
439.813	16286.98
440.02	17358.07
440.227	17059.07
440.433	17005.82
440.64	17239.29
440.847	17089.79
441.054	18132.2
441.261	18560.23
441.467	18543.85
441.674	19201.24
441.881	19680.47
442.088	19680.47
442.294	19664.08
442.501	20171.98
442.708	20397.26
442.914	21171.39
443.121	21994.67
443.328	21484.73
443.534	23166.11
443.741	22742.18
443.948	22240.43
444.154	23788.69
444.361	23678.1
444.568	23870.61
444.774	23968.91
444.981	24284.3
445.187	24771.72
445.394	25470.08
445.6	25846.9
445.807	27927.64
446.013	26606.7
446.22	27647.07
446.426	28089.43
446.633	28396.62
446.839	29598.78
447.046	28099.67
447.252	30094.39
447.459	29922.36
447.665	29852.73
447.871	31095.85
448.078	32445.46
448.284	30960.68
448.491	32109.59
448.697	32838.67
448.903	33299.46
449.11	33481.73
449.316	33162.25
449.522	33666.05
449.728	34771.95
449.935	34837.48
450.141	34929.64
450.347	35447.78
450.553	34702.32
450.76	34931.69
450.966	36201.43
451.172	35804.13
451.378	36846.54
451.584	35963.87
451.791	36928.46
451.997	36465.62
452.203	37471.17
452.409	37370.82
452.615	37082.06
452.821	35752.93
453.027	35234.79
453.233	37565.38
453.44	36096.99
453.646	36336.6
453.852	36525.01
454.058	37133.26
454.264	35730.4
454.47	36525.01
454.676	35531.75
454.882	37020.62
455.088	33854.46
455.294	33899.51
455.5	34493.43
455.705	35167.21
455.911	33928.19
456.117	32830.48
456.323	32515.09
456.529	30735.4
456.735	31931.42
456.941	31398.94
457.147	31024.17
457.352	30164.02
457.558	29385.79
457.764	29762.62
457.97	28742.73
458.176	28474.45
458.381	28720.2
458.587	26829.93
458.793	27141.22
458.999	25697.4
459.204	27292.77
459.41	26561.64
459.616	25052.29
459.821	25222.27
460.027	25040
460.233	24272.01
460.438	23129.25
460.644	23481.5
460.85	22768.8
461.055	21980.34
461.261	22207.66
461.466	20552.9
461.672	19750.1
461.878	21214.4
462.083	19713.24
462.289	19457.24
462.494	19053.79
462.7	18504.93
462.905	17911.02
463.111	18644.2
463.316	18349.29
463.522	18175.21
463.727	18134.25
463.932	18148.59
464.138	17960.17
464.343	18083.05
464.549	17396.98
464.754	18179.31
464.959	17919.21
465.165	17583.35
465.37	16928
465.575	16661.76
465.781	17243.38
465.986	17489.14
466.191	16837.89
466.397	16633.09
466.602	15785.23
466.807	16106.76
467.012	16321.8
467.218	16106.76
467.423	15926.54
467.628	16090.38
467.833	16676.1
468.038	16264.46
468.244	15691.02
468.449	16276.74
468.654	15680.78
468.859	15836.43
469.064	15451.41
469.269	14875.93
469.474	15070.49
469.679	15523.09
469.885	14892.32
470.09	15099.16
470.295	15019.29
470.5	14566.69
470.705	14986.52
470.91	14433.57
471.115	14036.27
471.32	14470.44
471.525	14236.97
471.73	14185.77
471.935	14216.49
472.139	13307.19
472.344	13905.2
472.549	13499.7
472.754	13311.28
472.959	13251.89
473.164	12940.6
473.369	12989.75
473.574	13086.01
473.778	13020.47
473.983	12944.7
474.188	12602.69
474.393	12338.5
474.598	12223.81
474.802	12025.16
475.007	12197.19
475.212	12268.87
475.417	11750.73
475.621	11797.84
475.826	11722.06
476.031	11529.55
476.235	11289.94
476.44	11623.76
476.645	11234.64
476.849	11291.99
477.054	11144.53
477.259	10749.28
477.463	10835.29
477.668	10577.25
477.872	10898.78
478.077	10331.49
478.282	10360.16
478.486	10366.31
478.691	10425.7
478.895	10245.48
479.1	10050.92
479.304	10163.56
479.509	9981.29
479.713	10200.42
479.918	9710.96
480.122	9690.48
480.326	9776.49
480.531	9819.5
480.735	9631.09
480.94	9596.27
481.144	10184.04
481.348	9465.2
481.553	9383.28
481.757	9457.01
481.961	9477.49
482.166	9561.45
482.37	9506.16
482.574	9303.41
482.778	9454.96
482.983	9635.18
483.187	9414
483.391	9432.43
483.595	9467.25
483.8	9252.21
484.004	9368.95
484.208	9469.3
484.412	9377.14
484.616	9485.68
484.821	9411.95
485.025	9356.66
485.229	9399.66
485.433	9561.45
485.637	9414
485.841	9414
486.045	9262.45
486.249	9368.95
486.453	9377.14
486.657	9477.49
486.861	9649.52
487.065	9209.2
487.269	9266.55
487.473	9192.82
487.677	9387.38
487.881	9545.07
488.085	9403.76
488.289	9360.75
488.493	9446.77
488.697	9561.45
488.901	9405.81
489.105	9397.62
489.309	9549.17
489.512	9434.48
489.716	9444.72
489.92	9579.89
490.124	9469.3
490.328	9553.26
490.531	9518.45
490.735	9782.63
490.939	9571.69
491.143	9667.95
491.346	9588.08
491.55	9670
491.754	9905.51
491.958	9846.12
492.161	9805.16
492.365	10028.39
492.569	9864.55
492.772	9921.9
492.976	9952.62
493.18	10087.78
493.383	10116.45
493.587	10284.39
493.79	10358.11
493.994	10026.34
494.197	10145.13
494.401	10548.58
494.605	10583.39
494.808	10560.86
495.012	10595.68
495.215	10700.12
495.419	10769.76
495.622	10782.04
495.825	10878.3
496.029	10935.64
496.232	11257.17
496.436	11136.34
496.639	11447.63
496.843	11312.47
497.046	11574.61
497.249	11650.38
497.453	11664.72
497.656	11601.23
497.859	11742.54
498.063	12211.53
498.266	12459.33
498.469	12090.7
498.673	12219.72
498.876	12553.54
499.079	12490.05
499.282	12623.17
499.485	13081.91
499.689	12834.11
499.892	13182.26
500.095	13149.5
500.298	13509.94
500.501	13409.59
500.705	13860.14
500.908	14124.33
501.111	14032.17
501.314	14073.13
501.517	14396.71
501.72	14462.24
501.923	14456.1
502.126	14781.73
502.329	15185.18
502.532	15009.05
502.735	15131.93
502.938	15553.81
503.141	15445.27
503.344	15691.02
503.547	15688.98
503.75	15990.03
503.953	16356.61
504.156	16354.57
504.359	16694.53
504.562	16538.88
504.765	17128.7
504.968	17245.43
505.17	17405.17
505.373	17282.3
505.576	17509.62
505.779	17859.82
505.982	18175.21
506.185	18287.85
506.387	18584.8
506.59	18646.24
506.793	18846.94
506.996	18861.28
507.198	19305.69
507.401	19205.34
507.604	19406.04
507.807	19944.66
508.009	19821.78
508.212	20161.74
508.415	20376.78
508.617	20513.99
508.82	20479.18
509.022	20731.08
509.225	21212.35
509.428	21144.77
509.63	21499.06
509.833	21390.52
510.035	22088.88
510.238	21937.33
510.44	22273.2
510.643	22754.47
510.845	22803.62
511.048	22654.12
511.25	23028.9
511.453	23102.62
511.655	23999.63
511.858	23923.86
512.06	23872.66
512.262	24239.25
512.465	23659.67
512.667	24548.49
512.87	24761.48
513.072	24624.26
513.274	25226.37
513.477	25416.83
513.679	25871.48
513.881	25951.35
514.084	25971.83
514.286	26158.19
514.488	26311.79
514.69	27157.6
514.893	26967.14
515.095	27284.58
515.297	27653.21
515.499	27094.11
515.701	28056.66
515.904	28286.03
516.106	28345.42
516.308	28349.52
516.51	28718.15
516.712	28736.59
516.914	29340.74
517.116	29584.44
517.318	29457.47
517.52	29600.83
517.722	29897.78
517.925	30370.86
518.127	30346.29
518.329	30714.92
518.531	30829.61
518.733	31171.62
518.935	31509.54
519.136	31517.73
519.338	31806.49
519.54	31949.85
519.742	32205.84
519.944	32500.75
520.146	32732.17
520.348	32891.91
520.55	33082.38
520.752	33293.32
520.954	33625.09
521.155	33485.83
521.357	33895.42
521.559	33987.58
521.761	35027.95
521.963	34962.41
522.164	34903.02
522.366	34960.36
522.568	35634.14
522.77	35576.8
522.971	36230.1
523.173	35646.43
523.375	35570.66
523.576	36105.18
523.778	36189.14
523.98	36594.64
524.181	36742.1
524.383	36520.91
524.584	37342.15
524.786	37348.29
524.988	36357.08
525.189	37467.08
525.391	37925.82
525.592	37784.51
525.794	38038.46
525.995	37872.57
526.197	38255.54
526.398	38110.14
526.6	38570.93
526.801	38321.08
527.003	38679.47
527.204	38966.19
527.406	38968.24
527.607	39056.3
527.808	39285.67
528.01	38300.6
528.211	39269.29
528.412	39818.14
528.614	39642.02
528.815	39453.61
529.016	39822.24
529.218	39785.38
529.419	39752.61
529.62	39986.08
529.822	39992.22
530.023	39455.65
530.224	40162.2
530.425	40432.54
530.626	40154.01
530.828	39828.38
531.029	40584.08
531.23	39867.3
531.431	39869.34
531.632	40532.89
531.833	40457.11
532.035	40375.19
532.236	40227.74
532.437	40579.99
532.638	40305.56
532.839	40354.71
533.04	40780.69
533.241	40283.03
533.442	41042.83
533.643	40465.3
533.844	40549.27
534.045	40561.56
534.246	40446.87
534.447	41085.84
534.648	41022.35
534.849	41048.97
535.05	40469.4
535.251	40721.3
535.451	40729.49
535.652	40780.69
535.853	40422.3
536.054	40485.78
536.255	40489.88
536.456	40948.62
536.657	41063.31
536.857	40960.91
537.058	40420.25
537.259	40694.68
537.46	40770.45
537.66	40715.15
537.861	41046.93
538.062	40477.59
538.263	40618.9
538.463	40364.95
538.664	40561.56
538.865	40666
539.065	41051.02
539.266	40280.99
539.466	40670.1
539.667	40276.89
539.868	40874.9
540.068	40403.86
540.269	40555.41
540.469	40797.07
540.67	40285.08
540.87	40698.77
541.071	40399.77
541.271	40735.63
541.472	40467.35
541.672	40450.97
541.873	40389.53
542.073	39965.6
542.274	40817.55
542.474	40481.69
542.675	40264.6
542.875	40287.13
543.075	40514.45
543.276	39838.62
543.476	40588.18
543.676	40274.84
543.877	40506.26
544.077	40453.01
544.277	40596.37
544.478	40444.82
544.678	40573.84
544.878	40250.27
545.078	40516.5
545.279	40614.8
545.479	40227.74
545.679	40194.97
545.879	40532.89
546.079	40334.23
546.28	40367
546.48	40151.96
546.68	40567.7
546.88	40147.87
547.08	40221.59
547.28	40006.56
547.48	40000.41
547.68	40082.33
547.88	39846.82
548.081	39828.38
548.281	39967.65
548.481	39607.2
548.681	40127.39
548.881	40078.24
549.081	39918.49
549.28	40131.48
549.48	40532.89
549.68	39955.36
549.88	40006.56
550.08	39902.11
550.28	39902.11
550.48	39812
550.68	40403.86
550.88	40186.78
551.08	39926.69
551.279	39850.91
551.479	39545.76
551.679	40006.56
551.879	39652.26
552.079	40037.28
552.278	39476.13
552.478	39631.78
552.678	39068.59
552.878	40139.68
553.077	39971.74
553.277	39117.74
553.477	40008.61
553.676	39828.38
553.876	39637.92
554.076	39345.06
554.275	39402.41
554.475	39009.2
554.674	39365.54
554.874	39469.99
555.074	39199.66
555.273	39633.83
555.473	39420.84
555.672	38902.7
555.872	39498.66
556.071	39490.47
556.271	39422.89
556.47	39035.82
556.67	38777.78
556.869	38667.19
557.068	39162.79
557.268	38908.85
557.467	38998.96
557.667	39257
557.866	39252.91
558.065	38683.57
558.265	38960.05
558.464	38779.82
558.663	39050.16
558.863	38667.19
559.062	39050.16
559.261	38396.85
559.461	38863.79
559.66	38116.28
559.859	38491.06
560.058	38048.7
560.258	38503.35
560.457	37800.9
560.656	38775.73
560.855	38177.72
561.054	38083.51
561.253	37876.67
561.453	38421.43
561.652	38147
561.851	38517.68
562.05	37841.85
562.249	37774.27
562.448	38325.18
562.647	38065.08
562.846	37688.26
563.045	37925.82
563.244	37645.25
563.443	38005.69
563.642	37362.63
563.841	37505.99
564.04	37299.14
564.239	37827.52
564.438	37190.6
564.637	37655.49
564.836	37112.78
565.035	37112.78
565.234	37276.62
565.432	36840.4
565.631	37258.18
565.83	37092.3
566.029	37141.45
566.228	36578.26
566.427	36647.89
566.625	36807.63
566.824	36563.92
567.023	37131.21
567.222	36377.56
567.42	36631.51
567.619	36467.67
567.818	36369.37
568.016	36385.75
568.215	36459.48
568.414	36164.57
568.612	36230.1
568.811	35816.41
569.01	36355.03
569.208	35650.53
569.407	35787.74
569.605	35544.03
569.804	35957.72
570.002	35765.21
570.201	35443.68
570.4	35460.07
570.598	35230.69
570.797	35386.34
570.995	35425.25
571.193	34927.6
571.392	35640.29
571.59	34972.65
571.789	35173.35
571.987	35107.82
572.186	34950.12
572.384	34972.65
572.582	34986.99
572.781	35183.59
572.979	34583.54
573.177	34790.38
573.376	34804.72
573.574	34225.14
573.772	34829.29
573.971	34225.14
574.169	33979.39
574.367	34049.02
574.565	34499.57
574.763	33993.72
574.962	33854.46
575.16	33598.46
575.358	33922.04
575.556	33330.18
575.754	34227.19
575.952	33342.47
576.151	33911.8
576.349	33199.11
576.547	33289.22
576.745	33184.77
576.943	33481.73
577.141	33502.21
577.339	33100.81
577.537	33332.23
577.735	33154.05
577.933	32574.48
578.131	32990.22
578.329	32590.86
578.527	32627.73
578.725	32672.78
578.923	32867.34
579.121	32959.5
579.319	32515.09
579.516	32707.6
579.714	32603.15
579.912	32193.56
580.11	31822.87
580.308	32166.93
580.506	32412.69
580.704	31511.58
580.901	31837.21
581.099	31872.03
581.297	31700
581.495	31558.69
581.692	31745.05
581.89	31398.94
582.088	31675.42
582.285	31276.07
582.483	31458.34
582.681	31466.53
582.878	31374.37
583.076	31032.36
583.274	31349.79
583.471	31046.69
583.669	30807.08
583.866	30839.85
584.064	30882.86
584.262	30526.51
584.459	30598.19
584.657	30606.38
584.854	30825.51
585.052	30055.48
585.249	30215.22
585.447	30344.24
585.644	30002.23
585.841	30141.49
586.039	30213.17
586.236	29850.68
586.434	29891.64
586.631	29770.81
586.828	29639.74
587.026	29832.25
587.223	29514.81
587.42	29373.5
587.618	29391.94
587.815	29107.27
588.012	29236.29
588.21	28998.73
588.407	29647.93
588.604	28841.03
588.801	28912.71
588.999	28585.04
589.196	28546.12
589.393	28916.81
589.59	28730.44
589.787	28367.95
589.984	28533.84
590.182	28083.28
590.379	28441.68
590.576	28152.91
590.773	28267.6
590.97	27989.08
591.167	28142.67
591.364	27630.68
591.561	27858.01
591.758	27509.85
591.955	27610.2
592.152	27825.24
592.349	27511.9
592.546	27825.24
592.743	27376.73
592.94	27092.07
593.137	27145.31
593.334	27329.63
593.531	26936.42
593.727	27298.91
593.924	26836.07
594.121	26807.4
594.318	27032.68
594.515	26295.41
594.712	26821.73
594.908	26651.75
595.105	26514.54
595.302	26383.47
595.499	26406
595.696	26397.81
595.892	25900.15
596.089	26178.67
596.286	26106.99
596.482	26182.77
596.679	25937.01
596.876	25814.13
597.072	25584.76
597.269	25859.19
597.466	25654.39
597.662	25414.78
597.859	25560.19
598.055	25551.99
598.252	25222.27
598.448	25244.8
598.645	25418.88
598.841	25068.67
599.038	24910.98
599.234	25111.68
599.431	24792.2
599.627	24720.52
599.824	24679.56
600.02	24794.25
600.217	24931.46
600.413	24517.77
600.609	24196.24
600.806	24218.77
601.002	24360.08
601.198	24255.63
601.395	24224.91
601.591	24001.68
601.787	24376.46
601.984	23944.34
602.18	24208.53
602.376	23940.24
602.572	23907.48
602.769	23696.53
602.965	23512.22
603.161	23782.55
603.357	23676.05
603.553	23344.28
603.75	23366.81
603.946	22946.98
604.142	23467.16
604.338	22881.44
604.534	23489.69
604.73	22822.05
604.926	22930.59
605.122	23127.2
605.318	22492.33
605.514	22619.3
605.71	22729.89
605.906	22627.49
606.102	22729.89
606.298	22367.4
606.494	22652.07
606.69	22523.05
606.886	22498.47
607.082	22049.97
607.278	22318.25
607.474	21900.47
607.67	22203.57
607.866	21976.24
608.062	22355.11
608.257	22267.05
608.453	22052.02
608.649	22123.69
608.845	21703.86
609.041	21824.69
609.236	22111.41
609.432	21669.05
609.628	21474.49
609.824	21890.23
610.019	21427.39
610.215	21580.98
610.411	21621.94
610.606	21574.84
610.802	21408.95
610.998	21341.37
611.193	21322.94
611.389	21384.38
611.584	21365.95
611.78	20997.31
611.976	21198.01
612.171	21173.44
612.367	21062.85
612.562	21128.38
612.758	20927.68
612.953	20796.61
613.149	21408.95
613.344	20765.89
613.539	20976.83
613.735	21087.42
613.93	20683.97
614.126	20647.11
614.321	20937.92
614.517	20851.91
614.712	20800.71
614.907	20292.81
615.103	20622.53
615.298	20120.78
615.493	20806.85
615.688	20233.42
615.884	20622.53
616.079	20266.19
616.274	20579.53
616.47	20425.93
616.665	20294.86
616.86	20151.5
617.055	20036.81
617.25	20073.68
617.445	20182.22
617.641	19897.55
617.836	20352.2
618.031	19424.47
618.226	20036.81
618.421	19807.44
618.616	20032.72
618.811	19371.22
619.006	19981.52
619.201	19377.37
619.396	19565.78
619.591	19436.76
619.786	19512.53
619.981	18926.82
620.176	19236.06
620.371	19238.11
620.566	19274.97
620.761	19086.56
620.956	19053.79
621.151	19100.89
621.346	19049.69
621.541	18439.4
621.735	18961.63
621.93	18144.49
622.125	18353.38
622.32	18408.68
622.515	18081
622.709	18013.42
622.904	18083.05
623.099	17954.03
623.294	18099.44
623.488	17833.2
623.683	17728.75
623.878	17460.47
624.072	17493.24
624.267	17368.31
624.462	17263.86
624.656	17097.98
624.851	17171.71
625.046	16923.9
625.24	17022.2
625.435	16827.65
625.629	16665.86
625.824	16512.26
626.018	16887.04
626.213	16274.7
626.407	16469.25
626.602	16157.96
626.796	16416.01
626.991	16071.95
627.185	16143.63
627.38	15961.36
627.574	16082.19
627.768	15713.55
627.963	15799.57
628.157	15576.34
628.352	15510.8
628.546	15373.59
628.74	15488.28
628.935	15357.21
629.129	15418.64
629.323	15031.58
629.517	15183.13
629.712	15056.15
629.906	15007
630.1	14779.68
630.294	14722.34
630.489	14583.07
630.683	14855.45
630.877	14503.2
631.071	14290.21
631.265	14341.41
631.459	14109.99
631.653	14153
631.848	14073.13
632.042	14155.05
632.236	14181.67
632.43	13966.63
632.624	14124.33
632.818	13880.62
633.012	13520.18
633.206	13585.71
633.4	13602.1
633.594	13565.23
633.788	13534.51
633.982	13466.93
634.176	13264.18
634.369	13208.89
634.563	13311.28
634.757	13118.78
634.951	13219.13
635.145	13016.38
635.339	12895.55
635.533	13012.28
635.726	12922.17
635.92	12606.78
636.114	12649.79
636.308	12864.83
636.501	12655.93
636.695	12582.21
636.889	12453.19
637.083	12377.41
637.276	12584.26
637.47	12094.79
637.664	12125.51
637.857	11920.71
638.051	12045.64
638.244	11795.79
638.438	11924.81
638.632	11853.13
638.825	11699.53
639.019	11629.9
639.212	11629.9
639.406	11924.81
639.599	11468.11
639.793	11375.95
639.986	11257.17
640.18	11435.35
640.373	11179.35
640.567	11306.32
640.76	11107.67
640.954	11283.8
641.147	11242.84
641.34	11076.95
641.534	11095.38
641.727	10739.04
641.92	10827.1
642.114	10947.93
642.307	10909.02
642.5	10829.15
642.694	10423.65
642.887	10364.26
643.08	10571.1
643.273	10659.17
643.467	10374.5
643.66	10358.11
643.853	10143.08
644.046	10237.28
644.239	10255.72
644.432	10222.95
644.626	9966.95
644.819	9882.99
645.012	10022.25
645.205	10050.92
645.398	9719.15
645.591	9813.35
645.784	9811.31
645.977	9678.19
646.17	9827.69
646.363	9600.37
646.556	9553.26
646.749	9497.97
646.942	9639.28
647.135	9454.96
647.328	9391.47
647.521	9184.63
647.714	9082.23
647.907	9344.37
648.099	9160.05
648.292	9362.8
648.485	8961.4
648.678	9039.22
648.871	8961.4
649.064	8973.69
649.256	8998.26
649.449	8998.26
649.642	8715.64
649.835	8637.82
650.027	8639.87
650.22	8676.73
650.413	8625.53
650.605	8656.25
650.798	8590.72
650.991	8543.61
651.183	8514.94
651.376	8342.91
651.568	8392.06
651.761	8168.84
651.954	8314.24
652.146	8209.79
652.339	8179.08
652.531	8211.84
652.724	7959.94
652.916	8086.92
653.109	8158.6
653.301	7914.89
653.494	8043.91
653.686	7906.7
653.879	7914.89
654.071	7802.25
654.263	7636.36
654.456	7683.47
654.648	7904.65
654.84	7609.74
655.033	7593.36
655.225	7464.33
655.417	7484.81
655.61	7441.81
655.802	7531.92
655.994	7433.61
656.186	7370.13
656.379	7388.56
656.571	7335.31
656.763	7249.3
656.955	7181.71
657.148	7277.97
657.34	7222.67
657.532	7064.98
657.724	6944.15
657.916	7052.69
658.108	7165.33
658.3	7054.74
658.492	6868.38
658.684	6833.56
658.876	6895
659.068	6948.25
659.26	6862.23
659.452	6718.87
659.644	6768.02
659.836	6569.37
660.028	6684.06
660.22	6610.33
660.412	6536.6
660.604	6565.28
660.796	6540.7
660.988	6565.28
661.18	6299.04
661.372	6454.69
661.563	6432.16
661.755	6301.09
661.947	6423.97
662.139	6452.64
662.331	6165.92
662.522	6135.2
662.714	6194.59
662.906	6098.34
663.097	6262.18
663.289	6020.52
663.481	6079.91
663.673	5952.93
663.864	6129.06
664.056	5875.11
664.247	5924.26
664.439	5961.13
664.631	5918.12
664.822	5897.64
665.014	5811.62
665.205	5795.24
665.397	5758.38
665.588	5619.11
665.78	5574.06
665.971	5588.39
666.163	5647.79
666.354	5545.39
666.546	5631.4
666.737	5486
666.929	5492.14
667.12	5537.2
667.311	5526.96
667.503	5502.38
667.694	5533.1
667.885	5449.13
668.077	5492.14
668.268	5197.23
668.459	5334.45
668.651	5307.82
668.842	5176.75
669.033	5211.57
669.224	5291.44
669.416	5232.05
669.607	5301.68
669.798	5154.23
669.989	5152.18
670.18	5004.72
670.371	5193.14
670.563	5033.4
670.754	5068.21
670.945	4928.95
671.136	4994.48
671.327	5000.63
671.518	5031.35
671.709	4990.39
671.9	4933.04
672.091	4994.48
672.282	4935.09
672.473	4935.09
672.664	4908.47
672.855	4935.09
673.046	4724.15
673.237	4779.45
673.428	4869.56
673.619	4986.29
673.809	4679.1
674	4724.15
674.191	4793.78
674.382	4582.84
674.573	4771.26
674.764	4652.47
674.954	4629.95
675.145	4601.27
675.336	4498.88
675.527	4513.21
675.717	4582.84
675.908	4631.99
676.099	4578.75
676.289	4535.74
676.48	4470.2
676.671	4562.36
676.861	4490.68
677.052	4423.1
677.243	4482.49
677.433	4347.33
677.624	4486.59
677.814	4427.2
678.005	4357.57
678.195	4416.96
678.386	4462.01
678.576	4365.76
678.767	4394.43
678.957	4384.19
679.148	4449.72
679.338	4267.45
679.529	4355.52
679.719	4380.09
679.909	4302.27
680.1	4218.3
680.29	4261.31
680.481	4322.75
680.671	4324.8
680.861	4216.26
681.052	4363.71
681.242	4058.56
681.432	4193.73
681.622	3997.12
681.813	4341.18
682.003	4218.3
682.193	4152.77
682.383	4105.67
682.573	4244.93
682.764	4068.8
682.954	4140.48
683.144	4234.69
683.334	4224.45
683.524	4089.28
683.714	4132.29
683.904	4267.45
684.094	4107.71
684.284	4089.28
684.474	4038.08
684.664	4048.32
684.854	4087.23
685.044	3982.79
685.234	3831.24
685.424	3964.36
685.614	4001.22
685.804	3876.29
685.994	3980.74
686.184	3911.11
686.374	3886.53
686.564	3921.35
686.753	3839.43
686.943	3868.1
687.133	3859.91
687.323	3837.38
687.513	3825.09
687.702	3808.71
687.892	3857.86
688.082	3757.51
688.272	3843.53
688.461	3718.6
688.651	3716.55
688.841	3698.12
689.03	3786.18
689.22	3630.54
689.41	3558.86
689.599	3538.38
689.789	3626.44
689.979	3591.63
690.168	3538.38
690.358	3610.06
690.547	3478.99
690.737	3515.85
690.926	3466.7
691.116	3536.33
691.305	3481.03
691.495	3302.86
691.684	3333.58
691.874	3329.49
692.063	3466.7
692.252	3294.67
692.442	3433.93
692.631	3448.27
692.82	3288.53
693.01	3204.56
693.199	3149.26
693.388	3370.44
693.578	3263.95
693.767	3163.6
693.956	3120.59
694.146	3212.75
694.335	3190.22
694.524	3149.26
694.713	3026.39
694.902	3143.12
695.092	3157.46
695.281	3059.15
695.47	3093.97
695.659	3167.7
695.848	3065.3
696.037	3022.29
696.226	2983.38
696.415	3063.25
696.604	3030.48
696.793	2928.08
696.982	2923.99
697.171	2936.28
697.36	2919.89
697.549	2899.41
697.738	2848.21
697.927	2903.51
698.116	2915.8
698.305	2878.93
698.494	2815.45
698.683	2872.79
698.872	2956.75
699.061	2762.2
699.25	2665.94
699.438	2801.11
699.627	2911.7
699.816	2794.97
700.005	2844.12
700.193	2643.42
700.382	2747.86
700.571	2768.34
700.76	2713.05
700.948	2856.4
701.137	2739.67
701.326	2727.38
701.514	2747.86
701.703	2907.6
701.892	2670.04
702.08	2895.32
702.269	2756.05
702.457	2704.85
702.646	2715.09
702.834	2633.18
703.023	2674.14
703.212	2700.76
703.4	2682.33
703.589	2563.54
703.777	2598.36
703.965	2600.41
704.154	2641.37
704.342	2627.03
704.531	2559.45
704.719	2655.7
704.907	2543.07
705.096	2514.39
705.284	2493.91
705.472	2727.38
705.661	2538.97
705.849	2655.7
706.037	2491.87
706.226	2596.31
706.414	2596.31
706.602	2518.49
706.79	2584.02
706.979	2426.33
707.167	2588.12
707.355	2700.76
707.543	2563.54
707.731	2522.59
707.919	2526.68
708.107	2495.96
708.296	2526.68
708.484	2442.71
708.672	2522.59
708.86	2440.67
709.048	2592.22
709.236	2629.08
709.424	2510.3
709.612	2528.73
709.8	2532.83
709.988	2467.29
710.176	2549.21
710.364	2596.31
710.551	2452.95
710.739	2440.67
710.927	2534.87
711.115	2377.18
711.303	2598.36
711.491	2457.05
711.679	2428.38
711.866	2436.57
712.054	2475.48
712.242	2450.91
712.43	2541.02
712.617	2549.21
712.805	2479.58
712.993	2500.06
713.181	2522.59
713.368	2526.68
713.556	2430.43
713.744	2495.96
713.931	2522.59
714.119	2543.07
714.306	2569.69
714.494	2561.5
714.682	2467.29
714.869	2579.93
715.057	2473.43
715.244	2606.55
715.432	2584.02
715.619	2549.21
715.807	2622.94
715.994	2590.17
716.182	2475.48
716.369	2557.4
716.556	2532.83
716.744	2504.15
716.931	2596.31
717.119	2516.44
717.306	2514.39
717.493	2565.59
717.681	2604.5
717.868	2477.53
718.055	2469.34
718.242	2645.46
718.43	2530.78
718.617	2581.98
718.804	2588.12
718.991	2670.04
719.179	2557.4
719.366	2477.53
719.553	2563.54
719.74	2559.45
719.927	2608.6
720.114	2588.12
720.301	2450.91
720.488	2403.8
720.676	2459.1
720.863	2641.37
721.05	2528.73
721.237	2536.92
721.424	2565.59
721.611	2715.09
721.798	2526.68
721.985	2577.88
722.172	2518.49
722.358	2518.49
722.545	2553.31
722.732	2653.66
722.919	2614.74
723.106	2547.16
723.293	2600.41
723.48	2532.83
723.667	2487.77
723.853	2592.22
724.04	2469.34
724.227	2598.36
724.414	2493.91
724.6	2424.28
724.787	2602.46
724.974	2508.25
725.161	2549.21
725.347	2541.02
725.534	2555.35
725.72	2463.19
725.907	2579.93
726.094	2606.55
726.28	2620.89
726.467	2549.21
726.653	2600.41
726.84	2571.74
727.027	2772.44
727.213	2514.39
727.4	2639.32
727.586	2614.74
727.773	2627.03
727.959	2637.27
728.145	2635.22
728.332	2483.67
728.518	2674.14
728.705	2534.87
728.891	2571.74
729.077	2532.83
729.264	2600.41
729.45	2631.13
729.636	2807.25
729.823	2629.08
730.009	2532.83
730.195	2577.88
730.382	2602.46
730.568	2553.31
730.754	2608.6
730.94	2534.87
731.126	2612.7
731.313	2751.96
731.499	2631.13
731.685	2610.65
731.871	2708.95
732.057	2635.22
732.243	2584.02
732.429	2745.81
732.615	2612.7
732.801	2684.38
732.987	2569.69
733.173	2608.6
733.359	2649.56
733.545	2719.19
733.731	2670.04
733.917	2737.62
734.103	2584.02
734.289	2569.69
734.475	2581.98
734.661	2651.61
734.847	2729.43
735.033	2622.94
735.219	2551.26
735.404	2627.03
735.59	2606.55
735.776	2577.88
735.962	2723.29
736.148	2573.78
736.333	2547.16
736.519	2571.74
736.705	2606.55
736.89	2555.35
737.076	2643.42
737.262	2631.13
737.447	2702.81
737.633	2641.37
737.819	2674.14
738.004	2514.39
738.19	2600.41
738.375	2389.47
738.561	2590.17
738.747	2469.34
738.932	2557.4
739.118	2575.83
739.303	2543.07
739.489	2649.56
739.674	2424.28
739.859	2514.39
740.045	2428.38
740.23	2483.67
740.416	2508.25
740.601	2553.31
740.786	2397.66
740.972	2506.2
741.157	2506.2
741.342	2414.04
741.528	2321.88
741.713	2450.91
741.898	2534.87
742.084	2422.24
742.269	2428.38
742.454	2432.47
742.639	2483.67
742.824	2377.18
743.01	2436.57
743.195	2495.96
743.38	2491.87
743.565	2362.84
743.75	2340.32
743.935	2309.6
744.12	2438.62
744.305	2268.64
744.49	2270.69
744.675	2244.06
744.86	2399.71
745.045	2399.71
745.23	2381.28
745.415	2285.02
745.6	2221.53
745.785	2268.64
745.97	2188.77
746.155	2272.73
746.34	2295.26
746.525	2172.38
746.71	2125.28
746.895	2190.81
747.079	2098.66
747.264	2153.95
747.449	2135.52
747.634	2053.6
747.819	2106.85
748.003	2121.18
748.188	2076.13
748.373	2076.13
748.557	2125.28
748.742	2018.79
748.927	2086.37
749.111	2086.37
749.296	1971.68
749.481	2010.59
749.665	1998.31
749.85	1871.33
750.034	1930.72
750.219	1859.04
750.404	2002.4
750.588	1875.43
750.773	1877.48
750.957	1973.73
751.141	2002.4
751.326	1854.95
751.51	1920.48
751.695	1850.85
751.879	1867.24
752.064	1828.32
752.248	1760.74
752.432	1811.94
752.617	1801.7
752.801	1719.78
752.985	1674.73
753.17	1830.37
753.354	1873.38
753.538	1768.93
753.722	1799.65
753.907	1682.92
754.091	1641.96
754.275	1738.21
754.459	1660.39
754.643	1703.4
754.828	1594.86
755.012	1662.44
755.196	1572.33
755.38	1580.52
755.564	1551.85
755.748	1564.14
755.932	1689.06
756.116	1572.33
756.3	1535.46
756.484	1603.05
756.668	1543.66
756.852	1428.97
757.036	1502.7
757.22	1525.22
757.404	1435.11
757.588	1517.03
757.772	1467.88
757.956	1465.83
758.14	1502.7
758.323	1463.79
758.507	1463.79
758.691	1392.11
758.875	1461.74
759.059	1396.2
759.242	1496.55
759.426	1363.44
759.61	1324.52
759.794	1324.52
759.977	1281.52
760.161	1365.48
760.345	1377.77
760.528	1254.89
760.712	1275.37
760.895	1314.28
761.079	1261.04
761.263	1318.38
761.446	1285.61
761.63	1248.75
761.813	1261.04
761.997	1349.1
762.18	1273.32
762.364	1238.51
762.547	1248.75
762.731	1312.24
762.914	1287.66
763.098	1213.93
763.281	1261.04
763.464	1234.41
763.648	1220.08
763.831	1285.61
764.015	1228.27
764.198	1224.17
764.381	1195.5
764.564	1082.86
764.748	1168.88
764.931	1283.56
765.114	1082.86
765.297	1166.83
765.481	1183.21
765.664	1107.44
765.847	1177.07
766.03	1142.25
766.213	1154.54
766.397	1142.25
766.58	1117.68
766.763	1152.49
766.946	1134.06
767.129	1105.39
767.312	1050.1
767.495	1035.76
767.678	1129.97
767.861	1052.14
768.044	1084.91
768.227	1111.54
768.41	1074.67
768.593	1115.63
768.776	1052.14
768.959	1043.95
769.142	1029.62
769.324	1019.38
769.507	1172.97
769.69	1064.43
769.873	1080.82
770.056	1007.09
770.239	1009.14
770.421	1074.67
770.604	1023.47
770.787	972.27
770.97	953.84
771.152	927.22
771.335	992.75
771.518	959.99
771.7	1025.52
771.883	964.08
772.066	968.18
772.248	992.75
772.431	945.65
772.613	1002.99
772.796	888.31
772.978	933.36
773.161	890.35
773.343	871.92
773.526	933.36
773.708	939.51
773.891	914.93
774.073	927.22
774.256	845.3
774.438	869.87
774.621	781.81
774.803	949.75
774.985	851.44
775.168	824.82
775.35	853.49
775.532	806.39
775.715	769.52
775.897	941.55
776.079	816.63
776.261	769.52
776.444	798.2
776.626	761.33
776.808	841.2
776.99	747
777.173	777.72
777.355	785.91
777.537	742.9
777.719	785.91
777.901	812.53
778.083	777.72
778.265	699.89
778.447	718.33
778.629	738.8
778.811	771.57
778.993	751.09
779.175	712.18
779.357	759.28
779.539	669.17
779.721	695.8
779.903	632.31
780.085	732.66
780.267	671.22
780.449	742.9
780.631	669.17
780.812	634.36
780.994	601.59
781.176	634.36
781.358	564.73
781.54	718.33
781.721	613.88
781.903	710.13
782.085	634.36
782.267	658.93
782.448	634.36
782.63	611.83
782.812	601.59
782.993	531.96
783.175	642.55
783.357	544.25
783.538	558.58
783.72	540.15
783.901	599.54
784.083	646.65
784.264	599.54
784.446	521.72
784.627	501.24
784.809	554.49
784.99	507.38
785.172	462.33
785.353	544.25
785.535	550.39
785.716	454.14
785.897	503.29
786.079	581.11
786.26	503.29
786.441	484.86
786.623	447.99
786.804	458.23
786.985	501.24
787.167	462.33
787.348	484.86
787.529	536.06
787.71	536.06
787.891	474.62
788.073	503.29
788.254	478.71
788.435	441.85
788.616	400.89
788.797	439.8
788.978	392.7
789.159	466.42
789.34	493.05
789.522	380.41
789.703	484.86
789.884	482.81
790.065	380.41
790.246	361.98
790.427	333.31
790.607	437.75
790.788	382.46
790.969	407.03
791.15	495.1
791.331	370.17
791.512	443.9
791.693	380.41
791.874	493.05
792.054	347.64
792.235	464.38
792.416	380.41
792.597	364.03
792.778	359.93
792.958	351.74
793.139	353.79
793.32	474.62
793.5	353.79
793.681	380.41
793.862	396.79
794.042	382.46
794.223	361.98
794.404	357.88
794.584	341.5
794.765	294.4
794.945	407.03
795.126	372.22
795.306	345.59
795.487	394.75
795.667	353.79
795.848	447.99
796.028	335.35
796.209	347.64
796.389	337.4
796.57	355.83
796.75	374.27
796.93	318.97
797.111	331.26
797.291	318.97
797.471	335.35
797.652	269.82
797.832	282.11
798.012	284.16
798.192	333.31
798.373	337.4
798.553	284.16
798.733	249.34
798.913	316.92
799.093	298.49
799.274	241.15
799.454	378.36
799.634	304.64
799.814	292.35
799.994	329.21
800.174	353.79
800.354	245.24
800.534	185.85
800.714	288.25
800.894	245.24
801.074	202.24
801.254	306.68
801.434	359.93
801.614	294.4
801.794	208.38
801.974	577.02
802.154	249.34
802.334	259.58
802.514	304.64
802.693	235
802.873	218.62
803.053	232.96
803.233	249.34
803.413	263.68
803.592	224.76
803.772	255.48
803.952	318.97
804.131	181.76
804.311	251.39
804.491	259.58
804.67	222.72
804.85	189.95
805.03	247.29
805.209	230.91
805.389	241.15
805.568	263.68
805.748	253.44
805.928	157.18
806.107	265.72
806.287	179.71
806.466	278.01
806.646	284.16
806.825	167.42
807.004	255.48
807.184	171.52
807.363	237.05
807.543	167.42
807.722	253.44
807.901	288.25
808.081	210.43
808.26	253.44
808.439	202.24
808.619	173.57
808.798	253.44
808.977	126.46
809.156	194.05
809.336	196.09
809.515	263.68
809.694	230.91
809.873	173.57
810.052	192
810.231	222.72
810.411	220.67
810.59	247.29
810.769	255.48
810.948	206.33
811.127	177.66
811.306	194.05
811.485	192
811.664	189.95
811.843	175.61
812.022	269.82
812.201	204.28
812.38	187.9
812.559	124.41
812.737	253.44
812.916	151.04
813.095	144.89
813.274	130.56
813.453	155.13
813.632	87.55
813.811	148.99
813.989	181.76
814.168	167.42
814.347	200.19
814.526	169.47
814.704	183.81
814.883	243.2
815.062	198.14
815.24	181.76
815.419	151.04
815.598	136.7
815.776	118.27
815.955	187.9
816.133	114.17
816.312	165.37
816.49	200.19
816.669	175.61
816.847	187.9
817.026	167.42
817.204	67.07
817.383	177.66
817.561	79.36
817.74	198.14
817.918	230.91
818.097	169.47
818.275	67.07
818.453	165.37
818.632	105.98
818.81	50.69
818.988	183.81
819.167	46.59
819.345	132.61
819.523	101.89
819.701	194.05
819.879	87.55
820.058	171.52
820.236	200.19
820.414	151.04
820.592	112.13
820.77	144.89
820.948	183.81
821.127	122.37
821.305	159.23
821.483	112.13
821.661	200.19
821.839	118.27
822.017	163.33
822.195	210.43
822.373	93.69
822.551	130.56
822.729	142.85
822.907	151.04
823.085	105.98
823.262	165.37
823.44	85.5
823.618	118.27
823.796	167.42
823.974	122.37
824.152	165.37
824.329	140.8
824.507	228.86
824.685	108.03
824.863	56.83
825.04	146.94
825.218	120.32
825.396	210.43
825.574	167.42
825.751	134.65
825.929	157.18
826.107	110.08
826.284	134.65
826.462	73.21
826.639	60.93
826.817	118.27
826.994	77.31
827.172	62.98
827.349	116.22
827.527	134.65
827.704	101.89
827.882	77.31
828.059	114.17
828.237	75.26
828.414	132.61
828.591	75.26
828.769	126.46
828.946	206.33
829.124	50.69
829.301	130.56
829.478	128.51
829.655	189.95
829.833	153.09
830.01	103.93
830.187	114.17
830.364	36.35
830.542	69.12
830.719	126.46
830.896	93.69
831.073	124.41
831.25	75.26
831.427	77.31
831.604	163.33
831.782	103.93
831.959	134.65
832.136	-8.7
832.313	108.03
832.49	83.45
832.667	48.64
832.844	110.08
833.021	134.65
833.198	134.65
833.374	50.69
833.551	85.5
833.728	140.8
833.905	58.88
834.082	97.79
834.259	3.58
834.436	144.89
834.612	118.27
834.789	134.65
834.966	17.92
835.143	65.02
835.319	85.5
835.496	38.4
835.673	101.89
835.85	146.94
836.026	30.21
836.203	40.45
836.38	110.08
836.556	85.5
836.733	48.64
836.909	11.78
837.086	52.74
837.262	52.74
837.439	52.74
837.616	40.45
837.792	65.02
837.968	122.37
838.145	-37.38
838.321	73.21
838.498	28.16
838.674	48.64
838.851	93.69
839.027	110.08
839.203	118.27
839.38	101.89
839.556	3.58
839.732	130.56
839.909	65.02
840.085	93.69
840.261	134.65
840.437	81.41
840.614	116.22
840.79	28.16
840.966	65.02
841.142	-27.14
841.318	50.69
841.494	67.07
841.671	28.16
841.847	95.74
842.023	40.45
842.199	122.37
842.375	75.26
842.551	56.83
842.727	73.21
842.903	120.32
843.079	103.93
843.255	87.55
843.431	3.58
843.607	99.84
843.783	3.58
843.959	36.35
844.134	58.88
844.31	99.84
844.486	77.31
844.662	101.89
844.838	58.88
845.013	56.83
845.189	126.46
845.365	71.17
845.541	36.35
845.716	73.21
845.892	126.46
846.068	-0.51
846.244	85.5
846.419	91.65
846.595	15.87
846.77	-29.18
846.946	-37.38
847.122	69.12
847.297	-4.61
847.473	73.21
847.648	48.64
847.824	52.74
847.999	9.73
848.175	13.82
848.35	-4.61
848.526	56.83
848.701	19.97
848.876	28.16
849.052	75.26
849.227	60.93
849.403	-0.51
849.578	101.89
849.753	24.06
849.929	58.88
850.104	-27.14
850.279	54.78
850.454	3.58
850.63	69.12
850.805	58.88
850.98	93.69
851.155	42.5
851.33	50.69
851.505	7.68
851.681	97.79
851.856	17.92
852.031	44.54
852.206	97.79
852.381	9.73
852.556	54.78
852.731	28.16
852.906	65.02
853.081	56.83
853.256	95.74
853.431	19.97
853.606	24.06
853.781	65.02
853.956	11.78
854.131	105.98
854.305	36.35
854.48	71.17
854.655	3.58
854.83	-45.57
855.005	3.58
855.18	65.02
855.354	81.41
855.529	13.82
855.704	-6.66
855.879	50.69
856.053	-0.51
856.228	95.74
856.403	-8.7
856.577	71.17
856.752	15.87
856.926	17.92
857.101	56.83
857.276	28.16
857.45	-25.09
857.625	36.35
857.799	42.5
857.974	67.07
858.148	15.87
858.323	77.31
858.497	77.31
858.672	67.07
858.846	67.07
859.02	118.27
859.195	69.12
859.369	87.55
859.543	-25.09
859.718	65.02
859.892	3.58
860.066	44.54
860.241	42.5
860.415	-0.51
860.589	11.78
860.763	69.12
860.938	50.69
861.112	42.5
861.286	-53.76
861.46	62.98
861.634	11.78
861.808	44.54
861.982	-0.51
862.157	24.06
862.331	-2.56
862.505	34.3
862.679	44.54
862.853	34.3
863.027	34.3
863.201	-25.09
863.375	-66.05
863.549	-18.94
863.722	22.02
863.896	9.73
864.07	60.93
864.244	67.07
864.418	11.78
864.592	24.06
864.766	40.45
864.939	28.16
865.113	-37.38
865.287	50.69
865.461	24.06
865.634	87.55
865.808	-4.61
865.982	13.82
866.156	-8.7
866.329	15.87
866.503	15.87
866.676	-6.66
866.85	38.4
867.024	24.06
867.197	26.11
867.371	101.89
867.544	71.17
867.718	15.87
867.891	52.74
868.065	-2.56
868.238	34.3
868.412	40.45
868.585	-66.05
868.759	44.54
868.932	65.02
869.105	28.16
869.279	15.87
869.452	54.78
869.625	-12.8
869.799	38.4
869.972	95.74
870.145	17.92
870.319	5.63
870.492	85.5
870.665	105.98
870.838	30.21
871.011	38.4
871.185	11.78
871.358	11.78
871.531	-16.9
871.704	11.78
871.877	30.21
872.05	-41.47
872.223	36.35
872.396	24.06
872.569	-20.99
872.742	-31.23
872.915	-6.66
873.088	-23.04
873.261	108.03
873.434	-82.43
873.607	-16.9
873.78	-8.7
873.953	-43.52
874.126	-4.61
874.299	42.5
874.471	40.45
874.644	130.56
874.817	11.78
874.99	83.45
875.163	-25.09
875.335	22.02
875.508	58.88
875.681	54.78
875.853	42.5
876.026	-6.66
876.199	-6.66
876.371	-57.86
876.544	-8.7
876.717	34.3
876.889	-53.76
877.062	17.92
877.234	-8.7
877.407	-61.95
877.579	56.83
877.752	40.45
877.924	36.35
878.097	26.11
878.269	54.78
878.442	24.06
878.614	34.3
878.786	32.26
878.959	-20.99
879.131	60.93
879.303	1.54
879.476	3.58
879.648	-14.85
879.82	75.26
879.993	3.58
880.165	-31.23
880.337	-66.05
880.509	-0.51
880.681	-6.66
880.854	-4.61
881.026	60.93
881.198	62.98
881.37	7.68
881.542	54.78
881.714	44.54
881.886	24.06
882.058	11.78
882.23	65.02
882.402	17.92
882.574	24.06
882.746	62.98
882.918	56.83
883.09	48.64
883.262	-27.14
883.434	19.97
883.606	9.73
883.778	9.73
883.95	24.06
884.122	11.78
884.293	17.92
884.465	26.11
884.637	32.26
884.809	67.07
884.98	85.5
885.152	34.3
885.324	28.16
885.496	-6.66
885.667	32.26
885.839	-14.85
886.011	17.92
886.182	-33.28
886.354	58.88
886.525	-43.52
886.697	91.65
886.869	65.02
887.04	-35.33
887.212	28.16
887.383	22.02
887.555	-39.42
887.726	19.97
887.897	9.73
888.069	9.73
888.24	-8.7
888.412	-53.76
888.583	-2.56
888.754	46.59
888.926	11.78
889.097	36.35
889.268	26.11
889.44	69.12
889.611	-72.19
889.782	15.87
889.953	-47.62
890.125	-20.99
890.296	36.35
890.467	24.06
890.638	19.97
890.809	38.4
890.98	-31.23
891.151	38.4
891.323	-23.04
891.494	9.73
891.665	11.78
891.836	44.54
892.007	30.21
892.178	36.35
892.349	-33.28
892.52	-23.04
892.691	32.26
892.862	-10.75
893.032	-37.38
893.203	-12.8
893.374	-8.7
893.545	7.68
893.716	-2.56
893.887	79.36
894.057	40.45
894.228	11.78
894.399	15.87
894.57	50.69
894.74	81.41
894.911	-4.61
895.082	67.07
895.253	5.63
895.423	67.07
895.594	26.11
895.764	15.87
895.935	-20.99
896.106	9.73
896.276	89.6
896.447	54.78
896.617	-4.61
896.788	-39.42
896.958	-61.95
897.129	48.64
897.299	67.07
897.47	3.58
897.64	69.12
897.81	-39.42
897.981	-8.7
898.151	19.97
898.322	-31.23
898.492	-20.99
898.662	34.3
898.832	60.93
899.003	48.64
899.173	75.26
899.343	48.64
899.513	19.97
