Data from USB4F104151__10__11-36-22-492.txt Node

Date: Fri Mar 14 11:36:22 EDT 2025
User: louis
Spectrometer: USB4F10415
Trigger mode: 4
Integration Time (sec): 2.000000E-2
Scans to average: 1
Electric dark correction enabled: true
Nonlinearity correction enabled: false
Boxcar width: 0
XAxis mode: Wavelengths
Number of Pixels in Spectrum: 3648
>>>>>Begin Spectral Data<<<<<
178.204	58.37
178.424	58.37
178.644	58.37
178.864	-78.85
179.084	-64.51
179.304	31.74
179.524	-11.26
179.744	-21.5
179.964	33.79
180.184	-41.98
180.404	19.46
180.624	-3.07
180.844	-1.02
181.064	-48.13
181.283	27.65
181.503	-9.22
181.723	23.55
181.943	-54.27
182.163	11.26
182.383	48.13
182.602	35.84
182.822	-5.12
183.042	33.79
183.262	-7.17
183.482	89.09
183.701	-58.37
183.921	31.74
184.141	64.51
184.361	50.18
184.58	25.6
184.8	103.42
185.02	66.56
185.239	95.23
185.459	-13.31
185.679	52.22
185.898	-11.26
186.118	60.42
186.338	54.27
186.557	15.36
186.777	21.5
186.997	93.18
187.216	23.55
187.436	117.76
187.655	-19.46
187.875	44.03
188.095	56.32
188.314	74.75
188.534	-15.36
188.753	-1.02
188.973	50.18
189.192	109.57
189.412	-19.46
189.631	11.26
189.851	44.03
190.07	31.74
190.29	9.22
190.509	-33.79
190.729	-33.79
190.948	-19.46
191.168	84.99
191.387	31.74
191.607	-1.02
191.826	23.55
192.045	39.94
192.265	76.8
192.484	56.32
192.704	27.65
192.923	-25.6
193.142	21.5
193.362	1.02
193.581	-1.02
193.8	-7.17
194.02	52.22
194.239	44.03
194.458	50.18
194.678	-62.46
194.897	-9.22
195.116	17.41
195.335	111.61
195.555	50.18
195.774	29.7
195.993	31.74
196.212	105.47
196.432	13.31
196.651	72.7
196.87	13.31
197.089	82.94
197.308	9.22
197.528	68.61
197.747	21.5
197.966	-31.74
198.185	60.42
198.404	58.37
198.623	-46.08
198.842	76.8
199.062	25.6
199.281	35.84
199.5	44.03
199.719	56.32
199.938	35.84
200.157	-25.6
200.376	-13.31
200.595	-5.12
200.814	-11.26
201.033	60.42
201.252	-11.26
201.471	1.02
201.69	17.41
201.909	21.5
202.128	68.61
202.347	17.41
202.566	107.52
202.785	3.07
203.004	44.03
203.223	82.94
203.442	41.98
203.661	44.03
203.879	44.03
204.098	52.22
204.317	37.89
204.536	-21.5
204.755	21.5
204.974	-31.74
205.193	48.13
205.411	50.18
205.63	35.84
205.849	44.03
206.068	109.57
206.287	7.17
206.505	-3.07
206.724	-25.6
206.943	35.84
207.162	64.51
207.381	21.5
207.599	39.94
207.818	23.55
208.037	-11.26
208.255	-21.5
208.474	54.27
208.693	13.31
208.911	3.07
209.13	48.13
209.349	44.03
209.567	62.46
209.786	41.98
210.005	3.07
210.223	9.22
210.442	-44.03
210.661	-5.12
210.879	58.37
211.098	39.94
211.316	11.26
211.535	25.6
211.753	15.36
211.972	44.03
212.191	31.74
212.409	84.99
212.628	58.37
212.846	72.7
213.065	-37.89
213.283	39.94
213.502	23.55
213.72	-23.55
213.938	-41.98
214.157	52.22
214.375	44.03
214.594	60.42
214.812	-25.6
215.031	23.55
215.249	3.07
215.467	19.46
215.686	11.26
215.904	31.74
216.122	41.98
216.341	-21.5
216.559	35.84
216.778	25.6
216.996	64.51
217.214	27.65
217.432	68.61
217.651	50.18
217.869	23.55
218.087	58.37
218.306	78.85
218.524	109.57
218.742	60.42
218.96	52.22
219.179	68.61
219.397	21.5
219.615	115.71
219.833	-39.94
220.051	9.22
220.27	29.7
220.488	7.17
220.706	76.8
220.924	-29.7
221.142	11.26
221.36	3.07
221.578	13.31
221.796	78.85
222.015	35.84
222.233	-15.36
222.451	11.26
222.669	19.46
222.887	21.5
223.105	11.26
223.323	-13.31
223.541	3.07
223.759	15.36
223.977	-15.36
224.195	25.6
224.413	60.42
224.631	-5.12
224.849	44.03
225.067	78.85
225.285	17.41
225.503	99.33
225.721	-29.7
225.939	62.46
226.157	21.5
226.375	76.8
226.592	-15.36
226.81	46.08
227.028	11.26
227.246	117.76
227.464	21.5
227.682	23.55
227.9	37.89
228.117	41.98
228.335	50.18
228.553	19.46
228.771	84.99
228.989	72.7
229.206	-9.22
229.424	-3.07
229.642	60.42
229.86	-44.03
230.077	15.36
230.295	17.41
230.513	95.23
230.731	39.94
230.948	101.37
231.166	-23.55
231.384	78.85
231.601	29.7
231.819	23.55
232.037	-19.46
232.254	9.22
232.472	41.98
232.689	39.94
232.907	-48.13
233.125	39.94
233.342	19.46
233.56	-21.5
233.777	39.94
233.995	50.18
234.213	39.94
234.43	-5.12
234.648	-1.02
234.865	41.98
235.083	35.84
235.3	-1.02
235.518	70.65
235.735	50.18
235.953	52.22
236.17	54.27
236.388	-9.22
236.605	15.36
236.822	76.8
237.04	31.74
237.257	74.75
237.475	56.32
237.692	-9.22
237.909	48.13
238.127	64.51
238.344	52.22
238.562	105.47
238.779	23.55
238.996	76.8
239.214	103.42
239.431	27.65
239.648	-25.6
239.865	13.31
240.083	17.41
240.3	-9.22
240.517	33.79
240.735	39.94
240.952	46.08
241.169	-17.41
241.386	-58.37
241.603	66.56
241.821	13.31
242.038	52.22
242.255	44.03
242.472	62.46
242.689	58.37
242.907	31.74
243.124	58.37
243.341	17.41
243.558	11.26
243.775	17.41
243.992	31.74
244.209	-27.65
244.426	33.79
244.643	-13.31
244.86	37.89
245.078	17.41
245.295	35.84
245.512	13.31
245.729	-11.26
245.946	39.94
246.163	15.36
246.38	-1.02
246.597	41.98
246.814	66.56
247.031	64.51
247.248	27.65
247.464	7.17
247.681	23.55
247.898	50.18
248.115	19.46
248.332	48.13
248.549	109.57
248.766	74.75
248.983	35.84
249.2	121.85
249.417	95.23
249.633	-21.5
249.85	50.18
250.067	-9.22
250.284	-5.12
250.501	-1.02
250.717	46.08
250.934	-19.46
251.151	50.18
251.368	5.12
251.585	56.32
251.801	-23.55
252.018	-41.98
252.235	-5.12
252.451	44.03
252.668	68.61
252.885	-64.51
253.102	-29.7
253.318	-66.56
253.535	-9.22
253.752	74.75
253.968	19.46
254.185	56.32
254.401	11.26
254.618	1.02
254.835	33.79
255.051	97.28
255.268	56.32
255.484	-1.02
255.701	21.5
255.917	31.74
256.134	41.98
256.351	-29.7
256.567	35.84
256.784	66.56
257	-15.36
257.217	11.26
257.433	-21.5
257.65	-35.84
257.866	19.46
258.082	62.46
258.299	1.02
258.515	37.89
258.732	-5.12
258.948	44.03
259.165	-52.22
259.381	-58.37
259.597	52.22
259.814	-3.07
260.03	19.46
260.246	60.42
260.463	37.89
260.679	15.36
260.895	-13.31
261.112	5.12
261.328	-5.12
261.544	64.51
261.761	46.08
261.977	27.65
262.193	-1.02
262.409	95.23
262.626	-25.6
262.842	52.22
263.058	-7.17
263.274	37.89
263.49	70.65
263.707	50.18
263.923	111.61
264.139	-25.6
264.355	56.32
264.571	95.23
264.787	-5.12
265.004	46.08
265.22	39.94
265.436	23.55
265.652	113.66
265.868	11.26
266.084	64.51
266.3	66.56
266.516	25.6
266.732	27.65
266.948	23.55
267.164	21.5
267.38	31.74
267.596	7.17
267.812	121.85
268.028	80.89
268.244	9.22
268.46	-5.12
268.676	21.5
268.892	95.23
269.108	70.65
269.324	19.46
269.54	72.7
269.756	19.46
269.972	-5.12
270.188	60.42
270.403	-7.17
270.619	13.31
270.835	80.89
271.051	1.02
271.267	50.18
271.483	35.84
271.698	76.8
271.914	11.26
272.13	23.55
272.346	35.84
272.562	17.41
272.777	19.46
272.993	46.08
273.209	27.65
273.425	62.46
273.64	9.22
273.856	89.09
274.072	-37.89
274.287	-19.46
274.503	93.18
274.719	50.18
274.934	37.89
275.15	-5.12
275.366	31.74
275.581	-21.5
275.797	33.79
276.012	11.26
276.228	-15.36
276.444	-7.17
276.659	17.41
276.875	-3.07
277.09	-3.07
277.306	9.22
277.521	25.6
277.737	-3.07
277.952	-9.22
278.168	87.04
278.383	82.94
278.599	15.36
278.814	35.84
279.03	-1.02
279.245	68.61
279.461	70.65
279.676	44.03
279.892	-15.36
280.107	35.84
280.322	3.07
280.538	31.74
280.753	19.46
280.969	54.27
281.184	11.26
281.399	109.57
281.615	54.27
281.83	64.51
282.045	-17.41
282.26	-17.41
282.476	25.6
282.691	60.42
282.906	46.08
283.122	-13.31
283.337	29.7
283.552	13.31
283.767	-41.98
283.983	64.51
284.198	82.94
284.413	56.32
284.628	-37.89
284.843	-21.5
285.058	-21.5
285.274	15.36
285.489	56.32
285.704	95.23
285.919	19.46
286.134	56.32
286.349	-27.65
286.564	25.6
286.779	99.33
286.995	33.79
287.21	-17.41
287.425	11.26
287.64	-41.98
287.855	5.12
288.07	13.31
288.285	33.79
288.5	117.76
288.715	68.61
288.93	17.41
289.145	-1.02
289.36	31.74
289.575	19.46
289.79	60.42
290.004	33.79
290.219	37.89
290.434	27.65
290.649	3.07
290.864	25.6
291.079	-23.55
291.294	48.13
291.509	35.84
291.724	27.65
291.938	82.94
292.153	44.03
292.368	101.37
292.583	27.65
292.798	58.37
293.012	130.05
293.227	-13.31
293.442	25.6
293.657	48.13
293.871	17.41
294.086	23.55
294.301	60.42
294.516	37.89
294.73	46.08
294.945	11.26
295.16	115.71
295.374	-5.12
295.589	-48.13
295.804	-21.5
296.018	82.94
296.233	1.02
296.447	17.41
296.662	-41.98
296.877	-1.02
297.091	82.94
297.306	29.7
297.52	52.22
297.735	64.51
297.949	50.18
298.164	23.55
298.378	1.02
298.593	-15.36
298.807	-5.12
299.022	11.26
299.236	52.22
299.451	58.37
299.665	-13.31
299.88	54.27
300.094	52.22
300.309	27.65
300.523	44.03
300.737	11.26
300.952	15.36
301.166	48.13
301.381	9.22
301.595	27.65
301.809	-7.17
302.024	29.7
302.238	19.46
302.452	89.09
302.667	9.22
302.881	19.46
303.095	91.13
303.309	84.99
303.524	33.79
303.738	64.51
303.952	9.22
304.166	82.94
304.381	-15.36
304.595	52.22
304.809	64.51
305.023	78.85
305.237	56.32
305.452	50.18
305.666	31.74
305.88	50.18
306.094	46.08
306.308	23.55
306.522	7.17
306.736	31.74
306.95	74.75
307.164	60.42
307.379	35.84
307.593	80.89
307.807	-27.65
308.021	41.98
308.235	15.36
308.449	-17.41
308.663	9.22
308.877	25.6
309.091	-29.7
309.305	50.18
309.519	1.02
309.733	33.79
309.947	-7.17
310.161	76.8
310.374	3.07
310.588	7.17
310.802	66.56
311.016	60.42
311.23	-15.36
311.444	60.42
311.658	121.85
311.872	48.13
312.085	68.61
312.299	27.65
312.513	44.03
312.727	27.65
312.941	25.6
313.154	-7.17
313.368	17.41
313.582	19.46
313.796	27.65
314.009	87.04
314.223	33.79
314.437	68.61
314.651	39.94
314.864	48.13
315.078	35.84
315.292	54.27
315.505	7.17
315.719	82.94
315.933	-39.94
316.146	95.23
316.36	54.27
316.573	25.6
316.787	33.79
317.001	54.27
317.214	39.94
317.428	54.27
317.641	29.7
317.855	11.26
318.068	21.5
318.282	60.42
318.495	121.85
318.709	60.42
318.922	72.7
319.136	103.42
319.349	132.09
319.563	23.55
319.776	39.94
319.99	-9.22
320.203	-25.6
320.417	68.61
320.63	25.6
320.843	130.05
321.057	35.84
321.27	89.09
321.483	66.56
321.697	19.46
321.91	33.79
322.124	9.22
322.337	78.85
322.55	3.07
322.763	130.05
322.977	-1.02
323.19	68.61
323.403	50.18
323.617	-46.08
323.83	1.02
324.043	107.52
324.256	-46.08
324.469	44.03
324.683	31.74
324.896	3.07
325.109	50.18
325.322	56.32
325.535	-17.41
325.748	72.7
325.962	33.79
326.175	72.7
326.388	11.26
326.601	31.74
326.814	52.22
327.027	-17.41
327.24	39.94
327.453	19.46
327.666	84.99
327.879	44.03
328.092	138.24
328.305	72.7
328.518	62.46
328.731	62.46
328.944	113.66
329.157	50.18
329.37	31.74
329.583	7.17
329.796	7.17
330.009	72.7
330.222	99.33
330.435	74.75
330.648	74.75
330.861	19.46
331.073	35.84
331.286	35.84
331.499	64.51
331.712	-21.5
331.925	74.75
332.138	19.46
332.35	27.65
332.563	7.17
332.776	72.7
332.989	19.46
333.202	9.22
333.414	105.47
333.627	72.7
333.84	39.94
334.053	-21.5
334.265	11.26
334.478	76.8
334.691	52.22
334.903	13.31
335.116	7.17
335.329	11.26
335.541	13.31
335.754	80.89
335.966	52.22
336.179	15.36
336.392	48.13
336.604	44.03
336.817	109.57
337.029	-13.31
337.242	60.42
337.454	115.71
337.667	25.6
337.88	68.61
338.092	99.33
338.305	76.8
338.517	39.94
338.729	3.07
338.942	64.51
339.154	19.46
339.367	-19.46
339.579	60.42
339.792	29.7
340.004	76.8
340.217	39.94
340.429	29.7
340.641	15.36
340.854	54.27
341.066	-1.02
341.278	29.7
341.491	29.7
341.703	25.6
341.915	64.51
342.128	68.61
342.34	21.5
342.552	27.65
342.764	-5.12
342.977	44.03
343.189	27.65
343.401	109.57
343.613	-39.94
343.826	5.12
344.038	1.02
344.25	64.51
344.462	-29.7
344.674	46.08
344.886	23.55
345.099	46.08
345.311	125.95
345.523	56.32
345.735	-9.22
345.947	132.09
346.159	46.08
346.371	97.28
346.583	125.95
346.795	84.99
347.007	101.37
347.219	56.32
347.431	-9.22
347.643	93.18
347.855	78.85
348.067	3.07
348.279	93.18
348.491	64.51
348.703	44.03
348.915	97.28
349.127	27.65
349.339	142.33
349.551	-5.12
349.763	125.95
349.975	64.51
350.187	35.84
350.399	41.98
350.61	84.99
350.822	39.94
351.034	82.94
351.246	35.84
351.458	23.55
351.669	123.9
351.881	50.18
352.093	35.84
352.305	39.94
352.517	17.41
352.728	68.61
352.94	64.51
353.152	23.55
353.363	72.7
353.575	23.55
353.787	58.37
353.999	33.79
354.21	103.42
354.422	-13.31
354.633	84.99
354.845	41.98
355.057	78.85
355.268	64.51
355.48	50.18
355.692	3.07
355.903	41.98
356.115	84.99
356.326	39.94
356.538	37.89
356.749	70.65
356.961	84.99
357.172	-9.22
357.384	52.22
357.595	25.6
357.807	54.27
358.018	41.98
358.23	27.65
358.441	46.08
358.653	109.57
358.864	58.37
359.075	29.7
359.287	70.65
359.498	19.46
359.709	17.41
359.921	44.03
360.132	41.98
360.344	82.94
360.555	35.84
360.766	-17.41
360.977	91.13
361.189	121.85
361.4	50.18
361.611	41.98
361.823	39.94
362.034	105.47
362.245	37.89
362.456	41.98
362.667	-25.6
362.879	23.55
363.09	101.37
363.301	87.04
363.512	44.03
363.723	35.84
363.935	11.26
364.146	123.9
364.357	27.65
364.568	17.41
364.779	-1.02
364.99	84.99
365.201	52.22
365.412	31.74
365.623	-1.02
365.834	70.65
366.045	5.12
366.256	115.71
366.467	1.02
366.678	29.7
366.889	33.79
367.1	9.22
367.311	44.03
367.522	93.18
367.733	187.39
367.944	80.89
368.155	31.74
368.366	54.27
368.577	74.75
368.788	95.23
368.999	27.65
369.209	89.09
369.42	72.7
369.631	11.26
369.842	136.19
370.053	15.36
370.264	72.7
370.474	66.56
370.685	62.46
370.896	3.07
371.107	27.65
371.317	35.84
371.528	44.03
371.739	39.94
371.95	158.72
372.16	87.04
372.371	19.46
372.582	33.79
372.792	52.22
373.003	54.27
373.214	13.31
373.424	91.13
373.635	74.75
373.846	109.57
374.056	54.27
374.267	11.26
374.477	99.33
374.688	54.27
374.898	35.84
375.109	121.85
375.319	52.22
375.53	31.74
375.74	64.51
375.951	105.47
376.161	52.22
376.372	99.33
376.582	44.03
376.793	99.33
377.003	31.74
377.214	35.84
377.424	46.08
377.635	76.8
377.845	87.04
378.055	31.74
378.266	-58.37
378.476	84.99
378.686	74.75
378.897	66.56
379.107	60.42
379.317	58.37
379.528	-46.08
379.738	1.02
379.948	-13.31
380.158	125.95
380.369	60.42
380.579	50.18
380.789	48.13
380.999	101.37
381.21	105.47
381.42	50.18
381.63	15.36
381.84	15.36
382.05	44.03
382.261	84.99
382.471	56.32
382.681	25.6
382.891	91.13
383.101	31.74
383.311	31.74
383.521	64.51
383.731	-13.31
383.941	130.05
384.151	35.84
384.361	105.47
384.571	84.99
384.781	-3.07
384.991	72.7
385.201	103.42
385.411	93.18
385.621	58.37
385.831	76.8
386.041	33.79
386.251	80.89
386.461	46.08
386.671	101.37
386.881	82.94
387.091	84.99
387.301	60.42
387.511	29.7
387.72	66.56
387.93	64.51
388.14	29.7
388.35	60.42
388.56	125.95
388.769	78.85
388.979	7.17
389.189	35.84
389.399	17.41
389.609	64.51
389.818	125.95
390.028	84.99
390.238	72.7
390.447	15.36
390.657	109.57
390.867	50.18
391.076	95.23
391.286	128
391.496	164.86
391.705	-5.12
391.915	80.89
392.125	89.09
392.334	132.09
392.544	41.98
392.753	72.7
392.963	58.37
393.172	93.18
393.382	91.13
393.591	50.18
393.801	46.08
394.01	107.52
394.22	142.33
394.429	99.33
394.639	107.52
394.848	52.22
395.058	72.7
395.267	130.05
395.477	48.13
395.686	66.56
395.895	154.62
396.105	158.72
396.314	195.58
396.524	123.9
396.733	138.24
396.942	111.61
397.152	93.18
397.361	89.09
397.57	80.89
397.78	95.23
397.989	125.95
398.198	158.72
398.407	52.22
398.617	50.18
398.826	72.7
399.035	130.05
399.244	95.23
399.453	113.66
399.663	156.67
399.872	78.85
400.081	150.53
400.29	148.48
400.499	46.08
400.708	150.53
400.917	142.33
401.127	113.66
401.336	175.1
401.545	82.94
401.754	84.99
401.963	74.75
402.172	54.27
402.381	107.52
402.59	113.66
402.799	68.61
403.008	121.85
403.217	117.76
403.426	142.33
403.635	132.09
403.844	150.53
404.053	175.1
404.262	117.76
404.471	234.49
404.68	211.96
404.888	152.57
405.097	91.13
405.306	138.24
405.515	183.29
405.724	199.68
405.933	171.01
406.142	242.68
406.35	181.25
406.559	205.82
406.768	199.68
406.977	240.64
407.185	211.96
407.394	222.2
407.603	138.24
407.812	158.72
408.02	250.88
408.229	199.68
408.438	220.16
408.646	199.68
408.855	179.2
409.064	349.18
409.272	285.69
409.481	275.45
409.69	222.2
409.898	291.84
410.107	318.46
410.315	379.9
410.524	361.47
410.733	363.51
410.941	306.17
411.15	386.04
411.358	369.66
411.567	412.67
411.775	429.05
411.984	377.85
412.192	461.82
412.401	439.29
412.609	383.99
412.818	541.69
413.026	486.39
413.234	525.3
413.443	523.26
413.651	523.26
413.86	541.69
414.068	633.85
414.276	576.5
414.485	580.6
414.693	738.29
414.901	676.85
415.11	689.14
415.318	736.24
415.526	652.28
415.734	836.6
415.943	838.64
416.151	834.55
416.359	777.2
416.567	893.94
416.776	969.71
416.984	895.99
417.192	982
417.4	977.91
417.608	967.67
417.817	1037.3
418.025	1098.74
418.233	1221.61
418.441	1164.27
418.649	1229.81
418.857	1287.15
419.065	1248.24
419.273	1182.7
419.481	1315.82
419.689	1463.27
419.897	1547.24
420.105	1602.54
420.313	1561.58
420.521	1602.54
420.729	1612.78
420.937	1725.41
421.145	1694.69
421.353	1924.07
421.561	1971.17
421.769	1965.03
421.977	2098.14
422.185	1950.69
422.393	2173.92
422.601	2270.17
422.809	2327.52
423.017	2225.12
423.224	2520.03
423.432	2311.13
423.64	2454.49
423.848	2841.56
424.056	2649.05
424.263	2823.12
424.471	2943.96
424.679	2958.29
424.887	2948.05
425.094	3120.08
425.302	3107.79
425.51	3359.69
425.718	3316.69
425.925	3466.19
426.133	3646.41
426.341	3738.57
426.548	3949.51
426.756	4029.38
426.964	3902.4
427.171	4131.78
427.379	4334.53
427.586	4381.63
427.794	4686.78
428.001	4871.09
428.209	4934.58
428.417	4877.24
428.624	5301.17
428.832	5299.12
429.039	5366.7
429.247	5303.22
429.454	5815.21
429.662	6073.25
429.869	5743.53
430.076	6161.31
430.284	5907.37
430.491	6333.34
430.699	6601.63
430.906	6380.45
431.114	6681.5
431.321	7035.8
431.528	7062.42
431.736	7605.13
431.943	7748.49
432.15	7637.9
432.358	7480.21
432.565	8133.51
432.772	8237.95
432.979	8434.56
433.187	8620.92
433.394	8797.05
433.601	9245.55
433.808	9208.69
434.016	9194.36
434.223	9491.31
434.43	10152.81
434.637	9905
434.844	10589.02
435.052	10666.85
435.259	10705.76
435.466	10951.51
435.673	10834.78
435.88	11440.98
436.087	12151.62
436.294	12143.43
436.501	11897.67
436.708	12102.47
436.915	12378.95
437.122	12923.71
437.329	13214.52
437.537	13404.98
437.743	13579.06
437.95	13710.13
438.157	14211.88
438.364	14732.06
438.571	14826.27
438.778	14654.24
438.985	16341.77
439.192	15559.44
439.399	15852.3
439.606	15500.05
439.813	16481.03
440.02	17363.7
440.227	17091.32
440.433	17105.66
440.64	17816.3
440.847	17711.86
441.054	18258.67
441.261	19090.14
441.467	18846.43
441.674	19516.12
441.881	20009.68
442.088	20054.73
442.294	19774.16
442.501	20345.55
442.708	20646.6
442.914	21777.08
443.121	22549.16
443.328	21985.97
443.534	23683.73
443.741	22760.1
443.948	22586.02
444.154	23894.68
444.361	24060.56
444.568	24109.71
444.774	24203.92
444.981	24709.77
445.187	25209.47
445.394	26247.79
445.6	25698.94
445.807	28443.21
446.013	27499.1
446.22	27877.97
446.426	28899.91
446.633	29297.22
446.839	30296.63
447.046	29188.67
447.252	30159.41
447.459	30691.88
447.665	30536.24
447.871	31605.28
448.078	32907.79
448.284	31308.32
448.491	32516.62
448.697	33872.38
448.903	34466.29
449.11	34468.34
449.316	33837.56
449.522	34660.85
449.728	35488.23
449.935	35533.28
450.141	35770.85
450.347	36135.38
450.553	35283.43
450.76	35568.1
450.966	36856.27
451.172	36082.14
451.378	37327.3
451.584	36321.75
451.791	37687.74
451.997	37700.03
452.203	37777.86
452.409	37931.45
452.615	37665.22
452.821	36528.59
453.027	36387.28
453.233	38121.91
453.44	36575.7
453.646	36979.15
453.852	37048.78
454.058	37548.48
454.264	36436.44
454.47	37292.49
454.676	36407.76
454.882	37503.43
455.088	34179.57
455.294	35041.77
455.5	35504.61
455.705	35385.83
455.911	34306.55
456.117	33747.45
456.323	33067.53
456.529	31332.9
456.735	33241.6
456.941	32221.72
457.147	31623.71
457.352	30349.87
457.558	30259.76
457.764	30362.16
457.97	29637.18
458.176	29291.07
458.381	28861
458.587	27724.38
458.793	27605.59
458.999	26385.01
459.204	27992.66
459.41	27325.02
459.616	25209.47
459.821	25428.6
460.027	25268.86
460.233	24933
460.438	23952.02
460.644	24175.25
460.85	22919.84
461.055	22680.23
461.261	22528.68
461.466	20708.04
461.672	20251.34
461.878	21559.99
462.083	20097.74
462.289	19854.03
462.494	19706.58
462.7	18866.91
462.905	18096.88
463.111	18881.25
463.316	19071.71
463.522	18438.89
463.727	18506.47
463.932	18240.23
464.138	18301.67
464.343	18496.23
464.549	17820.4
464.754	18422.5
464.959	18152.17
465.165	18131.69
465.37	17328.89
465.575	16896.77
465.781	17462.01
465.986	17789.68
466.191	17005.31
466.397	16691.97
466.602	15956.75
466.807	16575.24
467.012	16317.19
467.218	16208.65
467.423	16136.97
467.628	16401.16
467.833	16917.25
468.038	16352.01
468.244	16198.41
468.449	16800.51
468.654	16126.73
468.859	16034.57
469.064	15751.95
469.269	15172.38
469.474	15182.62
469.679	15614.74
469.885	15135.51
470.09	15637.27
470.295	15270.68
470.5	14920.48
470.705	15166.23
470.91	14596.9
471.115	14459.68
471.32	15041.31
471.525	14564.13
471.73	14244.65
471.935	14369.57
472.139	13933.36
472.344	13949.74
472.549	13615.92
472.754	13744.94
472.959	13456.18
473.164	13222.71
473.369	13034.3
473.574	13259.57
473.778	13435.7
473.983	13042.49
474.188	13210.42
474.393	12563.26
474.598	12766.01
474.802	12374.85
475.007	12507.97
475.212	12393.28
475.417	12135.24
475.621	12239.69
475.826	11959.11
476.031	11619.15
476.235	11844.43
476.44	11780.94
476.645	11410.26
476.849	11723.6
477.054	11223.89
477.259	11283.28
477.463	11223.89
477.668	10969.94
477.872	11236.18
478.077	10908.51
478.282	10460
478.486	10523.49
478.691	10367.84
478.895	10416.99
479.1	10275.68
479.304	10490.72
479.509	9988.97
479.713	10353.51
479.918	10064.74
480.122	9810.79
480.326	10140.52
480.531	10206.05
480.735	9988.97
480.94	9956.2
481.144	10107.75
481.348	9718.64
481.553	9870.19
481.757	9646.96
481.961	9808.75
482.166	9929.58
482.37	9712.49
482.574	9581.42
482.778	9757.55
482.983	9978.73
483.187	9743.21
483.391	9763.69
483.595	9593.71
483.8	9669.48
484.004	9821.03
484.208	9687.92
484.412	9526.13
484.616	9790.31
484.821	9816.94
485.025	9587.57
485.229	9571.18
485.433	9599.85
485.637	9628.53
485.841	9565.04
486.045	9620.33
486.249	9550.7
486.453	9638.76
486.657	9823.08
486.861	9571.18
487.065	9446.26
487.269	9411.44
487.473	9597.81
487.677	9708.4
487.881	9937.77
488.085	9657.2
488.289	9810.79
488.493	9757.55
488.697	9714.54
488.901	9540.46
489.105	9565.04
489.309	9726.83
489.512	9775.98
489.716	9737.07
489.92	9814.89
490.124	9728.88
490.328	9931.62
490.531	9644.91
490.735	9861.99
490.939	9749.36
491.143	9839.47
491.346	9909.1
491.55	10013.54
491.754	10001.26
491.958	10068.84
492.161	9945.96
492.365	10134.37
492.569	10169.19
492.772	10247.01
492.976	10408.8
493.18	10312.55
493.383	10521.44
493.587	10392.42
493.79	10691.42
493.994	10429.28
494.197	10515.3
494.401	10681.18
494.605	10732.38
494.808	10756.96
495.012	10947.42
495.215	10996.57
495.419	11131.73
495.622	10906.46
495.825	11012.95
496.029	11271
496.232	11459.41
496.436	11283.28
496.639	11592.53
496.843	11592.53
497.046	12131.14
497.249	12182.34
497.453	12010.31
497.656	12098.38
497.859	12356.42
498.063	12530.5
498.266	12462.91
498.469	12766.01
498.673	12825.4
498.876	13036.35
499.079	13181.75
499.282	12964.67
499.485	13677.36
499.689	13339.44
499.892	13364.02
500.095	13613.87
500.298	13886.25
500.501	13867.82
500.705	14306.09
500.908	14428.96
501.111	14396.2
501.314	14687.01
501.517	14699.3
501.72	14926.62
501.923	14555.94
502.126	15262.49
502.329	15332.12
502.532	15575.83
502.735	15608.59
502.938	16014.09
503.141	16007.95
503.344	16182.03
503.547	16624.39
503.75	16476.93
503.953	16767.74
504.156	16962.3
504.359	17169.15
504.562	17257.21
504.765	17662.71
504.968	17930.99
505.17	18154.22
505.373	17722.1
505.576	18229.99
505.779	18391.78
505.982	18762.47
506.185	19053.28
506.387	19096.28
506.59	19268.31
506.793	19499.73
506.996	19276.51
507.198	19776.21
507.401	20099.79
507.604	19970.77
507.807	20617.93
508.009	20497.1
508.212	20826.82
508.415	20947.65
508.617	21320.38
508.82	21390.01
509.022	21381.82
509.225	22018.74
509.428	22334.12
509.63	22432.43
509.833	22403.75
510.035	22997.67
510.238	22753.96
510.44	23083.68
510.643	23681.69
510.845	23689.88
511.048	23493.27
511.25	24076.94
511.453	24169.1
511.655	24859.27
511.858	24656.52
512.06	24908.42
512.262	25248.38
512.465	25340.54
512.667	25776.76
512.87	25991.8
513.072	25813.62
513.274	26425.96
513.477	26366.57
513.679	26700.39
513.881	27019.88
514.084	27257.44
514.286	27482.72
514.488	27546.2
514.69	28310.1
514.893	28334.67
515.095	28295.76
515.297	28691.02
515.499	28785.22
515.701	29160
515.904	29532.73
516.106	29518.4
516.308	29932.09
516.51	29977.14
516.712	30194.23
516.914	30659.12
517.116	31111.72
517.318	30954.02
517.52	31107.62
517.722	31380
517.925	31660.57
518.127	31990.3
518.329	32172.57
518.531	32369.17
518.733	32637.45
518.935	33231.36
519.136	33067.53
519.338	33419.78
519.54	33976.83
519.742	34023.93
519.944	33722.88
520.146	34486.77
520.348	34451.95
520.55	34509.3
520.752	34877.93
520.954	35693.02
521.155	35535.33
521.357	36053.47
521.559	36045.27
521.761	36983.24
521.963	36399.57
522.164	36385.24
522.366	37106.12
522.568	37216.71
522.77	37204.42
522.971	37630.4
523.173	37480.9
523.375	37876.16
523.576	37994.94
523.778	37784
523.98	38459.83
524.181	38492.6
524.383	38582.71
524.584	39326.12
524.786	38891.95
524.988	39010.73
525.189	39803.3
525.391	39764.39
525.592	39930.27
525.794	39813.54
525.995	40335.77
526.197	40415.64
526.398	40118.68
526.6	40540.57
526.801	40778.13
527.003	41177.48
527.204	40855.95
527.406	41271.69
527.607	40933.78
527.808	41636.23
528.01	41068.94
528.211	41300.36
528.412	42430.84
528.614	41779.59
528.815	41775.49
529.016	42289.53
529.218	41695.62
529.419	42074.49
529.62	41742.72
529.822	41857.41
530.023	42082.69
530.224	41933.18
530.425	42365.31
530.626	41867.65
530.828	41900.42
531.029	43192.68
531.23	42303.87
531.431	42819.95
531.632	42584.44
531.833	42942.83
532.035	42930.54
532.236	43053.42
532.437	42848.63
532.638	42721.65
532.839	43082.09
533.04	42910.07
533.241	42545.53
533.442	43086.19
533.643	43141.49
533.844	42942.83
534.045	43290.99
534.246	43168.11
534.447	43313.52
534.648	43180.4
534.849	43184.49
535.05	42865.01
535.251	42932.59
535.451	43250.03
535.652	43194.73
535.853	42973.55
536.054	43542.89
536.255	43153.77
536.456	42793.33
536.657	43659.62
536.857	43000.18
537.058	43028.85
537.259	43397.48
537.46	43282.8
537.66	42920.31
537.861	43034.99
538.062	43121.01
538.263	43501.93
538.463	42887.54
538.664	43106.67
538.865	43497.83
539.065	43215.21
539.266	42758.52
539.466	43397.48
539.667	42776.95
539.868	43311.47
540.068	42779
540.269	43090.29
540.469	43370.86
540.67	42754.42
540.87	43381.1
541.071	43164.01
541.271	42979.7
541.472	43299.18
541.672	43176.3
541.873	42979.7
542.073	42350.97
542.274	43512.17
542.474	42826.1
542.675	42436.98
542.875	43446.63
543.075	42721.65
543.276	42199.42
543.476	43403.63
543.676	42566.01
543.877	43053.42
544.077	43065.71
544.277	42619.25
544.478	43016.56
544.678	42936.69
544.878	42518.9
545.078	42791.28
545.279	42705.27
545.479	42742.13
545.679	43096.43
545.879	42867.06
546.079	42914.16
546.28	42295.67
546.48	42262.91
546.68	42791.28
546.88	42776.95
547.08	42838.39
547.28	43022.7
547.48	42467.7
547.68	42488.18
547.88	42553.72
548.081	42467.7
548.281	42420.6
548.481	42803.57
548.681	42727.8
548.881	42545.53
549.081	42637.69
549.28	42326.39
549.48	42582.39
549.68	42529.14
549.88	42946.93
550.08	42187.13
550.28	42678.64
550.48	42307.96
550.68	42996.08
550.88	42166.65
551.08	42271.1
551.279	42436.98
551.479	41988.48
551.679	42178.94
551.879	42045.82
552.079	42475.9
552.278	42146.17
552.478	42295.67
552.678	42389.88
552.878	42414.46
553.077	42066.3
553.277	41648.52
553.477	42303.87
553.676	41755.01
553.876	42189.18
554.076	41605.51
554.275	41955.71
554.475	41505.16
554.674	42264.96
554.874	41994.62
555.074	41603.46
555.273	42121.6
555.473	42045.82
555.672	41693.57
555.872	42211.71
556.071	41843.07
556.271	41968
556.47	41433.48
556.67	41357.7
556.869	41308.55
557.068	41974.14
557.268	41185.68
557.467	41564.55
557.667	41456.01
557.866	41357.7
558.065	41267.59
558.265	40972.69
558.464	40984.97
558.663	41595.27
558.863	40898.96
559.062	41820.55
559.261	40847.76
559.461	41322.89
559.66	40669.59
559.859	41290.12
560.058	40763.79
560.258	40892.82
560.457	40253.85
560.656	40886.67
560.855	40782.23
561.054	40391.06
561.253	40567.19
561.453	40561.05
561.652	40790.42
561.851	40399.26
562.05	40341.91
562.249	40411.54
562.448	40503.7
562.647	40456.6
562.846	40409.5
563.045	40087.96
563.244	39991.71
563.443	40477.08
563.642	39362.98
563.841	39924.13
564.04	39748
564.239	40036.77
564.438	39455.14
564.637	39700.9
564.836	39666.08
565.035	39201.19
565.234	39563.68
565.432	39498.15
565.631	39332.26
565.83	39412.13
566.029	39256.49
566.228	38621.62
566.427	38945.2
566.625	38789.55
566.824	38470.07
567.023	39489.96
567.222	38277.56
567.42	39092.65
567.619	38705.59
567.818	38779.31
568.016	38760.88
568.215	38672.82
568.414	38429.11
568.612	38617.52
568.811	38492.6
569.01	38463.93
569.208	37790.14
569.407	38394.29
569.605	37956.03
569.804	38558.13
570.002	37695.94
570.201	38033.85
570.4	37818.81
570.598	37630.4
570.797	37941.69
570.995	37523.91
571.193	37188.04
571.392	37548.48
571.59	36854.22
571.789	37560.77
571.987	36956.62
572.186	36936.14
572.384	37044.68
572.582	37190.09
572.781	37124.55
572.979	36520.4
573.177	36542.93
573.376	36938.19
573.574	36362.71
573.772	36618.71
573.971	36487.64
574.169	36485.59
574.367	36196.82
574.565	36348.37
574.763	36276.69
574.962	36239.83
575.16	36180.44
575.358	35910.11
575.556	35592.67
575.754	36196.82
575.952	35373.54
576.151	36032.99
576.349	35471.84
576.547	35205.61
576.745	35185.13
576.943	35623.39
577.141	35623.39
577.339	35482.08
577.537	34609.65
577.735	34916.84
577.933	34734.57
578.131	35138.02
578.329	34662.9
578.527	34650.61
578.725	34617.84
578.923	34781.68
579.121	34499.06
579.319	34445.81
579.516	34781.68
579.714	34089.46
579.912	34023.93
580.11	34271.73
580.308	33747.45
580.506	33884.67
580.704	33495.55
580.901	34216.44
581.099	34255.35
581.297	33456.64
581.495	33591.81
581.692	33806.84
581.89	33122.82
582.088	33698.3
582.285	32934.41
582.483	33313.28
582.681	32895.5
582.878	32784.91
583.076	32643.6
583.274	32965.13
583.471	32414.23
583.669	32821.77
583.866	32145.94
584.064	32633.36
584.262	32150.04
584.459	32463.38
584.657	32348.69
584.854	32625.17
585.052	31781.4
585.249	32088.6
585.447	31863.32
585.644	31554.08
585.841	31693.34
586.039	32057.88
586.236	31572.51
586.434	31588.89
586.631	31396.38
586.828	31314.47
587.026	31572.51
587.223	31201.83
587.42	31224.36
587.618	31179.3
587.815	30564.91
588.012	30884.39
588.21	30587.44
588.407	31265.31
588.604	30997.03
588.801	30544.43
588.999	30306.87
589.196	30192.18
589.393	30433.84
589.59	30249.52
589.787	30108.21
589.984	29973.05
590.182	29704.76
590.379	30165.56
590.576	29964.85
590.773	29841.98
590.97	29753.91
591.167	29704.76
591.364	29090.37
591.561	29499.97
591.758	29209.15
591.955	29196.87
592.152	29184.58
592.349	29270.59
592.546	29186.63
592.743	29047.36
592.94	28357.2
593.137	28830.28
593.334	29010.5
593.531	28379.73
593.727	28619.34
593.924	28619.34
594.121	28213.84
594.318	28516.94
594.515	28203.6
594.712	28330.58
594.908	27996.76
595.105	27951.7
595.302	27644.51
595.499	27738.71
595.696	27480.67
595.892	27300.45
596.089	27953.75
596.286	27714.14
596.482	27521.63
596.679	27523.68
596.876	27228.77
597.072	27464.28
597.269	27269.73
597.466	27234.91
597.662	26745.45
597.859	26833.51
598.055	27048.55
598.252	26550.89
598.448	26503.79
598.645	26645.1
598.841	26088.05
599.038	26696.3
599.234	26473.07
599.431	26219.12
599.627	26235.5
599.824	26206.83
600.02	26112.63
600.217	26149.49
600.413	25635.45
600.609	25713.27
600.806	25395.84
601.002	26077.81
601.198	25617.02
601.395	25514.62
601.591	25309.82
601.787	25746.04
601.984	25291.39
602.18	25447.04
602.376	25008.77
602.572	25055.87
602.769	25045.63
602.965	24613.51
603.161	25031.3
603.357	24908.42
603.553	24912.52
603.75	24971.91
603.946	24359.56
604.142	24416.91
604.338	24107.66
604.534	24461.96
604.73	24265.36
604.926	24197.77
605.122	24158.86
605.318	24117.9
605.514	23691.93
605.71	23954.07
605.906	24199.82
606.102	23847.57
606.298	24001.17
606.494	23786.13
606.69	23779.99
606.886	23749.27
607.082	23288.48
607.278	23523.99
607.474	23190.17
607.67	23530.14
607.866	23270.04
608.062	23311
608.257	23108.26
608.453	23028.38
608.649	23141.02
608.845	22997.67
609.041	23018.14
609.236	23065.25
609.432	23087.78
609.628	22973.09
609.824	23012
610.019	22645.41
610.215	22502.06
610.411	22768.29
610.606	22465.19
610.802	22725.29
610.998	22536.87
611.193	22661.8
611.389	22667.94
611.584	22356.65
611.78	22411.95
611.976	22180.53
612.171	22516.39
612.367	22094.51
612.562	22190.77
612.758	21981.87
612.953	21875.38
613.149	22309.55
613.344	21617.33
613.539	22405.8
613.735	21947.06
613.93	21756.6
614.126	21529.27
614.321	21760.69
614.517	21856.95
614.712	21797.56
614.907	21754.55
615.103	21879.47
615.298	21484.22
615.493	21942.96
615.688	21492.41
615.884	21863.09
616.079	21365.43
616.274	21291.71
616.47	21699.25
616.665	21277.37
616.86	21088.96
617.055	21115.58
617.25	20925.12
617.445	21433.02
617.641	20945.6
617.836	21111.49
618.031	20734.66
618.226	20982.46
618.421	20736.71
618.616	20888.26
618.811	20669.12
619.006	20906.69
619.201	20323.02
619.396	20738.76
619.591	20189.9
619.786	20376.27
619.981	19983.06
620.176	20232.91
620.371	20009.68
620.566	20062.93
620.761	19987.15
620.956	20009.68
621.151	19653.33
621.346	19718.87
621.541	19354.33
621.735	19501.78
621.93	19215.07
622.125	19516.12
622.32	19231.45
622.515	19161.82
622.709	19106.52
622.904	19018.46
623.099	18961.12
623.294	19137.24
623.488	18842.34
623.683	18596.58
623.878	18098.92
624.072	18621.16
624.267	18082.54
624.462	18199.27
624.656	18131.69
624.851	18017.01
625.046	17980.14
625.24	17906.41
625.435	17881.84
625.629	17855.22
625.824	17388.28
626.018	17419
626.213	17152.76
626.407	17410.81
626.602	17070.84
626.796	17007.36
626.991	16839.42
627.185	16816.9
627.38	16962.3
627.574	16655.11
627.768	16657.15
627.963	16614.15
628.157	16304.9
628.352	16304.9
628.546	16059.15
628.74	16362.25
628.935	15946.51
629.129	16188.17
629.323	16231.18
629.517	15686.42
629.712	15708.94
629.906	15696.66
630.1	15340.31
630.294	15276.82
630.489	15182.62
630.683	15233.82
630.877	15147.8
631.071	15141.66
631.265	15180.57
631.459	14816.03
631.653	14969.63
631.848	15061.79
632.042	14756.64
632.236	14908.19
632.43	14506.79
632.624	14629.66
632.818	14527.27
633.012	14375.72
633.206	14273.32
633.4	14129.96
633.594	13955.88
633.788	14140.2
633.982	14183.21
634.176	13855.53
634.369	13900.59
634.563	14017.32
634.757	13697.84
634.951	13945.64
635.145	13570.86
635.339	13691.7
635.533	13425.46
635.726	13663.02
635.92	13478.71
636.114	13259.57
636.308	13130.55
636.501	13251.38
636.695	13134.65
636.889	12944.19
637.083	13085.5
637.276	12917.56
637.47	12841.79
637.664	12784.44
637.857	12796.73
638.051	12620.61
638.244	12446.53
638.438	12575.55
638.632	12335.94
638.825	12630.85
639.019	12217.16
639.212	12135.24
639.406	12112.71
639.599	12157.77
639.793	12217.16
639.986	12022.6
640.18	11782.99
640.373	11559.76
640.567	11658.06
640.76	11793.23
640.954	11713.36
641.147	11514.7
641.34	11463.51
641.534	11561.81
641.727	11363.15
641.92	11408.21
642.114	11408.21
642.307	11115.35
642.5	11180.89
642.694	11088.73
642.887	11045.72
643.08	11135.83
643.273	10902.36
643.467	10816.35
643.66	10658.65
643.853	10842.97
644.046	10578.78
644.239	10625.89
644.432	10703.71
644.626	10513.25
644.819	10531.68
645.012	10398.56
645.205	10486.62
645.398	10414.95
645.591	10165.09
645.784	10060.65
645.977	10015.59
646.17	10136.42
646.363	9999.21
646.556	9958.25
646.749	9941.86
646.942	10146.66
647.135	9847.66
647.328	9657.2
647.521	9663.34
647.714	9784.17
647.907	9593.71
648.099	9556.85
648.292	9575.28
648.485	9538.41
648.678	9536.37
648.871	9403.25
649.064	9366.39
649.256	9380.72
649.449	9057.14
649.642	9106.29
649.835	9102.2
650.027	8964.98
650.22	9034.61
650.413	8790.91
650.605	8960.89
650.798	8737.66
650.991	8874.87
651.183	8684.41
651.376	8823.67
651.568	8766.33
651.761	8702.84
651.954	8579.97
652.146	8629.12
652.339	8489.85
652.531	8407.94
652.724	8498.05
652.916	8037.25
653.109	8283.01
653.301	8283.01
653.494	8409.98
653.686	8074.12
653.879	8264.58
654.071	7988.1
654.263	7897.99
654.456	8143.75
654.648	7961.48
654.84	7977.86
655.033	7809.93
655.225	7885.7
655.417	7857.03
655.61	7836.55
655.802	7654.28
655.994	7736.2
656.186	7803.78
656.379	7703.43
656.571	7666.57
656.763	7445.39
656.955	7488.4
657.148	7435.15
657.34	7461.77
657.532	7289.74
657.724	7318.42
657.916	7211.92
658.108	7293.84
658.3	7148.43
658.492	6976.41
658.684	6980.5
658.876	7054.23
659.068	7080.85
659.26	7070.61
659.452	7068.56
659.644	6816.66
659.836	6871.96
660.028	6794.14
660.22	6765.46
660.412	6763.42
660.604	6775.7
660.796	6652.83
660.988	6679.45
661.18	6699.93
661.372	6409.12
661.563	6728.6
661.755	6620.06
661.947	6441.89
662.139	6552.48
662.331	6433.69
662.522	6386.59
662.714	6249.38
662.906	6255.52
663.097	6319.01
663.289	6228.9
663.481	6423.45
663.673	6341.54
663.864	6103.97
664.056	6054.82
664.247	6128.55
664.439	6120.35
664.631	6136.74
664.822	6040.48
665.014	5987.24
665.205	6038.44
665.397	5966.76
665.588	5966.76
665.78	5809.06
665.971	5968.8
666.163	5815.21
666.354	5729.19
666.546	5942.18
666.737	5645.23
666.929	5776.3
667.12	5528.49
667.311	5647.27
667.503	5620.65
667.694	5645.23
667.885	5561.26
668.077	5413.81
668.268	5297.07
668.459	5548.97
668.651	5551.02
668.842	5434.29
669.033	5370.8
669.224	5383.09
669.416	5417.9
669.607	5280.69
669.798	5327.79
669.989	5362.61
670.18	5317.55
670.371	5313.45
670.563	5168.05
670.754	5155.76
670.945	5010.36
671.136	5161.91
671.327	4928.44
671.518	5086.13
671.709	5110.71
671.9	5032.88
672.091	5024.69
672.282	4983.73
672.473	4922.29
672.664	5049.27
672.855	4713.4
673.046	5114.8
673.237	5000.12
673.428	4869.05
673.619	4811.7
673.809	4940.72
674	4770.74
674.191	4750.26
674.382	4768.7
674.573	4697.02
674.764	4764.6
674.954	4688.82
675.145	4709.3
675.336	4848.57
675.527	4565.95
675.717	4740.02
675.908	4512.7
676.099	4737.98
676.289	4678.58
676.48	4799.41
676.671	4596.67
676.861	4537.27
677.052	4574.14
677.243	4516.8
677.433	4496.32
677.624	4678.58
677.814	4426.68
678.005	4527.03
678.195	4475.84
678.386	4346.81
678.576	4496.32
678.767	4465.6
678.957	4463.55
679.148	4385.73
679.338	4467.64
679.529	4486.08
679.719	4348.86
679.909	4549.56
680.1	4363.2
680.29	4301.76
680.481	4355.01
680.671	4314.05
680.861	4326.33
681.052	4398.01
681.242	4375.49
681.432	4615.1
681.622	4215.74
681.813	4207.55
682.003	4078.53
682.193	4146.11
682.383	4338.62
682.573	4154.3
682.764	4156.35
682.954	4377.53
683.144	4250.56
683.334	4209.6
683.524	4146.11
683.714	4344.77
683.904	4205.5
684.094	4166.59
684.284	4252.61
684.474	4264.89
684.664	4139.97
684.854	4060.1
685.044	4037.57
685.234	3877.83
685.424	4015.04
685.614	3959.75
685.804	3953.6
685.994	3910.6
686.184	4060.1
686.374	3857.35
686.564	3875.78
686.753	4049.86
686.943	3818.44
687.133	3939.27
687.323	3929.03
687.513	3955.65
687.702	3816.39
687.892	3773.38
688.082	3875.78
688.272	3902.4
688.461	3832.77
688.651	3892.16
688.841	3740.61
689.03	3640.26
689.22	3736.52
689.41	3677.13
689.599	3630.02
689.789	3546.06
689.979	3752.9
690.168	3632.07
690.358	3650.5
690.547	3523.53
690.737	3595.21
690.926	3632.07
691.116	3382.22
691.305	3539.91
691.495	3455.95
691.684	3523.53
691.874	3568.59
692.063	3433.42
692.252	3443.66
692.442	3462.09
692.631	3345.36
692.82	3245.01
693.01	3304.4
693.199	3335.12
693.388	3263.44
693.578	3361.74
693.767	3273.68
693.956	3210.19
694.146	3285.97
694.335	3179.47
694.524	3257.29
694.713	3085.26
694.902	3107.79
695.092	3191.76
695.281	3189.71
695.47	3113.94
695.659	3032.02
695.848	3144.66
696.037	3048.4
696.226	3128.27
696.415	3050.45
696.604	3070.93
696.793	3118.03
696.982	3050.45
697.171	3005.39
697.36	3058.64
697.549	3011.54
697.738	2982.87
697.927	2980.82
698.116	2933.72
698.305	3101.65
698.494	3050.45
698.683	3023.83
698.872	2956.24
699.061	2948.05
699.25	2890.71
699.438	2970.58
699.627	2958.29
699.816	2986.96
700.005	2958.29
700.193	2835.41
700.382	2886.61
700.571	2825.17
700.76	2886.61
700.948	2958.29
701.137	2882.52
701.326	2882.52
701.514	2718.68
701.703	2876.37
701.892	2853.84
702.08	2728.92
702.269	2859.99
702.457	2778.07
702.646	2718.68
702.834	2796.5
703.023	2780.12
703.212	2653.14
703.4	2677.72
703.589	2792.41
703.777	2794.45
703.965	2837.46
704.154	2816.98
704.342	2599.9
704.531	2704.34
704.719	2749.4
704.907	2681.82
705.096	2724.82
705.284	2761.69
705.472	2550.75
705.661	2671.58
705.849	2749.4
706.037	2679.77
706.226	2683.86
706.414	2714.58
706.602	2653.14
706.79	2681.82
706.979	2640.86
707.167	2718.68
707.355	2687.96
707.543	2642.9
707.731	2649.05
707.919	2628.57
708.107	2585.56
708.296	2706.39
708.484	2608.09
708.672	2632.66
708.86	2704.34
709.048	2603.99
709.236	2626.52
709.424	2712.53
709.612	2665.43
709.8	2567.13
709.988	2616.28
710.176	2667.48
710.364	2499.55
710.551	2753.49
710.739	2683.86
710.927	2636.76
711.115	2620.38
711.303	2747.35
711.491	2601.94
711.679	2556.89
711.866	2753.49
712.054	2726.87
712.242	2579.42
712.43	2659.29
712.617	2671.58
712.805	2567.13
712.993	2632.66
713.181	2501.59
713.368	2612.18
713.556	2710.49
713.744	2667.48
713.931	2706.39
714.119	2524.12
714.306	2542.55
714.494	2603.99
714.682	2714.58
714.869	2659.29
715.057	2726.87
715.244	2526.17
715.432	2671.58
715.619	2497.5
715.807	2624.47
715.994	2509.79
716.182	2620.38
716.369	2626.52
716.556	2614.23
716.744	2577.37
716.931	2552.79
717.119	2632.66
717.306	2565.08
717.493	2671.58
717.681	2628.57
717.868	2536.41
718.055	2608.09
718.242	2616.28
718.43	2622.42
718.617	2507.74
718.804	2567.13
718.991	2743.25
719.179	2651.1
719.366	2550.75
719.553	2616.28
719.74	2456.54
719.927	2501.59
720.114	2558.94
720.301	2624.47
720.488	2567.13
720.676	2638.81
720.863	2603.99
721.05	2735.06
721.237	2591.7
721.424	2472.92
721.611	2616.28
721.798	2517.98
721.985	2571.22
722.172	2599.9
722.358	2542.55
722.545	2624.47
722.732	2565.08
722.919	2567.13
723.106	2581.46
723.293	2575.32
723.48	2608.09
723.667	2581.46
723.853	2620.38
724.04	2499.55
724.227	2673.62
724.414	2608.09
724.6	2511.83
724.787	2591.7
724.974	2567.13
725.161	2585.56
725.347	2472.92
725.534	2739.16
725.72	2573.27
725.907	2491.35
726.094	2599.9
726.28	2522.07
726.467	2581.46
726.653	2595.8
726.84	2696.15
727.027	2630.62
727.213	2464.73
727.4	2630.62
727.586	2591.7
727.773	2548.7
727.959	2515.93
728.145	2667.48
728.332	2573.27
728.518	2573.27
728.705	2550.75
728.891	2565.08
729.077	2546.65
729.264	2563.03
729.45	2497.5
729.636	2673.62
729.823	2485.21
730.009	2534.36
730.195	2642.9
730.382	2614.23
730.568	2597.85
730.754	2526.17
730.94	2526.17
731.126	2665.43
731.313	2616.28
731.499	2671.58
731.685	2542.55
731.871	2603.99
732.057	2616.28
732.243	2522.07
732.429	2532.31
732.615	2505.69
732.801	2501.59
732.987	2487.26
733.173	2530.27
733.359	2571.22
733.545	2599.9
733.731	2563.03
733.917	2563.03
734.103	2507.74
734.289	2540.51
734.475	2491.35
734.661	2593.75
734.847	2497.5
735.033	2563.03
735.219	2487.26
735.404	2382.81
735.59	2438.11
735.776	2505.69
735.962	2460.63
736.148	2575.32
736.333	2526.17
736.519	2509.79
736.705	2565.08
736.89	2485.21
737.076	2513.88
737.262	2474.97
737.447	2515.93
737.633	2376.67
737.819	2382.81
738.004	2495.45
738.19	2309.08
738.375	2419.68
738.561	2579.42
738.747	2409.44
738.932	2505.69
739.118	2411.48
739.303	2485.21
739.489	2436.06
739.674	2331.61
739.859	2333.66
740.045	2448.35
740.23	2499.55
740.416	2247.65
740.601	2382.81
740.786	2370.52
740.972	2268.13
741.157	2335.71
741.342	2307.04
741.528	2354.14
741.713	2360.28
741.898	2296.8
742.084	2438.11
742.269	2395.1
742.454	2321.37
742.639	2264.03
742.824	2255.84
743.01	2272.22
743.195	2388.96
743.38	2214.88
743.565	2231.26
743.75	2251.74
743.935	2173.92
744.12	2331.61
744.305	2186.21
744.49	2251.74
744.675	2268.13
744.86	2112.48
745.045	2192.35
745.23	2198.49
745.415	2085.86
745.6	2026.47
745.785	2048.99
745.97	2110.43
746.155	2114.53
746.34	2124.77
746.525	2163.68
746.71	2104.29
746.895	2094.05
747.079	2042.85
747.264	1971.17
747.449	2040.8
747.634	1899.49
747.819	2094.05
748.003	2069.47
748.188	2063.33
748.373	1956.83
748.557	1909.73
748.742	1973.22
748.927	1895.4
749.111	1907.68
749.296	1975.27
749.481	1924.07
749.665	1889.25
749.85	1887.2
750.034	1876.96
750.219	1793
750.404	1711.08
750.588	1928.16
750.773	1815.52
750.957	1752.04
751.141	1762.28
751.326	1717.22
751.51	1776.61
751.695	1690.6
751.879	1727.46
752.064	1879.01
752.248	1702.89
752.432	1782.76
752.617	1778.66
752.801	1694.69
752.985	1612.78
753.17	1649.64
753.354	1713.13
753.538	1629.16
753.722	1631.21
753.907	1647.59
754.091	1618.92
754.275	1631.21
754.459	1641.45
754.643	1481.71
754.828	1563.62
755.012	1516.52
755.196	1496.04
755.38	1502.19
755.564	1559.53
755.748	1477.61
755.932	1559.53
756.116	1524.71
756.3	1434.6
756.484	1430.51
756.668	1526.76
756.852	1446.89
757.036	1330.16
757.22	1350.64
757.404	1430.51
757.588	1350.64
757.772	1371.12
757.956	1381.35
758.14	1395.69
758.323	1369.07
758.507	1354.73
758.691	1297.39
758.875	1379.31
759.059	1350.64
759.242	1328.11
759.426	1330.16
759.61	1289.2
759.794	1334.25
759.977	1307.63
760.161	1321.96
760.345	1209.33
760.528	1326.06
760.712	1344.49
760.895	1119.21
761.079	1309.68
761.263	1295.34
761.446	1184.75
761.63	1223.66
761.813	1172.46
761.997	1285.1
762.18	1172.46
762.364	1164.27
762.547	1123.31
762.731	1205.23
762.914	1137.65
763.098	1215.47
763.281	1201.13
763.464	1168.37
763.648	1102.83
763.831	1164.27
764.015	1131.5
764.198	1037.3
764.381	1098.74
764.564	1127.41
764.748	1182.7
764.931	1131.5
765.114	1201.13
765.297	1043.44
765.481	1113.07
765.664	1133.55
765.847	1154.03
766.03	1170.41
766.213	1129.45
766.397	1082.35
766.58	1072.11
766.763	1025.01
766.946	1082.35
767.129	990.19
767.312	1076.21
767.495	979.95
767.678	1033.2
767.861	1012.72
768.044	990.19
768.227	982
768.41	1074.16
768.593	998.38
768.776	1106.93
768.959	1014.77
769.142	1027.06
769.324	982
769.507	965.62
769.69	986.1
769.873	1035.25
770.056	961.52
770.239	932.85
770.421	975.86
770.604	982
770.787	945.14
770.97	986.1
771.152	971.76
771.335	973.81
771.518	949.23
771.7	871.41
771.883	887.79
772.066	988.14
772.248	986.1
772.431	922.61
772.613	902.13
772.796	943.09
772.978	898.03
773.161	893.94
773.343	893.94
773.526	906.23
773.708	814.07
773.891	750.58
774.073	900.08
774.256	918.51
774.438	859.12
774.621	852.98
774.803	938.99
774.985	791.54
775.168	801.78
775.35	809.97
775.532	826.36
775.715	846.84
775.897	785.4
776.079	748.53
776.261	822.26
776.444	838.64
776.626	807.92
776.808	685.05
776.99	740.34
777.173	666.61
777.355	777.2
777.537	695.29
777.719	732.15
777.901	693.24
778.083	685.05
778.265	756.72
778.447	775.16
778.629	734.2
778.811	754.68
778.993	656.37
779.175	748.53
779.357	726
779.539	672.76
779.721	586.74
779.903	689.14
780.085	709.62
780.267	695.29
780.449	592.89
780.631	637.94
780.812	611.32
780.994	623.61
781.176	687.09
781.358	588.79
781.54	609.27
781.721	662.52
781.903	613.37
782.085	547.83
782.267	668.66
782.448	592.89
782.63	502.78
782.812	658.42
782.993	556.02
783.175	646.13
783.357	603.13
783.538	568.31
783.72	611.32
783.901	500.73
784.083	463.86
784.264	504.82
784.446	523.26
784.627	527.35
784.809	596.98
784.99	560.12
785.172	553.98
785.353	584.7
785.535	515.06
785.716	470.01
785.897	502.78
786.079	560.12
786.26	472.06
786.441	517.11
786.623	465.91
786.804	465.91
786.985	533.5
787.167	576.5
787.348	531.45
787.529	482.3
787.71	478.2
787.891	476.15
788.073	418.81
788.254	420.86
788.435	488.44
788.616	519.16
788.797	451.58
788.978	482.3
789.159	404.47
789.34	465.91
789.522	461.82
789.703	439.29
789.884	459.77
790.065	379.9
790.246	461.82
790.427	441.34
790.607	416.76
790.788	443.39
790.969	388.09
791.15	396.28
791.331	349.18
791.512	338.94
791.693	478.2
791.874	394.23
792.054	445.43
792.235	404.47
792.416	381.95
792.597	320.51
792.778	418.81
792.958	402.43
793.139	396.28
793.32	349.18
793.5	359.42
793.681	345.08
793.862	412.67
794.042	330.75
794.223	336.89
794.404	367.61
794.584	351.23
794.765	336.89
794.945	386.04
795.126	295.93
795.306	363.51
795.487	351.23
795.667	314.36
795.848	297.98
796.028	375.8
796.209	326.65
796.389	293.88
796.57	289.79
796.75	353.27
796.93	340.99
797.111	340.99
797.291	326.65
797.471	326.65
797.652	365.56
797.832	281.6
798.012	277.5
798.192	328.7
798.373	306.17
798.553	338.94
798.733	279.55
798.913	320.51
799.093	334.84
799.274	300.03
799.454	285.69
799.634	312.32
799.814	293.88
799.994	318.46
800.174	302.08
800.354	261.12
800.534	261.12
800.714	279.55
800.894	297.98
801.074	289.79
801.254	248.83
801.434	224.25
801.614	269.31
801.794	257.02
801.974	617.46
802.154	265.21
802.334	275.45
802.514	181.25
802.693	320.51
802.873	199.68
803.053	267.26
803.233	228.35
803.413	209.92
803.592	271.36
803.772	265.21
803.952	263.16
804.131	248.83
804.311	207.87
804.491	269.31
804.67	240.64
804.85	224.25
805.03	181.25
805.209	273.4
805.389	269.31
805.568	226.3
805.748	277.5
805.928	250.88
806.107	224.25
806.287	244.73
806.466	230.4
806.646	187.39
806.825	168.96
807.004	244.73
807.184	214.01
807.363	242.68
807.543	252.92
807.722	242.68
807.901	207.87
808.081	291.84
808.26	156.67
808.439	248.83
808.619	216.06
808.798	254.97
808.977	191.49
809.156	285.69
809.336	203.77
809.515	183.29
809.694	216.06
809.873	230.4
810.052	193.53
810.231	117.76
810.411	183.29
810.59	193.53
810.769	132.09
810.948	252.92
811.127	117.76
811.306	130.05
811.485	177.15
811.664	214.01
811.843	300.03
812.022	171.01
812.201	232.44
812.38	203.77
812.559	166.91
812.737	191.49
812.916	236.54
813.095	166.91
813.274	224.25
813.453	119.81
813.632	134.14
813.811	183.29
813.989	240.64
814.168	183.29
814.347	197.63
814.526	158.72
814.704	207.87
814.883	205.82
815.062	164.86
815.24	189.44
815.419	162.81
815.598	142.33
815.776	183.29
815.955	132.09
816.133	101.37
816.312	89.09
816.49	84.99
816.669	181.25
816.847	109.57
817.026	132.09
817.204	191.49
817.383	189.44
817.561	105.47
817.74	76.8
817.918	119.81
818.097	162.81
818.275	209.92
818.453	166.91
818.632	187.39
818.81	99.33
818.988	166.91
819.167	148.48
819.345	123.9
819.523	80.89
819.701	142.33
819.879	197.63
820.058	119.81
820.236	160.77
820.414	82.94
820.592	185.34
820.77	23.55
820.948	136.19
821.127	130.05
821.305	138.24
821.483	216.06
821.661	121.85
821.839	72.7
822.017	41.98
822.195	142.33
822.373	103.42
822.551	84.99
822.729	150.53
822.907	52.22
823.085	105.47
823.262	138.24
823.44	109.57
823.618	144.38
823.796	125.95
823.974	107.52
824.152	93.18
824.329	29.7
824.507	107.52
824.685	115.71
824.863	93.18
825.04	23.55
825.218	113.66
825.396	148.48
825.574	105.47
825.751	125.95
825.929	134.14
826.107	70.65
826.284	-23.55
826.462	109.57
826.639	80.89
826.817	144.38
826.994	140.29
827.172	105.47
827.349	115.71
827.527	156.67
827.704	132.09
827.882	97.28
828.059	74.75
828.237	125.95
828.414	115.71
828.591	125.95
828.769	183.29
828.946	60.42
829.124	89.09
829.301	68.61
829.478	146.43
829.655	144.38
829.833	64.51
830.01	68.61
830.187	99.33
830.364	93.18
830.542	60.42
830.719	150.53
830.896	154.62
831.073	140.29
831.25	115.71
831.427	146.43
831.604	113.66
831.782	105.47
831.959	68.61
832.136	156.67
832.313	97.28
832.49	105.47
832.667	179.2
832.844	95.23
833.021	56.32
833.198	105.47
833.374	117.76
833.551	132.09
833.728	19.46
833.905	107.52
834.082	41.98
834.259	64.51
834.436	130.05
834.612	93.18
834.789	44.03
834.966	78.85
835.143	148.48
835.319	142.33
835.496	113.66
835.673	68.61
835.85	62.46
836.026	142.33
836.203	115.71
836.38	27.65
836.556	132.09
836.733	44.03
836.909	115.71
837.086	107.52
837.262	103.42
837.439	48.13
837.616	123.9
837.792	-7.17
837.968	97.28
838.145	-23.55
838.321	113.66
838.498	72.7
838.674	93.18
838.851	80.89
839.027	70.65
839.203	56.32
839.38	44.03
839.556	136.19
839.732	82.94
839.909	80.89
840.085	107.52
840.261	74.75
840.437	72.7
840.614	74.75
840.79	123.9
840.966	54.27
841.142	84.99
841.318	80.89
841.494	109.57
841.671	109.57
841.847	9.22
842.023	5.12
842.199	44.03
842.375	41.98
842.551	89.09
842.727	52.22
842.903	144.38
843.079	72.7
843.255	68.61
843.431	39.94
843.607	66.56
843.783	52.22
843.959	128
844.134	50.18
844.31	60.42
844.486	72.7
844.662	11.26
844.838	44.03
845.013	113.66
845.189	35.84
845.365	44.03
845.541	115.71
845.716	91.13
845.892	107.52
846.068	68.61
846.244	89.09
846.419	60.42
846.595	99.33
846.77	82.94
846.946	130.05
847.122	58.37
847.297	76.8
847.473	72.7
847.648	37.89
847.824	76.8
847.999	31.74
848.175	29.7
848.35	62.46
848.526	74.75
848.701	115.71
848.876	48.13
849.052	3.07
849.227	25.6
849.403	19.46
849.578	93.18
849.753	64.51
849.929	101.37
850.104	52.22
850.279	56.32
850.454	19.46
850.63	76.8
850.805	68.61
850.98	52.22
851.155	-9.22
851.33	113.66
851.505	58.37
851.681	-1.02
851.856	33.79
852.031	101.37
852.206	54.27
852.381	80.89
852.556	52.22
852.731	41.98
852.906	37.89
853.081	113.66
853.256	78.85
853.431	66.56
853.606	66.56
853.781	64.51
853.956	52.22
854.131	52.22
854.305	72.7
854.48	39.94
854.655	95.23
854.83	21.5
855.005	-31.74
855.18	-31.74
855.354	1.02
855.529	7.17
855.704	35.84
855.879	31.74
856.053	-23.55
856.228	35.84
856.403	82.94
856.577	48.13
856.752	25.6
856.926	-25.6
857.101	52.22
857.276	-3.07
857.45	84.99
857.625	68.61
857.799	15.36
857.974	19.46
858.148	-1.02
858.323	52.22
858.497	31.74
858.672	15.36
858.846	89.09
859.02	93.18
859.195	68.61
859.369	41.98
859.543	-52.22
859.718	11.26
859.892	68.61
860.066	33.79
860.241	-23.55
860.415	60.42
860.589	62.46
860.763	3.07
860.938	41.98
861.112	3.07
861.286	66.56
861.46	87.04
861.634	21.5
861.808	15.36
861.982	84.99
862.157	-29.7
862.331	13.31
862.505	78.85
862.679	19.46
862.853	-31.74
863.027	13.31
863.201	84.99
863.375	7.17
863.549	13.31
863.722	25.6
863.896	33.79
864.07	11.26
864.244	17.41
864.418	17.41
864.592	52.22
864.766	5.12
864.939	58.37
865.113	5.12
865.287	-7.17
865.461	25.6
865.634	66.56
865.808	50.18
865.982	5.12
866.156	-11.26
866.329	-15.36
866.503	-11.26
866.676	29.7
866.85	-5.12
867.024	37.89
867.197	-37.89
867.371	-31.74
867.544	84.99
867.718	44.03
867.891	66.56
868.065	-13.31
868.238	5.12
868.412	52.22
868.585	35.84
868.759	-39.94
868.932	5.12
869.105	84.99
869.279	3.07
869.452	-21.5
869.625	60.42
869.799	97.28
869.972	48.13
870.145	-17.41
870.319	-21.5
870.492	68.61
870.665	11.26
870.838	56.32
871.011	-15.36
871.185	-37.89
871.358	62.46
871.531	58.37
871.704	23.55
871.877	60.42
872.05	39.94
872.223	54.27
872.396	74.75
872.569	50.18
872.742	-21.5
872.915	15.36
873.088	-25.6
873.261	52.22
873.434	27.65
873.607	-3.07
873.78	7.17
873.953	-87.04
874.126	-25.6
874.299	-3.07
874.471	-29.7
874.644	11.26
874.817	82.94
874.99	39.94
875.163	46.08
875.335	19.46
875.508	50.18
875.681	66.56
875.853	19.46
876.026	58.37
876.199	84.99
876.371	-13.31
876.544	48.13
876.717	27.65
876.889	35.84
877.062	58.37
877.234	5.12
877.407	-13.31
877.579	78.85
877.752	44.03
877.924	27.65
878.097	3.07
878.269	-23.55
878.442	35.84
878.614	-15.36
878.786	39.94
878.959	1.02
879.131	-5.12
879.303	7.17
879.476	-3.07
879.648	56.32
879.82	31.74
879.993	31.74
880.165	72.7
880.337	56.32
880.509	-37.89
880.681	-7.17
880.854	-9.22
881.026	44.03
881.198	103.42
881.37	56.32
881.542	-11.26
881.714	27.65
881.886	21.5
882.058	-41.98
882.23	72.7
882.402	93.18
882.574	58.37
882.746	58.37
882.918	27.65
883.09	48.13
883.262	-46.08
883.434	11.26
883.606	-35.84
883.778	9.22
883.95	54.27
884.122	-29.7
884.293	-3.07
884.465	44.03
884.637	19.46
884.809	41.98
884.98	11.26
885.152	52.22
885.324	-54.27
885.496	35.84
885.667	87.04
885.839	15.36
886.011	93.18
886.182	19.46
886.354	60.42
886.525	3.07
886.697	-7.17
886.869	25.6
887.04	-9.22
887.212	23.55
887.383	115.71
887.555	58.37
887.726	-3.07
887.897	-80.89
888.069	68.61
888.24	3.07
888.412	97.28
888.583	15.36
888.754	-3.07
888.926	-17.41
889.097	27.65
889.268	62.46
889.44	13.31
889.611	3.07
889.782	-9.22
889.953	-9.22
890.125	84.99
890.296	1.02
890.467	33.79
890.638	11.26
890.809	19.46
890.98	-25.6
891.151	3.07
891.323	-13.31
891.494	19.46
891.665	3.07
891.836	64.51
892.007	-21.5
892.178	21.5
892.349	56.32
892.52	-7.17
892.691	11.26
892.862	50.18
893.032	-27.65
893.203	27.65
893.374	35.84
893.545	35.84
893.716	-27.65
893.887	95.23
894.057	19.46
894.228	-46.08
894.399	-15.36
894.57	84.99
894.74	9.22
894.911	25.6
895.082	-13.31
895.253	41.98
895.423	-54.27
895.594	15.36
895.764	-17.41
895.935	25.6
896.106	23.55
896.276	31.74
896.447	33.79
896.617	25.6
896.788	-31.74
896.958	-48.13
897.129	13.31
897.299	-15.36
897.47	-31.74
897.64	60.42
897.81	60.42
897.981	56.32
898.151	13.31
898.322	-1.02
898.492	-5.12
898.662	-5.12
898.832	9.22
899.003	23.55
899.173	15.36
899.343	39.94
899.513	33.79
