Data from USB4F104151__9__11-36-21-988.txt Node

Date: Fri Mar 14 11:36:21 EDT 2025
User: louis
Spectrometer: USB4F10415
Trigger mode: 4
Integration Time (sec): 2.000000E-2
Scans to average: 1
Electric dark correction enabled: true
Nonlinearity correction enabled: false
Boxcar width: 0
XAxis mode: Wavelengths
Number of Pixels in Spectrum: 3648
>>>>>Begin Spectral Data<<<<<
178.204	-98.13
178.424	-98.13
178.644	-98.13
178.864	-59.22
179.084	-139.09
179.304	-16.21
179.524	-1.88
179.744	-1.88
179.964	63.66
180.184	-8.02
180.404	-61.27
180.624	-1.88
180.844	0.17
181.064	-22.36
181.283	37.03
181.503	10.41
181.723	2.22
181.943	-55.12
182.163	49.32
182.383	-32.6
182.602	32.94
182.822	43.18
183.042	16.55
183.262	-40.79
183.482	-20.31
183.701	18.6
183.921	-10.07
184.141	-42.84
184.361	43.18
184.58	6.31
184.8	-3.93
185.02	-71.51
185.239	-26.45
185.459	-14.17
185.679	-16.21
185.898	28.84
186.118	2.22
186.338	-5.97
186.557	24.75
186.777	-1.88
186.997	14.51
187.216	-63.32
187.436	67.75
187.655	-67.41
187.875	51.37
188.095	6.31
188.314	-22.36
188.534	26.79
188.753	0.17
188.973	24.75
189.192	77.99
189.412	-75.6
189.631	-24.4
189.851	-16.21
190.07	37.03
190.29	10.41
190.509	73.9
190.729	-36.69
190.948	-34.64
191.168	82.09
191.387	-73.56
191.607	-14.17
191.826	4.27
192.045	-28.5
192.265	-71.51
192.484	26.79
192.704	37.03
192.923	-44.88
193.142	65.71
193.362	-55.12
193.581	2.22
193.8	24.75
194.02	26.79
194.239	69.8
194.458	-10.07
194.678	-34.64
194.897	-14.17
195.116	10.41
195.335	-106.32
195.555	6.31
195.774	8.36
195.993	-5.97
196.212	-30.55
196.432	22.7
196.651	2.22
196.87	-71.51
197.089	41.13
197.308	-48.98
197.528	-26.45
197.747	14.51
197.966	-16.21
198.185	43.18
198.404	-34.64
198.623	-38.74
198.842	-14.17
199.062	6.31
199.281	-12.12
199.5	-16.21
199.719	10.41
199.938	-46.93
200.157	16.55
200.376	73.9
200.595	-48.98
200.814	22.7
201.033	39.08
201.252	-38.74
201.471	-18.26
201.69	43.18
201.909	12.46
202.128	6.31
202.347	-40.79
202.566	26.79
202.785	61.61
203.004	-75.6
203.223	57.51
203.442	-26.45
203.661	30.89
203.879	12.46
204.098	2.22
204.317	67.75
204.536	65.71
204.755	32.94
204.974	75.95
205.193	12.46
205.411	80.04
205.63	-30.55
205.849	39.08
206.068	34.99
206.287	75.95
206.505	-5.97
206.724	-12.12
206.943	-16.21
207.162	51.37
207.381	45.23
207.599	0.17
207.818	51.37
208.037	16.55
208.255	39.08
208.474	18.6
208.693	12.46
208.911	18.6
209.13	45.23
209.349	32.94
209.567	10.41
209.786	-10.07
210.005	2.22
210.223	-1.88
210.442	-61.27
210.661	-30.55
210.879	-32.6
211.098	-5.97
211.316	-10.07
211.535	63.66
211.753	55.47
211.972	-22.36
212.191	-67.41
212.409	6.31
212.628	6.31
212.846	12.46
213.065	-44.88
213.283	-14.17
213.502	-12.12
213.72	39.08
213.938	-14.17
214.157	-20.31
214.375	26.79
214.594	43.18
214.812	26.79
215.031	-28.5
215.249	-22.36
215.467	45.23
215.686	26.79
215.904	24.75
216.122	55.47
216.341	32.94
216.559	-14.17
216.778	-30.55
216.996	26.79
217.214	4.27
217.432	-1.88
217.651	37.03
217.869	61.61
218.087	-5.97
218.306	10.41
218.524	57.51
218.742	6.31
218.96	51.37
219.179	67.75
219.397	4.27
219.615	14.51
219.833	47.27
220.051	-22.36
220.27	98.47
220.488	-5.97
220.706	45.23
220.924	59.56
221.142	-3.93
221.36	39.08
221.578	118.95
221.796	0.17
222.015	-12.12
222.233	-55.12
222.451	12.46
222.669	2.22
222.887	69.8
223.105	-18.26
223.323	45.23
223.541	24.75
223.759	37.03
223.977	-14.17
224.195	18.6
224.413	2.22
224.631	49.32
224.849	32.94
225.067	65.71
225.285	53.42
225.503	55.47
225.721	-55.12
225.939	-67.41
226.157	-20.31
226.375	57.51
226.592	-28.5
226.81	55.47
227.028	16.55
227.246	108.71
227.464	-14.17
227.682	37.03
227.9	41.13
228.117	-8.02
228.335	-26.45
228.553	18.6
228.771	32.94
228.989	86.19
229.206	-3.93
229.424	-38.74
229.642	34.99
229.86	51.37
230.077	34.99
230.295	-18.26
230.513	-36.69
230.731	14.51
230.948	-5.97
231.166	18.6
231.384	32.94
231.601	-34.64
231.819	26.79
232.037	26.79
232.254	51.37
232.472	0.17
232.689	47.27
232.907	45.23
233.125	-1.88
233.342	6.31
233.56	-22.36
233.777	-24.4
233.995	53.42
234.213	12.46
234.43	41.13
234.648	14.51
234.865	-24.4
235.083	28.84
235.3	-3.93
235.518	-16.21
235.735	-1.88
235.953	-38.74
236.17	-16.21
236.388	-42.84
236.605	-1.88
236.822	-24.4
237.04	45.23
237.257	47.27
237.475	-20.31
237.692	26.79
237.909	-14.17
238.127	-5.97
238.344	86.19
238.562	-24.4
238.779	2.22
238.996	-26.45
239.214	-36.69
239.431	10.41
239.648	18.6
239.865	-38.74
240.083	39.08
240.3	-16.21
240.517	-63.32
240.735	61.61
240.952	96.43
241.169	4.27
241.386	-26.45
241.603	28.84
241.821	30.89
242.038	-38.74
242.255	65.71
242.472	-42.84
242.689	51.37
242.907	82.09
243.124	-18.26
243.341	30.89
243.558	6.31
243.775	-59.22
243.992	-1.88
244.209	39.08
244.426	6.31
244.643	16.55
244.86	14.51
245.078	12.46
245.295	51.37
245.512	53.42
245.729	16.55
245.946	2.22
246.163	24.75
246.38	84.14
246.597	24.75
246.814	82.09
247.031	22.7
247.248	0.17
247.464	55.47
247.681	30.89
247.898	10.41
248.115	88.23
248.332	-10.07
248.549	-10.07
248.766	39.08
248.983	-118.61
249.2	-24.4
249.417	51.37
249.633	-22.36
249.85	28.84
250.067	45.23
250.284	10.41
250.501	108.71
250.717	20.65
250.934	-32.6
251.151	39.08
251.368	-1.88
251.585	18.6
251.801	34.99
252.018	22.7
252.235	-36.69
252.451	10.41
252.668	2.22
252.885	-1.88
253.102	-1.88
253.318	37.03
253.535	-26.45
253.752	2.22
253.968	88.23
254.185	43.18
254.401	-1.88
254.618	47.27
254.835	39.08
255.051	12.46
255.268	26.79
255.484	-24.4
255.701	-51.03
255.917	-14.17
256.134	-5.97
256.351	-53.08
256.567	-5.97
256.784	26.79
257	-28.5
257.217	47.27
257.433	-14.17
257.65	34.99
257.866	12.46
258.082	6.31
258.299	59.56
258.515	-42.84
258.732	-12.12
258.948	34.99
259.165	-10.07
259.381	-22.36
259.597	100.52
259.814	-28.5
260.03	-28.5
260.246	39.08
260.463	22.7
260.679	22.7
260.895	10.41
261.112	12.46
261.328	51.37
261.544	6.31
261.761	73.9
261.977	-3.93
262.193	2.22
262.409	-10.07
262.626	92.33
262.842	-3.93
263.058	6.31
263.274	2.22
263.49	47.27
263.707	77.99
263.923	71.85
264.139	28.84
264.355	-5.97
264.571	59.56
264.787	10.41
265.004	18.6
265.22	55.47
265.436	28.84
265.652	16.55
265.868	59.56
266.084	-34.64
266.3	67.75
266.516	-34.64
266.732	47.27
266.948	-34.64
267.164	-10.07
267.38	22.7
267.596	-18.26
267.812	-18.26
268.028	39.08
268.244	24.75
268.46	-30.55
268.676	32.94
268.892	2.22
269.108	10.41
269.324	22.7
269.54	-1.88
269.756	12.46
269.972	-24.4
270.188	-18.26
270.403	-8.02
270.619	-5.97
270.835	34.99
271.051	-18.26
271.267	12.46
271.483	47.27
271.698	39.08
271.914	14.51
272.13	47.27
272.346	51.37
272.562	18.6
272.777	-42.84
272.993	24.75
273.209	-30.55
273.425	84.14
273.64	-12.12
273.856	-16.21
274.072	102.57
274.287	39.08
274.503	10.41
274.719	30.89
274.934	-10.07
275.15	8.36
275.366	28.84
275.581	20.65
275.797	-26.45
276.012	-46.93
276.228	77.99
276.444	129.19
276.659	63.66
276.875	-20.31
277.09	8.36
277.306	14.51
277.521	32.94
277.737	34.99
277.952	51.37
278.168	-32.6
278.383	75.95
278.599	-59.22
278.814	10.41
279.03	10.41
279.245	37.03
279.461	-12.12
279.676	49.32
279.892	-44.88
280.107	12.46
280.322	24.75
280.538	-8.02
280.753	0.17
280.969	73.9
281.184	10.41
281.399	37.03
281.615	-16.21
281.83	71.85
282.045	-42.84
282.26	49.32
282.476	43.18
282.691	26.79
282.906	-63.32
283.122	12.46
283.337	55.47
283.552	57.51
283.767	84.14
283.983	10.41
284.198	39.08
284.413	-26.45
284.628	-8.02
284.843	22.7
285.058	59.56
285.274	110.76
285.489	-18.26
285.704	45.23
285.919	-34.64
286.134	75.95
286.349	-1.88
286.564	69.8
286.779	22.7
286.995	-12.12
287.21	-10.07
287.425	10.41
287.64	-28.5
287.855	39.08
288.07	57.51
288.285	41.13
288.5	65.71
288.715	-18.26
288.93	-14.17
289.145	-16.21
289.36	71.85
289.575	67.75
289.79	-61.27
290.004	-55.12
290.219	43.18
290.434	26.79
290.649	39.08
290.864	28.84
291.079	4.27
291.294	2.22
291.509	-61.27
291.724	-51.03
291.938	45.23
292.153	37.03
292.368	-59.22
292.583	10.41
292.798	18.6
293.012	8.36
293.227	-5.97
293.442	-12.12
293.657	4.27
293.871	108.71
294.086	-20.31
294.301	65.71
294.516	-26.45
294.73	67.75
294.945	-57.17
295.16	28.84
295.374	14.51
295.589	37.03
295.804	8.36
296.018	16.55
296.233	57.51
296.447	51.37
296.662	-10.07
296.877	80.04
297.091	20.65
297.306	28.84
297.52	69.8
297.735	24.75
297.949	47.27
298.164	0.17
298.378	14.51
298.593	-26.45
298.807	-3.93
299.022	-73.56
299.236	10.41
299.451	-55.12
299.665	-65.36
299.88	6.31
300.094	37.03
300.309	-36.69
300.523	12.46
300.737	-8.02
300.952	63.66
301.166	2.22
301.381	-5.97
301.595	37.03
301.809	28.84
302.024	-14.17
302.238	12.46
302.452	53.42
302.667	10.41
302.881	73.9
303.095	0.17
303.309	8.36
303.524	-38.74
303.738	84.14
303.952	86.19
304.166	57.51
304.381	-32.6
304.595	100.52
304.809	-53.08
305.023	-32.6
305.237	6.31
305.452	39.08
305.666	82.09
305.88	53.42
306.094	-14.17
306.308	39.08
306.522	18.6
306.736	2.22
306.95	53.42
307.164	71.85
307.379	0.17
307.593	24.75
307.807	22.7
308.021	-32.6
308.235	-22.36
308.449	-48.98
308.663	45.23
308.877	39.08
309.091	28.84
309.305	73.9
309.519	2.22
309.733	10.41
309.947	-59.22
310.161	53.42
310.374	59.56
310.588	51.37
310.802	-8.02
311.016	22.7
311.23	30.89
311.444	-14.17
311.658	-40.79
311.872	121
312.085	-48.98
312.299	6.31
312.513	71.85
312.727	22.7
312.941	10.41
313.154	59.56
313.368	-26.45
313.582	26.79
313.796	-14.17
314.009	14.51
314.223	49.32
314.437	22.7
314.651	10.41
314.864	-1.88
315.078	6.31
315.292	6.31
315.505	-22.36
315.719	51.37
315.933	49.32
316.146	6.31
316.36	-79.7
316.573	61.61
316.787	90.28
317.001	-10.07
317.214	-32.6
317.428	-38.74
317.641	-30.55
317.855	-100.18
318.068	59.56
318.282	0.17
318.495	37.03
318.709	18.6
318.922	43.18
319.136	102.57
319.349	37.03
319.563	-34.64
319.776	-10.07
319.99	18.6
320.203	10.41
320.417	-42.84
320.63	-8.02
320.843	53.42
321.057	0.17
321.27	-16.21
321.483	-40.79
321.697	49.32
321.91	22.7
322.124	6.31
322.337	45.23
322.55	-5.97
322.763	32.94
322.977	34.99
323.19	14.51
323.403	-14.17
323.617	22.7
323.83	-30.55
324.043	6.31
324.256	37.03
324.469	63.66
324.683	28.84
324.896	30.89
325.109	0.17
325.322	-12.12
325.535	65.71
325.748	-10.07
325.962	41.13
326.175	24.75
326.388	10.41
326.601	-10.07
326.814	-10.07
327.027	49.32
327.24	41.13
327.453	-32.6
327.666	-32.6
327.879	47.27
328.092	2.22
328.305	-65.36
328.518	30.89
328.731	-12.12
328.944	45.23
329.157	-14.17
329.37	30.89
329.583	63.66
329.796	45.23
330.009	-40.79
330.222	75.95
330.435	73.9
330.648	24.75
330.861	57.51
331.073	-16.21
331.286	90.28
331.499	61.61
331.712	6.31
331.925	53.42
332.138	-5.97
332.35	-81.75
332.563	43.18
332.776	123.05
332.989	49.32
333.202	-5.97
333.414	41.13
333.627	-18.26
333.84	-8.02
334.053	6.31
334.265	80.04
334.478	28.84
334.691	24.75
334.903	22.7
335.116	-3.93
335.329	67.75
335.541	41.13
335.754	39.08
335.966	-3.93
336.179	24.75
336.392	-18.26
336.604	26.79
336.817	4.27
337.029	43.18
337.242	30.89
337.454	43.18
337.667	53.42
337.88	-12.12
338.092	-14.17
338.305	22.7
338.517	-100.18
338.729	-3.93
338.942	75.95
339.154	41.13
339.367	59.56
339.579	-42.84
339.792	43.18
340.004	55.47
340.217	16.55
340.429	43.18
340.641	77.99
340.854	26.79
341.066	-40.79
341.278	28.84
341.491	88.23
341.703	-14.17
341.915	61.61
342.128	84.14
342.34	34.99
342.552	26.79
342.764	100.52
342.977	16.55
343.189	-10.07
343.401	-26.45
343.613	-87.89
343.826	16.55
344.038	22.7
344.25	118.95
344.462	6.31
344.674	51.37
344.886	32.94
345.099	43.18
345.311	-8.02
345.523	14.51
345.735	2.22
345.947	71.85
346.159	10.41
346.371	80.04
346.583	82.09
346.795	39.08
347.007	32.94
347.219	80.04
347.431	-5.97
347.643	8.36
347.855	-12.12
348.067	45.23
348.279	-46.93
348.491	82.09
348.703	55.47
348.915	92.33
349.127	-18.26
349.339	86.19
349.551	28.84
349.763	37.03
349.975	18.6
350.187	57.51
350.399	61.61
350.61	6.31
350.822	-1.88
351.034	0.17
351.246	88.23
351.458	47.27
351.669	34.99
351.881	67.75
352.093	137.38
352.305	80.04
352.517	30.89
352.728	71.85
352.94	55.47
353.152	92.33
353.363	-24.4
353.575	57.51
353.787	26.79
353.999	71.85
354.21	18.6
354.422	18.6
354.633	24.75
354.845	61.61
355.057	18.6
355.268	84.14
355.48	2.22
355.692	-71.51
355.903	98.47
356.115	4.27
356.326	39.08
356.538	8.36
356.749	22.7
356.961	88.23
357.172	14.51
357.384	18.6
357.595	84.14
357.807	43.18
358.018	34.99
358.23	20.65
358.441	116.9
358.653	-5.97
358.864	39.08
359.075	-30.55
359.287	34.99
359.498	47.27
359.709	67.75
359.921	43.18
360.132	151.72
360.344	51.37
360.555	37.03
360.766	-10.07
360.977	-12.12
361.189	12.46
361.4	-20.31
361.611	75.95
361.823	-5.97
362.034	53.42
362.245	-59.22
362.456	37.03
362.667	88.23
362.879	24.75
363.09	-48.98
363.301	75.95
363.512	28.84
363.723	-14.17
363.935	-44.88
364.146	32.94
364.357	-5.97
364.568	-32.6
364.779	-32.6
364.99	82.09
365.201	14.51
365.412	26.79
365.623	4.27
365.834	34.99
366.045	10.41
366.256	28.84
366.467	112.81
366.678	16.55
366.889	-44.88
367.1	65.71
367.311	6.31
367.522	67.75
367.733	43.18
367.944	71.85
368.155	22.7
368.366	-28.5
368.577	-10.07
368.788	67.75
368.999	-3.93
369.209	28.84
369.42	28.84
369.631	133.29
369.842	16.55
370.053	47.27
370.264	-16.21
370.474	10.41
370.685	77.99
370.896	-16.21
371.107	98.47
371.317	63.66
371.528	65.71
371.739	100.52
371.95	26.79
372.16	53.42
372.371	-5.97
372.582	51.37
372.792	49.32
373.003	-22.36
373.214	75.95
373.424	0.17
373.635	61.61
373.846	26.79
374.056	47.27
374.267	82.09
374.477	39.08
374.688	22.7
374.898	24.75
375.109	82.09
375.319	47.27
375.53	71.85
375.74	10.41
375.951	45.23
376.161	37.03
376.372	65.71
376.582	10.41
376.793	51.37
377.003	57.51
377.214	-16.21
377.424	24.75
377.635	-36.69
377.845	61.61
378.055	10.41
378.266	67.75
378.476	51.37
378.686	57.51
378.897	2.22
379.107	61.61
379.317	-1.88
379.528	39.08
379.738	-34.64
379.948	51.37
380.158	86.19
380.369	34.99
380.579	88.23
380.789	110.76
380.999	32.94
381.21	51.37
381.42	43.18
381.63	71.85
381.84	55.47
382.05	61.61
382.261	55.47
382.471	4.27
382.681	43.18
382.891	63.66
383.101	47.27
383.311	49.32
383.521	-24.4
383.731	75.95
383.941	65.71
384.151	98.47
384.361	84.14
384.571	100.52
384.781	12.46
384.991	108.71
385.201	82.09
385.411	2.22
385.621	123.05
385.831	8.36
386.041	51.37
386.251	30.89
386.461	82.09
386.671	49.32
386.881	77.99
387.091	112.81
387.301	69.8
387.511	10.41
387.72	73.9
387.93	-16.21
388.14	4.27
388.35	-12.12
388.56	71.85
388.769	45.23
388.979	16.55
389.189	65.71
389.399	-28.5
389.609	71.85
389.818	75.95
390.028	-40.79
390.238	-1.88
390.447	63.66
390.657	20.65
390.867	92.33
391.076	63.66
391.286	86.19
391.496	51.37
391.705	-5.97
391.915	14.51
392.125	24.75
392.334	16.55
392.544	41.13
392.753	-34.64
392.963	26.79
393.172	96.43
393.382	32.94
393.591	75.95
393.801	63.66
394.01	24.75
394.22	-3.93
394.429	49.32
394.639	84.14
394.848	118.95
395.058	57.51
395.267	49.32
395.477	73.9
395.686	51.37
395.895	63.66
396.105	125.1
396.314	114.86
396.524	123.05
396.733	129.19
396.942	67.75
397.152	90.28
397.361	114.86
397.57	112.81
397.78	20.65
397.989	59.56
398.198	204.97
398.407	108.71
398.617	98.47
398.826	129.19
399.035	116.9
399.244	51.37
399.453	69.8
399.663	71.85
399.872	110.76
400.081	84.14
400.29	202.92
400.499	121
400.708	155.82
400.917	57.51
401.127	43.18
401.336	73.9
401.545	133.29
401.754	145.58
401.963	88.23
402.172	59.56
402.381	100.52
402.59	118.95
402.799	43.18
403.008	116.9
403.217	207.02
403.426	92.33
403.635	92.33
403.844	116.9
404.053	116.9
404.262	98.47
404.471	198.82
404.68	125.1
404.888	141.48
405.097	149.67
405.306	182.44
405.515	125.1
405.724	186.54
405.933	161.96
406.142	207.02
406.35	204.97
406.559	250.02
406.768	204.97
406.977	182.44
407.185	198.82
407.394	157.86
407.603	135.34
407.812	184.49
408.02	174.25
408.229	256.17
408.438	217.26
408.646	221.35
408.855	221.35
409.064	204.97
409.272	239.78
409.481	325.8
409.69	276.65
409.898	260.26
410.107	313.51
410.315	358.57
410.524	305.32
410.733	344.23
410.941	407.72
411.15	340.13
411.358	403.62
411.567	432.29
411.775	389.28
411.984	456.87
412.192	401.57
412.401	434.34
412.609	526.5
412.818	479.4
413.026	409.76
413.234	444.58
413.443	487.59
413.651	501.92
413.86	598.18
414.068	596.13
414.276	571.55
414.485	606.37
414.693	694.43
414.901	669.86
415.11	723.1
415.318	772.25
415.526	702.62
415.734	888.99
415.943	751.78
416.151	850.08
416.359	870.56
416.567	809.12
416.776	858.27
416.984	913.56
417.192	968.86
417.4	911.52
417.608	964.76
417.817	1114.27
418.025	1089.69
418.233	1163.42
418.441	1075.35
418.649	1167.51
418.857	1222.81
419.065	1335.45
419.273	1249.43
419.481	1302.68
419.689	1466.52
419.897	1507.48
420.105	1509.52
420.313	1620.11
420.521	1587.35
420.729	1605.78
420.937	1745.04
421.145	1761.42
421.353	1859.73
421.561	1939.6
421.769	1958.03
421.977	2054.28
422.185	2066.57
422.393	2320.52
422.601	2216.07
422.809	2246.79
423.017	2293.9
423.224	2357.38
423.432	2599.04
423.64	2545.8
423.848	2848.9
424.056	2615.43
424.263	2828.42
424.471	2973.82
424.679	2943.1
424.887	3016.83
425.094	3172.47
425.302	3070.08
425.51	3424.37
425.718	3416.18
425.925	3455.09
426.133	3709.04
426.341	3815.54
426.548	4032.62
426.756	3848.3
426.964	3993.71
427.171	4272.23
427.379	4352.1
427.586	4370.54
427.794	4659.3
428.001	4757.6
428.209	5009.5
428.417	4855.9
428.624	5328.99
428.832	5369.94
429.039	5179.48
429.247	5247.07
429.454	5666.9
429.662	6070.35
429.869	5634.13
430.076	6125.65
430.284	5978.19
430.491	6195.28
430.699	6539.33
430.906	6580.29
431.114	6598.73
431.321	6836.29
431.528	7024.7
431.736	7313.47
431.943	7839.8
432.15	7669.81
432.358	7776.31
432.565	8243.24
432.772	8120.37
432.979	8392.75
433.187	8503.34
433.394	8814.63
433.601	9248.8
433.808	9285.66
434.016	9306.14
434.223	9603.1
434.43	10158.1
434.637	10012.69
434.844	10496.01
435.052	10688.52
435.259	10641.42
435.466	10971.14
435.673	10909.7
435.88	11575.29
436.087	12216.3
436.294	12011.51
436.501	11993.08
436.708	12023.8
436.915	12558.32
437.122	13004.77
437.329	13166.56
437.537	13518.81
437.743	13514.72
437.95	13416.41
438.157	14219.22
438.364	14772.17
438.571	14706.63
438.778	14809.03
438.985	15994.81
439.192	15556.54
439.399	16072.63
439.606	15491.01
439.813	16660.4
440.02	17446.82
440.227	17248.16
440.433	17342.37
440.64	17573.79
440.847	17414.05
441.054	17919.9
441.261	19070.86
441.467	18960.27
441.674	19359.62
441.881	20035.45
442.088	19869.56
442.294	19883.9
442.501	20436.85
442.708	20703.09
442.914	21712.74
443.121	22331.22
443.328	21895
443.534	23379.78
443.741	22945.61
443.948	22468.44
444.154	24033.08
444.361	24010.56
444.568	24526.64
444.774	24317.75
444.981	24432.44
445.187	25038.64
445.394	26134.3
445.6	25878.3
445.807	28663.54
446.013	27244.3
446.22	27879.17
446.426	28831.47
446.633	29409
446.839	29775.59
447.046	28784.37
447.252	30529.24
447.459	30674.65
447.665	30349.02
447.871	31571.66
448.078	32966.32
448.284	31563.47
448.491	32339.65
448.697	33459.88
448.903	34066.08
449.11	34328.22
449.316	33908.39
449.522	34543.26
449.728	35241.62
449.935	35577.48
450.141	35536.52
450.347	36169.35
450.553	35384.97
450.76	35921.54
450.966	36748.92
451.172	36658.81
451.378	37459.57
451.584	36421.25
451.791	37357.17
451.997	37895.78
452.203	38047.33
452.409	38155.88
452.615	38024.81
452.821	36243.07
453.027	36105.86
453.233	37969.51
453.44	36615.8
453.646	37318.26
453.852	37031.54
454.058	37842.54
454.264	36583.04
454.47	37375.6
454.676	36021.89
454.882	37381.74
455.088	34649.75
455.294	34989.72
455.5	35442.32
455.705	35804.81
455.911	34127.52
456.117	33697.45
456.323	33361.58
456.529	31430.35
456.735	32908.98
456.941	32210.62
457.147	31495.88
457.352	30486.23
457.558	30193.37
457.764	30045.92
457.97	29683.43
458.176	29159.15
458.381	29236.97
458.587	27574.02
458.793	27475.72
458.999	26169.12
459.204	28139.26
459.41	27318.03
459.616	25220.91
459.821	25753.38
460.027	25325.35
460.233	24770.35
460.438	23492.42
460.644	23897.92
460.85	23156.55
461.055	22523.73
461.261	22595.41
461.466	20948.84
461.672	20299.64
461.878	21450.6
462.083	20184.95
462.289	19777.4
462.494	19507.07
462.7	18585.49
462.905	18202.52
463.111	18730.89
463.316	18728.84
463.522	18288.53
463.727	18730.89
463.932	18431.89
464.138	18403.22
464.343	18409.36
464.549	17745.82
464.754	18497.42
464.959	18317.2
465.165	18108.31
465.37	17498.02
465.575	17248.16
465.781	17713.05
465.986	17874.84
466.191	16930.73
466.397	16730.03
466.602	15998.9
466.807	16371.63
467.012	16512.94
467.218	16494.51
467.423	16154.55
467.628	16336.82
467.833	16930.73
468.038	16312.24
468.244	15921.08
468.449	16738.22
468.654	16125.88
468.859	15835.07
469.064	15849.4
469.269	15065.03
469.474	15243.2
469.679	15515.58
469.885	15108.04
470.09	15538.11
470.295	15462.33
470.5	14839.75
470.705	15073.22
470.91	14706.63
471.115	14583.76
471.32	14682.06
471.525	14757.83
471.73	14258.13
471.935	14165.97
472.139	13793.24
472.344	13873.11
472.549	13926.36
472.754	13727.71
472.959	13289.44
473.164	13238.24
473.369	13058.02
473.574	13397.98
473.778	13146.08
473.983	13074.4
474.188	13164.51
474.393	12724.2
474.598	12576.75
474.802	12333.04
475.007	12374
475.212	12150.77
475.417	11880.44
475.621	11913.2
475.826	11962.36
476.031	11700.22
476.235	11649.02
476.44	11757.56
476.645	11495.42
476.849	11821.05
477.054	11220.99
477.259	11079.68
477.463	11182.08
477.668	10864.64
477.872	10911.75
478.077	10915.84
478.282	10641.42
478.486	10715.14
478.691	10420.24
478.895	10504.2
479.1	10344.46
479.304	10371.08
479.509	10199.06
479.713	10246.16
479.918	9943.06
480.122	9855
480.326	10166.29
480.531	10067.99
480.735	9955.35
480.94	9775.13
481.144	10133.52
481.348	9701.4
481.553	9820.18
481.757	9523.23
481.961	9771.03
482.166	9865.24
482.37	9908.24
482.574	9508.89
482.778	9736.21
482.983	9623.58
483.187	9580.57
483.391	9840.66
483.595	9642.01
483.8	9504.79
484.004	9709.59
484.208	9752.6
484.412	9652.25
484.616	9517.08
484.821	9758.74
485.025	9300
485.229	9611.29
485.433	9541.66
485.637	9730.07
485.841	9521.18
486.045	9521.18
486.249	9631.77
486.453	9637.91
486.657	9680.92
486.861	9560.09
487.065	9371.68
487.269	9529.37
487.473	9398.3
487.677	9553.94
487.881	9508.89
488.085	9566.23
488.289	9738.26
488.493	9629.72
488.697	9873.43
488.901	9840.66
489.105	9689.11
489.309	9842.71
489.512	9703.45
489.716	9644.06
489.92	9836.56
490.124	9685.01
490.328	9979.92
490.531	9738.26
490.735	9836.56
490.939	10024.98
491.143	9861.14
491.346	9955.35
491.55	10084.37
491.754	10100.75
491.958	10086.42
492.161	10061.84
492.365	10199.06
492.569	10272.78
492.772	10168.34
492.976	10231.82
493.18	10176.53
493.383	10747.91
493.587	10620.94
493.79	10518.54
493.994	10582.03
494.197	10858.5
494.401	10811.4
494.605	10590.22
494.808	10913.8
495.012	10891.27
495.215	10942.47
495.419	10979.33
495.622	11190.27
495.825	11278.33
496.029	11290.62
496.232	11315.2
496.436	11442.17
496.639	11640.83
496.843	11769.85
497.046	11972.6
497.249	11737.08
497.453	11956.21
497.656	12320.75
497.859	12222.45
498.063	12488.68
498.266	12490.73
498.469	12658.67
498.673	12713.96
498.876	12875.75
499.079	13060.07
499.282	12920.81
499.485	13242.34
499.689	13451.23
499.892	13676.51
500.095	13791.19
500.298	13979.61
500.501	13731.8
500.705	14475.21
500.908	14454.73
501.111	14606.28
501.314	14477.26
501.517	14862.28
501.72	14956.49
501.923	15042.5
502.126	15103.94
502.329	15292.35
502.532	15669.18
502.735	15417.28
502.938	15949.75
503.141	16154.55
503.344	16525.23
503.547	16449.46
503.75	16449.46
503.953	16887.72
504.156	17379.23
504.359	17295.27
504.562	17362.85
504.765	17569.69
504.968	17786.78
505.17	17813.4
505.373	18010.01
505.576	18280.34
505.779	18456.47
505.982	18515.86
506.185	19070.86
506.387	18909.07
506.59	19191.69
506.793	19560.32
506.996	19322.76
507.198	19795.84
507.401	19885.95
507.604	20109.18
507.807	20479.86
508.009	20703.09
508.212	20762.48
508.415	21022.57
508.617	21057.39
508.82	21448.55
509.022	21464.93
509.225	22005.59
509.428	22087.51
509.63	22513.49
509.833	22404.95
510.035	22921.04
510.238	22728.53
510.44	23064.39
510.643	23629.63
510.845	23455.56
511.048	23504.71
511.25	24190.78
511.453	23998.27
511.655	24710.96
511.858	24487.73
512.06	24911.66
512.262	25120.56
512.465	25093.93
512.667	25610.02
512.87	25872.16
513.072	25630.5
513.274	26289.95
513.477	26361.62
513.679	26711.83
513.881	26902.29
514.084	26957.58
514.286	27289.35
514.488	27539.21
514.69	28358.39
514.893	28049.15
515.095	28247.8
515.297	28604.15
515.499	28784.37
515.701	29079.28
515.904	29273.84
516.106	29492.97
516.308	29705.96
516.51	29951.71
516.712	29945.57
516.914	30533.34
517.116	30828.24
517.318	31334.09
517.52	31086.29
517.722	31231.69
517.925	31753.93
518.127	32075.46
518.329	32321.21
518.531	32038.59
518.733	33136.31
518.935	33427.12
519.136	33175.22
519.338	33138.35
519.54	33910.44
519.742	33855.14
519.944	33908.39
520.146	34649.75
520.348	34834.07
520.55	34676.38
520.752	34997.91
520.954	35540.62
521.155	35241.62
521.357	35827.34
521.559	35839.62
521.761	36298.37
521.963	36314.75
522.164	36966.01
522.366	36671.1
522.568	37408.37
522.77	37283.44
522.971	37906.02
523.173	37394.03
523.375	38299.23
523.576	37584.49
523.778	37840.49
523.98	38602.33
524.181	38604.38
524.383	39069.27
524.584	38780.51
524.786	38968.92
524.988	38786.65
525.189	39106.13
525.391	39763.53
525.592	40138.31
525.794	39960.14
525.995	39937.61
526.197	40224.32
526.398	40326.72
526.6	40508.99
526.801	40812.09
527.003	40980.03
527.204	40541.76
527.406	41326.13
527.607	41379.38
527.808	41393.72
528.01	41119.29
528.211	41156.15
528.412	41842.22
528.614	41897.52
528.815	41836.08
529.016	42194.47
529.218	41702.96
529.419	41799.21
529.62	41991.72
529.822	42077.74
530.023	42178.09
530.224	42389.03
530.425	42257.96
530.626	41682.48
530.828	41842.22
531.029	42491.43
531.23	42305.06
531.431	42499.62
531.632	42630.69
531.833	42679.84
532.035	42575.39
532.236	43173.4
532.437	42708.51
532.638	42407.46
532.839	43181.59
533.04	43030.04
533.241	42837.53
533.442	43212.31
533.643	43068.95
533.844	42675.74
534.045	43384.34
534.246	42735.13
534.447	43142.68
534.648	43210.26
534.849	42868.25
535.05	42651.17
535.251	43208.22
535.451	43126.3
535.652	43406.87
535.853	42989.08
536.054	43488.79
536.255	43257.37
536.456	42997.27
536.657	43458.07
536.857	43118.1
537.058	43240.98
537.259	43224.6
537.46	43126.3
537.66	42923.55
537.861	43165.21
538.062	43187.74
538.263	43439.64
538.463	43118.1
538.664	42935.84
538.865	43208.22
539.065	43372.05
539.266	43146.78
539.466	43685.39
539.667	42726.94
539.868	43126.3
540.068	43032.09
540.269	42882.59
540.469	43429.4
540.67	42974.75
540.87	43120.15
541.071	42997.27
541.271	43296.28
541.472	43105.82
541.672	42700.32
541.873	42907.16
542.073	42393.12
542.274	43513.36
542.474	43322.9
542.675	42673.7
542.875	43322.9
543.075	43146.78
543.276	42434.08
543.476	43005.47
543.676	42524.19
543.877	43179.54
544.077	42761.76
544.277	42833.44
544.478	42649.12
544.678	43034.14
544.878	42774.05
545.078	43382.29
545.279	42495.52
545.479	42829.34
545.679	43363.86
545.879	42835.49
546.079	42825.25
546.28	42681.89
546.48	42526.24
546.68	42618.4
546.88	42659.36
547.08	42575.39
547.28	42429.99
547.48	42511.91
547.68	42800.67
547.88	42307.11
548.081	42886.68
548.281	42571.3
548.481	42579.49
548.681	42774.05
548.881	42708.51
549.081	42626.59
549.28	42602.02
549.48	42585.63
549.68	42278.44
549.88	43107.86
550.08	42200.61
550.28	42444.32
550.48	42429.99
550.68	42841.63
550.88	42389.03
551.08	42317.35
551.279	42520.1
551.479	42063.4
551.679	42274.34
551.879	42413.6
552.079	42208.81
552.278	41770.54
552.478	42356.26
552.678	42348.07
552.878	42440.23
553.077	41997.87
553.277	41987.63
553.477	42577.44
553.676	42278.44
553.876	42053.16
554.076	42278.44
554.275	42073.64
554.475	41672.24
554.674	42266.15
554.874	42159.66
555.074	41696.81
555.273	41997.87
555.473	41731.63
555.672	41807.4
555.872	41831.98
556.071	42008.11
556.271	42053.16
556.47	41733.68
556.67	41217.59
556.869	41317.94
557.068	41561.65
557.268	41420.34
557.467	41594.42
557.667	41311.8
557.866	41340.47
558.065	41500.21
558.265	40945.21
558.464	40986.17
558.663	41541.17
558.863	40959.55
559.062	41700.91
559.261	41221.69
559.461	41385.52
559.66	40691.26
559.859	41307.7
560.058	40775.23
560.258	41104.95
560.457	40576.58
560.656	40660.54
560.855	40449.6
561.054	41100.86
561.253	40564.29
561.453	40904.25
561.652	40676.93
561.851	40748.6
562.05	40324.68
562.249	40201.8
562.448	40580.67
562.647	39980.62
562.846	40175.17
563.045	40484.42
563.244	39947.85
563.443	40302.15
563.642	39777.87
563.841	39958.09
564.04	39677.52
564.239	40089.16
564.438	39513.68
564.637	39798.35
564.836	39759.44
565.035	39431.76
565.234	39581.26
565.432	39671.37
565.631	39108.18
565.83	39276.12
566.029	39222.87
566.228	38741.6
566.427	39220.82
566.625	38852.19
566.824	38671.96
567.023	39126.61
567.222	38350.43
567.42	39024.22
567.619	38547.04
567.818	38477.41
568.016	38614.62
568.215	38960.73
568.414	38772.32
568.612	38938.2
568.811	38305.38
569.01	38473.31
569.208	37971.56
569.407	38272.61
569.605	37795.43
569.804	38196.84
570.002	38162.02
570.201	38162.02
570.4	37787.24
570.598	37654.12
570.797	37203.57
570.995	37740.14
571.193	37013.11
571.392	37408.37
571.59	37281.39
571.789	37310.07
571.987	37199.48
572.186	36953.72
572.384	37009.01
572.582	37138.04
572.781	37072.5
572.979	36736.63
573.177	36736.63
573.376	37248.63
573.574	36386.43
573.772	36722.3
573.971	36368
574.169	36265.6
574.367	36161.15
574.565	36417.15
574.763	36009.61
574.962	35866.25
575.16	35739.27
575.358	36140.68
575.556	35518.09
575.754	36028.04
575.952	35589.77
576.151	35739.27
576.349	35372.69
576.547	35063.44
576.745	35505.8
576.943	35128.98
577.141	35352.21
577.339	35434.13
577.537	34881.17
577.735	35104.4
577.933	34498.2
578.131	35092.12
578.329	34487.96
578.527	34686.62
578.725	34322.08
578.923	34586.27
579.121	34283.17
579.319	34336.41
579.516	34526.88
579.714	34244.26
579.912	34209.44
580.11	34137.76
580.308	34107.04
580.506	33816.23
580.704	33517.23
580.901	33877.67
581.099	33810.09
581.297	33529.52
581.495	33535.66
581.692	33486.51
581.89	33312.43
582.088	33738.41
582.285	33111.73
582.483	33332.91
582.681	33212.08
582.878	32986.8
583.076	32431.8
583.274	32968.37
583.471	32626.36
583.669	32671.42
583.866	32241.34
584.064	32519.87
584.262	32288.45
584.459	32452.28
584.657	31983.3
584.854	32450.24
585.052	31825.61
585.249	31989.44
585.447	32231.1
585.644	31483.59
585.841	31938.24
586.039	32163.52
586.236	31522.51
586.434	31379.15
586.631	31373
586.828	31471.31
587.026	31061.71
587.223	31243.98
587.42	31194.83
587.618	31180.49
587.815	31022.8
588.012	31004.37
588.21	30582.49
588.407	30813.91
588.604	30351.07
588.801	30174.94
588.999	30541.53
589.196	30373.6
589.393	30385.88
589.59	30060.26
589.787	30201.57
589.984	29849.32
590.182	29976.29
590.379	30062.3
590.576	30054.11
590.773	29462.25
590.97	29478.63
591.167	29695.72
591.364	29124.33
591.561	29523.69
591.758	29572.84
591.955	29290.22
592.152	29361.9
592.349	29044.46
592.546	28915.44
592.743	29110
592.94	28530.42
593.137	29005.55
593.334	28903.15
593.531	28511.99
593.727	28636.92
593.924	28423.93
594.121	28618.49
594.318	28790.52
594.515	28299
594.712	28419.83
594.908	28014.34
595.105	27954.94
595.302	27549.45
595.499	27807.49
595.696	27744
595.892	27510.53
596.089	27719.43
596.286	28073.73
596.482	27709.19
596.679	27213.58
596.876	27500.3
597.072	27332.36
597.269	27344.65
597.466	27191.05
597.662	27029.26
597.859	26935.06
598.055	26775.31
598.252	26810.13
598.448	27031.31
598.645	26638.1
598.841	26400.54
599.038	26416.92
599.234	26406.68
599.431	26103.58
599.627	26064.67
599.824	25939.74
600.02	26214.17
600.217	26236.7
600.413	25904.93
600.609	25888.54
600.806	25923.36
601.002	25964.32
601.198	25507.62
601.395	25540.39
601.591	25640.74
601.787	25147.18
601.984	25126.7
602.18	25177.9
602.376	25364.26
602.572	25063.21
602.769	24731.44
602.965	25001.77
603.161	24899.37
603.357	24741.68
603.553	24848.18
603.75	24786.74
603.946	24344.38
604.142	24598.32
604.338	24078.14
604.534	24332.09
604.73	23947.07
604.926	24137.53
605.122	24213.31
605.318	23881.53
605.514	23967.55
605.71	24041.28
605.906	24022.84
606.102	23805.76
606.298	24174.39
606.494	23535.43
606.69	23764.8
606.886	23609.15
607.082	23418.69
607.278	23437.13
607.474	22900.56
607.67	23635.78
607.866	23328.58
608.062	23490.37
608.257	23127.88
608.453	23258.95
608.649	23377.73
608.845	23011.15
609.041	23158.6
609.236	23215.94
609.432	22894.41
609.628	22701.9
609.824	22789.97
610.019	22871.89
610.215	22450
610.411	22976.33
610.606	22318.93
610.802	22706
610.998	22749.01
611.193	22474.58
611.389	22361.94
611.584	22531.92
611.78	22105.95
611.976	22230.87
612.171	22073.18
612.367	22105.95
612.562	22196.06
612.758	22050.65
612.953	21833.57
613.149	22255.45
613.344	21966.68
613.539	22081.37
613.735	21978.97
613.93	21915.48
614.126	21548.9
614.321	22308.69
614.517	21923.68
614.712	21530.47
614.907	21397.35
615.103	21956.44
615.298	21370.72
615.493	21747.55
615.688	21282.66
615.884	21477.22
616.079	21376.87
616.274	21460.84
616.47	21256.04
616.665	21440.36
616.86	21284.71
617.055	21176.17
617.25	21030.76
617.445	21354.34
617.641	20916.08
617.836	21190.5
618.031	20965.23
618.226	20811.63
618.421	20590.45
618.616	21012.33
618.811	20303.73
619.006	20965.23
619.201	20256.63
619.396	20567.92
619.591	20303.73
619.786	20295.54
619.981	19935.1
620.176	20291.45
620.371	19859.32
620.566	19955.58
620.761	19711.87
620.956	19742.59
621.151	19468.16
621.346	19746.69
621.541	19576.7
621.735	19478.4
621.93	19074.95
622.125	19279.75
622.32	19273.6
622.515	19091.34
622.709	18874.25
622.904	18972.55
623.099	18759.56
623.294	18849.68
623.488	18720.65
623.683	18542.48
623.878	18274.2
624.072	18266
624.267	18300.82
624.462	18216.85
624.656	17946.52
624.851	17801.12
625.046	17981.34
625.24	17692.57
625.435	17446.82
625.629	17622.94
625.824	17354.66
626.018	17586.08
626.213	17104.81
626.407	17108.9
626.602	16836.52
626.796	16863.15
626.991	17012.65
627.185	17008.55
627.38	16674.73
627.574	16715.69
627.768	16623.53
627.963	16238.51
628.157	16226.23
628.352	16455.6
628.546	16240.56
628.74	16275.38
628.935	15951.8
629.129	16058.29
629.323	15798.2
629.517	15724.47
629.712	15863.74
629.906	15646.65
630.1	15400.9
630.294	15445.95
630.489	15243.2
630.683	15335.36
630.877	15222.72
631.071	15275.97
631.265	15079.36
631.459	15179.72
631.653	14809.03
631.848	14866.38
632.042	14946.25
632.236	14880.71
632.43	14540.75
632.624	14788.55
632.818	14383.06
633.012	14415.82
633.206	14192.59
633.4	14454.73
633.594	14143.44
633.788	14372.82
633.982	14122.96
634.176	13952.98
634.369	13701.08
634.563	13723.61
634.757	13610.97
634.951	13719.51
635.145	13658.07
635.339	13469.66
635.533	13187.04
635.726	13574.11
635.92	13307.87
636.114	13182.95
636.308	13060.07
636.501	13344.74
636.695	12920.81
636.889	13051.88
637.083	12992.48
637.276	12828.65
637.47	12904.42
637.664	12761.06
637.857	12746.73
638.051	12728.3
638.244	12476.4
638.438	12683.24
638.632	12417.01
638.825	12318.7
639.019	12201.97
639.212	12199.92
639.406	12191.73
639.599	12242.93
639.793	12060.66
639.986	11769.85
640.18	11986.93
640.373	12007.41
640.567	11741.18
640.76	11708.41
640.954	11491.32
641.147	11517.95
641.34	11519.99
641.534	11329.53
641.727	11415.55
641.92	11247.62
642.114	11286.53
642.307	11210.75
642.5	11245.57
642.694	11053.06
642.887	10911.75
643.08	10928.13
643.273	11012.1
643.467	10848.26
643.66	10764.29
643.853	10827.78
644.046	10448.91
644.239	10727.43
644.432	10596.36
644.626	10455.05
644.819	10534.92
645.012	10446.86
645.205	10377.23
645.398	10336.27
645.591	10143.76
645.784	10225.68
645.977	10102.8
646.17	10184.72
646.363	10092.56
646.556	9994.26
646.749	9908.24
646.942	9920.53
647.135	9836.56
647.328	9691.16
647.521	9711.64
647.714	9410.59
647.907	9656.34
648.099	9619.48
648.292	9539.61
648.485	9336.86
648.678	9287.71
648.871	9238.56
649.064	9408.54
649.256	9467.93
649.449	9318.43
649.642	9117.73
649.835	9062.43
650.027	9089.06
650.22	9041.95
650.413	8906.79
650.605	8994.85
650.798	8960.03
650.991	8665.13
651.183	8874.02
651.376	8622.12
651.568	8738.85
651.761	8460.33
651.954	8439.85
652.146	8470.57
652.339	8634.41
652.531	8441.9
652.724	8620.07
652.916	8316.97
653.109	8316.97
653.301	8529.96
653.494	8165.42
653.686	8052.78
653.879	8095.79
654.071	8073.26
654.263	8036.4
654.456	7983.15
654.648	8005.68
654.84	7987.25
655.033	7798.84
655.225	7927.86
655.417	7827.51
655.61	7813.17
655.802	7620.66
655.994	7688.25
656.186	7626.81
656.379	7501.88
656.571	7684.15
656.763	7454.78
656.955	7487.54
657.148	7469.11
657.34	7526.46
657.532	7303.23
657.724	7397.43
657.916	7108.67
658.108	7194.68
658.3	7231.55
658.492	7184.45
658.684	7073.85
658.876	7143.49
659.068	7090.24
659.26	7102.53
659.452	7004.22
659.644	6869.06
659.836	6754.37
660.028	6801.47
660.22	6678.6
660.412	6770.76
660.604	6719.56
660.796	6862.91
660.988	6684.74
661.18	6596.68
661.372	6592.58
661.563	6715.46
661.755	6467.66
661.947	6504.52
662.139	6406.22
662.331	6336.59
662.522	6340.68
662.714	6271.05
662.906	6334.54
663.097	6240.33
663.289	6070.35
663.481	6252.62
663.673	6211.66
663.864	6090.83
664.056	6137.93
664.247	6129.74
664.439	6070.35
664.631	5949.52
664.822	6035.53
665.014	6105.17
665.205	5980.24
665.397	5922.9
665.588	5867.6
665.78	5863.51
665.971	5791.83
666.163	5681.24
666.354	5677.14
666.546	5785.68
666.737	5806.16
666.929	5406.81
667.12	5693.52
667.311	5619.8
667.503	5492.82
667.694	5597.27
667.885	5458.01
668.077	5548.12
668.268	5415
668.459	5476.44
668.651	5468.25
668.842	5400.66
669.033	5390.42
669.224	5349.47
669.416	5283.93
669.607	5326.94
669.798	5277.79
669.989	5193.82
670.18	5359.7
670.371	5120.09
670.563	5025.89
670.754	5138.52
670.945	5099.61
671.136	5070.94
671.327	5054.56
671.518	5101.66
671.709	5032.03
671.9	4941.92
672.091	4991.07
672.282	5011.55
672.473	4886.62
672.664	4905.06
672.855	4960.35
673.046	4946.02
673.237	4925.54
673.428	4989.02
673.619	4796.51
673.809	4778.08
674	4810.85
674.191	4733.03
674.382	4857.95
674.573	4790.37
674.764	4741.22
674.954	4726.88
675.145	4671.59
675.336	4663.4
675.527	4597.86
675.717	4665.44
675.908	4610.15
676.099	4499.56
676.289	4515.94
676.48	4671.59
676.671	4554.85
676.861	4431.98
677.052	4485.22
677.243	4606.05
677.433	4532.33
677.624	4524.13
677.814	4481.13
678.005	4456.55
678.195	4538.47
678.386	4423.78
678.576	4366.44
678.767	4364.39
678.957	4524.13
679.148	4515.94
679.338	4372.58
679.529	4360.3
679.719	4317.29
679.909	4405.35
680.1	4372.58
680.29	4384.87
680.481	4266.09
680.671	4221.03
680.861	4266.09
681.052	4364.39
681.242	4276.33
681.432	4300.91
681.622	4245.61
681.813	4253.8
682.003	4298.86
682.193	4288.62
682.383	4243.56
682.573	4186.22
682.764	4309.1
682.954	4227.18
683.144	4233.32
683.334	4106.35
683.524	4352.1
683.714	4130.92
683.904	4104.3
684.094	4173.93
684.284	4237.42
684.474	4130.92
684.664	4135.02
684.854	4151.4
685.044	4069.48
685.234	4069.48
685.424	4016.24
685.614	3997.81
685.804	3883.12
685.994	4114.54
686.184	3989.61
686.374	3981.42
686.564	3913.84
686.753	3975.28
686.943	3889.26
687.133	3874.93
687.323	3922.03
687.513	3766.39
687.702	3860.59
687.892	3721.33
688.082	3807.34
688.272	3586.16
688.461	3819.63
688.651	3831.92
688.841	3590.26
689.03	3655.79
689.22	3754.1
689.41	3692.66
689.599	3649.65
689.789	3623.03
689.979	3729.52
690.168	3614.84
690.358	3676.27
690.547	3508.34
690.737	3631.22
690.926	3539.06
691.116	3473.53
691.305	3534.96
691.495	3391.61
691.684	3309.69
691.874	3522.68
692.063	3385.46
692.252	3338.36
692.442	3405.94
692.631	3367.03
692.82	3461.24
693.01	3471.48
693.199	3336.31
693.388	3184.76
693.578	3270.78
693.767	3252.35
693.956	3178.62
694.146	3274.87
694.335	3233.91
694.524	3082.36
694.713	3244.15
694.902	3199.1
695.092	3131.51
695.281	3068.03
695.47	3178.62
695.659	3217.53
695.848	3076.22
696.037	3139.71
696.226	3090.56
696.415	3160.19
696.604	3098.75
696.793	3006.59
696.982	3080.32
697.171	3111.04
697.36	3041.4
697.549	3092.6
697.738	3090.56
697.927	2918.53
698.116	3037.31
698.305	2828.42
698.494	2947.2
698.683	2857.09
698.872	2908.29
699.061	3014.78
699.25	2992.25
699.438	2996.35
699.627	2967.68
699.816	2824.32
700.005	2861.18
700.193	2912.38
700.382	2791.55
700.571	2859.14
700.76	2818.18
700.948	2910.33
701.137	2900.09
701.326	2711.68
701.514	2736.26
701.703	2852.99
701.892	2828.42
702.08	2883.71
702.269	2904.19
702.457	2777.22
702.646	2836.61
702.834	2683.01
703.023	2721.92
703.212	2717.83
703.4	2861.18
703.589	2762.88
703.777	2687.11
703.965	2805.89
704.154	2787.46
704.342	2695.3
704.531	2754.69
704.719	2709.63
704.907	2642.05
705.096	2670.72
705.284	2654.34
705.472	2711.68
705.661	2603.14
705.849	2734.21
706.037	2738.3
706.226	2648.19
706.414	2631.81
706.602	2623.62
706.79	2758.78
706.979	2664.58
707.167	2619.52
707.355	2611.33
707.543	2551.94
707.731	2601.09
707.919	2652.29
708.107	2588.8
708.296	2590.85
708.484	2605.19
708.672	2504.84
708.86	2635.91
709.048	2666.63
709.236	2676.87
709.424	2619.52
709.612	2623.62
709.8	2556.04
709.988	2584.71
710.176	2678.91
710.364	2588.8
710.551	2545.8
710.739	2572.42
710.927	2631.81
711.115	2642.05
711.303	2666.63
711.491	2582.66
711.679	2443.4
711.866	2674.82
712.054	2613.38
712.242	2521.22
712.43	2635.91
712.617	2578.56
712.805	2625.67
712.993	2578.56
713.181	2590.85
713.368	2599.04
713.556	2787.46
713.744	2570.37
713.931	2640
714.119	2474.12
714.306	2545.8
714.494	2635.91
714.682	2599.04
714.869	2631.81
715.057	2605.19
715.244	2629.76
715.432	2678.91
715.619	2713.73
715.807	2629.76
715.994	2545.8
716.182	2533.51
716.369	2695.3
716.556	2660.48
716.744	2697.35
716.931	2580.61
717.119	2549.89
717.306	2599.04
717.493	2615.43
717.681	2730.11
717.868	2519.17
718.055	2611.33
718.242	2580.61
718.43	2594.95
718.617	2539.65
718.804	2621.57
718.991	2521.22
719.179	2592.9
719.366	2504.84
719.553	2574.47
719.74	2547.84
719.927	2531.46
720.114	2541.7
720.301	2533.51
720.488	2611.33
720.676	2472.07
720.863	2580.61
721.05	2590.85
721.237	2605.19
721.424	2533.51
721.611	2474.12
721.798	2504.84
721.985	2513.03
722.172	2500.74
722.358	2525.32
722.545	2597
722.732	2603.14
722.919	2527.36
723.106	2527.36
723.293	2556.04
723.48	2545.8
723.667	2465.93
723.853	2599.04
724.04	2566.28
724.227	2521.22
724.414	2482.31
724.6	2619.52
724.787	2627.71
724.974	2654.34
725.161	2531.46
725.347	2478.21
725.534	2689.15
725.72	2533.51
725.907	2562.18
726.094	2580.61
726.28	2560.13
726.467	2523.27
726.653	2680.96
726.84	2582.66
727.027	2601.09
727.213	2472.07
727.4	2640
727.586	2580.61
727.773	2508.93
727.959	2539.65
728.145	2556.04
728.332	2494.6
728.518	2617.47
728.705	2574.47
728.891	2431.11
729.077	2672.77
729.264	2474.12
729.45	2506.88
729.636	2676.87
729.823	2547.84
730.009	2631.81
730.195	2539.65
730.382	2570.37
730.568	2588.8
730.754	2482.31
730.94	2562.18
731.126	2508.93
731.313	2582.66
731.499	2494.6
731.685	2523.27
731.871	2429.06
732.057	2640
732.243	2537.6
732.429	2640
732.615	2549.89
732.801	2457.73
732.987	2590.85
733.173	2558.08
733.359	2515.08
733.545	2529.41
733.731	2529.41
733.917	2625.67
734.103	2510.98
734.289	2654.34
734.475	2486.4
734.661	2582.66
734.847	2461.83
735.033	2547.84
735.219	2521.22
735.404	2504.84
735.59	2427.01
735.776	2496.64
735.962	2543.75
736.148	2506.88
736.333	2519.17
736.519	2525.32
736.705	2570.37
736.89	2359.43
737.076	2302.09
737.262	2443.4
737.447	2394.25
737.633	2353.29
737.819	2455.69
738.004	2451.59
738.19	2459.78
738.375	2365.57
738.561	2488.45
738.747	2435.21
738.932	2431.11
739.118	2365.57
739.303	2435.21
739.489	2439.3
739.674	2375.81
739.859	2439.3
740.045	2347.14
740.23	2371.72
740.416	2254.98
740.601	2386.05
740.786	2259.08
740.972	2273.42
741.157	2334.86
741.342	2207.88
741.528	2400.39
741.713	2181.26
741.898	2365.57
742.084	2261.13
742.269	2320.52
742.454	2312.33
742.639	2209.93
742.824	2400.39
743.01	2252.94
743.195	2246.79
743.38	2240.65
743.565	2287.75
743.75	2232.46
743.935	2148.49
744.12	2230.41
744.305	2070.67
744.49	2148.49
744.675	2183.31
744.86	2082.95
745.045	2050.19
745.23	2189.45
745.415	2189.45
745.6	2101.39
745.785	2054.28
745.97	2042
746.155	2138.25
746.34	2181.26
746.525	2113.67
746.71	2130.06
746.895	2015.37
747.079	2042
747.264	1878.16
747.449	2017.42
747.634	2033.8
747.819	2058.38
748.003	1994.89
748.188	1925.26
748.373	1917.07
748.557	1810.58
748.742	1826.96
748.927	1767.57
749.111	1900.69
749.296	1859.73
749.481	1720.46
749.665	1857.68
749.85	1890.45
750.034	1878.16
750.219	1831.05
750.404	1829.01
750.588	1824.91
750.773	1788.05
750.957	1695.89
751.141	1726.61
751.326	1779.86
751.51	1704.08
751.695	1730.7
751.879	1681.55
752.064	1740.94
752.248	1794.19
752.432	1712.27
752.617	1783.95
752.801	1693.84
752.985	1702.03
753.17	1607.83
753.354	1681.55
753.538	1603.73
753.722	1616.02
753.907	1534.1
754.091	1624.21
754.275	1534.1
754.459	1665.17
754.643	1536.15
754.828	1460.37
755.012	1566.87
755.196	1587.35
755.38	1570.96
755.564	1433.75
755.748	1525.91
755.932	1452.18
756.116	1437.84
756.3	1427.6
756.484	1435.8
756.668	1433.75
756.852	1396.89
757.036	1433.75
757.22	1302.68
757.404	1386.65
757.588	1390.74
757.772	1304.73
757.956	1374.36
758.14	1446.04
758.323	1343.64
758.507	1296.53
758.691	1345.69
758.875	1257.62
759.059	1304.73
759.242	1286.3
759.426	1294.49
759.61	1292.44
759.794	1228.95
759.977	1259.67
760.161	1235.1
760.345	1298.58
760.528	1235.1
760.712	1177.75
760.895	1108.12
761.079	1261.72
761.263	1169.56
761.446	1122.46
761.63	1181.85
761.813	1235.1
761.997	1042.59
762.18	1118.36
762.364	1087.64
762.547	1202.33
762.731	1179.8
762.914	1177.75
763.098	1030.3
763.281	1173.66
763.464	1181.85
763.648	1104.03
763.831	1161.37
764.015	1159.32
764.198	1151.13
764.381	1216.66
764.564	1116.31
764.748	1065.11
764.931	1157.27
765.114	1052.83
765.297	1067.16
765.481	1106.07
765.664	993.44
765.847	1093.79
766.03	1050.78
766.213	1081.5
766.397	1071.26
766.58	1034.39
766.763	1183.9
766.946	1075.35
767.129	1040.54
767.312	1009.82
767.495	1024.16
767.678	956.57
767.861	1001.63
768.044	1032.35
768.227	1054.87
768.41	1005.72
768.593	925.85
768.776	960.67
768.959	1020.06
769.142	952.48
769.324	934.04
769.507	1022.11
769.69	1013.92
769.873	919.71
770.056	1065.11
770.239	985.24
770.421	970.91
770.604	950.43
770.787	921.76
770.97	952.48
771.152	905.37
771.335	966.81
771.518	876.7
771.7	936.09
771.883	868.51
772.066	964.76
772.248	964.76
772.431	886.94
772.613	886.94
772.796	891.04
772.978	829.6
773.161	907.42
773.343	776.35
773.526	868.51
773.708	833.69
773.891	862.37
774.073	843.93
774.256	884.89
774.438	821.41
774.621	755.87
774.803	823.45
774.985	764.06
775.168	870.56
775.35	809.12
775.532	731.3
775.715	786.59
775.897	782.49
776.079	788.64
776.261	843.93
776.444	778.4
776.626	751.78
776.808	800.93
776.99	710.82
777.173	665.76
777.355	737.44
777.537	727.2
777.719	624.8
777.901	682.14
778.083	673.95
778.265	708.77
778.447	770.21
778.629	716.96
778.811	692.38
778.993	729.25
779.175	753.82
779.357	614.56
779.539	655.52
779.721	680.1
779.903	641.18
780.085	690.34
780.267	616.61
780.449	624.8
780.631	614.56
780.812	600.23
780.994	608.42
781.176	632.99
781.358	530.59
781.54	606.37
781.721	594.08
781.903	506.02
782.085	606.37
782.267	669.86
782.448	557.22
782.63	563.36
782.812	569.51
782.993	604.32
783.175	587.94
783.357	604.32
783.538	485.54
783.72	561.31
783.901	526.5
784.083	469.16
784.264	604.32
784.446	653.47
784.627	491.68
784.809	524.45
784.99	520.35
785.172	514.21
785.353	530.59
785.535	411.81
785.716	432.29
785.897	428.2
786.079	514.21
786.26	467.11
786.441	491.68
786.623	403.62
786.804	530.59
786.985	536.74
787.167	503.97
787.348	463.01
787.529	477.35
787.71	450.72
787.891	409.76
788.073	465.06
788.254	436.39
788.435	415.91
788.616	428.2
788.797	456.87
788.978	377
789.159	428.2
789.34	420
789.522	444.58
789.703	350.37
789.884	354.47
790.065	395.43
790.246	452.77
790.427	354.47
790.607	487.59
790.788	399.52
790.969	362.66
791.15	415.91
791.331	366.76
791.512	383.14
791.693	391.33
791.874	405.67
792.054	377
792.235	403.62
792.416	356.52
792.597	329.89
792.778	366.76
792.958	438.44
793.139	350.37
793.32	311.46
793.5	377
793.681	336.04
793.862	305.32
794.042	321.7
794.223	241.83
794.404	372.9
794.584	288.93
794.765	293.03
794.945	264.36
795.126	284.84
795.306	315.56
795.487	327.85
795.667	252.07
795.848	325.8
796.028	219.3
796.209	389.28
796.389	313.51
796.57	305.32
796.75	293.03
796.93	319.65
797.111	323.75
797.291	327.85
797.471	247.97
797.652	293.03
797.832	262.31
798.012	329.89
798.192	266.41
798.373	256.17
798.553	290.98
798.733	272.55
798.913	280.74
799.093	237.74
799.274	270.5
799.454	247.97
799.634	336.04
799.814	301.22
799.994	315.56
800.174	270.5
800.354	213.16
800.534	198.82
800.714	258.21
800.894	198.82
801.074	266.41
801.254	278.69
801.434	229.54
801.614	290.98
801.794	280.74
801.974	563.36
802.154	168.1
802.334	198.82
802.514	133.29
802.693	256.17
802.873	200.87
803.053	333.99
803.233	223.4
803.413	157.86
803.592	198.82
803.772	231.59
803.952	215.21
804.131	225.45
804.311	280.74
804.491	288.93
804.67	280.74
804.85	204.97
805.03	317.61
805.209	243.88
805.389	149.67
805.568	188.58
805.748	192.68
805.928	202.92
806.107	219.3
806.287	209.06
806.466	215.21
806.646	100.52
806.825	207.02
807.004	153.77
807.184	241.83
807.363	256.17
807.543	262.31
807.722	186.54
807.901	202.92
808.081	188.58
808.26	108.71
808.439	147.62
808.619	223.4
808.798	125.1
808.977	209.06
809.156	209.06
809.336	182.44
809.515	112.81
809.694	159.91
809.873	157.86
810.052	141.48
810.231	250.02
810.411	172.2
810.59	180.39
810.769	182.44
810.948	209.06
811.127	71.85
811.306	155.82
811.485	141.48
811.664	221.35
811.843	96.43
812.022	200.87
812.201	172.2
812.38	174.25
812.559	164.01
812.737	123.05
812.916	157.86
813.095	219.3
813.274	184.49
813.453	174.25
813.632	174.25
813.811	155.82
813.989	217.26
814.168	188.58
814.347	100.52
814.526	125.1
814.704	182.44
814.883	139.43
815.062	114.86
815.24	180.39
815.419	139.43
815.598	151.72
815.776	147.62
815.955	153.77
816.133	88.23
816.312	204.97
816.49	139.43
816.669	65.71
816.847	96.43
817.026	174.25
817.204	55.47
817.383	194.73
817.561	139.43
817.74	114.86
817.918	86.19
818.097	157.86
818.275	135.34
818.453	188.58
818.632	96.43
818.81	114.86
818.988	86.19
819.167	184.49
819.345	141.48
819.523	170.15
819.701	92.33
819.879	192.68
820.058	141.48
820.236	198.82
820.414	141.48
820.592	155.82
820.77	80.04
820.948	73.9
821.127	30.89
821.305	137.38
821.483	123.05
821.661	133.29
821.839	135.34
822.017	104.62
822.195	43.18
822.373	133.29
822.551	131.24
822.729	104.62
822.907	149.67
823.085	106.67
823.262	75.95
823.44	61.61
823.618	186.54
823.796	98.47
823.974	88.23
824.152	149.67
824.329	80.04
824.507	94.38
824.685	53.42
824.863	180.39
825.04	63.66
825.218	155.82
825.396	143.53
825.574	110.76
825.751	71.85
825.929	65.71
826.107	145.58
826.284	84.14
826.462	114.86
826.639	104.62
826.817	84.14
826.994	71.85
827.172	88.23
827.349	90.28
827.527	90.28
827.704	98.47
827.882	88.23
828.059	59.56
828.237	67.75
828.414	96.43
828.591	10.41
828.769	37.03
828.946	22.7
829.124	67.75
829.301	71.85
829.478	118.95
829.655	135.34
829.833	41.13
830.01	86.19
830.187	59.56
830.364	51.37
830.542	77.99
830.719	65.71
830.896	141.48
831.073	43.18
831.25	141.48
831.427	80.04
831.604	88.23
831.782	57.51
831.959	41.13
832.136	125.1
832.313	8.36
832.49	61.61
832.667	61.61
832.844	26.79
833.021	80.04
833.198	106.67
833.374	51.37
833.551	51.37
833.728	51.37
833.905	47.27
834.082	145.58
834.259	77.99
834.436	14.51
834.612	-14.17
834.789	106.67
834.966	102.57
835.143	41.13
835.319	73.9
835.496	24.75
835.673	96.43
835.85	143.53
836.026	71.85
836.203	57.51
836.38	84.14
836.556	69.8
836.733	-28.5
836.909	94.38
837.086	14.51
837.262	65.71
837.439	59.56
837.616	116.9
837.792	18.6
837.968	67.75
838.145	73.9
838.321	125.1
838.498	73.9
838.674	34.99
838.851	26.79
839.027	51.37
839.203	86.19
839.38	28.84
839.556	69.8
839.732	43.18
839.909	53.42
840.085	110.76
840.261	-5.97
840.437	30.89
840.614	84.14
840.79	59.56
840.966	59.56
841.142	147.62
841.318	43.18
841.494	86.19
841.671	61.61
841.847	82.09
842.023	73.9
842.199	2.22
842.375	45.23
842.551	45.23
842.727	-1.88
842.903	108.71
843.079	30.89
843.255	86.19
843.431	6.31
843.607	43.18
843.783	-18.26
843.959	100.52
844.134	-26.45
844.31	14.51
844.486	34.99
844.662	55.47
844.838	18.6
845.013	77.99
845.189	80.04
845.365	28.84
845.541	51.37
845.716	57.51
845.892	47.27
846.068	-44.88
846.244	45.23
846.419	106.67
846.595	73.9
846.77	-3.93
846.946	18.6
847.122	-10.07
847.297	26.79
847.473	166.06
847.648	53.42
847.824	37.03
847.999	32.94
848.175	14.51
848.35	123.05
848.526	49.32
848.701	47.27
848.876	114.86
849.052	-14.17
849.227	75.95
849.403	28.84
849.578	10.41
849.753	82.09
849.929	43.18
850.104	-5.97
850.279	51.37
850.454	61.61
850.63	26.79
850.805	34.99
850.98	67.75
851.155	2.22
851.33	-5.97
851.505	43.18
851.681	67.75
851.856	37.03
852.031	8.36
852.206	43.18
852.381	39.08
852.556	116.9
852.731	104.62
852.906	-12.12
853.081	65.71
853.256	129.19
853.431	73.9
853.606	45.23
853.781	51.37
853.956	-73.56
854.131	67.75
854.305	-14.17
854.48	8.36
854.655	0.17
854.83	10.41
855.005	14.51
855.18	-5.97
855.354	30.89
855.529	75.95
855.704	30.89
855.879	49.32
856.053	32.94
856.228	10.41
856.403	41.13
856.577	47.27
856.752	6.31
856.926	47.27
857.101	-18.26
857.276	8.36
857.45	-18.26
857.625	75.95
857.799	32.94
857.974	77.99
858.148	-10.07
858.323	98.47
858.497	49.32
858.672	57.51
858.846	-14.17
859.02	100.52
859.195	28.84
859.369	73.9
859.543	41.13
859.718	12.46
859.892	28.84
860.066	-26.45
860.241	39.08
860.415	-1.88
860.589	37.03
860.763	30.89
860.938	34.99
861.112	22.7
861.286	8.36
861.46	28.84
861.634	-14.17
861.808	24.75
861.982	22.7
862.157	-48.98
862.331	-16.21
862.505	41.13
862.679	-77.65
862.853	118.95
863.027	-65.36
863.201	80.04
863.375	-20.31
863.549	34.99
863.722	-26.45
863.896	67.75
864.07	30.89
864.244	24.75
864.418	10.41
864.592	112.81
864.766	-8.02
864.939	20.65
865.113	-30.55
865.287	-22.36
865.461	-44.88
865.634	-18.26
865.808	-57.17
865.982	2.22
866.156	6.31
866.329	-1.88
866.503	22.7
866.676	80.04
866.85	2.22
867.024	-128.85
867.197	24.75
867.371	4.27
867.544	32.94
867.718	0.17
867.891	-8.02
868.065	-3.93
868.238	26.79
868.412	67.75
868.585	-22.36
868.759	37.03
868.932	-14.17
869.105	-14.17
869.279	-18.26
869.452	22.7
869.625	-42.84
869.799	82.09
869.972	24.75
870.145	45.23
870.319	45.23
870.492	-34.64
870.665	39.08
870.838	0.17
871.011	-55.12
871.185	-48.98
871.358	-89.94
871.531	71.85
871.704	51.37
871.877	-57.17
872.05	30.89
872.223	55.47
872.396	43.18
872.569	-46.93
872.742	51.37
872.915	14.51
873.088	-14.17
873.261	-69.46
873.434	-53.08
873.607	0.17
873.78	-8.02
873.953	16.55
874.126	6.31
874.299	67.75
874.471	-51.03
874.644	14.51
874.817	-18.26
874.99	61.61
875.163	-14.17
875.335	49.32
875.508	-14.17
875.681	10.41
875.853	-51.03
876.026	-53.08
876.199	12.46
876.371	34.99
876.544	-3.93
876.717	-53.08
876.889	-42.84
877.062	51.37
877.234	-18.26
877.407	-20.31
877.579	75.95
877.752	-48.98
877.924	0.17
878.097	-20.31
878.269	26.79
878.442	-36.69
878.614	12.46
878.786	14.51
878.959	6.31
879.131	-34.64
879.303	-5.97
879.476	14.51
879.648	8.36
879.82	77.99
879.993	-1.88
880.165	10.41
880.337	-55.12
880.509	-10.07
880.681	-59.22
880.854	-16.21
881.026	24.75
881.198	-3.93
881.37	28.84
881.542	-65.36
881.714	32.94
881.886	8.36
882.058	-22.36
882.23	-40.79
882.402	-38.74
882.574	47.27
882.746	92.33
882.918	26.79
883.09	59.56
883.262	-51.03
883.434	14.51
883.606	14.51
883.778	16.55
883.95	18.6
884.122	16.55
884.293	69.8
884.465	-48.98
884.637	77.99
884.809	-48.98
884.98	67.75
885.152	-14.17
885.324	75.95
885.496	-18.26
885.667	39.08
885.839	-44.88
886.011	26.79
886.182	0.17
886.354	32.94
886.525	-40.79
886.697	-16.21
886.869	22.7
887.04	-3.93
887.212	-26.45
887.383	43.18
887.555	-57.17
887.726	-10.07
887.897	-30.55
888.069	26.79
888.24	14.51
888.412	-14.17
888.583	-22.36
888.754	-14.17
888.926	-46.93
889.097	-5.97
889.268	-5.97
889.44	49.32
889.611	-55.12
889.782	18.6
889.953	-63.32
890.125	-22.36
890.296	-71.51
890.467	34.99
890.638	0.17
890.809	22.7
890.98	-59.22
891.151	55.47
891.323	20.65
891.494	8.36
891.665	71.85
891.836	-8.02
892.007	-55.12
892.178	-24.4
892.349	-22.36
892.52	-12.12
892.691	45.23
892.862	32.94
893.032	-67.41
893.203	18.6
893.374	41.13
893.545	-1.88
893.716	8.36
893.887	30.89
894.057	-20.31
894.228	8.36
894.399	-55.12
894.57	-18.26
894.74	10.41
894.911	51.37
895.082	24.75
895.253	24.75
895.423	-8.02
895.594	-1.88
895.764	-14.17
895.935	-57.17
896.106	-30.55
896.276	-42.84
896.447	20.65
896.617	-55.12
896.788	2.22
896.958	2.22
897.129	-30.55
897.299	-12.12
897.47	67.75
897.64	41.13
897.81	-26.45
897.981	26.79
898.151	-8.02
898.322	-26.45
898.492	-8.02
898.662	-42.84
898.832	16.55
899.003	-5.97
899.173	51.37
899.343	16.55
899.513	-53.08
