Data from USB4F104151__68__11-37-31-240.txt Node

Date: Fri Mar 14 11:37:31 EDT 2025
User: louis
Spectrometer: USB4F10415
Trigger mode: 4
Integration Time (sec): 2.000000E-2
Scans to average: 1
Electric dark correction enabled: true
Nonlinearity correction enabled: false
Boxcar width: 0
XAxis mode: Wavelengths
Number of Pixels in Spectrum: 3648
>>>>>Begin Spectral Data<<<<<
178.204	-38.74
178.424	-38.74
178.644	-38.74
178.864	-73.56
179.084	-89.94
179.304	-30.55
179.524	-57.17
179.744	75.95
179.964	67.75
180.184	30.89
180.404	49.32
180.624	-40.79
180.844	0.17
181.064	-65.36
181.283	-40.79
181.503	-38.74
181.723	49.32
181.943	-32.6
182.163	82.09
182.383	-24.4
182.602	100.52
182.822	20.65
183.042	-30.55
183.262	-51.03
183.482	14.51
183.701	49.32
183.921	18.6
184.141	0.17
184.361	-3.93
184.58	43.18
184.8	57.51
185.02	0.17
185.239	-5.97
185.459	51.37
185.679	41.13
185.898	-96.08
186.118	-26.45
186.338	-22.36
186.557	-1.88
186.777	32.94
186.997	-24.4
187.216	59.56
187.436	-10.07
187.655	22.7
187.875	55.47
188.095	34.99
188.314	18.6
188.534	63.66
188.753	65.71
188.973	-20.31
189.192	65.71
189.412	22.7
189.631	55.47
189.851	69.8
190.07	10.41
190.29	16.55
190.509	47.27
190.729	8.36
190.948	94.38
191.168	90.28
191.387	43.18
191.607	-22.36
191.826	69.8
192.045	30.89
192.265	-10.07
192.484	28.84
192.704	16.55
192.923	30.89
193.142	71.85
193.362	20.65
193.581	69.8
193.8	43.18
194.02	18.6
194.239	-42.84
194.458	51.37
194.678	73.9
194.897	-55.12
195.116	49.32
195.335	28.84
195.555	12.46
195.774	-1.88
195.993	18.6
196.212	-38.74
196.432	26.79
196.651	22.7
196.87	34.99
197.089	88.23
197.308	57.51
197.528	88.23
197.747	-46.93
197.966	80.04
198.185	41.13
198.404	-8.02
198.623	84.14
198.842	69.8
199.062	75.95
199.281	65.71
199.5	-8.02
199.719	-16.21
199.938	6.31
200.157	127.14
200.376	12.46
200.595	49.32
200.814	45.23
201.033	2.22
201.252	16.55
201.471	84.14
201.69	63.66
201.909	10.41
202.128	59.56
202.347	10.41
202.566	22.7
202.785	18.6
203.004	-28.5
203.223	127.14
203.442	-61.27
203.661	2.22
203.879	61.61
204.098	10.41
204.317	-1.88
204.536	-24.4
204.755	-5.97
204.974	-16.21
205.193	-32.6
205.411	51.37
205.63	67.75
205.849	-12.12
206.068	53.42
206.287	18.6
206.505	6.31
206.724	51.37
206.943	-14.17
207.162	73.9
207.381	2.22
207.599	-5.97
207.818	41.13
208.037	18.6
208.255	88.23
208.474	14.51
208.693	20.65
208.911	92.33
209.13	10.41
209.349	34.99
209.567	18.6
209.786	84.14
210.005	55.47
210.223	39.08
210.442	26.79
210.661	69.8
210.879	49.32
211.098	51.37
211.316	2.22
211.535	-1.88
211.753	84.14
211.972	18.6
212.191	18.6
212.409	18.6
212.628	80.04
212.846	34.99
213.065	-87.89
213.283	22.7
213.502	16.55
213.72	16.55
213.938	39.08
214.157	71.85
214.375	32.94
214.594	-34.64
214.812	114.86
215.031	-22.36
215.249	49.32
215.467	94.38
215.686	88.23
215.904	41.13
216.122	71.85
216.341	-5.97
216.559	53.42
216.778	-3.93
216.996	-26.45
217.214	43.18
217.432	10.41
217.651	4.27
217.869	34.99
218.087	24.75
218.306	2.22
218.524	53.42
218.742	43.18
218.96	12.46
219.179	-40.79
219.397	-5.97
219.615	34.99
219.833	61.61
220.051	-22.36
220.27	41.13
220.488	26.79
220.706	75.95
220.924	-30.55
221.142	8.36
221.36	-1.88
221.578	10.41
221.796	30.89
222.015	90.28
222.233	2.22
222.451	71.85
222.669	45.23
222.887	63.66
223.105	-14.17
223.323	49.32
223.541	47.27
223.759	34.99
223.977	-40.79
224.195	63.66
224.413	-32.6
224.631	63.66
224.849	2.22
225.067	59.56
225.285	14.51
225.503	47.27
225.721	28.84
225.939	-3.93
226.157	24.75
226.375	61.61
226.592	51.37
226.81	57.51
227.028	10.41
227.246	118.95
227.464	34.99
227.682	53.42
227.9	32.94
228.117	73.9
228.335	43.18
228.553	63.66
228.771	14.51
228.989	20.65
229.206	6.31
229.424	16.55
229.642	6.31
229.86	41.13
230.077	18.6
230.295	-28.5
230.513	18.6
230.731	61.61
230.948	65.71
231.166	32.94
231.384	71.85
231.601	55.47
231.819	98.47
232.037	8.36
232.254	14.51
232.472	16.55
232.689	34.99
232.907	47.27
233.125	-22.36
233.342	-1.88
233.56	-5.97
233.777	10.41
233.995	39.08
234.213	39.08
234.43	53.42
234.648	-10.07
234.865	12.46
235.083	10.41
235.3	2.22
235.518	129.19
235.735	47.27
235.953	92.33
236.17	24.75
236.388	22.7
236.605	12.46
236.822	26.79
237.04	69.8
237.257	65.71
237.475	6.31
237.692	71.85
237.909	55.47
238.127	43.18
238.344	84.14
238.562	61.61
238.779	39.08
238.996	20.65
239.214	77.99
239.431	49.32
239.648	2.22
239.865	104.62
240.083	41.13
240.3	-10.07
240.517	-3.93
240.735	14.51
240.952	39.08
241.169	55.47
241.386	18.6
241.603	-14.17
241.821	18.6
242.038	18.6
242.255	16.55
242.472	24.75
242.689	43.18
242.907	43.18
243.124	37.03
243.341	18.6
243.558	39.08
243.775	2.22
243.992	-16.21
244.209	80.04
244.426	51.37
244.643	14.51
244.86	-28.5
245.078	106.67
245.295	-16.21
245.512	51.37
245.729	43.18
245.946	75.95
246.163	59.56
246.38	8.36
246.597	-5.97
246.814	2.22
247.031	34.99
247.248	88.23
247.464	10.41
247.681	-63.32
247.898	24.75
248.115	77.99
248.332	108.71
248.549	90.28
248.766	26.79
248.983	73.9
249.2	10.41
249.417	4.27
249.633	-34.64
249.85	28.84
250.067	-44.88
250.284	61.61
250.501	69.8
250.717	32.94
250.934	41.13
251.151	-16.21
251.368	59.56
251.585	-1.88
251.801	24.75
252.018	-1.88
252.235	16.55
252.451	63.66
252.668	22.7
252.885	53.42
253.102	131.24
253.318	28.84
253.535	59.56
253.752	-46.93
253.968	24.75
254.185	-32.6
254.401	-10.07
254.618	49.32
254.835	30.89
255.051	34.99
255.268	-63.32
255.484	112.81
255.701	30.89
255.917	-16.21
256.134	108.71
256.351	-5.97
256.567	-63.32
256.784	-8.02
257	41.13
257.217	34.99
257.433	69.8
257.65	14.51
257.866	-5.97
258.082	-36.69
258.299	-46.93
258.515	32.94
258.732	-26.45
258.948	-26.45
259.165	-14.17
259.381	20.65
259.597	22.7
259.814	121
260.03	41.13
260.246	47.27
260.463	47.27
260.679	106.67
260.895	41.13
261.112	37.03
261.328	14.51
261.544	77.99
261.761	100.52
261.977	73.9
262.193	30.89
262.409	-18.26
262.626	26.79
262.842	80.04
263.058	8.36
263.274	100.52
263.49	22.7
263.707	108.71
263.923	32.94
264.139	-22.36
264.355	32.94
264.571	45.23
264.787	67.75
265.004	-30.55
265.22	-28.5
265.436	43.18
265.652	41.13
265.868	24.75
266.084	26.79
266.3	61.61
266.516	22.7
266.732	-12.12
266.948	57.51
267.164	57.51
267.38	22.7
267.596	88.23
267.812	-30.55
268.028	67.75
268.244	63.66
268.46	55.47
268.676	39.08
268.892	26.79
269.108	30.89
269.324	-1.88
269.54	-26.45
269.756	92.33
269.972	26.79
270.188	112.81
270.403	-3.93
270.619	43.18
270.835	71.85
271.051	28.84
271.267	-14.17
271.483	104.62
271.698	51.37
271.914	71.85
272.13	-22.36
272.346	57.51
272.562	22.7
272.777	18.6
272.993	-24.4
273.209	-16.21
273.425	59.56
273.64	8.36
273.856	-26.45
274.072	45.23
274.287	26.79
274.503	86.19
274.719	43.18
274.934	14.51
275.15	55.47
275.366	-1.88
275.581	24.75
275.797	24.75
276.012	98.47
276.228	0.17
276.444	10.41
276.659	86.19
276.875	14.51
277.09	-30.55
277.306	-20.31
277.521	41.13
277.737	22.7
277.952	59.56
278.168	28.84
278.383	6.31
278.599	22.7
278.814	8.36
279.03	-14.17
279.245	45.23
279.461	80.04
279.676	49.32
279.892	82.09
280.107	43.18
280.322	-22.36
280.538	-1.88
280.753	41.13
280.969	-5.97
281.184	73.9
281.399	-38.74
281.615	71.85
281.83	86.19
282.045	10.41
282.26	12.46
282.476	104.62
282.691	6.31
282.906	0.17
283.122	10.41
283.337	24.75
283.552	30.89
283.767	-40.79
283.983	28.84
284.198	20.65
284.413	65.71
284.628	-71.51
284.843	45.23
285.058	59.56
285.274	45.23
285.489	51.37
285.704	61.61
285.919	49.32
286.134	84.14
286.349	-5.97
286.564	18.6
286.779	100.52
286.995	18.6
287.21	-24.4
287.425	112.81
287.64	6.31
287.855	-12.12
288.07	16.55
288.285	-18.26
288.5	57.51
288.715	8.36
288.93	0.17
289.145	51.37
289.36	14.51
289.575	67.75
289.79	63.66
290.004	43.18
290.219	22.7
290.434	14.51
290.649	24.75
290.864	-32.6
291.079	43.18
291.294	55.47
291.509	49.32
291.724	10.41
291.938	-10.07
292.153	59.56
292.368	-32.6
292.583	16.55
292.798	32.94
293.012	-34.64
293.227	-5.97
293.442	18.6
293.657	84.14
293.871	100.52
294.086	121
294.301	-30.55
294.516	43.18
294.73	104.62
294.945	16.55
295.16	-1.88
295.374	34.99
295.589	90.28
295.804	-16.21
296.018	-1.88
296.233	67.75
296.447	-20.31
296.662	18.6
296.877	14.51
297.091	88.23
297.306	2.22
297.52	18.6
297.735	30.89
297.949	10.41
298.164	75.95
298.378	28.84
298.593	69.8
298.807	34.99
299.022	18.6
299.236	43.18
299.451	51.37
299.665	-18.26
299.88	-14.17
300.094	-40.79
300.309	51.37
300.523	28.84
300.737	-20.31
300.952	10.41
301.166	14.51
301.381	30.89
301.595	57.51
301.809	41.13
302.024	2.22
302.238	22.7
302.452	-18.26
302.667	-5.97
302.881	0.17
303.095	-36.69
303.309	-1.88
303.524	-44.88
303.738	6.31
303.952	4.27
304.166	98.47
304.381	-38.74
304.595	26.79
304.809	-32.6
305.023	6.31
305.237	26.79
305.452	-5.97
305.666	37.03
305.88	125.1
306.094	82.09
306.308	61.61
306.522	-10.07
306.736	-18.26
306.95	108.71
307.164	6.31
307.379	30.89
307.593	53.42
307.807	32.94
308.021	59.56
308.235	32.94
308.449	77.99
308.663	67.75
308.877	92.33
309.091	32.94
309.305	34.99
309.519	34.99
309.733	41.13
309.947	55.47
310.161	59.56
310.374	32.94
310.588	63.66
310.802	-22.36
311.016	65.71
311.23	12.46
311.444	2.22
311.658	51.37
311.872	59.56
312.085	43.18
312.299	59.56
312.513	67.75
312.727	41.13
312.941	16.55
313.154	10.41
313.368	26.79
313.582	57.51
313.796	30.89
314.009	96.43
314.223	92.33
314.437	55.47
314.651	47.27
314.864	10.41
315.078	73.9
315.292	-51.03
315.505	55.47
315.719	47.27
315.933	51.37
316.146	55.47
316.36	-32.6
316.573	-3.93
316.787	51.37
317.001	67.75
317.214	4.27
317.428	8.36
317.641	2.22
317.855	41.13
318.068	84.14
318.282	77.99
318.495	92.33
318.709	16.55
318.922	-48.98
319.136	49.32
319.349	92.33
319.563	51.37
319.776	6.31
319.99	67.75
320.203	51.37
320.417	45.23
320.63	-8.02
320.843	22.7
321.057	32.94
321.27	30.89
321.483	73.9
321.697	65.71
321.91	53.42
322.124	47.27
322.337	47.27
322.55	47.27
322.763	45.23
322.977	24.75
323.19	61.61
323.403	34.99
323.617	2.22
323.83	178.34
324.043	20.65
324.256	45.23
324.469	92.33
324.683	135.34
324.896	-16.21
325.109	61.61
325.322	-1.88
325.535	88.23
325.748	59.56
325.962	67.75
326.175	8.36
326.388	39.08
326.601	92.33
326.814	32.94
327.027	67.75
327.24	176.3
327.453	-53.08
327.666	47.27
327.879	2.22
328.092	110.76
328.305	49.32
328.518	-12.12
328.731	80.04
328.944	45.23
329.157	51.37
329.37	75.95
329.583	-12.12
329.796	28.84
330.009	22.7
330.222	28.84
330.435	2.22
330.648	2.22
330.861	14.51
331.073	34.99
331.286	-1.88
331.499	92.33
331.712	-1.88
331.925	49.32
332.138	53.42
332.35	-26.45
332.563	34.99
332.776	43.18
332.989	-10.07
333.202	32.94
333.414	80.04
333.627	59.56
333.84	49.32
334.053	-12.12
334.265	47.27
334.478	82.09
334.691	45.23
334.903	24.75
335.116	121
335.329	26.79
335.541	22.7
335.754	-18.26
335.966	0.17
336.179	28.84
336.392	61.61
336.604	32.94
336.817	121
337.029	22.7
337.242	39.08
337.454	55.47
337.667	-22.36
337.88	96.43
338.092	82.09
338.305	0.17
338.517	30.89
338.729	6.31
338.942	20.65
339.154	65.71
339.367	37.03
339.579	88.23
339.792	8.36
340.004	96.43
340.217	43.18
340.429	82.09
340.641	30.89
340.854	108.71
341.066	26.79
341.278	86.19
341.491	127.14
341.703	28.84
341.915	-44.88
342.128	28.84
342.34	67.75
342.552	-14.17
342.764	53.42
342.977	51.37
343.189	47.27
343.401	73.9
343.613	6.31
343.826	39.08
344.038	6.31
344.25	16.55
344.462	32.94
344.674	10.41
344.886	82.09
345.099	67.75
345.311	67.75
345.523	-14.17
345.735	-5.97
345.947	71.85
346.159	34.99
346.371	129.19
346.583	22.7
346.795	61.61
347.007	55.47
347.219	34.99
347.431	65.71
347.643	10.41
347.855	43.18
348.067	14.51
348.279	-1.88
348.491	98.47
348.703	84.14
348.915	63.66
349.127	47.27
349.339	96.43
349.551	26.79
349.763	39.08
349.975	53.42
350.187	92.33
350.399	4.27
350.61	67.75
350.822	-20.31
351.034	73.9
351.246	-42.84
351.458	82.09
351.669	32.94
351.881	47.27
352.093	-14.17
352.305	88.23
352.517	45.23
352.728	16.55
352.94	34.99
353.152	39.08
353.363	57.51
353.575	43.18
353.787	43.18
353.999	-16.21
354.21	110.76
354.422	28.84
354.633	51.37
354.845	43.18
355.057	20.65
355.268	43.18
355.48	43.18
355.692	22.7
355.903	61.61
356.115	88.23
356.326	2.22
356.538	18.6
356.749	90.28
356.961	39.08
357.172	118.95
357.384	51.37
357.595	61.61
357.807	55.47
358.018	73.9
358.23	75.95
358.441	26.79
358.653	67.75
358.864	14.51
359.075	12.46
359.287	92.33
359.498	110.76
359.709	-30.55
359.921	51.37
360.132	51.37
360.344	55.47
360.555	28.84
360.766	90.28
360.977	8.36
361.189	63.66
361.4	116.9
361.611	71.85
361.823	2.22
362.034	67.75
362.245	67.75
362.456	-30.55
362.667	63.66
362.879	39.08
363.09	51.37
363.301	14.51
363.512	59.56
363.723	41.13
363.935	77.99
364.146	43.18
364.357	73.9
364.568	94.38
364.779	43.18
364.99	53.42
365.201	45.23
365.412	-12.12
365.623	-26.45
365.834	71.85
366.045	-14.17
366.256	69.8
366.467	49.32
366.678	71.85
366.889	59.56
367.1	63.66
367.311	129.19
367.522	39.08
367.733	75.95
367.944	102.57
368.155	-3.93
368.366	18.6
368.577	37.03
368.788	69.8
368.999	16.55
369.209	-14.17
369.42	14.51
369.631	43.18
369.842	41.13
370.053	34.99
370.264	28.84
370.474	84.14
370.685	28.84
370.896	57.51
371.107	34.99
371.317	67.75
371.528	127.14
371.739	14.51
371.95	71.85
372.16	49.32
372.371	63.66
372.582	37.03
372.792	41.13
373.003	18.6
373.214	18.6
373.424	84.14
373.635	39.08
373.846	141.48
374.056	104.62
374.267	43.18
374.477	41.13
374.688	94.38
374.898	30.89
375.109	65.71
375.319	88.23
375.53	37.03
375.74	71.85
375.951	2.22
376.161	63.66
376.372	61.61
376.582	75.95
376.793	14.51
377.003	37.03
377.214	86.19
377.424	116.9
377.635	63.66
377.845	65.71
378.055	92.33
378.266	59.56
378.476	131.24
378.686	125.1
378.897	18.6
379.107	43.18
379.317	67.75
379.528	90.28
379.738	77.99
379.948	-12.12
380.158	147.62
380.369	47.27
380.579	26.79
380.789	59.56
380.999	41.13
381.21	98.47
381.42	30.89
381.63	32.94
381.84	51.37
382.05	84.14
382.261	75.95
382.471	106.67
382.681	69.8
382.891	139.43
383.101	86.19
383.311	8.36
383.521	24.75
383.731	4.27
383.941	57.51
384.151	84.14
384.361	108.71
384.571	14.51
384.781	114.86
384.991	43.18
385.201	125.1
385.411	114.86
385.621	53.42
385.831	41.13
386.041	51.37
386.251	59.56
386.461	-5.97
386.671	-46.93
386.881	80.04
387.091	34.99
387.301	98.47
387.511	129.19
387.72	51.37
387.93	51.37
388.14	123.05
388.35	-10.07
388.56	96.43
388.769	77.99
388.979	57.51
389.189	-55.12
389.399	127.14
389.609	96.43
389.818	114.86
390.028	16.55
390.238	133.29
390.447	4.27
390.657	59.56
390.867	73.9
391.076	32.94
391.286	82.09
391.496	88.23
391.705	45.23
391.915	82.09
392.125	67.75
392.334	133.29
392.544	-42.84
392.753	88.23
392.963	90.28
393.172	80.04
393.382	67.75
393.591	147.62
393.801	75.95
394.01	100.52
394.22	80.04
394.429	98.47
394.639	77.99
394.848	55.47
395.058	67.75
395.267	55.47
395.477	90.28
395.686	88.23
395.895	213.16
396.105	178.34
396.314	164.01
396.524	147.62
396.733	149.67
396.942	125.1
397.152	174.25
397.361	137.38
397.57	157.86
397.78	55.47
397.989	86.19
398.198	100.52
398.407	22.7
398.617	133.29
398.826	94.38
399.035	59.56
399.244	110.76
399.453	123.05
399.663	88.23
399.872	157.86
400.081	133.29
400.29	194.73
400.499	157.86
400.708	84.14
400.917	141.48
401.127	174.25
401.336	196.78
401.545	235.69
401.754	190.63
401.963	127.14
402.172	100.52
402.381	123.05
402.59	133.29
402.799	133.29
403.008	149.67
403.217	149.67
403.426	151.72
403.635	161.96
403.844	194.73
404.053	125.1
404.262	207.02
404.471	256.17
404.68	170.15
404.888	153.77
405.097	207.02
405.306	133.29
405.515	131.24
405.724	225.45
405.933	182.44
406.142	254.12
406.35	297.13
406.559	227.5
406.768	149.67
406.977	247.97
407.185	164.01
407.394	213.16
407.603	288.93
407.812	282.79
408.02	245.93
408.229	223.4
408.438	194.73
408.646	331.94
408.855	295.08
409.064	346.28
409.272	315.56
409.481	346.28
409.69	362.66
409.898	313.51
410.107	387.24
410.315	397.48
410.524	366.76
410.733	460.96
410.941	491.68
411.15	520.35
411.358	485.54
411.567	456.87
411.775	477.35
411.984	530.59
412.192	606.37
412.401	608.42
412.609	628.9
412.818	546.98
413.026	589.99
413.234	616.61
413.443	649.38
413.651	700.58
413.86	647.33
414.068	753.82
414.276	741.54
414.485	798.88
414.693	821.41
414.901	864.41
415.11	903.32
415.318	903.32
415.526	854.17
415.734	907.42
415.943	1013.92
416.151	989.34
416.359	1046.68
416.567	1099.93
416.776	1151.13
416.984	1204.38
417.192	1165.46
417.4	1169.56
417.608	1267.86
417.817	1294.49
418.025	1341.59
418.233	1487
418.441	1534.1
418.649	1523.86
418.857	1654.93
419.065	1663.12
419.273	1642.64
419.481	1689.74
419.689	1841.29
419.897	1980.56
420.105	1937.55
420.313	1892.49
420.521	2015.37
420.729	2074.76
420.937	2211.98
421.145	2197.64
421.353	2273.42
421.561	2420.87
421.769	2498.69
421.977	2660.48
422.185	2627.71
422.393	2721.92
422.601	2992.25
422.809	2926.72
423.017	2945.15
423.224	3074.17
423.432	3082.36
423.64	3127.42
423.848	3393.65
424.056	3336.31
424.263	3713.14
424.471	3643.51
424.679	3676.27
424.887	3836.02
425.094	3993.71
425.302	4055.15
425.51	4210.79
425.718	4325.48
425.925	4239.47
426.133	4487.27
426.341	4827.23
426.548	4980.83
426.756	5101.66
426.964	5105.76
427.171	5335.13
427.379	5597.27
427.586	5546.07
427.794	5920.85
428.001	6226
428.209	6266.96
428.417	6217.8
428.624	6697.03
428.832	6735.94
429.039	6625.35
429.247	6703.17
429.454	7362.62
429.662	7630.9
429.869	7184.45
430.076	7802.93
430.284	7491.64
430.491	7686.2
430.699	8235.05
430.906	8271.92
431.114	8448.04
431.321	8888.36
431.528	8884.26
431.736	9420.83
431.943	9975.83
432.15	9580.57
432.358	9818.13
432.565	10264.59
432.772	10170.38
432.979	10782.73
433.187	11012.1
433.394	10795.01
433.601	11841.53
433.808	11753.46
434.016	11794.42
434.223	12204.02
434.43	12949.48
434.637	12523.5
434.844	13283.3
435.052	13817.82
435.259	13598.68
435.466	13553.63
435.673	13516.76
435.88	14385.1
436.087	15126.47
436.294	15470.53
436.501	14950.34
436.708	15368.13
436.915	15882.17
437.122	16105.4
437.329	16215.99
437.537	16752.56
437.743	17252.26
437.95	16924.58
438.157	18124.69
438.364	18464.66
438.571	18470.8
438.778	18591.63
438.985	20346.74
439.192	19494.79
439.399	20039.54
439.606	19644.29
439.813	20856.68
440.02	22126.43
440.227	21589.86
440.433	21475.17
440.64	22407
440.847	21942.11
441.054	22462.29
441.261	23998.27
441.467	23920.45
441.674	24401.72
441.881	25218.86
442.088	25089.84
442.294	24745.78
442.501	25509.67
442.708	26013.47
442.914	27098.89
443.121	28231.42
443.328	27520.77
443.534	29548.26
443.741	28780.28
443.948	28096.25
444.154	30461.66
444.361	30156.51
444.568	30254.81
444.774	30400.22
444.981	30691.03
445.187	31405.77
445.394	32652.98
445.6	32466.62
445.807	35645.07
446.013	33840.81
446.22	34625.18
446.426	36138.63
446.633	36318.85
446.839	37287.54
447.046	35942.02
447.252	37834.35
447.459	37789.29
447.665	37725.8
447.871	39413.33
448.078	41029.18
448.284	38854.23
448.491	39818.83
448.697	41627.18
448.903	42413.6
449.11	42325.54
449.316	41756.21
449.522	42249.77
449.728	43388.44
449.935	44062.22
450.141	43744.78
450.347	44803.58
450.553	43509.27
450.76	44086.79
450.966	45424.12
451.172	44711.42
451.378	46271.98
451.584	44920.32
451.791	46075.37
451.997	46116.33
452.203	46949.85
452.409	46577.12
452.615	46757.35
452.821	44629.51
453.027	44801.54
453.233	46820.83
453.44	45090.3
453.646	45585.91
453.852	45772.27
454.058	46097.9
454.264	44785.15
454.47	45872.62
454.676	44281.35
454.882	45776.37
455.088	42227.24
455.294	42909.21
455.5	43834.89
455.705	43943.44
455.911	41803.31
456.117	41762.35
456.323	40885.82
456.529	38618.72
456.735	40439.36
456.941	39374.42
457.147	38825.56
457.352	37725.8
457.558	37424.75
457.764	37140.08
457.97	36458.11
458.176	35753.61
458.381	35794.57
458.587	34070.18
458.793	34082.47
458.999	32308.93
459.204	34332.32
459.41	33724.07
459.616	31477.45
459.821	31078.1
460.027	31483.59
460.233	30904.02
460.438	29392.62
460.644	29830.88
460.85	27950.85
461.055	27772.67
461.261	27741.96
461.466	25777.95
461.672	24954.67
461.878	26603.28
462.083	25057.07
462.289	24766.26
462.494	24135.48
462.7	23238.47
462.905	22415.19
463.111	23658.31
463.316	23273.29
463.522	22576.98
463.727	22906.7
463.932	22867.79
464.138	22548.31
464.343	22634.32
464.549	22107.99
464.754	22654.8
464.959	22480.72
465.165	22185.82
465.37	21716.83
465.575	20879.21
465.781	21696.35
465.986	21868.38
466.191	20909.93
466.397	20344.69
466.602	19363.72
466.807	20320.12
467.012	20311.92
467.218	20373.36
467.423	20107.13
467.628	20309.88
467.833	21194.6
468.038	20297.59
468.244	19433.35
468.449	20322.16
468.654	19844.99
468.859	19810.17
469.064	19527.55
469.269	18726.8
469.474	18956.17
469.679	19341.19
469.885	18694.03
470.09	18974.6
470.295	18964.36
470.5	18352.02
470.705	18519.95
470.91	18130.84
471.115	17899.42
471.32	18296.72
471.525	17932.19
471.73	17520.54
471.935	17655.71
472.139	17049.51
472.344	17090.47
472.549	17170.34
472.754	16848.81
472.959	16388.02
473.164	16146.36
473.369	16228.28
473.574	16725.93
473.778	16089.01
473.983	16297.91
474.188	15830.97
474.393	15484.86
474.598	15560.64
474.802	15267.78
475.007	15120.32
475.212	15196.1
475.417	14757.83
475.621	14788.55
475.826	14817.22
476.031	14507.98
476.235	14426.06
476.44	14424.01
476.645	14159.83
476.849	14073.81
477.054	13842.39
477.259	13653.98
477.463	13729.75
477.668	13498.33
477.872	13684.7
478.077	13156.32
478.282	12871.65
478.486	13062.12
478.691	12832.74
478.895	12750.82
479.1	12777.45
479.304	12810.22
479.509	12423.15
479.713	12636.14
479.918	12486.64
480.122	12111.86
480.326	12425.2
480.531	12494.83
480.735	12261.36
480.94	12113.91
481.144	12468.2
481.348	11857.91
481.553	12097.52
481.757	11792.37
481.961	11872.25
482.166	12234.74
482.37	11835.38
482.574	11687.93
482.778	11634.68
482.983	11988.98
483.187	11870.2
483.391	11921.4
483.595	11616.25
483.8	11646.97
484.004	11872.25
484.208	11741.18
484.412	11706.36
484.616	11720.7
484.821	11845.62
485.025	11565.05
485.229	11950.07
485.433	11687.93
485.637	11677.69
485.841	11726.84
486.045	11816.95
486.249	11634.68
486.453	11591.67
486.657	11960.31
486.861	11577.34
487.065	11438.08
487.269	11704.31
487.473	11581.43
487.677	11737.08
487.881	11823.09
488.085	11726.84
488.289	11655.16
488.493	11796.47
488.697	11915.25
488.901	11950.07
489.105	11603.96
489.309	11941.88
489.512	11796.47
489.716	11888.63
489.92	12023.8
490.124	11853.81
490.328	12103.67
490.531	11937.78
490.735	12068.85
490.939	12077.04
491.143	12044.27
491.346	11775.99
491.55	12115.95
491.754	12126.19
491.958	12206.06
492.161	12050.42
492.365	12357.61
492.569	12185.58
492.772	12185.58
492.976	12410.86
493.18	12304.37
493.383	12666.86
493.587	12621.8
493.79	12910.57
493.994	12849.13
494.197	12802.02
494.401	12763.11
494.605	12881.89
494.808	12965.86
495.012	13064.16
495.215	13205.47
495.419	13357.02
495.622	13352.93
495.825	13328.35
496.029	13455.33
496.232	13901.78
496.436	13748.18
496.639	14225.36
496.843	14000.09
497.046	14051.28
497.249	14303.18
497.453	14401.49
497.656	14624.72
497.859	14366.67
498.063	14876.62
498.266	15077.32
498.469	15019.97
498.673	15304.64
498.876	15390.66
499.079	15708.09
499.282	15691.71
499.485	16084.92
499.689	15980.47
499.892	16500.65
500.095	16185.27
500.298	17156
500.501	16695.21
500.705	16906.15
500.908	17143.72
501.111	17151.91
501.314	17344.42
501.517	17479.58
501.72	17921.95
501.923	17862.55
502.126	18450.32
502.329	18732.94
502.532	18497.42
502.735	18472.85
502.938	18960.27
503.141	19130.25
503.344	19400.58
503.547	19357.57
503.75	19574.66
503.953	19976.06
504.156	20162.42
504.359	20234.1
504.562	20268.92
504.765	20787.05
504.968	21364.58
505.17	21206.89
505.373	21311.33
505.576	21739.36
505.779	21718.88
505.982	22163.29
506.185	22720.34
506.387	22169.43
506.59	22718.29
506.793	22925.13
506.996	22933.32
507.198	23842.62
507.401	23615.3
507.604	23801.66
507.807	24026.94
508.009	24457.01
508.212	24543.03
508.415	24694.58
508.617	25112.36
508.82	25308.97
509.022	25110.32
509.225	25925.41
509.428	25896.74
509.63	26199.83
509.833	26216.22
510.035	26887.95
510.238	26324.76
510.44	26851.09
510.643	27385.61
510.845	27596.55
511.048	27401.99
511.25	28102.4
511.453	28374.78
511.655	29126.38
511.858	28608.25
512.06	28987.12
512.262	29163.25
512.465	29255.4
512.667	29646.57
512.87	30519
513.072	30314.2
513.274	30877.4
513.477	30731.99
513.679	30953.17
513.881	31270.61
514.084	31403.72
514.286	31456.97
514.488	31899.33
514.69	32896.69
514.893	32706.23
515.095	32601.79
515.297	33224.37
515.499	33177.26
515.701	34025.12
515.904	33840.81
516.106	34205.34
516.308	34176.67
516.51	35120.79
516.712	34684.57
516.914	34942.61
517.116	35571.34
517.318	35661.45
517.52	36056.71
517.722	36281.99
517.925	36587.13
518.127	36955.77
518.329	37213.81
518.531	36697.72
518.733	37547.63
518.935	38028.9
519.136	37805.67
519.338	38452.83
519.54	38434.4
519.742	39200.34
519.944	38991.45
520.146	39728.72
520.348	39536.21
520.55	39927.37
520.752	40031.82
520.954	40937.02
521.155	40289.86
521.357	40994.36
521.559	41154.1
521.761	41772.59
521.963	41786.93
522.164	41623.09
522.366	42198.57
522.568	42110.5
522.77	42563.11
522.971	43613.71
523.173	42612.26
523.375	43294.23
523.576	43474.45
523.778	43290.13
523.98	43904.52
524.181	43998.73
524.383	44084.75
524.584	44578.31
524.786	44688.9
524.988	44297.73
525.189	44740.1
525.391	44965.37
525.592	45346.29
525.794	45583.86
525.995	45526.52
526.197	45252.09
526.398	45389.3
526.6	46005.74
526.801	46124.52
527.003	46296.55
527.204	45975.02
527.406	46372.33
527.607	46945.76
527.808	46951.9
528.01	46161.39
528.211	46806.5
528.412	47603.16
528.614	47177.18
528.815	47162.84
529.016	47672.79
529.218	47255
529.419	47511
529.62	47623.64
529.822	47472.09
530.023	47435.22
530.224	47664.6
530.425	47572.44
530.626	47863.25
530.828	47361.5
531.029	48739.78
531.23	47500.76
531.431	48037.33
531.632	47766.99
531.833	48510.41
532.035	47906.26
532.236	48037.33
532.437	48405.96
532.638	48172.49
532.839	48459.21
533.04	48582.09
533.241	48106.96
533.442	49012.16
533.643	48342.47
533.844	48303.56
534.045	48676.29
534.246	48328.14
534.447	49016.25
534.648	48344.52
534.849	48729.54
535.05	48512.45
535.251	48395.72
535.451	48379.34
535.652	48639.43
535.853	48434.63
536.054	48768.45
536.255	48680.39
536.456	48311.75
536.657	48946.62
536.857	48041.42
537.058	48166.35
537.259	48639.43
537.46	48573.89
537.66	48520.65
537.861	48674.24
538.062	48100.81
538.263	48840.13
538.463	47830.48
538.664	48489.93
538.865	48676.29
539.065	48866.75
539.266	48334.28
539.466	48872.9
539.667	48115.15
539.868	48190.92
540.068	48373.19
540.269	48278.99
540.469	48797.12
540.67	48041.42
540.87	48049.61
541.071	48186.83
541.271	48698.82
541.472	48489.93
541.672	48240.07
541.873	47779.28
542.073	47490.52
542.274	48475.59
542.474	48164.3
542.675	48115.15
542.875	48729.54
543.075	48109
543.276	48057.81
543.476	48561.61
543.676	47748.56
543.877	48401.86
544.077	48324.04
544.277	48137.68
544.478	47930.83
544.678	48584.13
544.878	48020.94
545.078	48272.84
545.279	47775.19
545.479	47873.49
545.679	48354.76
545.879	47838.67
546.079	48047.57
546.28	47965.65
546.48	47312.34
546.68	47787.47
546.88	48395.72
547.08	48139.72
547.28	47904.21
547.48	47513.05
547.68	48115.15
547.88	47566.29
548.081	48295.37
548.281	47773.14
548.481	47525.33
548.681	48090.57
548.881	47873.49
549.081	47601.11
549.28	47588.82
549.48	47904.21
549.68	47539.67
549.88	48094.67
550.08	47148.51
550.28	47814.1
550.48	47549.91
550.68	47934.93
550.88	47162.84
551.08	47713.75
551.279	47584.72
551.479	47060.44
551.679	47394.26
551.879	47328.73
552.079	47574.48
552.278	47664.6
552.478	47529.43
552.678	47621.59
552.878	47511
553.077	47578.58
553.277	46368.23
553.477	47711.7
553.676	47197.66
553.876	47054.3
554.076	46902.75
554.275	47148.51
554.475	46454.25
554.674	46919.13
554.874	46939.61
555.074	46927.33
555.273	47357.4
555.473	47037.92
555.672	46847.46
555.872	47005.15
556.071	46882.27
556.271	46986.72
556.47	46783.97
556.67	46433.77
556.869	46667.23
557.068	46855.65
557.268	46411.24
557.467	46677.47
557.667	46405.09
557.866	46792.16
558.065	46415.33
558.265	46411.24
558.464	46286.31
558.663	46876.13
558.863	45821.42
559.062	47042.01
559.261	45833.71
559.461	46605.8
559.66	45706.74
559.859	46239.21
560.058	45889.01
560.258	46079.47
560.457	45229.56
560.656	46286.31
560.855	45929.97
561.054	45876.72
561.253	45311.48
561.453	45862.38
561.652	45958.64
561.851	45497.84
562.05	45229.56
562.249	45307.38
562.448	45297.14
562.647	45678.07
562.846	45250.04
563.045	45323.77
563.244	44846.59
563.443	45082.11
563.642	44912.13
563.841	45137.4
564.04	44903.93
564.239	45075.96
564.438	44144.14
564.637	44756.48
564.836	44981.76
565.035	44701.18
565.234	44656.13
565.432	44367.37
565.631	44232.2
565.83	44658.18
566.029	44314.12
566.228	43820.56
566.427	44004.88
566.625	44025.35
566.824	43650.58
567.023	44183.05
567.222	43329.05
567.42	44269.06
567.619	44119.56
567.818	43669.01
568.016	43515.41
568.215	43892.24
568.414	42876.44
568.612	43679.25
568.811	43363.86
569.01	43619.86
569.208	42860.06
569.407	43501.07
569.605	42470.95
569.804	43421.2
570.002	42548.77
570.201	42808.86
570.4	42552.87
570.598	42325.54
570.797	42380.84
570.995	42444.32
571.193	42073.64
571.392	43015.71
571.59	41973.29
571.789	42147.37
571.987	41872.94
572.186	41739.82
572.384	41731.63
572.582	42024.49
572.781	41983.53
572.979	41092.66
573.177	41582.13
573.376	41782.83
573.574	41066.04
573.772	41860.65
573.971	41371.19
574.169	41203.25
574.367	40724.03
574.565	41385.52
574.763	41125.43
574.962	40799.8
575.16	40310.34
575.358	40918.59
575.556	40410.69
575.754	40918.59
575.952	40312.39
576.151	40523.33
576.349	40113.73
576.547	40427.07
576.745	40363.59
576.943	40253
577.141	40029.77
577.339	39960.14
577.537	39300.69
577.735	39923.27
577.933	39448.14
578.131	39784.01
578.329	39751.24
578.527	39009.88
578.725	39331.41
578.923	39493.2
579.121	39409.23
579.319	39192.15
579.516	39046.74
579.714	38477.41
579.912	38407.78
580.11	38848.09
580.308	38565.47
580.506	38743.64
580.704	37936.74
580.901	38461.02
581.099	38542.94
581.297	38049.38
581.495	37693.04
581.692	38534.75
581.89	37711.47
582.088	37854.83
582.285	37686.89
582.483	37879.4
582.681	37580.4
582.878	37379.7
583.076	36963.96
583.274	37492.33
583.471	36738.68
583.669	37367.41
583.866	36814.46
584.064	37133.94
584.262	36806.27
584.459	36771.45
584.657	37174.9
584.854	36710.01
585.052	36081.28
585.249	36712.06
585.447	36490.88
585.644	35892.87
585.841	36173.44
586.039	36357.76
586.236	36009.61
586.434	35868.3
586.631	35720.84
586.828	35643.02
587.026	35616.4
587.223	35589.77
587.42	35288.72
587.618	35851.91
587.815	35200.66
588.012	35294.86
588.21	34862.74
588.407	35301.01
588.604	34797.21
588.801	34559.64
588.999	34987.67
589.196	34352.8
589.393	34600.6
589.59	34313.89
589.787	34580.12
589.984	34156.19
590.182	34029.22
590.379	34129.57
590.576	34039.46
590.773	33914.53
590.97	33679.02
591.167	34057.89
591.364	33343.15
591.561	33717.93
591.758	33318.57
591.955	33242.8
592.152	33187.5
592.349	32849.59
592.546	32976.56
592.743	33126.07
592.94	32640.7
593.137	32845.49
593.334	32884.4
593.531	32634.55
593.727	32622.26
593.924	32655.03
594.121	31878.85
594.318	32640.7
594.515	32038.59
594.712	32519.87
594.908	31903.43
595.105	32544.44
595.302	31829.7
595.499	32167.62
595.696	31704.77
595.892	31248.08
596.089	31567.56
596.286	31551.18
596.482	31231.69
596.679	31332.04
596.876	31375.05
597.072	31182.54
597.269	30867.16
597.466	30729.94
597.662	30932.69
597.859	31049.42
598.055	30377.69
598.252	30428.89
598.448	30701.27
598.645	30527.19
598.841	30066.4
599.038	30222.05
599.234	30054.11
599.431	29968.1
599.627	29626.09
599.824	30117.6
600.02	29478.63
600.217	29925.09
600.413	29658.85
600.609	29478.63
600.806	29357.8
601.002	29394.67
601.198	29140.72
601.395	28978.93
601.591	29355.75
601.787	28802.8
601.984	28829.43
602.18	29122.29
602.376	29007.6
602.572	28493.56
602.769	28634.87
602.965	28309.24
603.161	28559.09
603.357	28159.74
603.553	28428.02
603.75	28086.01
603.946	28206.84
604.142	28225.28
604.338	27760.39
604.534	28124.93
604.73	27488.01
604.926	27565.83
605.122	27825.92
605.318	27135.76
605.514	27295.5
605.71	27275.02
605.906	27266.83
606.102	27254.54
606.298	27379.46
606.494	27070.22
606.69	27371.27
606.886	26937.1
607.082	26717.97
607.278	27047.69
607.474	26586.9
607.67	26937.1
607.866	26300.19
608.062	26740.5
608.257	26324.76
608.453	26449.69
608.649	26742.55
608.845	26150.68
609.041	26517.27
609.236	26068.76
609.432	25880.35
609.628	26279.71
609.824	26027.81
610.019	25992.99
610.215	25728.8
610.411	25935.65
610.606	25648.93
610.802	25927.46
610.998	25485.09
611.193	25866.02
611.389	25702.18
611.584	25716.51
611.78	25618.21
611.976	25556.77
612.171	25556.77
612.367	25524.01
612.562	25194.28
612.758	24670
612.953	24936.24
613.149	25724.71
613.344	25149.23
613.539	25257.77
613.735	25020.2
613.93	25286.44
614.126	25302.82
614.321	25323.3
614.517	25067.31
614.712	24827.7
614.907	24727.35
615.103	24737.59
615.298	24604.47
615.493	25141.04
615.688	24448.82
615.884	24809.26
616.079	24293.18
616.274	24583.99
616.47	24854.32
616.665	24631.09
616.86	24330.04
617.055	24350.52
617.25	24198.97
617.445	24414.01
617.641	24028.99
617.836	24426.29
618.031	24117.05
618.226	24272.7
618.421	23656.26
618.616	24237.88
618.811	23695.17
619.006	24244.02
619.201	23555.91
619.396	23586.63
619.591	23340.87
619.786	23652.16
619.981	23121.74
620.176	23486.28
620.371	22802.25
620.566	23062.35
620.761	23072.59
620.956	22974.28
621.151	22679.38
621.346	22865.74
621.541	22564.69
621.735	22746.96
621.93	22083.42
622.125	22597.46
622.32	21782.37
622.515	22318.93
622.709	21917.53
622.904	21854.05
623.099	21682.02
623.294	21782.37
623.488	21106.54
623.683	21567.33
623.878	20813.68
624.072	21241.7
624.267	21395.3
624.462	20891.5
624.656	20588.4
624.851	20756.33
625.046	20473.71
625.24	20541.3
625.435	20522.87
625.629	20371.32
625.824	20293.49
626.018	20172.66
626.213	19586.94
626.407	20047.74
626.602	19734.4
626.796	19734.4
626.991	19715.97
627.185	19701.63
627.38	19255.17
627.574	18995.08
627.768	19251.08
627.963	18755.47
628.157	18843.53
628.352	18702.22
628.546	18818.96
628.74	18659.21
628.935	18458.51
629.129	18417.55
629.323	18139.03
629.517	18392.98
629.712	18175.89
629.906	18071.45
630.1	17977.24
630.294	18026.39
630.489	17758.11
630.683	17950.62
630.877	17307.55
631.071	17385.38
631.265	17368.99
631.459	17469.34
631.653	17414.05
631.848	17121.19
632.042	16979.88
632.236	17076.13
632.43	16773.03
632.624	16828.33
632.818	16508.85
633.012	16687.02
633.206	16637.87
633.4	16732.08
633.594	16330.67
633.788	16414.64
633.982	16263.09
634.176	16226.23
634.369	16023.48
634.563	15775.67
634.757	15542.21
634.951	15890.36
635.145	15824.83
635.339	15937.46
635.533	15480.77
635.726	15439.81
635.92	15081.41
636.114	15296.45
636.308	15398.85
636.501	15157.19
636.695	15122.37
636.889	14950.34
637.083	14981.06
637.276	15081.41
637.47	14913.48
637.664	14487.5
637.857	14788.55
638.051	14585.8
638.244	14585.8
638.438	14469.07
638.632	14356.43
638.825	14378.96
639.019	14063.57
639.212	13864.92
639.406	14120.92
639.599	13936.6
639.793	13914.07
639.986	13660.12
640.18	13826.01
640.373	13819.86
640.567	13625.31
640.76	13408.22
640.954	13242.34
641.147	13492.19
641.34	13254.62
641.534	13350.88
641.727	13260.77
641.92	13252.58
642.114	13053.92
642.307	13082.6
642.5	13107.17
642.694	12775.4
642.887	12668.91
643.08	12777.45
643.273	12808.17
643.467	12421.1
643.66	12576.75
643.853	12625.9
644.046	12296.18
644.239	12298.22
644.432	12279.79
644.626	12339.18
644.819	12316.65
645.012	12339.18
645.205	12064.75
645.398	11925.49
645.591	11902.97
645.784	11855.86
645.977	11618.3
646.17	11710.46
646.363	11726.84
646.556	11606.01
646.749	11573.24
646.942	11538.43
647.135	11425.79
647.328	11575.29
647.521	11364.35
647.714	11331.58
647.907	11300.86
648.099	11276.29
648.292	10928.13
648.485	10919.94
648.678	10946.56
648.871	10735.62
649.064	10633.22
649.256	10784.77
649.449	10635.27
649.642	10954.76
649.835	10592.27
650.027	10641.42
650.22	10553.35
650.413	10350.6
650.605	10373.13
650.798	10151.95
650.991	10416.14
651.183	10164.24
651.376	10248.21
651.568	10080.27
651.761	10037.27
651.954	9805.85
652.146	10022.93
652.339	9975.83
652.531	9967.63
652.724	9834.52
652.916	9711.64
653.109	9609.24
653.301	9482.27
653.494	9586.71
653.686	9463.83
653.879	9723.93
654.071	9435.16
654.263	9232.41
654.456	9488.41
654.648	9383.96
654.84	9361.44
655.033	9259.04
655.225	9168.93
655.417	8900.64
655.61	9023.52
655.802	9084.96
655.994	8945.7
656.186	8882.21
656.379	8745
656.571	8992.8
656.763	8720.42
656.955	8456.23
657.148	8779.81
657.34	8697.89
657.532	8613.93
657.724	8730.66
657.916	8460.33
658.108	8579.11
658.3	8427.56
658.492	8441.9
658.684	8267.82
658.876	8341.55
659.068	8210.48
659.26	8202.29
659.452	8271.92
659.644	8329.26
659.836	7987.25
660.028	7901.23
660.22	7919.67
660.412	8001.58
660.604	7876.66
660.796	7958.58
660.988	7747.64
661.18	7854.13
661.372	7690.29
661.563	7737.4
661.755	7823.41
661.947	7813.17
662.139	7802.93
662.331	7589.94
662.522	7327.8
662.714	7678.01
662.906	7536.7
663.097	7307.32
663.289	7311.42
663.481	7243.84
663.673	7419.96
663.864	7383.1
664.056	7051.33
664.247	7211.07
664.439	6981.7
664.631	7034.94
664.822	7041.09
665.014	7114.81
665.205	6912.07
665.397	7061.57
665.588	6895.68
665.78	6936.64
665.971	6887.49
666.163	6948.93
666.354	6729.8
666.546	6656.07
666.737	6711.36
666.929	6678.6
667.12	6789.19
667.311	6619.21
667.503	6592.58
667.694	6762.56
667.885	6408.26
668.077	6500.42
668.268	6406.22
668.459	6365.26
668.651	6457.42
668.842	6330.44
669.033	6305.87
669.224	6250.57
669.416	6309.96
669.607	6269
669.798	6029.39
669.989	6221.9
670.18	6221.9
670.371	6105.17
670.563	5920.85
670.754	6101.07
670.945	6088.78
671.136	5875.79
671.327	6121.55
671.518	5750.87
671.709	5802.07
671.9	5980.24
672.091	5982.29
672.282	5767.25
672.473	5793.87
672.664	5949.52
672.855	5769.3
673.046	5744.72
673.237	5759.06
673.428	5615.7
673.619	5705.81
673.809	5656.66
674	5781.59
674.191	5560.41
674.382	5584.98
674.573	5539.93
674.764	5505.11
674.954	5537.88
675.145	5384.28
675.336	5589.08
675.527	5462.1
675.717	5367.9
675.908	5392.47
676.099	5425.24
676.289	5515.35
676.48	5490.77
676.671	5165.15
676.861	5228.63
677.052	5324.89
677.243	5318.75
677.433	5070.94
677.624	5281.88
677.814	5146.72
678.005	5318.75
678.195	5148.76
678.386	5222.49
678.576	5130.33
678.767	4978.78
678.957	5064.8
679.148	5105.76
679.338	5097.56
679.529	5093.47
679.719	5003.36
679.909	5068.89
680.1	5050.46
680.29	5077.09
680.481	4991.07
680.671	4874.34
680.861	4978.78
681.052	4866.14
681.242	4769.89
681.432	4833.38
681.622	4751.46
681.813	4868.19
682.003	4827.23
682.193	4571.24
682.383	4919.39
682.573	4903.01
682.764	4737.12
682.954	4759.65
683.144	4722.79
683.334	4808.8
683.524	4692.07
683.714	4515.94
683.904	4610.15
684.094	4612.2
684.284	4606.05
684.474	4624.48
684.664	4593.76
684.854	4687.97
685.044	4515.94
685.234	4550.76
685.424	4442.21
685.614	4380.78
685.804	4462.69
685.994	4454.5
686.184	4522.09
686.374	4376.68
686.564	4442.21
686.753	4401.26
686.943	4204.65
687.133	4423.78
687.323	4245.61
687.513	4261.99
687.702	4184.17
687.892	4302.95
688.082	4202.6
688.272	4178.03
688.461	4165.74
688.651	4161.64
688.841	4102.25
689.03	4042.86
689.22	3983.47
689.41	3983.47
689.599	4073.58
689.789	4055.15
689.979	4044.91
690.168	3971.18
690.358	3946.61
690.547	3932.27
690.737	4016.24
690.926	4073.58
691.116	3815.54
691.305	4044.91
691.495	3917.93
691.684	3805.3
691.874	3772.53
692.063	3829.87
692.252	3797.1
692.442	3776.63
692.631	3655.79
692.82	3768.43
693.01	3672.18
693.199	3684.47
693.388	3657.84
693.578	3491.96
693.767	3623.03
693.956	3668.08
694.146	3545.2
694.335	3534.96
694.524	3426.42
694.713	3477.62
694.902	3467.38
695.092	3481.72
695.281	3410.04
695.47	3401.85
695.659	3508.34
695.848	3491.96
696.037	3313.78
696.226	3289.21
696.415	3401.85
696.604	3344.5
696.793	3410.04
696.982	3391.61
697.171	3283.06
697.36	3393.65
697.549	3319.93
697.738	3313.78
697.927	3313.78
698.116	3209.34
698.305	3147.9
698.494	3149.95
698.683	3199.1
698.872	3074.17
699.061	3135.61
699.25	3317.88
699.438	3084.41
699.627	3215.48
699.816	3238.01
700.005	3135.61
700.193	3147.9
700.382	3016.83
700.571	3031.16
700.76	3010.68
700.948	3108.99
701.137	2963.58
701.326	3065.98
701.514	3057.79
701.703	3063.93
701.892	2959.49
702.08	3096.7
702.269	3100.8
702.457	2963.58
702.646	3027.07
702.834	3080.32
703.023	3104.89
703.212	2947.2
703.4	2994.3
703.589	2871.42
703.777	3061.88
703.965	2887.81
704.154	3088.51
704.342	2896
704.531	2967.68
704.719	2967.68
704.907	3057.79
705.096	2967.68
705.284	3098.75
705.472	2982.01
705.661	3002.49
705.849	2941.05
706.037	2871.42
706.226	2857.09
706.414	2902.14
706.602	2865.28
706.79	2863.23
706.979	2877.57
707.167	2889.85
707.355	2795.65
707.543	2762.88
707.731	2924.67
707.919	2967.68
708.107	2893.95
708.296	2824.32
708.484	2805.89
708.672	2975.87
708.86	2799.74
709.048	2844.8
709.236	2836.61
709.424	2846.85
709.612	2777.22
709.8	2873.47
709.988	2783.36
710.176	2764.93
710.364	2838.66
710.551	2803.84
710.739	2801.79
710.927	2943.1
711.115	2859.14
711.303	2867.33
711.491	2881.66
711.679	2726.02
711.866	2902.14
712.054	2738.3
712.242	2674.82
712.43	2816.13
712.617	2707.59
712.805	2807.94
712.993	2781.31
713.181	2717.83
713.368	2748.54
713.556	2840.7
713.744	2877.57
713.931	2795.65
714.119	2771.07
714.306	2914.43
714.494	2889.85
714.682	2830.46
714.869	2664.58
715.057	2848.9
715.244	2680.96
715.432	2750.59
715.619	2871.42
715.807	2871.42
715.994	2850.94
716.182	2685.06
716.369	2680.96
716.556	2807.94
716.744	2812.03
716.931	2676.87
717.119	2871.42
717.306	2691.2
717.493	2793.6
717.681	2750.59
717.868	2648.19
718.055	2801.79
718.242	2836.61
718.43	2803.84
718.617	2742.4
718.804	2762.88
718.991	2678.91
719.179	2803.84
719.366	2861.18
719.553	2656.39
719.74	2787.46
719.927	2832.51
720.114	2648.19
720.301	2685.06
720.488	2662.53
720.676	2676.87
720.863	2648.19
721.05	2779.26
721.237	2803.84
721.424	2646.15
721.611	2842.75
721.798	2746.5
721.985	2709.63
722.172	2666.63
722.358	2805.89
722.545	2826.37
722.732	2666.63
722.919	2705.54
723.106	2615.43
723.293	2730.11
723.48	2631.81
723.667	2809.98
723.853	2601.09
724.04	2666.63
724.227	2744.45
724.414	2713.73
724.6	2680.96
724.787	2728.07
724.974	2611.33
725.161	2594.95
725.347	2707.59
725.534	2570.37
725.72	2717.83
725.907	2635.91
726.094	2726.02
726.28	2660.48
726.467	2762.88
726.653	2617.47
726.84	2771.07
727.027	2652.29
727.213	2771.07
727.4	2713.73
727.586	2689.15
727.773	2771.07
727.959	2568.32
728.145	2721.92
728.332	2742.4
728.518	2594.95
728.705	2775.17
728.891	2660.48
729.077	2582.66
729.264	2635.91
729.45	2564.23
729.636	2687.11
729.823	2672.77
730.009	2631.81
730.195	2728.07
730.382	2611.33
730.568	2531.46
730.754	2617.47
730.94	2558.08
731.126	2695.3
731.313	2670.72
731.499	2791.55
731.685	2588.8
731.871	2629.76
732.057	2631.81
732.243	2623.62
732.429	2642.05
732.615	2648.19
732.801	2656.39
732.987	2562.18
733.173	2654.34
733.359	2586.76
733.545	2564.23
733.731	2560.13
733.917	2508.93
734.103	2521.22
734.289	2553.99
734.475	2695.3
734.661	2652.29
734.847	2515.08
735.033	2525.32
735.219	2443.4
735.404	2545.8
735.59	2592.9
735.776	2504.84
735.962	2482.31
736.148	2586.76
736.333	2506.88
736.519	2631.81
736.705	2508.93
736.89	2484.36
737.076	2515.08
737.262	2547.84
737.447	2535.56
737.633	2435.21
737.819	2322.57
738.004	2422.92
738.19	2379.91
738.375	2441.35
738.561	2470.02
738.747	2508.93
738.932	2441.35
739.118	2605.19
739.303	2443.4
739.489	2498.69
739.674	2465.93
739.859	2457.73
740.045	2506.88
740.23	2373.77
740.416	2433.16
740.601	2402.44
740.786	2297.99
740.972	2349.19
741.157	2326.66
741.342	2392.2
741.528	2277.51
741.713	2400.39
741.898	2363.53
742.084	2404.49
742.269	2279.56
742.454	2271.37
742.639	2338.95
742.824	2291.85
743.01	2228.36
743.195	2318.47
743.38	2119.82
743.565	2283.66
743.75	2236.55
743.935	2093.19
744.12	2214.02
744.305	2187.4
744.49	2168.97
744.675	2115.72
744.86	2146.44
745.045	2183.31
745.23	2123.91
745.415	2205.83
745.6	2132.11
745.785	2074.76
745.97	2074.76
746.155	2031.76
746.34	2056.33
746.525	2039.95
746.71	2132.11
746.895	2035.85
747.079	2119.82
747.264	2001.04
747.449	2115.72
747.634	2140.3
747.819	2033.8
748.003	1910.93
748.188	1865.87
748.373	1972.36
748.557	2007.18
748.742	1929.36
748.927	1953.93
749.111	1826.96
749.296	1906.83
749.481	1867.92
749.665	1923.21
749.85	1843.34
750.034	1953.93
750.219	1874.06
750.404	1792.14
750.588	1847.44
750.773	1841.29
750.957	1730.7
751.141	1738.9
751.326	1882.25
751.51	1753.23
751.695	1751.18
751.879	1730.7
752.064	1712.27
752.248	1753.23
752.432	1720.46
752.617	1659.03
752.801	1759.38
752.985	1589.39
753.17	1648.79
753.354	1683.6
753.538	1665.17
753.722	1687.7
753.907	1570.96
754.091	1550.48
754.275	1560.72
754.459	1552.53
754.643	1495.19
754.828	1452.18
755.012	1583.25
755.196	1570.96
755.38	1622.16
755.564	1384.6
755.748	1460.37
755.932	1560.72
756.116	1372.31
756.3	1384.6
756.484	1507.48
756.668	1493.14
756.852	1427.6
757.036	1476.76
757.22	1396.89
757.404	1452.18
757.588	1374.36
757.772	1372.31
757.956	1407.13
758.14	1327.25
758.323	1452.18
758.507	1355.93
758.691	1357.97
758.875	1382.55
759.059	1396.89
759.242	1349.78
759.426	1243.29
759.61	1341.59
759.794	1341.59
759.977	1292.44
760.161	1325.21
760.345	1278.1
760.528	1267.86
760.712	1280.15
760.895	1247.38
761.079	1155.23
761.263	1231
761.446	1185.94
761.63	1284.25
761.813	1218.71
761.997	1251.48
762.18	1136.79
762.364	1120.41
762.547	1116.31
762.731	1122.46
762.914	1276.06
763.098	1177.75
763.281	1138.84
763.464	1149.08
763.648	1167.51
763.831	1044.63
764.015	1112.22
764.198	1124.51
764.381	1169.56
764.564	1179.8
764.748	1065.11
764.931	1083.55
765.114	1030.3
765.297	1128.6
765.481	1132.7
765.664	1165.46
765.847	1183.9
766.03	1132.7
766.213	1044.63
766.397	1095.83
766.58	1026.2
766.763	1151.13
766.946	1079.45
767.129	1056.92
767.312	1054.87
767.495	1077.4
767.678	1030.3
767.861	1116.31
768.044	1018.01
768.227	1013.92
768.41	1114.27
768.593	1032.35
768.776	989.34
768.959	956.57
769.142	1044.63
769.324	934.04
769.507	1024.16
769.69	1009.82
769.873	960.67
770.056	997.53
770.239	1009.82
770.421	1015.96
770.604	1009.82
770.787	946.33
770.97	929.95
771.152	1001.63
771.335	966.81
771.518	934.04
771.7	876.7
771.883	950.43
772.066	845.98
772.248	888.99
772.431	960.67
772.613	944.28
772.796	821.41
772.978	907.42
773.161	927.9
773.343	952.48
773.526	907.42
773.708	843.93
773.891	878.75
774.073	759.97
774.256	858.27
774.438	993.44
774.621	839.84
774.803	831.65
774.985	759.97
775.168	823.45
775.35	821.41
775.532	858.27
775.715	809.12
775.897	780.45
776.079	805.02
776.261	811.17
776.444	850.08
776.626	815.26
776.808	823.45
776.99	796.83
777.173	729.25
777.355	737.44
777.537	757.92
777.719	757.92
777.901	735.39
778.083	798.88
778.265	737.44
778.447	741.54
778.629	688.29
778.811	661.66
778.993	594.08
779.175	669.86
779.357	710.82
779.539	676
779.721	653.47
779.903	735.39
780.085	649.38
780.267	690.34
780.449	702.62
780.631	733.34
780.812	694.43
780.994	637.09
781.176	624.8
781.358	628.9
781.54	618.66
781.721	583.84
781.903	616.61
782.085	606.37
782.267	620.71
782.448	661.66
782.63	620.71
782.812	600.23
782.993	587.94
783.175	604.32
783.357	583.84
783.538	546.98
783.72	585.89
783.901	495.78
784.083	571.55
784.264	600.23
784.446	520.35
784.627	553.12
784.809	553.12
784.99	600.23
785.172	506.02
785.353	458.92
785.535	483.49
785.716	575.65
785.897	526.5
786.079	559.27
786.26	532.64
786.441	600.23
786.623	497.83
786.804	516.26
786.985	534.69
787.167	477.35
787.348	546.98
787.529	524.45
787.71	534.69
787.891	534.69
788.073	403.62
788.254	385.19
788.435	506.02
788.616	528.55
788.797	409.76
788.978	471.2
789.159	434.34
789.34	424.1
789.522	424.1
789.703	424.1
789.884	387.24
790.065	467.11
790.246	389.28
790.427	454.82
790.607	368.81
790.788	442.53
790.969	409.76
791.15	426.15
791.331	370.85
791.512	413.86
791.693	387.24
791.874	342.18
792.054	430.24
792.235	352.42
792.416	395.43
792.597	411.81
792.778	362.66
792.958	446.63
793.139	327.85
793.32	344.23
793.5	391.33
793.681	370.85
793.862	354.47
794.042	317.61
794.223	348.33
794.404	309.41
794.584	272.55
794.765	301.22
794.945	305.32
795.126	397.48
795.306	422.05
795.487	352.42
795.667	280.74
795.848	340.13
796.028	370.85
796.209	352.42
796.389	247.97
796.57	393.38
796.75	266.41
796.93	280.74
797.111	315.56
797.291	293.03
797.471	327.85
797.652	346.28
797.832	329.89
798.012	311.46
798.192	331.94
798.373	319.65
798.553	295.08
798.733	333.99
798.913	280.74
799.093	264.36
799.274	252.07
799.454	313.51
799.634	356.52
799.814	311.46
799.994	270.5
800.174	290.98
800.354	268.45
800.534	264.36
800.714	239.78
800.894	280.74
801.074	247.97
801.254	260.26
801.434	254.12
801.614	217.26
801.794	346.28
801.974	604.32
802.154	172.2
802.334	293.03
802.514	256.17
802.693	229.54
802.873	196.78
803.053	317.61
803.233	336.04
803.413	247.97
803.592	299.17
803.772	235.69
803.952	321.7
804.131	202.92
804.311	237.74
804.491	282.79
804.67	233.64
804.85	239.78
805.03	178.34
805.209	211.11
805.389	225.45
805.568	221.35
805.748	180.39
805.928	192.68
806.107	260.26
806.287	153.77
806.466	268.45
806.646	250.02
806.825	207.02
807.004	235.69
807.184	231.59
807.363	280.74
807.543	282.79
807.722	207.02
807.901	200.87
808.081	219.3
808.26	133.29
808.439	276.65
808.619	184.49
808.798	207.02
808.977	215.21
809.156	221.35
809.336	176.3
809.515	180.39
809.694	174.25
809.873	153.77
810.052	178.34
810.231	176.3
810.411	198.82
810.59	245.93
810.769	129.19
810.948	145.58
811.127	92.33
811.306	288.93
811.485	151.72
811.664	209.06
811.843	188.58
812.022	198.82
812.201	268.45
812.38	182.44
812.559	161.96
812.737	237.74
812.916	170.15
813.095	219.3
813.274	276.65
813.453	153.77
813.632	149.67
813.811	157.86
813.989	190.63
814.168	198.82
814.347	133.29
814.526	131.24
814.704	196.78
814.883	196.78
815.062	157.86
815.24	170.15
815.419	161.96
815.598	168.1
815.776	84.14
815.955	139.43
816.133	215.21
816.312	123.05
816.49	135.34
816.669	149.67
816.847	143.53
817.026	104.62
817.204	108.71
817.383	172.2
817.561	118.95
817.74	145.58
817.918	90.28
818.097	127.14
818.275	190.63
818.453	104.62
818.632	127.14
818.81	145.58
818.988	106.67
819.167	182.44
819.345	129.19
819.523	86.19
819.701	114.86
819.879	168.1
820.058	145.58
820.236	102.57
820.414	92.33
820.592	155.82
820.77	77.99
820.948	198.82
821.127	123.05
821.305	104.62
821.483	100.52
821.661	137.38
821.839	166.06
822.017	94.38
822.195	116.9
822.373	178.34
822.551	141.48
822.729	104.62
822.907	121
823.085	75.95
823.262	100.52
823.44	75.95
823.618	108.71
823.796	100.52
823.974	133.29
824.152	147.62
824.329	141.48
824.507	137.38
824.685	114.86
824.863	98.47
825.04	229.54
825.218	141.48
825.396	123.05
825.574	118.95
825.751	125.1
825.929	153.77
826.107	112.81
826.284	82.09
826.462	108.71
826.639	32.94
826.817	92.33
826.994	149.67
827.172	137.38
827.349	98.47
827.527	102.57
827.704	141.48
827.882	121
828.059	73.9
828.237	137.38
828.414	182.44
828.591	28.84
828.769	65.71
828.946	139.43
829.124	45.23
829.301	43.18
829.478	88.23
829.655	102.57
829.833	86.19
830.01	63.66
830.187	65.71
830.364	102.57
830.542	45.23
830.719	135.34
830.896	184.49
831.073	133.29
831.25	174.25
831.427	116.9
831.604	75.95
831.782	131.24
831.959	55.47
832.136	106.67
832.313	104.62
832.49	112.81
832.667	110.76
832.844	37.03
833.021	174.25
833.198	30.89
833.374	63.66
833.551	30.89
833.728	73.9
833.905	125.1
834.082	90.28
834.259	98.47
834.436	149.67
834.612	108.71
834.789	133.29
834.966	141.48
835.143	67.75
835.319	32.94
835.496	77.99
835.673	106.67
835.85	118.95
836.026	82.09
836.203	59.56
836.38	121
836.556	12.46
836.733	116.9
836.909	-3.93
837.086	129.19
837.262	49.32
837.439	108.71
837.616	-8.02
837.792	73.9
837.968	133.29
838.145	41.13
838.321	18.6
838.498	112.81
838.674	96.43
838.851	123.05
839.027	8.36
839.203	88.23
839.38	137.38
839.556	73.9
839.732	77.99
839.909	26.79
840.085	137.38
840.261	53.42
840.437	67.75
840.614	47.27
840.79	47.27
840.966	59.56
841.142	100.52
841.318	55.47
841.494	98.47
841.671	-1.88
841.847	32.94
842.023	2.22
842.199	73.9
842.375	129.19
842.551	39.08
842.727	114.86
842.903	39.08
843.079	57.51
843.255	47.27
843.431	22.7
843.607	145.58
843.783	108.71
843.959	88.23
844.134	100.52
844.31	112.81
844.486	0.17
844.662	116.9
844.838	102.57
845.013	121
845.189	43.18
845.365	133.29
845.541	57.51
845.716	39.08
845.892	116.9
846.068	2.22
846.244	65.71
846.419	14.51
846.595	51.37
846.77	-26.45
846.946	67.75
847.122	37.03
847.297	-26.45
847.473	67.75
847.648	114.86
847.824	51.37
847.999	82.09
848.175	63.66
848.35	116.9
848.526	96.43
848.701	57.51
848.876	108.71
849.052	24.75
849.227	22.7
849.403	8.36
849.578	28.84
849.753	75.95
849.929	28.84
850.104	4.27
850.279	139.43
850.454	-24.4
850.63	30.89
850.805	10.41
850.98	57.51
851.155	16.55
851.33	37.03
851.505	18.6
851.681	8.36
851.856	-14.17
852.031	55.47
852.206	32.94
852.381	53.42
852.556	47.27
852.731	57.51
852.906	34.99
853.081	88.23
853.256	-22.36
853.431	59.56
853.606	-1.88
853.781	18.6
853.956	24.75
854.131	34.99
854.305	32.94
854.48	86.19
854.655	-1.88
854.83	55.47
855.005	49.32
855.18	92.33
855.354	22.7
855.529	75.95
855.704	-30.55
855.879	108.71
856.053	34.99
856.228	39.08
856.403	12.46
856.577	118.95
856.752	32.94
856.926	39.08
857.101	10.41
857.276	26.79
857.45	24.75
857.625	118.95
857.799	59.56
857.974	18.6
858.148	26.79
858.323	-28.5
858.497	59.56
858.672	67.75
858.846	-67.41
859.02	43.18
859.195	-44.88
859.369	69.8
859.543	-20.31
859.718	59.56
859.892	51.37
860.066	53.42
860.241	34.99
860.415	10.41
860.589	92.33
860.763	57.51
860.938	28.84
861.112	30.89
861.286	-24.4
861.46	-3.93
861.634	14.51
861.808	32.94
861.982	14.51
862.157	71.85
862.331	41.13
862.505	34.99
862.679	-20.31
862.853	2.22
863.027	30.89
863.201	-8.02
863.375	32.94
863.549	22.7
863.722	18.6
863.896	37.03
864.07	47.27
864.244	59.56
864.418	-12.12
864.592	-22.36
864.766	-3.93
864.939	20.65
865.113	30.89
865.287	47.27
865.461	37.03
865.634	39.08
865.808	2.22
865.982	32.94
866.156	-28.5
866.329	41.13
866.503	4.27
866.676	39.08
866.85	-36.69
867.024	8.36
867.197	37.03
867.371	-22.36
867.544	2.22
867.718	61.61
867.891	22.7
868.065	49.32
868.238	-12.12
868.412	6.31
868.585	100.52
868.759	-8.02
868.932	92.33
869.105	-14.17
869.279	41.13
869.452	20.65
869.625	53.42
869.799	12.46
869.972	30.89
870.145	12.46
870.319	-3.93
870.492	41.13
870.665	30.89
870.838	-18.26
871.011	73.9
871.185	4.27
871.358	8.36
871.531	34.99
871.704	82.09
871.877	55.47
872.05	51.37
872.223	37.03
872.396	39.08
872.569	14.51
872.742	59.56
872.915	-16.21
873.088	-40.79
873.261	-63.32
873.434	-8.02
873.607	55.47
873.78	-30.55
873.953	-32.6
874.126	-53.08
874.299	43.18
874.471	51.37
874.644	28.84
874.817	26.79
874.99	14.51
875.163	32.94
875.335	0.17
875.508	20.65
875.681	24.75
875.853	-16.21
876.026	121
876.199	-28.5
876.371	55.47
876.544	-18.26
876.717	8.36
876.889	-32.6
877.062	53.42
877.234	-18.26
877.407	10.41
877.579	43.18
877.752	-5.97
877.924	-5.97
878.097	-10.07
878.269	-36.69
878.442	30.89
878.614	55.47
878.786	104.62
878.959	12.46
879.131	10.41
879.303	-63.32
879.476	24.75
879.648	49.32
879.82	-48.98
879.993	41.13
880.165	-12.12
880.337	41.13
880.509	-53.08
880.681	-18.26
880.854	-85.84
881.026	10.41
881.198	-20.31
881.37	49.32
881.542	32.94
881.714	49.32
881.886	39.08
882.058	-51.03
882.23	6.31
882.402	4.27
882.574	77.99
882.746	49.32
882.918	39.08
883.09	24.75
883.262	0.17
883.434	-5.97
883.606	57.51
883.778	4.27
883.95	55.47
884.122	10.41
884.293	-5.97
884.465	-5.97
884.637	-26.45
884.809	-22.36
884.98	-36.69
885.152	28.84
885.324	77.99
885.496	49.32
885.667	-40.79
885.839	0.17
886.011	-8.02
886.182	49.32
886.354	73.9
886.525	-18.26
886.697	6.31
886.869	-18.26
887.04	37.03
887.212	-5.97
887.383	47.27
887.555	49.32
887.726	-42.84
887.897	-32.6
888.069	-3.93
888.24	-10.07
888.412	8.36
888.583	6.31
888.754	59.56
888.926	-14.17
889.097	8.36
889.268	-16.21
889.44	-24.4
889.611	-38.74
889.782	59.56
889.953	-26.45
890.125	-36.69
890.296	-22.36
890.467	-40.79
890.638	16.55
890.809	-18.26
890.98	20.65
891.151	20.65
891.323	16.55
891.494	2.22
891.665	39.08
891.836	-3.93
892.007	28.84
892.178	67.75
892.349	61.61
892.52	-3.93
892.691	-5.97
892.862	-12.12
893.032	-63.32
893.203	63.66
893.374	-1.88
893.545	2.22
893.716	0.17
893.887	45.23
894.057	4.27
894.228	32.94
894.399	30.89
894.57	8.36
894.74	6.31
894.911	69.8
895.082	-1.88
895.253	24.75
895.423	26.79
895.594	0.17
895.764	-32.6
895.935	-22.36
896.106	41.13
896.276	-16.21
896.447	16.55
896.617	34.99
896.788	51.37
896.958	47.27
897.129	41.13
897.299	22.7
897.47	28.84
897.64	16.55
897.81	6.31
897.981	14.51
898.151	22.7
898.322	30.89
898.492	-18.26
898.662	28.84
898.832	-30.55
899.003	28.84
899.173	-34.64
899.343	-8.02
899.513	30.89
