Data from USB4F104151__59__11-37-22-641.txt Node

Date: Fri Mar 14 11:37:22 EDT 2025
User: louis
Spectrometer: USB4F10415
Trigger mode: 4
Integration Time (sec): 2.000000E-2
Scans to average: 1
Electric dark correction enabled: true
Nonlinearity correction enabled: false
Boxcar width: 0
XAxis mode: Wavelengths
Number of Pixels in Spectrum: 3648
>>>>>Begin Spectral Data<<<<<
178.204	-68.44
178.424	-68.44
178.644	-68.44
178.864	-105.3
179.084	-111.44
179.304	29.87
179.524	25.77
179.744	-9.05
179.964	21.67
180.184	21.67
180.404	23.72
180.624	-37.72
180.844	21.67
181.064	-37.72
181.283	-23.38
181.503	19.63
181.723	-56.15
181.943	-29.52
182.163	3.24
182.383	27.82
182.602	-19.29
182.822	48.3
183.042	13.48
183.262	9.39
183.482	-17.24
183.701	-21.33
183.921	38.06
184.141	-47.96
184.361	83.11
184.58	-15.19
184.8	52.39
185.02	-37.72
185.239	56.49
185.459	-47.96
185.679	-35.67
185.898	-19.29
186.118	54.44
186.338	-25.43
186.557	-47.96
186.777	-2.9
186.997	3.24
187.216	29.87
187.436	-2.9
187.655	-21.33
187.875	68.78
188.095	-37.72
188.314	17.58
188.534	-27.48
188.753	-15.19
188.973	-7
189.192	89.26
189.412	29.87
189.631	27.82
189.851	52.39
190.07	7.34
190.29	-74.58
190.509	-7
190.729	-7
190.948	31.91
191.168	54.44
191.387	107.69
191.607	-33.62
191.826	44.2
192.045	-15.19
192.265	64.68
192.484	60.59
192.704	-23.38
192.923	50.35
193.142	56.49
193.362	17.58
193.581	54.44
193.8	9.39
194.02	21.67
194.239	13.48
194.458	-21.33
194.678	-37.72
194.897	7.34
195.116	31.91
195.335	-4.95
195.555	-17.24
195.774	-45.91
195.993	-60.24
196.212	11.43
196.432	29.87
196.651	-31.57
196.87	27.82
197.089	13.48
197.308	-27.48
197.528	11.43
197.747	15.53
197.966	25.77
198.185	-31.57
198.404	-31.57
198.623	-2.9
198.842	58.54
199.062	21.67
199.281	11.43
199.5	-17.24
199.719	99.5
199.938	122.02
200.157	44.2
200.376	21.67
200.595	1.19
200.814	44.2
201.033	29.87
201.252	3.24
201.471	-29.52
201.69	5.29
201.909	42.15
202.128	29.87
202.347	-9.05
202.566	76.97
202.785	13.48
203.004	-82.77
203.223	33.96
203.442	-35.67
203.661	31.91
203.879	56.49
204.098	-31.57
204.317	-52.05
204.536	21.67
204.755	31.91
204.974	48.3
205.193	7.34
205.411	19.63
205.63	-0.85
205.849	-19.29
206.068	-4.95
206.287	-27.48
206.505	-60.24
206.724	-68.44
206.943	-19.29
207.162	-86.87
207.381	5.29
207.599	42.15
207.818	5.29
208.037	1.19
208.255	13.48
208.474	7.34
208.693	33.96
208.911	3.24
209.13	72.87
209.349	1.19
209.567	19.63
209.786	54.44
210.005	1.19
210.223	66.73
210.442	44.2
210.661	103.59
210.879	-45.91
211.098	19.63
211.316	17.58
211.535	44.2
211.753	-52.05
211.972	62.63
212.191	-21.33
212.409	31.91
212.628	1.19
212.846	1.19
213.065	27.82
213.283	7.34
213.502	46.25
213.72	13.48
213.938	40.11
214.157	7.34
214.375	-21.33
214.594	-35.67
214.812	50.35
215.031	7.34
215.249	44.2
215.467	-17.24
215.686	29.87
215.904	74.92
216.122	-33.62
216.341	68.78
216.559	38.06
216.778	54.44
216.996	-4.95
217.214	15.53
217.432	-23.38
217.651	72.87
217.869	23.72
218.087	-2.9
218.306	-7
218.524	25.77
218.742	5.29
218.96	-50
219.179	-39.76
219.397	3.24
219.615	36.01
219.833	-31.57
220.051	48.3
220.27	54.44
220.488	1.19
220.706	-41.81
220.924	11.43
221.142	13.48
221.36	-56.15
221.578	-50
221.796	64.68
222.015	-7
222.233	42.15
222.451	50.35
222.669	25.77
222.887	36.01
223.105	5.29
223.323	58.54
223.541	-43.86
223.759	1.19
223.977	1.19
224.195	50.35
224.413	33.96
224.631	1.19
224.849	70.83
225.067	42.15
225.285	-31.57
225.503	66.73
225.721	40.11
225.939	-27.48
226.157	-25.43
226.375	136.36
226.592	33.96
226.81	27.82
227.028	5.29
227.246	23.72
227.464	33.96
227.682	3.24
227.9	5.29
228.117	15.53
228.335	-39.76
228.553	29.87
228.771	-15.19
228.989	17.58
229.206	38.06
229.424	17.58
229.642	-9.05
229.86	40.11
230.077	46.25
230.295	33.96
230.513	23.72
230.731	54.44
230.948	76.97
231.166	27.82
231.384	-54.1
231.601	19.63
231.819	29.87
232.037	-31.57
232.254	-62.29
232.472	31.91
232.689	-29.52
232.907	17.58
233.125	-29.52
233.342	-52.05
233.56	7.34
233.777	50.35
233.995	29.87
234.213	68.78
234.43	52.39
234.648	56.49
234.865	-21.33
235.083	29.87
235.3	38.06
235.518	27.82
235.735	50.35
235.953	46.25
236.17	-37.72
236.388	66.73
236.605	9.39
236.822	33.96
237.04	19.63
237.257	54.44
237.475	68.78
237.692	3.24
237.909	44.2
238.127	-17.24
238.344	1.19
238.562	1.19
238.779	-27.48
238.996	-41.81
239.214	3.24
239.431	48.3
239.648	-19.29
239.865	7.34
240.083	-4.95
240.3	62.63
240.517	9.39
240.735	46.25
240.952	17.58
241.169	17.58
241.386	5.29
241.603	-2.9
241.821	3.24
242.038	42.15
242.255	-11.09
242.472	50.35
242.689	105.64
242.907	38.06
243.124	40.11
243.341	-17.24
243.558	-33.62
243.775	-4.95
243.992	-25.43
244.209	46.25
244.426	60.59
244.643	-7
244.86	56.49
245.078	44.2
245.295	21.67
245.512	52.39
245.729	-52.05
245.946	44.2
246.163	42.15
246.38	54.44
246.597	-21.33
246.814	87.21
247.031	17.58
247.248	-23.38
247.464	-58.2
247.681	17.58
247.898	-50
248.115	-2.9
248.332	-43.86
248.549	21.67
248.766	60.59
248.983	19.63
249.2	-13.14
249.417	-11.09
249.633	15.53
249.85	48.3
250.067	9.39
250.284	19.63
250.501	46.25
250.717	11.43
250.934	-29.52
251.151	-27.48
251.368	-2.9
251.585	40.11
251.801	46.25
252.018	60.59
252.235	19.63
252.451	21.67
252.668	60.59
252.885	-9.05
253.102	9.39
253.318	17.58
253.535	-86.87
253.752	15.53
253.968	3.24
254.185	-29.52
254.401	95.4
254.618	74.92
254.835	19.63
255.051	-27.48
255.268	27.82
255.484	21.67
255.701	-21.33
255.917	62.63
256.134	9.39
256.351	44.2
256.567	-47.96
256.784	91.31
257	46.25
257.217	99.5
257.433	-56.15
257.65	17.58
257.866	83.11
258.082	-11.09
258.299	13.48
258.515	68.78
258.732	46.25
258.948	11.43
259.165	-2.9
259.381	52.39
259.597	36.01
259.814	62.63
260.03	66.73
260.246	3.24
260.463	-23.38
260.679	60.59
260.895	66.73
261.112	-15.19
261.328	13.48
261.544	3.24
261.761	1.19
261.977	-23.38
262.193	1.19
262.409	-27.48
262.626	38.06
262.842	62.63
263.058	33.96
263.274	-29.52
263.49	70.83
263.707	70.83
263.923	9.39
264.139	-66.39
264.355	48.3
264.571	21.67
264.787	-31.57
265.004	-21.33
265.22	48.3
265.436	29.87
265.652	-39.76
265.868	-15.19
266.084	-15.19
266.3	-45.91
266.516	-15.19
266.732	9.39
266.948	27.82
267.164	29.87
267.38	21.67
267.596	19.63
267.812	95.4
268.028	52.39
268.244	27.82
268.46	-13.14
268.676	-43.86
268.892	56.49
269.108	52.39
269.324	3.24
269.54	9.39
269.756	85.16
269.972	-11.09
270.188	25.77
270.403	25.77
270.619	50.35
270.835	-50
271.051	74.92
271.267	13.48
271.483	11.43
271.698	48.3
271.914	44.2
272.13	15.53
272.346	46.25
272.562	29.87
272.777	13.48
272.993	56.49
273.209	-7
273.425	5.29
273.64	-4.95
273.856	62.63
274.072	15.53
274.287	-19.29
274.503	-15.19
274.719	66.73
274.934	44.2
275.15	38.06
275.366	-4.95
275.581	-4.95
275.797	81.07
276.012	27.82
276.228	-4.95
276.444	-0.85
276.659	-13.14
276.875	-45.91
277.09	36.01
277.306	-7
277.521	97.45
277.737	27.82
277.952	-13.14
278.168	21.67
278.383	95.4
278.599	-23.38
278.814	99.5
279.03	-7
279.245	21.67
279.461	38.06
279.676	36.01
279.892	5.29
280.107	-39.76
280.322	-29.52
280.538	-35.67
280.753	29.87
280.969	21.67
281.184	17.58
281.399	25.77
281.615	25.77
281.83	33.96
282.045	5.29
282.26	-9.05
282.476	85.16
282.691	91.31
282.906	42.15
283.122	38.06
283.337	-21.33
283.552	89.26
283.767	-0.85
283.983	-35.67
284.198	-2.9
284.413	11.43
284.628	-35.67
284.843	17.58
285.058	-17.24
285.274	-7
285.489	-86.87
285.704	-0.85
285.919	-62.29
286.134	11.43
286.349	-68.44
286.564	17.58
286.779	-23.38
286.995	1.19
287.21	42.15
287.425	76.97
287.64	21.67
287.855	76.97
288.07	1.19
288.285	31.91
288.5	9.39
288.715	33.96
288.93	9.39
289.145	-2.9
289.36	56.49
289.575	38.06
289.79	9.39
290.004	-9.05
290.219	-17.24
290.434	40.11
290.649	5.29
290.864	-13.14
291.079	36.01
291.294	50.35
291.509	-4.95
291.724	76.97
291.938	-13.14
292.153	66.73
292.368	42.15
292.583	89.26
292.798	44.2
293.012	38.06
293.227	-33.62
293.442	27.82
293.657	7.34
293.871	-31.57
294.086	1.19
294.301	52.39
294.516	29.87
294.73	-2.9
294.945	-9.05
295.16	66.73
295.374	-2.9
295.589	60.59
295.804	15.53
296.018	-13.14
296.233	-17.24
296.447	25.77
296.662	-39.76
296.877	17.58
297.091	17.58
297.306	31.91
297.52	5.29
297.735	81.07
297.949	46.25
298.164	54.44
298.378	40.11
298.593	3.24
298.807	50.35
299.022	23.72
299.236	-19.29
299.451	-23.38
299.665	29.87
299.88	-43.86
300.094	15.53
300.309	19.63
300.523	81.07
300.737	74.92
300.952	99.5
301.166	23.72
301.381	3.24
301.595	46.25
301.809	25.77
302.024	1.19
302.238	17.58
302.452	23.72
302.667	13.48
302.881	1.19
303.095	40.11
303.309	29.87
303.524	-66.39
303.738	-0.85
303.952	17.58
304.166	-11.09
304.381	-19.29
304.595	46.25
304.809	11.43
305.023	99.5
305.237	-66.39
305.452	46.25
305.666	29.87
305.88	-35.67
306.094	-45.91
306.308	79.02
306.522	-31.57
306.736	5.29
306.95	33.96
307.164	33.96
307.379	-0.85
307.593	62.63
307.807	36.01
308.021	1.19
308.235	-27.48
308.449	19.63
308.663	46.25
308.877	38.06
309.091	-45.91
309.305	83.11
309.519	-43.86
309.733	54.44
309.947	60.59
310.161	42.15
310.374	52.39
310.588	64.68
310.802	-19.29
311.016	38.06
311.23	66.73
311.444	1.19
311.658	1.19
311.872	33.96
312.085	60.59
312.299	38.06
312.513	62.63
312.727	27.82
312.941	87.21
313.154	-31.57
313.368	27.82
313.582	19.63
313.796	9.39
314.009	13.48
314.223	-21.33
314.437	1.19
314.651	11.43
314.864	-31.57
315.078	29.87
315.292	44.2
315.505	74.92
315.719	103.59
315.933	101.55
316.146	15.53
316.36	-21.33
316.573	97.45
316.787	9.39
317.001	56.49
317.214	33.96
317.428	36.01
317.641	74.92
317.855	27.82
318.068	-27.48
318.282	60.59
318.495	83.11
318.709	36.01
318.922	19.63
319.136	17.58
319.349	72.87
319.563	-9.05
319.776	-33.62
319.99	62.63
320.203	31.91
320.417	58.54
320.63	95.4
320.843	46.25
321.057	42.15
321.27	-15.19
321.483	58.54
321.697	-17.24
321.91	-60.24
322.124	87.21
322.337	-9.05
322.55	-64.34
322.763	-23.38
322.977	33.96
323.19	21.67
323.403	-11.09
323.617	-4.95
323.83	68.78
324.043	-15.19
324.256	5.29
324.469	-21.33
324.683	91.31
324.896	79.02
325.109	-25.43
325.322	1.19
325.535	33.96
325.748	38.06
325.962	29.87
326.175	15.53
326.388	58.54
326.601	-11.09
326.814	42.15
327.027	40.11
327.24	-7
327.453	21.67
327.666	40.11
327.879	38.06
328.092	44.2
328.305	95.4
328.518	31.91
328.731	29.87
328.944	17.58
329.157	23.72
329.37	31.91
329.583	70.83
329.796	54.44
330.009	15.53
330.222	79.02
330.435	70.83
330.648	38.06
330.861	-33.62
331.073	13.48
331.286	17.58
331.499	5.29
331.712	119.98
331.925	29.87
332.138	-17.24
332.35	85.16
332.563	70.83
332.776	66.73
332.989	74.92
333.202	13.48
333.414	36.01
333.627	-7
333.84	25.77
334.053	-45.91
334.265	25.77
334.478	3.24
334.691	31.91
334.903	-25.43
335.116	27.82
335.329	54.44
335.541	-11.09
335.754	-41.81
335.966	81.07
336.179	-2.9
336.392	23.72
336.604	31.91
336.817	64.68
337.029	29.87
337.242	21.67
337.454	-2.9
337.667	21.67
337.88	62.63
338.092	23.72
338.305	68.78
338.517	5.29
338.729	101.55
338.942	27.82
339.154	-27.48
339.367	11.43
339.579	9.39
339.792	60.59
340.004	21.67
340.217	62.63
340.429	-0.85
340.641	29.87
340.854	62.63
341.066	36.01
341.278	31.91
341.491	97.45
341.703	27.82
341.915	29.87
342.128	-13.14
342.34	48.3
342.552	29.87
342.764	13.48
342.977	-13.14
343.189	-58.2
343.401	148.65
343.613	21.67
343.826	66.73
344.038	-78.68
344.25	29.87
344.462	-29.52
344.674	17.58
344.886	23.72
345.099	-27.48
345.311	44.2
345.523	62.63
345.735	27.82
345.947	50.35
346.159	85.16
346.371	25.77
346.583	-19.29
346.795	-4.95
347.007	79.02
347.219	21.67
347.431	-27.48
347.643	95.4
347.855	5.29
348.067	11.43
348.279	-35.67
348.491	42.15
348.703	76.97
348.915	5.29
349.127	17.58
349.339	21.67
349.551	107.69
349.763	70.83
349.975	21.67
350.187	-25.43
350.399	46.25
350.61	-56.15
350.822	29.87
351.034	-25.43
351.246	-2.9
351.458	19.63
351.669	38.06
351.881	1.19
352.093	9.39
352.305	42.15
352.517	79.02
352.728	13.48
352.94	89.26
353.152	13.48
353.363	27.82
353.575	44.2
353.787	130.22
353.999	27.82
354.21	13.48
354.422	83.11
354.633	29.87
354.845	15.53
355.057	5.29
355.268	5.29
355.48	-15.19
355.692	36.01
355.903	-66.39
356.115	40.11
356.326	36.01
356.538	46.25
356.749	31.91
356.961	38.06
357.172	74.92
357.384	15.53
357.595	58.54
357.807	72.87
358.018	70.83
358.23	68.78
358.441	48.3
358.653	-2.9
358.864	62.63
359.075	-0.85
359.287	13.48
359.498	27.82
359.709	54.44
359.921	70.83
360.132	29.87
360.344	38.06
360.555	58.54
360.766	1.19
360.977	36.01
361.189	60.59
361.4	44.2
361.611	46.25
361.823	54.44
362.034	111.78
362.245	13.48
362.456	40.11
362.667	126.12
362.879	-41.81
363.09	46.25
363.301	58.54
363.512	29.87
363.723	40.11
363.935	9.39
364.146	46.25
364.357	-9.05
364.568	72.87
364.779	21.67
364.99	91.31
365.201	40.11
365.412	38.06
365.623	11.43
365.834	-21.33
366.045	9.39
366.256	29.87
366.467	62.63
366.678	21.67
366.889	-9.05
367.1	38.06
367.311	38.06
367.522	52.39
367.733	1.19
367.944	29.87
368.155	38.06
368.366	54.44
368.577	62.63
368.788	44.2
368.999	46.25
369.209	60.59
369.42	-0.85
369.631	103.59
369.842	66.73
370.053	-21.33
370.264	54.44
370.474	81.07
370.685	33.96
370.896	-60.24
371.107	15.53
371.317	13.48
371.528	13.48
371.739	64.68
371.95	27.82
372.16	66.73
372.371	38.06
372.582	29.87
372.792	74.92
373.003	38.06
373.214	81.07
373.424	5.29
373.635	23.72
373.846	136.36
374.056	64.68
374.267	76.97
374.477	132.26
374.688	33.96
374.898	7.34
375.109	72.87
375.319	13.48
375.53	62.63
375.74	40.11
375.951	17.58
376.161	50.35
376.372	79.02
376.582	58.54
376.793	5.29
377.003	48.3
377.214	17.58
377.424	68.78
377.635	38.06
377.845	93.35
378.055	87.21
378.266	42.15
378.476	60.59
378.686	54.44
378.897	19.63
379.107	42.15
379.317	31.91
379.528	21.67
379.738	101.55
379.948	5.29
380.158	17.58
380.369	-4.95
380.579	76.97
380.789	25.77
380.999	50.35
381.21	7.34
381.42	64.68
381.63	38.06
381.84	-2.9
382.05	93.35
382.261	27.82
382.471	1.19
382.681	56.49
382.891	36.01
383.101	50.35
383.311	46.25
383.521	-0.85
383.731	5.29
383.941	36.01
384.151	74.92
384.361	107.69
384.571	64.68
384.781	97.45
384.991	54.44
385.201	85.16
385.411	38.06
385.621	11.43
385.831	-7
386.041	79.02
386.251	-23.38
386.461	79.02
386.671	-0.85
386.881	48.3
387.091	64.68
387.301	-7
387.511	81.07
387.72	13.48
387.93	33.96
388.14	58.54
388.35	89.26
388.56	128.17
388.769	140.46
388.979	46.25
389.189	64.68
389.399	33.96
389.609	-2.9
389.818	15.53
390.028	38.06
390.238	21.67
390.447	27.82
390.657	29.87
390.867	44.2
391.076	23.72
391.286	81.07
391.496	81.07
391.705	-2.9
391.915	70.83
392.125	46.25
392.334	56.49
392.544	83.11
392.753	13.48
392.963	-11.09
393.172	68.78
393.382	99.5
393.591	52.39
393.801	-9.05
394.01	97.45
394.22	95.4
394.429	58.54
394.639	3.24
394.848	60.59
395.058	115.88
395.267	76.97
395.477	109.74
395.686	138.41
395.895	91.31
396.105	87.21
396.314	93.35
396.524	54.44
396.733	74.92
396.942	79.02
397.152	29.87
397.361	66.73
397.57	79.02
397.78	66.73
397.989	95.4
398.198	122.02
398.407	83.11
398.617	99.5
398.826	72.87
399.035	40.11
399.244	95.4
399.453	66.73
399.663	91.31
399.872	60.59
400.081	70.83
400.29	150.7
400.499	48.3
400.708	74.92
400.917	103.59
401.127	62.63
401.336	93.35
401.545	109.74
401.754	64.68
401.963	138.41
402.172	117.93
402.381	124.07
402.59	177.32
402.799	99.5
403.008	126.12
403.217	109.74
403.426	111.78
403.635	162.98
403.844	208.04
404.053	109.74
404.262	175.27
404.471	124.07
404.68	126.12
404.888	136.36
405.097	126.12
405.306	218.28
405.515	126.12
405.724	87.21
405.933	179.37
406.142	177.32
406.35	152.74
406.559	167.08
406.768	191.66
406.977	210.09
407.185	222.38
407.394	156.84
407.603	234.66
407.812	201.9
408.02	230.57
408.229	222.38
408.438	277.67
408.646	214.18
408.855	300.2
409.064	210.09
409.272	185.51
409.481	289.96
409.69	310.44
409.898	292.01
410.107	269.48
410.315	320.68
410.524	339.11
410.733	308.39
410.941	347.3
411.15	384.16
411.358	410.79
411.567	390.31
411.775	341.16
411.984	437.41
412.192	435.36
412.401	431.27
412.609	464.04
412.818	519.33
413.026	531.62
413.234	521.38
413.443	449.7
413.651	537.76
413.86	494.76
414.068	502.95
414.276	644.26
414.485	687.26
414.693	693.41
414.901	771.23
415.11	697.5
415.318	750.75
415.526	779.42
415.734	795.81
415.943	771.23
416.151	871.58
416.359	797.85
416.567	857.25
416.776	879.77
416.984	920.73
417.192	1012.89
417.4	1078.43
417.608	957.6
417.817	1131.67
418.025	1115.29
418.233	1197.21
418.441	1131.67
418.649	1215.64
418.857	1365.14
419.065	1365.14
419.273	1281.18
419.481	1346.71
419.689	1582.23
419.897	1535.12
420.105	1551.51
420.313	1506.45
420.521	1612.95
420.729	1619.09
420.937	1770.64
421.145	1713.3
421.353	1922.19
421.561	2049.16
421.769	2069.64
421.977	2110.6
422.185	2167.95
422.393	2247.82
422.601	2399.37
422.809	2419.85
423.017	2421.89
423.224	2475.14
423.432	2686.08
423.64	2591.88
423.848	2862.21
424.056	2806.91
424.263	2976.89
424.471	2911.36
424.679	3122.3
424.887	3198.07
425.094	3320.95
425.302	3273.85
425.51	3406.97
425.718	3597.43
425.925	3654.77
426.133	3511.41
426.341	3886.19
426.548	4045.93
426.756	4107.37
426.964	4076.65
427.171	4187.24
427.379	4344.94
427.586	4478.05
427.794	4502.63
428.001	4965.47
428.209	5039.2
428.417	4830.3
428.624	5381.21
428.832	5295.19
429.039	5323.87
429.247	5389.4
429.454	5848.15
429.662	6079.57
429.869	5782.61
430.076	6091.85
430.284	6100.05
430.491	6171.72
430.699	6788.16
430.906	6763.59
431.114	6706.24
431.321	7138.37
431.528	7138.37
431.736	7472.18
431.943	7885.87
432.15	7525.43
432.358	7943.22
432.565	8299.56
432.772	8385.58
432.979	8514.6
433.187	8836.13
433.394	8754.21
433.601	9675.8
433.808	9595.93
434.016	9640.98
434.223	9860.12
434.43	10368.01
434.637	10228.75
434.844	10929.16
435.052	11105.28
435.259	11031.55
435.466	10982.4
435.673	11049.99
435.88	11656.18
436.087	12250.1
436.294	12436.46
436.501	11912.18
436.708	12190.7
436.915	12803.05
437.122	13206.5
437.329	13138.91
437.537	13571.04
437.743	14144.47
437.95	13882.33
438.157	14343.12
438.364	14781.39
438.571	14969.8
438.778	15143.88
438.985	16376.75
439.192	15723.45
439.399	16423.86
439.606	15950.78
439.813	16864.17
440.02	18088.85
440.227	17537.95
440.433	17294.24
440.64	17951.64
440.847	17853.34
441.054	18246.55
441.261	19432.32
441.467	19164.04
441.674	19747.71
441.881	20638.58
442.088	20239.22
442.294	20497.27
442.501	20896.62
442.708	20910.96
442.914	21744.48
443.121	22573.91
443.328	22082.39
443.534	23618.37
443.741	22848.33
443.948	22913.87
444.154	24542
444.361	24220.47
444.568	24484.66
444.774	24542
444.981	24986.41
445.187	25512.74
445.394	26630.93
445.6	26049.31
445.807	28834.55
446.013	27392.78
446.22	27980.54
446.426	29113.07
446.633	29219.56
446.839	30587.61
447.046	29133.55
447.252	30636.76
447.459	30726.87
447.665	30610.14
447.871	31738.57
448.078	33151.66
448.284	31697.61
448.491	32619.19
448.697	33915.56
448.903	34529.95
449.11	34480.8
449.316	33952.42
449.522	34507.42
449.728	35246.74
449.935	35906.18
450.141	35531.4
450.347	36776.57
450.553	35383.95
450.76	35609.23
450.966	36985.46
451.172	36864.63
451.378	37350
451.584	36639.36
451.791	37866.09
451.997	37421.68
452.203	38136.42
452.409	38009.45
452.615	37773.93
452.821	36584.06
453.027	36227.71
453.233	38099.56
453.44	36555.39
453.646	36844.15
453.852	37083.76
454.058	37775.98
454.264	36747.9
454.47	37370.48
454.676	36643.45
454.882	37485.17
455.088	34161.31
455.294	34794.14
455.5	35293.84
455.705	35492.49
455.911	34265.76
456.117	33397.42
456.323	33032.88
456.529	31322.83
456.735	32688.82
456.941	31896.26
457.147	31126.22
457.352	30425.82
457.558	30083.81
457.764	30024.42
457.97	29565.67
458.176	28719.86
458.381	29080.3
458.587	27577.09
458.793	27937.54
458.999	25930.53
459.204	28019.46
459.41	27220.75
459.616	25518.89
459.821	25314.09
460.027	25625.38
460.233	24904.49
460.438	23878.46
460.644	24062.78
460.85	22301.53
461.055	22424.4
461.261	22170.46
461.466	20661.1
461.672	20079.48
461.878	21447.52
462.083	20204.41
462.289	19774.33
462.494	19430.27
462.7	18772.88
462.905	18039.7
463.111	18774.92
463.316	18760.59
463.522	18357.14
463.727	18512.78
463.932	18492.3
464.138	18271.12
464.343	18162.58
464.549	17675.16
464.754	18760.59
464.959	18082.71
465.165	18285.46
465.37	17171.36
465.575	16878.51
465.781	17470.37
465.986	17591.2
466.191	17114.02
466.397	16651.18
466.602	15838.14
466.807	16548.78
467.012	16716.72
467.218	16595.89
467.423	16143.28
467.628	16356.27
467.833	16919.46
468.038	16417.71
468.244	16040.89
468.449	16681.9
468.654	16024.5
468.859	15993.78
469.064	15682.49
469.269	15211.46
469.474	15205.31
469.679	15672.25
469.885	15301.57
470.09	15352.77
470.295	15037.38
470.5	14803.91
470.705	15010.76
470.91	14549.96
471.115	14506.96
471.32	14715.85
471.525	14609.36
471.73	14138.32
471.935	14107.6
472.139	13628.38
472.344	14066.64
472.549	13581.28
472.754	13784.02
472.959	13390.81
473.164	13179.87
473.369	12862.44
473.574	13468.64
473.778	13269.98
473.983	13274.08
474.188	13040.61
474.393	12399.6
474.598	12653.55
474.802	12471.28
475.007	12348.4
475.212	12463.08
475.417	12028.92
475.621	11914.23
475.826	11936.76
476.031	11617.27
476.235	11693.05
476.44	11783.16
476.645	11461.63
476.849	11439.1
477.054	11316.22
477.259	11246.59
477.463	11226.11
477.668	11009.03
477.872	11058.18
478.077	10742.79
478.282	10527.75
478.486	10447.88
478.691	10523.66
478.895	10368.01
479.1	10382.35
479.304	10284.05
479.509	10236.94
479.713	10253.33
479.918	10130.45
480.122	9882.64
480.326	10044.43
480.531	10015.76
480.735	9720.85
480.94	9849.88
481.144	10226.7
481.348	9638.94
481.553	9704.47
481.757	9589.78
481.961	9753.62
482.166	9704.47
482.37	9686.04
482.574	9489.43
482.778	9534.49
482.983	9610.26
483.187	9552.92
483.391	9651.22
483.595	9643.03
483.8	9485.34
484.004	9427.99
484.208	9573.4
484.412	9571.35
484.616	9710.61
484.821	9489.43
485.025	9518.11
485.229	9702.42
485.433	9505.82
485.637	9368.6
485.841	9321.5
486.045	9352.22
486.249	9380.89
486.453	9393.18
486.657	9495.58
486.861	9526.3
487.065	9569.3
487.269	9503.77
487.473	9376.8
487.677	9446.43
487.881	9671.7
488.085	9450.52
488.289	9434.14
488.493	9376.8
488.697	9655.32
488.901	9415.71
489.105	9468.95
489.309	9602.07
489.512	9800.73
489.716	9446.43
489.92	9647.13
490.124	9559.06
490.328	9767.96
490.531	9620.5
490.735	9696.28
490.939	9718.81
491.143	9657.37
491.346	9657.37
491.55	10009.62
491.754	9962.51
491.958	9960.47
492.161	9853.97
492.365	9999.38
492.569	10087.44
492.772	9937.94
492.976	10079.25
493.18	10322.96
493.383	10368.01
493.587	10298.38
493.79	10347.53
493.994	10269.71
494.197	10431.5
494.401	10443.79
494.605	10523.66
494.808	10468.36
495.012	10425.36
495.215	10585.1
495.419	10882.05
495.622	10750.98
495.825	10949.64
496.029	11080.71
496.232	11152.38
496.436	11256.83
496.639	11611.13
496.843	11357.18
497.046	11777.01
497.249	11803.64
497.453	11799.54
497.656	11955.19
497.859	11883.51
498.063	12127.22
498.266	12153.84
498.469	12088.31
498.673	12583.91
498.876	12348.4
499.079	12665.83
499.282	12485.61
499.485	13040.61
499.689	13087.71
499.892	13392.86
500.095	13153.25
500.298	13673.43
500.501	13452.25
500.705	13747.16
500.908	14140.37
501.111	13812.7
501.314	14138.32
501.517	14271.44
501.72	14535.63
501.923	14398.41
502.126	14758.86
502.329	15061.96
502.532	15037.38
502.735	15102.92
502.938	15369.15
503.141	15684.54
503.344	15666.11
503.547	15899.58
503.75	16079.8
503.953	16518.06
504.156	16372.66
504.359	16280.5
504.562	16657.32
504.765	17140.65
504.968	17261.48
505.17	17587.1
505.373	17408.93
505.576	17548.19
505.779	17818.52
505.982	17814.43
506.185	18283.41
506.387	18445.2
506.59	18623.37
506.793	19022.73
506.996	18580.37
507.198	19383.17
507.401	19049.35
507.604	19407.75
507.807	19714.94
508.009	19917.69
508.212	20048.76
508.415	20087.67
508.617	20552.56
508.82	20691.82
509.022	20437.87
509.225	21322.6
509.428	21103.46
509.63	21199.72
509.833	21314.41
510.035	22197.08
510.238	21531.49
510.44	22109.02
510.643	22367.06
510.845	22446.93
511.048	22436.69
511.25	22864.72
511.453	22899.53
511.655	24034.11
511.858	23286.6
512.06	23501.64
512.262	24093.5
512.465	23663.43
512.667	24326.97
512.87	24472.37
513.072	24558.39
513.274	24687.41
513.477	25252.65
513.679	25393.96
513.881	25738.02
514.084	25645.86
514.286	25746.21
514.488	26133.28
514.69	26829.59
514.893	26606.36
515.095	26835.73
515.297	27151.12
515.499	27130.64
515.701	27740.93
515.904	28011.26
516.106	27888.39
516.308	28171
516.51	28465.91
516.712	28476.15
516.914	28568.31
517.116	29182.7
517.318	29387.5
517.52	29426.41
517.722	29522.66
517.925	29879.01
518.127	30304.99
518.329	30212.83
518.531	30104.29
518.733	30698.2
518.935	31113.94
519.136	30946
519.338	31337.16
519.54	31533.77
519.742	32010.95
519.944	31705.8
520.146	32668.34
520.348	32684.73
520.55	32742.07
520.752	32721.59
520.954	33254.06
521.155	32985.78
521.357	33348.27
521.559	33856.17
521.761	34134.69
521.963	33725.1
522.164	34542.24
522.366	34618.01
522.568	34544.28
522.77	34964.12
522.971	34962.07
523.173	34839.19
523.375	35310.22
523.576	35041.94
523.778	35494.54
523.98	36170.37
524.181	35941
524.383	36149.89
524.584	36031.11
524.786	36510.33
524.988	36600.44
525.189	36463.23
525.391	37216.88
525.592	37304.95
525.794	36919.93
525.995	37141.11
526.197	37223.03
526.398	37194.36
526.6	37595.76
526.801	37780.07
527.003	38091.37
527.204	38208.1
527.406	38382.18
527.607	38185.57
527.808	38343.27
528.01	37616.24
528.211	38548.06
528.412	38867.55
528.614	38343.27
528.815	38759
529.016	39361.11
529.218	38480.48
529.419	39058.01
529.62	39154.26
529.822	38877.79
530.023	39070.29
530.224	39066.2
530.425	39019.1
530.626	38607.45
530.828	39029.34
531.029	39797.32
531.23	39232.08
531.431	39551.57
531.632	39221.84
531.833	40028.74
532.035	39133.78
532.236	39729.74
532.437	39703.12
532.638	39432.78
532.839	39809.61
533.04	39682.64
533.241	39236.18
533.442	40036.94
533.643	39680.59
533.844	39518.8
534.045	39543.38
534.246	39430.74
534.447	39871.05
534.648	39811.66
534.849	39866.95
535.05	39608.91
535.251	39580.24
535.451	39613.01
535.652	39508.56
535.853	39361.11
536.054	39723.6
536.255	39694.92
536.456	39363.15
536.657	40098.37
536.857	39516.75
537.058	39578.19
537.259	40065.61
537.46	39402.07
537.66	39533.14
537.861	39789.13
538.062	39774.8
538.263	39940.68
538.463	39764.56
538.664	39664.21
538.865	40086.09
539.065	39940.68
539.266	39326.29
539.466	39717.45
539.667	39156.31
539.868	39725.64
540.068	39733.84
540.269	39516.75
540.469	39875.15
540.67	39664.21
540.87	38945.37
541.071	39361.11
541.271	39670.35
541.472	39639.63
541.672	39440.98
541.873	39451.22
542.073	39234.13
542.274	39529.04
542.474	39322.19
542.675	39221.84
542.875	39580.24
543.075	39314
543.276	39246.42
543.476	39639.63
543.676	39303.76
543.877	39750.22
544.077	39369.3
544.277	38883.93
544.478	39055.96
544.678	39240.28
544.878	39281.24
545.078	39262.8
545.279	39281.24
545.479	38963.8
545.679	39354.96
545.879	39561.81
546.079	39504.46
546.28	38939.22
546.48	38834.78
546.68	39639.63
546.88	39338.58
547.08	39078.49
547.28	39041.62
547.48	38906.46
547.68	39049.81
547.88	38896.22
548.081	39111.25
548.281	39031.38
548.481	38900.31
548.681	39447.12
548.881	39234.13
549.081	39070.29
549.28	38996.57
549.48	38978.14
549.68	38765.15
549.88	39440.98
550.08	38664.8
550.28	38988.38
550.48	39238.23
550.68	38920.79
550.88	39182.93
551.08	38754.91
551.279	39187.03
551.479	38707.8
551.679	38863.45
551.879	38898.27
552.079	39291.48
552.278	38406.75
552.478	39109.21
552.678	38754.91
552.878	39021.14
553.077	38359.65
553.277	38382.18
553.477	38961.75
553.676	38773.34
553.876	38859.35
554.076	38451.81
554.275	38259.3
554.475	38150.76
554.674	38658.65
554.874	38396.51
555.074	38107.75
555.273	38509.15
555.473	38634.08
555.672	37878.38
555.872	38328.93
556.071	38505.06
556.271	38586.97
556.47	38113.89
556.67	37724.78
556.869	37911.14
557.068	38134.37
557.268	37806.7
557.467	37984.87
557.667	38029.93
557.866	38013.54
558.065	37993.06
558.265	37714.54
558.464	37534.32
558.663	38128.23
558.863	37460.59
559.062	38412.9
559.261	37468.78
559.461	37919.34
559.66	37519.98
559.859	37266.03
560.058	37515.89
560.258	37364.34
560.457	37288.56
560.656	37356.14
560.855	37302.9
561.054	37528.17
561.253	37210.74
561.453	37593.71
561.652	37366.38
561.851	37628.52
562.05	37286.51
562.249	37048.95
562.448	37059.19
562.647	36895.35
562.846	37069.43
563.045	36962.93
563.244	36336.26
563.443	36932.22
563.642	36332.16
563.841	36862.58
564.04	36571.77
564.239	36940.41
564.438	36483.71
564.637	36561.53
564.836	36567.68
565.035	36446.85
565.234	36536.96
565.432	36235.91
565.631	36207.23
565.83	36250.24
566.029	36129.41
566.228	35838.6
566.427	36115.08
566.625	35920.52
566.824	35844.74
567.023	36024.96
567.222	35252.88
567.42	35975.81
567.619	35723.91
567.818	35709.58
568.016	35113.62
568.215	36201.09
568.414	35365.52
568.612	35584.65
568.811	35244.69
569.01	35363.47
569.208	34964.12
569.407	35476.11
569.605	34800.28
569.804	35191.44
570.002	34964.12
570.201	35000.98
570.4	35048.08
570.598	34624.15
570.797	34392.73
570.995	34851.48
571.193	34181.79
571.392	34417.31
571.59	34491.04
571.789	34761.37
571.987	34296.48
572.186	34470.56
572.384	34341.53
572.582	34519.71
572.781	34407.07
572.979	33542.83
573.177	34103.97
573.376	33933.99
573.574	33888.93
573.772	33667.75
573.971	33575.59
574.169	33727.14
574.367	33442.48
574.565	33311.41
574.763	33497.77
574.962	33292.97
575.16	33284.78
575.358	33043.12
575.556	32934.58
575.754	33092.27
575.952	32907.96
576.151	32983.73
576.349	32754.36
576.547	32494.27
576.745	32527.03
576.943	32975.54
577.141	32488.12
577.339	32553.66
577.537	32219.84
577.735	32350.91
577.933	32041.67
578.131	32514.75
578.329	31992.51
578.527	32146.11
578.725	32045.76
578.923	32299.71
579.121	32035.52
579.319	31709.89
579.516	31937.22
579.714	31761.09
579.912	31570.63
580.11	31783.62
580.308	31693.51
580.506	31552.2
580.704	30925.52
580.901	31066.83
581.099	31675.08
581.297	31152.85
581.495	31017.68
581.692	31269.58
581.89	31021.78
582.088	31052.5
582.285	30808.79
582.483	30966.48
582.681	31027.92
582.878	30790.36
583.076	30614.23
583.274	30769.88
583.471	30319.32
583.669	30290.65
583.866	30010.08
584.064	30309.08
584.262	29852.39
584.459	29858.53
584.657	29833.96
584.854	29827.81
585.052	29696.74
585.249	29967.07
585.447	29764.32
585.644	29342.44
585.841	29565.67
586.039	29666.02
586.236	29459.18
586.434	29188.85
586.631	29303.53
586.828	28910.32
587.026	29334.25
587.223	29285.1
587.42	28910.32
587.618	28826.35
587.815	28715.76
588.012	28723.96
588.21	28293.88
588.407	28695.28
588.604	28394.23
588.801	28355.32
588.999	28453.62
589.196	28484.34
589.393	28162.81
589.59	28166.91
589.787	27966.21
589.984	28244.73
590.182	27783.94
590.379	27898.62
590.576	27628.29
590.773	27896.58
590.97	27624.2
591.167	27693.83
591.364	27304.71
591.561	27679.49
591.758	26944.27
591.955	27124.49
592.152	27380.49
592.349	27001.61
592.546	26999.57
592.743	27112.2
592.94	26698.52
593.137	26841.87
593.334	26903.31
593.531	26675.99
593.727	26458.9
593.924	26526.49
594.121	26579.73
594.318	26305.31
594.515	26143.52
594.712	26260.25
594.908	26000.16
595.105	26397.46
595.302	25965.34
595.499	25912.1
595.696	25838.37
595.892	25422.63
596.089	25813.79
596.286	25899.81
596.482	25793.31
596.679	25422.63
596.876	25416.49
597.072	25266.99
597.269	25279.27
597.466	25176.87
597.662	24795.95
597.859	24961.84
598.055	25123.63
598.252	24742.71
598.448	24970.03
598.645	24726.32
598.841	24546.1
599.038	24826.67
599.234	24867.63
599.431	24677.17
599.627	24509.24
599.824	24324.92
600.02	24312.63
600.217	24298.3
600.413	24021.82
600.609	24009.53
600.806	23720.77
601.002	24218.43
601.198	23685.95
601.395	23495.49
601.591	24107.83
601.787	23769.92
601.984	23653.19
602.18	23884.61
602.376	23688
602.572	23583.55
602.769	23620.42
602.965	23208.78
603.161	23376.71
603.357	22930.25
603.553	22981.45
603.75	22928.2
603.946	22836.05
604.142	22772.56
604.338	22381.4
604.534	22901.58
604.73	22338.39
604.926	22604.63
605.122	22530.9
605.318	22446.93
605.514	22272.85
605.71	22514.52
605.906	22262.61
606.102	22422.36
606.298	22215.51
606.494	22453.08
606.69	22227.8
606.886	21992.28
607.082	22027.1
607.278	22027.1
607.474	21656.42
607.67	22082.39
607.866	21623.65
608.062	22025.05
608.257	21388.13
608.453	21754.72
608.649	21650.27
608.845	21255.01
609.041	21519.2
609.236	21468
609.432	21220.2
609.628	21373.8
609.824	21347.17
610.019	21367.65
610.215	21111.66
610.411	21396.32
610.606	21261.16
610.802	21064.55
610.998	20964.2
611.193	21273.45
611.389	21076.84
611.584	21048.17
611.78	20845.42
611.976	21009.26
612.171	20894.57
612.367	21109.61
612.562	20763.5
612.758	20497.27
612.953	20415.35
613.149	20870
613.344	20726.64
613.539	20820.84
613.735	20620.14
613.93	20788.08
614.126	20685.68
614.321	20607.86
614.517	20446.07
614.712	20315
614.907	20329.33
615.103	20491.12
615.298	20286.33
615.493	20325.24
615.688	20104.06
615.884	20579.18
616.079	20132.73
616.274	20202.36
616.47	20116.34
616.665	20183.93
616.86	20005.75
617.055	20102.01
617.25	19989.37
617.445	19919.74
617.641	19577.73
617.836	19741.57
618.031	19438.47
618.226	19651.45
618.421	19534.72
618.616	19782.52
618.811	19299.2
619.006	19618.69
619.201	19358.6
619.396	19407.75
619.591	19315.59
619.786	19084.17
619.981	18736.01
620.176	19456.9
620.371	18631.57
620.566	18525.07
620.761	18709.39
620.956	18551.7
621.151	18377.62
621.346	18932.62
621.541	18199.44
621.735	18572.18
621.93	18062.23
622.125	18142.1
622.32	17796
622.515	18221.97
622.709	17970.07
622.904	18041.75
623.099	17630.11
623.294	17707.93
623.488	17464.22
623.683	17781.66
623.878	17421.22
624.072	17419.17
624.267	17421.22
624.462	17359.78
624.656	16898.98
624.851	17054.63
625.046	16812.97
625.24	16767.91
625.435	16505.77
625.629	16544.69
625.824	16567.21
626.018	16452.53
626.213	16061.37
626.407	16323.51
626.602	16163.76
626.796	16192.44
626.991	15934.39
627.185	15741.88
627.38	15795.13
627.574	15805.37
627.768	15489.98
627.963	15717.31
628.157	15504.32
628.352	15489.98
628.546	15170.5
628.74	15487.93
628.935	15115.2
629.129	15213.51
629.323	14771.15
629.517	14814.15
629.712	14711.75
629.906	14846.92
630.1	14437.33
630.294	14660.55
630.489	14607.31
630.683	14789.58
630.877	14298.06
631.071	14203.86
631.265	14451.66
631.459	14113.75
631.653	14109.65
631.848	13900.76
632.042	13874.13
632.236	13976.53
632.43	13558.75
632.624	13937.62
632.818	13720.54
633.012	13368.29
633.206	13421.53
633.4	13368.29
633.594	13272.03
633.788	13294.56
633.982	13296.61
634.176	13439.97
634.369	12950.5
634.563	13028.32
634.757	12860.39
634.951	12739.56
635.145	12973.03
635.339	13003.75
635.533	12788.71
635.726	12735.46
635.92	12422.13
636.114	12592.11
636.308	12520.43
636.501	12504.04
636.695	12311.53
636.889	12463.08
637.083	12119.03
637.276	12116.98
637.47	12049.39
637.664	12196.85
637.857	12086.26
638.051	11910.13
638.244	11858.93
638.438	11850.74
638.632	11701.24
638.825	11596.79
639.019	11686.9
639.212	11482.11
639.406	11412.48
639.599	11424.76
639.793	11305.98
639.986	11187.2
640.18	11254.78
640.373	11140.1
640.567	10916.87
640.76	11150.34
640.954	10875.91
641.147	10873.86
641.34	10861.57
641.534	10791.94
641.727	10853.38
641.92	10957.83
642.114	10646.54
642.307	10677.26
642.5	10652.68
642.694	10394.64
642.887	10355.72
643.08	10603.53
643.273	10490.89
643.467	10384.4
643.66	10212.37
643.853	10302.48
644.046	9999.38
644.239	10152.98
644.432	10007.57
644.626	9892.88
644.819	9956.37
645.012	10021.91
645.205	9944.08
645.398	9817.11
645.591	9604.12
645.784	9786.39
645.977	9600.02
646.17	9671.7
646.363	9471
646.556	9407.52
646.749	9434.14
646.942	9604.12
647.135	9288.73
647.328	9360.41
647.521	9204.77
647.714	9159.71
647.907	9215.01
648.099	8983.59
648.292	9137.18
648.485	8944.67
648.678	9045.02
648.871	8852.52
649.064	8932.39
649.256	8895.52
649.449	8655.91
649.642	8649.77
649.835	8653.86
650.027	8829.99
650.22	8465.45
650.413	8530.98
650.605	8559.66
650.798	8561.7
650.991	8344.62
651.183	8651.81
651.376	8186.93
651.568	8285.23
651.761	8279.08
651.954	8188.97
652.146	8172.59
652.339	8004.66
652.531	8047.66
652.724	8109.1
652.916	7869.49
653.109	7959.6
653.301	7949.36
653.494	7943.22
653.686	7580.73
653.879	7941.17
654.071	7644.21
654.263	7765.04
654.456	7603.25
654.648	7916.59
654.84	7457.85
655.033	7703.61
655.225	7558.2
655.417	7443.51
655.61	7476.28
655.802	7623.73
655.994	7449.66
656.186	7285.82
656.379	7294.01
656.571	7337.02
656.763	7187.52
656.955	7148.61
657.148	7271.48
657.34	7130.17
657.532	7015.49
657.724	7044.16
657.916	7093.31
658.108	7044.16
658.3	6954.05
658.492	6982.72
658.684	6773.83
658.876	6952
659.068	6829.12
659.26	6730.82
659.452	6788.16
659.644	6736.96
659.836	6599.75
660.028	6573.13
660.22	6646.85
660.412	6558.79
660.604	6552.65
660.796	6526.02
660.988	6499.4
661.18	6495.3
661.372	6290.51
661.563	6399.05
661.755	6216.78
661.947	6329.42
662.139	6290.51
662.331	6218.83
662.522	6198.35
662.714	6104.14
662.906	6034.51
663.097	6065.23
663.289	5952.59
663.481	5956.69
663.673	5997.65
663.864	5833.81
664.056	5811.28
664.247	6075.47
664.439	5692.5
664.631	5968.98
664.822	5835.86
665.014	5936.21
665.205	5758.03
665.397	5885.01
665.588	5737.56
665.78	5547.09
665.971	5534.81
666.163	5655.64
666.354	5444.7
666.546	5729.36
666.737	5467.22
666.929	5403.74
667.12	5491.8
667.311	5450.84
667.503	5471.32
667.694	5364.82
667.885	5381.21
668.077	5420.12
668.268	5446.74
668.459	5348.44
668.651	5243.99
668.842	5108.83
669.033	5237.85
669.224	5391.45
669.416	5203.04
669.607	5225.56
669.798	5100.64
669.989	5096.54
670.18	4985.95
670.371	4998.24
670.563	4912.22
670.754	5043.29
670.945	4994.14
671.136	5043.29
671.327	4928.61
671.518	4871.26
671.709	4908.13
671.9	4797.54
672.091	4799.59
672.282	4936.8
672.473	4756.58
672.664	4926.56
672.855	4678.76
673.046	4899.94
673.237	4732
673.428	4562.02
673.619	4756.58
673.809	4734.05
674	4777.06
674.191	4697.19
674.382	4594.79
674.573	4613.22
674.764	4664.42
674.954	4551.78
675.145	4514.92
675.336	4592.74
675.527	4512.87
675.717	4430.95
675.908	4664.42
676.099	4566.12
676.289	4519.01
676.48	4437.09
676.671	4361.32
676.861	4496.49
677.052	4396.14
677.243	4291.69
677.433	4496.49
677.624	4308.07
677.814	4363.37
678.005	4383.85
678.195	4408.42
678.386	4377.7
678.576	4260.97
678.767	4187.24
678.957	4346.98
679.148	4267.11
679.338	4373.61
679.529	4322.41
679.719	4344.94
679.909	4289.64
680.1	4277.35
680.29	4457.57
680.481	4197.48
680.671	4154.48
680.861	4068.46
681.052	4310.12
681.242	4011.12
681.432	3986.54
681.622	4056.17
681.813	4183.15
682.003	4078.7
682.193	4117.61
682.383	4047.98
682.573	4031.6
682.764	4168.81
682.954	4013.17
683.144	3884.14
683.334	4070.51
683.524	4043.88
683.714	3978.35
683.904	3966.06
684.094	3904.62
684.284	3970.16
684.474	4058.22
684.664	3892.34
684.854	3980.4
685.044	3972.21
685.234	3867.76
685.424	3904.62
685.614	3910.77
685.804	3726.45
685.994	3796.08
686.184	3775.6
686.374	3855.47
686.564	3798.13
686.753	3789.94
686.943	3652.72
687.133	3595.38
687.323	3753.07
687.513	3738.74
687.702	3683.44
687.892	3642.48
688.082	3791.98
688.272	3535.99
688.461	3648.63
688.651	3640.44
688.841	3581.04
689.03	3675.25
689.22	3638.39
689.41	3462.26
689.599	3595.38
689.789	3443.83
689.979	3343.48
690.168	3419.25
690.358	3277.94
690.547	3347.58
690.737	3474.55
690.926	3548.28
691.116	3476.6
691.305	3308.66
691.495	3228.79
691.684	3228.79
691.874	3204.22
692.063	3257.46
692.252	3257.46
692.442	3304.57
692.631	3146.87
692.82	3064.96
693.01	3138.68
693.199	3202.17
693.388	3097.72
693.578	3040.38
693.767	3249.27
693.956	3089.53
694.146	3030.14
694.335	2868.35
694.524	3013.76
694.713	3015.8
694.902	3040.38
695.092	2974.85
695.281	2933.89
695.47	2993.28
695.659	2976.89
695.848	2905.21
696.037	2841.73
696.226	2806.91
696.415	2757.76
696.604	2940.03
696.793	2937.98
696.982	2915.45
697.171	2866.3
697.36	2776.19
697.549	2802.82
697.738	2675.84
697.927	2833.54
698.116	2878.59
698.305	2741.38
698.494	2657.41
698.683	2643.07
698.872	2724.99
699.061	2768
699.25	2677.89
699.438	2669.7
699.627	2649.22
699.816	2638.98
700.005	2684.03
700.193	2636.93
700.382	2583.68
700.571	2559.11
700.76	2630.79
700.948	2606.21
701.137	2659.46
701.326	2626.69
701.514	2610.31
701.703	2493.57
701.892	2522.24
702.08	2548.87
702.269	2550.92
702.457	2462.85
702.646	2501.76
702.834	2532.48
703.023	2469
703.212	2573.44
703.4	2516.1
703.589	2520.2
703.777	2528.39
703.965	2409.61
704.154	2497.67
704.342	2489.48
704.531	2366.6
704.719	2485.38
704.907	2518.15
705.096	2362.5
705.284	2403.46
705.472	2528.39
705.661	2423.94
705.849	2428.04
706.037	2368.65
706.226	2446.47
706.414	2356.36
706.602	2419.85
706.79	2460.81
706.979	2430.09
707.167	2372.74
707.355	2421.89
707.543	2327.69
707.731	2389.13
707.919	2401.41
708.107	2469
708.296	2356.36
708.484	2473.09
708.672	2436.23
708.86	2466.95
709.048	2423.94
709.236	2397.32
709.424	2370.69
709.612	2479.24
709.8	2387.08
709.988	2307.21
710.176	2380.93
710.364	2436.23
710.551	2299.02
710.739	2387.08
710.927	2237.58
711.115	2364.55
711.303	2348.17
711.491	2276.49
711.679	2364.55
711.866	2395.27
712.054	2348.17
712.242	2329.74
712.43	2282.63
712.617	2325.64
712.805	2352.26
712.993	2382.98
713.181	2342.02
713.368	2321.54
713.556	2423.94
713.744	2282.63
713.931	2364.55
714.119	2323.59
714.306	2350.21
714.494	2301.06
714.682	2389.13
714.869	2387.08
715.057	2450.57
715.244	2329.74
715.432	2346.12
715.619	2475.14
715.807	2415.75
715.994	2471.04
716.182	2368.65
716.369	2380.93
716.556	2331.78
716.744	2403.46
716.931	2366.6
717.119	2387.08
717.306	2458.76
717.493	2389.13
717.681	2303.11
717.868	2423.94
718.055	2419.85
718.242	2446.47
718.43	2346.12
718.617	2374.79
718.804	2432.13
718.991	2466.95
719.179	2460.81
719.366	2440.33
719.553	2352.26
719.74	2460.81
719.927	2469
720.114	2460.81
720.301	2339.97
720.488	2278.54
720.676	2446.47
720.863	2487.43
721.05	2450.57
721.237	2370.69
721.424	2405.51
721.611	2516.1
721.798	2348.17
721.985	2462.85
722.172	2311.3
722.358	2405.51
722.545	2440.33
722.732	2389.13
722.919	2348.17
723.106	2407.56
723.293	2399.37
723.48	2464.9
723.667	2520.2
723.853	2339.97
724.04	2444.42
724.227	2403.46
724.414	2391.17
724.6	2495.62
724.787	2526.34
724.974	2425.99
725.161	2489.48
725.347	2403.46
725.534	2366.6
725.72	2460.81
725.907	2454.66
726.094	2466.95
726.28	2458.76
726.467	2303.11
726.653	2557.06
726.84	2485.38
727.027	2380.93
727.213	2434.18
727.4	2507.91
727.586	2411.65
727.773	2348.17
727.959	2444.42
728.145	2501.76
728.332	2495.62
728.518	2296.97
728.705	2460.81
728.891	2487.43
729.077	2380.93
729.264	2462.85
729.45	2444.42
729.636	2528.39
729.823	2471.04
730.009	2473.09
730.195	2327.69
730.382	2436.23
730.568	2483.33
730.754	2397.32
730.94	2432.13
731.126	2497.67
731.313	2563.2
731.499	2452.61
731.685	2397.32
731.871	2389.13
732.057	2518.15
732.243	2538.63
732.429	2399.37
732.615	2483.33
732.801	2473.09
732.987	2503.81
733.173	2499.72
733.359	2462.85
733.545	2473.09
733.731	2518.15
733.917	2577.54
734.103	2462.85
734.289	2555.01
734.475	2522.24
734.661	2442.37
734.847	2475.14
735.033	2409.61
735.219	2425.99
735.404	2393.22
735.59	2591.88
735.776	2403.46
735.962	2473.09
736.148	2469
736.333	2380.93
736.519	2460.81
736.705	2532.48
736.89	2358.41
737.076	2411.65
737.262	2409.61
737.447	2411.65
737.633	2409.61
737.819	2380.93
738.004	2274.44
738.19	2339.97
738.375	2342.02
738.561	2485.38
738.747	2421.89
738.932	2448.52
739.118	2491.52
739.303	2413.7
739.489	2344.07
739.674	2307.21
739.859	2264.2
740.045	2380.93
740.23	2448.52
740.416	2315.4
740.601	2251.91
740.786	2393.22
740.972	2288.78
741.157	2331.78
741.342	2344.07
741.528	2393.22
741.713	2305.16
741.898	2262.15
742.084	2352.26
742.269	2282.63
742.454	2286.73
742.639	2348.17
742.824	2272.39
743.01	2354.31
743.195	2356.36
743.38	2217.1
743.565	2270.34
743.75	2227.34
743.935	2237.58
744.12	2237.58
744.305	2190.47
744.49	2184.33
744.675	2067.6
744.86	2083.98
745.045	2157.71
745.23	2184.33
745.415	2098.31
745.6	2049.16
745.785	2188.43
745.97	2147.47
746.155	2055.31
746.34	2110.6
746.525	2088.07
746.71	2061.45
746.895	2120.84
747.079	2049.16
747.264	2040.97
747.449	1995.92
747.634	2024.59
747.819	2020.49
748.003	1965.2
748.188	1825.93
748.373	1823.89
748.557	1985.68
748.742	2018.44
748.927	1889.42
749.111	1959.05
749.296	1916.05
749.481	1959.05
749.665	1891.47
749.85	1903.76
750.034	1938.57
750.219	1879.18
750.404	1856.65
750.588	1905.81
750.773	1825.93
750.957	1698.96
751.141	1774.74
751.326	1746.06
751.51	1727.63
751.695	1782.93
751.879	1770.64
752.064	1764.5
752.248	1719.44
752.432	1635.47
752.617	1744.02
752.801	1637.52
752.985	1651.86
753.17	1709.2
753.354	1623.19
753.538	1526.93
753.722	1545.36
753.907	1424.53
754.091	1612.95
754.275	1608.85
754.459	1592.47
754.643	1545.36
754.828	1561.75
755.012	1526.93
755.196	1481.88
755.38	1514.64
755.564	1555.6
755.748	1533.08
755.932	1494.16
756.116	1569.94
756.3	1377.43
756.484	1447.06
756.668	1512.6
756.852	1502.36
757.036	1410.2
757.22	1416.34
757.404	1389.72
757.588	1399.96
757.772	1369.24
757.956	1488.02
758.14	1291.41
758.323	1371.29
758.507	1324.18
758.691	1277.08
758.875	1361.05
759.059	1361.05
759.242	1279.13
759.426	1307.8
759.61	1377.43
759.794	1250.46
759.977	1309.85
760.161	1315.99
760.345	1365.14
760.528	1318.04
760.712	1258.65
760.895	1193.11
761.079	1330.33
761.263	1414.29
761.446	1180.82
761.63	1299.61
761.813	1193.11
761.997	1180.82
762.18	1238.17
762.364	1203.35
762.547	1113.24
762.731	1164.44
762.914	1234.07
763.098	1197.21
763.281	1158.3
763.464	1295.51
763.648	1103
763.831	1150.11
764.015	1184.92
764.198	1162.39
764.381	1199.26
764.564	1119.39
764.748	1160.34
764.931	1105.05
765.114	1092.76
765.297	1117.34
765.481	1037.47
765.664	1221.78
765.847	1070.23
766.03	1068.19
766.213	1049.75
766.397	1019.04
766.58	1086.62
766.763	1010.84
766.946	1070.23
767.129	1078.43
767.312	1006.75
767.495	1016.99
767.678	1025.18
767.861	1010.84
768.044	973.98
768.227	1059.99
768.41	1094.81
768.593	1107.1
768.776	1072.28
768.959	1004.7
769.142	1080.47
769.324	984.22
769.507	1004.7
769.69	986.27
769.873	1039.51
770.056	1037.47
770.239	1010.84
770.421	890.01
770.604	961.69
770.787	939.16
770.97	890.01
771.152	881.82
771.335	912.54
771.518	887.97
771.7	1000.6
771.883	951.45
772.066	916.64
772.248	890.01
772.431	912.54
772.613	912.54
772.796	877.73
772.978	933.02
773.161	865.44
773.343	830.62
773.526	869.53
773.708	879.77
773.891	887.97
774.073	820.38
774.256	859.29
774.438	922.78
774.621	785.57
774.803	890.01
774.985	924.83
775.168	943.26
775.35	746.66
775.532	851.1
775.715	726.18
775.897	738.46
776.079	783.52
776.261	783.52
776.444	775.33
776.626	740.51
776.808	722.08
776.99	797.85
777.173	779.42
777.355	779.42
777.537	720.03
777.719	779.42
777.901	726.18
778.083	722.08
778.265	593.06
778.447	783.52
778.629	713.89
778.811	734.37
778.993	679.07
779.175	668.83
779.357	717.98
779.539	679.07
779.721	642.21
779.903	685.22
780.085	734.37
780.267	679.07
780.449	652.45
780.631	670.88
780.812	677.02
780.994	672.93
781.176	578.72
781.358	627.87
781.54	713.89
781.721	648.35
781.903	591.01
782.085	736.42
782.267	636.06
782.448	603.3
782.63	654.5
782.812	566.43
782.993	625.83
783.175	615.59
783.357	531.62
783.538	599.2
783.72	548
783.901	570.53
784.083	566.43
784.264	523.43
784.446	449.7
784.627	525.47
784.809	539.81
784.99	568.48
785.172	498.85
785.353	515.23
785.535	459.94
785.716	504.99
785.897	433.32
786.079	560.29
786.26	482.47
786.441	371.88
786.623	470.18
786.804	521.38
786.985	482.47
787.167	423.08
787.348	466.08
787.529	455.84
787.71	427.17
787.891	443.56
788.073	429.22
788.254	480.42
788.435	504.99
788.616	500.9
788.797	435.36
788.978	423.08
789.159	410.79
789.34	398.5
789.522	445.6
789.703	330.92
789.884	492.71
790.065	371.88
790.246	480.42
790.427	359.59
790.607	388.26
790.788	406.69
790.969	435.36
791.15	414.88
791.331	373.92
791.512	437.41
791.693	441.51
791.874	382.12
792.054	361.64
792.235	433.32
792.416	341.16
792.597	380.07
792.778	367.78
792.958	375.97
793.139	298.15
793.32	382.12
793.5	406.69
793.681	341.16
793.862	347.3
794.042	335.01
794.223	373.92
794.404	292.01
794.584	306.34
794.765	273.57
794.945	341.16
795.126	335.01
795.306	371.88
795.487	349.35
795.667	357.54
795.848	279.72
796.028	294.05
796.209	328.87
796.389	357.54
796.57	404.64
796.75	218.28
796.93	294.05
797.111	279.72
797.291	289.96
797.471	210.09
797.652	304.29
797.832	306.34
798.012	324.77
798.192	261.29
798.373	259.24
798.553	312.49
798.733	281.77
798.913	251.05
799.093	283.81
799.274	283.81
799.454	343.21
799.634	347.3
799.814	273.57
799.994	304.29
800.174	228.52
800.354	294.05
800.534	298.15
800.714	251.05
800.894	273.57
801.074	328.87
801.254	269.48
801.434	351.4
801.614	261.29
801.794	232.62
801.974	591.01
802.154	279.72
802.334	171.18
802.514	234.66
802.693	216.23
802.873	283.81
803.053	181.42
803.233	191.66
803.413	238.76
803.592	191.66
803.772	146.6
803.952	175.27
804.131	275.62
804.311	226.47
804.491	246.95
804.67	308.39
804.85	226.47
805.03	273.57
805.209	238.76
805.389	181.42
805.568	230.57
805.748	201.9
805.928	259.24
806.107	251.05
806.287	226.47
806.466	185.51
806.646	314.53
806.825	255.14
807.004	210.09
807.184	259.24
807.363	322.73
807.543	177.32
807.722	165.03
807.901	183.46
808.081	253.09
808.26	246.95
808.439	162.98
808.619	244.9
808.798	197.8
808.977	136.36
809.156	205.99
809.336	185.51
809.515	173.22
809.694	226.47
809.873	138.41
810.052	222.38
810.231	169.13
810.411	144.55
810.59	220.33
810.769	117.93
810.948	230.57
811.127	173.22
811.306	257.19
811.485	203.94
811.664	226.47
811.843	124.07
812.022	144.55
812.201	91.31
812.38	201.9
812.559	111.78
812.737	158.89
812.916	156.84
813.095	107.69
813.274	193.7
813.453	234.66
813.632	210.09
813.811	179.37
813.989	148.65
814.168	187.56
814.347	91.31
814.526	152.74
814.704	177.32
814.883	197.8
815.062	109.74
815.24	132.26
815.419	101.55
815.598	162.98
815.776	185.51
815.955	122.02
816.133	152.74
816.312	160.94
816.49	128.17
816.669	175.27
816.847	138.41
817.026	113.83
817.204	111.78
817.383	142.5
817.561	165.03
817.74	218.28
817.918	216.23
818.097	124.07
818.275	130.22
818.453	109.74
818.632	222.38
818.81	154.79
818.988	191.66
819.167	134.31
819.345	83.11
819.523	140.46
819.701	165.03
819.879	136.36
820.058	107.69
820.236	132.26
820.414	122.02
820.592	134.31
820.77	148.65
820.948	146.6
821.127	134.31
821.305	87.21
821.483	68.78
821.661	142.5
821.839	87.21
822.017	95.4
822.195	99.5
822.373	144.55
822.551	132.26
822.729	66.73
822.907	160.94
823.085	169.13
823.262	134.31
823.44	140.46
823.618	154.79
823.796	156.84
823.974	136.36
824.152	103.59
824.329	111.78
824.507	177.32
824.685	76.97
824.863	89.26
825.04	126.12
825.218	79.02
825.396	167.08
825.574	165.03
825.751	109.74
825.929	136.36
826.107	72.87
826.284	183.46
826.462	72.87
826.639	79.02
826.817	3.24
826.994	89.26
827.172	113.83
827.349	140.46
827.527	89.26
827.704	103.59
827.882	177.32
828.059	76.97
828.237	205.99
828.414	70.83
828.591	62.63
828.769	154.79
828.946	117.93
829.124	158.89
829.301	44.2
829.478	54.44
829.655	79.02
829.833	46.25
830.01	29.87
830.187	169.13
830.364	113.83
830.542	126.12
830.719	95.4
830.896	134.31
831.073	87.21
831.25	126.12
831.427	68.78
831.604	29.87
831.782	-27.48
831.959	83.11
832.136	148.65
832.313	165.03
832.49	58.54
832.667	95.4
832.844	103.59
833.021	132.26
833.198	107.69
833.374	83.11
833.551	60.59
833.728	138.41
833.905	83.11
834.082	50.35
834.259	60.59
834.436	99.5
834.612	105.64
834.789	99.5
834.966	85.16
835.143	81.07
835.319	13.48
835.496	152.74
835.673	50.35
835.85	23.72
836.026	103.59
836.203	64.68
836.38	44.2
836.556	79.02
836.733	142.5
836.909	97.45
837.086	11.43
837.262	29.87
837.439	-21.33
837.616	85.16
837.792	144.55
837.968	44.2
838.145	66.73
838.321	93.35
838.498	58.54
838.674	76.97
838.851	58.54
839.027	81.07
839.203	136.36
839.38	74.92
839.556	60.59
839.732	117.93
839.909	83.11
840.085	74.92
840.261	5.29
840.437	101.55
840.614	70.83
840.79	150.7
840.966	19.63
841.142	68.78
841.318	-15.19
841.494	42.15
841.671	38.06
841.847	25.77
842.023	46.25
842.199	95.4
842.375	46.25
842.551	36.01
842.727	48.3
842.903	58.54
843.079	15.53
843.255	99.5
843.431	64.68
843.607	72.87
843.783	62.63
843.959	11.43
844.134	74.92
844.31	76.97
844.486	3.24
844.662	40.11
844.838	3.24
845.013	87.21
845.189	46.25
845.365	-4.95
845.541	-41.81
845.716	-21.33
845.892	87.21
846.068	27.82
846.244	13.48
846.419	101.55
846.595	76.97
846.77	-23.38
846.946	85.16
847.122	29.87
847.297	-7
847.473	46.25
847.648	64.68
847.824	70.83
847.999	7.34
848.175	9.39
848.35	54.44
848.526	50.35
848.701	109.74
848.876	83.11
849.052	23.72
849.227	64.68
849.403	-23.38
849.578	40.11
849.753	-2.9
849.929	95.4
850.104	70.83
850.279	54.44
850.454	29.87
850.63	-2.9
850.805	-7
850.98	11.43
851.155	66.73
851.33	79.02
851.505	83.11
851.681	50.35
851.856	31.91
852.031	42.15
852.206	-17.24
852.381	-7
852.556	33.96
852.731	158.89
852.906	1.19
853.081	33.96
853.256	40.11
853.431	62.63
853.606	-25.43
853.781	44.2
853.956	42.15
854.131	66.73
854.305	7.34
854.48	21.67
854.655	76.97
854.83	87.21
855.005	46.25
855.18	31.91
855.354	5.29
855.529	-9.05
855.704	-2.9
855.879	15.53
856.053	48.3
856.228	79.02
856.403	21.67
856.577	50.35
856.752	27.82
856.926	25.77
857.101	97.45
857.276	3.24
857.45	7.34
857.625	-80.72
857.799	54.44
857.974	54.44
858.148	-78.68
858.323	-11.09
858.497	1.19
858.672	-0.85
858.846	38.06
859.02	29.87
859.195	-72.53
859.369	52.39
859.543	-43.86
859.718	-2.9
859.892	-19.29
860.066	46.25
860.241	25.77
860.415	13.48
860.589	25.77
860.763	56.49
860.938	13.48
861.112	68.78
861.286	19.63
861.46	29.87
861.634	-25.43
861.808	36.01
861.982	31.91
862.157	19.63
862.331	60.59
862.505	21.67
862.679	-31.57
862.853	13.48
863.027	-19.29
863.201	46.25
863.375	54.44
863.549	1.19
863.722	-11.09
863.896	-23.38
864.07	31.91
864.244	31.91
864.418	21.67
864.592	-35.67
864.766	40.11
864.939	-80.72
865.113	21.67
865.287	42.15
865.461	40.11
865.634	-31.57
865.808	62.63
865.982	-13.14
866.156	9.39
866.329	-31.57
866.503	27.82
866.676	58.54
866.85	-11.09
867.024	11.43
867.197	42.15
867.371	38.06
867.544	66.73
867.718	-9.05
867.891	-35.67
868.065	-52.05
868.238	11.43
868.412	89.26
868.585	79.02
868.759	11.43
868.932	1.19
869.105	21.67
869.279	-64.34
869.452	-31.57
869.625	25.77
869.799	-15.19
869.972	62.63
870.145	17.58
870.319	5.29
870.492	-11.09
870.665	-33.62
870.838	-58.2
871.011	52.39
871.185	-62.29
871.358	7.34
871.531	19.63
871.704	-19.29
871.877	58.54
872.05	-27.48
872.223	85.16
872.396	-7
872.569	42.15
872.742	27.82
872.915	58.54
873.088	76.97
873.261	44.2
873.434	33.96
873.607	-35.67
873.78	40.11
873.953	-13.14
874.126	29.87
874.299	-35.67
874.471	3.24
874.644	-7
874.817	-60.24
874.99	52.39
875.163	-9.05
875.335	17.58
875.508	-39.76
875.681	17.58
875.853	-11.09
876.026	-31.57
876.199	29.87
876.371	42.15
876.544	-4.95
876.717	46.25
876.889	-15.19
877.062	21.67
877.234	-93.01
877.407	-21.33
877.579	-11.09
877.752	48.3
877.924	5.29
878.097	9.39
878.269	3.24
878.442	13.48
878.614	62.63
878.786	46.25
878.959	25.77
879.131	-58.2
879.303	-70.48
879.476	33.96
879.648	1.19
879.82	-2.9
879.993	-21.33
880.165	19.63
880.337	-37.72
880.509	44.2
880.681	1.19
880.854	21.67
881.026	-2.9
881.198	60.59
881.37	-15.19
881.542	-13.14
881.714	42.15
881.886	-2.9
882.058	29.87
882.23	5.29
882.402	-64.34
882.574	66.73
882.746	52.39
882.918	15.53
883.09	38.06
883.262	-4.95
883.434	-21.33
883.606	9.39
883.778	-47.96
883.95	38.06
884.122	48.3
884.293	13.48
884.465	-15.19
884.637	-15.19
884.809	1.19
884.98	3.24
885.152	-23.38
885.324	66.73
885.496	-62.29
885.667	13.48
885.839	-52.05
886.011	-27.48
886.182	-31.57
886.354	-23.38
886.525	-29.52
886.697	11.43
886.869	-50
887.04	40.11
887.212	-2.9
887.383	25.77
887.555	-11.09
887.726	33.96
887.897	-27.48
888.069	-47.96
888.24	23.72
888.412	38.06
888.583	31.91
888.754	62.63
888.926	-2.9
889.097	-13.14
889.268	-11.09
889.44	-109.4
889.611	40.11
889.782	29.87
889.953	29.87
890.125	25.77
890.296	42.15
890.467	-11.09
890.638	-29.52
890.809	62.63
890.98	-25.43
891.151	-15.19
891.323	23.72
891.494	-37.72
891.665	3.24
891.836	33.96
892.007	-47.96
892.178	23.72
892.349	-9.05
892.52	-19.29
892.691	-43.86
892.862	3.24
893.032	-58.2
893.203	13.48
893.374	-60.24
893.545	19.63
893.716	-56.15
893.887	70.83
894.057	9.39
894.228	23.72
894.399	21.67
894.57	-47.96
894.74	-58.2
894.911	31.91
895.082	-27.48
895.253	33.96
895.423	11.43
895.594	33.96
895.764	-66.39
895.935	-27.48
896.106	-21.33
896.276	42.15
896.447	-39.76
896.617	-74.58
896.788	-76.63
896.958	72.87
897.129	-15.19
897.299	9.39
897.47	25.77
897.64	7.34
897.81	-15.19
897.981	-27.48
898.151	-11.09
898.322	40.11
898.492	46.25
898.662	-37.72
898.832	54.44
899.003	-80.72
899.173	-33.62
899.343	79.02
899.513	-19.29
