Data from USB4F104151__2__11-36-16-148.txt Node

Date: Fri Mar 14 11:36:16 EDT 2025
User: louis
Spectrometer: USB4F10415
Trigger mode: 4
Integration Time (sec): 2.000000E-2
Scans to average: 1
Electric dark correction enabled: true
Nonlinearity correction enabled: false
Boxcar width: 0
XAxis mode: Wavelengths
Number of Pixels in Spectrum: 3648
>>>>>Begin Spectral Data<<<<<
178.204	-69.12
178.424	-69.12
178.644	-69.12
178.864	-77.31
179.084	-44.54
179.304	-7.68
179.524	-60.93
179.744	16.9
179.964	25.09
180.184	-7.68
180.404	-19.97
180.624	68.09
180.844	0.51
181.064	-11.78
181.283	55.81
181.503	-22.02
181.723	-36.35
181.943	16.9
182.163	68.09
182.383	12.8
182.602	29.18
182.822	82.43
183.042	14.85
183.262	10.75
183.482	76.29
183.701	70.14
183.921	35.33
184.141	2.56
184.361	14.85
184.58	94.72
184.8	-11.78
185.02	-56.83
185.239	4.61
185.459	-1.54
185.679	0.51
185.898	-15.87
186.118	20.99
186.338	-24.06
186.557	27.14
186.777	-26.11
186.997	82.43
187.216	16.9
187.436	35.33
187.655	-36.35
187.875	76.29
188.095	20.99
188.314	8.7
188.534	8.7
188.753	-32.26
188.973	12.8
189.192	16.9
189.412	-19.97
189.631	76.29
189.851	25.09
190.07	-28.16
190.29	20.99
190.509	23.04
190.729	86.53
190.948	25.09
191.168	47.62
191.387	45.57
191.607	4.61
191.826	12.8
192.045	8.7
192.265	66.05
192.484	4.61
192.704	-3.58
192.923	-9.73
193.142	98.81
193.362	51.71
193.581	20.99
193.8	-1.54
194.02	-56.83
194.239	-17.92
194.458	33.28
194.678	-7.68
194.897	27.14
195.116	49.66
195.335	20.99
195.555	-44.54
195.774	23.04
195.993	53.76
196.212	61.95
196.432	53.76
196.651	33.28
196.87	-38.4
197.089	78.33
197.308	4.61
197.528	-24.06
197.747	41.47
197.966	-3.58
198.185	-101.89
198.404	-30.21
198.623	39.42
198.842	-1.54
199.062	111.1
199.281	150.01
199.5	-5.63
199.719	31.23
199.938	94.72
200.157	61.95
200.376	33.28
200.595	78.33
200.814	49.66
201.033	4.61
201.252	-7.68
201.471	27.14
201.69	18.94
201.909	-13.82
202.128	12.8
202.347	0.51
202.566	12.8
202.785	16.9
203.004	0.51
203.223	39.42
203.442	-28.16
203.661	25.09
203.879	39.42
204.098	51.71
204.317	-13.82
204.536	86.53
204.755	41.47
204.974	43.52
205.193	20.99
205.411	55.81
205.63	61.95
205.849	-15.87
206.068	8.7
206.287	-13.82
206.505	43.52
206.724	47.62
206.943	31.23
207.162	23.04
207.381	68.09
207.599	14.85
207.818	41.47
208.037	20.99
208.255	8.7
208.474	-17.92
208.693	-3.58
208.911	43.52
209.13	29.18
209.349	102.91
209.567	2.56
209.786	20.99
210.005	10.75
210.223	10.75
210.442	96.77
210.661	-19.97
210.879	64
211.098	10.75
211.316	-5.63
211.535	-7.68
211.753	-13.82
211.972	43.52
212.191	-11.78
212.409	8.7
212.628	20.99
212.846	2.56
213.065	33.28
213.283	107.01
213.502	-75.26
213.72	10.75
213.938	76.29
214.157	12.8
214.375	49.66
214.594	14.85
214.812	-19.97
215.031	-36.35
215.249	53.76
215.467	-19.97
215.686	-24.06
215.904	41.47
216.122	-44.54
216.341	98.81
216.559	31.23
216.778	82.43
216.996	61.95
217.214	-5.63
217.432	29.18
217.651	-54.78
217.869	18.94
218.087	14.85
218.306	4.61
218.524	16.9
218.742	-46.59
218.96	12.8
219.179	12.8
219.397	33.28
219.615	33.28
219.833	-15.87
220.051	41.47
220.27	-11.78
220.488	33.28
220.706	49.66
220.924	10.75
221.142	25.09
221.36	25.09
221.578	143.87
221.796	29.18
222.015	12.8
222.233	-3.58
222.451	-44.54
222.669	-24.06
222.887	68.09
223.105	29.18
223.323	-7.68
223.541	23.04
223.759	8.7
223.977	61.95
224.195	12.8
224.413	12.8
224.631	-7.68
224.849	39.42
225.067	82.43
225.285	-17.92
225.503	-3.58
225.721	-40.45
225.939	94.72
226.157	82.43
226.375	41.47
226.592	-7.68
226.81	-9.73
227.028	57.86
227.246	113.15
227.464	59.9
227.682	45.57
227.9	-17.92
228.117	29.18
228.335	-22.02
228.553	53.76
228.771	-42.5
228.989	-65.02
229.206	-5.63
229.424	-24.06
229.642	16.9
229.86	2.56
230.077	49.66
230.295	18.94
230.513	113.15
230.731	51.71
230.948	-34.3
231.166	33.28
231.384	16.9
231.601	14.85
231.819	86.53
232.037	78.33
232.254	-7.68
232.472	45.57
232.689	16.9
232.907	72.19
233.125	-36.35
233.342	37.38
233.56	16.9
233.777	45.57
233.995	82.43
234.213	66.05
234.43	-11.78
234.648	35.33
234.865	-19.97
235.083	2.56
235.3	76.29
235.518	-65.02
235.735	47.62
235.953	-1.54
236.17	70.14
236.388	-38.4
236.605	25.09
236.822	57.86
237.04	64
237.257	0.51
237.475	37.38
237.692	23.04
237.909	-42.5
238.127	4.61
238.344	23.04
238.562	12.8
238.779	27.14
238.996	10.75
239.214	45.57
239.431	16.9
239.648	41.47
239.865	-26.11
240.083	33.28
240.3	37.38
240.517	8.7
240.735	-26.11
240.952	10.75
241.169	64
241.386	-36.35
241.603	47.62
241.821	27.14
242.038	78.33
242.255	18.94
242.472	61.95
242.689	6.66
242.907	86.53
243.124	90.62
243.341	-3.58
243.558	10.75
243.775	16.9
243.992	-5.63
244.209	37.38
244.426	43.52
244.643	31.23
244.86	49.66
245.078	-15.87
245.295	25.09
245.512	25.09
245.729	31.23
245.946	41.47
246.163	8.7
246.38	64
246.597	31.23
246.814	0.51
247.031	-19.97
247.248	-3.58
247.464	29.18
247.681	-44.54
247.898	25.09
248.115	33.28
248.332	-50.69
248.549	-36.35
248.766	53.76
248.983	64
249.2	-11.78
249.417	20.99
249.633	-3.58
249.85	-5.63
250.067	12.8
250.284	74.24
250.501	0.51
250.717	98.81
250.934	16.9
251.151	37.38
251.368	-69.12
251.585	47.62
251.801	61.95
252.018	33.28
252.235	47.62
252.451	59.9
252.668	45.57
252.885	-15.87
253.102	4.61
253.318	-3.58
253.535	61.95
253.752	41.47
253.968	102.91
254.185	25.09
254.401	23.04
254.618	-13.82
254.835	-11.78
255.051	61.95
255.268	35.33
255.484	74.24
255.701	-44.54
255.917	57.86
256.134	-5.63
256.351	80.38
256.567	29.18
256.784	12.8
257	-77.31
257.217	-19.97
257.433	-5.63
257.65	45.57
257.866	84.48
258.082	-36.35
258.299	70.14
258.515	33.28
258.732	-19.97
258.948	-26.11
259.165	43.52
259.381	18.94
259.597	-32.26
259.814	-3.58
260.03	20.99
260.246	29.18
260.463	66.05
260.679	59.9
260.895	10.75
261.112	55.81
261.328	18.94
261.544	-3.58
261.761	98.81
261.977	-17.92
262.193	78.33
262.409	102.91
262.626	57.86
262.842	27.14
263.058	-44.54
263.274	27.14
263.49	-1.54
263.707	14.85
263.923	-22.02
264.139	35.33
264.355	-22.02
264.571	84.48
264.787	2.56
265.004	-32.26
265.22	6.66
265.436	10.75
265.652	76.29
265.868	47.62
266.084	-24.06
266.3	-13.82
266.516	-7.68
266.732	14.85
266.948	16.9
267.164	33.28
267.38	37.38
267.596	12.8
267.812	31.23
268.028	49.66
268.244	16.9
268.46	80.38
268.676	10.75
268.892	78.33
269.108	10.75
269.324	-15.87
269.54	25.09
269.756	111.1
269.972	43.52
270.188	-36.35
270.403	35.33
270.619	78.33
270.835	-15.87
271.051	8.7
271.267	-32.26
271.483	4.61
271.698	23.04
271.914	43.52
272.13	-22.02
272.346	10.75
272.562	82.43
272.777	51.71
272.993	43.52
273.209	-22.02
273.425	74.24
273.64	-9.73
273.856	80.38
274.072	47.62
274.287	10.75
274.503	-5.63
274.719	-11.78
274.934	-24.06
275.15	25.09
275.366	88.57
275.581	57.86
275.797	-9.73
276.012	16.9
276.228	-19.97
276.444	12.8
276.659	6.66
276.875	-1.54
277.09	27.14
277.306	61.95
277.521	113.15
277.737	68.09
277.952	29.18
278.168	-19.97
278.383	39.42
278.599	25.09
278.814	57.86
279.03	29.18
279.245	94.72
279.461	-19.97
279.676	68.09
279.892	-52.74
280.107	35.33
280.322	29.18
280.538	4.61
280.753	16.9
280.969	33.28
281.184	-32.26
281.399	25.09
281.615	39.42
281.83	18.94
282.045	10.75
282.26	-19.97
282.476	-3.58
282.691	43.52
282.906	-3.58
283.122	12.8
283.337	-7.68
283.552	20.99
283.767	14.85
283.983	-1.54
284.198	18.94
284.413	4.61
284.628	96.77
284.843	-26.11
285.058	-15.87
285.274	53.76
285.489	-1.54
285.704	45.57
285.919	51.71
286.134	-24.06
286.349	-22.02
286.564	59.9
286.779	53.76
286.995	-19.97
287.21	-7.68
287.425	49.66
287.64	-19.97
287.855	-28.16
288.07	-52.74
288.285	84.48
288.5	96.77
288.715	27.14
288.93	8.7
289.145	-44.54
289.36	-22.02
289.575	43.52
289.79	10.75
290.004	-36.35
290.219	-62.98
290.434	12.8
290.649	41.47
290.864	-38.4
291.079	2.56
291.294	10.75
291.509	-1.54
291.724	80.38
291.938	6.66
292.153	12.8
292.368	39.42
292.583	49.66
292.798	84.48
293.012	-15.87
293.227	10.75
293.442	33.28
293.657	18.94
293.871	66.05
294.086	0.51
294.301	29.18
294.516	14.85
294.73	12.8
294.945	-15.87
295.16	37.38
295.374	53.76
295.589	131.58
295.804	-48.64
296.018	16.9
296.233	55.81
296.447	86.53
296.662	27.14
296.877	51.71
297.091	-19.97
297.306	59.9
297.52	-15.87
297.735	61.95
297.949	20.99
298.164	80.38
298.378	31.23
298.593	53.76
298.807	-19.97
299.022	-62.98
299.236	104.96
299.451	47.62
299.665	-17.92
299.88	23.04
300.094	86.53
300.309	68.09
300.523	-28.16
300.737	6.66
300.952	37.38
301.166	20.99
301.381	-19.97
301.595	59.9
301.809	-5.63
302.024	-17.92
302.238	-19.97
302.452	31.23
302.667	109.05
302.881	10.75
303.095	-19.97
303.309	70.14
303.524	20.99
303.738	25.09
303.952	-71.17
304.166	27.14
304.381	-5.63
304.595	78.33
304.809	27.14
305.023	74.24
305.237	6.66
305.452	33.28
305.666	74.24
305.88	20.99
306.094	27.14
306.308	-19.97
306.522	96.77
306.736	49.66
306.95	-40.45
307.164	27.14
307.379	8.7
307.593	10.75
307.807	82.43
308.021	49.66
308.235	-3.58
308.449	23.04
308.663	51.71
308.877	-13.82
309.091	-11.78
309.305	57.86
309.519	-7.68
309.733	8.7
309.947	-44.54
310.161	59.9
310.374	78.33
310.588	-32.26
310.802	12.8
311.016	59.9
311.23	-26.11
311.444	-19.97
311.658	29.18
311.872	29.18
312.085	-7.68
312.299	41.47
312.513	20.99
312.727	-15.87
312.941	66.05
313.154	61.95
313.368	51.71
313.582	12.8
313.796	45.57
314.009	57.86
314.223	84.48
314.437	37.38
314.651	100.86
314.864	82.43
315.078	12.8
315.292	59.9
315.505	-22.02
315.719	88.57
315.933	4.61
316.146	16.9
316.36	59.9
316.573	27.14
316.787	49.66
317.001	35.33
317.214	-17.92
317.428	-15.87
317.641	76.29
317.855	86.53
318.068	66.05
318.282	-24.06
318.495	100.86
318.709	74.24
318.922	-11.78
319.136	66.05
319.349	66.05
319.563	23.04
319.776	16.9
319.99	70.14
320.203	74.24
320.417	27.14
320.63	35.33
320.843	61.95
321.057	-62.98
321.27	2.56
321.483	14.85
321.697	14.85
321.91	-22.02
322.124	51.71
322.337	4.61
322.55	16.9
322.763	-42.5
322.977	68.09
323.19	27.14
323.403	41.47
323.617	61.95
323.83	82.43
324.043	68.09
324.256	51.71
324.469	10.75
324.683	61.95
324.896	23.04
325.109	82.43
325.322	92.67
325.535	49.66
325.748	45.57
325.962	-24.06
326.175	-13.82
326.388	-3.58
326.601	53.76
326.814	-38.4
327.027	57.86
327.24	25.09
327.453	31.23
327.666	37.38
327.879	-19.97
328.092	16.9
328.305	51.71
328.518	59.9
328.731	35.33
328.944	31.23
329.157	10.75
329.37	39.42
329.583	45.57
329.796	53.76
330.009	-54.78
330.222	16.9
330.435	72.19
330.648	0.51
330.861	8.7
331.073	70.14
331.286	27.14
331.499	0.51
331.712	127.49
331.925	-17.92
332.138	70.14
332.35	47.62
332.563	12.8
332.776	53.76
332.989	68.09
333.202	-44.54
333.414	37.38
333.627	14.85
333.84	12.8
334.053	33.28
334.265	86.53
334.478	10.75
334.691	53.76
334.903	33.28
335.116	31.23
335.329	16.9
335.541	39.42
335.754	29.18
335.966	41.47
336.179	57.86
336.392	43.52
336.604	2.56
336.817	2.56
337.029	37.38
337.242	66.05
337.454	2.56
337.667	16.9
337.88	-26.11
338.092	25.09
338.305	49.66
338.517	66.05
338.729	68.09
338.942	70.14
339.154	-9.73
339.367	-30.21
339.579	35.33
339.792	14.85
340.004	25.09
340.217	76.29
340.429	59.9
340.641	-46.59
340.854	59.9
341.066	51.71
341.278	14.85
341.491	45.57
341.703	66.05
341.915	-11.78
342.128	4.61
342.34	102.91
342.552	45.57
342.764	43.52
342.977	-3.58
343.189	-40.45
343.401	-3.58
343.613	-13.82
343.826	-65.02
344.038	49.66
344.25	94.72
344.462	41.47
344.674	98.81
344.886	86.53
345.099	49.66
345.311	33.28
345.523	31.23
345.735	18.94
345.947	76.29
346.159	4.61
346.371	-15.87
346.583	51.71
346.795	59.9
347.007	29.18
347.219	37.38
347.431	61.95
347.643	-24.06
347.855	47.62
348.067	53.76
348.279	-7.68
348.491	12.8
348.703	74.24
348.915	-19.97
349.127	53.76
349.339	78.33
349.551	107.01
349.763	27.14
349.975	41.47
350.187	104.96
350.399	25.09
350.61	76.29
350.822	10.75
351.034	45.57
351.246	6.66
351.458	8.7
351.669	12.8
351.881	29.18
352.093	25.09
352.305	41.47
352.517	49.66
352.728	117.25
352.94	4.61
353.152	102.91
353.363	20.99
353.575	10.75
353.787	31.23
353.999	90.62
354.21	39.42
354.422	33.28
354.633	-15.87
354.845	12.8
355.057	66.05
355.268	4.61
355.48	-69.12
355.692	10.75
355.903	8.7
356.115	6.66
356.326	45.57
356.538	66.05
356.749	-34.3
356.961	33.28
357.172	16.9
357.384	29.18
357.595	45.57
357.807	74.24
358.018	137.73
358.23	47.62
358.441	57.86
358.653	4.61
358.864	-3.58
359.075	10.75
359.287	107.01
359.498	25.09
359.709	45.57
359.921	18.94
360.132	33.28
360.344	51.71
360.555	-28.16
360.766	33.28
360.977	-1.54
361.189	76.29
361.4	35.33
361.611	59.9
361.823	-13.82
362.034	37.38
362.245	45.57
362.456	64
362.667	0.51
362.879	43.52
363.09	49.66
363.301	80.38
363.512	6.66
363.723	47.62
363.935	16.9
364.146	78.33
364.357	25.09
364.568	-26.11
364.779	-24.06
364.99	53.76
365.201	27.14
365.412	119.29
365.623	33.28
365.834	45.57
366.045	37.38
366.256	-26.11
366.467	4.61
366.678	12.8
366.889	61.95
367.1	51.71
367.311	2.56
367.522	59.9
367.733	80.38
367.944	43.52
368.155	-7.68
368.366	12.8
368.577	61.95
368.788	115.2
368.999	-15.87
369.209	51.71
369.42	37.38
369.631	53.76
369.842	41.47
370.053	29.18
370.264	57.86
370.474	-42.5
370.685	82.43
370.896	12.8
371.107	25.09
371.317	111.1
371.528	-28.16
371.739	74.24
371.95	70.14
372.16	57.86
372.371	8.7
372.582	100.86
372.792	35.33
373.003	61.95
373.214	41.47
373.424	47.62
373.635	18.94
373.846	68.09
374.056	45.57
374.267	80.38
374.477	27.14
374.688	16.9
374.898	47.62
375.109	70.14
375.319	45.57
375.53	37.38
375.74	-28.16
375.951	59.9
376.161	-13.82
376.372	35.33
376.582	119.29
376.793	-34.3
377.003	51.71
377.214	64
377.424	-42.5
377.635	49.66
377.845	33.28
378.055	156.16
378.266	61.95
378.476	29.18
378.686	78.33
378.897	70.14
379.107	109.05
379.317	41.47
379.528	20.99
379.738	102.91
379.948	-58.88
380.158	66.05
380.369	86.53
380.579	20.99
380.789	82.43
380.999	-34.3
381.21	51.71
381.42	-13.82
381.63	27.14
381.84	61.95
382.05	76.29
382.261	47.62
382.471	70.14
382.681	-28.16
382.891	78.33
383.101	80.38
383.311	0.51
383.521	135.68
383.731	45.57
383.941	66.05
384.151	-3.58
384.361	74.24
384.571	45.57
384.781	115.2
384.991	14.85
385.201	49.66
385.411	66.05
385.621	104.96
385.831	74.24
386.041	61.95
386.251	41.47
386.461	94.72
386.671	37.38
386.881	29.18
387.091	6.66
387.301	123.39
387.511	78.33
387.72	4.61
387.93	113.15
388.14	39.42
388.35	20.99
388.56	12.8
388.769	23.04
388.979	2.56
389.189	-1.54
389.399	61.95
389.609	94.72
389.818	88.57
390.028	123.39
390.238	64
390.447	8.7
390.657	94.72
390.867	55.81
391.076	61.95
391.286	10.75
391.496	-19.97
391.705	51.71
391.915	104.96
392.125	14.85
392.334	33.28
392.544	49.66
392.753	4.61
392.963	74.24
393.172	88.57
393.382	10.75
393.591	39.42
393.801	53.76
394.01	84.48
394.22	43.52
394.429	4.61
394.639	41.47
394.848	64
395.058	86.53
395.267	25.09
395.477	102.91
395.686	61.95
395.895	78.33
396.105	90.62
396.314	76.29
396.524	72.19
396.733	57.86
396.942	84.48
397.152	76.29
397.361	111.1
397.57	131.58
397.78	121.34
397.989	82.43
398.198	47.62
398.407	109.05
398.617	57.86
398.826	80.38
399.035	82.43
399.244	141.82
399.453	88.57
399.663	51.71
399.872	92.67
400.081	27.14
400.29	107.01
400.499	68.09
400.708	115.2
400.917	82.43
401.127	121.34
401.336	55.81
401.545	152.06
401.754	80.38
401.963	127.49
402.172	61.95
402.381	117.25
402.59	109.05
402.799	96.77
403.008	104.96
403.217	88.57
403.426	137.73
403.635	96.77
403.844	92.67
404.053	84.48
404.262	102.91
404.471	176.64
404.68	119.29
404.888	131.58
405.097	115.2
405.306	57.86
405.515	164.35
405.724	123.39
405.933	145.92
406.142	119.29
406.35	147.97
406.559	221.69
406.768	156.16
406.977	176.64
407.185	154.11
407.394	176.64
407.603	135.68
407.812	123.39
408.02	195.07
408.229	131.58
408.438	160.25
408.646	186.88
408.855	78.33
409.064	225.79
409.272	174.59
409.481	174.59
409.69	172.54
409.898	221.69
410.107	201.21
410.315	238.08
410.524	231.93
410.733	233.98
410.941	215.55
411.15	205.31
411.358	252.41
411.567	330.23
411.775	350.71
411.984	225.79
412.192	340.47
412.401	328.19
412.609	381.43
412.818	356.86
413.026	418.3
413.234	334.33
413.443	393.72
413.651	397.82
413.86	455.16
414.068	451.07
414.276	459.26
414.485	477.69
414.693	332.28
414.901	463.35
415.11	510.46
415.318	504.31
415.526	475.64
415.734	545.27
415.943	653.81
416.151	635.38
416.359	596.47
416.567	702.97
416.776	709.11
416.984	668.15
417.192	760.31
417.4	809.46
417.608	721.4
417.817	811.51
418.025	872.95
418.233	874.99
418.441	752.12
418.649	856.56
418.857	975.35
419.065	963.06
419.273	973.3
419.481	1053.17
419.689	1124.85
419.897	1102.32
420.105	1141.23
420.313	1120.75
420.521	1237.49
420.729	1235.44
420.937	1274.35
421.145	1331.69
421.353	1348.08
421.561	1462.76
421.769	1487.34
421.977	1593.83
422.185	1571.3
422.393	1526.25
422.601	1708.52
422.809	1696.23
423.017	1638.89
423.224	1741.29
423.432	1776.1
423.64	1892.84
423.848	1999.33
424.056	1962.47
424.263	2216.41
424.471	2146.78
424.679	2101.73
424.887	2251.23
425.094	2240.99
425.302	2390.49
425.51	2503.13
425.718	2539.99
425.925	2513.37
426.133	2646.49
426.341	2570.71
426.548	2806.23
426.756	2867.67
426.964	2937.3
427.171	3092.94
427.379	3097.04
427.586	3148.24
427.794	3314.13
428.001	3465.68
428.209	3643.85
428.417	3619.27
428.624	3727.82
428.832	3891.65
429.039	3682.76
429.247	3920.32
429.454	4209.09
429.662	4436.41
429.869	4112.83
430.076	4489.66
430.284	4268.48
430.491	4567.48
430.699	4858.29
430.906	4688.31
431.114	4714.94
431.321	4977.08
431.528	4903.35
431.736	5427.63
431.943	5603.75
432.15	5575.08
432.358	5552.56
432.565	5810.6
432.772	5904.81
432.979	6324.64
433.187	6240.67
433.394	6379.93
433.601	6775.19
433.808	6752.66
434.016	6723.99
434.223	6928.79
434.43	7254.42
434.637	7213.46
434.844	7846.28
435.052	7750.03
435.259	7743.88
435.466	7895.43
435.673	7797.13
435.88	8470.91
436.087	8776.06
436.294	8657.28
436.501	8589.69
436.708	8708.48
436.915	9163.12
437.122	9367.92
437.329	9476.46
437.537	9494.9
437.743	9922.92
437.95	9869.67
438.157	10361.19
438.364	10613.09
438.571	10586.46
438.778	10721.63
438.985	11673.93
439.192	11250
439.399	11600.21
439.606	11643.21
439.813	12054.86
440.02	12603.71
440.227	12507.46
440.433	12255.56
440.64	12693.82
440.847	12618.05
441.054	13037.88
441.261	13613.36
441.467	13570.35
441.674	13984.04
441.881	14600.48
442.088	14178.6
442.294	14262.57
442.501	14639.39
442.708	14911.77
442.914	15464.72
443.121	16185.61
443.328	15958.28
443.534	16773.38
443.741	16388.36
443.948	16226.57
444.154	17672.43
444.361	17060.09
444.568	17600.76
444.774	17297.66
444.981	17828.08
445.187	17953.01
445.394	18917.6
445.6	18813.15
445.807	20433.1
446.013	19376.34
446.22	19923.15
446.426	20570.31
446.633	20912.32
446.839	21483.7
447.046	20617.41
447.252	21641.4
447.459	21790.9
447.665	21846.19
447.871	22833.32
448.078	23613.59
448.284	22499.5
448.491	23212.19
448.697	24184.97
448.903	24187.02
449.11	24455.31
449.316	24004.75
449.522	24543.37
449.728	25155.71
449.935	25467
450.141	25735.29
450.347	26189.94
450.553	25221.25
450.76	25456.76
450.966	26249.33
451.172	25981.04
451.378	26667.11
451.584	26155.12
451.791	26835.05
451.997	26706.02
452.203	27269.22
452.409	27152.48
452.615	27002.98
452.821	25843.83
453.027	25673.85
453.233	26962.02
453.44	26282.09
453.646	26333.29
453.852	26257.52
454.058	26556.52
454.264	25639.03
454.47	26396.78
454.676	25856.12
454.882	26835.05
455.088	24424.59
455.294	24832.13
455.5	25155.71
455.705	25399.42
455.911	24350.86
456.117	24004.75
456.323	23672.98
456.529	22581.42
456.735	23406.75
456.941	22605.99
457.147	22368.43
457.352	22016.18
457.558	21289.15
457.764	21575.86
457.97	21217.47
458.176	20594.89
458.381	20732.1
458.587	19744.98
458.793	19529.94
458.999	18481.38
459.204	19800.27
459.41	19300.57
459.616	18047.21
459.821	18118.89
460.027	17946.86
460.233	17877.23
460.438	16568.58
460.644	16953.6
460.85	15986.96
461.055	15859.98
461.261	16161.03
461.466	14749.98
461.672	14330.15
461.878	15337.75
462.083	14336.29
462.289	14098.73
462.494	13785.39
462.7	13343.03
462.905	12935.48
463.111	13431.09
463.316	13418.8
463.522	13078.84
463.727	13158.71
463.932	13060.41
464.138	12818.75
464.343	13175.09
464.549	12548.42
464.754	13084.98
464.959	12765.5
465.165	12777.79
465.37	12298.56
465.575	12001.61
465.781	12491.07
465.986	12454.21
466.191	11981.13
466.397	11831.63
466.602	11331.92
466.807	11680.08
467.012	11639.12
467.218	11546.96
467.423	11538.77
467.628	11506
467.833	12319.04
468.038	11667.79
468.244	11370.83
468.449	11538.77
468.654	11127.13
468.859	11135.32
469.064	11202.9
469.269	10797.4
469.474	10750.3
469.679	11200.85
469.885	10600.8
470.09	10817.88
470.295	10809.69
470.5	10553.69
470.705	10645.85
470.91	10344.8
471.115	10088.81
471.32	10441.06
471.525	10312.03
471.73	9959.78
471.935	10010.98
472.139	9640.3
472.344	9900.39
472.549	9709.93
472.754	9613.68
472.959	9298.29
473.164	9195.89
473.369	9156.98
473.574	9509.23
473.778	9474.42
473.983	9326.96
474.188	9242.99
474.393	8892.79
474.598	8872.31
474.802	8696.19
475.007	8704.38
475.212	8806.78
475.417	8515.97
475.621	8548.73
475.826	8237.44
476.031	8305.03
476.235	8012.17
476.44	8315.27
476.645	7936.39
476.849	8049.03
477.054	8108.42
477.259	7809.42
477.463	7776.65
477.668	7645.58
477.872	7866.76
478.077	7537.04
478.282	7412.11
478.486	7252.37
478.691	7373.2
478.895	7467.41
479.1	7313.81
479.304	7184.79
479.509	7131.54
479.713	7385.49
479.918	6965.65
480.122	7000.47
480.326	7070.1
480.531	6805.91
480.735	7014.8
480.94	6992.28
481.144	7143.83
481.348	6912.41
481.553	6787.48
481.757	6814.1
481.961	6848.92
482.166	6984.09
482.37	6687.13
482.574	6633.88
482.778	6832.54
482.983	6939.03
483.187	7004.57
483.391	6820.25
483.595	6644.12
483.8	6711.71
484.004	6750.62
484.208	6820.25
484.412	6775.19
484.616	6713.75
484.821	6830.49
485.025	6709.66
485.229	6791.58
485.433	6609.31
485.637	6783.38
485.841	6750.62
486.045	6611.36
486.249	6920.6
486.453	6640.03
486.657	6793.62
486.861	6822.3
487.065	6390.17
487.269	6855.06
487.473	6439.33
487.677	6705.56
487.881	6746.52
488.085	6740.38
488.289	6906.26
488.493	6752.66
488.697	6941.08
488.901	6758.81
489.105	6760.86
489.309	6816.15
489.512	6857.11
489.716	6842.78
489.92	6771.1
490.124	6713.75
490.328	6893.97
490.531	6767
490.735	6943.13
490.939	6844.82
491.143	7035.28
491.346	6742.43
491.55	7168.4
491.754	7016.85
491.958	7188.88
492.161	6785.43
492.365	7047.57
492.569	7016.85
492.772	6957.46
492.976	7192.98
493.18	7254.42
493.383	7336.34
493.587	7172.5
493.79	7457.17
493.994	7297.42
494.197	7324.05
494.401	7487.89
494.605	7254.42
494.808	7534.99
495.012	7500.17
495.215	7604.62
495.419	7588.24
495.622	7788.94
495.825	7795.08
496.029	7833.99
496.232	7795.08
496.436	7977.35
496.639	7979.4
496.843	8038.79
497.046	8204.67
497.249	8245.63
497.453	8391.04
497.656	8436.1
497.859	8550.78
498.063	8481.15
498.266	8733.05
498.469	8589.69
498.673	8688
498.876	8907.13
499.079	8825.21
499.282	9007.48
499.485	9224.56
499.689	9077.11
499.892	9339.25
500.095	9365.87
500.298	9689.45
500.501	9470.32
500.705	9746.8
500.908	9912.68
501.111	10049.89
501.314	10135.91
501.517	9867.63
501.72	10066.28
501.923	10269.03
502.126	10537.31
502.329	10502.5
502.532	10674.53
502.735	10604.89
502.938	10903.9
503.141	10926.43
503.344	11030.87
503.547	11125.08
503.75	11321.68
503.953	11467.09
504.156	11551.06
504.359	11549.01
504.562	11592.02
504.765	12198.21
504.968	12120.39
505.17	12437.83
505.373	12214.6
505.576	12364.1
505.779	12616
505.982	12616
506.185	12906.81
506.387	12886.33
506.59	12994.87
506.793	13312.31
506.996	13261.11
507.198	13594.93
507.401	13543.73
507.604	13803.82
507.807	13881.64
508.009	13994.28
508.212	14000.43
508.415	14453.03
508.617	14401.83
508.82	14788.89
509.022	14500.13
509.225	14792.99
509.428	15018.27
509.63	15116.57
509.833	15089.95
510.035	15589.65
510.238	15667.47
510.44	15696.14
510.643	15882.51
510.845	16029.96
511.048	15905.04
511.25	15995.15
511.453	16328.97
511.655	16679.17
511.858	16675.07
512.06	16947.45
512.262	16886.01
512.465	16926.97
512.667	17121.53
512.87	17355
513.072	17350.9
513.274	17807.6
513.477	17897.71
513.679	17811.7
513.881	18313.45
514.084	18342.12
514.286	18254.06
514.488	18383.08
514.69	18915.55
514.893	19251.42
515.095	19110.11
515.297	19267.8
515.499	19218.65
515.701	19497.17
515.904	19587.29
516.106	19871.95
516.308	20113.61
516.51	20451.53
516.712	20465.86
516.914	20179.15
517.116	20762.82
517.318	20879.55
517.52	20744.39
517.722	21346.49
517.925	21053.63
518.127	21389.5
518.329	21557.43
518.531	21522.62
518.733	21860.53
518.935	22296.75
519.136	22032.56
519.338	22530.22
519.54	22106.29
519.742	22943.91
519.944	22798.5
520.146	23195.81
520.348	23333.02
520.55	23367.84
520.752	23206.05
520.954	23949.46
521.155	23629.98
521.357	24041.62
521.559	24344.72
521.761	24428.68
521.963	24289.42
522.164	24508.55
522.366	24637.58
522.568	24819.85
522.77	24803.46
522.971	25628.79
523.173	25315.45
523.375	25505.91
523.576	25165.95
523.778	25669.75
523.98	26054.77
524.181	25872.5
524.383	25886.84
524.584	26400.88
524.786	26284.14
524.988	26511.47
525.189	26452.08
525.391	26650.73
525.592	27050.08
525.794	27045.99
525.995	26908.77
526.197	27140.19
526.398	27236.45
526.6	27439.2
526.801	27773.02
527.003	27560.03
527.204	27687
527.406	27666.52
527.607	27760.73
527.808	27834.46
528.01	27322.46
528.211	27789.4
528.412	28766.28
528.614	28006.48
528.815	28164.18
529.016	28285.01
529.218	28266.58
529.419	28362.83
529.62	28737.61
529.822	28282.96
530.023	28514.38
530.224	28375.12
530.425	28502.09
530.626	28411.98
530.828	28567.63
531.029	28905.54
531.23	28598.35
531.431	28563.53
531.632	29063.24
531.833	28964.93
532.035	28809.29
532.236	28835.91
532.437	29114.44
532.638	28653.64
532.839	29120.58
533.04	29395.01
533.241	28530.76
533.442	29450.3
533.643	29163.59
533.844	28801.1
534.045	28993.61
534.246	28891.21
534.447	29468.73
534.648	29067.33
534.849	29077.57
535.05	29067.33
535.251	29104.2
535.451	29149.25
535.652	29360.19
535.853	29096
536.054	29263.94
536.255	29421.63
536.456	28928.07
536.657	29612.09
536.857	29153.35
537.058	29028.42
537.259	29182.02
537.46	29399.1
537.66	29177.92
537.861	29284.42
538.062	29139.01
538.263	29153.35
538.463	29284.42
538.664	29200.45
538.865	29050.95
539.065	29345.86
539.266	29063.24
539.466	29376.58
539.667	28606.54
539.868	29237.31
540.068	29358.14
540.269	29126.72
540.469	29120.58
540.67	29018.18
540.87	29487.17
541.071	29206.59
541.271	29237.31
541.472	28956.74
541.672	28960.84
541.873	29012.04
542.073	28868.68
542.274	29366.34
542.474	29102.15
542.675	28807.24
542.875	29096
543.075	29091.91
543.276	28721.23
543.476	29395.01
543.676	29464.64
543.877	28942.41
544.077	29175.87
544.277	28837.96
544.478	28872.78
544.678	28807.24
544.878	28981.32
545.078	28923.97
545.279	28635.21
545.479	28897.35
545.679	29079.62
545.879	28852.3
546.079	28899.4
546.28	29048.9
546.48	28522.57
546.68	28969.03
546.88	28885.06
547.08	28991.56
547.28	28997.7
547.48	28911.69
547.68	28952.65
547.88	29046.85
548.081	29132.87
548.281	28909.64
548.481	28590.16
548.681	28999.75
548.881	28792.9
549.081	28588.11
549.28	28893.26
549.48	28688.46
549.68	28655.69
549.88	29007.94
550.08	28420.17
550.28	28694.6
550.48	28721.23
550.68	29100.1
550.88	28987.46
551.08	28510.28
551.279	28637.26
551.479	28670.03
551.679	28799.05
551.879	28553.29
552.079	28950.6
552.278	28479.57
552.478	28786.76
552.678	28350.54
552.878	28880.97
553.077	28538.96
553.277	28467.28
553.477	28938.31
553.676	28287.06
553.876	28391.5
554.076	28147.79
554.275	28387.41
554.475	28164.18
554.674	28639.31
554.874	28831.82
555.074	28364.88
555.273	28348.5
555.473	28418.13
555.672	28045.4
555.872	28246.1
556.071	28059.73
556.271	28164.18
556.47	28270.67
556.67	27912.28
556.869	27775.06
557.068	28018.77
557.268	27891.8
557.467	28029.01
557.667	28188.75
557.866	28133.46
558.065	28057.68
558.265	27918.42
558.464	27656.28
558.663	27971.67
558.863	27490.4
559.062	28309.58
559.261	27760.73
559.461	28139.6
559.66	27310.18
559.859	27709.53
560.058	27394.14
560.258	27715.67
560.457	27299.94
560.656	27531.36
560.855	27883.61
561.054	27684.95
561.253	27005.03
561.453	27562.08
561.652	27498.59
561.851	27547.74
562.05	27179.11
562.249	27138.15
562.448	27408.48
562.647	26914.92
562.846	27330.65
563.045	27107.43
563.244	26806.37
563.443	27291.74
563.642	26519.66
563.841	26798.18
564.04	26669.16
564.239	27097.19
564.438	26468.46
564.637	26583.15
564.836	26701.93
565.035	26361.97
565.234	26843.24
565.432	26366.06
565.631	26296.43
565.83	26587.24
566.029	26357.87
566.228	26245.23
566.427	26130.55
566.625	26103.92
566.824	25806.97
567.023	26099.83
567.222	25743.48
567.42	25839.73
567.619	26187.89
567.818	25682.04
568.016	25843.83
568.215	25768.05
568.414	25706.62
568.612	25874.55
568.811	25489.53
569.01	25624.7
569.208	25538.68
569.407	25847.93
569.605	24975.49
569.804	25634.94
570.002	25075.84
570.201	25229.44
570.4	25190.53
570.598	25135.23
570.797	25311.36
570.995	25215.1
571.193	25100.42
571.392	25469.05
571.59	24838.28
571.789	24860.8
571.987	25016.45
572.186	24817.8
572.384	24854.66
572.582	24750.21
572.781	24864.9
572.979	24187.02
573.177	24733.83
573.376	24912
573.574	24205.45
573.772	24154.26
573.971	24352.91
574.169	24250.51
574.367	24004.75
574.565	24232.08
574.763	23838.87
574.962	23830.68
575.16	23828.63
575.358	24084.62
575.556	23441.56
575.754	24092.82
575.952	23718.04
576.151	23738.52
576.349	23658.65
576.547	23341.21
576.745	23570.58
576.943	23570.58
577.141	23462.04
577.339	23087.26
577.537	23228.57
577.735	23296.16
577.933	23099.55
578.131	23277.72
578.329	22976.67
578.527	22646.95
578.725	22681.77
578.923	23003.3
579.121	22730.92
579.319	23062.69
579.516	22991.01
579.714	22913.19
579.912	22831.27
580.11	22632.61
580.308	22405.29
580.506	22505.64
580.704	22005.94
580.901	22413.48
581.099	22571.18
581.297	22364.33
581.495	22134.96
581.692	22202.54
581.89	21967.02
582.088	22358.19
582.285	21823.67
582.483	22089.9
582.681	21901.49
582.878	21905.59
583.076	21782.71
583.274	21995.7
583.471	21485.75
583.669	21872.82
583.866	21571.77
584.064	21786.8
584.262	21270.72
584.459	21373.11
584.657	21297.34
584.854	21407.93
585.052	21115.07
585.249	21508.28
585.447	21051.58
585.644	21018.82
585.841	21237.95
586.039	21332.15
586.236	20932.8
586.434	20865.22
586.631	20762.82
586.828	20605.13
587.026	20830.4
587.223	20828.35
587.42	20660.42
587.618	20904.13
587.815	20281.55
588.012	20719.81
588.21	20295.88
588.407	20515.01
588.604	20095.18
588.801	20209.87
588.999	20283.59
589.196	20203.72
589.393	20302.03
589.59	20039.89
589.787	19757.27
589.984	19777.75
590.182	19683.54
590.379	19865.81
590.576	19566.81
590.773	19740.88
590.97	19830.99
591.167	19323.1
591.364	19581.14
591.561	19544.28
591.758	19568.85
591.955	19374.3
592.152	19800.27
592.349	19192.03
592.546	19378.39
592.743	19171.55
592.94	19200.22
593.137	19087.58
593.334	19157.21
593.531	18999.52
593.727	18864.35
593.924	19099.87
594.121	18800.87
594.318	18815.2
594.515	18675.94
594.712	18702.56
594.908	18649.32
595.105	18548.96
595.302	18305.26
595.499	18467.05
595.696	18446.57
595.892	18290.92
596.089	18387.18
596.286	18491.62
596.482	18290.92
596.679	18116.84
596.876	18084.08
597.072	18067.69
597.269	17985.77
597.466	17905.9
597.662	17840.37
597.859	17600.76
598.055	17625.33
598.252	17490.17
598.448	17565.94
598.645	17463.54
598.841	17633.52
599.038	17420.53
599.234	17615.09
599.431	17180.92
599.627	17418.49
599.824	17623.28
600.02	17271.03
600.217	17004.8
600.413	17250.55
600.609	16812.29
600.806	16924.93
601.002	17361.14
601.198	16830.72
601.395	16724.22
601.591	16709.89
601.787	17010.94
601.984	16597.25
602.18	16857.34
602.376	16521.48
602.572	16595.2
602.769	16343.3
602.965	16335.11
603.161	16851.2
603.357	16462.08
603.553	16472.32
603.75	16615.68
603.946	16380.17
604.142	15980.81
604.338	16007.44
604.534	16171.27
604.73	16019.72
604.926	15814.93
605.122	15974.67
605.318	15839.5
605.514	15657.23
605.71	16105.74
605.906	15960.33
606.102	15614.23
606.298	15546.64
606.494	15667.47
606.69	15829.26
606.886	15937.8
607.082	15491.35
607.278	15612.18
607.474	15483.16
607.67	15456.53
607.866	15327.51
608.062	15548.69
608.257	15360.28
608.453	15431.96
608.649	15575.31
608.845	15130.91
609.041	15204.63
609.236	15495.44
609.432	15102.23
609.628	15352.09
609.824	15079.71
610.019	14815.52
610.215	15001.88
610.411	15022.36
610.606	14876.96
610.802	14960.92
610.998	15008.03
611.193	14856.48
611.389	14833.95
611.584	14770.46
611.78	14647.58
611.976	14815.52
612.171	14909.72
612.367	14549.28
612.562	14670.11
612.758	14663.97
612.953	14516.51
613.149	14692.64
613.344	14453.03
613.539	14784.8
613.735	14438.69
613.93	14637.34
614.126	14481.7
614.321	14551.33
614.517	14448.93
614.712	14485.79
614.907	14479.65
615.103	14397.73
615.298	14455.08
615.493	14471.46
615.688	14063.91
615.884	14481.7
616.079	14283.05
616.274	14344.49
616.47	14246.18
616.665	13943.08
616.86	13971.75
617.055	13994.28
617.25	13924.65
617.445	14020.91
617.641	13906.22
617.836	13816.11
618.031	13607.22
618.226	13877.55
618.421	13801.77
618.616	13938.99
618.811	13867.31
619.006	14033.19
619.201	13494.58
619.396	13797.68
619.591	13351.22
619.786	13502.77
619.981	13373.75
620.176	13635.89
620.371	13199.67
620.566	13369.65
620.761	13236.53
620.956	13087.03
621.151	12958.01
621.346	13119.8
621.541	13150.52
621.735	13238.58
621.93	12671.29
622.125	12882.24
622.32	12560.7
622.515	12689.73
622.709	12536.13
622.904	12697.92
623.099	12566.85
623.294	12458.31
623.488	12341.57
623.683	12192.07
623.878	12087.62
624.072	12251.46
624.267	12304.71
624.462	12024.14
624.656	12190.02
624.851	12017.99
625.046	11790.67
625.24	11727.18
625.435	11882.83
625.629	11675.98
625.824	11579.73
626.018	11673.93
626.213	11233.62
626.407	11442.51
626.602	11059.54
626.796	11520.34
626.991	11323.73
627.185	11180.37
627.38	11153.75
627.574	11149.65
627.768	10901.85
627.963	11024.73
628.157	10871.13
628.352	10975.58
628.546	10817.88
628.74	10688.86
628.935	10455.39
629.129	10695
629.323	10477.92
629.517	10469.73
629.712	10369.38
629.906	10391.91
630.1	10232.16
630.294	10189.16
630.489	10176.87
630.683	10189.16
630.877	9988.46
631.071	9902.44
631.265	10129.77
631.459	9922.92
631.653	9939.3
631.848	9757.04
632.042	9877.87
632.236	10058.09
632.43	9638.25
632.624	9761.13
632.818	9546.09
633.012	9496.94
633.206	9642.35
633.4	9605.49
633.594	9609.58
633.788	9314.67
633.982	9253.23
634.176	9367.92
634.369	9259.38
634.563	9101.69
634.757	9163.12
634.951	9142.64
635.145	9087.35
635.339	9023.86
635.533	8917.37
635.726	8929.66
635.92	8876.41
636.114	8597.88
636.308	8788.35
636.501	8716.67
636.695	8683.9
636.889	8546.69
637.083	8644.99
637.276	8483.2
637.47	8585.6
637.664	8483.2
637.857	8409.47
638.051	8395.14
638.244	8388.99
638.438	8409.47
638.632	8511.87
638.825	8094.08
639.019	8319.36
639.212	8049.03
639.406	8147.33
639.599	8096.13
639.793	8094.08
639.986	7844.23
640.18	7915.91
640.373	8063.36
640.567	7889.29
640.76	7946.63
640.954	7743.88
641.147	7508.37
641.34	7682.44
641.534	7588.24
641.727	7586.19
641.92	7670.15
642.114	7534.99
642.307	7442.83
642.5	7373.2
642.694	7412.11
642.887	7430.54
643.08	7524.75
643.273	7340.43
643.467	7090.58
643.66	7127.44
643.853	7092.63
644.046	7201.17
644.239	7025.04
644.432	7014.8
644.626	6998.42
644.819	7145.87
645.012	6992.28
645.205	7111.06
645.398	6900.12
645.591	6961.56
645.784	6840.73
645.977	6742.43
646.17	6853.02
646.363	6715.8
646.556	6668.7
646.749	6687.13
646.942	6607.26
647.135	6791.58
647.328	6513.05
647.521	6685.08
647.714	6443.42
647.907	6343.07
648.099	6400.41
648.292	6384.03
648.485	6435.23
648.678	6300.06
648.871	6343.07
649.064	6289.82
649.256	6422.94
649.449	6087.08
649.642	6105.51
649.835	6058.4
650.027	6099.36
650.22	6060.45
650.413	6042.02
650.605	6037.92
650.798	5910.95
650.991	5714.34
651.183	5925.29
651.376	5874.09
651.568	5792.17
651.761	5919.14
651.954	5833.13
652.146	5657
652.339	5775.78
652.531	5693.87
652.724	5673.39
652.916	5618.09
653.109	5431.73
653.301	5556.65
653.494	5613.99
653.686	5530.03
653.879	5450.16
654.071	5429.68
654.263	5435.82
654.456	5405.1
654.648	5609.9
654.84	5325.23
655.033	5380.53
655.225	5159.35
655.417	5118.39
655.61	5358
655.802	5390.77
655.994	5302.7
656.186	5257.65
656.379	5265.84
656.571	5255.6
656.763	4981.17
656.955	5108.15
657.148	4964.79
657.34	4942.26
657.532	5034.42
657.724	4972.98
657.916	5032.37
658.108	4944.31
658.3	4919.73
658.492	4907.45
658.684	4727.22
658.876	4874.68
659.068	4921.78
659.26	4823.48
659.452	4784.57
659.644	4757.94
659.836	4868.53
660.028	4716.98
660.22	4682.17
660.412	4667.83
660.604	4547
660.796	4657.59
660.988	4540.86
661.18	4643.26
661.372	4424.12
661.563	4436.41
661.755	4381.12
661.947	4422.08
662.139	4463.04
662.331	4264.38
662.522	4209.09
662.714	4305.34
662.906	4258.24
663.097	4231.62
663.289	4278.72
663.481	4239.81
663.673	4391.36
663.864	4254.14
664.056	4204.99
664.247	4035.01
664.439	4071.87
664.631	4164.03
664.822	4190.66
665.014	4200.9
665.205	4186.56
665.397	4211.14
665.588	4071.87
665.78	4004.29
665.971	3924.42
666.163	4053.44
666.354	3908.04
666.546	3932.61
666.737	3949
666.929	3938.76
667.12	3983.81
667.311	3770.82
667.503	3766.73
667.694	3805.64
667.885	3805.64
668.077	3862.98
668.268	3729.86
668.459	3830.21
668.651	3852.74
668.842	3738.05
669.033	3736.01
669.224	3680.71
669.416	3766.73
669.607	3809.73
669.798	3762.63
669.989	3697.1
670.18	3779.01
670.371	3664.33
670.563	3590.6
670.754	3715.53
670.945	3441.1
671.136	3541.45
671.327	3537.35
671.518	3609.03
671.709	3645.9
671.9	3606.98
672.091	3557.83
672.282	3494.35
672.473	3422.67
672.664	3486.15
672.855	3518.92
673.046	3514.83
673.237	3584.46
673.428	3353.04
673.619	3387.85
673.809	3570.12
674	3336.65
674.191	3338.7
674.382	3367.37
674.573	3441.1
674.764	3402.19
674.954	3367.37
675.145	3375.56
675.336	3396.04
675.527	3385.8
675.717	3381.71
675.908	3185.1
676.099	3461.58
676.289	3389.9
676.48	3193.3
676.671	3213.77
676.861	3256.78
677.052	3236.3
677.243	3166.67
677.433	3201.49
677.624	3187.15
677.814	3166.67
678.005	3252.69
678.195	3172.82
678.386	3193.3
678.576	3213.77
678.767	3178.96
678.957	3285.45
679.148	3279.31
679.338	3086.8
679.529	3215.82
679.719	3105.23
679.909	3248.59
680.1	3133.9
680.29	3183.06
680.481	3201.49
680.671	3183.06
680.861	3107.28
681.052	3158.48
681.242	3088.85
681.432	3178.96
681.622	3115.47
681.813	3140.05
682.003	3039.7
682.193	3113.42
682.383	3002.83
682.573	3092.94
682.764	3029.46
682.954	2929.11
683.144	3090.9
683.334	3035.6
683.524	2929.11
683.714	2998.74
683.904	2939.35
684.094	2961.87
684.284	2978.26
684.474	3127.76
684.664	2982.35
684.854	2986.45
685.044	2931.16
685.234	2982.35
685.424	2839
685.614	2965.97
685.804	2965.97
685.994	2945.49
686.184	2795.99
686.374	2906.58
686.564	2884.05
686.753	2841.04
686.943	2900.44
687.133	2750.93
687.323	2857.43
687.513	2828.76
687.702	2750.93
687.892	2724.31
688.082	2740.69
688.272	2812.37
688.461	2732.5
688.651	2744.79
688.841	2619.86
689.03	2654.68
689.22	2671.06
689.41	2660.82
689.599	2720.21
689.789	2599.38
689.979	2605.53
690.168	2656.73
690.358	2634.2
690.547	2621.91
690.737	2550.23
690.926	2568.66
691.116	2535.9
691.305	2499.03
691.495	2492.89
691.684	2451.93
691.874	2431.45
692.063	2523.61
692.252	2470.36
692.442	2421.21
692.631	2316.76
692.82	2400.73
693.01	2482.65
693.199	2374.11
693.388	2415.07
693.578	2327
693.767	2308.57
693.956	2474.46
694.146	2281.95
694.335	2404.83
694.524	2384.35
694.713	2249.18
694.902	2316.76
695.092	2286.05
695.281	2208.22
695.47	2263.52
695.659	2320.86
695.848	2159.07
696.037	2243.04
696.226	2197.98
696.415	2204.13
696.604	2306.52
696.793	2175.45
696.982	2105.82
697.171	2175.45
697.36	2009.57
697.549	2179.55
697.738	2152.93
697.927	2013.67
698.116	2144.74
698.305	2165.21
698.494	2101.73
698.683	2140.64
698.872	2038.24
699.061	2083.3
699.25	2109.92
699.438	2005.47
699.627	2073.06
699.816	2089.44
700.005	2003.43
700.193	2068.96
700.382	2017.76
700.571	2013.67
700.76	1999.33
700.948	2003.43
701.137	2009.57
701.326	1993.19
701.514	2036.19
701.703	2056.67
701.892	1987.04
702.08	2132.45
702.269	1954.27
702.457	2003.43
702.646	2040.29
702.834	1944.03
703.023	1950.18
703.212	2048.48
703.4	2044.38
703.589	2103.78
703.777	1954.27
703.965	2122.21
704.154	1995.23
704.342	2001.38
704.531	2105.82
704.719	1905.12
704.907	2001.38
705.096	1815.01
705.284	1966.56
705.472	1993.19
705.661	1966.56
705.849	1911.27
706.037	2062.82
706.226	2036.19
706.414	1997.28
706.602	1929.7
706.79	2060.77
706.979	2001.38
707.167	1913.31
707.355	1921.51
707.543	1978.85
707.731	1939.94
707.919	1933.79
708.107	1976.8
708.296	2028
708.484	1987.04
708.672	2028
708.86	1948.13
709.048	2060.77
709.236	2077.15
709.424	2093.54
709.612	2003.43
709.8	1964.51
709.988	2048.48
710.176	2009.57
710.364	2068.96
710.551	2030.05
710.739	2075.1
710.927	1933.79
711.115	2019.81
711.303	1970.66
711.491	1980.9
711.679	2052.58
711.866	2071.01
712.054	2017.76
712.242	1978.85
712.43	2052.58
712.617	2064.86
712.805	2009.57
712.993	2089.44
713.181	1970.66
713.368	2101.73
713.556	2136.54
713.744	2062.82
713.931	2073.06
714.119	2118.11
714.306	2050.53
714.494	1956.32
714.682	2099.68
714.869	2148.83
715.057	2197.98
715.244	2023.91
715.432	2152.93
715.619	2140.64
715.807	2003.43
715.994	2044.38
716.182	1950.18
716.369	2107.87
716.556	2050.53
716.744	2075.1
716.931	2058.72
717.119	2189.79
717.306	2144.74
717.493	2044.38
717.681	2071.01
717.868	2124.26
718.055	2122.21
718.242	2150.88
718.43	2187.74
718.617	2175.45
718.804	2056.67
718.991	2130.4
719.179	2101.73
719.366	2091.49
719.553	2191.84
719.74	2118.11
719.927	2204.13
720.114	2202.08
720.301	2140.64
720.488	2114.02
720.676	2159.07
720.863	2167.26
721.05	2148.83
721.237	2152.93
721.424	2200.03
721.611	2226.65
721.798	2150.88
721.985	2085.34
722.172	2028
722.358	2298.33
722.545	2265.57
722.732	2099.68
722.919	2105.82
723.106	2150.88
723.293	2187.74
723.48	2294.24
723.667	2222.56
723.853	2167.26
724.04	2281.95
724.227	2302.43
724.414	2142.69
724.6	2218.46
724.787	2296.28
724.974	2298.33
725.161	2204.13
725.347	2202.08
725.534	2150.88
725.72	2240.99
725.907	2179.55
726.094	2335.2
726.28	2249.18
726.467	2212.32
726.653	2224.61
726.84	2204.13
727.027	2306.52
727.213	2183.65
727.4	2288.09
727.586	2259.42
727.773	2396.64
727.959	2271.71
728.145	2288.09
728.332	2228.7
728.518	2220.51
728.705	2302.43
728.891	2232.8
729.077	2228.7
729.264	2318.81
729.45	2355.68
729.636	2257.37
729.823	2347.48
730.009	2230.75
730.195	2238.94
730.382	2380.25
730.568	2337.24
730.754	2263.52
730.94	2406.88
731.126	2298.33
731.313	2372.06
731.499	2425.31
731.685	2333.15
731.871	2322.91
732.057	2349.53
732.243	2318.81
732.429	2277.85
732.615	2245.09
732.801	2232.8
732.987	2191.84
733.173	2329.05
733.359	2339.29
733.545	2290.14
733.731	2214.37
733.917	2404.83
734.103	2367.96
734.289	2327
734.475	2384.35
734.661	2322.91
734.847	2372.06
735.033	2318.81
735.219	2415.07
735.404	2365.92
735.59	2288.09
735.776	2310.62
735.962	2296.28
736.148	2370.01
736.333	2261.47
736.519	2181.6
736.705	2257.37
736.89	2267.61
737.076	2298.33
737.262	2226.65
737.447	2273.76
737.633	2314.72
737.819	2337.24
738.004	2337.24
738.19	2281.95
738.375	2337.24
738.561	2302.43
738.747	2281.95
738.932	2265.57
739.118	2261.47
739.303	2247.13
739.489	2279.9
739.674	2101.73
739.859	2257.37
740.045	2087.39
740.23	2214.37
740.416	2148.83
740.601	2269.66
740.786	2165.21
740.972	2200.03
741.157	2052.58
741.342	2193.89
741.528	2185.69
741.713	2224.61
741.898	2140.64
742.084	2157.02
742.269	2171.36
742.454	2212.32
742.639	2163.17
742.824	2148.83
743.01	2216.41
743.195	2134.5
743.38	2097.63
743.565	2087.39
743.75	2281.95
743.935	2138.59
744.12	2089.44
744.305	1962.47
744.49	2118.11
744.675	1993.19
744.86	2038.24
745.045	2054.62
745.23	2134.5
745.415	2079.2
745.6	2042.34
745.785	2054.62
745.97	1970.66
746.155	1950.18
746.34	2038.24
746.525	2038.24
746.71	2003.43
746.895	1980.9
747.079	1960.42
747.264	1939.94
747.449	1860.07
747.634	1966.56
747.819	1984.99
748.003	1866.21
748.188	1749.48
748.373	1849.83
748.557	1841.64
748.742	1788.39
748.927	1841.64
749.111	1835.49
749.296	1915.36
749.481	1782.24
749.665	1726.95
749.85	1845.73
750.034	1796.58
750.219	1831.4
750.404	1700.33
750.588	1774.05
750.773	1755.62
750.957	1653.22
751.141	1763.81
751.326	1669.61
751.51	1583.59
751.695	1769.96
751.879	1667.56
752.064	1679.85
752.248	1628.65
752.432	1591.78
752.617	1632.74
752.801	1528.3
752.985	1679.85
753.17	1540.58
753.354	1581.54
753.538	1599.98
753.722	1571.3
753.907	1532.39
754.091	1485.29
754.275	1487.34
754.459	1432.04
754.643	1550.82
754.828	1452.52
755.012	1501.67
755.196	1554.92
755.38	1384.94
755.564	1495.53
755.748	1415.66
755.932	1401.32
756.116	1356.27
756.3	1395.18
756.484	1309.16
756.668	1399.27
756.852	1380.84
757.036	1434.09
757.22	1339.88
757.404	1241.58
757.588	1425.9
757.772	1237.49
757.956	1260.01
758.14	1315.31
758.323	1296.88
758.507	1311.21
758.691	1300.97
758.875	1296.88
759.059	1331.69
759.242	1233.39
759.426	1280.49
759.61	1208.81
759.794	1221.1
759.977	1243.63
760.161	1407.47
760.345	1241.58
760.528	1225.2
760.712	1268.2
760.895	1186.29
761.079	1171.95
761.263	1169.9
761.446	1143.28
761.63	1192.43
761.813	1174
761.997	1098.22
762.18	1145.33
762.364	1083.89
762.547	1098.22
762.731	1120.75
762.914	1141.23
763.098	1085.94
763.281	1092.08
763.464	1057.26
763.648	1096.18
763.831	1079.79
764.015	1004.02
764.198	1116.65
764.381	1063.41
764.564	1040.88
764.748	1128.94
764.931	1028.59
765.114	969.2
765.297	1053.17
765.481	1090.03
765.664	1083.89
765.847	1053.17
766.03	1036.78
766.213	1036.78
766.397	1008.11
766.58	973.3
766.763	1006.06
766.946	1044.98
767.129	1020.4
767.312	938.48
767.495	1069.55
767.678	963.06
767.861	924.15
768.044	997.87
768.227	1061.36
768.41	915.95
768.593	940.53
768.776	1016.3
768.959	999.92
769.142	1012.21
769.324	942.58
769.507	944.63
769.69	889.33
769.873	981.49
770.056	874.99
770.239	987.63
770.421	905.71
770.604	942.58
770.787	913.91
770.97	840.18
771.152	946.67
771.335	840.18
771.518	887.28
771.7	844.28
771.883	995.82
772.066	842.23
772.248	799.22
772.431	899.57
772.613	918
772.796	821.75
772.978	903.67
773.161	918
773.343	831.99
773.526	866.8
773.708	719.35
773.891	885.23
774.073	784.88
774.256	799.22
774.438	815.6
774.621	762.36
774.803	725.49
774.985	803.32
775.168	881.14
775.35	729.59
775.532	768.5
775.715	752.12
775.897	760.31
776.079	760.31
776.261	786.93
776.444	676.34
776.626	700.92
776.808	741.88
776.99	723.44
777.173	657.91
777.355	750.07
777.537	672.25
777.719	729.59
777.901	731.64
778.083	651.77
778.265	727.54
778.447	711.16
778.629	553.46
778.811	662.01
778.993	647.67
779.175	680.44
779.357	662.01
779.539	590.33
779.721	651.77
779.903	561.66
780.085	666.1
780.267	575.99
780.449	545.27
780.631	606.71
780.812	573.94
780.994	600.57
781.176	545.27
781.358	569.85
781.54	594.42
781.721	629.24
781.903	649.72
782.085	569.85
782.267	522.74
782.448	494.07
782.63	541.18
782.812	590.33
782.993	541.18
783.175	535.03
783.357	518.65
783.538	520.7
783.72	539.13
783.901	473.59
784.083	522.74
784.264	563.7
784.446	487.93
784.627	422.39
784.809	479.74
784.99	487.93
785.172	475.64
785.353	485.88
785.535	524.79
785.716	459.26
785.897	485.88
786.079	442.87
786.26	420.35
786.441	496.12
786.623	369.15
786.804	461.3
786.985	451.07
787.167	455.16
787.348	430.59
787.529	432.63
787.71	469.5
787.891	408.06
788.073	418.3
788.254	440.83
788.435	440.83
788.616	438.78
788.797	420.35
788.978	436.73
789.159	330.23
789.34	315.9
789.522	395.77
789.703	406.01
789.884	416.25
790.065	393.72
790.246	338.43
790.427	332.28
790.607	387.58
790.788	457.21
790.969	363
791.15	346.62
791.331	377.34
791.512	326.14
791.693	299.52
791.874	342.52
792.054	477.69
792.235	305.66
792.416	301.56
792.597	367.1
792.778	283.13
792.958	293.37
793.139	367.1
793.32	350.71
793.5	305.66
793.681	348.67
793.862	254.46
794.042	313.85
794.223	291.32
794.404	233.98
794.584	336.38
794.765	307.71
794.945	303.61
795.126	340.47
795.306	320
795.487	322.04
795.667	324.09
795.848	379.39
796.028	315.9
796.209	309.76
796.389	305.66
796.57	309.76
796.75	231.93
796.93	287.23
797.111	334.33
797.291	258.56
797.471	217.6
797.652	260.6
797.832	244.22
798.012	348.67
798.192	274.94
798.373	324.09
798.553	244.22
798.733	274.94
798.913	238.08
799.093	260.6
799.274	305.66
799.454	281.08
799.634	268.8
799.814	248.32
799.994	309.76
800.174	346.62
800.354	287.23
800.534	160.25
800.714	248.32
800.894	281.08
801.074	193.02
801.254	221.69
801.434	328.19
801.614	233.98
801.794	209.4
801.974	610.81
802.154	219.64
802.334	182.78
802.514	193.02
802.693	193.02
802.873	180.73
803.053	231.93
803.233	272.89
803.413	238.08
803.592	184.83
803.772	240.12
803.952	287.23
804.131	260.6
804.311	193.02
804.491	274.94
804.67	186.88
804.85	217.6
805.03	152.06
805.209	266.75
805.389	223.74
805.568	195.07
805.748	244.22
805.928	180.73
806.107	236.03
806.287	209.4
806.466	180.73
806.646	199.16
806.825	178.69
807.004	209.4
807.184	207.36
807.363	221.69
807.543	190.97
807.722	205.31
807.901	272.89
808.081	195.07
808.26	125.44
808.439	221.69
808.619	236.03
808.798	152.06
808.977	236.03
809.156	199.16
809.336	176.64
809.515	231.93
809.694	135.68
809.873	154.11
810.052	242.17
810.231	193.02
810.411	180.73
810.59	135.68
810.769	188.93
810.948	207.36
811.127	137.73
811.306	195.07
811.485	96.77
811.664	176.64
811.843	168.45
812.022	174.59
812.201	221.69
812.38	137.73
812.559	143.87
812.737	215.55
812.916	76.29
813.095	184.83
813.274	188.93
813.453	190.97
813.632	229.88
813.811	186.88
813.989	141.82
814.168	156.16
814.347	152.06
814.526	164.35
814.704	160.25
814.883	129.53
815.062	133.63
815.24	100.86
815.419	127.49
815.598	158.21
815.776	156.16
815.955	113.15
816.133	143.87
816.312	117.25
816.49	117.25
816.669	78.33
816.847	152.06
817.026	137.73
817.204	127.49
817.383	94.72
817.561	104.96
817.74	199.16
817.918	160.25
818.097	129.53
818.275	225.79
818.453	184.83
818.632	86.53
818.81	102.91
818.988	123.39
819.167	172.54
819.345	152.06
819.523	117.25
819.701	172.54
819.879	123.39
820.058	152.06
820.236	125.44
820.414	119.29
820.592	70.14
820.77	84.48
820.948	127.49
821.127	141.82
821.305	172.54
821.483	90.62
821.661	139.77
821.839	195.07
822.017	131.58
822.195	76.29
822.373	145.92
822.551	88.57
822.729	180.73
822.907	152.06
823.085	195.07
823.262	37.38
823.44	98.81
823.618	133.63
823.796	139.77
823.974	109.05
824.152	107.01
824.329	64
824.507	193.02
824.685	150.01
824.863	193.02
825.04	35.33
825.218	160.25
825.396	23.04
825.574	94.72
825.751	127.49
825.929	117.25
826.107	31.23
826.284	107.01
826.462	139.77
826.639	74.24
826.817	29.18
826.994	195.07
827.172	102.91
827.349	195.07
827.527	131.58
827.704	74.24
827.882	82.43
828.059	82.43
828.237	127.49
828.414	131.58
828.591	25.09
828.769	131.58
828.946	133.63
829.124	121.34
829.301	119.29
829.478	20.99
829.655	102.91
829.833	201.21
830.01	100.86
830.187	88.57
830.364	57.86
830.542	88.57
830.719	137.73
830.896	86.53
831.073	102.91
831.25	111.1
831.427	84.48
831.604	164.35
831.782	78.33
831.959	96.77
832.136	57.86
832.313	86.53
832.49	64
832.667	150.01
832.844	10.75
833.021	117.25
833.198	61.95
833.374	6.66
833.551	84.48
833.728	29.18
833.905	51.71
834.082	88.57
834.259	82.43
834.436	94.72
834.612	94.72
834.789	107.01
834.966	98.81
835.143	53.76
835.319	111.1
835.496	68.09
835.673	82.43
835.85	74.24
836.026	70.14
836.203	88.57
836.38	72.19
836.556	111.1
836.733	92.67
836.909	84.48
837.086	70.14
837.262	37.38
837.439	76.29
837.616	107.01
837.792	45.57
837.968	66.05
838.145	86.53
838.321	102.91
838.498	78.33
838.674	115.2
838.851	57.86
839.027	68.09
839.203	43.52
839.38	61.95
839.556	59.9
839.732	147.97
839.909	104.96
840.085	74.24
840.261	51.71
840.437	66.05
840.614	92.67
840.79	141.82
840.966	4.61
841.142	55.81
841.318	78.33
841.494	29.18
841.671	111.1
841.847	-1.54
842.023	68.09
842.199	107.01
842.375	-50.69
842.551	53.76
842.727	2.56
842.903	90.62
843.079	20.99
843.255	49.66
843.431	88.57
843.607	94.72
843.783	-11.78
843.959	129.53
844.134	49.66
844.31	88.57
844.486	23.04
844.662	72.19
844.838	59.9
845.013	37.38
845.189	51.71
845.365	102.91
845.541	94.72
845.716	49.66
845.892	-60.93
846.068	25.09
846.244	-15.87
846.419	51.71
846.595	-13.82
846.77	82.43
846.946	51.71
847.122	90.62
847.297	115.2
847.473	53.76
847.648	72.19
847.824	88.57
847.999	25.09
848.175	37.38
848.35	104.96
848.526	25.09
848.701	41.47
848.876	76.29
849.052	37.38
849.227	88.57
849.403	107.01
849.578	-7.68
849.753	66.05
849.929	86.53
850.104	27.14
850.279	12.8
850.454	94.72
850.63	115.2
850.805	88.57
850.98	78.33
851.155	10.75
851.33	121.34
851.505	10.75
851.681	76.29
851.856	64
852.031	16.9
852.206	41.47
852.381	29.18
852.556	0.51
852.731	51.71
852.906	88.57
853.081	23.04
853.256	78.33
853.431	88.57
853.606	6.66
853.781	-19.97
853.956	4.61
854.131	41.47
854.305	8.7
854.48	35.33
854.655	-13.82
854.83	-60.93
855.005	45.57
855.18	4.61
855.354	14.85
855.529	55.81
855.704	0.51
855.879	10.75
856.053	6.66
856.228	-1.54
856.403	45.57
856.577	39.42
856.752	-26.11
856.926	51.71
857.101	94.72
857.276	18.94
857.45	49.66
857.625	86.53
857.799	64
857.974	45.57
858.148	-97.79
858.323	61.95
858.497	-19.97
858.672	-19.97
858.846	14.85
859.02	76.29
859.195	35.33
859.369	-40.45
859.543	23.04
859.718	98.81
859.892	49.66
860.066	92.67
860.241	8.7
860.415	10.75
860.589	43.52
860.763	-67.07
860.938	2.56
861.112	27.14
861.286	61.95
861.46	8.7
861.634	70.14
861.808	12.8
861.982	20.99
862.157	-30.21
862.331	20.99
862.505	8.7
862.679	119.29
862.853	49.66
863.027	4.61
863.201	18.94
863.375	92.67
863.549	78.33
863.722	14.85
863.896	66.05
864.07	-1.54
864.244	31.23
864.418	14.85
864.592	33.28
864.766	39.42
864.939	51.71
865.113	-1.54
865.287	49.66
865.461	61.95
865.634	68.09
865.808	-9.73
865.982	31.23
866.156	8.7
866.329	41.47
866.503	18.94
866.676	45.57
866.85	12.8
867.024	-5.63
867.197	107.01
867.371	74.24
867.544	27.14
867.718	-9.73
867.891	-19.97
868.065	29.18
868.238	-3.58
868.412	-15.87
868.585	2.56
868.759	-36.35
868.932	27.14
869.105	20.99
869.279	-15.87
869.452	64
869.625	35.33
869.799	0.51
869.972	4.61
870.145	70.14
870.319	8.7
870.492	-52.74
870.665	20.99
870.838	18.94
871.011	14.85
871.185	20.99
871.358	49.66
871.531	57.86
871.704	-3.58
871.877	6.66
872.05	37.38
872.223	0.51
872.396	-19.97
872.569	27.14
872.742	12.8
872.915	-7.68
873.088	70.14
873.261	-5.63
873.434	49.66
873.607	47.62
873.78	76.29
873.953	-30.21
874.126	59.9
874.299	55.81
874.471	-28.16
874.644	-9.73
874.817	43.52
874.99	55.81
875.163	90.62
875.335	25.09
875.508	53.76
875.681	88.57
875.853	-44.54
876.026	49.66
876.199	4.61
876.371	8.7
876.544	35.33
876.717	29.18
876.889	45.57
877.062	51.71
877.234	-42.5
877.407	8.7
877.579	-38.4
877.752	76.29
877.924	59.9
878.097	53.76
878.269	0.51
878.442	27.14
878.614	-22.02
878.786	25.09
878.959	-3.58
879.131	-11.78
879.303	-101.89
879.476	35.33
879.648	70.14
879.82	43.52
879.993	-5.63
880.165	-30.21
880.337	-93.69
880.509	12.8
880.681	-11.78
880.854	-11.78
881.026	94.72
881.198	45.57
881.37	-26.11
881.542	12.8
881.714	57.86
881.886	10.75
882.058	49.66
882.23	2.56
882.402	45.57
882.574	23.04
882.746	-9.73
882.918	57.86
883.09	6.66
883.262	0.51
883.434	20.99
883.606	27.14
883.778	96.77
883.95	25.09
884.122	53.76
884.293	-22.02
884.465	-11.78
884.637	18.94
884.809	-60.93
884.98	70.14
885.152	84.48
885.324	18.94
885.496	-19.97
885.667	-42.5
885.839	66.05
886.011	-56.83
886.182	12.8
886.354	-28.16
886.525	61.95
886.697	8.7
886.869	-60.93
887.04	100.86
887.212	59.9
887.383	92.67
887.555	2.56
887.726	-13.82
887.897	23.04
888.069	-11.78
888.24	4.61
888.412	-24.06
888.583	45.57
888.754	33.28
888.926	25.09
889.097	20.99
889.268	-52.74
889.44	109.05
889.611	-24.06
889.782	53.76
889.953	35.33
890.125	47.62
890.296	72.19
890.467	72.19
890.638	-28.16
890.809	107.01
890.98	6.66
891.151	-3.58
891.323	59.9
891.494	-17.92
891.665	20.99
891.836	29.18
892.007	74.24
892.178	2.56
892.349	14.85
892.52	-19.97
892.691	-32.26
892.862	25.09
893.032	-3.58
893.203	41.47
893.374	14.85
893.545	-9.73
893.716	-13.82
893.887	-83.45
894.057	8.7
894.228	-50.69
894.399	57.86
894.57	27.14
894.74	0.51
894.911	12.8
895.082	23.04
895.253	31.23
895.423	-19.97
895.594	29.18
895.764	123.39
895.935	20.99
896.106	-11.78
896.276	-1.54
896.447	-15.87
896.617	31.23
896.788	-62.98
896.958	82.43
897.129	-60.93
897.299	33.28
897.47	-5.63
897.64	-62.98
897.81	-11.78
897.981	61.95
898.151	37.38
898.322	55.81
898.492	-5.63
898.662	8.7
898.832	20.99
899.003	0.51
899.173	37.38
899.343	23.04
899.513	-69.12
