Data from USB4F104151__19__11-36-30-527.txt Node

Date: Fri Mar 14 11:36:30 EDT 2025
User: louis
Spectrometer: USB4F10415
Trigger mode: 4
Integration Time (sec): 2.000000E-2
Scans to average: 1
Electric dark correction enabled: true
Nonlinearity correction enabled: false
Boxcar width: 0
XAxis mode: Wavelengths
Number of Pixels in Spectrum: 3648
>>>>>Begin Spectral Data<<<<<
178.204	-11.78
178.424	-11.78
178.644	-11.78
178.864	-30.21
179.084	-15.87
179.304	-19.97
179.524	-1.54
179.744	-36.35
179.964	16.9
180.184	-1.54
180.404	51.71
180.624	10.75
180.844	-32.26
181.064	-9.73
181.283	66.05
181.503	-40.45
181.723	-3.58
181.943	35.33
182.163	2.56
182.383	18.94
182.602	57.86
182.822	-13.82
183.042	-32.26
183.262	4.61
183.482	41.47
183.701	10.75
183.921	4.61
184.141	-26.11
184.361	51.71
184.58	14.85
184.8	41.47
185.02	47.62
185.239	49.66
185.459	18.94
185.679	-9.73
185.898	-5.63
186.118	18.94
186.338	68.09
186.557	16.9
186.777	-48.64
186.997	-24.06
187.216	27.14
187.436	10.75
187.655	16.9
187.875	51.71
188.095	-15.87
188.314	76.29
188.534	76.29
188.753	8.7
188.973	-30.21
189.192	-9.73
189.412	43.52
189.631	27.14
189.851	39.42
190.07	90.62
190.29	84.48
190.509	35.33
190.729	43.52
190.948	88.57
191.168	68.09
191.387	2.56
191.607	137.73
191.826	59.9
192.045	53.76
192.265	64
192.484	6.66
192.704	74.24
192.923	0.51
193.142	-3.58
193.362	37.38
193.581	70.14
193.8	66.05
194.02	57.86
194.239	-34.3
194.458	96.77
194.678	-22.02
194.897	8.7
195.116	27.14
195.335	90.62
195.555	27.14
195.774	64
195.993	20.99
196.212	2.56
196.432	2.56
196.651	35.33
196.87	-46.59
197.089	16.9
197.308	74.24
197.528	51.71
197.747	-17.92
197.966	-26.11
198.185	49.66
198.404	-13.82
198.623	107.01
198.842	74.24
199.062	18.94
199.281	59.9
199.5	92.67
199.719	41.47
199.938	76.29
200.157	23.04
200.376	41.47
200.595	72.19
200.814	-3.58
201.033	39.42
201.252	-32.26
201.471	80.38
201.69	55.81
201.909	6.66
202.128	25.09
202.347	35.33
202.566	-50.69
202.785	61.95
203.004	-13.82
203.223	84.48
203.442	18.94
203.661	55.81
203.879	29.18
204.098	61.95
204.317	43.52
204.536	23.04
204.755	66.05
204.974	14.85
205.193	12.8
205.411	45.57
205.63	23.04
205.849	16.9
206.068	-17.92
206.287	-15.87
206.505	-5.63
206.724	-7.68
206.943	27.14
207.162	2.56
207.381	35.33
207.599	6.66
207.818	94.72
208.037	107.01
208.255	-5.63
208.474	-56.83
208.693	109.05
208.911	51.71
209.13	80.38
209.349	59.9
209.567	66.05
209.786	-1.54
210.005	37.38
210.223	45.57
210.442	-32.26
210.661	8.7
210.879	-9.73
211.098	39.42
211.316	96.77
211.535	25.09
211.753	-19.97
211.972	8.7
212.191	33.28
212.409	43.52
212.628	64
212.846	92.67
213.065	14.85
213.283	16.9
213.502	23.04
213.72	64
213.938	16.9
214.157	55.81
214.375	33.28
214.594	55.81
214.812	117.25
215.031	68.09
215.249	-1.54
215.467	49.66
215.686	66.05
215.904	137.73
216.122	-7.68
216.341	102.91
216.559	66.05
216.778	66.05
216.996	16.9
217.214	-38.4
217.432	2.56
217.651	-15.87
217.869	-9.73
218.087	-52.74
218.306	47.62
218.524	70.14
218.742	-5.63
218.96	45.57
219.179	27.14
219.397	25.09
219.615	51.71
219.833	31.23
220.051	-34.3
220.27	57.86
220.488	-11.78
220.706	-17.92
220.924	-77.31
221.142	27.14
221.36	27.14
221.578	27.14
221.796	-19.97
222.015	-30.21
222.233	4.61
222.451	23.04
222.669	-77.31
222.887	59.9
223.105	31.23
223.323	43.52
223.541	23.04
223.759	35.33
223.977	8.7
224.195	107.01
224.413	39.42
224.631	88.57
224.849	8.7
225.067	41.47
225.285	-44.54
225.503	55.81
225.721	-9.73
225.939	35.33
226.157	39.42
226.375	109.05
226.592	2.56
226.81	39.42
227.028	41.47
227.246	43.52
227.464	-22.02
227.682	45.57
227.9	-3.58
228.117	68.09
228.335	43.52
228.553	14.85
228.771	14.85
228.989	43.52
229.206	84.48
229.424	86.53
229.642	-22.02
229.86	4.61
230.077	35.33
230.295	51.71
230.513	37.38
230.731	37.38
230.948	127.49
231.166	35.33
231.384	64
231.601	37.38
231.819	35.33
232.037	0.51
232.254	23.04
232.472	10.75
232.689	14.85
232.907	4.61
233.125	27.14
233.342	31.23
233.56	51.71
233.777	100.86
233.995	61.95
234.213	-1.54
234.43	0.51
234.648	6.66
234.865	55.81
235.083	-87.55
235.3	47.62
235.518	-58.88
235.735	76.29
235.953	82.43
236.17	-42.5
236.388	-48.64
236.605	-5.63
236.822	16.9
237.04	39.42
237.257	-3.58
237.475	18.94
237.692	35.33
237.909	68.09
238.127	23.04
238.344	-42.5
238.562	33.28
238.779	16.9
238.996	96.77
239.214	0.51
239.431	6.66
239.648	49.66
239.865	-1.54
240.083	45.57
240.3	-5.63
240.517	27.14
240.735	-19.97
240.952	57.86
241.169	64
241.386	0.51
241.603	23.04
241.821	-9.73
242.038	45.57
242.255	-17.92
242.472	57.86
242.689	88.57
242.907	64
243.124	72.19
243.341	51.71
243.558	43.52
243.775	57.86
243.992	-17.92
244.209	18.94
244.426	70.14
244.643	51.71
244.86	-22.02
245.078	43.52
245.295	41.47
245.512	51.71
245.729	-22.02
245.946	59.9
246.163	61.95
246.38	82.43
246.597	33.28
246.814	27.14
247.031	-71.17
247.248	4.61
247.464	35.33
247.681	23.04
247.898	18.94
248.115	33.28
248.332	86.53
248.549	39.42
248.766	-7.68
248.983	109.05
249.2	49.66
249.417	68.09
249.633	29.18
249.85	-9.73
250.067	6.66
250.284	27.14
250.501	72.19
250.717	43.52
250.934	57.86
251.151	-9.73
251.368	-50.69
251.585	47.62
251.801	-22.02
252.018	33.28
252.235	35.33
252.451	-71.17
252.668	78.33
252.885	41.47
253.102	61.95
253.318	78.33
253.535	-54.78
253.752	2.56
253.968	35.33
254.185	78.33
254.401	76.29
254.618	-3.58
254.835	-13.82
255.051	61.95
255.268	43.52
255.484	55.81
255.701	31.23
255.917	47.62
256.134	49.66
256.351	29.18
256.567	6.66
256.784	-5.63
257	29.18
257.217	72.19
257.433	64
257.65	57.86
257.866	12.8
258.082	68.09
258.299	-46.59
258.515	107.01
258.732	12.8
258.948	64
259.165	27.14
259.381	14.85
259.597	37.38
259.814	61.95
260.03	123.39
260.246	27.14
260.463	23.04
260.679	16.9
260.895	68.09
261.112	115.2
261.328	39.42
261.544	33.28
261.761	100.86
261.977	39.42
262.193	33.28
262.409	76.29
262.626	-9.73
262.842	-26.11
263.058	57.86
263.274	98.81
263.49	33.28
263.707	45.57
263.923	35.33
264.139	-1.54
264.355	57.86
264.571	35.33
264.787	23.04
265.004	39.42
265.22	31.23
265.436	31.23
265.652	51.71
265.868	135.68
266.084	0.51
266.3	68.09
266.516	-22.02
266.732	45.57
266.948	16.9
267.164	-30.21
267.38	-42.5
267.596	68.09
267.812	117.25
268.028	-19.97
268.244	35.33
268.46	10.75
268.676	51.71
268.892	53.76
269.108	51.71
269.324	0.51
269.54	74.24
269.756	61.95
269.972	-7.68
270.188	-5.63
270.403	41.47
270.619	64
270.835	10.75
271.051	55.81
271.267	82.43
271.483	18.94
271.698	23.04
271.914	76.29
272.13	35.33
272.346	72.19
272.562	31.23
272.777	51.71
272.993	33.28
273.209	27.14
273.425	37.38
273.64	88.57
273.856	72.19
274.072	72.19
274.287	10.75
274.503	64
274.719	23.04
274.934	-48.64
275.15	37.38
275.366	18.94
275.581	-1.54
275.797	16.9
276.012	-44.54
276.228	31.23
276.444	-46.59
276.659	137.73
276.875	25.09
277.09	133.63
277.306	-1.54
277.521	39.42
277.737	14.85
277.952	31.23
278.168	59.9
278.383	-1.54
278.599	-9.73
278.814	51.71
279.03	-19.97
279.245	49.66
279.461	2.56
279.676	2.56
279.892	-1.54
280.107	29.18
280.322	16.9
280.538	-13.82
280.753	57.86
280.969	4.61
281.184	74.24
281.399	102.91
281.615	10.75
281.83	18.94
282.045	49.66
282.26	51.71
282.476	109.05
282.691	51.71
282.906	55.81
283.122	64
283.337	80.38
283.552	55.81
283.767	51.71
283.983	47.62
284.198	20.99
284.413	25.09
284.628	-22.02
284.843	23.04
285.058	25.09
285.274	23.04
285.489	-9.73
285.704	115.2
285.919	59.9
286.134	-17.92
286.349	-48.64
286.564	76.29
286.779	45.57
286.995	-17.92
287.21	25.09
287.425	53.76
287.64	35.33
287.855	41.47
288.07	2.56
288.285	55.81
288.5	47.62
288.715	55.81
288.93	33.28
289.145	35.33
289.36	66.05
289.575	51.71
289.79	-9.73
290.004	47.62
290.219	57.86
290.434	-24.06
290.649	2.56
290.864	-5.63
291.079	72.19
291.294	88.57
291.509	23.04
291.724	84.48
291.938	64
292.153	37.38
292.368	18.94
292.583	41.47
292.798	59.9
293.012	37.38
293.227	6.66
293.442	90.62
293.657	37.38
293.871	23.04
294.086	70.14
294.301	74.24
294.516	10.75
294.73	107.01
294.945	-26.11
295.16	6.66
295.374	-15.87
295.589	117.25
295.804	-3.58
296.018	-3.58
296.233	-26.11
296.447	43.52
296.662	12.8
296.877	53.76
297.091	-15.87
297.306	-9.73
297.52	41.47
297.735	31.23
297.949	39.42
298.164	45.57
298.378	33.28
298.593	49.66
298.807	-71.17
299.022	27.14
299.236	31.23
299.451	8.7
299.665	80.38
299.88	59.9
300.094	84.48
300.309	39.42
300.523	-71.17
300.737	76.29
300.952	51.71
301.166	57.86
301.381	31.23
301.595	14.85
301.809	8.7
302.024	78.33
302.238	18.94
302.452	59.9
302.667	64
302.881	59.9
303.095	-26.11
303.309	88.57
303.524	37.38
303.738	20.99
303.952	-5.63
304.166	39.42
304.381	18.94
304.595	166.4
304.809	25.09
305.023	31.23
305.237	68.09
305.452	23.04
305.666	43.52
305.88	10.75
306.094	37.38
306.308	39.42
306.522	64
306.736	-1.54
306.95	82.43
307.164	31.23
307.379	33.28
307.593	39.42
307.807	29.18
308.021	23.04
308.235	72.19
308.449	6.66
308.663	47.62
308.877	98.81
309.091	-11.78
309.305	59.9
309.519	-34.3
309.733	-17.92
309.947	35.33
310.161	51.71
310.374	115.2
310.588	74.24
310.802	-9.73
311.016	37.38
311.23	80.38
311.444	129.53
311.658	27.14
311.872	-1.54
312.085	2.56
312.299	131.58
312.513	35.33
312.727	35.33
312.941	-5.63
313.154	64
313.368	16.9
313.582	27.14
313.796	80.38
314.009	61.95
314.223	18.94
314.437	12.8
314.651	66.05
314.864	33.28
315.078	82.43
315.292	-7.68
315.505	49.66
315.719	10.75
315.933	-3.58
316.146	72.19
316.36	4.61
316.573	117.25
316.787	-26.11
317.001	84.48
317.214	51.71
317.428	70.14
317.641	74.24
317.855	74.24
318.068	88.57
318.282	39.42
318.495	96.77
318.709	6.66
318.922	53.76
319.136	104.96
319.349	141.82
319.563	53.76
319.776	47.62
319.99	25.09
320.203	43.52
320.417	113.15
320.63	35.33
320.843	68.09
321.057	39.42
321.27	0.51
321.483	98.81
321.697	66.05
321.91	141.82
322.124	14.85
322.337	6.66
322.55	70.14
322.763	-22.02
322.977	64
323.19	14.85
323.403	6.66
323.617	49.66
323.83	76.29
324.043	4.61
324.256	61.95
324.469	66.05
324.683	68.09
324.896	-9.73
325.109	43.52
325.322	14.85
325.535	88.57
325.748	-28.16
325.962	59.9
326.175	25.09
326.388	-38.4
326.601	10.75
326.814	37.38
327.027	25.09
327.24	84.48
327.453	-13.82
327.666	31.23
327.879	49.66
328.092	70.14
328.305	59.9
328.518	51.71
328.731	125.44
328.944	-26.11
329.157	-1.54
329.37	31.23
329.583	68.09
329.796	107.01
330.009	-32.26
330.222	47.62
330.435	39.42
330.648	0.51
330.861	18.94
331.073	35.33
331.286	49.66
331.499	86.53
331.712	47.62
331.925	92.67
332.138	90.62
332.35	125.44
332.563	6.66
332.776	92.67
332.989	111.1
333.202	2.56
333.414	39.42
333.627	31.23
333.84	31.23
334.053	25.09
334.265	82.43
334.478	25.09
334.691	35.33
334.903	64
335.116	27.14
335.329	-77.31
335.541	80.38
335.754	86.53
335.966	23.04
336.179	41.47
336.392	4.61
336.604	25.09
336.817	68.09
337.029	16.9
337.242	8.7
337.454	74.24
337.667	23.04
337.88	92.67
338.092	92.67
338.305	96.77
338.517	-15.87
338.729	131.58
338.942	111.1
339.154	0.51
339.367	78.33
339.579	61.95
339.792	23.04
340.004	98.81
340.217	31.23
340.429	49.66
340.641	35.33
340.854	117.25
341.066	27.14
341.278	41.47
341.491	137.73
341.703	53.76
341.915	59.9
342.128	18.94
342.34	35.33
342.552	16.9
342.764	27.14
342.977	86.53
343.189	57.86
343.401	49.66
343.613	86.53
343.826	76.29
344.038	59.9
344.25	18.94
344.462	16.9
344.674	80.38
344.886	94.72
345.099	23.04
345.311	-15.87
345.523	0.51
345.735	6.66
345.947	80.38
346.159	82.43
346.371	-19.97
346.583	68.09
346.795	133.63
347.007	14.85
347.219	47.62
347.431	6.66
347.643	8.7
347.855	25.09
348.067	27.14
348.279	10.75
348.491	51.71
348.703	109.05
348.915	-7.68
349.127	-13.82
349.339	78.33
349.551	68.09
349.763	27.14
349.975	33.28
350.187	39.42
350.399	10.75
350.61	-5.63
350.822	18.94
351.034	82.43
351.246	90.62
351.458	102.91
351.669	84.48
351.881	27.14
352.093	55.81
352.305	35.33
352.517	76.29
352.728	92.67
352.94	61.95
353.152	64
353.363	29.18
353.575	23.04
353.787	16.9
353.999	45.57
354.21	102.91
354.422	35.33
354.633	-5.63
354.845	49.66
355.057	55.81
355.268	53.76
355.48	49.66
355.692	-3.58
355.903	43.52
356.115	109.05
356.326	2.56
356.538	92.67
356.749	47.62
356.961	100.86
357.172	16.9
357.384	-24.06
357.595	51.71
357.807	45.57
358.018	64
358.23	20.99
358.441	107.01
358.653	43.52
358.864	53.76
359.075	27.14
359.287	82.43
359.498	72.19
359.709	14.85
359.921	45.57
360.132	51.71
360.344	66.05
360.555	14.85
360.766	-40.45
360.977	43.52
361.189	43.52
361.4	59.9
361.611	61.95
361.823	-22.02
362.034	55.81
362.245	45.57
362.456	35.33
362.667	-13.82
362.879	80.38
363.09	10.75
363.301	27.14
363.512	8.7
363.723	92.67
363.935	14.85
364.146	141.82
364.357	39.42
364.568	84.48
364.779	53.76
364.99	82.43
365.201	150.01
365.412	39.42
365.623	113.15
365.834	43.52
366.045	14.85
366.256	76.29
366.467	-3.58
366.678	-13.82
366.889	-1.54
367.1	8.7
367.311	27.14
367.522	2.56
367.733	16.9
367.944	88.57
368.155	35.33
368.366	72.19
368.577	117.25
368.788	47.62
368.999	6.66
369.209	107.01
369.42	53.76
369.631	57.86
369.842	37.38
370.053	76.29
370.264	55.81
370.474	-9.73
370.685	117.25
370.896	92.67
371.107	18.94
371.317	43.52
371.528	18.94
371.739	53.76
371.95	8.7
372.16	-26.11
372.371	49.66
372.582	64
372.792	6.66
373.003	98.81
373.214	53.76
373.424	94.72
373.635	68.09
373.846	37.38
374.056	33.28
374.267	14.85
374.477	49.66
374.688	70.14
374.898	55.81
375.109	49.66
375.319	53.76
375.53	33.28
375.74	64
375.951	27.14
376.161	31.23
376.372	6.66
376.582	33.28
376.793	86.53
377.003	29.18
377.214	76.29
377.424	109.05
377.635	98.81
377.845	61.95
378.055	88.57
378.266	10.75
378.476	-26.11
378.686	39.42
378.897	74.24
379.107	102.91
379.317	92.67
379.528	59.9
379.738	35.33
379.948	80.38
380.158	25.09
380.369	84.48
380.579	88.57
380.789	35.33
380.999	-9.73
381.21	43.52
381.42	94.72
381.63	76.29
381.84	49.66
382.05	51.71
382.261	64
382.471	88.57
382.681	-1.54
382.891	57.86
383.101	80.38
383.311	27.14
383.521	18.94
383.731	31.23
383.941	70.14
384.151	53.76
384.361	127.49
384.571	113.15
384.781	59.9
384.991	37.38
385.201	96.77
385.411	45.57
385.621	51.71
385.831	92.67
386.041	70.14
386.251	25.09
386.461	66.05
386.671	117.25
386.881	39.42
387.091	123.39
387.301	125.44
387.511	47.62
387.72	2.56
387.93	90.62
388.14	16.9
388.35	25.09
388.56	2.56
388.769	35.33
388.979	43.52
389.189	64
389.399	53.76
389.609	51.71
389.818	41.47
390.028	39.42
390.238	86.53
390.447	18.94
390.657	64
390.867	76.29
391.076	90.62
391.286	90.62
391.496	55.81
391.705	39.42
391.915	100.86
392.125	82.43
392.334	59.9
392.544	51.71
392.753	20.99
392.963	66.05
393.172	29.18
393.382	84.48
393.591	59.9
393.801	66.05
394.01	186.88
394.22	59.9
394.429	74.24
394.639	41.47
394.848	84.48
395.058	104.96
395.267	66.05
395.477	131.58
395.686	113.15
395.895	100.86
396.105	158.21
396.314	45.57
396.524	127.49
396.733	53.76
396.942	107.01
397.152	82.43
397.361	164.35
397.57	131.58
397.78	121.34
397.989	57.86
398.198	117.25
398.407	72.19
398.617	90.62
398.826	-11.78
399.035	90.62
399.244	154.11
399.453	107.01
399.663	135.68
399.872	88.57
400.081	51.71
400.29	41.47
400.499	84.48
400.708	174.59
400.917	133.63
401.127	64
401.336	27.14
401.545	156.16
401.754	94.72
401.963	145.92
402.172	102.91
402.381	109.05
402.59	78.33
402.799	96.77
403.008	150.01
403.217	109.05
403.426	158.21
403.635	129.53
403.844	131.58
404.053	150.01
404.262	180.73
404.471	137.73
404.68	113.15
404.888	135.68
405.097	141.82
405.306	164.35
405.515	197.12
405.724	168.45
405.933	172.54
406.142	150.01
406.35	211.45
406.559	133.63
406.768	209.4
406.977	238.08
407.185	178.69
407.394	182.78
407.603	190.97
407.812	238.08
408.02	289.28
408.229	197.12
408.438	223.74
408.646	246.27
408.855	291.32
409.064	250.36
409.272	311.8
409.481	305.66
409.69	305.66
409.898	231.93
410.107	264.7
410.315	264.7
410.524	274.94
410.733	289.28
410.941	334.33
411.15	346.62
411.358	342.52
411.567	391.67
411.775	354.81
411.984	422.39
412.192	391.67
412.401	469.5
412.609	449.02
412.818	506.36
413.026	549.37
413.234	481.78
413.443	434.68
413.651	537.08
413.86	571.9
414.068	623.09
414.276	627.19
414.485	600.57
414.693	629.24
414.901	705.01
415.11	662.01
415.318	657.91
415.526	764.4
415.734	795.12
415.943	801.27
416.151	760.31
416.359	842.23
416.567	819.7
416.776	936.43
416.984	1012.21
417.192	952.82
417.4	965.11
417.608	936.43
417.817	1106.42
418.025	1077.74
418.233	1128.94
418.441	1008.11
418.649	1198.57
418.857	1233.39
419.065	1247.72
419.273	1272.3
419.481	1329.64
419.689	1464.81
419.897	1397.23
420.105	1522.15
420.313	1628.65
420.521	1565.16
420.729	1661.41
420.937	1657.32
421.145	1673.7
421.353	1890.79
421.561	1884.64
421.769	1890.79
421.977	1972.71
422.185	2064.86
422.393	2165.21
422.601	2249.18
422.809	2300.38
423.017	2302.43
423.224	2265.57
423.432	2425.31
423.64	2523.61
423.848	2755.03
424.056	2570.71
424.263	2724.31
424.471	2816.47
424.679	2816.47
424.887	2902.48
425.094	3101.14
425.302	3144.14
425.51	3219.92
425.718	3189.2
425.925	3361.23
426.133	3549.64
426.341	3621.32
426.548	3717.58
426.756	3858.89
426.964	3873.22
427.171	4129.22
427.379	4176.32
427.586	4258.24
427.794	4401.6
428.001	4592.06
428.209	4829.62
428.417	4762.04
428.624	5040.56
428.832	5116.34
429.039	4893.11
429.247	5058.99
429.454	5577.13
429.662	5923.24
429.869	5495.21
430.076	5730.73
430.284	5849.51
430.491	5941.67
430.699	6261.15
430.906	6234.53
431.114	6451.61
431.321	6818.2
431.528	6742.43
431.736	7209.36
431.943	7502.22
432.15	7463.31
432.358	7346.58
432.565	7788.94
432.772	7631.24
432.979	8120.71
433.187	8360.32
433.394	8278.4
433.601	8989.05
433.808	8831.35
434.016	8948.09
434.223	9259.38
434.43	9865.58
434.637	9726.32
434.844	10178.92
435.052	10496.35
435.259	10350.95
435.466	10496.35
435.673	10439.01
435.88	11231.57
436.087	11508.05
436.294	11786.57
436.501	11278.68
436.708	11393.36
436.915	11966.79
437.122	12718.4
437.329	12509.51
437.537	12767.55
437.743	13177.14
437.95	13023.55
438.157	13707.57
438.364	14104.87
438.571	13961.51
438.778	14309.67
438.985	15460.63
439.192	14938.4
439.399	15436.05
439.606	15014.17
439.813	15884.56
440.02	16795.9
440.227	16593.15
440.433	16537.86
440.64	16984.32
440.847	16728.32
441.054	17008.89
441.261	18430.18
441.467	18219.24
441.674	18501.86
441.881	19278.04
442.088	19159.26
442.294	19017.95
442.501	19521.75
442.708	19677.4
442.914	20789.44
443.121	21403.83
443.328	20748.48
443.534	22603.94
443.741	21811.38
443.948	21350.59
444.154	23031.97
444.361	22841.51
444.568	22997.15
444.774	23034.02
444.981	23396.51
445.187	23904.4
445.394	25049.22
445.6	24678.54
445.807	27228.26
446.013	25968.76
446.22	26335.34
446.426	27478.11
446.633	27742.3
446.839	28532.81
447.046	27377.76
447.252	28815.43
447.459	29163.59
447.665	28745.8
447.871	30113.84
448.078	31584.29
448.284	30042.17
448.491	30603.31
448.697	32002.07
448.903	32600.08
449.11	32636.94
449.316	31995.93
449.522	32829.45
449.728	33337.35
449.935	33900.54
450.141	33632.25
450.347	34361.33
450.553	33435.65
450.76	33847.29
450.966	34746.35
451.172	34207.73
451.378	35379.17
451.584	34711.53
451.791	35303.4
451.997	35659.74
452.203	36306.9
452.409	35655.65
452.615	35897.31
452.821	34344.95
453.027	33841.15
453.233	35968.99
453.44	34334.71
453.646	34781.17
453.852	35129.32
454.058	35479.52
454.264	34492.4
454.47	35284.97
454.676	33900.54
454.882	35456.99
455.088	32538.64
455.294	32923.66
455.5	33138.69
455.705	33652.73
455.911	32395.28
456.117	31705.12
456.323	31404.06
456.529	29532.22
456.735	30826.54
456.941	30152.76
457.147	29489.21
457.352	28928.07
457.558	28473.42
457.764	28364.88
457.97	27662.43
458.176	27205.73
458.381	27232.35
458.587	26097.78
458.793	26089.59
458.999	24668.3
459.204	26333.29
459.41	25567.35
459.616	23724.18
459.821	23883.92
460.027	23695.51
460.233	23230.62
460.438	22302.89
460.644	22460.59
460.85	21772.47
461.055	20867.27
461.261	21137.6
461.466	19585.24
461.672	18964.7
461.878	20279.5
462.083	18968.8
462.289	18903.26
462.494	18284.78
462.7	17543.41
462.905	16998.65
463.111	17983.73
463.316	17674.48
463.522	17619.19
463.727	17260.79
463.932	17449.21
464.138	17142.01
464.343	17084.67
464.549	16574.72
464.754	17277.18
464.959	16961.79
465.165	17041.66
465.37	16337.16
465.575	16118.03
465.781	16644.35
465.986	16695.55
466.191	16077.07
466.397	15630.61
466.602	14819.61
466.807	15456.53
467.012	15534.35
467.218	15358.23
467.423	15372.57
467.628	15309.08
467.833	16150.79
468.038	15384.85
468.244	15071.51
468.449	15565.07
468.654	15001.88
468.859	14686.5
469.064	14940.44
469.269	14319.91
469.474	14463.27
469.679	14743.84
469.885	14078.25
470.09	14391.59
470.295	14055.72
470.5	14102.82
470.705	14176.55
470.91	13629.74
471.115	13664.56
471.32	13830.44
471.525	13957.42
471.73	13308.21
471.935	13199.67
472.139	13039.93
472.344	13082.94
472.549	12863.8
472.754	13091.13
472.959	12589.38
473.164	12237.13
473.369	12265.8
473.574	12671.29
473.778	12374.34
473.983	12192.07
474.188	12263.75
474.393	11792.72
474.598	11546.96
474.802	11635.02
475.007	11499.86
475.212	11602.25
475.417	11137.37
475.621	11172.18
475.826	11266.39
476.031	11123.03
476.235	10738.01
476.44	10965.34
476.645	10545.5
476.849	10838.36
477.054	10778.97
477.259	10459.49
477.463	10486.11
477.668	10264.93
477.872	10285.41
478.077	9931.11
478.282	9820.52
478.486	9779.56
478.691	9691.5
478.895	9884.01
479.1	9742.7
479.304	9595.25
479.509	9441.65
479.713	9492.85
479.918	9439.6
480.122	9202.04
480.326	9429.36
480.531	9423.22
480.735	9120.12
480.94	9124.21
481.144	9445.74
481.348	8892.79
481.553	9148.79
481.757	9120.12
481.961	8808.83
482.166	9161.08
482.37	9056.63
482.574	9056.63
482.778	9066.87
482.983	9068.92
483.187	9099.64
483.391	9222.52
483.595	8956.28
483.8	8835.45
484.004	8980.85
484.208	8976.76
484.412	9044.34
484.616	8993.14
484.821	8905.08
485.025	8821.11
485.229	9146.74
485.433	8860.02
485.637	8892.79
485.841	9054.58
486.045	8749.43
486.249	8882.55
486.453	8870.26
486.657	8860.02
486.861	8935.8
487.065	8565.12
487.269	8866.17
487.473	8837.5
487.677	9070.97
487.881	9058.68
488.085	8905.08
488.289	9085.3
488.493	8952.18
488.697	9011.57
488.901	8841.59
489.105	8903.03
489.309	8976.76
489.512	9062.77
489.716	9124.21
489.92	8950.14
490.124	8978.81
490.328	9064.82
490.531	9144.69
490.735	9234.8
490.939	9306.48
491.143	9261.43
491.346	9058.68
491.55	9251.19
491.754	9341.3
491.958	9415.02
492.161	9388.4
492.365	9279.86
492.569	9380.21
492.772	9464.18
492.976	9372.02
493.18	9513.33
493.383	9537.9
493.587	9738.6
493.79	9722.22
493.994	9787.75
494.197	9820.52
494.401	9908.58
494.605	9752.94
494.808	10094.95
495.012	10174.82
495.215	10129.77
495.419	10312.03
495.622	10195.3
495.825	10307.94
496.029	10400.1
496.232	10420.58
496.436	10588.51
496.639	10944.86
496.843	10715.48
497.046	11235.67
497.249	10977.62
497.453	10977.62
497.656	11047.26
497.859	11133.27
498.063	11440.47
498.266	11518.29
498.469	11557.2
498.673	11700.56
498.876	12034.38
499.079	11784.52
499.282	11901.26
499.485	12202.31
499.689	12425.54
499.892	12368.2
500.095	12534.08
500.298	12884.28
500.501	12667.2
500.705	12955.96
500.908	13011.26
501.111	13013.31
501.314	13408.56
501.517	13400.37
501.72	13713.71
501.923	13726
502.126	13904.17
502.329	14057.77
502.532	14270.76
502.735	14027.05
502.938	14383.4
503.141	14399.78
503.344	14848.29
503.547	14827.81
503.75	15116.57
503.953	15423.76
504.156	15497.49
504.359	15462.68
504.562	15786.26
504.765	15919.37
504.968	16179.47
505.17	16099.59
505.373	16429.32
505.576	16457.99
505.779	16611.59
505.982	16740.61
506.185	16875.77
506.387	17205.5
506.59	17486.07
506.793	17641.71
506.996	17340.66
507.198	18344.17
507.401	17877.23
507.604	18278.63
507.807	18491.62
508.009	18700.51
508.212	18852.06
508.415	19257.56
508.617	19163.36
508.82	19304.67
509.022	19161.31
509.225	19665.11
509.428	19882.19
509.63	19929.3
509.833	20084.94
510.035	20529.35
510.238	20433.1
510.44	20947.14
510.643	20607.17
510.845	21420.22
511.048	21070.01
511.25	21383.35
511.453	21516.47
511.655	22167.73
511.858	22151.34
512.06	22139.05
512.262	22304.94
512.465	22313.13
512.667	22714.53
512.87	22988.96
513.072	23240.86
513.274	23427.23
513.477	23591.06
513.679	23949.46
513.881	23728.28
514.084	24383.63
514.286	24117.39
514.488	24352.91
514.69	24952.96
514.893	24731.78
515.095	25325.69
515.297	25546.87
515.499	25561.21
515.701	25880.69
515.904	26095.73
516.106	26153.07
516.308	26593.39
516.51	26724.46
516.712	26798.18
516.914	26753.13
517.116	27512.92
517.318	27457.63
517.52	27441.25
517.722	27607.13
517.925	27881.56
518.127	28596.3
518.329	28399.69
518.531	28194.9
518.733	28457.04
518.935	29081.67
519.136	29196.35
519.338	29511.74
519.54	29790.27
519.742	29712.44
519.944	30093.36
520.146	30646.32
520.348	30492.72
520.55	30322.74
520.752	30771.24
520.954	31139.88
521.155	30767.15
521.357	31539.23
521.559	31744.03
521.761	31954.97
521.963	32151.57
522.164	31922.2
522.366	32497.68
522.568	32469.01
522.77	32714.76
522.971	33128.45
523.173	32849.93
523.375	33175.56
523.576	33234.95
523.778	33036.3
523.98	33816.57
524.181	33640.45
524.383	33492.99
524.584	34287.6
524.786	33843.2
524.988	33941.5
525.189	34891.76
525.391	34805.74
525.592	34830.32
525.794	35031.02
525.995	34949.1
526.197	34818.03
526.398	35088.36
526.6	35248.1
526.801	35803.1
527.003	35721.18
527.204	35409.89
527.406	36048.86
527.607	35821.53
527.808	36392.92
528.01	35876.83
528.211	36188.12
528.412	36763.6
528.614	36397.01
528.815	36294.61
529.016	36986.83
529.218	36130.78
529.419	36888.53
529.62	36548.56
529.822	36663.25
530.023	36743.12
530.224	36855.76
530.425	36456.4
530.626	36882.38
530.828	36394.96
531.029	37820.35
531.23	36782.03
531.431	36646.86
531.632	36835.28
531.833	37242.82
532.035	37076.94
532.236	37230.54
532.437	36972.49
532.638	37162.95
532.839	37550.02
533.04	37095.37
533.241	36878.29
533.442	37783.49
533.643	37421
533.844	37455.81
534.045	37562.31
534.246	37152.71
534.447	37515.2
534.648	37291.97
534.849	37527.49
535.05	36898.76
535.251	37351.37
535.451	37404.61
535.652	37625.79
535.853	37267.4
536.054	37631.94
536.255	37955.52
536.456	36964.3
536.657	38100.92
536.857	37267.4
537.058	37412.81
537.259	37490.63
537.46	37322.69
537.66	37095.37
537.861	37406.66
538.062	37109.71
538.263	37611.46
538.463	36915.15
538.664	37289.93
538.865	37271.5
539.065	37773.25
539.266	36890.57
539.466	37701.57
539.667	37107.66
539.868	37429.19
540.068	37011.4
540.269	36941.77
540.469	37703.62
540.67	36851.66
540.87	37525.44
541.071	37531.59
541.271	37269.45
541.472	36945.87
541.672	36933.58
541.873	37253.06
542.073	36802.51
542.274	37566.4
542.474	36978.64
542.675	36888.53
542.875	37887.93
543.075	37113.8
543.276	36964.3
543.476	37470.15
543.676	37140.43
543.877	37191.62
544.077	37126.09
544.277	37212.1
544.478	36833.23
544.678	37527.49
544.878	36663.25
545.078	36968.4
545.279	36843.47
545.479	36802.51
545.679	37038.03
545.879	36909
546.079	36876.24
546.28	36988.88
546.48	36476.88
546.68	36849.61
546.88	37027.79
547.08	36941.77
547.28	36888.53
547.48	36458.45
547.68	36941.77
547.88	36495.32
548.081	36773.84
548.281	36458.45
548.481	36769.74
548.681	36769.74
548.881	36648.91
549.081	36288.47
549.28	36349.91
549.48	36771.79
549.68	36650.96
549.88	37302.21
550.08	36354.01
550.28	36816.85
550.48	36300.76
550.68	36835.28
550.88	36098.01
551.08	36507.6
551.279	36638.67
551.479	36550.61
551.679	36763.6
551.879	36321.24
552.079	36231.13
552.278	35983.32
552.478	36378.58
552.678	36509.65
552.878	36536.27
553.077	36036.57
553.277	36394.96
553.477	36485.08
553.676	36437.97
553.876	36454.36
554.076	36134.87
554.275	35880.92
554.475	35700.7
554.674	35983.32
554.874	35958.75
555.074	35743.71
555.273	36368.34
555.473	36311
555.672	35876.83
555.872	35958.75
556.071	35909.6
556.271	36108.25
556.47	36108.25
556.67	35848.16
556.869	35815.39
557.068	35962.84
557.268	35921.88
557.467	35516.39
557.667	35887.07
557.866	35665.89
558.065	35442.66
558.265	35299.3
558.464	35112.94
558.663	35467.23
558.863	35551.2
559.062	36175.83
559.261	35311.59
559.461	35700.7
559.66	34961.39
559.859	35188.71
560.058	34899.95
560.258	35256.29
560.457	34963.43
560.656	35362.79
560.855	34904.04
561.054	35215.33
561.253	34699.25
561.453	35157.99
561.652	34918.38
561.851	35002.35
562.05	34609.14
562.249	34576.37
562.448	34973.67
562.647	34676.72
562.846	34439.15
563.045	34527.22
563.244	34297.84
563.443	34664.43
563.642	34011.13
563.841	34568.18
564.04	34213.88
564.239	34392.05
564.438	34115.58
564.637	34191.35
564.836	34095.1
565.035	34050.04
565.234	34332.66
565.432	33935.35
565.631	34007.03
565.83	34166.77
566.029	33837.05
566.228	33636.35
566.427	33599.49
566.625	33624.06
566.824	33484.8
567.023	33925.11
567.222	33048.58
567.42	33511.42
567.619	33490.94
567.818	33374.21
568.016	33290.24
568.215	33339.4
568.414	33069.06
568.612	33650.69
568.811	33275.91
569.01	33140.74
569.208	32634.89
569.407	33378.31
569.605	32798.73
569.804	33110.02
570.002	32782.35
570.201	32616.46
570.4	32589.84
570.598	32405.52
570.797	32309.27
570.995	32243.73
571.193	32155.67
571.392	32229.4
571.59	32270.36
571.789	32370.71
571.987	32118.81
572.186	32038.94
572.384	31815.71
572.582	32170.01
572.781	31813.66
572.979	31635.49
573.177	31813.66
573.376	31748.12
573.574	31545.37
573.772	31961.11
573.971	31760.41
574.169	31528.99
574.367	31180.84
574.565	31307.81
574.763	31272.99
574.962	30959.66
575.16	30842.92
575.358	30945.32
575.556	30398.51
575.754	31100.97
575.952	30363.7
576.151	31043.62
576.349	30408.75
576.547	30730.28
576.745	30316.59
576.943	30640.17
577.141	30531.63
577.339	30849.07
577.537	30220.34
577.735	30195.76
577.933	29945.91
578.131	30287.92
578.329	30203.96
578.527	29642.81
578.725	29827.13
578.923	29999.16
579.121	29517.89
579.319	29837.37
579.516	30199.86
579.714	29941.82
579.912	29409.34
580.11	29507.65
580.308	29524.03
580.506	29298.75
580.704	28864.58
580.901	29112.39
581.099	29204.55
581.297	29392.96
581.495	28891.21
581.692	29198.4
581.89	28962.89
582.088	28676.17
582.285	28627.02
582.483	28577.87
582.681	28776.52
582.878	28643.4
583.076	28108.88
583.274	28645.45
583.471	28069.97
583.669	28184.66
583.866	28231.76
584.064	28549.2
584.262	27797.59
584.459	28467.28
584.657	27781.21
584.854	27844.7
585.052	27158.63
585.249	27582.56
585.447	27678.81
585.644	27226.21
585.841	27623.51
586.039	27691.1
586.236	27068.51
586.434	27572.32
586.631	27109.47
586.828	27283.55
587.026	27494.49
587.223	27105.38
587.42	26871.91
587.618	26923.11
587.815	26579.05
588.012	26886.25
588.21	26632.3
588.407	26697.83
588.604	26609.77
588.801	26527.85
588.999	26130.55
589.196	26605.67
589.393	26441.84
589.59	26124.4
589.787	25962.61
589.984	25829.49
590.182	25688.18
590.379	26216.56
590.576	25639.03
590.773	25729.14
590.97	25315.45
591.167	25755.77
591.364	25297.02
591.561	25462.91
591.758	25491.58
591.955	25315.45
592.152	25456.76
592.349	25079.94
592.546	25456.76
592.743	25186.43
592.94	25051.27
593.137	24948.87
593.334	24973.44
593.531	24453.26
593.727	24805.51
593.924	24725.64
594.121	24633.48
594.318	24625.29
594.515	24559.75
594.712	24729.73
594.908	24184.97
595.105	24529.03
595.302	24246.41
595.499	24273.04
595.696	24119.44
595.892	23963.79
596.089	24221.84
596.286	24117.39
596.482	23582.87
596.679	23689.37
596.876	23824.53
597.072	23496.86
597.269	23478.43
597.466	23521.43
597.662	23003.3
597.859	23298.2
598.055	23472.28
598.252	23167.13
598.448	23195.81
598.645	22988.96
598.841	22950.05
599.038	22790.31
599.234	23201.95
599.431	22769.83
599.627	22622.37
599.824	22941.86
600.02	22589.61
600.217	22466.73
600.413	22653.09
600.609	22622.37
600.806	22343.85
601.002	22427.82
601.198	22208.69
601.395	22470.83
601.591	22007.98
601.787	22302.89
601.984	21891.25
602.18	22020.27
602.376	21735.6
602.572	21653.69
602.769	21612.73
602.965	21676.21
603.161	21502.14
603.357	21663.93
603.553	21117.12
603.75	21289.15
603.946	21446.84
604.142	21354.68
604.338	21221.56
604.534	21227.71
604.73	21051.58
604.926	20736.2
605.122	21115.07
605.318	20725.96
605.514	20850.88
605.71	20848.83
605.906	20594.89
606.102	20799.68
606.298	20347.08
606.494	20699.33
606.69	20750.53
606.886	20549.83
607.082	20199.63
607.278	20371.66
607.474	20132.04
607.67	20306.12
607.866	20039.89
608.062	20336.84
608.257	20076.75
608.453	20101.33
608.649	20330.7
608.845	19681.49
609.041	20148.43
609.236	19953.87
609.432	20013.26
609.628	19908.82
609.824	20015.31
610.019	19888.34
610.215	19724.5
610.411	19771.6
610.606	19454.17
610.802	19804.37
610.998	19757.27
611.193	19632.34
611.389	19382.49
611.584	19622.1
611.78	19591.38
611.976	19415.26
612.171	19777.75
612.367	19394.78
612.562	19402.97
612.758	19048.67
612.953	18970.85
613.149	19314.91
613.344	19089.63
613.539	19450.07
613.735	19329.24
613.93	19015.9
614.126	19181.79
614.321	19306.71
614.517	18882.78
614.712	18946.27
614.907	18790.63
615.103	18886.88
615.298	18825.44
615.493	18821.34
615.688	18575.59
615.884	18987.23
616.079	18536.68
616.274	18936.03
616.47	18485.48
616.665	18598.12
616.86	18438.37
617.055	18540.77
617.25	18413.8
617.445	18391.27
617.641	18249.96
617.836	18424.04
618.031	18028.78
618.226	18415.85
618.421	18077.93
618.616	18196.71
618.811	18057.45
619.006	18428.13
619.201	17905.9
619.396	17971.44
619.591	17701.11
619.786	17981.68
619.981	17539.32
620.176	17664.24
620.371	17502.45
620.566	17793.26
620.761	17273.08
620.956	17424.63
621.151	17299.7
621.346	17498.36
621.541	16763.14
621.735	16697.6
621.93	16785.66
622.125	16765.18
622.32	16785.66
622.515	16587.01
622.709	16722.18
622.904	16443.65
623.099	16523.52
623.294	16587.01
623.488	16271.62
623.683	16312.58
623.878	15763.73
624.072	15888.65
624.267	16032.01
624.462	16101.64
624.656	15331.61
624.851	15964.43
625.046	15751.44
625.24	15712.53
625.435	15444.24
625.629	15249.69
625.824	15204.63
626.018	15237.4
626.213	14895.39
626.407	15302.93
626.602	14850.33
626.796	14958.88
626.991	15048.99
627.185	14735.65
627.38	14905.63
627.574	14600.48
627.768	14338.34
627.963	14383.4
628.157	14514.47
628.352	14201.13
628.546	14203.18
628.74	14303.53
628.935	13809.97
629.129	14016.81
629.323	13781.29
629.517	13574.45
629.712	13457.71
629.906	13599.02
630.1	13467.95
630.294	13488.43
630.489	13318.45
630.683	13596.98
630.877	13300.02
631.071	13033.79
631.265	13345.08
631.459	13207.86
631.653	13019.45
631.848	13035.83
632.042	13046.07
632.236	13076.79
632.43	12665.15
632.624	12771.65
632.818	12661.05
633.012	12699.97
633.206	12626.24
633.4	12544.32
633.594	12288.32
633.788	12263.75
633.982	12486.98
634.176	12368.2
634.369	12118.34
634.563	12120.39
634.757	11807.05
634.951	12118.34
635.145	12110.15
635.339	11856.2
635.533	11784.52
635.726	11772.24
635.92	11467.09
636.114	11626.83
636.308	11530.58
636.501	11635.02
636.695	11340.11
636.889	11397.46
637.083	11356.5
637.276	11096.41
637.47	11413.84
637.664	11168.09
637.857	11204.95
638.051	11028.82
638.244	11010.39
638.438	11016.54
638.632	10639.71
638.825	10641.76
639.019	10787.16
639.212	10617.18
639.406	10778.97
639.599	10570.08
639.793	10688.86
639.986	10418.53
640.18	10373.47
640.373	10498.4
640.567	10322.27
640.76	10207.59
640.954	10152.29
641.147	10119.53
641.34	10148.2
641.534	10158.44
641.727	10021.22
641.92	9863.53
642.114	9754.99
642.307	10021.22
642.5	9664.88
642.694	9736.56
642.887	9685.36
643.08	9666.92
643.273	9701.74
643.467	9496.94
643.66	9556.33
643.853	9542
644.046	9185.65
644.239	9513.33
644.432	9367.92
644.626	9251.19
644.819	9171.32
645.012	9232.76
645.205	9369.97
645.398	9410.93
645.591	8962.42
645.784	9181.56
645.977	9034.1
646.17	8962.42
646.363	8806.78
646.556	8841.59
646.749	8806.78
646.942	8685.95
647.135	8737.15
647.328	8497.53
647.521	8479.1
647.714	8690.04
647.907	8405.38
648.099	8300.93
648.292	8464.77
648.485	8450.43
648.678	8243.59
648.871	8368.51
649.064	8196.48
649.256	8356.22
649.449	8169.86
649.642	8087.94
649.835	7999.88
650.027	8006.02
650.22	7911.82
650.413	7833.99
650.605	7940.49
650.798	7930.25
650.991	7752.07
651.183	7825.8
651.376	7717.26
651.568	7741.83
651.761	7690.63
651.954	7532.94
652.146	7590.28
652.339	7688.59
652.531	7481.74
652.724	7436.69
652.916	7432.59
653.109	7178.64
653.301	7262.61
653.494	7387.54
653.686	7186.83
653.879	7307.66
654.071	7172.5
654.263	7143.83
654.456	6949.27
654.648	7084.44
654.84	7018.9
655.033	6928.79
655.225	7055.76
655.417	6971.8
655.61	6822.3
655.802	6928.79
655.994	6758.81
656.186	6918.55
656.379	6726.04
656.571	6623.64
656.763	6562.2
656.955	6791.58
657.148	6648.22
657.34	6648.22
657.532	6623.64
657.724	6594.97
657.916	6488.48
658.108	6523.29
658.3	6570.4
658.492	6457.76
658.684	6185.38
658.876	6422.94
659.068	6306.21
659.26	6431.13
659.452	6130.08
659.644	6076.84
659.836	6144.42
660.028	6236.58
660.22	6097.31
660.412	6177.19
660.604	6093.22
660.796	6259.1
660.988	5839.27
661.18	5843.37
661.372	6089.12
661.563	5900.71
661.755	5761.45
661.947	5718.44
662.139	5638.57
662.331	5839.27
662.522	5863.85
662.714	5771.69
662.906	5695.91
663.097	5589.42
663.289	5618.09
663.481	5687.72
663.673	5654.95
663.864	5675.43
664.056	5618.09
664.247	5585.32
664.439	5521.84
664.631	5556.65
664.822	5448.11
665.014	5384.62
665.205	5360.05
665.397	5278.13
665.588	5534.12
665.78	5278.13
665.971	5411.25
666.163	5374.38
666.354	5194.16
666.546	5194.16
666.737	5001.65
666.929	5095.86
667.12	5085.62
667.311	5042.61
667.503	5032.37
667.694	5114.29
667.885	4997.56
668.077	5046.71
668.268	4962.74
668.459	5013.94
668.651	4927.92
668.842	4868.53
669.033	5003.7
669.224	4843.96
669.416	4893.11
669.607	4966.84
669.798	4759.99
669.989	5026.23
670.18	4745.66
670.371	4700.6
670.563	4768.18
670.754	4716.98
670.945	4544.95
671.136	4731.32
671.327	4596.15
671.518	4778.42
671.709	4737.46
671.9	4747.7
672.091	4520.38
672.282	4585.91
672.473	4424.12
672.664	4579.77
672.855	4501.95
673.046	4506.04
673.237	4542.91
673.428	4424.12
673.619	4491.71
673.809	4352.45
674	4377.02
674.191	4508.09
674.382	4377.02
674.573	4299.2
674.764	4325.82
674.954	4405.69
675.145	4346.3
675.336	4321.73
675.527	4164.03
675.717	4260.29
675.908	4194.75
676.099	4299.2
676.289	4268.48
676.48	4147.65
676.671	4153.79
676.861	4219.33
677.052	4147.65
677.243	4235.71
677.433	4020.67
677.624	4204.99
677.814	4084.16
678.005	4164.03
678.195	4055.49
678.386	4004.29
678.576	4024.77
678.767	4098.5
678.957	4106.69
679.148	4159.94
679.338	3996.1
679.529	4143.55
679.719	3930.56
679.909	3860.93
680.1	3959.24
680.29	3955.14
680.481	3975.62
680.671	3973.57
680.861	3996.1
681.052	4020.67
681.242	3981.76
681.432	4055.49
681.622	3936.71
681.813	3891.65
682.003	3858.89
682.193	3807.69
682.383	3928.52
682.573	3854.79
682.764	3822.02
682.954	3811.78
683.144	3850.69
683.334	3721.67
683.524	3826.12
683.714	3779.01
683.904	3801.54
684.094	3850.69
684.284	3736.01
684.474	3813.83
684.664	3682.76
684.854	3856.84
685.044	3815.88
685.234	3662.28
685.424	3561.93
685.614	3649.99
685.804	3697.1
685.994	3684.81
686.184	3594.7
686.374	3680.71
686.564	3445.2
686.753	3676.62
686.943	3434.96
687.133	3598.79
687.323	3590.6
687.513	3400.14
687.702	3418.57
687.892	3383.76
688.082	3477.96
688.272	3465.68
688.461	3359.18
688.651	3342.8
688.841	3344.84
689.03	3281.36
689.22	3271.12
689.41	3205.58
689.599	3170.77
689.789	3359.18
689.979	3346.89
690.168	3330.51
690.358	3258.83
690.547	3201.49
690.737	3158.48
690.926	3293.65
691.116	3031.51
691.305	3242.45
691.495	3082.7
691.684	3054.03
691.874	3060.18
692.063	3107.28
692.252	3160.53
692.442	3021.27
692.631	3070.42
692.82	3043.79
693.01	2992.59
693.199	3002.83
693.388	2898.39
693.578	2945.49
693.767	3025.36
693.956	2882
694.146	2841.04
694.335	2808.28
694.524	2843.09
694.713	2869.72
694.902	2830.8
695.092	2853.33
695.281	2728.41
695.47	2730.45
695.659	2869.72
695.848	2757.08
696.037	2744.79
696.226	2777.56
696.415	2841.04
696.604	2712.02
696.793	2630.1
696.982	2628.06
697.171	2607.58
697.36	2664.92
697.549	2677.21
697.738	2705.88
697.927	2705.88
698.116	2693.59
698.305	2513.37
698.494	2585.05
698.683	2636.25
698.872	2525.66
699.061	2644.44
699.25	2486.75
699.438	2439.64
699.627	2566.62
699.816	2552.28
700.005	2515.42
700.193	2492.89
700.382	2503.13
700.571	2443.74
700.76	2580.95
700.948	2488.79
701.137	2499.03
701.326	2509.27
701.514	2476.51
701.703	2327
701.892	2441.69
702.08	2570.71
702.269	2419.16
702.457	2394.59
702.646	2372.06
702.834	2322.91
703.023	2318.81
703.212	2402.78
703.4	2316.76
703.589	2361.82
703.777	2402.78
703.965	2447.83
704.154	2408.92
704.342	2376.16
704.531	2292.19
704.719	2335.2
704.907	2367.96
705.096	2273.76
705.284	2279.9
705.472	2339.29
705.661	2474.46
705.849	2206.17
706.037	2255.33
706.226	2361.82
706.414	2345.44
706.602	2208.22
706.79	2259.42
706.979	2222.56
707.167	2302.43
707.355	2374.11
707.543	2347.48
707.731	2324.96
707.919	2341.34
708.107	2294.24
708.296	2294.24
708.484	2308.57
708.672	2370.01
708.86	2320.86
709.048	2255.33
709.236	2327
709.424	2261.47
709.612	2265.57
709.8	2200.03
709.988	2300.38
710.176	2279.9
710.364	2255.33
710.551	2251.23
710.739	2308.57
710.927	2269.66
711.115	2333.15
711.303	2179.55
711.491	2302.43
711.679	2271.71
711.866	2339.29
712.054	2333.15
712.242	2284
712.43	2263.52
712.617	2312.67
712.805	2302.43
712.993	2245.09
713.181	2265.57
713.368	2310.62
713.556	2230.75
713.744	2312.67
713.931	2337.24
714.119	2279.9
714.306	2382.3
714.494	2357.72
714.682	2265.57
714.869	2316.76
715.057	2316.76
715.244	2316.76
715.432	2361.82
715.619	2261.47
715.807	2359.77
715.994	2288.09
716.182	2222.56
716.369	2331.1
716.556	2433.5
716.744	2214.37
716.931	2415.07
717.119	2318.81
717.306	2372.06
717.493	2370.01
717.681	2451.93
717.868	2308.57
718.055	2365.92
718.242	2456.03
718.43	2370.01
718.617	2273.76
718.804	2222.56
718.991	2374.11
719.179	2318.81
719.366	2269.66
719.553	2318.81
719.74	2417.12
719.927	2308.57
720.114	2357.72
720.301	2410.97
720.488	2279.9
720.676	2380.25
720.863	2398.68
721.05	2464.22
721.237	2394.59
721.424	2413.02
721.611	2380.25
721.798	2451.93
721.985	2392.54
722.172	2200.03
722.358	2537.95
722.545	2351.58
722.732	2281.95
722.919	2370.01
723.106	2478.55
723.293	2474.46
723.48	2380.25
723.667	2419.16
723.853	2417.12
724.04	2451.93
724.227	2441.69
724.414	2359.77
724.6	2419.16
724.787	2435.55
724.974	2456.03
725.161	2433.5
725.347	2322.91
725.534	2527.71
725.72	2464.22
725.907	2447.83
726.094	2453.98
726.28	2451.93
726.467	2453.98
726.653	2478.55
726.84	2484.7
727.027	2447.83
727.213	2470.36
727.4	2423.26
727.586	2570.71
727.773	2451.93
727.959	2386.4
728.145	2396.64
728.332	2501.08
728.518	2421.21
728.705	2566.62
728.891	2443.74
729.077	2509.27
729.264	2519.51
729.45	2494.94
729.636	2556.38
729.823	2464.22
730.009	2570.71
730.195	2499.03
730.382	2505.18
730.568	2435.55
730.754	2404.83
730.94	2447.83
731.126	2539.99
731.313	2523.61
731.499	2574.81
731.685	2583
731.871	2521.56
732.057	2552.28
732.243	2621.91
732.429	2513.37
732.615	2570.71
732.801	2488.79
732.987	2539.99
733.173	2539.99
733.359	2558.42
733.545	2505.18
733.731	2494.94
733.917	2568.66
734.103	2533.85
734.289	2611.67
734.475	2560.47
734.661	2513.37
734.847	2509.27
735.033	2587.1
735.219	2462.17
735.404	2542.04
735.59	2462.17
735.776	2496.99
735.962	2615.77
736.148	2546.14
736.333	2507.23
736.519	2472.41
736.705	2496.99
736.89	2572.76
737.076	2513.37
737.262	2496.99
737.447	2480.6
737.633	2421.21
737.819	2507.23
738.004	2367.96
738.19	2439.64
738.375	2509.27
738.561	2609.62
738.747	2425.31
738.932	2494.94
739.118	2496.99
739.303	2460.12
739.489	2539.99
739.674	2335.2
739.859	2451.93
740.045	2517.47
740.23	2466.27
740.416	2302.43
740.601	2451.93
740.786	2413.02
740.972	2382.3
741.157	2402.78
741.342	2351.58
741.528	2279.9
741.713	2355.68
741.898	2378.2
742.084	2331.1
742.269	2253.28
742.454	2343.39
742.639	2402.78
742.824	2238.94
743.01	2335.2
743.195	2333.15
743.38	2312.67
743.565	2255.33
743.75	2327
743.935	2269.66
744.12	2322.91
744.305	2251.23
744.49	2253.28
744.675	2226.65
744.86	2197.98
745.045	2177.5
745.23	2189.79
745.415	2185.69
745.6	2218.46
745.785	2179.55
745.97	2267.61
746.155	2124.26
746.34	2109.92
746.525	2075.1
746.71	2163.17
746.895	2064.86
747.079	2159.07
747.264	2138.59
747.449	2089.44
747.634	2046.43
747.819	2148.83
748.003	2042.34
748.188	2019.81
748.373	2021.86
748.557	1997.28
748.742	1923.55
748.927	2081.25
749.111	1964.51
749.296	1937.89
749.481	1933.79
749.665	1884.64
749.85	1894.88
750.034	1968.61
750.219	1880.55
750.404	1837.54
750.588	1798.63
750.773	1825.25
750.957	1827.3
751.141	2050.53
751.326	1827.3
751.51	1915.36
751.695	1780.2
751.879	1780.2
752.064	1888.74
752.248	1845.73
752.432	1786.34
752.617	1804.77
752.801	1700.33
752.985	1696.23
753.17	1706.47
753.354	1751.53
753.538	1827.3
753.722	1677.8
753.907	1632.74
754.091	1694.18
754.275	1735.14
754.459	1724.9
754.643	1608.17
754.828	1669.61
755.012	1493.48
755.196	1520.1
755.38	1571.3
755.564	1608.17
755.748	1538.54
755.932	1587.69
756.116	1554.92
756.3	1556.97
756.484	1468.91
756.668	1487.34
756.852	1477.1
757.036	1530.34
757.22	1436.14
757.404	1378.79
757.588	1440.23
757.772	1427.95
757.956	1358.32
758.14	1405.42
758.323	1389.03
758.507	1462.76
758.691	1434.09
758.875	1366.51
759.059	1391.08
759.242	1296.88
759.426	1348.08
759.61	1282.54
759.794	1335.79
759.977	1317.36
760.161	1331.69
760.345	1296.88
760.528	1360.36
760.712	1319.4
760.895	1239.53
761.079	1276.4
761.263	1247.72
761.446	1296.88
761.63	1214.96
761.813	1305.07
761.997	1264.11
762.18	1241.58
762.364	1329.64
762.547	1245.68
762.731	1237.49
762.914	1276.4
763.098	1229.29
763.281	1174
763.464	1255.92
763.648	1174
763.831	1196.53
764.015	1141.23
764.198	1186.29
764.381	1292.78
764.564	1182.19
764.748	1171.95
764.931	1178.09
765.114	1128.94
765.297	1096.18
765.481	1092.08
765.664	1167.85
765.847	1149.42
766.03	1120.75
766.213	1118.7
766.397	1055.22
766.58	1065.46
766.763	1085.94
766.946	1004.02
767.129	1157.61
767.312	1026.54
767.495	1022.45
767.678	1067.5
767.861	1112.56
768.044	1081.84
768.227	1001.97
768.41	977.39
768.593	1079.79
768.776	1040.88
768.959	1030.64
769.142	1098.22
769.324	1053.17
769.507	1024.5
769.69	1028.59
769.873	1044.98
770.056	995.82
770.239	1141.23
770.421	1108.46
770.604	1016.3
770.787	1051.12
770.97	928.24
771.152	930.29
771.335	928.24
771.518	903.67
771.7	932.34
771.883	938.48
772.066	924.15
772.248	993.78
772.431	963.06
772.613	907.76
772.796	885.23
772.978	956.91
773.161	889.33
773.343	893.43
773.526	879.09
773.708	893.43
773.891	854.51
774.073	862.71
774.256	764.4
774.438	862.71
774.621	848.37
774.803	844.28
774.985	879.09
775.168	893.43
775.35	866.8
775.532	838.13
775.715	844.28
775.897	711.16
776.079	860.66
776.261	762.36
776.444	756.21
776.626	821.75
776.808	795.12
776.99	791.03
777.173	776.69
777.355	797.17
777.537	776.69
777.719	754.16
777.901	770.55
778.083	788.98
778.265	829.94
778.447	719.35
778.629	698.87
778.811	733.68
778.993	748.02
779.175	758.26
779.357	715.25
779.539	784.88
779.721	735.73
779.903	684.53
780.085	612.85
780.267	672.25
780.449	575.99
780.631	682.49
780.812	723.44
780.994	682.49
781.176	657.91
781.358	645.62
781.54	606.71
781.721	629.24
781.903	678.39
782.085	610.81
782.267	504.31
782.448	565.75
782.63	598.52
782.812	604.66
782.993	629.24
783.175	584.18
783.357	627.19
783.538	594.42
783.72	539.13
783.901	588.28
784.083	575.99
784.264	555.51
784.446	614.9
784.627	477.69
784.809	604.66
784.99	504.31
785.172	502.26
785.353	487.93
785.535	424.44
785.716	541.18
785.897	506.36
786.079	518.65
786.26	494.07
786.441	489.98
786.623	465.4
786.804	514.55
786.985	487.93
787.167	504.31
787.348	479.74
787.529	453.11
787.71	463.35
787.891	514.55
788.073	549.37
788.254	457.21
788.435	475.64
788.616	426.49
788.797	494.07
788.978	485.88
789.159	406.01
789.34	365.05
789.522	440.83
789.703	350.71
789.884	385.53
790.065	463.35
790.246	528.89
790.427	489.98
790.607	459.26
790.788	412.15
790.969	457.21
791.15	406.01
791.331	379.39
791.512	416.25
791.693	330.23
791.874	422.39
792.054	461.3
792.235	367.1
792.416	350.71
792.597	412.15
792.778	375.29
792.958	334.33
793.139	381.43
793.32	399.87
793.5	381.43
793.681	397.82
793.862	371.19
794.042	334.33
794.223	350.71
794.404	401.91
794.584	266.75
794.765	408.06
794.945	311.8
795.126	334.33
795.306	330.23
795.487	295.42
795.667	285.18
795.848	336.38
796.028	254.46
796.209	330.23
796.389	320
796.57	385.53
796.75	266.75
796.93	371.19
797.111	383.48
797.291	371.19
797.471	299.52
797.652	266.75
797.832	330.23
798.012	311.8
798.192	233.98
798.373	244.22
798.553	315.9
798.733	334.33
798.913	287.23
799.093	303.61
799.274	313.85
799.454	305.66
799.634	354.81
799.814	256.51
799.994	287.23
800.174	270.84
800.354	371.19
800.534	174.59
800.714	297.47
800.894	223.74
801.074	236.03
801.254	227.84
801.434	258.56
801.614	291.32
801.794	287.23
801.974	563.7
802.154	231.93
802.334	254.46
802.514	297.47
802.693	311.8
802.873	260.6
803.053	281.08
803.233	313.85
803.413	184.83
803.592	229.88
803.772	246.27
803.952	297.47
804.131	279.04
804.311	244.22
804.491	211.45
804.67	213.5
804.85	186.88
805.03	303.61
805.209	266.75
805.389	248.32
805.568	252.41
805.748	190.97
805.928	213.5
806.107	268.8
806.287	326.14
806.466	213.5
806.646	270.84
806.825	150.01
807.004	188.93
807.184	111.1
807.363	248.32
807.543	215.55
807.722	268.8
807.901	190.97
808.081	203.26
808.26	205.31
808.439	215.55
808.619	215.55
808.798	156.16
808.977	150.01
809.156	221.69
809.336	250.36
809.515	236.03
809.694	162.3
809.873	221.69
810.052	211.45
810.231	246.27
810.411	229.88
810.59	250.36
810.769	231.93
810.948	168.45
811.127	147.97
811.306	211.45
811.485	133.63
811.664	197.12
811.843	174.59
812.022	203.26
812.201	205.31
812.38	125.44
812.559	80.38
812.737	150.01
812.916	158.21
813.095	152.06
813.274	164.35
813.453	154.11
813.632	150.01
813.811	207.36
813.989	170.49
814.168	227.84
814.347	156.16
814.526	152.06
814.704	205.31
814.883	227.84
815.062	123.39
815.24	174.59
815.419	109.05
815.598	121.34
815.776	180.73
815.955	59.9
816.133	121.34
816.312	92.67
816.49	164.35
816.669	195.07
816.847	123.39
817.026	174.59
817.204	147.97
817.383	117.25
817.561	162.3
817.74	139.77
817.918	203.26
818.097	145.92
818.275	197.12
818.453	197.12
818.632	68.09
818.81	117.25
818.988	180.73
819.167	182.78
819.345	141.82
819.523	102.91
819.701	197.12
819.879	113.15
820.058	113.15
820.236	113.15
820.414	154.11
820.592	154.11
820.77	147.97
820.948	207.36
821.127	57.86
821.305	164.35
821.483	125.44
821.661	209.4
821.839	90.62
822.017	125.44
822.195	172.54
822.373	100.86
822.551	109.05
822.729	170.49
822.907	143.87
823.085	121.34
823.262	125.44
823.44	172.54
823.618	154.11
823.796	190.97
823.974	125.44
824.152	158.21
824.329	72.19
824.507	141.82
824.685	172.54
824.863	61.95
825.04	145.92
825.218	133.63
825.396	61.95
825.574	180.73
825.751	150.01
825.929	117.25
826.107	57.86
826.284	121.34
826.462	109.05
826.639	119.29
826.817	92.67
826.994	78.33
827.172	129.53
827.349	76.29
827.527	82.43
827.704	145.92
827.882	96.77
828.059	139.77
828.237	115.2
828.414	100.86
828.591	84.48
828.769	86.53
828.946	104.96
829.124	49.66
829.301	88.57
829.478	88.57
829.655	76.29
829.833	111.1
830.01	64
830.187	94.72
830.364	104.96
830.542	100.86
830.719	104.96
830.896	66.05
831.073	49.66
831.25	137.73
831.427	76.29
831.604	123.39
831.782	96.77
831.959	166.4
832.136	145.92
832.313	25.09
832.49	16.9
832.667	123.39
832.844	16.9
833.021	115.2
833.198	150.01
833.374	98.81
833.551	131.58
833.728	72.19
833.905	154.11
834.082	111.1
834.259	35.33
834.436	37.38
834.612	123.39
834.789	72.19
834.966	43.52
835.143	49.66
835.319	109.05
835.496	133.63
835.673	135.68
835.85	123.39
836.026	127.49
836.203	68.09
836.38	72.19
836.556	51.71
836.733	45.57
836.909	80.38
837.086	92.67
837.262	72.19
837.439	41.47
837.616	49.66
837.792	49.66
837.968	33.28
838.145	43.52
838.321	33.28
838.498	84.48
838.674	18.94
838.851	84.48
839.027	109.05
839.203	49.66
839.38	10.75
839.556	84.48
839.732	74.24
839.909	59.9
840.085	72.19
840.261	172.54
840.437	133.63
840.614	51.71
840.79	43.52
840.966	78.33
841.142	55.81
841.318	8.7
841.494	68.09
841.671	51.71
841.847	74.24
842.023	98.81
842.199	109.05
842.375	2.56
842.551	72.19
842.727	16.9
842.903	55.81
843.079	49.66
843.255	78.33
843.431	84.48
843.607	25.09
843.783	68.09
843.959	49.66
844.134	92.67
844.31	39.42
844.486	80.38
844.662	66.05
844.838	113.15
845.013	64
845.189	20.99
845.365	55.81
845.541	96.77
845.716	104.96
845.892	82.43
846.068	104.96
846.244	55.81
846.419	104.96
846.595	37.38
846.77	31.23
846.946	14.85
847.122	107.01
847.297	66.05
847.473	109.05
847.648	61.95
847.824	92.67
847.999	-3.58
848.175	45.57
848.35	100.86
848.526	78.33
848.701	51.71
848.876	57.86
849.052	125.44
849.227	55.81
849.403	2.56
849.578	-24.06
849.753	139.77
849.929	35.33
850.104	-1.54
850.279	74.24
850.454	43.52
850.63	109.05
850.805	59.9
850.98	-3.58
851.155	-46.59
851.33	100.86
851.505	96.77
851.681	82.43
851.856	25.09
852.031	104.96
852.206	137.73
852.381	27.14
852.556	-13.82
852.731	107.01
852.906	68.09
853.081	51.71
853.256	104.96
853.431	-19.97
853.606	20.99
853.781	61.95
853.956	-7.68
854.131	-17.92
854.305	-30.21
854.48	33.28
854.655	29.18
854.83	49.66
855.005	102.91
855.18	80.38
855.354	31.23
855.529	94.72
855.704	20.99
855.879	25.09
856.053	51.71
856.228	18.94
856.403	14.85
856.577	107.01
856.752	51.71
856.926	27.14
857.101	82.43
857.276	66.05
857.45	-1.54
857.625	66.05
857.799	-3.58
857.974	37.38
858.148	-22.02
858.323	72.19
858.497	25.09
858.672	80.38
858.846	-42.5
859.02	64
859.195	74.24
859.369	-13.82
859.543	23.04
859.718	49.66
859.892	35.33
860.066	0.51
860.241	-7.68
860.415	18.94
860.589	57.86
860.763	4.61
860.938	2.56
861.112	18.94
861.286	29.18
861.46	70.14
861.634	-3.58
861.808	-46.59
861.982	68.09
862.157	-73.21
862.331	57.86
862.505	29.18
862.679	10.75
862.853	57.86
863.027	12.8
863.201	84.48
863.375	25.09
863.549	53.76
863.722	70.14
863.896	-13.82
864.07	-7.68
864.244	27.14
864.418	-15.87
864.592	14.85
864.766	-65.02
864.939	0.51
865.113	53.76
865.287	88.57
865.461	68.09
865.634	35.33
865.808	43.52
865.982	47.62
866.156	10.75
866.329	29.18
866.503	-7.68
866.676	23.04
866.85	39.42
867.024	39.42
867.197	18.94
867.371	47.62
867.544	39.42
867.718	61.95
867.891	8.7
868.065	10.75
868.238	72.19
868.412	23.04
868.585	-1.54
868.759	45.57
868.932	29.18
869.105	14.85
869.279	41.47
869.452	35.33
869.625	-3.58
869.799	14.85
869.972	43.52
870.145	20.99
870.319	16.9
870.492	27.14
870.665	14.85
870.838	37.38
871.011	49.66
871.185	35.33
871.358	-9.73
871.531	14.85
871.704	-44.54
871.877	68.09
872.05	31.23
872.223	-1.54
872.396	72.19
872.569	2.56
872.742	0.51
872.915	109.05
873.088	-11.78
873.261	64
873.434	76.29
873.607	31.23
873.78	76.29
873.953	-44.54
874.126	27.14
874.299	35.33
874.471	55.81
874.644	2.56
874.817	47.62
874.99	96.77
875.163	35.33
875.335	-17.92
875.508	-62.98
875.681	-28.16
875.853	37.38
876.026	16.9
876.199	10.75
876.371	61.95
876.544	-5.63
876.717	2.56
876.889	2.56
877.062	41.47
877.234	57.86
877.407	-1.54
877.579	29.18
877.752	2.56
877.924	0.51
878.097	-17.92
878.269	41.47
878.442	8.7
878.614	10.75
878.786	-3.58
878.959	0.51
879.131	66.05
879.303	45.57
879.476	74.24
879.648	16.9
879.82	96.77
879.993	-19.97
880.165	-22.02
880.337	47.62
880.509	2.56
880.681	12.8
880.854	-30.21
881.026	27.14
881.198	-19.97
881.37	-3.58
881.542	27.14
881.714	12.8
881.886	-1.54
882.058	-28.16
882.23	-56.83
882.402	35.33
882.574	35.33
882.746	27.14
882.918	29.18
883.09	25.09
883.262	-67.07
883.434	76.29
883.606	29.18
883.778	-42.5
883.95	76.29
884.122	57.86
884.293	27.14
884.465	20.99
884.637	43.52
884.809	-32.26
884.98	37.38
885.152	-13.82
885.324	-22.02
885.496	33.28
885.667	6.66
885.839	23.04
886.011	78.33
886.182	-3.58
886.354	47.62
886.525	14.85
886.697	23.04
886.869	10.75
887.04	35.33
887.212	51.71
887.383	39.42
887.555	-19.97
887.726	-13.82
887.897	-22.02
888.069	-13.82
888.24	0.51
888.412	-5.63
888.583	8.7
888.754	16.9
888.926	86.53
889.097	72.19
889.268	-1.54
889.44	-9.73
889.611	61.95
889.782	6.66
889.953	8.7
890.125	66.05
890.296	45.57
890.467	20.99
890.638	-11.78
890.809	82.43
890.98	16.9
891.151	31.23
891.323	84.48
891.494	35.33
891.665	-36.35
891.836	49.66
892.007	-3.58
892.178	-9.73
892.349	16.9
892.52	-13.82
892.691	-58.88
892.862	-3.58
893.032	-24.06
893.203	-54.78
893.374	51.71
893.545	8.7
893.716	-13.82
893.887	12.8
894.057	-54.78
894.228	82.43
894.399	25.09
894.57	70.14
894.74	70.14
894.911	6.66
895.082	-50.69
895.253	-7.68
895.423	-22.02
895.594	84.48
895.764	-13.82
895.935	10.75
896.106	51.71
896.276	-5.63
896.447	-1.54
896.617	-7.68
896.788	-124.41
896.958	10.75
897.129	-11.78
897.299	27.14
897.47	35.33
897.64	47.62
897.81	-11.78
897.981	-26.11
898.151	6.66
898.322	-34.3
898.492	43.52
898.662	-24.06
898.832	-5.63
899.003	-13.82
899.173	96.77
899.343	41.47
899.513	-1.54
