Data from USB4F104151__33__11-36-48-125.txt Node

Date: Fri Mar 14 11:36:48 EDT 2025
User: louis
Spectrometer: USB4F10415
Trigger mode: 4
Integration Time (sec): 2.000000E-2
Scans to average: 1
Electric dark correction enabled: true
Nonlinearity correction enabled: false
Boxcar width: 0
XAxis mode: Wavelengths
Number of Pixels in Spectrum: 3648
>>>>>Begin Spectral Data<<<<<
178.204	12.63
178.424	12.63
178.644	12.63
178.864	-104.11
179.084	-122.54
179.304	-13.99
179.524	-1.71
179.744	6.49
179.964	92.5
180.184	31.06
180.404	-44.71
180.624	-22.19
180.844	18.77
181.064	-7.85
181.283	2.39
181.503	-38.57
181.723	-22.19
181.943	6.49
182.163	22.87
182.383	31.06
182.602	-81.58
182.822	61.78
183.042	-13.99
183.262	14.68
183.482	-18.09
183.701	51.54
183.921	35.16
184.141	-63.15
184.361	59.73
184.58	37.2
184.8	63.83
185.02	29.01
185.239	12.63
185.459	12.63
185.679	8.53
185.898	-26.28
186.118	-5.8
186.338	-3.75
186.557	65.88
186.777	26.96
186.997	88.4
187.216	-40.62
187.436	-28.33
187.655	-57
187.875	-61.1
188.095	-22.19
188.314	51.54
188.534	20.82
188.753	-11.95
188.973	2.39
189.192	6.49
189.412	26.96
189.631	-63.15
189.851	-32.43
190.07	20.82
190.29	69.97
190.509	72.02
190.729	-5.8
190.948	-9.9
191.168	135.51
191.387	31.06
191.607	-36.52
191.826	-59.05
192.045	22.87
192.265	37.2
192.484	31.06
192.704	102.74
192.923	20.82
193.142	8.53
193.362	18.77
193.581	55.64
193.8	4.44
194.02	31.06
194.239	2.39
194.458	59.73
194.678	-11.95
194.897	16.73
195.116	4.44
195.335	45.4
195.555	-36.52
195.774	57.68
195.993	55.64
196.212	33.11
196.432	55.64
196.651	88.4
196.87	-5.8
197.089	47.44
197.308	20.82
197.528	24.92
197.747	20.82
197.966	-3.75
198.185	92.5
198.404	-26.28
198.623	2.39
198.842	61.78
199.062	31.06
199.281	45.4
199.5	4.44
199.719	0.34
199.938	49.49
200.157	26.96
200.376	45.4
200.595	-13.99
200.814	-57
201.033	59.73
201.252	24.92
201.471	18.77
201.69	41.3
201.909	55.64
202.128	12.63
202.347	8.53
202.566	-24.23
202.785	31.06
203.004	2.39
203.223	59.73
203.442	22.87
203.661	-42.67
203.879	24.92
204.098	22.87
204.317	-24.23
204.536	51.54
204.755	24.92
204.974	76.12
205.193	-7.85
205.411	6.49
205.63	18.77
205.849	-3.75
206.068	47.44
206.287	-36.52
206.505	29.01
206.724	-57
206.943	14.68
207.162	-34.47
207.381	12.63
207.599	65.88
207.818	-52.91
208.037	2.39
208.255	-36.52
208.474	-5.8
208.693	14.68
208.911	-24.23
209.13	53.59
209.349	72.02
209.567	-9.9
209.786	47.44
210.005	-18.09
210.223	69.97
210.442	24.92
210.661	45.4
210.879	-42.67
211.098	61.78
211.316	-11.95
211.535	-1.71
211.753	2.39
211.972	12.63
212.191	8.53
212.409	20.82
212.628	-16.04
212.846	61.78
213.065	20.82
213.283	61.78
213.502	-34.47
213.72	47.44
213.938	-9.9
214.157	0.34
214.375	-30.38
214.594	-69.29
214.812	-1.71
215.031	6.49
215.249	51.54
215.467	-22.19
215.686	24.92
215.904	31.06
216.122	29.01
216.341	29.01
216.559	22.87
216.778	2.39
216.996	-13.99
217.214	18.77
217.432	-22.19
217.651	20.82
217.869	-20.14
218.087	98.64
218.306	43.35
218.524	-11.95
218.742	-32.43
218.96	-28.33
219.179	22.87
219.397	39.25
219.615	86.36
219.833	100.69
220.051	-20.14
220.27	33.11
220.488	55.64
220.706	-11.95
220.924	24.92
221.142	-11.95
221.36	26.96
221.578	12.63
221.796	4.44
222.015	57.68
222.233	-20.14
222.451	72.02
222.669	-69.29
222.887	45.4
223.105	-36.52
223.323	43.35
223.541	37.2
223.759	8.53
223.977	-11.95
224.195	22.87
224.413	67.92
224.631	35.16
224.849	4.44
225.067	12.63
225.285	20.82
225.503	26.96
225.721	-81.58
225.939	29.01
226.157	26.96
226.375	43.35
226.592	-63.15
226.81	-3.75
227.028	26.96
227.246	76.12
227.464	18.77
227.682	80.21
227.9	20.82
228.117	45.4
228.335	2.39
228.553	-7.85
228.771	-50.86
228.989	18.77
229.206	16.73
229.424	37.2
229.642	-32.43
229.86	-34.47
230.077	26.96
230.295	59.73
230.513	51.54
230.731	-42.67
230.948	37.2
231.166	39.25
231.384	35.16
231.601	51.54
231.819	31.06
232.037	22.87
232.254	-32.43
232.472	22.87
232.689	18.77
232.907	63.83
233.125	-38.57
233.342	2.39
233.56	-50.86
233.777	22.87
233.995	-16.04
234.213	61.78
234.43	26.96
234.648	37.2
234.865	20.82
235.083	74.07
235.3	72.02
235.518	61.78
235.735	55.64
235.953	35.16
236.17	2.39
236.388	-7.85
236.605	31.06
236.822	24.92
237.04	-9.9
237.257	20.82
237.475	45.4
237.692	37.2
237.909	59.73
238.127	18.77
238.344	16.73
238.562	43.35
238.779	-9.9
238.996	-5.8
239.214	51.54
239.431	26.96
239.648	22.87
239.865	-13.99
240.083	67.92
240.3	37.2
240.517	6.49
240.735	-7.85
240.952	-24.23
241.169	47.44
241.386	22.87
241.603	31.06
241.821	33.11
242.038	39.25
242.255	22.87
242.472	80.21
242.689	100.69
242.907	72.02
243.124	22.87
243.341	43.35
243.558	86.36
243.775	-46.76
243.992	20.82
244.209	51.54
244.426	90.45
244.643	18.77
244.86	82.26
245.078	-20.14
245.295	82.26
245.512	59.73
245.729	6.49
245.946	4.44
246.163	29.01
246.38	6.49
246.597	4.44
246.814	45.4
247.031	12.63
247.248	41.3
247.464	-1.71
247.681	84.31
247.898	47.44
248.115	67.92
248.332	-7.85
248.549	100.69
248.766	76.12
248.983	2.39
249.2	4.44
249.417	69.97
249.633	45.4
249.85	35.16
250.067	74.07
250.284	86.36
250.501	31.06
250.717	55.64
250.934	22.87
251.151	51.54
251.368	-1.71
251.585	33.11
251.801	-18.09
252.018	-28.33
252.235	31.06
252.451	2.39
252.668	67.92
252.885	35.16
253.102	20.82
253.318	-34.47
253.535	20.82
253.752	-5.8
253.968	22.87
254.185	96.6
254.401	88.4
254.618	20.82
254.835	16.73
255.051	0.34
255.268	74.07
255.484	12.63
255.701	10.58
255.917	-16.04
256.134	-20.14
256.351	47.44
256.567	-5.8
256.784	69.97
257	14.68
257.217	-3.75
257.433	-9.9
257.65	51.54
257.866	-36.52
258.082	-54.95
258.299	39.25
258.515	6.49
258.732	-36.52
258.948	-36.52
259.165	-11.95
259.381	-34.47
259.597	-11.95
259.814	6.49
260.03	65.88
260.246	18.77
260.463	31.06
260.679	31.06
260.895	16.73
261.112	18.77
261.328	4.44
261.544	43.35
261.761	29.01
261.977	14.68
262.193	37.2
262.409	51.54
262.626	14.68
262.842	-7.85
263.058	6.49
263.274	10.58
263.49	-1.71
263.707	45.4
263.923	10.58
264.139	18.77
264.355	-16.04
264.571	26.96
264.787	43.35
265.004	4.44
265.22	-9.9
265.436	-30.38
265.652	35.16
265.868	31.06
266.084	57.68
266.3	51.54
266.516	-42.67
266.732	37.2
266.948	10.58
267.164	37.2
267.38	18.77
267.596	-5.8
267.812	88.4
268.028	12.63
268.244	24.92
268.46	-24.23
268.676	-1.71
268.892	33.11
269.108	29.01
269.324	-7.85
269.54	-5.8
269.756	41.3
269.972	35.16
270.188	61.78
270.403	41.3
270.619	-5.8
270.835	35.16
271.051	35.16
271.267	24.92
271.483	18.77
271.698	-20.14
271.914	37.2
272.13	22.87
272.346	-34.47
272.562	14.68
272.777	6.49
272.993	4.44
273.209	18.77
273.425	78.16
273.64	-22.19
273.856	69.97
274.072	20.82
274.287	-106.15
274.503	14.68
274.719	100.69
274.934	45.4
275.15	-95.91
275.366	16.73
275.581	-13.99
275.797	41.3
276.012	88.4
276.228	47.44
276.444	35.16
276.659	112.98
276.875	29.01
277.09	4.44
277.306	47.44
277.521	24.92
277.737	12.63
277.952	-3.75
278.168	-22.19
278.383	14.68
278.599	14.68
278.814	33.11
279.03	22.87
279.245	-32.43
279.461	26.96
279.676	65.88
279.892	-44.71
280.107	12.63
280.322	-9.9
280.538	6.49
280.753	18.77
280.969	-13.99
281.184	-67.24
281.399	82.26
281.615	55.64
281.83	24.92
282.045	69.97
282.26	43.35
282.476	-34.47
282.691	31.06
282.906	45.4
283.122	137.56
283.337	26.96
283.552	92.5
283.767	6.49
283.983	84.31
284.198	-18.09
284.413	12.63
284.628	47.44
284.843	55.64
285.058	29.01
285.274	4.44
285.489	92.5
285.704	39.25
285.919	55.64
286.134	59.73
286.349	39.25
286.564	80.21
286.779	59.73
286.995	39.25
287.21	39.25
287.425	-18.09
287.64	47.44
287.855	37.2
288.07	-26.28
288.285	55.64
288.5	39.25
288.715	59.73
288.93	-40.62
289.145	18.77
289.36	29.01
289.575	-61.1
289.79	84.31
290.004	10.58
290.219	37.2
290.434	49.49
290.649	6.49
290.864	96.6
291.079	12.63
291.294	69.97
291.509	39.25
291.724	82.26
291.938	20.82
292.153	76.12
292.368	80.21
292.583	78.16
292.798	31.06
293.012	112.98
293.227	-38.57
293.442	22.87
293.657	51.54
293.871	55.64
294.086	31.06
294.301	47.44
294.516	121.17
294.73	57.68
294.945	-11.95
295.16	51.54
295.374	-34.47
295.589	10.58
295.804	-20.14
296.018	39.25
296.233	76.12
296.447	22.87
296.662	51.54
296.877	26.96
297.091	53.59
297.306	-13.99
297.52	26.96
297.735	-54.95
297.949	-1.71
298.164	-20.14
298.378	26.96
298.593	-38.57
298.807	55.64
299.022	-3.75
299.236	24.92
299.451	8.53
299.665	6.49
299.88	63.83
300.094	80.21
300.309	-5.8
300.523	76.12
300.737	55.64
300.952	26.96
301.166	45.4
301.381	45.4
301.595	-18.09
301.809	-24.23
302.024	33.11
302.238	31.06
302.452	-3.75
302.667	16.73
302.881	20.82
303.095	39.25
303.309	112.98
303.524	63.83
303.738	14.68
303.952	35.16
304.166	20.82
304.381	-5.8
304.595	67.92
304.809	14.68
305.023	14.68
305.237	90.45
305.452	24.92
305.666	29.01
305.88	4.44
306.094	67.92
306.308	80.21
306.522	88.4
306.736	43.35
306.95	121.17
307.164	14.68
307.379	53.59
307.593	47.44
307.807	20.82
308.021	47.44
308.235	45.4
308.449	69.97
308.663	43.35
308.877	51.54
309.091	-36.52
309.305	14.68
309.519	35.16
309.733	-1.71
309.947	-5.8
310.161	104.79
310.374	100.69
310.588	10.58
310.802	22.87
311.016	-1.71
311.23	8.53
311.444	31.06
311.658	96.6
311.872	39.25
312.085	76.12
312.299	125.27
312.513	2.39
312.727	96.6
312.941	-1.71
313.154	20.82
313.368	29.01
313.582	6.49
313.796	61.78
314.009	63.83
314.223	-13.99
314.437	53.59
314.651	67.92
314.864	-79.53
315.078	22.87
315.292	31.06
315.505	14.68
315.719	92.5
315.933	-18.09
316.146	22.87
316.36	53.59
316.573	4.44
316.787	117.08
317.001	59.73
317.214	-3.75
317.428	63.83
317.641	14.68
317.855	-34.47
318.068	86.36
318.282	94.55
318.495	35.16
318.709	39.25
318.922	55.64
319.136	57.68
319.349	-3.75
319.563	33.11
319.776	39.25
319.99	-1.71
320.203	51.54
320.417	10.58
320.63	2.39
320.843	72.02
321.057	18.77
321.27	14.68
321.483	22.87
321.697	112.98
321.91	6.49
322.124	29.01
322.337	65.88
322.55	55.64
322.763	-1.71
322.977	57.68
323.19	80.21
323.403	12.63
323.617	12.63
323.83	35.16
324.043	16.73
324.256	39.25
324.469	-38.57
324.683	39.25
324.896	29.01
325.109	22.87
325.322	14.68
325.535	74.07
325.748	47.44
325.962	55.64
326.175	4.44
326.388	-1.71
326.601	43.35
326.814	39.25
327.027	14.68
327.24	74.07
327.453	4.44
327.666	43.35
327.879	39.25
328.092	14.68
328.305	121.17
328.518	55.64
328.731	-32.43
328.944	59.73
329.157	35.16
329.37	143.7
329.583	22.87
329.796	117.08
330.009	18.77
330.222	55.64
330.435	29.01
330.648	29.01
330.861	29.01
331.073	4.44
331.286	-1.71
331.499	76.12
331.712	-5.8
331.925	35.16
332.138	-5.8
332.35	45.4
332.563	31.06
332.776	74.07
332.989	-13.99
333.202	29.01
333.414	39.25
333.627	51.54
333.84	37.2
334.053	90.45
334.265	57.68
334.478	53.59
334.691	63.83
334.903	65.88
335.116	-26.28
335.329	69.97
335.541	80.21
335.754	90.45
335.966	41.3
336.179	22.87
336.392	-50.86
336.604	80.21
336.817	59.73
337.029	-7.85
337.242	86.36
337.454	-9.9
337.667	4.44
337.88	55.64
338.092	10.58
338.305	55.64
338.517	24.92
338.729	82.26
338.942	45.4
339.154	-16.04
339.367	-22.19
339.579	14.68
339.792	51.54
340.004	-13.99
340.217	-9.9
340.429	37.2
340.641	-13.99
340.854	43.35
341.066	31.06
341.278	26.96
341.491	14.68
341.703	10.58
341.915	-13.99
342.128	117.08
342.34	18.77
342.552	76.12
342.764	14.68
342.977	72.02
343.189	43.35
343.401	67.92
343.613	-54.95
343.826	57.68
344.038	-16.04
344.25	45.4
344.462	22.87
344.674	80.21
344.886	29.01
345.099	133.46
345.311	-1.71
345.523	16.73
345.735	-75.43
345.947	63.83
346.159	29.01
346.371	102.74
346.583	35.16
346.795	47.44
347.007	-16.04
347.219	41.3
347.431	26.96
347.643	29.01
347.855	67.92
348.067	0.34
348.279	31.06
348.491	33.11
348.703	78.16
348.915	-3.75
349.127	29.01
349.339	37.2
349.551	63.83
349.763	-5.8
349.975	-18.09
350.187	74.07
350.399	80.21
350.61	49.49
350.822	-7.85
351.034	22.87
351.246	35.16
351.458	35.16
351.669	-13.99
351.881	63.83
352.093	76.12
352.305	80.21
352.517	8.53
352.728	117.08
352.94	67.92
353.152	98.64
353.363	-38.57
353.575	39.25
353.787	57.68
353.999	72.02
354.21	80.21
354.422	31.06
354.633	76.12
354.845	-38.57
355.057	-24.23
355.268	37.2
355.48	37.2
355.692	-1.71
355.903	90.45
356.115	0.34
356.326	-1.71
356.538	55.64
356.749	100.69
356.961	-22.19
357.172	31.06
357.384	26.96
357.595	94.55
357.807	16.73
358.018	14.68
358.23	110.93
358.441	67.92
358.653	110.93
358.864	6.49
359.075	12.63
359.287	-1.71
359.498	149.84
359.709	18.77
359.921	84.31
360.132	-1.71
360.344	86.36
360.555	18.77
360.766	31.06
360.977	72.02
361.189	88.4
361.4	72.02
361.611	51.54
361.823	31.06
362.034	72.02
362.245	16.73
362.456	53.59
362.667	43.35
362.879	16.73
363.09	35.16
363.301	2.39
363.512	14.68
363.723	-20.14
363.935	-20.14
364.146	74.07
364.357	31.06
364.568	18.77
364.779	39.25
364.99	80.21
365.201	29.01
365.412	160.08
365.623	8.53
365.834	129.36
366.045	8.53
366.256	10.58
366.467	57.68
366.678	92.5
366.889	24.92
367.1	26.96
367.311	37.2
367.522	100.69
367.733	20.82
367.944	24.92
368.155	84.31
368.366	125.27
368.577	41.3
368.788	43.35
368.999	-11.95
369.209	135.51
369.42	106.84
369.631	59.73
369.842	108.88
370.053	43.35
370.264	125.27
370.474	-9.9
370.685	39.25
370.896	12.63
371.107	67.92
371.317	67.92
371.528	0.34
371.739	57.68
371.95	63.83
372.16	2.39
372.371	-11.95
372.582	47.44
372.792	49.49
373.003	59.73
373.214	72.02
373.424	26.96
373.635	37.2
373.846	65.88
374.056	24.92
374.267	55.64
374.477	82.26
374.688	119.12
374.898	43.35
375.109	26.96
375.319	55.64
375.53	-3.75
375.74	-1.71
375.951	65.88
376.161	10.58
376.372	41.3
376.582	26.96
376.793	69.97
377.003	61.78
377.214	39.25
377.424	55.64
377.635	69.97
377.845	35.16
378.055	4.44
378.266	49.49
378.476	51.54
378.686	51.54
378.897	10.58
379.107	31.06
379.317	53.59
379.528	-11.95
379.738	49.49
379.948	26.96
380.158	-18.09
380.369	37.2
380.579	49.49
380.789	-1.71
380.999	18.77
381.21	14.68
381.42	63.83
381.63	61.78
381.84	117.08
382.05	108.88
382.261	2.39
382.471	41.3
382.681	84.31
382.891	74.07
383.101	2.39
383.311	-42.67
383.521	-3.75
383.731	102.74
383.941	37.2
384.151	57.68
384.361	65.88
384.571	55.64
384.781	78.16
384.991	61.78
385.201	86.36
385.411	84.31
385.621	119.12
385.831	-13.99
386.041	53.59
386.251	4.44
386.461	88.4
386.671	112.98
386.881	-13.99
387.091	84.31
387.301	55.64
387.511	35.16
387.72	65.88
387.93	84.31
388.14	8.53
388.35	20.82
388.56	31.06
388.769	29.01
388.979	6.49
389.189	78.16
389.399	26.96
389.609	43.35
389.818	47.44
390.028	127.32
390.238	10.58
390.447	55.64
390.657	104.79
390.867	80.21
391.076	80.21
391.286	86.36
391.496	53.59
391.705	-13.99
391.915	35.16
392.125	78.16
392.334	104.79
392.544	92.5
392.753	119.12
392.963	29.01
393.172	39.25
393.382	22.87
393.591	80.21
393.801	98.64
394.01	80.21
394.22	117.08
394.429	100.69
394.639	-5.8
394.848	59.73
395.058	108.88
395.267	22.87
395.477	35.16
395.686	96.6
395.895	76.12
396.105	108.88
396.314	137.56
396.524	108.88
396.733	51.54
396.942	147.8
397.152	86.36
397.361	170.32
397.57	76.12
397.78	100.69
397.989	98.64
398.198	102.74
398.407	39.25
398.617	117.08
398.826	41.3
399.035	115.03
399.244	110.93
399.453	86.36
399.663	92.5
399.872	45.4
400.081	102.74
400.29	145.75
400.499	123.22
400.708	155.99
400.917	96.6
401.127	100.69
401.336	110.93
401.545	182.61
401.754	78.16
401.963	155.99
402.172	110.93
402.381	129.36
402.59	153.94
402.799	110.93
403.008	139.6
403.217	176.47
403.426	100.69
403.635	135.51
403.844	115.03
404.053	121.17
404.262	108.88
404.471	174.42
404.68	96.6
404.888	184.66
405.097	203.09
405.306	176.47
405.515	115.03
405.724	170.32
405.933	162.13
406.142	176.47
406.35	125.27
406.559	151.89
406.768	211.28
406.977	225.62
407.185	198.99
407.394	186.71
407.603	115.03
407.812	217.43
408.02	268.63
408.229	211.28
408.438	268.63
408.646	176.47
408.855	256.34
409.064	319.82
409.272	262.48
409.481	344.4
409.69	266.58
409.898	311.63
410.107	330.06
410.315	293.2
410.524	293.2
410.733	368.98
410.941	344.4
411.15	317.78
411.358	358.74
411.567	440.65
411.775	444.75
411.984	395.6
412.192	487.76
412.401	448.85
412.609	547.15
412.818	538.96
413.026	479.57
413.234	510.29
413.443	522.57
413.651	606.54
413.86	538.96
414.068	627.02
414.276	651.6
414.485	692.55
414.693	688.46
414.901	682.31
415.11	723.27
415.318	803.15
415.526	774.47
415.734	745.8
415.943	848.2
416.151	760.14
416.359	899.4
416.567	919.88
416.776	960.84
416.984	930.12
417.192	1030.47
417.4	934.22
417.608	989.51
417.817	1096
418.025	1165.64
418.233	1220.93
418.441	1265.99
418.649	1194.31
418.857	1370.43
419.065	1388.86
419.273	1349.95
419.481	1464.64
419.689	1628.48
419.897	1540.41
420.105	1620.28
420.313	1712.44
420.521	1673.53
420.729	1681.72
420.937	1753.4
421.145	1886.52
421.353	2056.5
421.561	2050.36
421.769	2033.97
421.977	2210.1
422.185	2038.07
422.393	2347.31
422.601	2414.9
422.809	2396.46
423.017	2423.09
423.224	2437.42
423.432	2609.45
423.64	2662.7
423.848	2947.37
424.056	2847.02
424.263	2961.7
424.471	3019.05
424.679	3066.15
424.887	3143.97
425.094	3424.55
425.302	3381.54
425.51	3471.65
425.718	3481.89
425.925	3664.16
426.133	3852.57
426.341	3997.98
426.548	4161.81
426.756	4016.41
426.964	4200.73
427.171	4380.95
427.379	4565.26
427.586	4778.25
427.794	4761.87
428.001	5040.39
428.209	5122.31
428.417	4989.19
428.624	5564.67
428.832	5357.83
429.039	5333.25
429.247	5443.84
429.454	6011.13
429.662	6285.56
429.869	5818.62
430.076	6426.87
430.284	6215.93
430.491	6428.92
430.699	6711.53
430.906	6834.41
431.114	7086.31
431.321	7090.41
431.528	7162.09
431.736	7657.7
431.943	8016.09
432.15	7571.68
432.358	7968.99
432.565	8335.57
432.772	8454.36
432.979	8868.05
433.187	8927.44
433.394	8898.77
433.601	9605.31
433.808	9595.07
434.016	9564.36
434.223	9953.47
434.43	10377.4
434.637	10442.93
434.844	10934.45
435.052	11163.82
435.259	11102.38
435.466	11356.33
435.673	11266.22
435.88	11970.72
436.087	12462.23
436.294	12652.69
436.501	12222.62
436.708	12406.94
436.915	12912.78
437.122	13461.64
437.329	13445.26
437.537	13897.86
437.743	14200.96
437.95	14073.98
438.157	14715
438.364	15472.75
438.571	15177.84
438.778	15523.94
438.985	16810.07
439.192	16175.2
439.399	16728.15
439.606	16203.87
439.813	17223.76
440.02	18405.44
440.227	17942.6
440.433	17723.46
440.64	18333.76
440.847	18184.26
441.054	18751.54
441.261	19662.89
441.467	19785.77
441.674	20195.36
441.881	20852.76
442.088	20615.19
442.294	20672.54
442.501	21063.7
442.708	21571.6
442.914	22579.2
443.121	23232.5
443.328	22818.81
443.534	24242.15
443.741	23635.95
443.948	23320.56
444.154	24674.27
444.361	24860.63
444.568	25026.52
444.774	25257.94
444.981	25366.48
445.187	26120.13
445.394	27549.62
445.6	26851.26
445.807	29521.81
446.013	27942.83
446.22	29177.75
446.426	30297.99
446.633	30119.82
446.839	31313.78
447.046	29724.56
447.252	31655.79
447.459	31688.56
447.665	31588.21
447.871	32952.16
448.078	34096.97
448.284	32685.92
448.491	33836.88
448.697	34819.91
448.903	35602.23
449.11	35467.06
449.316	35213.12
449.522	35485.5
449.728	36445.99
449.935	36957.99
450.141	37259.04
450.347	37588.76
450.553	36859.68
450.76	36884.26
450.966	38313.74
451.172	37762.84
451.378	38725.38
451.584	38203.15
451.791	38973.19
451.997	38766.34
452.203	39302.91
452.409	39634.68
452.615	39745.27
452.821	38022.93
453.027	37715.73
453.233	39694.07
453.44	37783.32
453.646	38387.47
453.852	39032.58
454.058	39255.81
454.264	37828.37
454.47	38932.23
454.676	37861.14
454.882	38967.04
455.088	35946.29
455.294	36310.83
455.5	36882.21
455.705	37297.95
455.911	35475.26
456.117	35225.4
456.323	34639.68
456.529	33226.59
456.735	33957.71
456.941	33310.55
457.147	32307.05
457.352	31850.35
457.558	31405.94
457.764	31385.46
457.97	31014.78
458.176	30289.8
458.381	30123.91
458.587	28602.27
458.793	28770.21
458.999	27297.72
459.204	29335.45
459.41	27967.4
459.616	26740.67
459.821	26632.13
460.027	26482.63
460.233	26052.55
460.438	24780.76
460.644	24813.53
460.85	23785.45
461.055	23279.6
461.261	23474.16
461.466	21587.98
461.672	20955.16
461.878	22640.64
462.083	21114.9
462.289	20604.95
462.494	20342.81
462.7	19331.12
462.905	19109.94
463.111	19593.26
463.316	19478.57
463.522	19642.41
463.727	19439.66
463.932	19238.96
464.138	18962.48
464.343	19345.45
464.549	18548.79
464.754	19118.13
464.959	18944.05
465.165	19099.7
465.37	17987.65
465.575	17727.56
465.781	18298.94
465.986	18532.41
466.191	17729.61
466.397	17289.29
466.602	16590.94
466.807	17217.61
467.012	17371.21
467.218	17188.94
467.423	17068.11
467.628	17023.06
467.833	17582.15
468.038	17088.59
468.244	16748.63
468.449	17190.99
468.654	16629.85
468.859	17076.3
469.064	16523.35
469.269	15728.74
469.474	15863.91
469.679	16289.88
469.885	15591.53
470.09	15884.39
470.295	15906.91
470.5	15710.31
470.705	15665.25
470.91	15394.92
471.115	14995.57
471.32	15482.99
471.525	15370.35
471.73	14874.74
471.935	14647.41
472.139	14198.91
472.344	14518.39
472.549	14356.6
472.754	14153.85
472.959	13899.91
473.164	13654.15
473.369	13607.05
473.574	14080.13
473.778	13801.6
473.983	13779.08
474.188	13613.19
474.393	13172.88
474.598	13168.78
474.802	13041.81
475.007	12908.69
475.212	13015.18
475.417	12447.9
475.621	12429.46
475.826	12638.36
476.031	12314.78
476.235	12081.31
476.44	12349.59
476.645	12118.17
476.849	11976.86
477.054	11933.86
477.259	11712.67
477.463	11876.51
477.668	11466.92
477.872	11446.44
478.077	11362.47
478.282	11063.47
478.486	10911.92
478.691	10868.91
478.895	10907.82
479.1	10764.47
479.304	10924.21
479.509	10510.52
479.713	10746.03
479.918	10358.97
480.122	10430.65
480.326	10412.21
480.531	10485.94
480.735	10334.39
480.94	10248.38
481.144	10739.89
481.348	10090.68
481.553	10180.79
481.757	10172.6
481.961	10340.54
482.166	10174.65
482.37	10318.01
482.574	10031.29
482.778	10201.27
482.983	10088.64
483.187	9969.85
483.391	10098.88
483.595	9955.52
483.8	10000.57
484.004	10152.12
484.208	10082.49
484.412	9973.95
484.616	10080.44
484.821	10227.9
485.025	9795.78
485.229	10080.44
485.433	10084.54
485.637	9978.05
485.841	9920.7
486.045	9928.89
486.249	10016.96
486.453	9892.03
486.657	10176.7
486.861	10184.89
487.065	9720
487.269	10115.26
487.473	9771.2
487.677	10125.5
487.881	10125.5
488.085	10184.89
488.289	10082.49
488.493	10062.01
488.697	10260.66
488.901	10195.13
489.105	10176.7
489.309	10277.05
489.512	10178.75
489.716	9998.52
489.92	10219.71
490.124	10145.98
490.328	10483.89
490.531	10346.68
490.735	10438.84
490.939	10436.79
491.143	10199.23
491.346	10539.19
491.55	10502.33
491.754	10621.11
491.958	10537.14
492.161	10522.8
492.365	10743.99
492.569	10743.99
492.772	10662.07
492.976	10606.77
493.18	10942.64
493.383	10836.14
493.587	10993.84
493.79	11116.72
493.994	10836.14
494.197	10969.26
494.401	11159.72
494.605	11102.38
494.808	11131.05
495.012	11454.63
495.215	11516.07
495.419	11641
495.622	11362.47
495.825	11554.98
496.029	11790.5
496.232	12032.16
496.436	11958.43
496.639	12314.78
496.843	12347.54
497.046	12566.68
497.249	12576.92
497.453	12634.26
497.656	12798.1
497.859	12927.12
498.063	12908.69
498.266	13441.16
498.469	13009.04
498.673	13158.54
498.876	13336.71
499.079	13531.27
499.282	13648.01
499.485	13842.56
499.689	14076.03
499.892	14047.36
500.095	14299.26
500.298	14682.23
500.501	14266.49
500.705	14837.87
500.908	14909.55
501.111	15091.82
501.314	15521.9
501.517	15513.7
501.72	15405.16
501.923	15825
502.126	15818.85
502.329	16136.29
502.532	16040.03
502.735	16240.73
502.938	16808.02
503.141	16908.37
503.344	16994.39
503.547	17031.25
503.75	17346.64
503.953	17504.33
504.156	17549.39
504.359	17872.96
504.562	17791.05
504.765	18200.64
504.968	18411.58
505.17	18501.69
505.373	18710.58
505.576	18833.46
505.779	19187.76
505.982	19273.78
506.185	19703.85
506.387	20168.74
506.59	19900.45
506.793	20451.36
506.996	20420.64
507.198	21069.84
507.401	20752.41
507.604	21008.4
507.807	21606.41
508.009	21420.05
508.212	21616.65
508.415	21792.78
508.617	21944.33
508.82	22409.22
509.022	22517.76
509.225	23001.08
509.428	23130.1
509.63	23318.51
509.833	23619.56
510.035	24025.06
510.238	23611.37
510.44	24154.08
510.643	24508.38
510.845	24625.12
511.048	24348.64
511.25	24893.4
511.453	25157.59
511.655	25905.1
511.858	25749.45
512.06	25956.3
512.262	25767.88
512.465	25845.71
512.667	26884.03
512.87	26517.44
513.072	26820.54
513.274	27531.19
513.477	27606.96
513.679	27809.71
513.881	28188.58
514.084	28532.64
514.286	28383.14
514.488	28565.41
514.69	29132.7
514.893	29507.48
515.095	29149.08
515.297	29818.77
515.499	29685.65
515.701	30418.82
515.904	30576.51
516.106	30863.23
516.308	31137.66
516.51	31090.55
516.712	31338.36
516.914	31625.07
517.116	32374.63
517.318	32391.02
517.52	32356.2
517.722	32620.39
517.925	32712.55
518.127	33070.94
518.329	33754.96
518.531	33216.35
518.733	34242.38
518.935	34387.78
519.136	33947.47
519.338	34574.15
519.54	34576.2
519.742	34850.63
519.944	35376.95
520.146	36278.06
520.348	35911.47
520.55	36118.32
520.752	36519.72
520.954	36822.82
521.155	36484.9
521.357	37134.11
521.559	37543.7
521.761	37533.46
521.963	38055.7
522.164	38301.45
522.366	38299.4
522.568	38352.65
522.77	38590.22
522.971	39397.12
523.173	38838.02
523.375	39608.06
523.576	39253.76
523.778	39401.21
523.98	39907.06
524.181	40007.41
524.383	40292.08
524.584	40513.26
524.786	40290.03
524.988	40386.29
525.189	40871.65
525.391	40994.53
525.592	41215.71
525.794	41520.86
525.995	41678.55
526.197	41727.7
526.398	41516.76
526.6	42034.9
526.801	41881.3
527.003	42286.8
527.204	42272.46
527.406	42589.9
527.607	42700.49
527.808	42911.43
528.01	42440.4
528.211	42409.68
528.412	43728.57
528.614	43511.49
528.815	43431.61
529.016	43810.49
529.218	43208.39
529.419	43542.2
529.62	43413.18
529.822	43685.56
530.023	43740.86
530.224	43787.96
530.425	43589.31
530.626	43343.55
530.828	43376.32
531.029	44353.2
531.23	44046.01
531.431	44107.44
531.632	44015.29
531.833	44254.9
532.035	43957.94
532.236	44400.3
532.437	44381.87
532.638	44207.79
532.839	44701.36
533.04	44431.02
533.241	44058.29
533.442	45014.69
533.643	44322.48
533.844	44596.91
534.045	44684.97
534.246	44152.5
534.447	44822.19
534.648	44467.89
534.849	44416.69
535.05	44166.84
535.251	44428.98
535.451	44304.05
535.652	44471.98
535.853	44101.3
536.054	44234.42
536.255	45000.36
536.456	44287.67
536.657	44701.36
536.857	44576.43
537.058	44015.29
537.259	44680.88
537.46	44129.97
537.66	44488.37
537.861	44476.08
538.062	44383.92
538.263	44521.13
538.463	44670.64
538.664	44158.64
538.865	44230.32
539.065	44725.93
539.266	43945.65
539.466	45067.94
539.667	43835.06
539.868	44865.19
540.068	44492.46
540.269	43978.42
540.469	44353.2
540.67	44318.39
540.87	44197.55
541.071	44449.46
541.271	44414.64
541.472	44353.2
541.672	44267.19
541.873	44199.6
542.073	43773.63
542.274	44316.34
542.474	44078.77
542.675	44074.68
542.875	44539.57
543.075	44295.86
543.276	44007.09
543.476	44783.27
543.676	44119.73
543.877	44328.62
544.077	44175.03
544.277	44064.44
544.478	43892.41
544.678	44474.03
544.878	44234.42
545.078	44258.99
545.279	43916.98
545.479	43843.26
545.679	44261.04
545.879	44285.62
546.079	43892.41
546.28	44175.03
546.48	43646.65
546.68	44111.54
546.88	44050.1
547.08	44383.92
547.28	43835.06
547.48	43628.22
547.68	44109.49
547.88	43617.98
548.081	43867.83
548.281	43757.24
548.481	43507.39
548.681	44052.15
548.881	43949.75
549.081	43617.98
549.28	43372.22
549.48	44154.55
549.68	43202.24
549.88	44189.36
550.08	43407.04
550.28	43769.53
550.48	43396.8
550.68	43976.37
550.88	43417.28
551.08	43626.17
551.279	43812.54
551.479	43507.39
551.679	43738.81
551.879	43282.11
552.079	44185.27
552.278	43402.94
552.478	43310.78
552.678	43722.43
552.878	43409.09
553.077	43359.94
553.277	43009.73
553.477	43583.16
553.676	43452.09
553.876	43269.83
554.076	43355.84
554.275	43224.77
554.475	43124.42
554.674	43282.11
554.874	43339.46
555.074	43216.58
555.273	42888.9
555.473	43169.47
555.672	43032.26
555.872	43087.56
556.071	42837.7
556.271	43380.42
556.47	42585.8
556.67	42434.25
556.869	42516.17
557.068	43015.88
557.268	42659.53
557.467	42706.63
557.667	42505.93
557.866	42790.6
558.065	42344.14
558.265	42424.01
558.464	42254.03
558.663	42594
558.863	42172.11
559.062	42477.26
559.261	42335.95
559.461	42596.04
559.66	42012.37
559.859	42147.54
560.058	42139.35
560.258	42200.79
560.457	41844.44
560.656	41793.24
560.855	41995.99
561.054	41758.42
561.253	41580.25
561.453	42098.39
561.652	41977.56
561.851	41942.74
562.05	41664.22
562.249	41393.89
562.448	41842.39
562.647	41770.71
562.846	41299.68
563.045	41574.11
563.244	41215.71
563.443	41494.24
563.642	41027.3
563.841	41377.5
564.04	41123.55
564.239	41301.73
564.438	40810.21
564.637	41072.35
564.836	41037.54
565.035	40541.93
565.234	40724.2
565.432	40507.12
565.631	40435.44
565.83	40873.7
566.029	40290.03
566.228	40478.44
566.427	40304.37
566.625	40077.04
566.824	39663.35
567.023	40113.91
567.222	39614.2
567.42	40496.88
567.619	40134.38
567.818	39599.87
568.016	40003.31
568.215	39941.88
568.414	39612.15
568.612	39767.8
568.811	39511.8
569.01	39732.98
569.208	39337.73
569.407	39507.71
569.605	38702.85
569.804	39188.22
570.002	38676.23
570.201	39515.9
570.4	38762.25
570.598	38676.23
570.797	38358.8
570.995	38919.94
571.193	38500.11
571.392	38778.63
571.59	38233.87
571.789	38940.42
571.987	38399.76
572.186	38305.55
572.384	38100.75
572.582	38487.82
572.781	38450.95
572.979	37674.77
573.177	38301.45
573.376	38020.88
573.574	37998.35
573.772	37902.1
573.971	37857.04
574.169	37723.93
574.367	37621.53
574.565	37519.13
574.763	37205.79
574.962	37074.72
575.16	36679.46
575.358	37386.01
575.556	36622.12
575.754	37269.28
575.952	36726.56
576.151	36935.46
576.349	36560.68
576.547	36650.79
576.745	36599.59
576.943	36646.69
577.141	36364.07
577.339	36134.7
577.537	36392.75
577.735	36308.78
577.933	36106.03
578.131	36097.84
578.329	36185.9
578.527	35923.76
578.725	36118.32
578.923	36130.61
579.121	35651.38
579.319	35635
579.516	35850.03
579.714	35565.37
579.912	35409.72
580.11	35153.72
580.308	35520.31
580.506	35254.08
580.704	34357.07
580.901	35110.72
581.099	35108.67
581.297	34039.63
581.495	34574.15
581.692	34993.98
581.89	34518.85
582.088	34531.14
582.285	34393.93
582.483	34594.63
582.681	34457.42
582.878	34226
583.076	33742.67
583.274	34070.35
583.471	33793.87
583.669	33886.03
583.866	33554.26
584.064	33709.91
584.262	33333.08
584.459	33857.36
584.657	33478.49
584.854	33957.71
585.052	32847.71
585.249	33048.41
585.447	33341.27
585.644	32900.96
585.841	32958.3
586.039	33234.78
586.236	32429.93
586.434	32712.55
586.631	32251.75
586.828	32446.31
587.026	32466.79
587.223	32255.85
587.42	32198.51
587.618	31942.51
587.815	31827.82
588.012	31709.04
588.21	31858.54
588.407	32010.09
588.604	31577.97
588.801	31758.19
588.999	31706.99
589.196	31608.69
589.393	31754.1
589.59	31428.47
589.787	31334.26
589.984	30945.15
590.182	31188.86
590.379	31080.32
590.576	31000.44
590.773	30664.58
590.97	30791.55
591.167	30826.37
591.364	30269.32
591.561	30556.04
591.758	30064.52
591.955	30408.58
592.152	30744.45
592.349	29960.08
592.546	30164.87
592.743	30160.78
592.94	29607.83
593.137	29900.69
593.334	29941.64
593.531	29468.56
593.727	29794.19
593.924	29579.15
594.121	29056.92
594.318	29351.83
594.515	29048.73
594.712	29190.04
594.908	29097.88
595.105	29349.78
595.302	28870.56
595.499	29134.74
595.696	28604.32
595.892	28567.46
596.089	28790.69
596.286	28684.19
596.482	28211.11
596.679	28372.9
596.876	28368.8
597.072	28110.76
597.269	28215.21
597.466	27971.5
597.662	27781.04
597.859	27963.31
598.055	27893.68
598.252	27791.28
598.448	27711.41
598.645	27533.23
598.841	27291.57
599.038	27361.2
599.234	27449.27
599.431	26933.18
599.627	27004.86
599.824	27209.65
600.02	27047.86
600.217	26982.33
600.413	27144.12
600.609	26712
600.806	26363.84
601.002	26929.08
601.198	26292.16
601.395	26398.66
601.591	26441.67
601.787	26382.27
601.984	26169.29
602.18	26486.72
602.376	26161.09
602.572	25991.11
602.769	26095.56
602.965	25624.53
603.161	25894.86
603.357	25511.89
603.553	25700.3
603.75	25544.66
603.946	25380.82
604.142	25665.49
604.338	25331.67
604.534	25475.02
604.73	25065.43
604.926	25114.58
605.122	25235.41
605.318	24752.09
605.514	24825.82
605.71	24846.3
605.906	24748
606.102	24926.17
606.298	24625.12
606.494	24668.12
606.69	24453.09
606.886	24362.98
607.082	24285.15
607.278	24596.45
607.474	24580.06
607.67	24528.86
607.866	24233.96
608.062	24231.91
608.257	23945.19
608.453	23984.1
608.649	24338.4
608.845	23838.7
609.041	23912.42
609.236	23775.21
609.432	23797.74
609.628	23830.51
609.824	23904.23
610.019	23635.95
610.215	23535.6
610.411	23818.22
610.606	23500.78
610.802	23465.97
610.998	23365.62
611.193	23453.68
611.389	23472.11
611.584	23289.84
611.78	23472.11
611.976	23218.16
612.171	22933.5
612.367	22839.29
612.562	23076.85
612.758	22788.09
612.953	22747.13
613.149	23263.22
613.344	22794.23
613.539	22927.35
613.735	22652.92
613.93	22810.62
614.126	22767.61
614.321	22738.94
614.517	22626.3
614.712	22685.69
614.907	22120.45
615.103	22671.36
615.298	22814.71
615.493	22689.79
615.688	22296.58
615.884	22755.32
616.079	22331.39
616.274	22118.4
616.47	22509.57
616.665	22401.02
616.86	22016.01
617.055	22056.96
617.25	21958.66
617.445	22016.01
617.641	21872.65
617.836	21837.83
618.031	21561.36
618.226	21968.9
618.421	21696.52
618.616	21938.18
618.811	21211.15
619.006	21825.54
619.201	21119
619.396	21303.31
619.591	21239.83
619.786	21354.51
619.981	20914.2
620.176	21301.26
620.371	20678.68
620.566	21114.9
620.761	20545.56
620.956	20946.97
621.151	20293.66
621.346	20406.3
621.541	20002.85
621.735	20152.35
621.93	19791.91
622.125	20070.44
622.32	19793.96
622.515	19855.4
622.709	19656.75
622.904	19511.34
623.099	19816.49
623.294	19449.9
623.488	19308.59
623.683	19488.81
623.878	19073.07
624.072	19142.71
624.267	19071.03
624.462	18960.44
624.656	18616.38
624.851	18804.79
625.046	18714.68
625.24	18442.3
625.435	18503.74
625.629	18114.62
625.824	18176.06
626.018	18255.93
626.213	17834.05
626.407	18110.53
626.602	17805.38
626.796	18053.19
626.991	17860.68
627.185	17555.53
627.38	17391.69
627.574	17326.16
627.768	17426.51
627.963	17270.86
628.157	17256.53
628.352	17227.85
628.546	16738.39
628.74	17098.83
628.935	16851.03
629.129	16674.9
629.323	16339.04
629.517	16484.44
629.712	16504.92
629.906	16388.19
630.1	15974.5
630.294	15978.59
630.489	16138.34
630.683	16124
630.877	15843.43
631.071	15706.21
631.265	15612.01
631.459	15683.69
631.653	15562.86
631.848	15476.84
632.042	15304.81
632.236	15577.19
632.43	15272.04
632.624	15263.85
632.818	15122.54
633.012	14975.09
633.206	15014
633.4	14919.79
633.594	14631.03
633.788	14536.82
633.982	14557.3
634.176	14596.21
634.369	14522.49
634.563	14309.5
634.757	14291.07
634.951	14407.8
635.145	14170.24
635.339	14360.7
635.533	14073.98
635.726	14149.76
635.92	14203
636.114	13836.42
636.308	13781.12
636.501	13736.07
636.695	13674.63
636.889	13424.78
637.083	13351.05
637.276	13326.47
637.47	13334.67
637.664	13197.45
637.857	13412.49
638.051	13136.01
638.244	12867.73
638.438	12974.22
638.632	13009.04
638.825	13037.71
639.019	12757.14
639.212	12732.56
639.406	12728.47
639.599	12370.07
639.793	12525.72
639.986	12218.52
640.18	12370.07
640.373	12368.02
640.567	12152.99
640.76	12253.34
640.954	12282.01
641.147	12028.06
641.34	11948.19
641.534	11933.86
641.727	11974.81
641.92	11950.24
642.114	11630.76
642.307	11927.71
642.5	11550.89
642.694	11520.17
642.887	11274.41
643.08	11493.54
643.273	11450.53
643.467	11561.12
643.66	10977.45
643.853	11346.09
644.046	11239.59
644.239	10981.55
644.432	11030.7
644.626	10954.93
644.819	10879.15
645.012	10901.68
645.205	10832.05
645.398	10666.16
645.591	10672.31
645.784	10590.39
645.977	10506.42
646.17	10442.93
646.363	10596.53
646.556	10350.78
646.749	10600.63
646.942	10422.45
647.135	10215.61
647.328	10238.14
647.521	10197.18
647.714	9965.76
647.907	9894.08
648.099	9900.22
648.292	9840.83
648.485	9947.33
648.678	9877.69
648.871	9648.32
649.064	9611.46
649.256	9810.11
649.449	9699.52
649.642	9590.98
649.835	9504.96
650.027	9345.22
650.22	9482.44
650.413	9429.19
650.605	9459.91
650.798	9105.61
650.991	9101.51
651.183	9283.78
651.376	8943.82
651.568	8980.68
651.761	8952.01
651.954	8921.29
652.146	8913.1
652.339	8786.13
652.531	8822.99
652.724	8716.5
652.916	8591.57
653.109	8530.13
653.301	8462.55
653.494	8696.02
653.686	8339.67
653.879	8566.99
654.071	8616.15
654.263	8571.09
654.456	8499.41
654.648	8517.84
654.84	8138.97
655.033	8290.52
655.225	8151.26
655.417	8026.33
655.61	7895.26
655.802	8108.25
655.994	7987.42
656.186	8044.76
656.379	7952.6
656.571	7846.11
656.763	7887.07
656.955	7674.08
657.148	7903.45
657.34	7682.27
657.532	7583.97
657.724	7645.41
657.916	7538.91
658.108	7698.66
658.3	7508.19
658.492	7502.05
658.684	7475.43
658.876	7473.38
659.068	7332.07
659.26	7319.78
659.452	7291.11
659.644	7164.14
659.836	7088.36
660.028	7250.15
660.22	7172.33
660.412	7182.57
660.604	6955.24
660.796	6920.43
660.988	6934.76
661.18	6809.84
661.372	6846.7
661.563	6729.97
661.755	6742.25
661.947	6885.61
662.139	6609.14
662.331	6678.77
662.522	6420.72
662.714	6478.07
662.906	6396.15
663.097	6486.26
663.289	6547.7
663.481	6420.72
663.673	6420.72
663.864	6371.57
664.056	6322.42
664.247	6373.62
664.439	6234.36
664.631	6318.32
664.822	6314.23
665.014	6314.23
665.205	6189.3
665.397	6017.27
665.588	6091
665.78	6109.43
665.971	6021.37
666.163	6027.51
666.354	5921.02
666.546	6088.95
666.737	5851.39
666.929	5927.16
667.12	5935.35
667.311	5755.13
667.503	5781.76
667.694	5873.92
667.885	5769.47
668.077	5744.89
668.268	5595.39
668.459	5634.3
668.651	5667.07
668.842	5691.65
669.033	5587.2
669.224	5421.31
669.416	5509.38
669.607	5507.33
669.798	5550.34
669.989	5390.6
670.18	5435.65
670.371	5548.29
670.563	5388.55
670.754	5304.58
670.945	5226.76
671.136	5423.36
671.327	5226.76
671.518	5300.48
671.709	5140.74
671.9	5370.12
672.091	5376.26
672.282	5114.12
672.473	5071.11
672.664	5243.14
672.855	5095.69
673.046	5128.46
673.237	5150.98
673.428	5003.53
673.619	5034.25
673.809	4886.79
674	4860.17
674.191	4933.9
674.382	4899.08
674.573	4901.13
674.764	4999.43
674.954	4972.81
675.145	4667.66
675.336	4671.76
675.527	4890.89
675.717	4798.73
675.908	4854.03
676.099	4778.25
676.289	4798.73
676.48	4788.49
676.671	4753.68
676.861	4761.87
677.052	4579.6
677.243	4585.74
677.433	4882.7
677.624	4749.58
677.814	4608.27
678.005	4587.79
678.195	4493.58
678.386	4682
678.576	4651.28
678.767	4610.32
678.957	4534.54
679.148	4626.7
679.338	4557.07
679.529	4444.43
679.719	4342.04
679.909	4503.82
680.1	4446.48
680.29	4524.3
680.481	4376.85
680.671	4487.44
680.861	4497.68
681.052	4501.78
681.242	4507.92
681.432	4415.76
681.622	4403.47
681.813	4174.1
682.003	4331.8
682.193	4489.49
682.383	4485.39
682.573	4442.39
682.764	4217.11
682.954	4325.65
683.144	4344.08
683.334	4372.75
683.524	4141.33
683.714	4129.05
683.904	4247.83
684.094	4202.77
684.284	4176.15
684.474	4206.87
684.664	4137.24
684.854	4110.61
685.044	4253.97
685.234	4061.46
685.424	3997.98
685.614	4133.14
685.804	3991.83
685.994	4106.52
686.184	4043.03
686.374	4002.07
686.564	3985.69
686.753	4004.12
686.943	4012.31
687.133	4030.74
687.323	3961.11
687.513	3969.3
687.702	4010.26
687.892	4114.71
688.082	3832.09
688.272	3778.84
688.461	3795.23
688.651	3938.59
688.841	3719.45
689.03	3744.03
689.22	3807.52
689.41	3832.09
689.599	3780.89
689.789	3760.41
689.979	3721.5
690.168	3793.18
690.358	3627.29
690.547	3576.09
690.737	3715.36
690.926	3615.01
691.116	3635.49
691.305	3565.85
691.495	3516.7
691.684	3635.49
691.874	3617.05
692.063	3485.98
692.252	3547.42
692.442	3483.94
692.631	3580.19
692.82	3516.7
693.01	3461.41
693.199	3502.37
693.388	3430.69
693.578	3494.18
693.767	3432.74
693.956	3356.96
694.146	3375.39
694.335	3418.4
694.524	3270.95
694.713	3305.76
694.902	3289.38
695.092	3264.8
695.281	3367.2
695.47	3211.56
695.659	3107.11
695.848	3215.65
696.037	3213.6
696.226	3107.11
696.415	3148.07
696.604	3139.88
696.793	3182.88
696.982	3111.21
697.171	3143.97
697.36	3117.35
697.549	3035.43
697.738	3023.14
697.927	3086.63
698.116	3014.95
698.305	3133.73
698.494	3109.16
698.683	3031.34
698.872	3076.39
699.061	2908.46
699.25	3019.05
699.438	3033.38
699.627	2959.66
699.816	2951.46
700.005	2976.04
700.193	2830.63
700.382	2943.27
700.571	2851.11
700.76	2812.2
700.948	2820.39
701.137	2928.94
701.326	2795.82
701.514	2818.35
701.703	2824.49
701.892	2900.27
702.08	2873.64
702.269	2883.88
702.457	2861.35
702.646	2935.08
702.834	2767.15
703.023	2812.2
703.212	2808.11
703.4	2824.49
703.589	2701.61
703.777	2855.21
703.965	2642.22
704.154	2713.9
704.342	2787.63
704.531	2734.38
704.719	2642.22
704.907	2806.06
705.096	2715.95
705.284	2752.81
705.472	2732.33
705.661	2701.61
705.849	2756.91
706.037	2728.24
706.226	2609.45
706.414	2511.15
706.602	2679.08
706.79	2769.2
706.979	2660.65
707.167	2556.21
707.355	2691.37
707.543	2769.2
707.731	2652.46
707.919	2674.99
708.107	2715.95
708.296	2529.58
708.484	2660.65
708.672	2603.31
708.86	2623.79
709.048	2658.6
709.236	2545.97
709.424	2740.52
709.612	2695.47
709.8	2586.93
709.988	2666.8
710.176	2545.97
710.364	2576.69
710.551	2562.35
710.739	2531.63
710.927	2556.21
711.115	2541.87
711.303	2656.56
711.491	2572.59
711.679	2550.06
711.866	2603.31
712.054	2613.55
712.242	2599.21
712.43	2619.69
712.617	2683.18
712.805	2554.16
712.993	2392.37
713.181	2492.72
713.368	2623.79
713.556	2613.55
713.744	2472.24
713.931	2552.11
714.119	2541.87
714.306	2539.82
714.494	2558.25
714.682	2574.64
714.869	2609.45
715.057	2566.45
715.244	2507.06
715.432	2611.5
715.619	2502.96
715.807	2627.89
715.994	2595.12
716.182	2611.5
716.369	2574.64
716.556	2550.06
716.744	2480.43
716.931	2529.58
717.119	2492.72
717.306	2550.06
717.493	2449.71
717.681	2554.16
717.868	2533.68
718.055	2527.53
718.242	2638.13
718.43	2562.35
718.617	2505.01
718.804	2545.97
718.991	2545.97
719.179	2505.01
719.366	2550.06
719.553	2699.56
719.74	2556.21
719.927	2611.5
720.114	2554.16
720.301	2437.42
720.488	2627.89
720.676	2447.66
720.863	2627.89
721.05	2500.91
721.237	2529.58
721.424	2570.54
721.611	2541.87
721.798	2531.63
721.985	2529.58
722.172	2449.71
722.358	2523.44
722.545	2476.34
722.732	2427.18
722.919	2556.21
723.106	2492.72
723.293	2472.24
723.48	2533.68
723.667	2539.82
723.853	2431.28
724.04	2674.99
724.227	2515.25
724.414	2519.34
724.6	2484.53
724.787	2447.66
724.974	2418.99
725.161	2554.16
725.347	2529.58
725.534	2537.77
725.72	2496.82
725.907	2474.29
726.094	2545.97
726.28	2462
726.467	2558.25
726.653	2484.53
726.84	2457.9
727.027	2627.89
727.213	2507.06
727.4	2519.34
727.586	2550.06
727.773	2554.16
727.959	2539.82
728.145	2603.31
728.332	2464.05
728.518	2535.73
728.705	2496.82
728.891	2396.46
729.077	2341.17
729.264	2494.77
729.45	2492.72
729.636	2537.77
729.823	2511.15
730.009	2517.29
730.195	2468.14
730.382	2505.01
730.568	2488.62
730.754	2478.38
730.94	2511.15
731.126	2519.34
731.313	2459.95
731.499	2466.1
731.685	2535.73
731.871	2464.05
732.057	2548.01
732.243	2414.9
732.429	2584.88
732.615	2449.71
732.801	2421.04
732.987	2484.53
733.173	2529.58
733.359	2490.67
733.545	2445.62
733.731	2349.36
733.917	2482.48
734.103	2423.09
734.289	2605.36
734.475	2418.99
734.661	2599.21
734.847	2445.62
735.033	2382.13
735.219	2488.62
735.404	2431.28
735.59	2554.16
735.776	2429.23
735.962	2482.48
736.148	2462
736.333	2394.42
736.519	2400.56
736.705	2459.95
736.89	2449.71
737.076	2359.6
737.262	2418.99
737.447	2519.34
737.633	2318.64
737.819	2392.37
738.004	2300.21
738.19	2373.94
738.375	2392.37
738.561	2478.38
738.747	2294.07
738.932	2398.51
739.118	2476.34
739.303	2244.92
739.489	2392.37
739.674	2271.54
739.859	2283.83
740.045	2488.62
740.23	2355.51
740.416	2263.35
740.601	2449.71
740.786	2275.63
740.972	2289.97
741.157	2312.5
741.342	2337.07
741.528	2294.07
741.713	2201.91
741.898	2195.76
742.084	2314.55
742.269	2275.63
742.454	2212.15
742.639	2273.59
742.824	2253.11
743.01	2234.68
743.195	2240.82
743.38	2181.43
743.565	2246.96
743.75	2099.51
743.935	2132.28
744.12	2197.81
744.305	2089.27
744.49	2206
744.675	2167.09
744.86	2050.36
745.045	2079.03
745.23	2140.47
745.415	2185.52
745.6	2201.91
745.785	1999.16
745.97	2001.21
746.155	2074.93
746.34	2099.51
746.525	2007.35
746.71	2017.59
746.895	2107.7
747.079	1984.82
747.264	1921.34
747.449	2001.21
747.634	1964.34
747.819	1933.62
748.003	1898.81
748.188	1950.01
748.373	1804.6
748.557	1829.18
748.742	1907
748.927	1941.82
749.111	1790.27
749.296	1863.99
749.481	1767.74
749.665	1892.66
749.85	1796.41
750.034	1917.24
750.219	1743.16
750.404	1706.3
750.588	1726.78
750.773	1706.3
750.957	1757.5
751.141	1696.06
751.326	1739.07
751.51	1669.44
751.695	1808.7
751.879	1698.11
752.064	1792.31
752.248	1718.59
752.432	1694.01
752.617	1620.28
752.801	1685.82
752.985	1591.61
753.17	1700.16
753.354	1653.05
753.538	1542.46
753.722	1644.86
753.907	1616.19
754.091	1476.93
754.275	1569.09
754.459	1440.06
754.643	1407.3
754.828	1546.56
755.012	1562.94
755.196	1521.98
755.38	1511.74
755.564	1491.26
755.748	1468.73
755.932	1485.12
756.116	1409.34
756.3	1458.5
756.484	1519.93
756.668	1366.34
756.852	1431.87
757.036	1395.01
757.22	1360.19
757.404	1395.01
757.588	1462.59
757.772	1349.95
757.956	1392.96
758.14	1366.34
758.323	1333.57
758.507	1321.28
758.691	1317.19
758.875	1390.91
759.059	1313.09
759.242	1341.76
759.426	1255.75
759.61	1200.45
759.794	1245.51
759.977	1274.18
760.161	1274.18
760.345	1208.64
760.528	1202.5
760.712	1251.65
760.895	1202.5
761.079	1280.32
761.263	1239.36
761.446	1186.12
761.63	1173.83
761.813	1143.11
761.997	1132.87
762.18	1282.37
762.364	1206.59
762.547	1116.48
762.731	1044.81
762.914	1143.11
763.098	1177.92
763.281	1128.77
763.464	1059.14
763.648	1102.15
763.831	1165.64
764.015	1165.64
764.198	1167.68
764.381	1184.07
764.564	1063.24
764.748	1087.81
764.931	1012.04
765.114	1089.86
765.297	1069.38
765.481	1093.96
765.664	956.74
765.847	1022.28
766.03	1057.09
766.213	1022.28
766.397	989.51
766.58	985.41
766.763	1081.67
766.946	1009.99
767.129	1007.94
767.312	1030.47
767.495	1069.38
767.678	960.84
767.861	932.17
768.044	1040.71
768.227	993.61
768.41	995.65
768.593	940.36
768.776	979.27
768.959	1057.09
769.142	989.51
769.324	938.31
769.507	946.5
769.69	915.78
769.873	1005.89
770.056	962.89
770.239	913.74
770.421	1114.44
770.604	923.98
770.787	878.92
770.97	923.98
771.152	889.16
771.335	958.79
771.518	821.58
771.7	909.64
771.883	919.88
772.066	864.58
772.248	915.78
772.431	866.63
772.613	864.58
772.796	846.15
772.978	905.54
773.161	899.4
773.343	803.15
773.526	780.62
773.708	760.14
773.891	837.96
774.073	878.92
774.256	823.62
774.438	889.16
774.621	829.77
774.803	903.5
774.985	864.58
775.168	782.67
775.35	764.23
775.532	858.44
775.715	751.95
775.897	743.75
776.079	751.95
776.261	819.53
776.444	719.18
776.626	758.09
776.808	743.75
776.99	727.37
777.173	741.71
777.355	731.47
777.537	758.09
777.719	721.23
777.901	659.79
778.083	629.07
778.265	618.83
778.447	672.08
778.629	612.68
778.811	649.55
778.993	690.51
779.175	702.79
779.357	672.08
779.539	655.69
779.721	672.08
779.903	674.12
780.085	684.36
780.267	577.87
780.449	663.88
780.631	622.92
780.812	571.72
780.994	653.64
781.176	729.42
781.358	590.16
781.54	602.44
781.721	598.35
781.903	579.92
782.085	590.16
782.267	588.11
782.448	563.53
782.63	514.38
782.812	543.05
782.993	579.92
783.175	514.38
783.357	551.24
783.538	541.01
783.72	541.01
783.901	555.34
784.083	629.07
784.264	541.01
784.446	465.23
784.627	530.77
784.809	508.24
784.99	545.1
785.172	586.06
785.353	483.66
785.535	547.15
785.716	471.37
785.897	469.33
786.079	379.22
786.26	481.61
786.441	401.74
786.623	452.94
786.804	493.9
786.985	411.98
787.167	471.37
787.348	487.76
787.529	430.41
787.71	498
787.891	461.13
788.073	416.08
788.254	309.58
788.435	389.46
788.616	420.17
788.797	414.03
788.978	500.05
789.159	420.17
789.34	483.66
789.522	428.37
789.703	426.32
789.884	440.65
790.065	469.33
790.246	420.17
790.427	461.13
790.607	399.7
790.788	358.74
790.969	350.54
791.15	409.94
791.331	366.93
791.512	403.79
791.693	334.16
791.874	420.17
792.054	362.83
792.235	358.74
792.416	338.26
792.597	307.54
792.778	389.46
792.958	409.94
793.139	383.31
793.32	319.82
793.5	379.22
793.681	393.55
793.862	448.85
794.042	305.49
794.223	287.06
794.404	366.93
794.584	342.35
794.765	266.58
794.945	303.44
795.126	323.92
795.306	330.06
795.487	303.44
795.667	285.01
795.848	313.68
796.028	362.83
796.209	330.06
796.389	293.2
796.57	334.16
796.75	309.58
796.93	272.72
797.111	287.06
797.291	358.74
797.471	383.31
797.652	364.88
797.832	256.34
798.012	266.58
798.192	278.87
798.373	256.34
798.553	262.48
798.733	319.82
798.913	213.33
799.093	317.78
799.274	291.15
799.454	328.02
799.634	248.15
799.814	330.06
799.994	317.78
800.174	330.06
800.354	297.3
800.534	305.49
800.714	201.04
800.894	315.73
801.074	196.95
801.254	280.91
801.434	248.15
801.614	223.57
801.794	325.97
801.974	514.38
802.154	282.96
802.334	235.86
802.514	217.43
802.693	307.54
802.873	233.81
803.053	287.06
803.233	186.71
803.413	225.62
803.592	198.99
803.772	221.52
803.952	223.57
804.131	205.14
804.311	184.66
804.491	309.58
804.67	190.8
804.85	180.56
805.03	235.86
805.209	184.66
805.389	258.39
805.568	219.47
805.748	287.06
805.928	137.56
806.107	244.05
806.287	252.24
806.466	219.47
806.646	172.37
806.825	217.43
807.004	164.18
807.184	135.51
807.363	182.61
807.543	186.71
807.722	147.8
807.901	246.1
808.081	299.34
808.26	125.27
808.439	211.28
808.619	121.17
808.798	188.75
808.977	166.23
809.156	211.28
809.336	221.52
809.515	262.48
809.694	160.08
809.873	155.99
810.052	260.43
810.231	239.95
810.411	162.13
810.59	242
810.769	176.47
810.948	239.95
811.127	252.24
811.306	176.47
811.485	137.56
811.664	160.08
811.843	158.03
812.022	166.23
812.201	129.36
812.38	162.13
812.559	153.94
812.737	192.85
812.916	174.42
813.095	192.85
813.274	176.47
813.453	186.71
813.632	127.32
813.811	229.71
813.989	141.65
814.168	178.51
814.347	258.39
814.526	127.32
814.704	186.71
814.883	180.56
815.062	174.42
815.24	141.65
815.419	137.56
815.598	209.23
815.776	231.76
815.955	145.75
816.133	158.03
816.312	129.36
816.49	129.36
816.669	194.9
816.847	153.94
817.026	137.56
817.204	211.28
817.383	137.56
817.561	155.99
817.74	131.41
817.918	178.51
818.097	121.17
818.275	184.66
818.453	196.95
818.632	96.6
818.81	76.12
818.988	139.6
819.167	100.69
819.345	115.03
819.523	137.56
819.701	145.75
819.879	149.84
820.058	104.79
820.236	149.84
820.414	135.51
820.592	80.21
820.77	221.52
820.948	188.75
821.127	145.75
821.305	63.83
821.483	63.83
821.661	143.7
821.839	158.03
822.017	104.79
822.195	59.73
822.373	92.5
822.551	47.44
822.729	162.13
822.907	26.96
823.085	119.12
823.262	84.31
823.44	51.54
823.618	94.55
823.796	121.17
823.974	0.34
824.152	145.75
824.329	137.56
824.507	125.27
824.685	145.75
824.863	57.68
825.04	110.93
825.218	86.36
825.396	55.64
825.574	190.8
825.751	100.69
825.929	190.8
826.107	76.12
826.284	129.36
826.462	61.78
826.639	125.27
826.817	-7.85
826.994	86.36
827.172	51.54
827.349	153.94
827.527	135.51
827.704	102.74
827.882	125.27
828.059	131.41
828.237	102.74
828.414	145.75
828.591	108.88
828.769	76.12
828.946	166.23
829.124	102.74
829.301	88.4
829.478	92.5
829.655	63.83
829.833	104.79
830.01	102.74
830.187	72.02
830.364	61.78
830.542	108.88
830.719	162.13
830.896	100.69
831.073	155.99
831.25	53.59
831.427	82.26
831.604	158.03
831.782	82.26
831.959	63.83
832.136	125.27
832.313	96.6
832.49	155.99
832.667	170.32
832.844	41.3
833.021	162.13
833.198	55.64
833.374	49.49
833.551	78.16
833.728	115.03
833.905	112.98
834.082	104.79
834.259	72.02
834.436	117.08
834.612	55.64
834.789	72.02
834.966	61.78
835.143	104.79
835.319	59.73
835.496	67.92
835.673	59.73
835.85	67.92
836.026	43.35
836.203	59.73
836.38	39.25
836.556	29.01
836.733	43.35
836.909	67.92
837.086	74.07
837.262	59.73
837.439	53.59
837.616	2.39
837.792	47.44
837.968	74.07
838.145	69.97
838.321	129.36
838.498	31.06
838.674	35.16
838.851	18.77
839.027	53.59
839.203	72.02
839.38	80.21
839.556	-11.95
839.732	82.26
839.909	78.16
840.085	59.73
840.261	-24.23
840.437	92.5
840.614	65.88
840.79	47.44
840.966	78.16
841.142	84.31
841.318	106.84
841.494	8.53
841.671	69.97
841.847	39.25
842.023	160.08
842.199	18.77
842.375	53.59
842.551	47.44
842.727	74.07
842.903	74.07
843.079	104.79
843.255	102.74
843.431	35.16
843.607	43.35
843.783	29.01
843.959	115.03
844.134	12.63
844.31	125.27
844.486	37.2
844.662	110.93
844.838	49.49
845.013	26.96
845.189	67.92
845.365	35.16
845.541	-1.71
845.716	22.87
845.892	31.06
846.068	39.25
846.244	47.44
846.419	90.45
846.595	20.82
846.77	51.54
846.946	-20.14
847.122	59.73
847.297	59.73
847.473	55.64
847.648	-24.23
847.824	18.77
847.999	72.02
848.175	22.87
848.35	26.96
848.526	59.73
848.701	82.26
848.876	61.78
849.052	31.06
849.227	43.35
849.403	94.55
849.578	20.82
849.753	26.96
849.929	-9.9
850.104	37.2
850.279	63.83
850.454	-28.33
850.63	-18.09
850.805	72.02
850.98	61.78
851.155	51.54
851.33	51.54
851.505	2.39
851.681	102.74
851.856	35.16
852.031	94.55
852.206	-50.86
852.381	49.49
852.556	35.16
852.731	-11.95
852.906	55.64
853.081	41.3
853.256	35.16
853.431	-38.57
853.606	35.16
853.781	57.68
853.956	-20.14
854.131	37.2
854.305	14.68
854.48	22.87
854.655	18.77
854.83	41.3
855.005	26.96
855.18	100.69
855.354	26.96
855.529	-11.95
855.704	-13.99
855.879	39.25
856.053	4.44
856.228	139.6
856.403	-20.14
856.577	-16.04
856.752	-32.43
856.926	-50.86
857.101	55.64
857.276	45.4
857.45	35.16
857.625	53.59
857.799	39.25
857.974	31.06
858.148	-36.52
858.323	41.3
858.497	6.49
858.672	61.78
858.846	92.5
859.02	80.21
859.195	14.68
859.369	74.07
859.543	65.88
859.718	0.34
859.892	31.06
860.066	47.44
860.241	22.87
860.415	37.2
860.589	29.01
860.763	59.73
860.938	18.77
861.112	67.92
861.286	29.01
861.46	84.31
861.634	-24.23
861.808	119.12
861.982	-22.19
862.157	-42.67
862.331	-42.67
862.505	119.12
862.679	-9.9
862.853	0.34
863.027	53.59
863.201	39.25
863.375	80.21
863.549	2.39
863.722	55.64
863.896	92.5
864.07	-28.33
864.244	47.44
864.418	-7.85
864.592	88.4
864.766	55.64
864.939	76.12
865.113	65.88
865.287	18.77
865.461	10.58
865.634	31.06
865.808	14.68
865.982	20.82
866.156	-26.28
866.329	-11.95
866.503	-36.52
866.676	57.68
866.85	98.64
867.024	39.25
867.197	39.25
867.371	45.4
867.544	37.2
867.718	16.73
867.891	78.16
868.065	26.96
868.238	26.96
868.412	-7.85
868.585	55.64
868.759	-18.09
868.932	94.55
869.105	67.92
869.279	63.83
869.452	-9.9
869.625	78.16
869.799	-3.75
869.972	57.68
870.145	80.21
870.319	59.73
870.492	-16.04
870.665	-3.75
870.838	-46.76
871.011	6.49
871.185	37.2
871.358	-26.28
871.531	-16.04
871.704	39.25
871.877	55.64
872.05	12.63
872.223	16.73
872.396	102.74
872.569	-1.71
872.742	14.68
872.915	2.39
873.088	20.82
873.261	-26.28
873.434	22.87
873.607	67.92
873.78	80.21
873.953	8.53
874.126	-40.62
874.299	8.53
874.471	-13.99
874.644	16.73
874.817	35.16
874.99	43.35
875.163	24.92
875.335	6.49
875.508	14.68
875.681	-108.2
875.853	-81.58
876.026	39.25
876.199	6.49
876.371	-44.71
876.544	-9.9
876.717	12.63
876.889	-22.19
877.062	2.39
877.234	-5.8
877.407	-16.04
877.579	20.82
877.752	51.54
877.924	-22.19
878.097	-38.57
878.269	-59.05
878.442	41.3
878.614	49.49
878.786	-16.04
878.959	-5.8
879.131	49.49
879.303	-11.95
879.476	26.96
879.648	31.06
879.82	-22.19
879.993	-3.75
880.165	4.44
880.337	37.2
880.509	22.87
880.681	-48.81
880.854	6.49
881.026	59.73
881.198	22.87
881.37	39.25
881.542	33.11
881.714	-38.57
881.886	-7.85
882.058	-65.19
882.23	20.82
882.402	-28.33
882.574	49.49
882.746	8.53
882.918	-5.8
883.09	82.26
883.262	78.16
883.434	-91.82
883.606	-38.57
883.778	-26.28
883.95	106.84
884.122	35.16
884.293	41.3
884.465	-59.05
884.637	35.16
884.809	6.49
884.98	47.44
885.152	2.39
885.324	22.87
885.496	-13.99
885.667	-97.96
885.839	-1.71
886.011	59.73
886.182	55.64
886.354	31.06
886.525	22.87
886.697	-11.95
886.869	61.78
887.04	-5.8
887.212	26.96
887.383	14.68
887.555	-20.14
887.726	20.82
887.897	-87.72
888.069	8.53
888.24	55.64
888.412	22.87
888.583	6.49
888.754	43.35
888.926	-34.47
889.097	6.49
889.268	6.49
889.44	96.6
889.611	-34.47
889.782	0.34
889.953	16.73
890.125	63.83
890.296	-9.9
890.467	22.87
890.638	-61.1
890.809	-13.99
890.98	22.87
891.151	-38.57
891.323	-3.75
891.494	20.82
891.665	61.78
891.836	-13.99
892.007	-36.52
892.178	104.79
892.349	-11.95
892.52	12.63
892.691	-36.52
892.862	39.25
893.032	47.44
893.203	63.83
893.374	-13.99
893.545	-13.99
893.716	22.87
893.887	31.06
894.057	-3.75
894.228	74.07
894.399	-34.47
894.57	37.2
894.74	-34.47
894.911	-3.75
895.082	37.2
895.253	-34.47
895.423	-38.57
895.594	16.73
895.764	-65.19
895.935	-116.39
896.106	20.82
896.276	4.44
896.447	18.77
896.617	37.2
896.788	-11.95
896.958	-38.57
897.129	-28.33
897.299	-46.76
897.47	53.59
897.64	-13.99
897.81	-26.28
897.981	39.25
898.151	-20.14
898.322	26.96
898.492	55.64
898.662	-5.8
898.832	-3.75
899.003	14.68
899.173	-13.99
899.343	51.54
899.513	12.63
