Data from USB4F104151__98__11-38-01-357.txt Node

Date: Fri Mar 14 11:38:01 EDT 2025
User: louis
Spectrometer: USB4F10415
Trigger mode: 4
Integration Time (sec): 2.000000E-2
Scans to average: 1
Electric dark correction enabled: true
Nonlinearity correction enabled: false
Boxcar width: 0
XAxis mode: Wavelengths
Number of Pixels in Spectrum: 3648
>>>>>Begin Spectral Data<<<<<
178.204	-139.77
178.424	-139.77
178.644	-139.77
178.864	-133.63
179.084	-37.38
179.304	-2.56
179.524	-2.56
179.744	13.82
179.964	13.82
180.184	3.58
180.404	9.73
180.624	44.54
180.844	28.16
181.064	-23.04
181.283	-27.14
181.503	-8.7
181.723	-49.66
181.943	-4.61
182.163	44.54
182.383	46.59
182.602	19.97
182.822	-25.09
183.042	22.02
183.262	-47.62
183.482	22.02
183.701	-14.85
183.921	30.21
184.141	38.4
184.361	7.68
184.58	-4.61
184.8	34.3
185.02	-14.85
185.239	54.78
185.459	-47.62
185.679	28.16
185.898	-39.42
186.118	26.11
186.338	3.58
186.557	58.88
186.777	15.87
186.997	13.82
187.216	-59.9
187.436	-37.38
187.655	-43.52
187.875	15.87
188.095	-41.47
188.314	-2.56
188.534	-23.04
188.753	-2.56
188.973	71.17
189.192	44.54
189.412	26.11
189.631	-23.04
189.851	30.21
190.07	38.4
190.29	-66.05
190.509	-14.85
190.729	58.88
190.948	69.12
191.168	114.17
191.387	56.83
191.607	-20.99
191.826	-2.56
192.045	-16.9
192.265	9.73
192.484	9.73
192.704	34.3
192.923	30.21
193.142	17.92
193.362	7.68
193.581	42.5
193.8	-0.51
194.02	28.16
194.239	7.68
194.458	-68.09
194.678	-43.52
194.897	17.92
195.116	46.59
195.335	-0.51
195.555	3.58
195.774	73.21
195.993	26.11
196.212	77.31
196.432	-10.75
196.651	-2.56
196.87	9.73
197.089	95.74
197.308	69.12
197.528	71.17
197.747	17.92
197.966	67.07
198.185	19.97
198.404	11.78
198.623	-39.42
198.842	50.69
199.062	62.98
199.281	87.55
199.5	22.02
199.719	30.21
199.938	-31.23
200.157	48.64
200.376	1.54
200.595	95.74
200.814	-41.47
201.033	36.35
201.252	9.73
201.471	1.54
201.69	22.02
201.909	34.3
202.128	-10.75
202.347	54.78
202.566	-43.52
202.785	11.78
203.004	-10.75
203.223	67.07
203.442	5.63
203.661	-16.9
203.879	3.58
204.098	38.4
204.317	17.92
204.536	24.06
204.755	50.69
204.974	34.3
205.193	28.16
205.411	50.69
205.63	30.21
205.849	9.73
206.068	1.54
206.287	-31.23
206.505	-0.51
206.724	-18.94
206.943	11.78
207.162	22.02
207.381	-35.33
207.599	-18.94
207.818	22.02
208.037	46.59
208.255	-18.94
208.474	-14.85
208.693	13.82
208.911	-2.56
209.13	-16.9
209.349	17.92
209.567	3.58
209.786	44.54
210.005	3.58
210.223	65.02
210.442	22.02
210.661	52.74
210.879	-6.66
211.098	7.68
211.316	3.58
211.535	52.74
211.753	73.21
211.972	73.21
212.191	1.54
212.409	-6.66
212.628	69.12
212.846	1.54
213.065	19.97
213.283	17.92
213.502	54.78
213.72	22.02
213.938	-37.38
214.157	11.78
214.375	83.45
214.594	19.97
214.812	48.64
215.031	75.26
215.249	17.92
215.467	36.35
215.686	36.35
215.904	44.54
216.122	-12.8
216.341	52.74
216.559	-55.81
216.778	32.26
216.996	42.5
217.214	-4.61
217.432	48.64
217.651	-4.61
217.869	52.74
218.087	95.74
218.306	-68.09
218.524	-29.18
218.742	48.64
218.96	-47.62
219.179	-37.38
219.397	-2.56
219.615	17.92
219.833	38.4
220.051	-68.09
220.27	-18.94
220.488	50.69
220.706	-4.61
220.924	-10.75
221.142	42.5
221.36	-16.9
221.578	40.45
221.796	-18.94
222.015	81.41
222.233	-49.66
222.451	52.74
222.669	26.11
222.887	56.83
223.105	22.02
223.323	-2.56
223.541	15.87
223.759	65.02
223.977	46.59
224.195	7.68
224.413	-2.56
224.631	50.69
224.849	-29.18
225.067	58.88
225.285	-74.24
225.503	50.69
225.721	108.03
225.939	-37.38
226.157	15.87
226.375	40.45
226.592	-10.75
226.81	42.5
227.028	-14.85
227.246	30.21
227.464	24.06
227.682	-31.23
227.9	71.17
228.117	46.59
228.335	32.26
228.553	-12.8
228.771	-0.51
228.989	42.5
229.206	71.17
229.424	87.55
229.642	40.45
229.86	-14.85
230.077	28.16
230.295	-12.8
230.513	13.82
230.731	58.88
230.948	56.83
231.166	50.69
231.384	-0.51
231.601	28.16
231.819	15.87
232.037	-6.66
232.254	24.06
232.472	-37.38
232.689	13.82
232.907	97.79
233.125	9.73
233.342	-23.04
233.56	-10.75
233.777	26.11
233.995	-4.61
234.213	81.41
234.43	79.36
234.648	-6.66
234.865	-31.23
235.083	5.63
235.3	-14.85
235.518	22.02
235.735	97.79
235.953	101.89
236.17	26.11
236.388	-2.56
236.605	22.02
236.822	85.5
237.04	-4.61
237.257	-29.18
237.475	-20.99
237.692	-47.62
237.909	-18.94
238.127	5.63
238.344	-18.94
238.562	-64
238.779	13.82
238.996	-2.56
239.214	38.4
239.431	65.02
239.648	5.63
239.865	-2.56
240.083	17.92
240.3	-72.19
240.517	-10.75
240.735	1.54
240.952	3.58
241.169	-4.61
241.386	-16.9
241.603	-29.18
241.821	38.4
242.038	-12.8
242.255	3.58
242.472	81.41
242.689	34.3
242.907	26.11
243.124	-12.8
243.341	-18.94
243.558	-33.28
243.775	26.11
243.992	-4.61
244.209	28.16
244.426	36.35
244.643	71.17
244.86	-16.9
245.078	1.54
245.295	-45.57
245.512	-23.04
245.729	-27.14
245.946	24.06
246.163	128.51
246.38	-2.56
246.597	52.74
246.814	-0.51
247.031	54.78
247.248	77.31
247.464	22.02
247.681	13.82
247.898	-16.9
248.115	79.36
248.332	-27.14
248.549	130.56
248.766	22.02
248.983	73.21
249.2	28.16
249.417	81.41
249.633	-6.66
249.85	-2.56
250.067	-16.9
250.284	77.31
250.501	-35.33
250.717	46.59
250.934	58.88
251.151	-6.66
251.368	-8.7
251.585	-41.47
251.801	-20.99
252.018	1.54
252.235	-27.14
252.451	24.06
252.668	17.92
252.885	75.26
253.102	62.98
253.318	118.27
253.535	30.21
253.752	30.21
253.968	-2.56
254.185	17.92
254.401	69.12
254.618	71.17
254.835	30.21
255.051	-25.09
255.268	-4.61
255.484	-29.18
255.701	-14.85
255.917	85.5
256.134	-2.56
256.351	-37.38
256.567	32.26
256.784	-64
257	-6.66
257.217	108.03
257.433	17.92
257.65	52.74
257.866	22.02
258.082	5.63
258.299	13.82
258.515	34.3
258.732	3.58
258.948	-12.8
259.165	50.69
259.381	-4.61
259.597	17.92
259.814	28.16
260.03	103.93
260.246	3.58
260.463	5.63
260.679	17.92
260.895	22.02
261.112	44.54
261.328	52.74
261.544	-18.94
261.761	101.89
261.977	-37.38
262.193	22.02
262.409	-51.71
262.626	65.02
262.842	38.4
263.058	-53.76
263.274	1.54
263.49	71.17
263.707	124.41
263.923	87.55
264.139	19.97
264.355	9.73
264.571	11.78
264.787	-49.66
265.004	85.5
265.22	-39.42
265.436	-8.7
265.652	-45.57
265.868	44.54
266.084	71.17
266.3	-35.33
266.516	87.55
266.732	7.68
266.948	13.82
267.164	9.73
267.38	-8.7
267.596	-43.52
267.812	81.41
268.028	-23.04
268.244	46.59
268.46	-10.75
268.676	73.21
268.892	36.35
269.108	28.16
269.324	-10.75
269.54	9.73
269.756	22.02
269.972	34.3
270.188	77.31
270.403	-2.56
270.619	71.17
270.835	-14.85
271.051	62.98
271.267	9.73
271.483	-80.38
271.698	-6.66
271.914	-8.7
272.13	17.92
272.346	54.78
272.562	11.78
272.777	81.41
272.993	65.02
273.209	30.21
273.425	46.59
273.64	22.02
273.856	-8.7
274.072	9.73
274.287	60.93
274.503	87.55
274.719	38.4
274.934	-10.75
275.15	22.02
275.366	-27.14
275.581	1.54
275.797	36.35
276.012	-10.75
276.228	48.64
276.444	-41.47
276.659	24.06
276.875	-0.51
277.09	-10.75
277.306	-33.28
277.521	-20.99
277.737	-25.09
277.952	62.98
278.168	75.26
278.383	26.11
278.599	77.31
278.814	26.11
279.03	-4.61
279.245	52.74
279.461	58.88
279.676	40.45
279.892	13.82
280.107	-16.9
280.322	-4.61
280.538	22.02
280.753	85.5
280.969	-43.52
281.184	3.58
281.399	22.02
281.615	19.97
281.83	28.16
282.045	-2.56
282.26	34.3
282.476	13.82
282.691	-10.75
282.906	-37.38
283.122	42.5
283.337	22.02
283.552	-14.85
283.767	30.21
283.983	77.31
284.198	95.74
284.413	-18.94
284.628	-14.85
284.843	3.58
285.058	-61.95
285.274	9.73
285.489	-6.66
285.704	3.58
285.919	38.4
286.134	-8.7
286.349	-2.56
286.564	11.78
286.779	30.21
286.995	34.3
287.21	-4.61
287.425	-14.85
287.64	44.54
287.855	101.89
288.07	44.54
288.285	1.54
288.5	58.88
288.715	5.63
288.93	26.11
289.145	32.26
289.36	36.35
289.575	81.41
289.79	1.54
290.004	54.78
290.219	-31.23
290.434	-18.94
290.649	-18.94
290.864	52.74
291.079	-20.99
291.294	-0.51
291.509	120.32
291.724	36.35
291.938	7.68
292.153	-39.42
292.368	60.93
292.583	1.54
292.798	36.35
293.012	-14.85
293.227	-39.42
293.442	19.97
293.657	5.63
293.871	3.58
294.086	19.97
294.301	15.87
294.516	-16.9
294.73	38.4
294.945	5.63
295.16	1.54
295.374	42.5
295.589	-33.28
295.804	-16.9
296.018	58.88
296.233	-10.75
296.447	-16.9
296.662	-31.23
296.877	54.78
297.091	46.59
297.306	9.73
297.52	-55.81
297.735	7.68
297.949	5.63
298.164	67.07
298.378	-8.7
298.593	138.75
298.807	-0.51
299.022	-12.8
299.236	44.54
299.451	17.92
299.665	38.4
299.88	69.12
300.094	-39.42
300.309	32.26
300.523	62.98
300.737	-8.7
300.952	60.93
301.166	-2.56
301.381	11.78
301.595	1.54
301.809	22.02
302.024	-18.94
302.238	7.68
302.452	97.79
302.667	44.54
302.881	26.11
303.095	15.87
303.309	-20.99
303.524	-16.9
303.738	65.02
303.952	-2.56
304.166	38.4
304.381	22.02
304.595	28.16
304.809	11.78
305.023	34.3
305.237	5.63
305.452	38.4
305.666	89.6
305.88	116.22
306.094	34.3
306.308	-16.9
306.522	50.69
306.736	9.73
306.95	-18.94
307.164	54.78
307.379	44.54
307.593	28.16
307.807	-39.42
308.021	79.36
308.235	65.02
308.449	1.54
308.663	-10.75
308.877	15.87
309.091	-16.9
309.305	32.26
309.519	19.97
309.733	52.74
309.947	62.98
310.161	87.55
310.374	28.16
310.588	60.93
310.802	3.58
311.016	44.54
311.23	83.45
311.444	-10.75
311.658	-25.09
311.872	22.02
312.085	62.98
312.299	40.45
312.513	-10.75
312.727	15.87
312.941	-45.57
313.154	3.58
313.368	46.59
313.582	40.45
313.796	13.82
314.009	11.78
314.223	69.12
314.437	13.82
314.651	5.63
314.864	-2.56
315.078	36.35
315.292	-10.75
315.505	46.59
315.719	-33.28
315.933	50.69
316.146	-2.56
316.36	-45.57
316.573	28.16
316.787	128.51
317.001	1.54
317.214	-61.95
317.428	42.5
317.641	30.21
317.855	15.87
318.068	30.21
318.282	58.88
318.495	40.45
318.709	36.35
318.922	-33.28
319.136	50.69
319.349	81.41
319.563	60.93
319.776	19.97
319.99	-2.56
320.203	-27.14
320.417	30.21
320.63	58.88
320.843	24.06
321.057	48.64
321.27	122.37
321.483	30.21
321.697	40.45
321.91	5.63
322.124	-8.7
322.337	-2.56
322.55	-27.14
322.763	79.36
322.977	22.02
323.19	11.78
323.403	-57.86
323.617	75.26
323.83	54.78
324.043	-80.38
324.256	62.98
324.469	-59.9
324.683	58.88
324.896	73.21
325.109	17.92
325.322	-10.75
325.535	-16.9
325.748	19.97
325.962	58.88
326.175	40.45
326.388	58.88
326.601	-72.19
326.814	24.06
327.027	-2.56
327.24	132.61
327.453	-14.85
327.666	67.07
327.879	42.5
328.092	32.26
328.305	56.83
328.518	65.02
328.731	-27.14
328.944	71.17
329.157	50.69
329.37	46.59
329.583	67.07
329.796	128.51
330.009	-45.57
330.222	9.73
330.435	-6.66
330.648	-16.9
330.861	26.11
331.073	87.55
331.286	17.92
331.499	-31.23
331.712	44.54
331.925	-2.56
332.138	-45.57
332.35	52.74
332.563	22.02
332.776	32.26
332.989	-23.04
333.202	-8.7
333.414	50.69
333.627	22.02
333.84	28.16
334.053	13.82
334.265	34.3
334.478	60.93
334.691	54.78
334.903	36.35
335.116	26.11
335.329	-12.8
335.541	50.69
335.754	36.35
335.966	-14.85
336.179	17.92
336.392	-23.04
336.604	75.26
336.817	60.93
337.029	71.17
337.242	87.55
337.454	-2.56
337.667	-27.14
337.88	24.06
338.092	13.82
338.305	34.3
338.517	24.06
338.729	-57.86
338.942	-4.61
339.154	-4.61
339.367	-8.7
339.579	97.79
339.792	36.35
340.004	58.88
340.217	-12.8
340.429	46.59
340.641	30.21
340.854	3.58
341.066	-59.9
341.278	58.88
341.491	36.35
341.703	62.98
341.915	-4.61
342.128	19.97
342.34	15.87
342.552	9.73
342.764	44.54
342.977	28.16
343.189	118.27
343.401	34.3
343.613	79.36
343.826	48.64
344.038	-59.9
344.25	36.35
344.462	24.06
344.674	34.3
344.886	-43.52
345.099	5.63
345.311	-20.99
345.523	1.54
345.735	13.82
345.947	112.13
346.159	-2.56
346.371	5.63
346.583	54.78
346.795	60.93
347.007	-0.51
347.219	93.69
347.431	67.07
347.643	89.6
347.855	50.69
348.067	50.69
348.279	38.4
348.491	-6.66
348.703	9.73
348.915	54.78
349.127	-0.51
349.339	40.45
349.551	22.02
349.763	48.64
349.975	42.5
350.187	38.4
350.399	17.92
350.61	22.02
350.822	-10.75
351.034	30.21
351.246	-43.52
351.458	81.41
351.669	-10.75
351.881	15.87
352.093	-0.51
352.305	50.69
352.517	97.79
352.728	62.98
352.94	97.79
353.152	116.22
353.363	-35.33
353.575	1.54
353.787	44.54
353.999	26.11
354.21	1.54
354.422	30.21
354.633	30.21
354.845	-0.51
355.057	32.26
355.268	75.26
355.48	44.54
355.692	34.3
355.903	22.02
356.115	-0.51
356.326	19.97
356.538	-10.75
356.749	65.02
356.961	71.17
357.172	-8.7
357.384	-25.09
357.595	114.17
357.807	17.92
358.018	48.64
358.23	50.69
358.441	65.02
358.653	46.59
358.864	69.12
359.075	-12.8
359.287	93.69
359.498	15.87
359.709	58.88
359.921	26.11
360.132	11.78
360.344	-14.85
360.555	36.35
360.766	71.17
360.977	26.11
361.189	69.12
361.4	52.74
361.611	42.5
361.823	46.59
362.034	69.12
362.245	38.4
362.456	40.45
362.667	38.4
362.879	38.4
363.09	38.4
363.301	36.35
363.512	105.98
363.723	58.88
363.935	1.54
364.146	83.45
364.357	26.11
364.568	-23.04
364.779	65.02
364.99	13.82
365.201	-20.99
365.412	103.93
365.623	-27.14
365.834	-27.14
366.045	7.68
366.256	38.4
366.467	56.83
366.678	44.54
366.889	89.6
367.1	-18.94
367.311	79.36
367.522	26.11
367.733	89.6
367.944	19.97
368.155	46.59
368.366	54.78
368.577	52.74
368.788	128.51
368.999	24.06
369.209	79.36
369.42	132.61
369.631	116.22
369.842	24.06
370.053	75.26
370.264	120.32
370.474	3.58
370.685	5.63
370.896	50.69
371.107	-31.23
371.317	54.78
371.528	81.41
371.739	11.78
371.95	-0.51
372.16	54.78
372.371	26.11
372.582	93.69
372.792	9.73
373.003	11.78
373.214	46.59
373.424	28.16
373.635	7.68
373.846	34.3
374.056	103.93
374.267	71.17
374.477	101.89
374.688	52.74
374.898	-14.85
375.109	15.87
375.319	17.92
375.53	60.93
375.74	13.82
375.951	81.41
376.161	5.63
376.372	26.11
376.582	36.35
376.793	54.78
377.003	-4.61
377.214	5.63
377.424	62.98
377.635	69.12
377.845	15.87
378.055	126.46
378.266	50.69
378.476	52.74
378.686	30.21
378.897	28.16
379.107	22.02
379.317	32.26
379.528	34.3
379.738	-14.85
379.948	-29.18
380.158	62.98
380.369	54.78
380.579	65.02
380.789	77.31
380.999	42.5
381.21	34.3
381.42	97.79
381.63	42.5
381.84	116.22
382.05	81.41
382.261	38.4
382.471	17.92
382.681	67.07
382.891	67.07
383.101	30.21
383.311	67.07
383.521	-23.04
383.731	19.97
383.941	3.58
384.151	97.79
384.361	-14.85
384.571	87.55
384.781	93.69
384.991	26.11
385.201	85.5
385.411	60.93
385.621	140.8
385.831	-6.66
386.041	60.93
386.251	44.54
386.461	60.93
386.671	-12.8
386.881	56.83
387.091	38.4
387.301	77.31
387.511	79.36
387.72	105.98
387.93	69.12
388.14	62.98
388.35	15.87
388.56	71.17
388.769	83.45
388.979	26.11
389.189	89.6
389.399	-2.56
389.609	52.74
389.818	13.82
390.028	-35.33
390.238	26.11
390.447	3.58
390.657	87.55
390.867	46.59
391.076	44.54
391.286	46.59
391.496	65.02
391.705	30.21
391.915	48.64
392.125	17.92
392.334	24.06
392.544	62.98
392.753	52.74
392.963	46.59
393.172	67.07
393.382	24.06
393.591	67.07
393.801	97.79
394.01	65.02
394.22	40.45
394.429	95.74
394.639	-2.56
394.848	-10.75
395.058	83.45
395.267	38.4
395.477	77.31
395.686	58.88
395.895	101.89
396.105	167.42
396.314	79.36
396.524	52.74
396.733	60.93
396.942	58.88
397.152	77.31
397.361	75.26
397.57	91.65
397.78	118.27
397.989	79.36
398.198	122.37
398.407	36.35
398.617	112.13
398.826	97.79
399.035	112.13
399.244	48.64
399.453	60.93
399.663	26.11
399.872	134.65
400.081	87.55
400.29	79.36
400.499	36.35
400.708	69.12
400.917	54.78
401.127	89.6
401.336	-2.56
401.545	118.27
401.754	97.79
401.963	151.04
402.172	148.99
402.381	77.31
402.59	95.74
402.799	58.88
403.008	155.13
403.217	198.14
403.426	136.7
403.635	65.02
403.844	173.57
404.053	112.13
404.262	153.09
404.471	142.85
404.68	146.94
404.888	161.28
405.097	112.13
405.306	108.03
405.515	243.2
405.724	179.71
405.933	259.58
406.142	194.05
406.35	91.65
406.559	237.05
406.768	187.9
406.977	202.24
407.185	235
407.394	224.76
407.603	181.76
407.812	265.72
408.02	212.48
408.229	202.24
408.438	239.1
408.646	161.28
408.855	204.28
409.064	243.2
409.272	275.96
409.481	282.11
409.69	275.96
409.898	294.4
410.107	288.25
410.315	275.96
410.524	304.64
410.733	335.35
410.941	259.58
411.15	316.92
411.358	343.55
411.567	409.08
411.775	343.55
411.984	318.97
412.192	357.88
412.401	376.31
412.609	398.84
412.818	427.51
413.026	491
413.234	462.33
413.443	521.72
413.651	519.67
413.86	470.52
414.068	540.15
414.276	546.3
414.485	579.06
414.693	579.06
414.901	667.13
415.11	503.29
415.318	587.26
415.526	685.56
415.734	642.55
415.943	749.04
416.151	763.38
416.359	804.34
416.567	861.68
416.776	841.2
416.984	886.26
417.192	896.5
417.4	947.7
417.608	775.67
417.817	1029.62
418.025	1056.24
418.233	1164.78
418.441	980.47
418.649	1113.58
418.857	1177.07
419.065	1134.06
419.273	1103.34
419.481	1215.98
419.689	1168.88
419.897	1383.91
420.105	1365.48
420.313	1349.1
420.521	1451.5
420.729	1486.31
420.937	1512.94
421.145	1588.71
421.353	1750.5
421.561	1697.25
421.769	1740.26
421.977	1922.53
422.185	1803.75
422.393	1873.38
422.601	2086.37
422.809	2119.14
423.017	2260.45
423.224	2196.96
423.432	2272.73
423.64	2190.81
423.848	2500.06
424.056	2420.19
424.263	2622.94
424.471	2784.73
424.679	2624.98
424.887	2786.77
425.094	2856.4
425.302	2627.03
425.51	2977.23
425.718	3005.91
425.925	3081.68
426.133	3274.19
426.341	3321.29
426.548	3624.39
426.756	3587.53
426.964	3618.25
427.171	3976.64
427.379	4019.65
427.586	3958.21
427.794	4154.82
428.001	4339.13
428.209	4597.18
428.417	4431.29
428.624	4789.69
428.832	4814.26
429.039	4777.4
429.247	4699.58
429.454	5180.85
429.662	5461.42
429.869	5031.35
430.076	5690.79
430.284	5262.77
430.491	5670.31
430.699	5854.63
430.906	5971.36
431.114	6000.04
431.321	6317.47
431.528	6325.66
431.736	6800.79
431.943	7161.23
432.15	6727.07
432.358	6862.23
432.565	7304.59
432.772	7378.32
432.979	7540.11
433.187	7878.02
433.394	7798.15
433.601	8371.58
433.808	8441.22
434.016	8383.87
434.223	8738.17
434.43	9385.33
434.637	9074.04
434.844	9641.32
435.052	9641.32
435.259	9784.68
435.466	9745.77
435.673	9799.02
435.88	10409.31
436.087	11124.05
436.294	10925.4
436.501	10605.92
436.708	11031.9
436.915	11218.26
437.122	11720.01
437.329	11726.16
437.537	11992.39
437.743	12252.49
437.95	12166.47
438.157	12891.45
438.364	13282.61
438.571	13100.34
438.778	13235.51
438.985	14462.24
439.192	14060.84
439.399	14396.71
439.606	14185.77
439.813	15000.86
440.02	15953.16
440.227	15668.5
440.433	15574.29
440.64	15895.82
440.847	16024.84
441.054	16135.43
441.261	17214.71
441.467	17132.79
441.674	17466.61
441.881	18134.25
442.088	17999.09
442.294	17933.55
442.501	18713.83
442.708	18607.33
442.914	19385.56
443.121	20202.7
443.328	19778.77
443.534	21136.57
443.741	20427.98
443.948	20440.26
444.154	21949.62
444.361	21877.94
444.568	21765.3
444.774	21722.29
444.981	22265
445.187	22582.44
445.394	23725.21
445.6	23563.42
445.807	25758.84
446.013	24628.36
446.22	24865.92
446.426	26008.69
446.633	26518.64
446.839	27186.27
447.046	26084.47
447.252	27550.81
447.459	27825.24
447.665	27559
447.871	28709.96
448.078	29836.34
448.284	28759.11
448.491	29170.75
448.697	30630.96
448.903	31190.05
449.11	30897.19
449.316	30458.93
449.522	30837.8
449.728	32076.82
449.935	32150.55
450.141	32334.87
450.347	33446.91
450.553	32046.1
450.76	32308.24
450.966	33428.48
451.172	33172.49
451.378	34223.09
451.584	33463.3
451.791	34069.5
451.997	34474.99
452.203	34526.19
452.409	34655.22
452.615	34460.66
452.821	33408
453.027	32992.26
453.233	34604.02
453.44	33045.51
453.646	33610.75
453.852	33948.67
454.058	34491.38
454.264	33022.98
454.47	33723.39
454.676	33199.11
454.882	34444.27
455.088	31341.6
455.294	31777.82
455.5	32062.49
455.705	32773.13
455.911	31538.21
456.117	30776.36
456.323	30397.49
456.529	28914.76
456.735	29731.9
456.941	29443.13
457.147	28496.97
457.352	27802.71
457.558	27491.42
457.764	27628.63
457.97	27229.28
458.176	26582.12
458.381	26850.41
458.587	25158.78
458.793	25107.58
458.999	24016.02
459.204	25558.14
459.41	24769.67
459.616	23420.06
459.821	23276.7
460.027	23157.92
460.233	22957.22
460.438	21583.03
460.644	21912.75
460.85	20733.12
461.055	20509.9
461.261	20495.56
461.466	19035.36
461.672	18568.42
461.878	19700.95
462.083	18562.28
462.289	18138.35
462.494	17911.02
462.7	17097.98
462.905	16641.28
463.111	17384.69
463.316	17480.95
463.522	16841.98
463.727	17110.27
463.932	16811.26
464.138	16895.23
464.343	16848.13
464.549	16313.61
464.754	16817.41
464.959	16628.99
465.165	16680.19
465.37	15918.35
465.575	15449.36
465.781	16168.2
465.986	16282.89
466.191	15582.48
466.397	15373.59
466.602	14556.45
466.807	15117.59
467.012	15271.19
467.218	15097.11
467.423	14916.89
467.628	15093.02
467.833	15553.81
468.038	15097.11
468.244	14570.79
468.449	15170.84
468.654	14748.96
468.859	14576.93
469.064	14347.56
469.269	14126.38
469.474	14118.18
469.679	14314.79
469.885	13894.96
470.09	14060.84
470.295	13985.07
470.5	13784.37
470.705	13798.7
470.91	13485.36
471.115	13294.9
471.32	13382.96
471.525	13366.58
471.73	13118.78
471.935	13092.15
472.139	12643.65
472.344	12739.9
472.549	12660.03
472.754	12518.72
472.959	12305.73
473.164	12047.69
473.369	11756.88
473.574	12340.55
473.778	12207.43
473.983	11949.39
474.188	12111.18
474.393	11507.02
474.598	11609.42
474.802	11447.63
475.007	11578.7
475.212	11433.3
475.417	10941.79
475.621	11054.42
475.826	11160.92
476.031	10837.34
476.235	10478.94
476.44	10906.97
476.645	10683.74
476.849	10567.01
477.054	10560.86
477.259	10372.45
477.463	10179.94
477.668	9827.69
477.872	10196.32
478.077	9891.18
478.282	9893.23
478.486	9850.22
478.691	9463.15
478.895	9676.14
479.1	9428.34
479.304	9510.25
479.509	9303.41
479.713	9510.25
479.918	9135.48
480.122	8912.25
480.326	9131.38
480.531	9319.79
480.735	9074.04
480.94	9274.74
481.144	9483.63
481.348	9078.13
481.553	8967.54
481.757	8691.07
481.961	8936.82
482.166	9049.46
482.37	8965.5
482.574	8877.43
482.778	9049.46
482.983	9008.5
483.187	9147.76
483.391	9045.37
483.595	8953.21
483.8	8754.55
484.004	8695.16
484.208	8963.45
484.412	8963.45
484.616	8840.57
484.821	9041.27
485.025	8754.55
485.229	8918.39
485.433	8971.64
485.637	9074.04
485.841	8736.12
486.045	8916.34
486.249	8615.29
486.453	8666.49
486.657	8822.14
486.861	9012.6
487.065	8639.87
487.269	8799.61
487.473	8732.03
487.677	9055.61
487.881	8891.77
488.085	8807.8
488.289	8828.28
488.493	9024.89
488.697	8908.15
488.901	8879.48
489.105	9008.5
489.309	8961.4
489.512	9031.03
489.716	8996.21
489.92	9026.93
490.124	8895.86
490.328	9039.22
490.531	9117.04
490.735	9106.81
490.939	9344.37
491.143	9028.98
491.346	9158
491.55	9244.02
491.754	9180.53
491.958	9418.1
492.161	9110.9
492.365	9338.23
492.569	9381.23
492.772	9264.5
492.976	9473.39
493.18	9487.73
493.383	9596.27
493.587	9626.99
493.79	9852.27
493.994	9713
494.197	9733.48
494.401	9940.33
494.605	9897.32
494.808	9981.29
495.012	9985.38
495.215	10186.08
495.419	10300.77
495.622	10343.78
495.825	10386.79
496.029	10394.98
496.232	10704.22
496.436	10601.82
496.639	10929.5
496.843	10851.67
497.046	11015.51
497.249	11187.54
497.453	11097.43
497.656	11330.9
497.859	11341.14
498.063	11304.28
498.266	11732.3
498.469	11701.58
498.673	11754.83
498.876	11953.48
499.079	12045.64
499.282	12121.42
499.485	12406.08
499.689	12250.44
499.892	12686.65
500.095	12672.32
500.298	12864.83
500.501	12850.49
500.705	13014.33
500.908	13311.28
501.111	13200.69
501.314	13411.64
501.517	13436.21
501.72	14001.45
501.923	13997.35
502.126	14134.57
502.329	14130.47
502.532	14468.39
502.735	14425.38
502.938	14859.55
503.141	14519.59
503.344	15308.05
503.547	15097.11
503.75	15553.81
503.953	15590.67
504.156	15715.6
504.359	15846.67
504.562	15908.11
504.765	16323.85
504.968	16416.01
505.17	16588.03
505.373	16600.32
505.576	16807.17
505.779	17233.15
505.982	17292.54
506.185	17583.35
506.387	17978.61
506.59	17587.44
506.793	18021.61
506.996	18093.29
507.198	18535.65
507.401	18572.52
507.604	18869.47
507.807	19145.95
508.009	19135.71
508.212	19354.84
508.415	19598.55
508.617	19598.55
508.82	19909.84
509.022	20065.49
509.225	20169.93
509.428	20196.56
509.63	20384.97
509.833	20751.56
510.035	21341.37
510.238	21273.79
510.44	21505.21
510.643	21779.64
510.845	22074.54
511.048	21511.35
511.25	22215.85
511.453	22230.19
511.655	23332
511.858	22725.8
512.06	23219.36
512.262	23143.58
512.465	23159.97
512.667	23772.31
512.87	23985.3
513.072	23870.61
513.274	24433.8
513.477	24671.37
513.679	24974.47
513.881	24915.08
514.084	25367.68
514.286	25316.48
514.488	25781.37
514.69	26014.84
514.893	26141.81
515.095	26014.84
515.297	26403.95
515.499	26895.46
515.701	26967.14
515.904	27395.17
516.106	27425.89
516.308	27458.65
516.51	27970.65
516.712	27980.89
516.914	28214.35
517.116	28376.14
517.318	28927.05
517.52	29121.6
517.722	28869.7
517.925	29785.15
518.127	29807.67
518.329	30182.45
518.531	29613.12
518.733	30348.34
518.935	30807.08
519.136	30430.26
519.338	30866.47
519.54	31374.37
519.742	31517.73
519.944	31208.48
520.146	32068.63
520.348	32064.53
520.55	32125.97
520.752	32453.65
520.954	32871.43
521.155	32750.6
521.357	33022.98
521.559	33317.89
521.761	33633.28
521.963	33764.35
522.164	33936.38
522.366	34165.75
522.568	34360.31
522.77	34722.8
522.971	35130.34
523.173	34593.78
523.375	35025.9
523.576	35275.75
523.778	35134.44
523.98	35734.49
524.181	35826.65
524.383	35714.02
524.584	36223.96
524.786	36105.18
524.988	36146.14
525.189	36729.81
525.391	36651.98
525.592	36762.58
525.794	37166.02
525.995	37112.78
526.197	37147.59
526.398	37233.61
526.6	37473.22
526.801	37493.7
527.003	37665.73
527.204	37426.12
527.406	38263.74
527.607	38394.81
527.808	38521.78
528.01	37751.74
528.211	37913.53
528.412	38882.22
528.614	38658.99
528.815	38753.2
529.016	38671.28
529.218	38880.17
529.419	38943.66
529.62	39140.27
529.822	38886.32
530.023	39138.22
530.224	39033.77
530.425	39070.64
530.626	38906.8
530.828	38562.74
531.029	39889.82
531.23	39230.38
531.431	39357.35
531.632	39660.45
531.833	39496.61
532.035	39504.81
532.236	39852.96
532.437	39639.97
532.638	39725.99
532.839	39953.31
533.04	39887.78
533.241	39117.74
533.442	40264.6
533.643	39791.52
533.844	39783.33
534.045	39730.08
534.246	39343.02
534.447	40053.66
534.648	39609.25
534.849	39721.89
535.05	39594.92
535.251	39852.96
535.451	39664.55
535.652	40082.33
535.853	39535.52
536.054	39713.7
536.255	40024.99
536.456	39398.31
536.657	40221.59
536.857	39541.67
537.058	39680.93
537.259	40334.23
537.46	40377.24
537.66	39975.84
537.861	40096.67
538.062	39578.53
538.263	39834.53
538.463	39693.22
538.664	39832.48
538.865	39926.69
539.065	39996.32
539.266	39599.01
539.466	39959.45
539.667	39322.54
539.868	40207.26
540.068	39803.81
540.269	39455.65
540.469	39936.93
540.67	39347.11
540.87	39652.26
541.071	39570.34
541.271	40229.79
541.472	40057.76
541.672	39578.53
541.873	39580.58
542.073	39072.68
542.274	39517.09
542.474	39523.24
542.675	39568.29
542.875	39662.5
543.075	39943.07
543.276	39441.32
543.476	39711.65
543.676	39461.8
543.877	39951.26
544.077	39592.87
544.277	39553.96
544.478	39410.6
544.678	39738.27
544.878	39140.27
545.078	39240.62
545.279	39271.34
545.479	39451.56
545.679	39818.14
545.879	39394.21
546.079	39615.4
546.28	39236.52
546.48	39152.55
546.68	39549.86
546.88	39496.61
547.08	39818.14
547.28	39037.87
547.48	39062.44
547.68	39265.19
547.88	39017.39
548.081	39519.14
548.281	39371.69
548.481	39306.15
548.681	39742.37
548.881	39240.62
549.081	39277.48
549.28	39183.27
549.48	39771.04
549.68	39099.31
549.88	39453.61
550.08	39207.85
550.28	39480.23
550.48	39355.3
550.68	39312.3
550.88	39189.42
551.08	39148.46
551.279	39017.39
551.479	38716.34
551.679	38990.77
551.879	39029.68
552.079	39228.33
552.278	38788.02
552.478	38912.94
552.678	39070.64
552.878	39152.55
553.077	39275.43
553.277	38544.31
553.477	39191.47
553.676	38859.7
553.876	38910.89
554.076	38890.41
554.275	38695.86
554.475	38517.68
554.674	38835.12
554.874	38994.86
555.074	38953.9
555.273	38742.96
555.473	39015.34
555.672	38761.39
555.872	38474.68
556.071	38595.51
556.271	38421.43
556.47	38542.26
556.67	38091.71
556.869	38767.54
557.068	38699.95
557.268	38267.83
557.467	38237.11
557.667	38331.32
557.866	38294.46
558.065	38398.9
558.265	38046.65
558.464	37960.64
558.663	38515.64
558.863	37487.56
559.062	38489.01
559.261	37628.87
559.461	38429.62
559.66	37589.95
559.859	38075.32
560.058	37301.19
560.258	37678.02
560.457	37624.77
560.656	37823.42
560.855	37571.52
561.054	37540.8
561.253	37147.59
561.453	37645.25
561.652	37620.67
561.851	37446.6
562.05	37342.15
562.249	37233.61
562.448	37915.58
562.647	37168.07
562.846	37383.11
563.045	37446.6
563.244	36912.08
563.443	37592
563.642	36774.86
563.841	36905.93
564.04	36656.08
564.239	37282.76
564.438	36568.02
564.637	37178.31
564.836	36727.76
565.035	36205.53
565.234	36856.78
565.432	36654.03
565.631	36168.66
565.83	36715.47
566.029	36496.34
566.228	36316.12
566.427	36201.43
566.625	36162.52
566.824	35765.21
567.023	36318.17
567.222	35693.54
567.42	36215.77
567.619	36000.73
567.818	35982.3
568.016	35806.17
568.215	36166.62
568.414	35507.17
568.612	35818.46
568.811	35879.9
569.01	35437.54
569.208	34966.51
569.407	35300.33
569.605	35077.1
569.804	35802.08
570.002	35177.45
570.201	35478.5
570.4	34653.17
570.598	34868.2
570.797	35003.37
570.995	35333.09
571.193	34556.91
571.392	34831.34
571.59	34417.65
571.789	34933.74
571.987	34556.91
572.186	34554.86
572.384	34059.26
572.582	35060.71
572.781	34403.32
572.979	34092.02
573.177	34184.18
573.376	34315.25
573.574	33729.53
573.772	34227.19
573.971	33963
574.169	33784.83
574.367	33893.37
574.565	34036.73
574.763	33238.02
574.962	33383.43
575.16	33014.79
575.358	33567.74
575.556	33018.89
575.754	33182.73
575.952	33121.29
576.151	33369.09
576.349	32877.58
576.547	32754.7
576.745	33012.74
576.943	32898.06
577.141	33186.82
577.339	32816.14
577.537	32295.96
577.735	32713.74
577.933	32525.33
578.131	32642.06
578.329	32365.59
578.527	31908.89
578.725	32291.86
578.923	32580.62
579.121	31900.7
579.319	31988.76
579.516	32459.79
579.714	31683.61
579.912	31810.59
580.11	31689.76
580.308	31972.38
580.506	31646.75
580.704	31220.77
580.901	31730.72
581.099	31702.04
581.297	31026.21
581.495	31314.98
581.692	31501.34
581.89	30956.58
582.088	31282.21
582.285	30934.06
582.483	31233.06
582.681	30874.66
582.878	30778.41
583.076	30424.11
583.274	30878.76
583.471	30254.13
583.669	30546.99
583.866	30448.69
584.064	30530.61
584.262	29807.67
584.459	30256.18
584.657	29981.75
584.854	30145.59
585.052	29858.87
585.249	30288.95
585.447	30598.19
585.644	29260.87
585.841	29510.72
586.039	29758.52
586.236	29391.94
586.434	29301.82
586.631	29168.71
586.828	29615.16
587.026	29496.38
587.223	29017.16
587.42	28976.2
587.618	29097.03
587.815	28687.43
588.012	28669
588.21	28521.55
588.407	28910.66
588.604	28648.52
588.801	28417.1
588.999	28601.42
589.196	28185.68
589.393	28443.73
589.59	28255.31
589.787	28193.87
589.984	27937.88
590.182	27706.46
590.379	28019.8
590.576	27927.64
590.773	27915.35
590.97	27350.11
591.167	27952.21
591.364	27389.02
591.561	27493.47
591.758	27133.03
591.955	27167.84
592.152	27313.25
592.349	27292.77
592.546	27192.42
592.743	27296.86
592.94	26874.98
593.137	26961
593.334	26795.11
593.531	26582.12
593.727	27065.44
593.924	26680.42
594.121	26637.42
594.318	26635.37
594.515	26063.99
594.712	26612.84
594.908	26217.58
595.105	26078.32
595.302	26285.17
595.499	26264.69
595.696	26115.19
595.892	25590.91
596.089	25687.16
596.286	26127.47
596.482	25472.12
596.679	25656.44
596.876	25709.69
597.072	25375.87
597.269	25369.72
597.466	25273.47
597.662	25388.16
597.859	25388.16
598.055	25121.92
598.252	24951.94
598.448	24980.61
598.645	24872.07
598.841	24605.83
599.038	24722.57
599.234	24863.88
599.431	24575.11
599.627	24548.49
599.824	24419.47
600.02	24325.26
600.217	24341.64
600.413	24489.1
600.609	24183.95
600.806	23930
601.002	24093.84
601.198	24077.46
601.395	23887
601.591	23680.15
601.787	24024.21
601.984	23448.73
602.18	23788.69
602.376	23702.68
602.572	23350.43
602.769	23170.21
602.965	23315.61
603.161	23481.5
603.357	23202.97
603.553	23086.24
603.75	23403.67
603.946	23057.57
604.142	22998.18
604.338	22721.7
604.534	22871.2
604.73	22725.8
604.926	22553.77
605.122	22488.23
605.318	22650.02
605.514	22301.87
605.71	22430.89
605.906	22408.36
606.102	22099.12
606.298	22455.47
606.494	22078.64
606.69	22467.75
606.886	22176.94
607.082	21933.23
607.278	22078.64
607.474	21787.83
607.67	22181.04
607.866	21867.7
608.062	21949.62
608.257	21687.48
608.453	21716.15
608.649	21607.61
608.845	21478.58
609.041	21583.03
609.236	21685.43
609.432	21509.3
609.628	21433.53
609.824	21259.45
610.019	21437.62
610.215	21296.32
610.411	21206.2
610.606	21105.85
610.802	21255.36
610.998	21288.12
611.193	21134.53
611.389	20868.29
611.584	21142.72
611.78	20780.23
611.976	21085.37
612.171	21068.99
612.367	20843.71
612.562	20681.92
612.758	20315.34
612.953	20460.74
613.149	20810.95
613.344	20432.07
613.539	20763.84
613.735	20382.92
613.93	20456.65
614.126	20544.71
614.321	20612.29
614.517	20350.15
614.712	20241.61
614.907	20341.96
615.103	20460.74
615.298	20368.59
615.493	20237.52
615.688	20214.99
615.884	20434.12
616.079	19915.98
616.274	20096.21
616.47	20004.05
616.665	20278.47
616.86	20036.81
617.055	19760.34
617.25	19928.27
617.445	19928.27
617.641	19344.6
617.836	20096.21
618.031	19635.41
618.226	19864.78
618.421	19461.34
618.616	19870.93
618.811	19170.52
619.006	19471.57
619.201	19160.28
619.396	19358.94
619.591	18902.24
619.786	19119.32
619.981	18828.51
620.176	19217.63
620.371	19014.88
620.566	18844.9
620.761	18492.65
620.956	18656.48
621.151	18353.38
621.346	18679.01
621.541	18353.38
621.735	18210.03
621.93	18138.35
622.125	17951.98
622.32	17779.95
622.515	18201.83
622.709	17771.76
622.904	17898.73
623.099	17495.29
623.294	17794.29
623.488	17437.94
623.683	17396.98
623.878	17382.65
624.072	17222.91
624.267	17315.06
624.462	17204.47
624.656	17167.61
624.851	17026.3
625.046	17050.88
625.24	16981.24
625.435	16700.67
625.629	16540.93
625.824	16471.3
626.018	16286.98
626.213	16098.57
626.407	16354.57
626.602	15992.08
626.796	16266.5
626.991	16162.06
627.185	15875.34
627.38	15723.79
627.574	15455.51
627.768	15654.16
627.963	15752.46
628.157	15301.91
628.352	15328.53
628.546	15242.52
628.74	15258.9
628.935	15213.85
629.129	15338.77
629.323	14861.6
629.517	14875.93
629.712	14974.24
629.906	14669.09
630.1	14648.61
630.294	14589.22
630.489	14685.47
630.683	14564.64
630.877	14292.26
631.071	14230.82
631.265	14241.06
631.459	14365.99
631.653	13845.8
631.848	13964.59
632.042	14015.79
632.236	13907.24
632.43	13741.36
632.624	13751.6
632.818	13708.59
633.012	13511.99
633.206	13440.31
633.4	13518.13
633.594	13264.18
633.788	13378.87
633.982	13124.92
634.176	13311.28
634.369	13184.31
634.563	13010.23
634.757	13047.1
634.951	13161.78
635.145	12694.85
635.339	12926.27
635.533	12569.92
635.726	12719.42
635.92	12395.84
636.114	12416.32
636.308	12182.85
636.501	12373.32
636.695	12442.95
636.889	12043.59
637.083	12031.3
637.276	12033.35
637.47	12102.98
637.664	11945.29
637.857	11920.71
638.051	11787.6
638.244	11646.29
638.438	11824.46
638.632	11806.03
638.825	11619.66
639.019	11529.55
639.212	11433.3
639.406	11490.64
639.599	11298.13
639.793	11484.5
639.986	11177.3
640.18	11173.21
640.373	11179.35
640.567	11011.42
640.76	11011.42
640.954	11074.9
641.147	10777.95
641.34	10583.39
641.534	10689.88
641.727	10747.23
641.92	10775.9
642.114	10761.56
642.307	10657.12
642.5	10480.99
642.694	10560.86
642.887	10302.82
643.08	10452.32
643.273	10147.17
643.467	10112.36
643.66	10270.05
643.853	10175.84
644.046	9981.29
644.239	10048.87
644.432	9969
644.626	9782.63
644.819	9768.3
645.012	9667.95
645.205	9647.47
645.398	9880.94
645.591	9721.2
645.784	9686.38
645.977	9545.07
646.17	9518.45
646.363	9250.16
646.556	9237.88
646.749	9446.77
646.942	9287.03
647.135	9450.86
647.328	9231.73
647.521	9125.24
647.714	9119.09
647.907	9233.78
648.099	9094.52
648.292	9139.57
648.485	8988.02
648.678	8820.09
648.871	8680.83
649.064	8707.45
649.256	8623.48
649.449	8670.59
649.642	8721.79
649.835	8598.91
650.027	8521.09
650.22	8541.57
650.413	8455.55
650.605	8301.95
650.798	8320.39
650.991	8209.79
651.183	8271.23
651.376	8134.02
651.568	8273.28
651.761	7906.7
651.954	8236.42
652.146	8150.4
652.339	7970.18
652.531	8002.95
652.724	7951.75
652.916	7880.07
653.109	7837.06
653.301	7841.16
653.494	7943.56
653.686	7605.64
653.879	7763.34
654.071	7550.35
654.263	7597.45
654.456	7687.56
654.648	7529.87
654.84	7374.22
655.033	7339.41
655.225	7435.66
655.417	7290.26
655.61	7138.71
655.802	7226.77
655.994	7187.86
656.186	7239.06
656.379	7030.16
656.571	7048.6
656.763	7007.64
656.955	7009.69
657.148	7021.97
657.34	7101.84
657.532	6907.29
657.724	6940.05
657.916	6696.35
658.108	6927.77
658.3	6659.48
658.492	6804.89
658.684	6665.63
658.876	6727.07
659.068	6520.22
659.26	6522.27
659.452	6524.32
659.644	6561.18
659.836	6481.31
660.028	6544.8
660.22	6340
660.412	6516.12
660.604	6411.68
660.796	6376.86
660.988	6348.19
661.18	6266.27
661.372	6020.52
661.563	6176.16
661.755	6049.19
661.947	6219.17
662.139	6069.67
662.331	5967.27
662.522	6110.63
662.714	6051.24
662.906	6063.52
663.097	6006.18
663.289	5883.3
663.481	5676.46
663.673	5737.9
663.864	5680.55
664.056	5598.63
664.247	5653.93
664.439	5664.17
664.631	5698.99
664.822	5498.28
665.014	5678.51
665.205	5518.76
665.397	5629.35
665.588	5440.94
665.78	5561.77
665.971	5434.8
666.163	5418.41
666.354	5430.7
666.546	5418.41
666.737	5393.84
666.929	5201.33
667.12	5221.81
667.311	5088.69
667.503	5129.65
667.694	5115.31
667.885	5133.75
668.077	5103.03
668.268	5129.65
668.459	5031.35
668.651	5033.4
668.842	5014.96
669.033	4863.41
669.224	4844.98
669.416	4990.39
669.607	4955.57
669.798	4892.09
669.989	4890.04
670.18	4824.5
670.371	4785.59
670.563	4705.72
670.754	4597.18
670.945	4754.87
671.136	4894.13
671.327	4619.71
671.518	4722.1
671.709	4640.19
671.9	4863.41
672.091	4738.49
672.282	4779.45
672.473	4740.54
672.664	4607.42
672.855	4654.52
673.046	4718.01
673.237	4619.71
673.428	4462.01
673.619	4500.92
673.809	4447.68
674	4457.92
674.191	4476.35
674.382	4484.54
674.573	4359.61
674.764	4345.28
674.954	4515.26
675.145	4285.89
675.336	4408.76
675.527	4412.86
675.717	4314.56
675.908	4339.13
676.099	4376
676.289	4330.94
676.48	4271.55
676.671	4216.26
676.861	4210.11
677.052	4222.4
677.243	4201.92
677.433	4212.16
677.624	4269.5
677.814	4160.96
678.005	4158.91
678.195	4040.13
678.386	4208.06
678.576	4052.42
678.767	4001.22
678.957	4033.99
679.148	4238.78
679.338	4068.8
679.529	4083.14
679.719	3976.64
679.909	4130.24
680.1	4111.81
680.29	4089.28
680.481	4036.03
680.671	4097.47
680.861	4019.65
681.052	4093.38
681.242	3898.82
681.432	4064.71
681.622	4013.51
681.813	4015.55
682.003	4064.71
682.193	4021.7
682.383	3929.54
682.573	3939.78
682.764	3882.44
682.954	3900.87
683.144	3837.38
683.334	3806.66
683.524	3890.63
683.714	3911.11
683.904	3929.54
684.094	3988.93
684.284	3780.04
684.474	3843.53
684.664	3855.81
684.854	3937.73
685.044	3870.15
685.234	3888.58
685.424	3747.27
685.614	3667.4
685.804	3653.06
685.994	3788.23
686.184	3741.13
686.374	3648.97
686.564	3591.63
686.753	3657.16
686.943	3605.96
687.133	3702.22
687.323	3573.19
687.513	3558.86
687.702	3589.58
687.892	3509.71
688.082	3513.8
688.272	3640.78
688.461	3556.81
688.651	3513.8
688.841	3470.8
689.03	3435.98
689.22	3464.65
689.41	3370.44
689.599	3466.7
689.789	3380.68
689.979	3429.84
690.168	3458.51
690.358	3311.05
690.547	3253.71
690.737	3462.6
690.926	3356.11
691.116	3237.33
691.305	3147.22
691.495	3182.03
691.684	3247.57
691.874	3286.48
692.063	3358.16
692.252	3245.52
692.442	3263.95
692.631	3096.02
692.82	3139.02
693.01	3218.89
693.199	3040.72
693.388	3087.82
693.578	3073.49
693.767	3110.35
693.956	3071.44
694.146	3026.39
694.335	2923.99
694.524	2932.18
694.713	2942.42
694.902	3003.86
695.092	3069.39
695.281	2936.28
695.47	2909.65
695.659	2932.18
695.848	2901.46
696.037	2921.94
696.226	2860.5
696.415	2803.16
696.604	3020.24
696.793	2897.36
696.982	2815.45
697.171	2897.36
697.36	2868.69
697.549	2860.5
697.738	2764.25
697.927	2764.25
698.116	2842.07
698.305	2788.82
698.494	2633.18
698.683	2778.58
698.872	2711
699.061	2756.05
699.25	2667.99
699.438	2723.29
699.627	2592.22
699.816	2639.32
700.005	2774.49
700.193	2696.66
700.382	2606.55
700.571	2604.5
700.76	2516.44
700.948	2610.65
701.137	2647.51
701.326	2657.75
701.514	2575.83
701.703	2672.09
701.892	2586.07
702.08	2643.42
702.269	2624.98
702.457	2641.37
702.646	2637.27
702.834	2446.81
703.023	2596.31
703.212	2598.36
703.4	2557.4
703.589	2471.39
703.777	2485.72
703.965	2385.37
704.154	2479.58
704.342	2577.88
704.531	2430.43
704.719	2381.28
704.907	2469.34
705.096	2418.14
705.284	2459.1
705.472	2553.31
705.661	2393.56
705.849	2528.73
706.037	2493.91
706.226	2428.38
706.414	2362.84
706.602	2452.95
706.79	2500.06
706.979	2412
707.167	2334.17
707.355	2395.61
707.543	2371.04
707.731	2387.42
707.919	2397.66
708.107	2356.7
708.296	2356.7
708.484	2428.38
708.672	2373.08
708.86	2463.19
709.048	2246.11
709.236	2289.12
709.424	2436.57
709.612	2366.94
709.8	2375.13
709.988	2219.49
710.176	2360.8
710.364	2315.74
710.551	2342.36
710.739	2346.46
710.927	2399.71
711.115	2235.87
711.303	2297.31
711.491	2330.08
711.679	2301.4
711.866	2291.17
712.054	2500.06
712.242	2237.92
712.43	2358.75
712.617	2319.84
712.805	2336.22
712.993	2362.84
713.181	2254.3
713.368	2403.8
713.556	2297.31
713.744	2274.78
713.931	2323.93
714.119	2325.98
714.306	2368.99
714.494	2244.06
714.682	2317.79
714.869	2256.35
715.057	2364.89
715.244	2266.59
715.432	2352.6
715.619	2352.6
715.807	2268.64
715.994	2231.77
716.182	2305.5
716.369	2360.8
716.556	2397.66
716.744	2291.17
716.931	2328.03
717.119	2272.73
717.306	2201.05
717.493	2354.65
717.681	2422.24
717.868	2317.79
718.055	2321.88
718.242	2414.04
718.43	2328.03
718.617	2330.08
718.804	2338.27
718.991	2319.84
719.179	2311.64
719.366	2278.88
719.553	2399.71
719.74	2414.04
719.927	2356.7
720.114	2248.16
720.301	2321.88
720.488	2248.16
720.676	2180.57
720.863	2311.64
721.05	2235.87
721.237	2291.17
721.424	2258.4
721.611	2276.83
721.798	2317.79
721.985	2186.72
722.172	2229.73
722.358	2321.88
722.545	2356.7
722.732	2258.4
722.919	2168.29
723.106	2328.03
723.293	2295.26
723.48	2325.98
723.667	2235.87
723.853	2178.53
724.04	2264.54
724.227	2184.67
724.414	2381.28
724.6	2225.63
724.787	2151.9
724.974	2266.59
725.161	2338.27
725.347	2242.01
725.534	2231.77
725.72	2252.25
725.907	2237.92
726.094	2219.49
726.28	2344.41
726.467	2383.32
726.653	2287.07
726.84	2371.04
727.027	2266.59
727.213	2336.22
727.4	2278.88
727.586	2332.12
727.773	2225.63
727.959	2328.03
728.145	2256.35
728.332	2209.25
728.518	2307.55
728.705	2309.6
728.891	2291.17
729.077	2190.81
729.264	2362.84
729.45	2258.4
729.636	2184.67
729.823	2276.83
730.009	2354.65
730.195	2317.79
730.382	2225.63
730.568	2328.03
730.754	2287.07
730.94	2317.79
731.126	2317.79
731.313	2330.08
731.499	2315.74
731.685	2340.32
731.871	2270.69
732.057	2276.83
732.243	2239.97
732.429	2289.12
732.615	2301.4
732.801	2383.32
732.987	2321.88
733.173	2319.84
733.359	2346.46
733.545	2252.25
733.731	2205.15
733.917	2264.54
734.103	2268.64
734.289	2205.15
734.475	2258.4
734.661	2264.54
734.847	2348.51
735.033	2196.96
735.219	2254.3
735.404	2213.34
735.59	2393.56
735.776	2332.12
735.962	2235.87
736.148	2287.07
736.333	2270.69
736.519	2127.33
736.705	2227.68
736.89	2229.73
737.076	2270.69
737.262	2098.66
737.447	2293.21
737.633	2254.3
737.819	2213.34
738.004	2203.1
738.19	2190.81
738.375	2227.68
738.561	2192.86
738.747	2121.18
738.932	2158.05
739.118	2158.05
739.303	2235.87
739.489	2153.95
739.674	2188.77
739.859	2149.86
740.045	2082.27
740.23	2201.05
740.416	2217.44
740.601	2108.9
740.786	2102.75
740.972	2188.77
741.157	2092.51
741.342	2170.33
741.528	2106.85
741.713	2174.43
741.898	2076.13
742.084	2057.7
742.269	2135.52
742.454	2043.36
742.639	2078.18
742.824	2014.69
743.01	1986.02
743.195	2110.94
743.38	2004.45
743.565	2055.65
743.75	1961.44
743.935	1971.68
744.12	2078.18
744.305	2033.12
744.49	1936.87
744.675	2020.83
744.86	1926.63
745.045	1938.91
745.23	1934.82
745.415	1996.26
745.6	1897.96
745.785	1889.76
745.97	1928.67
746.155	1928.67
746.34	1945.06
746.525	1857
746.71	1861.09
746.895	1916.39
747.079	1787.36
747.264	1854.95
747.449	1902.05
747.634	1879.52
747.819	1875.43
748.003	1787.36
748.188	1732.07
748.373	1715.69
748.557	1820.13
748.742	1783.27
748.927	1687.01
749.111	1713.64
749.296	1664.49
749.481	1672.68
749.665	1615.34
749.85	1725.93
750.034	1676.77
750.219	1674.73
750.404	1654.25
750.588	1635.82
750.773	1594.86
750.957	1570.28
751.141	1574.38
751.326	1527.27
751.51	1553.9
751.695	1625.58
751.879	1592.81
752.064	1521.13
752.248	1557.99
752.432	1453.55
752.617	1502.7
752.801	1519.08
752.985	1461.74
753.17	1576.42
753.354	1590.76
753.538	1465.83
753.722	1437.16
753.907	1400.3
754.091	1484.27
754.275	1451.5
754.459	1426.92
754.643	1431.02
754.828	1398.25
755.012	1422.83
755.196	1390.06
755.38	1361.39
755.564	1390.06
755.748	1469.93
755.932	1369.58
756.116	1336.81
756.3	1289.71
756.484	1277.42
756.668	1283.56
756.852	1326.57
757.036	1205.74
757.22	1302
757.404	1238.51
757.588	1238.51
757.772	1299.95
757.956	1336.81
758.14	1295.85
758.323	1172.97
758.507	1201.65
758.691	1209.84
758.875	1193.45
759.059	1293.8
759.242	1187.31
759.426	1207.79
759.61	1166.83
759.794	1134.06
759.977	1181.17
760.161	1170.93
760.345	1146.35
760.528	1211.89
760.712	1111.54
760.895	1050.1
761.079	1099.25
761.263	1146.35
761.446	1095.15
761.63	1064.43
761.813	1142.25
761.997	1037.81
762.18	1054.19
762.364	1062.38
762.547	1123.82
762.731	1125.87
762.914	988.66
763.098	1017.33
763.281	1039.86
763.464	1046
763.648	1093.1
763.831	1046
764.015	945.65
764.198	1072.62
764.381	959.99
764.564	1011.18
764.748	1037.81
764.931	1002.99
765.114	1039.86
765.297	1013.23
765.481	1017.33
765.664	988.66
765.847	964.08
766.03	1031.66
766.213	894.45
766.397	1002.99
766.58	1009.14
766.763	1011.18
766.946	923.12
767.129	984.56
767.312	925.17
767.495	876.02
767.678	1048.05
767.861	927.22
768.044	978.42
768.227	886.26
768.41	943.6
768.593	951.79
768.776	878.07
768.959	976.37
769.142	898.55
769.324	878.07
769.507	921.07
769.69	933.36
769.873	890.35
770.056	865.78
770.239	990.7
770.421	916.98
770.604	853.49
770.787	853.49
770.97	894.45
771.152	771.57
771.335	755.19
771.518	749.04
771.7	853.49
771.883	886.26
772.066	837.11
772.248	800.24
772.431	839.16
772.613	845.3
772.796	808.44
772.978	775.67
773.161	765.43
773.343	841.2
773.526	775.67
773.708	816.63
773.891	769.52
774.073	726.52
774.256	759.28
774.438	785.91
774.621	755.19
774.803	747
774.985	724.47
775.168	849.4
775.35	714.23
775.532	749.04
775.715	738.8
775.897	693.75
776.079	736.76
776.261	751.09
776.444	747
776.626	755.19
776.808	673.27
776.99	749.04
777.173	712.18
777.355	677.37
777.537	665.08
777.719	652.79
777.901	685.56
778.083	697.85
778.265	611.83
778.447	585.21
778.629	609.78
778.811	472.57
778.993	658.93
779.175	603.64
779.357	593.4
779.539	626.17
779.721	626.17
779.903	513.53
780.085	554.49
780.267	622.07
780.449	628.21
780.631	585.21
780.812	599.54
780.994	656.89
781.176	552.44
781.358	589.3
781.54	593.4
781.721	599.54
781.903	570.87
782.085	568.82
782.267	552.44
782.448	538.1
782.63	538.1
782.812	517.62
782.993	546.3
783.175	531.96
783.357	525.82
783.538	470.52
783.72	431.61
783.901	462.33
784.083	501.24
784.264	501.24
784.446	435.71
784.627	423.42
784.809	421.37
784.99	431.61
785.172	491
785.353	394.75
785.535	493.05
785.716	452.09
785.897	491
786.079	464.38
786.26	456.19
786.441	439.8
786.623	437.75
786.804	419.32
786.985	382.46
787.167	357.88
787.348	443.9
787.529	429.56
787.71	404.99
787.891	376.31
788.073	415.23
788.254	339.45
788.435	392.7
788.616	423.42
788.797	341.5
788.978	447.99
789.159	380.41
789.34	368.12
789.522	431.61
789.703	292.35
789.884	427.51
790.065	312.83
790.246	308.73
790.427	427.51
790.607	357.88
790.788	386.55
790.969	398.84
791.15	370.17
791.331	335.35
791.512	321.02
791.693	300.54
791.874	310.78
792.054	370.17
792.235	341.5
792.416	302.59
792.597	359.93
792.778	337.4
792.958	263.68
793.139	398.84
793.32	364.03
793.5	321.02
793.681	306.68
793.862	394.75
794.042	296.44
794.223	304.64
794.404	263.68
794.584	222.72
794.765	339.45
794.945	292.35
795.126	331.26
795.306	296.44
795.487	267.77
795.667	220.67
795.848	290.3
796.028	333.31
796.209	235
796.389	243.2
796.57	239.1
796.75	286.2
796.93	318.97
797.111	339.45
797.291	288.25
797.471	302.59
797.652	290.3
797.832	296.44
798.012	261.63
798.192	194.05
798.373	226.81
798.553	194.05
798.733	206.33
798.913	267.77
799.093	280.06
799.274	306.68
799.454	232.96
799.634	247.29
799.814	280.06
799.994	243.2
800.174	275.96
800.354	263.68
800.534	230.91
800.714	255.48
800.894	230.91
801.074	144.89
801.254	185.85
801.434	206.33
801.614	181.76
801.794	204.28
801.974	589.3
802.154	208.38
802.334	194.05
802.514	249.34
802.693	273.92
802.873	167.42
803.053	282.11
803.233	241.15
803.413	179.71
803.592	224.76
803.772	290.3
803.952	220.67
804.131	153.09
804.311	232.96
804.491	171.52
804.67	226.81
804.85	142.85
805.03	177.66
805.209	292.35
805.389	167.42
805.568	189.95
805.748	181.76
805.928	148.99
806.107	194.05
806.287	171.52
806.466	161.28
806.646	157.18
806.825	202.24
807.004	189.95
807.184	173.57
807.363	214.52
807.543	261.63
807.722	77.31
807.901	128.51
808.081	173.57
808.26	126.46
808.439	157.18
808.619	163.33
808.798	130.56
808.977	177.66
809.156	194.05
809.336	230.91
809.515	222.72
809.694	101.89
809.873	151.04
810.052	175.61
810.231	130.56
810.411	128.51
810.59	169.47
810.769	200.19
810.948	218.62
811.127	101.89
811.306	200.19
811.485	157.18
811.664	108.03
811.843	194.05
812.022	132.61
812.201	112.13
812.38	196.09
812.559	146.94
812.737	126.46
812.916	114.17
813.095	108.03
813.274	124.41
813.453	91.65
813.632	130.56
813.811	130.56
813.989	112.13
814.168	122.37
814.347	101.89
814.526	144.89
814.704	181.76
814.883	194.05
815.062	153.09
815.24	185.85
815.419	101.89
815.598	122.37
815.776	177.66
815.955	148.99
816.133	99.84
816.312	243.2
816.49	91.65
816.669	169.47
816.847	93.69
817.026	189.95
817.204	38.4
817.383	81.41
817.561	34.3
817.74	140.8
817.918	179.71
818.097	77.31
818.275	144.89
818.453	210.43
818.632	118.27
818.81	146.94
818.988	136.7
819.167	132.61
819.345	167.42
819.523	155.13
819.701	159.23
819.879	118.27
820.058	112.13
820.236	148.99
820.414	110.08
820.592	79.36
820.77	42.5
820.948	120.32
821.127	77.31
821.305	42.5
821.483	181.76
821.661	167.42
821.839	77.31
822.017	120.32
822.195	73.21
822.373	56.83
822.551	108.03
822.729	9.73
822.907	85.5
823.085	118.27
823.262	124.41
823.44	103.93
823.618	11.78
823.796	118.27
823.974	144.89
824.152	93.69
824.329	93.69
824.507	114.17
824.685	159.23
824.863	105.98
825.04	101.89
825.218	112.13
825.396	112.13
825.574	77.31
825.751	75.26
825.929	120.32
826.107	83.45
826.284	36.35
826.462	95.74
826.639	13.82
826.817	99.84
826.994	42.5
827.172	85.5
827.349	34.3
827.527	62.98
827.704	138.75
827.882	91.65
828.059	103.93
828.237	40.45
828.414	93.69
828.591	52.74
828.769	116.22
828.946	73.21
829.124	79.36
829.301	136.7
829.478	50.69
829.655	120.32
829.833	114.17
830.01	54.78
830.187	91.65
830.364	46.59
830.542	54.78
830.719	83.45
830.896	112.13
831.073	11.78
831.25	54.78
831.427	97.79
831.604	36.35
831.782	7.68
831.959	103.93
832.136	44.54
832.313	67.07
832.49	65.02
832.667	79.36
832.844	112.13
833.021	58.88
833.198	89.6
833.374	99.84
833.551	120.32
833.728	44.54
833.905	71.17
834.082	28.16
834.259	54.78
834.436	62.98
834.612	91.65
834.789	56.83
834.966	69.12
835.143	42.5
835.319	77.31
835.496	112.13
835.673	32.26
835.85	79.36
836.026	26.11
836.203	79.36
836.38	38.4
836.556	7.68
836.733	79.36
836.909	110.08
837.086	91.65
837.262	15.87
837.439	62.98
837.616	85.5
837.792	38.4
837.968	87.55
838.145	108.03
838.321	62.98
838.498	30.21
838.674	54.78
838.851	44.54
839.027	83.45
839.203	22.02
839.38	79.36
839.556	50.69
839.732	60.93
839.909	99.84
840.085	75.26
840.261	44.54
840.437	79.36
840.614	-29.18
840.79	38.4
840.966	28.16
841.142	46.59
841.318	-2.56
841.494	60.93
841.671	95.74
841.847	114.17
842.023	9.73
842.199	71.17
842.375	58.88
842.551	22.02
842.727	71.17
842.903	114.17
843.079	-12.8
843.255	54.78
843.431	7.68
843.607	83.45
843.783	26.11
843.959	67.07
844.134	-39.42
844.31	65.02
844.486	19.97
844.662	15.87
844.838	-27.14
845.013	52.74
845.189	36.35
845.365	97.79
845.541	95.74
845.716	79.36
845.892	77.31
846.068	93.69
846.244	17.92
846.419	93.69
846.595	-6.66
846.77	-41.47
846.946	44.54
847.122	28.16
847.297	54.78
847.473	-14.85
847.648	22.02
847.824	85.5
847.999	40.45
848.175	-2.56
848.35	85.5
848.526	30.21
848.701	44.54
848.876	28.16
849.052	36.35
849.227	81.41
849.403	62.98
849.578	50.69
849.753	62.98
849.929	-4.61
850.104	54.78
850.279	-18.94
850.454	75.26
850.63	30.21
850.805	89.6
850.98	32.26
851.155	-23.04
851.33	95.74
851.505	13.82
851.681	87.55
851.856	-8.7
852.031	28.16
852.206	5.63
852.381	38.4
852.556	38.4
852.731	32.26
852.906	26.11
853.081	-31.23
853.256	11.78
853.431	-0.51
853.606	44.54
853.781	28.16
853.956	30.21
854.131	-20.99
854.305	-16.9
854.48	-25.09
854.655	60.93
854.83	34.3
855.005	-33.28
855.18	24.06
855.354	103.93
855.529	-0.51
855.704	81.41
855.879	56.83
856.053	32.26
856.228	36.35
856.403	32.26
856.577	50.69
856.752	-59.9
856.926	11.78
857.101	34.3
857.276	-12.8
857.45	75.26
857.625	42.5
857.799	75.26
857.974	38.4
858.148	15.87
858.323	58.88
858.497	22.02
858.672	-31.23
858.846	-4.61
859.02	-4.61
859.195	13.82
859.369	-16.9
859.543	36.35
859.718	1.54
859.892	30.21
860.066	-4.61
860.241	1.54
860.415	54.78
860.589	-0.51
860.763	54.78
860.938	-2.56
861.112	26.11
861.286	77.31
861.46	5.63
861.634	-18.94
861.808	87.55
861.982	38.4
862.157	-18.94
862.331	28.16
862.505	48.64
862.679	-0.51
862.853	-23.04
863.027	5.63
863.201	26.11
863.375	24.06
863.549	97.79
863.722	5.63
863.896	69.12
864.07	-8.7
864.244	3.58
864.418	42.5
864.592	87.55
864.766	-39.42
864.939	-18.94
865.113	-16.9
865.287	-12.8
865.461	-10.75
865.634	5.63
865.808	11.78
865.982	-35.33
866.156	-72.19
866.329	-12.8
866.503	-29.18
866.676	58.88
866.85	-43.52
867.024	17.92
867.197	22.02
867.371	28.16
867.544	-59.9
867.718	-4.61
867.891	54.78
868.065	38.4
868.238	-18.94
868.412	42.5
868.585	-10.75
868.759	-47.62
868.932	58.88
869.105	58.88
869.279	-31.23
869.452	40.45
869.625	17.92
869.799	-27.14
869.972	-8.7
870.145	1.54
870.319	-27.14
870.492	17.92
870.665	-27.14
870.838	-55.81
871.011	17.92
871.185	-2.56
871.358	-35.33
871.531	91.65
871.704	-10.75
871.877	58.88
872.05	-31.23
872.223	52.74
872.396	-27.14
872.569	77.31
872.742	30.21
872.915	38.4
873.088	-14.85
873.261	-57.86
873.434	13.82
873.607	42.5
873.78	-29.18
873.953	5.63
874.126	3.58
874.299	-6.66
874.471	46.59
874.644	-14.85
874.817	-41.47
874.99	58.88
875.163	-61.95
875.335	-8.7
875.508	-55.81
875.681	46.59
875.853	-39.42
876.026	34.3
876.199	-6.66
876.371	58.88
876.544	15.87
876.717	9.73
876.889	5.63
877.062	22.02
877.234	5.63
877.407	-66.05
877.579	75.26
877.752	-23.04
877.924	22.02
878.097	81.41
878.269	36.35
878.442	5.63
878.614	11.78
878.786	-14.85
878.959	30.21
879.131	-12.8
879.303	-51.71
879.476	-14.85
879.648	13.82
879.82	34.3
879.993	-53.76
880.165	26.11
880.337	-23.04
880.509	9.73
880.681	3.58
880.854	11.78
881.026	-39.42
881.198	-49.66
881.37	-10.75
881.542	7.68
881.714	-43.52
881.886	-45.57
882.058	-45.57
882.23	48.64
882.402	24.06
882.574	60.93
882.746	24.06
882.918	97.79
883.09	-2.56
883.262	-6.66
883.434	-6.66
883.606	-18.94
883.778	-12.8
883.95	46.59
884.122	-72.19
884.293	9.73
884.465	81.41
884.637	-20.99
884.809	-61.95
884.98	-8.7
885.152	32.26
885.324	-12.8
885.496	13.82
885.667	11.78
885.839	40.45
886.011	-23.04
886.182	-2.56
886.354	5.63
886.525	-80.38
886.697	58.88
886.869	50.69
887.04	-31.23
887.212	-18.94
887.383	-25.09
887.555	44.54
887.726	13.82
887.897	-53.76
888.069	-2.56
888.24	13.82
888.412	-37.38
888.583	-18.94
888.754	13.82
888.926	3.58
889.097	1.54
889.268	-33.28
889.44	1.54
889.611	-57.86
889.782	-49.66
889.953	26.11
890.125	3.58
890.296	-35.33
890.467	-37.38
890.638	67.07
890.809	-31.23
890.98	3.58
891.151	26.11
891.323	46.59
891.494	54.78
891.665	-35.33
891.836	42.5
892.007	24.06
892.178	54.78
892.349	3.58
892.52	-14.85
892.691	-2.56
892.862	30.21
893.032	-27.14
893.203	-25.09
893.374	-6.66
893.545	38.4
893.716	3.58
893.887	54.78
894.057	7.68
894.228	-49.66
894.399	-6.66
894.57	15.87
894.74	54.78
894.911	-39.42
895.082	-25.09
895.253	-41.47
895.423	-80.38
895.594	26.11
895.764	-55.81
895.935	-27.14
896.106	-20.99
896.276	-6.66
896.447	3.58
896.617	-14.85
896.788	28.16
896.958	-8.7
897.129	-0.51
897.299	-72.19
897.47	-6.66
897.64	11.78
897.81	-12.8
897.981	26.11
898.151	54.78
898.322	38.4
898.492	103.93
898.662	26.11
898.832	13.82
899.003	13.82
899.173	1.54
899.343	-6.66
899.513	22.02
