Data from USB4F104151__88__12-02-31-564.txt Node

Date: Fri Mar 14 12:02:31 EDT 2025
User: louis
Spectrometer: USB4F10415
Trigger mode: 4
Integration Time (sec): 2.000000E-2
Scans to average: 1
Electric dark correction enabled: true
Nonlinearity correction enabled: false
Boxcar width: 0
XAxis mode: Wavelengths
Number of Pixels in Spectrum: 3648
>>>>>Begin Spectral Data<<<<<
178.204	-128.85
178.424	-128.85
178.644	-128.85
178.864	-94.04
179.084	-73.56
179.304	14.51
179.524	-14.17
179.744	-57.17
179.964	16.55
180.184	63.66
180.404	22.7
180.624	4.27
180.844	-1.88
181.064	-94.04
181.283	43.18
181.503	-48.98
181.723	51.37
181.943	10.41
182.163	14.51
182.383	-10.07
182.602	-18.26
182.822	-24.4
183.042	-38.74
183.262	-10.07
183.482	41.13
183.701	-42.84
183.921	-98.13
184.141	-53.08
184.361	49.32
184.58	4.27
184.8	-1.88
185.02	14.51
185.239	26.79
185.459	57.51
185.679	-46.93
185.898	-51.03
186.118	-32.6
186.338	-38.74
186.557	-10.07
186.777	-14.17
186.997	-18.26
187.216	-73.56
187.436	77.99
187.655	49.32
187.875	-3.93
188.095	45.23
188.314	6.31
188.534	-3.93
188.753	-22.36
188.973	20.65
189.192	-34.64
189.412	-46.93
189.631	12.46
189.851	-32.6
190.07	24.75
190.29	-26.45
190.509	-53.08
190.729	18.6
190.948	-28.5
191.168	51.37
191.387	49.32
191.607	32.94
191.826	43.18
192.045	-57.17
192.265	4.27
192.484	-24.4
192.704	-18.26
192.923	20.65
193.142	-36.69
193.362	-48.98
193.581	-14.17
193.8	34.99
194.02	-5.97
194.239	-38.74
194.458	39.08
194.678	-46.93
194.897	-57.17
195.116	0.17
195.335	-61.27
195.555	-20.31
195.774	-14.17
195.993	-8.02
196.212	12.46
196.432	-20.31
196.651	39.08
196.87	-30.55
197.089	-20.31
197.308	22.7
197.528	39.08
197.747	-65.36
197.966	71.85
198.185	12.46
198.404	49.32
198.623	57.51
198.842	6.31
199.062	-1.88
199.281	-5.97
199.5	-36.69
199.719	59.56
199.938	0.17
200.157	-5.97
200.376	51.37
200.595	-3.93
200.814	-30.55
201.033	-139.09
201.252	-20.31
201.471	-20.31
201.69	-57.17
201.909	71.85
202.128	-44.88
202.347	-5.97
202.566	24.75
202.785	0.17
203.004	-42.84
203.223	55.47
203.442	-34.64
203.661	-8.02
203.879	-44.88
204.098	4.27
204.317	-44.88
204.536	49.32
204.755	-1.88
204.974	0.17
205.193	2.22
205.411	10.41
205.63	-59.22
205.849	-73.56
206.068	4.27
206.287	55.47
206.505	-3.93
206.724	-8.02
206.943	-24.4
207.162	0.17
207.381	49.32
207.599	-12.12
207.818	28.84
208.037	-20.31
208.255	-55.12
208.474	-38.74
208.693	12.46
208.911	12.46
209.13	10.41
209.349	18.6
209.567	41.13
209.786	80.04
210.005	28.84
210.223	18.6
210.442	43.18
210.661	67.75
210.879	-46.93
211.098	34.99
211.316	14.51
211.535	26.79
211.753	-22.36
211.972	-83.8
212.191	-77.65
212.409	45.23
212.628	24.75
212.846	-10.07
213.065	28.84
213.283	73.9
213.502	-69.46
213.72	-65.36
213.938	4.27
214.157	-46.93
214.375	-57.17
214.594	8.36
214.812	37.03
215.031	-71.51
215.249	-32.6
215.467	-20.31
215.686	-3.93
215.904	-20.31
216.122	-22.36
216.341	14.51
216.559	8.36
216.778	-22.36
216.996	67.75
217.214	-18.26
217.432	-8.02
217.651	-67.41
217.869	18.6
218.087	-26.45
218.306	-71.51
218.524	-1.88
218.742	-28.5
218.96	39.08
219.179	-8.02
219.397	-85.84
219.615	65.71
219.833	-36.69
220.051	32.94
220.27	-40.79
220.488	39.08
220.706	-26.45
220.924	16.55
221.142	-44.88
221.36	-40.79
221.578	-22.36
221.796	8.36
222.015	-26.45
222.233	-16.21
222.451	59.56
222.669	-73.56
222.887	18.6
223.105	-48.98
223.323	16.55
223.541	-10.07
223.759	16.55
223.977	24.75
224.195	0.17
224.413	-26.45
224.631	-20.31
224.849	34.99
225.067	67.75
225.285	-42.84
225.503	-98.13
225.721	-61.27
225.939	-10.07
226.157	20.65
226.375	84.14
226.592	-65.36
226.81	18.6
227.028	-38.74
227.246	18.6
227.464	2.22
227.682	-8.02
227.9	-16.21
228.117	-42.84
228.335	-44.88
228.553	-26.45
228.771	-5.97
228.989	-38.74
229.206	6.31
229.424	-1.88
229.642	-38.74
229.86	-18.26
230.077	-1.88
230.295	-18.26
230.513	4.27
230.731	20.65
230.948	57.51
231.166	34.99
231.384	8.36
231.601	28.84
231.819	0.17
232.037	4.27
232.254	2.22
232.472	-1.88
232.689	-20.31
232.907	-22.36
233.125	6.31
233.342	-16.21
233.56	-3.93
233.777	-34.64
233.995	10.41
234.213	-12.12
234.43	30.89
234.648	16.55
234.865	-61.27
235.083	8.36
235.3	-5.97
235.518	88.23
235.735	-73.56
235.953	57.51
236.17	51.37
236.388	24.75
236.605	-5.97
236.822	18.6
237.04	-16.21
237.257	-55.12
237.475	55.47
237.692	14.51
237.909	-24.4
238.127	-67.41
238.344	-8.02
238.562	32.94
238.779	47.27
238.996	-1.88
239.214	-38.74
239.431	75.95
239.648	-3.93
239.865	-5.97
240.083	0.17
240.3	-71.51
240.517	-83.8
240.735	-18.26
240.952	4.27
241.169	32.94
241.386	22.7
241.603	-5.97
241.821	4.27
242.038	-38.74
242.255	39.08
242.472	-73.56
242.689	-1.88
242.907	26.79
243.124	8.36
243.341	-42.84
243.558	39.08
243.775	-71.51
243.992	-89.94
244.209	-14.17
244.426	133.29
244.643	47.27
244.86	-30.55
245.078	-53.08
245.295	22.7
245.512	34.99
245.729	-57.17
245.946	-40.79
246.163	-5.97
246.38	-26.45
246.597	-18.26
246.814	2.22
247.031	-46.93
247.248	-63.32
247.464	-12.12
247.681	-81.75
247.898	-16.21
248.115	12.46
248.332	-69.46
248.549	-16.21
248.766	-18.26
248.983	18.6
249.2	28.84
249.417	0.17
249.633	-20.31
249.85	10.41
250.067	-61.27
250.284	12.46
250.501	12.46
250.717	-30.55
250.934	-20.31
251.151	34.99
251.368	-40.79
251.585	59.56
251.801	-14.17
252.018	4.27
252.235	6.31
252.451	-5.97
252.668	-38.74
252.885	2.22
253.102	16.55
253.318	41.13
253.535	-67.41
253.752	-112.47
253.968	65.71
254.185	-18.26
254.401	-83.8
254.618	-71.51
254.835	-1.88
255.051	51.37
255.268	26.79
255.484	-67.41
255.701	28.84
255.917	18.6
256.134	-73.56
256.351	69.8
256.567	-18.26
256.784	24.75
257	-1.88
257.217	-14.17
257.433	6.31
257.65	-61.27
257.866	10.41
258.082	39.08
258.299	-5.97
258.515	24.75
258.732	-53.08
258.948	51.37
259.165	49.32
259.381	45.23
259.597	2.22
259.814	-14.17
260.03	10.41
260.246	8.36
260.463	28.84
260.679	-20.31
260.895	18.6
261.112	16.55
261.328	-5.97
261.544	-5.97
261.761	6.31
261.977	12.46
262.193	-16.21
262.409	-3.93
262.626	-26.45
262.842	-8.02
263.058	10.41
263.274	-18.26
263.49	-40.79
263.707	20.65
263.923	-94.04
264.139	-26.45
264.355	26.79
264.571	77.99
264.787	-53.08
265.004	16.55
265.22	-8.02
265.436	-14.17
265.652	0.17
265.868	28.84
266.084	-51.03
266.3	-57.17
266.516	-100.18
266.732	51.37
266.948	-42.84
267.164	-36.69
267.38	-5.97
267.596	37.03
267.812	20.65
268.028	-1.88
268.244	10.41
268.46	28.84
268.676	41.13
268.892	-3.93
269.108	34.99
269.324	10.41
269.54	39.08
269.756	34.99
269.972	-3.93
270.188	-36.69
270.403	0.17
270.619	-34.64
270.835	51.37
271.051	10.41
271.267	22.7
271.483	-20.31
271.698	37.03
271.914	26.79
272.13	-24.4
272.346	-24.4
272.562	41.13
272.777	47.27
272.993	-36.69
273.209	28.84
273.425	8.36
273.64	-79.7
273.856	37.03
274.072	-83.8
274.287	-71.51
274.503	-40.79
274.719	-1.88
274.934	24.75
275.15	-22.36
275.366	53.42
275.581	-20.31
275.797	-94.04
276.012	22.7
276.228	-14.17
276.444	2.22
276.659	45.23
276.875	-32.6
277.09	26.79
277.306	-16.21
277.521	-20.31
277.737	-12.12
277.952	-34.64
278.168	71.85
278.383	30.89
278.599	-42.84
278.814	-38.74
279.03	-22.36
279.245	71.85
279.461	24.75
279.676	92.33
279.892	-3.93
280.107	-20.31
280.322	-12.12
280.538	-20.31
280.753	-24.4
280.969	14.51
281.184	-24.4
281.399	61.61
281.615	20.65
281.83	61.61
282.045	-3.93
282.26	-40.79
282.476	-30.55
282.691	41.13
282.906	8.36
283.122	63.66
283.337	14.51
283.552	26.79
283.767	-24.4
283.983	-8.02
284.198	0.17
284.413	0.17
284.628	-46.93
284.843	-5.97
285.058	-18.26
285.274	-53.08
285.489	39.08
285.704	28.84
285.919	8.36
286.134	43.18
286.349	4.27
286.564	-36.69
286.779	-5.97
286.995	-79.7
287.21	-77.65
287.425	-38.74
287.64	-18.26
287.855	-14.17
288.07	-30.55
288.285	-1.88
288.5	-3.93
288.715	20.65
288.93	49.32
289.145	-34.64
289.36	2.22
289.575	-61.27
289.79	-16.21
290.004	-20.31
290.219	24.75
290.434	24.75
290.649	-18.26
290.864	-12.12
291.079	12.46
291.294	57.51
291.509	49.32
291.724	55.47
291.938	12.46
292.153	4.27
292.368	12.46
292.583	59.56
292.798	30.89
293.012	-40.79
293.227	-46.93
293.442	12.46
293.657	-67.41
293.871	24.75
294.086	-1.88
294.301	12.46
294.516	10.41
294.73	84.14
294.945	-61.27
295.16	30.89
295.374	10.41
295.589	8.36
295.804	63.66
296.018	18.6
296.233	-59.22
296.447	51.37
296.662	-36.69
296.877	14.51
297.091	12.46
297.306	39.08
297.52	-8.02
297.735	-14.17
297.949	-5.97
298.164	77.99
298.378	24.75
298.593	-63.32
298.807	-18.26
299.022	-48.98
299.236	73.9
299.451	14.51
299.665	8.36
299.88	26.79
300.094	26.79
300.309	-18.26
300.523	-69.46
300.737	28.84
300.952	-26.45
301.166	26.79
301.381	98.47
301.595	-71.51
301.809	-81.75
302.024	53.42
302.238	-51.03
302.452	51.37
302.667	-53.08
302.881	26.79
303.095	45.23
303.309	-46.93
303.524	-12.12
303.738	49.32
303.952	2.22
304.166	4.27
304.381	24.75
304.595	43.18
304.809	-28.5
305.023	51.37
305.237	-22.36
305.452	-18.26
305.666	-85.84
305.88	61.61
306.094	75.95
306.308	-28.5
306.522	-51.03
306.736	-57.17
306.95	75.95
307.164	-32.6
307.379	10.41
307.593	-3.93
307.807	-67.41
308.021	98.47
308.235	18.6
308.449	-8.02
308.663	-12.12
308.877	43.18
309.091	34.99
309.305	34.99
309.519	12.46
309.733	20.65
309.947	-20.31
310.161	6.31
310.374	-8.02
310.588	14.51
310.802	-40.79
311.016	24.75
311.23	-14.17
311.444	-5.97
311.658	8.36
311.872	57.51
312.085	-14.17
312.299	63.66
312.513	57.51
312.727	55.47
312.941	-16.21
313.154	10.41
313.368	-53.08
313.582	8.36
313.796	59.56
314.009	-20.31
314.223	28.84
314.437	143.53
314.651	49.32
314.864	-28.5
315.078	-5.97
315.292	-51.03
315.505	6.31
315.719	-14.17
315.933	16.55
316.146	16.55
316.36	-16.21
316.573	-20.31
316.787	67.75
317.001	22.7
317.214	-3.93
317.428	8.36
317.641	0.17
317.855	16.55
318.068	30.89
318.282	-102.23
318.495	43.18
318.709	-24.4
318.922	-26.45
319.136	0.17
319.349	61.61
319.563	-3.93
319.776	88.23
319.99	-16.21
320.203	-12.12
320.417	22.7
320.63	10.41
320.843	45.23
321.057	30.89
321.27	-22.36
321.483	-40.79
321.697	14.51
321.91	-22.36
322.124	24.75
322.337	26.79
322.55	-14.17
322.763	2.22
322.977	-44.88
323.19	8.36
323.403	-14.17
323.617	20.65
323.83	22.7
324.043	8.36
324.256	-69.46
324.469	-18.26
324.683	32.94
324.896	-53.08
325.109	10.41
325.322	-36.69
325.535	26.79
325.748	6.31
325.962	34.99
326.175	0.17
326.388	-48.98
326.601	-16.21
326.814	34.99
327.027	24.75
327.24	106.67
327.453	69.8
327.666	-12.12
327.879	12.46
328.092	16.55
328.305	0.17
328.518	-1.88
328.731	20.65
328.944	16.55
329.157	65.71
329.37	22.7
329.583	22.7
329.796	12.46
330.009	22.7
330.222	-46.93
330.435	41.13
330.648	43.18
330.861	4.27
331.073	20.65
331.286	37.03
331.499	-16.21
331.712	-16.21
331.925	-51.03
332.138	18.6
332.35	30.89
332.563	41.13
332.776	69.8
332.989	-40.79
333.202	63.66
333.414	12.46
333.627	-53.08
333.84	39.08
334.053	-46.93
334.265	12.46
334.478	-28.5
334.691	-12.12
334.903	57.51
335.116	88.23
335.329	-36.69
335.541	37.03
335.754	49.32
335.966	57.51
336.179	45.23
336.392	28.84
336.604	43.18
336.817	41.13
337.029	-32.6
337.242	-40.79
337.454	59.56
337.667	45.23
337.88	-34.64
338.092	-3.93
338.305	-10.07
338.517	-24.4
338.729	-14.17
338.942	8.36
339.154	37.03
339.367	-44.88
339.579	8.36
339.792	-16.21
340.004	16.55
340.217	43.18
340.429	57.51
340.641	-14.17
340.854	-42.84
341.066	61.61
341.278	-42.84
341.491	-3.93
341.703	-24.4
341.915	-77.65
342.128	106.67
342.34	4.27
342.552	-30.55
342.764	41.13
342.977	26.79
343.189	28.84
343.401	8.36
343.613	12.46
343.826	34.99
344.038	65.71
344.25	14.51
344.462	16.55
344.674	39.08
344.886	-8.02
345.099	-14.17
345.311	45.23
345.523	-22.36
345.735	-22.36
345.947	37.03
346.159	-10.07
346.371	-22.36
346.583	-5.97
346.795	108.71
347.007	65.71
347.219	55.47
347.431	-22.36
347.643	14.51
347.855	73.9
348.067	55.47
348.279	-30.55
348.491	30.89
348.703	0.17
348.915	6.31
349.127	-12.12
349.339	12.46
349.551	55.47
349.763	43.18
349.975	43.18
350.187	118.95
350.399	-46.93
350.61	57.51
350.822	-51.03
351.034	0.17
351.246	-26.45
351.458	41.13
351.669	51.37
351.881	39.08
352.093	24.75
352.305	-5.97
352.517	59.56
352.728	28.84
352.94	14.51
353.152	24.75
353.363	-53.08
353.575	84.14
353.787	12.46
353.999	34.99
354.21	45.23
354.422	73.9
354.633	14.51
354.845	-3.93
355.057	12.46
355.268	47.27
355.48	32.94
355.692	-34.64
355.903	28.84
356.115	-38.74
356.326	-67.41
356.538	43.18
356.749	47.27
356.961	65.71
357.172	8.36
357.384	8.36
357.595	-14.17
357.807	-42.84
358.018	-12.12
358.23	63.66
358.441	26.79
358.653	-20.31
358.864	0.17
359.075	45.23
359.287	28.84
359.498	41.13
359.709	-1.88
359.921	-42.84
360.132	71.85
360.344	-26.45
360.555	-32.6
360.766	47.27
360.977	-32.6
361.189	82.09
361.4	34.99
361.611	12.46
361.823	-5.97
362.034	28.84
362.245	-32.6
362.456	75.95
362.667	34.99
362.879	77.99
363.09	-55.12
363.301	43.18
363.512	49.32
363.723	28.84
363.935	-40.79
364.146	65.71
364.357	-3.93
364.568	53.42
364.779	-24.4
364.99	53.42
365.201	-57.17
365.412	28.84
365.623	-51.03
365.834	61.61
366.045	-36.69
366.256	45.23
366.467	-5.97
366.678	18.6
366.889	51.37
367.1	8.36
367.311	47.27
367.522	34.99
367.733	-14.17
367.944	69.8
368.155	59.56
368.366	22.7
368.577	92.33
368.788	26.79
368.999	10.41
369.209	41.13
369.42	-22.36
369.631	75.95
369.842	-16.21
370.053	59.56
370.264	-12.12
370.474	2.22
370.685	63.66
370.896	77.99
371.107	28.84
371.317	65.71
371.528	14.51
371.739	22.7
371.95	67.75
372.16	-12.12
372.371	30.89
372.582	51.37
372.792	26.79
373.003	-12.12
373.214	55.47
373.424	-18.26
373.635	-36.69
373.846	71.85
374.056	18.6
374.267	32.94
374.477	34.99
374.688	-73.56
374.898	-36.69
375.109	55.47
375.319	-24.4
375.53	30.89
375.74	-5.97
375.951	-26.45
376.161	24.75
376.372	45.23
376.582	55.47
376.793	39.08
377.003	49.32
377.214	2.22
377.424	6.31
377.635	24.75
377.845	-36.69
378.055	43.18
378.266	-1.88
378.476	0.17
378.686	4.27
378.897	24.75
379.107	32.94
379.317	37.03
379.528	-40.79
379.738	75.95
379.948	10.41
380.158	67.75
380.369	-18.26
380.579	6.31
380.789	-53.08
380.999	10.41
381.21	-10.07
381.42	43.18
381.63	-26.45
381.84	16.55
382.05	45.23
382.261	51.37
382.471	4.27
382.681	30.89
382.891	127.14
383.101	-10.07
383.311	-10.07
383.521	-24.4
383.731	-53.08
383.941	28.84
384.151	10.41
384.361	-67.41
384.571	8.36
384.781	14.51
384.991	57.51
385.201	92.33
385.411	-5.97
385.621	26.79
385.831	63.66
386.041	26.79
386.251	18.6
386.461	-1.88
386.671	51.37
386.881	51.37
387.091	47.27
387.301	123.05
387.511	2.22
387.72	53.42
387.93	6.31
388.14	43.18
388.35	-14.17
388.56	45.23
388.769	43.18
388.979	94.38
389.189	100.52
389.399	71.85
389.609	45.23
389.818	18.6
390.028	92.33
390.238	26.79
390.447	30.89
390.657	116.9
390.867	-1.88
391.076	-61.27
391.286	88.23
391.496	139.43
391.705	10.41
391.915	71.85
392.125	37.03
392.334	32.94
392.544	71.85
392.753	47.27
392.963	127.14
393.172	51.37
393.382	4.27
393.591	2.22
393.801	149.67
394.01	69.8
394.22	90.28
394.429	30.89
394.639	-38.74
394.848	47.27
395.058	80.04
395.267	121
395.477	94.38
395.686	102.57
395.895	98.47
396.105	84.14
396.314	61.61
396.524	32.94
396.733	108.71
396.942	166.06
397.152	65.71
397.361	80.04
397.57	71.85
397.78	121
397.989	84.14
398.198	80.04
398.407	98.47
398.617	32.94
398.826	86.19
399.035	86.19
399.244	100.52
399.453	100.52
399.663	114.86
399.872	116.9
400.081	37.03
400.29	184.49
400.499	49.32
400.708	90.28
400.917	118.95
401.127	161.96
401.336	157.86
401.545	147.62
401.754	147.62
401.963	104.62
402.172	147.62
402.381	129.19
402.59	57.51
402.799	71.85
403.008	77.99
403.217	149.67
403.426	180.39
403.635	118.95
403.844	92.33
404.053	282.79
404.262	82.09
404.471	196.78
404.68	172.2
404.888	80.04
405.097	123.05
405.306	178.34
405.515	194.73
405.724	92.33
405.933	114.86
406.142	155.82
406.35	157.86
406.559	231.59
406.768	137.38
406.977	200.87
407.185	262.31
407.394	307.37
407.603	254.12
407.812	276.65
408.02	231.59
408.229	233.64
408.438	247.97
408.646	243.88
408.855	233.64
409.064	272.55
409.272	321.7
409.481	368.81
409.69	237.74
409.898	284.84
410.107	340.13
410.315	391.33
410.524	333.99
410.733	438.44
410.941	395.43
411.15	413.86
411.358	481.44
411.567	489.64
411.775	546.98
411.984	495.78
412.192	526.5
412.401	467.11
412.609	598.18
412.818	569.51
413.026	663.71
413.234	667.81
413.443	680.1
413.651	647.33
413.86	694.43
414.068	778.4
414.276	721.06
414.485	831.65
414.693	712.86
414.901	903.32
415.11	825.5
415.318	841.89
415.526	997.53
415.734	962.72
415.943	1044.63
416.151	1042.59
416.359	1065.11
416.567	1091.74
416.776	1187.99
416.984	1243.29
417.192	1282.2
417.4	1274.01
417.608	1243.29
417.817	1245.34
418.025	1446.04
418.233	1421.46
418.441	1538.2
418.649	1548.44
418.857	1611.92
419.065	1747.09
419.273	1616.02
419.481	1683.6
419.689	1884.3
419.897	1964.17
420.105	1951.88
420.313	1931.41
420.521	2107.53
420.729	2070.67
420.937	2232.46
421.145	2369.67
421.353	2373.77
421.561	2613.38
421.769	2572.42
421.977	2717.83
422.185	2723.97
422.393	2883.71
422.601	2885.76
422.809	3059.84
423.017	3037.31
423.224	3231.87
423.432	3242.11
423.64	3403.89
423.848	3618.93
424.056	3541.11
424.263	3784.82
424.471	3729.52
424.679	3741.81
424.887	4079.72
425.094	4130.92
425.302	4259.95
425.51	4259.95
425.718	4517.99
425.925	4415.59
426.133	4841.57
426.341	4937.82
426.548	5247.07
426.756	5245.02
426.964	5210.2
427.171	5429.34
427.379	5714
427.586	5810.26
427.794	6115.41
428.001	6105.17
428.209	6658.12
428.417	6420.55
428.624	6891.59
428.832	7045.18
429.039	6809.67
429.247	6893.63
429.454	7694.39
429.662	8063.02
429.869	7569.46
430.076	8183.85
430.284	7942.19
430.491	8103.98
430.699	8591.4
430.906	8757.29
431.114	9003.04
431.321	9281.57
431.528	9494.55
431.736	10027.03
431.943	10280.97
432.15	10162.19
432.358	10332.17
432.565	10831.88
432.772	10854.41
432.979	11368.45
433.187	11360.25
433.394	11401.21
433.601	12312.56
433.808	12535.79
434.016	12193.78
434.223	13025.25
434.43	13479.9
434.637	13391.84
434.844	14045.14
435.052	14329.81
435.259	14307.28
435.466	14315.47
435.673	14417.87
435.88	15116.23
436.087	15998.9
436.294	15974.33
436.501	15583.16
436.708	15943.61
436.915	16334.77
437.122	17035.17
437.329	17002.41
437.537	17751.96
437.743	18122.65
437.95	17758.11
438.157	18933.64
438.364	19611.52
438.571	19808.12
438.778	19654.53
438.985	21489.51
439.192	20733.81
439.399	21213.03
439.606	20707.18
439.813	21989.21
440.02	23125.83
440.227	22601.55
440.433	22781.78
440.64	23236.42
440.847	23445.32
441.054	23523.14
441.261	25278.25
441.467	24946.48
441.674	25509.67
441.881	26416.92
442.088	26537.75
442.294	26181.4
442.501	26705.68
442.708	27639.56
442.914	28419.83
443.121	30037.73
443.328	28729.08
443.534	30588.63
443.741	30265.05
443.948	29611.75
444.154	31649.48
444.361	31430.35
444.568	32034.5
444.774	31545.03
444.981	32202.43
445.187	33404.59
445.394	34186.91
445.6	34143.91
445.807	37406.32
446.013	35538.57
446.22	36353.66
446.426	37539.44
446.633	37604.97
446.839	39437.9
447.046	37938.79
447.252	39628.37
447.459	39822.92
447.665	39700.04
447.871	41174.58
448.078	43169.3
448.284	40914.49
448.491	42104.36
448.697	43480.6
448.903	44547.59
449.11	44400.13
449.316	43871.76
449.522	44361.22
449.728	45575.67
449.935	45430.26
450.141	45762.03
450.347	47007.2
450.553	45344.25
450.76	45764.08
450.966	47545.81
451.172	46933.47
451.378	47830.48
451.584	47179.23
451.791	48090.57
451.997	48125.39
452.203	48920
452.409	48956.86
452.615	48014.8
452.821	46818.78
453.027	45995.5
453.233	48795.07
453.44	46544.36
453.646	46986.72
453.852	47136.22
454.058	47975.89
454.264	46278.12
454.47	47105.5
454.676	46298.6
454.882	48176.59
455.088	43982.35
455.294	44453.38
455.5	44969.47
455.705	45405.69
455.911	43746.83
456.117	42878.49
456.323	42145.32
456.529	39851.59
456.735	41637.42
456.941	40797.76
457.147	40095.3
457.352	38792.79
457.558	38372.96
457.764	38284.9
457.97	37893.74
458.176	36675.2
458.381	36759.16
458.587	34795.16
458.793	34633.37
458.999	32865.97
459.204	35298.96
459.41	34512.54
459.616	31905.48
459.821	31930.05
460.027	32136.9
460.233	31508.17
460.438	29830.88
460.644	30514.91
460.85	28536.57
461.055	28581.62
461.261	28399.35
461.466	26562.33
461.672	25419.56
461.878	27381.51
462.083	25104.17
462.289	24977.2
462.494	24297.27
462.7	23531.33
462.905	22710.1
463.111	23942.97
463.316	23834.43
463.522	23066.44
463.727	22925.13
463.932	23113.55
464.138	22873.93
464.343	22818.64
464.549	22368.09
464.754	23230.28
464.959	23121.74
465.165	22558.55
465.37	21888.86
465.575	20995.95
465.781	22167.38
465.986	22056.79
466.191	21458.79
466.397	20967.27
466.602	20219.77
466.807	20629.36
467.012	20604.78
467.218	20348.79
467.423	20445.04
467.628	20672.37
467.833	21188.46
468.038	20496.24
468.244	19945.34
468.449	20696.94
468.654	19953.53
468.859	19976.06
469.064	19642.24
469.269	19117.96
469.474	19177.35
469.679	19697.53
469.885	18876.3
470.09	19214.21
470.295	19150.73
470.5	18468.75
470.705	18810.76
470.91	18175.89
471.115	18048.92
471.32	18515.86
471.525	17866.65
471.73	17825.69
471.935	17788.83
472.139	17186.72
472.344	17131.43
472.549	17074.09
472.754	16891.82
472.959	16566.19
473.164	16306.1
473.369	16215.99
473.574	16740.27
473.778	16555.95
473.983	16385.97
474.188	16132.02
474.393	15478.72
474.598	15677.37
474.802	15361.98
475.007	15353.79
475.212	15474.62
475.417	14553.04
475.621	14532.56
475.826	14692.3
476.031	14745.55
476.235	14286.8
476.44	14528.46
476.645	14211.03
476.849	14039
477.054	13840.34
477.259	13739.99
477.463	13826.01
477.668	13438.94
477.872	13533.15
478.077	13408.22
478.282	13080.55
478.486	12972
478.691	12988.39
478.895	12855.27
479.1	12808.17
479.304	12703.72
479.509	12214.26
479.713	12658.67
479.918	12384.24
480.122	12214.26
480.326	12273.65
480.531	12318.7
480.735	12146.67
480.94	12025.84
481.144	12330.99
481.348	11737.08
481.553	11962.36
481.757	11837.43
481.961	11991.03
482.166	12132.34
482.37	11976.69
482.574	11694.07
482.778	11988.98
482.983	12062.71
483.187	11880.44
483.391	12064.75
483.595	11794.42
483.8	11511.8
484.004	11907.06
484.208	12142.58
484.412	11773.94
484.616	11794.42
484.821	11661.3
485.025	11556.86
485.229	11825.14
485.433	11722.74
485.637	12005.36
485.841	11556.86
486.045	11622.39
486.249	11765.75
486.453	11614.2
486.657	11896.82
486.861	11943.92
487.065	11616.25
487.269	11560.95
487.473	11577.34
487.677	11845.62
487.881	11952.12
488.085	11634.68
488.289	11741.18
488.493	11802.61
488.697	11655.16
488.901	11898.87
489.105	11751.42
489.309	11755.51
489.512	11935.73
489.716	11884.53
489.92	11804.66
490.124	11704.31
490.328	12081.14
490.531	11878.39
490.735	11988.98
490.939	12025.84
491.143	11751.42
491.346	11931.64
491.55	12204.02
491.754	11939.83
491.958	12417.01
492.161	12292.08
492.365	12584.94
492.569	12314.61
492.772	12394.48
492.976	12679.15
493.18	12593.13
493.383	12830.69
493.587	12806.12
493.79	12980.2
493.994	12691.43
494.197	12963.81
494.401	12912.61
494.605	12812.26
494.808	13293.54
495.012	13150.18
495.215	13262.82
495.419	13670.36
495.622	13395.93
495.825	13539.29
496.029	13643.74
496.232	13606.88
496.436	13791.19
496.639	14047.19
496.843	14032.85
497.046	14407.63
497.249	14436.3
497.453	14587.85
497.656	14675.91
497.859	14987.21
498.063	14878.66
498.266	15058.88
498.469	15273.92
498.673	15542.21
498.876	15593.4
499.079	15855.54
499.282	15740.86
499.485	16105.4
499.689	16320.43
499.892	16408.5
500.095	16469.94
500.298	16910.25
500.501	16871.34
500.705	17305.51
500.908	17385.38
501.111	17518.5
501.314	17584.03
501.517	17541.02
501.72	18075.54
501.923	17889.18
502.126	18544.53
502.329	18741.13
502.532	18704.27
502.735	18732.94
502.938	19195.78
503.141	19105.67
503.344	19691.39
503.547	19437.44
503.75	20135.8
503.953	20369.27
504.156	20369.27
504.359	20537.2
504.562	20584.3
504.765	21153.64
504.968	21313.38
505.17	21157.74
505.373	21284.71
505.576	21815.13
505.779	22275.93
505.982	22069.08
506.185	22638.42
506.387	22798.16
506.59	23037.77
506.793	23476.04
506.996	23105.35
507.198	23951.17
507.401	23691.07
507.604	24141.63
507.807	24721.2
508.009	24606.52
508.212	24733.49
508.415	25179.95
508.617	25095.98
508.82	25800.48
509.022	25241.39
509.225	26019.61
509.428	26160.92
509.63	25851.68
509.833	26613.52
510.035	27086.61
510.238	27100.94
510.44	27526.92
510.643	28055.29
510.845	28333.82
511.048	27965.18
511.25	28331.77
511.453	28342.01
511.655	29812.45
511.858	29093.61
512.06	29380.33
512.262	29499.11
512.465	29593.32
512.667	30013.15
512.87	30222.05
513.072	30721.75
513.274	31098.58
513.477	31104.72
513.679	31553.23
513.881	31930.05
514.084	32319.17
514.286	32130.75
514.488	32511.67
514.69	33083.06
514.893	33070.77
515.095	33480.36
515.297	33906.34
515.499	34027.17
515.701	34432.67
515.904	34586.27
516.106	35174.03
516.308	35169.94
516.51	35675.79
516.712	35579.53
516.914	36089.48
517.116	36433.53
517.318	36527.74
517.52	36855.42
517.722	36750.97
517.925	37484.14
518.127	37553.77
518.329	37955.18
518.531	37844.59
518.733	38682.2
518.935	38571.61
519.136	38385.25
519.338	39521.87
519.54	39284.31
519.742	40117.83
519.944	39726.67
520.146	40732.22
520.348	40537.66
520.55	40863.29
520.752	41117.24
520.954	41569.84
521.155	41446.96
521.357	42225.19
521.559	42446.37
521.761	42690.08
521.963	42685.98
522.164	42800.67
522.366	43286.04
522.568	43175.45
522.77	43900.43
522.971	44105.23
523.173	43750.93
523.375	44342.79
523.576	44568.07
523.778	44316.17
523.98	45155.83
524.181	45088.25
524.383	45110.78
524.584	45532.66
524.786	46056.94
524.988	45692.4
525.189	46331.37
525.391	46650.85
525.592	46243.31
525.794	46601.7
525.995	46466.53
526.197	46872.03
526.398	47029.73
526.6	47564.24
526.801	47173.08
527.003	47371.74
527.204	47607.25
527.406	48016.85
527.607	48018.89
527.808	48491.97
528.01	47478.23
528.211	48086.48
528.412	48784.83
528.614	48440.78
528.815	48725.44
529.016	48426.44
529.218	48584.13
529.419	48745.92
529.62	48592.33
529.822	48539.08
530.023	48883.14
530.224	48702.92
530.425	48889.28
530.626	48334.28
530.828	48915.9
531.029	49976.75
531.23	48745.92
531.431	49022.4
531.632	49384.89
531.833	49286.59
532.035	49583.54
532.236	49266.11
532.437	49606.07
532.638	49388.99
532.839	49075.65
533.04	49632.69
533.241	49003.97
533.442	49630.65
533.643	49151.42
533.844	49571.25
534.045	49491.38
534.246	49227.2
534.447	49855.92
534.648	49591.73
534.849	49685.94
535.05	49155.52
535.251	49382.84
535.451	49163.71
535.652	49448.38
535.853	49468.86
536.054	49452.47
536.255	49565.11
536.456	49069.5
536.657	49999.28
536.857	49094.08
537.058	49475
537.259	49755.57
537.46	49677.75
537.66	49214.91
537.861	49395.13
538.062	48956.86
538.263	49477.05
538.463	49339.83
538.664	49356.22
538.865	49655.22
539.065	49931.7
539.266	49331.64
539.466	49628.6
539.667	48870.85
539.868	48967.1
540.068	48862.66
540.269	48754.11
540.469	49462.71
540.67	49059.26
540.87	48946.62
541.071	49313.21
541.271	49171.9
541.472	48993.73
541.672	48881.09
541.873	48825.79
542.073	48264.65
542.274	48981.44
542.474	48897.47
542.675	48487.88
542.875	49077.69
543.075	48801.22
543.276	48365
543.476	48825.79
543.676	48453.06
543.877	48610.76
544.077	48901.57
544.277	48682.44
544.478	48473.54
544.678	48698.82
544.878	48391.62
545.078	48418.25
545.279	48235.98
545.479	48563.65
545.679	48713.16
545.879	48285.13
546.079	47836.62
546.28	48430.54
546.48	47994.32
546.68	48197.07
546.88	48481.73
547.08	48201.16
547.28	48072.14
547.48	47613.4
547.68	48156.11
547.88	48154.06
548.081	48252.36
548.281	48182.73
548.481	48143.82
548.681	48768.45
548.881	48086.48
549.081	47971.79
549.28	47826.38
549.48	48197.07
549.68	48072.14
549.88	48375.24
550.08	47738.32
550.28	47943.12
550.48	47742.42
550.68	48190.92
550.88	47388.12
551.08	47416.79
551.279	47963.6
551.479	47279.58
551.679	47506.9
551.879	48129.48
552.079	47670.74
552.278	47541.72
552.478	47551.96
552.678	47771.09
552.878	48027.09
553.077	47195.61
553.277	46898.66
553.477	47773.14
553.676	47365.59
553.876	47394.26
554.076	47355.35
554.275	47246.81
554.475	47046.11
554.674	47400.41
554.874	46593.51
555.074	47056.35
555.273	47281.63
555.473	47109.6
555.672	46779.87
555.872	46777.82
556.071	47037.92
556.271	47328.73
556.47	46956
556.67	46656.99
556.869	46704.1
557.068	46960.09
557.268	46515.68
557.467	47003.1
557.667	46532.07
557.866	46630.37
558.065	46491.11
558.265	46607.84
558.464	46253.54
558.663	46964.19
558.863	46167.53
559.062	46757.35
559.261	45817.33
559.461	46290.41
559.66	45970.93
559.859	45884.91
560.058	45716.98
560.258	45915.63
560.457	45284.86
560.656	45852.14
560.855	45749.74
561.054	45934.06
561.253	45475.32
561.453	45733.36
561.652	45614.58
561.851	45602.29
562.05	45811.18
562.249	45708.79
562.448	45829.62
562.647	45413.88
562.846	45170.17
563.045	45237.75
563.244	44809.73
563.443	45471.22
563.642	44920.32
563.841	44901.89
564.04	44617.22
564.239	45121.02
564.438	44318.21
564.637	44645.89
564.836	45039.1
565.035	44369.41
565.234	44447.24
565.432	44584.45
565.631	44129.8
565.83	44656.13
566.029	44035.59
566.228	44287.49
566.427	44013.07
566.625	43855.37
566.824	43398.68
567.023	43879.95
567.222	42974.75
567.42	44144.14
567.619	43683.34
567.818	43505.17
568.016	43429.4
568.215	43204.12
568.414	43216.41
568.612	43478.55
568.811	42917.4
569.01	43226.65
569.208	42864.16
569.407	42925.6
569.605	42456.61
569.804	42677.79
570.002	42503.71
570.201	42450.47
570.4	42403.36
570.598	42151.46
570.797	41856.56
570.995	42290.73
571.193	41268.79
571.392	42192.42
571.59	41944.62
571.789	41657.9
571.987	41563.7
572.186	41696.81
572.384	41449.01
572.582	41567.79
572.781	41455.15
572.979	40883.77
573.177	41403.95
573.376	41293.36
573.574	40887.87
573.772	40924.73
573.971	40697.41
574.169	41363
574.367	40347.2
574.565	40783.42
574.763	40441.41
574.962	40652.35
575.16	39896.65
575.358	40205.89
575.556	39810.64
575.754	40357.44
575.952	39714.38
576.151	40291.91
576.349	39695.95
576.547	39597.65
576.745	39757.39
576.943	39863.88
577.141	39640.65
577.339	39448.14
577.537	39245.4
577.735	39304.79
577.933	38946.39
578.131	39396.95
578.329	38727.26
578.527	38598.24
578.725	38671.96
578.923	38932.06
579.121	38528.61
579.319	38493.79
579.516	38495.84
579.714	38184.55
579.912	38358.63
580.11	38143.59
580.308	38377.06
580.506	37746.28
580.704	37437.04
580.901	38192.74
581.099	38020.71
581.297	37744.23
581.495	37533.29
581.692	37719.66
581.89	37115.51
582.088	37375.6
582.285	36796.03
582.483	37320.31
582.681	37111.41
582.878	36755.07
583.076	36517.5
583.274	36949.62
583.471	36507.26
583.669	36632.19
583.866	36284.03
584.064	36505.21
584.262	36177.54
584.459	36460.16
584.657	35825.29
584.854	35813
585.052	35366.54
585.249	35800.71
585.447	35716.75
585.644	35370.64
585.841	35380.88
586.039	35657.35
586.236	35100.31
586.434	35012.24
586.631	34866.84
586.828	35163.79
587.026	35161.75
587.223	34549.4
587.42	34604.7
587.618	34907.8
587.815	34340.51
588.012	34479.77
588.21	34238.11
588.407	34784.92
588.604	34219.68
588.801	34354.85
588.999	33998.5
589.196	33791.66
589.393	33951.4
589.59	33625.77
589.787	33881.77
589.984	33717.93
590.182	33316.53
590.379	33654.44
590.576	33341.1
590.773	33560.23
590.97	33064.63
591.167	33042.1
591.364	32667.32
591.561	32997.04
591.758	32659.13
591.955	32583.35
592.152	32630.46
592.349	32417.47
592.546	32206.53
592.743	32585.4
592.94	31950.53
593.137	32343.74
593.334	32120.51
593.531	31928
593.727	31973.06
593.924	31821.51
594.121	31422.16
594.318	31885
594.515	31354.57
594.712	31626.95
594.908	31127.25
595.105	31487.69
595.302	30828.24
595.499	30953.17
595.696	30869.2
595.892	30557.91
596.089	30820.05
596.286	30609.11
596.482	30699.22
596.679	30463.71
596.876	30533.34
597.072	30273.24
597.269	30162.65
597.466	30209.76
597.662	30080.74
597.859	30191.33
598.055	29882.08
598.252	29380.33
598.448	30097.12
598.645	29597.42
598.841	29462.25
599.038	29384.43
599.234	29320.94
599.431	29286.12
599.627	29058.8
599.824	29179.63
600.02	28645.11
600.217	28983.02
600.413	28671.73
600.609	28716.79
600.806	28348.15
601.002	28722.93
601.198	28530.42
601.395	28305.15
601.591	28081.92
601.787	28368.63
601.984	28043.01
602.18	28421.88
602.376	27565.83
602.572	28137.21
602.769	28094.21
602.965	27830.02
603.161	27571.97
603.357	27893.51
603.553	27168.52
603.75	27531.01
603.946	27268.87
604.142	27361.03
604.338	26812.18
604.534	27033.36
604.73	26693.4
604.926	27041.55
605.122	26898.19
605.318	26648.34
605.514	26474.26
605.71	26527.51
605.906	26631.96
606.102	26568.47
606.298	26205.98
606.494	26638.1
606.69	26408.73
606.886	26332.95
607.082	25896.74
607.278	26445.59
607.474	25784.1
607.67	25923.36
607.866	25571.11
608.062	26150.68
608.257	25837.34
608.453	25657.12
608.649	25536.29
608.845	25675.55
609.041	25677.6
609.236	25304.87
609.432	25423.65
609.628	25411.37
609.824	25249.58
610.019	25065.26
610.215	25515.81
610.411	25265.96
610.606	25198.38
610.802	24917.81
610.998	24659.76
611.193	25220.91
611.389	24661.81
611.584	24766.26
611.78	24809.26
611.976	24952.62
612.171	24577.84
612.367	24508.21
612.562	24864.56
612.758	24532.79
612.953	24483.64
613.149	24508.21
613.344	24332.09
613.539	24530.74
613.735	24248.12
613.93	24520.5
614.126	24254.26
614.321	24352.57
614.517	24192.83
614.712	24016.7
614.907	23865.15
615.103	24289.08
615.298	23779.14
615.493	24323.9
615.688	23531.33
615.884	24209.21
616.079	23711.55
616.274	23557.96
616.47	23590.72
616.665	23871.29
616.86	23430.98
617.055	23416.65
617.25	23224.14
617.445	23738.18
617.641	23035.72
617.836	23402.31
618.031	22921.04
618.226	22943.56
618.421	22945.61
618.616	23394.12
618.811	22441.81
619.006	23584.58
619.201	22447.96
619.396	22867.79
619.591	22163.29
619.786	22394.71
619.981	22296.41
620.176	22622.03
620.371	21927.77
620.566	22163.29
620.761	21960.54
620.956	22187.86
621.151	21868.38
621.346	21831.52
621.541	21608.29
621.735	21735.26
621.93	21460.84
622.125	21323.62
622.32	21184.36
622.515	21149.54
622.709	20766.57
622.904	21122.92
623.099	20891.5
623.294	20981.61
623.488	20406.13
623.683	20606.83
623.878	20182.9
624.072	20496.24
624.267	20309.88
624.462	20004.73
624.656	20115.32
624.851	19746.69
625.046	19351.43
625.24	19609.47
625.435	19480.45
625.629	19509.12
625.824	19408.77
626.018	19242.89
626.213	18864.01
626.407	19154.82
626.602	18915.21
626.796	18810.76
626.991	18673.55
627.185	18710.41
627.38	18558.86
627.574	18153.37
627.768	18038.68
627.963	18237.33
628.157	17934.23
628.352	18163.61
628.546	17907.61
628.74	18030.49
628.935	17643.42
629.129	17653.66
629.323	17498.02
629.517	17526.69
629.712	17346.47
629.906	17229.73
630.1	16895.91
630.294	17258.4
630.489	16836.52
630.683	17117.09
630.877	16732.08
631.071	16674.73
631.265	16586.67
631.459	16445.36
631.653	16412.59
631.848	16433.07
632.042	16273.33
632.236	16175.03
632.43	16011.19
632.624	16164.79
632.818	15747
633.012	15888.31
633.206	15847.35
633.4	15742.91
633.594	15585.21
633.788	15767.48
633.982	15462.33
634.176	15331.26
634.369	15257.54
634.563	15083.46
634.757	15069.12
634.951	15044.55
635.145	15019.97
635.339	15054.79
635.533	14647.24
635.726	14811.08
635.92	14651.34
636.114	14639.05
636.308	14677.96
636.501	14467.02
636.695	14499.79
636.889	14239.7
637.083	14139.35
637.276	14176.21
637.47	13993.94
637.664	13694.94
637.857	13989.85
638.051	13905.88
638.244	13531.1
638.438	13696.99
638.632	13592.54
638.825	13580.25
639.019	13529.05
639.212	13336.54
639.406	13561.82
639.599	13365.21
639.793	13377.5
639.986	13139.94
640.18	13217.76
640.373	13060.07
640.567	12961.76
640.76	12988.39
640.954	12748.78
641.147	12877.8
641.34	12718.06
641.534	12705.77
641.727	12378.09
641.92	12402.67
642.114	12347.37
642.307	12378.09
642.5	12214.26
642.694	12077.04
642.887	11984.88
643.08	12036.08
643.273	11919.35
643.467	11972.6
643.66	11778.04
643.853	11851.77
644.046	11481.08
644.239	11472.89
644.432	11677.69
644.626	11429.88
644.819	11415.55
645.012	11393.02
645.205	11315.2
645.398	11327.49
645.591	11405.31
645.784	11087.87
645.977	11061.25
646.17	10985.48
646.363	10790.92
646.556	10891.27
646.749	10971.14
646.942	10903.56
647.135	10745.86
647.328	10645.51
647.521	10672.14
647.714	10469.39
647.907	10461.2
648.099	10442.76
648.292	10561.55
648.485	10426.38
648.678	10235.92
648.871	10158.1
649.064	10182.67
649.256	10291.21
649.449	10086.42
649.642	10225.68
649.835	9938.96
650.027	9785.37
650.22	9783.32
650.413	9768.98
650.605	9832.47
650.798	9658.39
650.991	9646.1
651.183	9609.24
651.376	9547.8
651.568	9551.9
651.761	9375.77
651.954	9424.92
652.146	9269.28
652.339	9289.76
652.531	9359.39
652.724	9203.74
652.916	8896.55
653.109	9123.87
653.301	8917.03
653.494	8945.7
653.686	8900.64
653.879	9044
654.071	8824.87
654.263	8704.04
654.456	8642.6
654.648	8765.48
654.84	8640.55
655.033	8689.7
655.225	8532.01
655.417	8581.16
655.61	8572.97
655.802	8409.13
655.994	8304.68
656.186	8364.08
656.379	8382.51
656.571	8349.74
656.763	8122.41
656.955	8089.65
657.148	8220.72
657.34	8251.44
657.532	8067.12
657.724	8042.54
657.916	8282.16
658.108	7690.29
658.3	8149.04
658.492	7901.23
658.684	7784.5
658.876	7700.53
659.068	7729.2
659.26	7692.34
659.452	7630.9
659.644	7725.11
659.836	7475.26
660.028	7508.02
660.22	7438.39
660.412	7528.5
660.604	7411.77
660.796	7440.44
660.988	7385.15
661.18	7170.11
661.372	7211.07
661.563	7213.12
661.755	7110.72
661.947	7272.51
662.139	7260.22
662.331	6969.41
662.522	6961.22
662.714	7057.47
662.906	6821.95
663.097	6936.64
663.289	6907.97
663.481	6875.2
663.673	6758.47
663.864	6797.38
664.056	6547.53
664.247	6672.45
664.439	6502.47
664.631	6565.96
664.822	6594.63
665.014	6586.44
665.205	6629.45
665.397	6416.46
665.588	6643.78
665.78	6525
665.971	6432.84
666.163	6338.63
666.354	6314.06
666.546	6232.14
666.737	6223.95
666.929	6246.48
667.12	6232.14
667.311	6160.46
667.503	5926.99
667.694	6152.27
667.885	5906.51
668.077	6041.68
668.268	6078.54
668.459	5914.7
668.651	5976.14
668.842	5965.9
669.033	5908.56
669.224	5982.29
669.416	5972.05
669.607	5875.79
669.798	5726.29
669.989	5898.32
670.18	5830.74
670.371	5750.87
670.563	5734.48
670.754	5732.44
670.945	5566.55
671.136	5646.42
671.327	5548.12
671.518	5544.02
671.709	5541.97
671.9	5617.75
672.091	5584.98
672.282	5429.34
672.473	5396.57
672.664	5257.31
672.855	5423.19
673.046	5513.3
673.237	5392.47
673.428	5429.34
673.619	5269.59
673.809	5263.45
674	5118.04
674.191	5179.48
674.382	5212.25
674.573	5156.96
674.764	5218.4
674.954	5152.86
675.145	5019.74
675.336	5064.8
675.527	5273.69
675.717	5130.33
675.908	5032.03
676.099	5064.8
676.289	4956.26
676.48	4997.21
676.671	5177.44
676.861	4931.68
677.052	4980.83
677.243	4847.71
677.433	4757.6
677.624	5093.47
677.814	4866.14
678.005	4864.1
678.195	4804.71
678.386	4761.7
678.576	4786.27
678.767	4835.42
678.957	4860
679.148	4773.99
679.338	4819.04
679.529	4792.42
679.719	4823.14
679.909	4806.75
680.1	4733.03
680.29	4698.21
680.481	4704.35
680.671	4683.88
680.861	4671.59
681.052	4753.51
681.242	4520.04
681.432	4690.02
681.622	4520.04
681.813	4526.18
682.003	4450.41
682.193	4589.67
682.383	4710.5
682.573	4581.48
682.764	4413.54
682.954	4540.52
683.144	4524.13
683.334	4438.12
683.524	4399.21
683.714	4554.85
683.904	4245.61
684.094	4401.26
684.284	4378.73
684.474	4499.56
684.664	4247.66
684.854	4370.54
685.044	4345.96
685.234	4272.23
685.424	4296.81
685.614	4208.75
685.804	4210.79
685.994	4259.95
686.184	4284.52
686.374	4237.42
686.564	4188.27
686.753	4255.85
686.943	4092.01
687.133	4180.07
687.323	4120.68
687.513	4141.16
687.702	4137.07
687.892	3989.61
688.082	3991.66
688.272	4012.14
688.461	4020.33
688.651	4069.48
688.841	3846.26
689.03	3944.56
689.22	3932.27
689.41	3813.49
689.599	3944.56
689.789	3922.03
689.979	3762.29
690.168	3919.98
690.358	3745.91
690.547	3924.08
690.737	3881.07
690.926	3770.48
691.116	3694.71
691.305	3739.76
691.495	3678.32
691.684	3672.18
691.874	3700.85
692.063	3700.85
692.252	3735.67
692.442	3582.07
692.631	3631.22
692.82	3659.89
693.01	3512.44
693.199	3543.16
693.388	3553.4
693.578	3592.31
693.767	3471.48
693.956	3491.96
694.146	3491.96
694.335	3465.33
694.524	3412.09
694.713	3545.2
694.902	3514.49
695.092	3588.21
695.281	3483.77
695.47	3350.65
695.659	3457.14
695.848	3362.94
696.037	3428.47
696.226	3459.19
696.415	3362.94
696.604	3287.16
696.793	3301.5
696.982	3403.89
697.171	3428.47
697.36	3336.31
697.549	3301.5
697.738	3319.93
697.927	3334.26
698.116	3391.61
698.305	3453.05
698.494	3235.96
698.683	3270.78
698.872	3375.22
699.061	3360.89
699.25	3252.35
699.438	3221.63
699.627	3420.28
699.816	3266.68
700.005	3373.18
700.193	3276.92
700.382	3238.01
700.571	3307.64
700.76	3283.06
700.948	3207.29
701.137	3268.73
701.326	3254.39
701.514	3215.48
701.703	3172.47
701.892	3297.4
702.08	3240.06
702.269	3199.1
702.457	3186.81
702.646	3225.72
702.834	3266.68
703.023	3252.35
703.212	3242.11
703.4	3276.92
703.589	3270.78
703.777	3195
703.965	3090.56
704.154	3141.75
704.342	3188.86
704.531	3285.11
704.719	3133.56
704.907	3266.68
705.096	3311.74
705.284	3164.28
705.472	3160.19
705.661	3326.07
705.849	3233.91
706.037	3233.91
706.226	3160.19
706.414	3227.77
706.602	3106.94
706.79	3274.87
706.979	3068.03
707.167	3141.75
707.355	3199.1
707.543	3080.32
707.731	3106.94
707.919	3065.98
708.107	3082.36
708.296	3053.69
708.484	3022.97
708.672	3125.37
708.86	3178.62
709.048	3082.36
709.236	3078.27
709.424	3137.66
709.612	3147.9
709.8	3090.56
709.988	3135.61
710.176	3033.21
710.364	3068.03
710.551	3084.41
710.739	3076.22
710.927	3108.99
711.115	3008.64
711.303	3051.64
711.491	3016.83
711.679	2990.21
711.866	3061.88
712.054	3043.45
712.242	3016.83
712.43	3074.17
712.617	2951.29
712.805	2930.81
712.993	2988.16
713.181	2875.52
713.368	3033.21
713.556	3037.31
713.744	2820.22
713.931	3063.93
714.119	3000.44
714.306	2926.72
714.494	2984.06
714.682	2973.82
714.869	3068.03
715.057	2939.01
715.244	3018.88
715.432	2973.82
715.619	2791.55
715.807	2908.29
715.994	2902.14
716.182	2926.72
716.369	3035.26
716.556	2900.09
716.744	3012.73
716.931	2916.48
717.119	2934.91
717.306	2910.33
717.493	2922.62
717.681	2754.69
717.868	2848.9
718.055	2881.66
718.242	2852.99
718.43	2891.9
718.617	2902.14
718.804	2959.49
718.991	2896
719.179	2732.16
719.366	2805.89
719.553	2881.66
719.74	2773.12
719.927	2816.13
720.114	2746.5
720.301	2830.46
720.488	2797.7
720.676	2834.56
720.863	2887.81
721.05	2830.46
721.237	2633.86
721.424	2863.23
721.611	2654.34
721.798	2721.92
721.985	2803.84
722.172	2744.45
722.358	2666.63
722.545	2730.11
722.732	2738.3
722.919	2779.26
723.106	2795.65
723.293	2799.74
723.48	2746.5
723.667	2633.86
723.853	2709.63
724.04	2646.15
724.227	2740.35
724.414	2711.68
724.6	2691.2
724.787	2701.44
724.974	2625.67
725.161	2556.04
725.347	2625.67
725.534	2771.07
725.72	2668.67
725.907	2707.59
726.094	2556.04
726.28	2611.33
726.467	2766.98
726.653	2580.61
726.84	2654.34
727.027	2568.32
727.213	2541.7
727.4	2711.68
727.586	2664.58
727.773	2633.86
727.959	2674.82
728.145	2619.52
728.332	2584.71
728.518	2525.32
728.705	2631.81
728.891	2631.81
729.077	2478.21
729.264	2547.84
729.45	2494.6
729.636	2564.23
729.823	2410.63
730.009	2562.18
730.195	2531.46
730.382	2515.08
730.568	2545.8
730.754	2445.45
730.94	2572.42
731.126	2439.3
731.313	2478.21
731.499	2451.59
731.685	2582.66
731.871	2515.08
732.057	2480.26
732.243	2451.59
732.429	2562.18
732.615	2492.55
732.801	2461.83
732.987	2394.25
733.173	2398.34
733.359	2472.07
733.545	2453.64
733.731	2480.26
733.917	2564.23
734.103	2457.73
734.289	2377.86
734.475	2371.72
734.661	2482.31
734.847	2410.63
735.033	2404.49
735.219	2384.01
735.404	2381.96
735.59	2324.62
735.776	2246.79
735.962	2300.04
736.148	2281.61
736.333	2394.25
736.519	2322.57
736.705	2273.42
736.89	2279.56
737.076	2324.62
737.262	2175.11
737.447	2275.46
737.633	2238.6
737.819	2369.67
738.004	2240.65
738.19	2226.31
738.375	2261.13
738.561	2224.26
738.747	2211.98
738.932	2193.55
739.118	2230.41
739.303	2220.17
739.489	2304.14
739.674	2136.2
739.859	2183.31
740.045	2019.47
740.23	2201.74
740.416	2214.02
740.601	2187.4
740.786	2191.5
740.972	2089.1
741.157	2048.14
741.342	2080.91
741.528	1996.94
741.713	2130.06
741.898	2037.9
742.084	2076.81
742.269	2211.98
742.454	1972.36
742.639	2089.1
742.824	2099.34
743.01	1996.94
743.195	2093.19
743.38	2068.62
743.565	1984.65
743.75	1968.27
743.935	2060.43
744.12	2015.37
744.305	1982.6
744.49	1994.89
744.675	2005.13
744.86	1992.84
745.045	1955.98
745.23	1855.63
745.415	1869.97
745.6	1949.84
745.785	1947.79
745.97	1890.45
746.155	1757.33
746.34	1853.58
746.525	1767.57
746.71	1855.63
746.895	1845.39
747.079	1812.62
747.264	1761.42
747.449	1974.41
747.634	1745.04
747.819	1890.45
748.003	1695.89
748.188	1730.7
748.373	1808.53
748.557	1745.04
748.742	1691.79
748.927	1648.79
749.111	1710.22
749.296	1620.11
749.481	1624.21
749.665	1622.16
749.85	1648.79
750.034	1693.84
750.219	1599.63
750.404	1570.96
750.588	1515.67
750.773	1517.72
750.957	1558.67
751.141	1562.77
751.326	1570.96
751.51	1511.57
751.695	1544.34
751.879	1472.66
752.064	1433.75
752.248	1489.04
752.432	1503.38
752.617	1384.6
752.801	1530
752.985	1476.76
753.17	1573.01
753.354	1472.66
753.538	1585.3
753.722	1372.31
753.907	1446.04
754.091	1314.97
754.275	1355.93
754.459	1450.13
754.643	1480.85
754.828	1310.87
755.012	1343.64
755.196	1396.89
755.38	1419.41
755.564	1351.83
755.748	1321.11
755.932	1337.49
756.116	1329.3
756.3	1259.67
756.484	1251.48
756.668	1269.91
756.852	1274.01
757.036	1202.33
757.22	1204.38
757.404	1140.89
757.588	1163.42
757.772	1149.08
757.956	1204.38
758.14	1149.08
758.323	1206.42
758.507	1075.35
758.691	1173.66
758.875	1183.9
759.059	1081.5
759.242	1175.7
759.426	1140.89
759.61	1140.89
759.794	1222.81
759.977	1081.5
760.161	1101.98
760.345	1104.03
760.528	1042.59
760.712	1093.79
760.895	1169.56
761.079	1140.89
761.263	1009.82
761.446	1007.77
761.63	1034.39
761.813	1075.35
761.997	1020.06
762.18	925.85
762.364	1071.26
762.547	1034.39
762.731	1032.35
762.914	1026.2
763.098	1054.87
763.281	940.19
763.464	997.53
763.648	856.22
763.831	993.44
764.015	934.04
764.198	1024.16
764.381	858.27
764.564	956.57
764.748	956.57
764.931	993.44
765.114	913.56
765.297	1038.49
765.481	895.13
765.664	995.48
765.847	934.04
766.03	921.76
766.213	968.86
766.397	1052.83
766.58	864.41
766.763	819.36
766.946	913.56
767.129	876.7
767.312	843.93
767.495	876.7
767.678	944.28
767.861	944.28
768.044	845.98
768.227	964.76
768.41	792.73
768.593	886.94
768.776	903.32
768.959	860.32
769.142	864.41
769.324	880.8
769.507	874.65
769.69	817.31
769.873	841.89
770.056	876.7
770.239	778.4
770.421	762.02
770.604	819.36
770.787	766.11
770.97	768.16
771.152	805.02
771.335	729.25
771.518	688.29
771.7	778.4
771.883	811.17
772.066	848.03
772.248	764.06
772.431	766.11
772.613	641.18
772.796	712.86
772.978	721.06
773.161	762.02
773.343	733.34
773.526	641.18
773.708	739.49
773.891	725.15
774.073	776.35
774.256	678.05
774.438	702.62
774.621	704.67
774.803	749.73
774.985	807.07
775.168	684.19
775.35	719.01
775.532	663.71
775.715	657.57
775.897	669.86
776.079	643.23
776.261	522.4
776.444	686.24
776.626	659.62
776.808	645.28
776.99	661.66
777.173	604.32
777.355	553.12
777.537	581.79
777.719	632.99
777.901	604.32
778.083	622.75
778.265	540.83
778.447	688.29
778.629	614.56
778.811	624.8
778.993	598.18
779.175	628.9
779.357	592.03
779.539	522.4
779.721	575.65
779.903	587.94
780.085	542.88
780.267	551.07
780.449	563.36
780.631	512.16
780.812	463.01
780.994	444.58
781.176	516.26
781.358	503.97
781.54	542.88
781.721	534.69
781.903	557.22
782.085	483.49
782.267	495.78
782.448	452.77
782.63	475.3
782.812	463.01
782.993	475.3
783.175	403.62
783.357	503.97
783.538	454.82
783.72	446.63
783.901	489.64
784.083	495.78
784.264	456.87
784.446	491.68
784.627	379.04
784.809	467.11
784.99	485.54
785.172	387.24
785.353	381.09
785.535	417.96
785.716	401.57
785.897	438.44
786.079	481.44
786.26	379.04
786.441	413.86
786.623	428.2
786.804	387.24
786.985	397.48
787.167	411.81
787.348	426.15
787.529	389.28
787.71	389.28
787.891	393.38
788.073	391.33
788.254	391.33
788.435	323.75
788.616	344.23
788.797	401.57
788.978	352.42
789.159	391.33
789.34	352.42
789.522	241.83
789.703	336.04
789.884	338.09
790.065	327.85
790.246	342.18
790.427	245.93
790.607	325.8
790.788	346.28
790.969	356.52
791.15	305.32
791.331	356.52
791.512	270.5
791.693	268.45
791.874	301.22
792.054	338.09
792.235	327.85
792.416	250.02
792.597	305.32
792.778	344.23
792.958	235.69
793.139	303.27
793.32	319.65
793.5	352.42
793.681	299.17
793.862	211.11
794.042	321.7
794.223	178.34
794.404	297.13
794.584	276.65
794.765	264.36
794.945	286.89
795.126	229.54
795.306	254.12
795.487	317.61
795.667	282.79
795.848	301.22
796.028	305.32
796.209	278.69
796.389	256.17
796.57	260.26
796.75	184.49
796.93	282.79
797.111	237.74
797.291	235.69
797.471	231.59
797.652	235.69
797.832	211.11
798.012	293.03
798.192	223.4
798.373	223.4
798.553	184.49
798.733	176.3
798.913	223.4
799.093	180.39
799.274	217.26
799.454	182.44
799.634	172.2
799.814	211.11
799.994	233.64
800.174	237.74
800.354	213.16
800.534	231.59
800.714	155.82
800.894	266.41
801.074	223.4
801.254	213.16
801.434	235.69
801.614	207.02
801.794	155.82
801.974	608.42
802.154	200.87
802.334	194.73
802.514	186.54
802.693	182.44
802.873	139.43
803.053	186.54
803.233	166.06
803.413	254.12
803.592	229.54
803.772	108.71
803.952	135.34
804.131	231.59
804.311	161.96
804.491	108.71
804.67	110.76
804.85	157.86
805.03	180.39
805.209	174.25
805.389	123.05
805.568	116.9
805.748	166.06
805.928	168.1
806.107	75.95
806.287	170.15
806.466	174.25
806.646	157.86
806.825	161.96
807.004	149.67
807.184	166.06
807.363	155.82
807.543	231.59
807.722	123.05
807.901	143.53
808.081	104.62
808.26	123.05
808.439	151.72
808.619	133.29
808.798	161.96
808.977	92.33
809.156	229.54
809.336	137.38
809.515	127.14
809.694	125.1
809.873	100.52
810.052	71.85
810.231	141.48
810.411	184.49
810.59	133.29
810.769	153.77
810.948	215.21
811.127	129.19
811.306	131.24
811.485	118.95
811.664	123.05
811.843	127.14
812.022	121
812.201	118.95
812.38	84.14
812.559	102.57
812.737	143.53
812.916	37.03
813.095	102.57
813.274	149.67
813.453	86.19
813.632	118.95
813.811	139.43
813.989	57.51
814.168	104.62
814.347	108.71
814.526	143.53
814.704	151.72
814.883	139.43
815.062	32.94
815.24	84.14
815.419	77.99
815.598	123.05
815.776	82.09
815.955	65.71
816.133	82.09
816.312	125.1
816.49	104.62
816.669	86.19
816.847	129.19
817.026	51.37
817.204	143.53
817.383	149.67
817.561	41.13
817.74	82.09
817.918	116.9
818.097	86.19
818.275	110.76
818.453	110.76
818.632	61.61
818.81	127.14
818.988	71.85
819.167	18.6
819.345	2.22
819.523	98.47
819.701	-8.02
819.879	110.76
820.058	59.56
820.236	41.13
820.414	67.75
820.592	112.81
820.77	51.37
820.948	108.71
821.127	147.62
821.305	96.43
821.483	-1.88
821.661	170.15
821.839	53.42
822.017	112.81
822.195	37.03
822.373	51.37
822.551	80.04
822.729	61.61
822.907	20.65
823.085	92.33
823.262	57.51
823.44	110.76
823.618	82.09
823.796	80.04
823.974	67.75
824.152	-14.17
824.329	112.81
824.507	92.33
824.685	26.79
824.863	61.61
825.04	10.41
825.218	61.61
825.396	86.19
825.574	59.56
825.751	34.99
825.929	30.89
826.107	88.23
826.284	90.28
826.462	90.28
826.639	-26.45
826.817	82.09
826.994	98.47
827.172	71.85
827.349	82.09
827.527	59.56
827.704	20.65
827.882	63.66
828.059	22.7
828.237	0.17
828.414	59.56
828.591	24.75
828.769	73.9
828.946	51.37
829.124	121
829.301	71.85
829.478	37.03
829.655	16.55
829.833	-28.5
830.01	57.51
830.187	12.46
830.364	14.51
830.542	34.99
830.719	10.41
830.896	49.32
831.073	65.71
831.25	90.28
831.427	47.27
831.604	145.58
831.782	45.23
831.959	106.67
832.136	41.13
832.313	10.41
832.49	39.08
832.667	53.42
832.844	22.7
833.021	20.65
833.198	20.65
833.374	84.14
833.551	39.08
833.728	14.51
833.905	34.99
834.082	-5.97
834.259	37.03
834.436	106.67
834.612	90.28
834.789	84.14
834.966	4.27
835.143	65.71
835.319	-36.69
835.496	8.36
835.673	49.32
835.85	67.75
836.026	10.41
836.203	71.85
836.38	71.85
836.556	86.19
836.733	32.94
836.909	110.76
837.086	-28.5
837.262	4.27
837.439	2.22
837.616	10.41
837.792	16.55
837.968	69.8
838.145	45.23
838.321	41.13
838.498	20.65
838.674	16.55
838.851	12.46
839.027	26.79
839.203	-10.07
839.38	-14.17
839.556	16.55
839.732	12.46
839.909	90.28
840.085	61.61
840.261	4.27
840.437	49.32
840.614	10.41
840.79	47.27
840.966	159.91
841.142	75.95
841.318	-20.31
841.494	-46.93
841.671	-26.45
841.847	-51.03
842.023	-3.93
842.199	-14.17
842.375	20.65
842.551	-20.31
842.727	-16.21
842.903	16.55
843.079	-20.31
843.255	34.99
843.431	10.41
843.607	2.22
843.783	-18.26
843.959	104.62
844.134	4.27
844.31	47.27
844.486	-42.84
844.662	-14.17
844.838	26.79
845.013	61.61
845.189	28.84
845.365	22.7
845.541	41.13
845.716	-20.31
845.892	39.08
846.068	2.22
846.244	-69.46
846.419	51.37
846.595	-18.26
846.77	22.7
846.946	6.31
847.122	-18.26
847.297	22.7
847.473	73.9
847.648	-16.21
847.824	16.55
847.999	-28.5
848.175	-53.08
848.35	51.37
848.526	59.56
848.701	18.6
848.876	73.9
849.052	43.18
849.227	0.17
849.403	4.27
849.578	-40.79
849.753	-28.5
849.929	80.04
850.104	47.27
850.279	59.56
850.454	-3.93
850.63	-18.26
850.805	37.03
850.98	47.27
851.155	32.94
851.33	45.23
851.505	-40.79
851.681	-8.02
851.856	0.17
852.031	2.22
852.206	-40.79
852.381	-22.36
852.556	2.22
852.731	-28.5
852.906	37.03
853.081	65.71
853.256	-38.74
853.431	8.36
853.606	-40.79
853.781	-20.31
853.956	94.38
854.131	-14.17
854.305	-12.12
854.48	-53.08
854.655	-36.69
854.83	55.47
855.005	41.13
855.18	-14.17
855.354	57.51
855.529	-8.02
855.704	12.46
855.879	-12.12
856.053	24.75
856.228	51.37
856.403	8.36
856.577	28.84
856.752	-69.46
856.926	57.51
857.101	8.36
857.276	-42.84
857.45	18.6
857.625	-30.55
857.799	41.13
857.974	45.23
858.148	-67.41
858.323	18.6
858.497	-14.17
858.672	61.61
858.846	-1.88
859.02	0.17
859.195	-77.65
859.369	-18.26
859.543	-22.36
859.718	-1.88
859.892	-57.17
860.066	12.46
860.241	37.03
860.415	-10.07
860.589	-18.26
860.763	18.6
860.938	-18.26
861.112	-30.55
861.286	-40.79
861.46	-14.17
861.634	2.22
861.808	-44.88
861.982	-34.64
862.157	6.31
862.331	-8.02
862.505	-83.8
862.679	-63.32
862.853	22.7
863.027	-65.36
863.201	0.17
863.375	-30.55
863.549	-42.84
863.722	-34.64
863.896	63.66
864.07	-18.26
864.244	26.79
864.418	26.79
864.592	-16.21
864.766	53.42
864.939	-18.26
865.113	-8.02
865.287	-67.41
865.461	22.7
865.634	-20.31
865.808	-1.88
865.982	0.17
866.156	-5.97
866.329	-20.31
866.503	-8.02
866.676	-20.31
866.85	-16.21
867.024	22.7
867.197	49.32
867.371	-34.64
867.544	-30.55
867.718	-40.79
867.891	49.32
868.065	-38.74
868.238	-83.8
868.412	-46.93
868.585	37.03
868.759	-89.94
868.932	-30.55
869.105	6.31
869.279	-26.45
869.452	-57.17
869.625	22.7
869.799	-10.07
869.972	-20.31
870.145	-40.79
870.319	-20.31
870.492	-61.27
870.665	-36.69
870.838	-26.45
871.011	-36.69
871.185	-73.56
871.358	-67.41
871.531	16.55
871.704	-18.26
871.877	-12.12
872.05	-67.41
872.223	-34.64
872.396	-34.64
872.569	0.17
872.742	0.17
872.915	-14.17
873.088	-69.46
873.261	14.51
873.434	-67.41
873.607	-75.6
873.78	32.94
873.953	59.56
874.126	24.75
874.299	-69.46
874.471	-24.4
874.644	-10.07
874.817	-73.56
874.99	-10.07
875.163	43.18
875.335	-44.88
875.508	-67.41
875.681	-14.17
875.853	-63.32
876.026	-24.4
876.199	-5.97
876.371	18.6
876.544	-12.12
876.717	-42.84
876.889	-34.64
877.062	10.41
877.234	-34.64
877.407	16.55
877.579	-8.02
877.752	-36.69
877.924	73.9
878.097	-63.32
878.269	26.79
878.442	-3.93
878.614	-30.55
878.786	12.46
878.959	-53.08
879.131	22.7
879.303	-26.45
879.476	-40.79
879.648	20.65
879.82	2.22
879.993	-20.31
880.165	12.46
880.337	-59.22
880.509	57.51
880.681	-94.04
880.854	2.22
881.026	-20.31
881.198	63.66
881.37	-79.7
881.542	18.6
881.714	-18.26
881.886	20.65
882.058	-53.08
882.23	-22.36
882.402	-24.4
882.574	12.46
882.746	-38.74
882.918	8.36
883.09	0.17
883.262	-22.36
883.434	-48.98
883.606	-30.55
883.778	-30.55
883.95	-59.22
884.122	-10.07
884.293	-3.93
884.465	-38.74
884.637	10.41
884.809	-32.6
884.98	43.18
885.152	-30.55
885.324	-8.02
885.496	-12.12
885.667	-26.45
885.839	12.46
886.011	-8.02
886.182	24.75
886.354	20.65
886.525	34.99
886.697	-14.17
886.869	12.46
887.04	-32.6
887.212	-14.17
887.383	92.33
887.555	24.75
887.726	-16.21
887.897	0.17
888.069	-20.31
888.24	-8.02
888.412	-96.08
888.583	20.65
888.754	-46.93
888.926	-30.55
889.097	-20.31
889.268	-55.12
889.44	-34.64
889.611	-100.18
889.782	18.6
889.953	-32.6
890.125	49.32
890.296	-59.22
890.467	24.75
890.638	-12.12
890.809	-14.17
890.98	14.51
891.151	-30.55
891.323	-34.64
891.494	-91.99
891.665	-53.08
891.836	-1.88
892.007	-48.98
892.178	84.14
892.349	-34.64
892.52	-85.84
892.691	16.55
892.862	2.22
893.032	8.36
893.203	-22.36
893.374	10.41
893.545	-3.93
893.716	-30.55
893.887	-5.97
894.057	-44.88
894.228	59.56
894.399	-40.79
894.57	18.6
894.74	-75.6
894.911	10.41
895.082	-112.47
895.253	-44.88
895.423	22.7
895.594	-8.02
895.764	-30.55
895.935	-32.6
896.106	-55.12
896.276	-38.74
896.447	-16.21
896.617	-24.4
896.788	-40.79
896.958	-16.21
897.129	8.36
897.299	-75.6
897.47	-20.31
897.64	0.17
897.81	10.41
897.981	-16.21
898.151	-59.22
898.322	-30.55
898.492	65.71
898.662	-55.12
898.832	-79.7
899.003	-55.12
899.173	-44.88
899.343	-32.6
899.513	32.94
