Data from USB4F104151__46__12-01-31-770.txt Node

Date: Fri Mar 14 12:01:31 EDT 2025
User: louis
Spectrometer: USB4F10415
Trigger mode: 4
Integration Time (sec): 2.000000E-2
Scans to average: 1
Electric dark correction enabled: true
Nonlinearity correction enabled: false
Boxcar width: 0
XAxis mode: Wavelengths
Number of Pixels in Spectrum: 3648
>>>>>Begin Spectral Data<<<<<
178.204	-10.58
178.424	-10.58
178.644	-10.58
178.864	-49.49
179.084	-100.69
179.304	36.52
179.524	32.43
179.744	-4.44
179.964	54.95
180.184	44.71
180.404	-37.2
180.624	-92.5
180.844	-10.58
181.064	-6.49
181.283	24.23
181.503	-39.25
181.723	-2.39
181.943	67.24
182.163	61.1
182.383	7.85
182.602	-2.39
182.822	50.86
183.042	97.96
183.262	38.57
183.482	30.38
183.701	3.75
183.921	7.85
184.141	-8.53
184.361	32.43
184.58	20.14
184.8	32.43
185.02	11.95
185.239	59.05
185.459	106.15
185.679	46.76
185.898	-8.53
186.118	44.71
186.338	-37.2
186.557	34.47
186.777	89.77
186.997	13.99
187.216	75.43
187.436	48.81
187.655	9.9
187.875	22.19
188.095	36.52
188.314	38.57
188.534	44.71
188.753	79.53
188.973	61.1
189.192	34.47
189.412	118.44
189.631	48.81
189.851	18.09
190.07	102.06
190.29	30.38
190.509	-51.54
190.729	18.09
190.948	59.05
191.168	73.39
191.387	46.76
191.607	20.14
191.826	57
192.045	11.95
192.265	50.86
192.484	38.57
192.704	57
192.923	-18.77
193.142	93.87
193.362	18.09
193.581	34.47
193.8	46.76
194.02	65.19
194.239	52.91
194.458	65.19
194.678	20.14
194.897	13.99
195.116	52.91
195.335	30.38
195.555	85.67
195.774	18.09
195.993	69.29
196.212	24.23
196.432	42.67
196.651	-16.73
196.87	-26.96
197.089	67.24
197.308	34.47
197.528	97.96
197.747	-41.3
197.966	36.52
198.185	63.15
198.404	-2.39
198.623	36.52
198.842	26.28
199.062	50.86
199.281	73.39
199.5	-10.58
199.719	52.91
199.938	61.1
200.157	54.95
200.376	61.1
200.595	67.24
200.814	50.86
201.033	-24.92
201.252	38.57
201.471	28.33
201.69	-26.96
201.909	79.53
202.128	42.67
202.347	46.76
202.566	46.76
202.785	50.86
203.004	-0.34
203.223	40.62
203.442	3.75
203.661	18.09
203.879	-4.44
204.098	67.24
204.317	-20.82
204.536	-6.49
204.755	-29.01
204.974	67.24
205.193	34.47
205.411	79.53
205.63	57
205.849	75.43
206.068	24.23
206.287	30.38
206.505	69.29
206.724	48.81
206.943	59.05
207.162	52.91
207.381	22.19
207.599	38.57
207.818	59.05
208.037	-0.34
208.255	71.34
208.474	20.14
208.693	32.43
208.911	-37.2
209.13	-24.92
209.349	34.47
209.567	42.67
209.786	73.39
210.005	-6.49
210.223	-26.96
210.442	-20.82
210.661	-0.34
210.879	61.1
211.098	52.91
211.316	42.67
211.535	79.53
211.753	63.15
211.972	-41.3
212.191	-47.44
212.409	46.76
212.628	7.85
212.846	28.33
213.065	-4.44
213.283	145.06
213.502	38.57
213.72	69.29
213.938	28.33
214.157	-24.92
214.375	-4.44
214.594	-12.63
214.812	50.86
215.031	-4.44
215.249	18.09
215.467	32.43
215.686	5.8
215.904	110.25
216.122	61.1
216.341	77.48
216.559	54.95
216.778	59.05
216.996	93.87
217.214	-24.92
217.432	24.23
217.651	18.09
217.869	1.71
218.087	67.24
218.306	73.39
218.524	-12.63
218.742	52.91
218.96	-16.73
219.179	44.71
219.397	75.43
219.615	59.05
219.833	-8.53
220.051	46.76
220.27	97.96
220.488	42.67
220.706	48.81
220.924	81.58
221.142	48.81
221.36	79.53
221.578	81.58
221.796	-10.58
222.015	69.29
222.233	1.71
222.451	69.29
222.669	13.99
222.887	38.57
223.105	24.23
223.323	91.82
223.541	69.29
223.759	20.14
223.977	59.05
224.195	112.3
224.413	71.34
224.631	-4.44
224.849	52.91
225.067	149.16
225.285	46.76
225.503	32.43
225.721	-2.39
225.939	52.91
226.157	85.67
226.375	77.48
226.592	-6.49
226.81	38.57
227.028	71.34
227.246	61.1
227.464	87.72
227.682	93.87
227.9	100.01
228.117	-4.44
228.335	67.24
228.553	-4.44
228.771	-8.53
228.989	83.63
229.206	93.87
229.424	-4.44
229.642	67.24
229.86	61.1
230.077	52.91
230.295	95.91
230.513	42.67
230.731	52.91
230.948	46.76
231.166	3.75
231.384	1.71
231.601	24.23
231.819	11.95
232.037	-8.53
232.254	-18.77
232.472	46.76
232.689	24.23
232.907	71.34
233.125	7.85
233.342	46.76
233.56	9.9
233.777	-12.63
233.995	16.04
234.213	59.05
234.43	32.43
234.648	42.67
234.865	30.38
235.083	22.19
235.3	75.43
235.518	28.33
235.735	63.15
235.953	83.63
236.17	3.75
236.388	93.87
236.605	1.71
236.822	97.96
237.04	93.87
237.257	42.67
237.475	59.05
237.692	87.72
237.909	87.72
238.127	-119.12
238.344	-8.53
238.562	44.71
238.779	48.81
238.996	-16.73
239.214	7.85
239.431	59.05
239.648	44.71
239.865	24.23
240.083	77.48
240.3	61.1
240.517	9.9
240.735	5.8
240.952	-22.87
241.169	71.34
241.386	95.91
241.603	30.38
241.821	13.99
242.038	40.62
242.255	77.48
242.472	3.75
242.689	9.9
242.907	18.09
243.124	54.95
243.341	42.67
243.558	-20.82
243.775	-29.01
243.992	-37.2
244.209	46.76
244.426	61.1
244.643	36.52
244.86	-6.49
245.078	24.23
245.295	-2.39
245.512	11.95
245.729	130.73
245.946	40.62
246.163	44.71
246.38	28.33
246.597	28.33
246.814	87.72
247.031	18.09
247.248	38.57
247.464	42.67
247.681	32.43
247.898	-41.3
248.115	110.25
248.332	-12.63
248.549	73.39
248.766	40.62
248.983	61.1
249.2	34.47
249.417	32.43
249.633	38.57
249.85	52.91
250.067	81.58
250.284	18.09
250.501	26.28
250.717	67.24
250.934	-39.25
251.151	69.29
251.368	-2.39
251.585	11.95
251.801	40.62
252.018	-29.01
252.235	24.23
252.451	28.33
252.668	18.09
252.885	9.9
253.102	42.67
253.318	36.52
253.535	38.57
253.752	16.04
253.968	38.57
254.185	-8.53
254.401	46.76
254.618	73.39
254.835	30.38
255.051	69.29
255.268	44.71
255.484	57
255.701	46.76
255.917	61.1
256.134	32.43
256.351	57
256.567	38.57
256.784	9.9
257	40.62
257.217	46.76
257.433	30.38
257.65	36.52
257.866	63.15
258.082	24.23
258.299	67.24
258.515	20.14
258.732	-26.96
258.948	38.57
259.165	100.01
259.381	75.43
259.597	67.24
259.814	38.57
260.03	36.52
260.246	69.29
260.463	38.57
260.679	46.76
260.895	42.67
261.112	44.71
261.328	81.58
261.544	79.53
261.761	73.39
261.977	34.47
262.193	42.67
262.409	79.53
262.626	26.28
262.842	126.63
263.058	118.44
263.274	61.1
263.49	50.86
263.707	118.44
263.923	61.1
264.139	63.15
264.355	61.1
264.571	130.73
264.787	-8.53
265.004	38.57
265.22	7.85
265.436	95.91
265.652	61.1
265.868	75.43
266.084	-8.53
266.3	3.75
266.516	20.14
266.732	114.34
266.948	63.15
267.164	67.24
267.38	-33.11
267.596	30.38
267.812	81.58
268.028	134.82
268.244	91.82
268.46	9.9
268.676	-4.44
268.892	104.11
269.108	57
269.324	13.99
269.54	-22.87
269.756	32.43
269.972	100.01
270.188	50.86
270.403	3.75
270.619	-16.73
270.835	24.23
271.051	38.57
271.267	38.57
271.483	44.71
271.698	57
271.914	69.29
272.13	89.77
272.346	57
272.562	61.1
272.777	63.15
272.993	-2.39
273.209	81.58
273.425	67.24
273.64	-24.92
273.856	57
274.072	18.09
274.287	38.57
274.503	-6.49
274.719	34.47
274.934	5.8
275.15	-43.35
275.366	67.24
275.581	38.57
275.797	77.48
276.012	32.43
276.228	59.05
276.444	-39.25
276.659	63.15
276.875	61.1
277.09	97.96
277.306	42.67
277.521	97.96
277.737	13.99
277.952	50.86
278.168	34.47
278.383	46.76
278.599	-55.64
278.814	73.39
279.03	59.05
279.245	57
279.461	61.1
279.676	71.34
279.892	-31.06
280.107	36.52
280.322	1.71
280.538	85.67
280.753	24.23
280.969	57
281.184	18.09
281.399	69.29
281.615	50.86
281.83	73.39
282.045	114.34
282.26	61.1
282.476	30.38
282.691	97.96
282.906	95.91
283.122	54.95
283.337	40.62
283.552	75.43
283.767	65.19
283.983	38.57
284.198	50.86
284.413	36.52
284.628	-12.63
284.843	46.76
285.058	100.01
285.274	71.34
285.489	20.14
285.704	7.85
285.919	97.96
286.134	85.67
286.349	87.72
286.564	28.33
286.779	50.86
286.995	22.19
287.21	-16.73
287.425	104.11
287.64	20.14
287.855	36.52
288.07	-12.63
288.285	138.92
288.5	65.19
288.715	-26.96
288.93	40.62
289.145	71.34
289.36	50.86
289.575	77.48
289.79	87.72
290.004	5.8
290.219	-6.49
290.434	5.8
290.649	13.99
290.864	40.62
291.079	79.53
291.294	7.85
291.509	-39.25
291.724	34.47
291.938	-31.06
292.153	69.29
292.368	-10.58
292.583	128.68
292.798	-0.34
293.012	83.63
293.227	65.19
293.442	38.57
293.657	122.54
293.871	11.95
294.086	79.53
294.301	130.73
294.516	52.91
294.73	91.82
294.945	36.52
295.16	52.91
295.374	-12.63
295.589	81.58
295.804	73.39
296.018	69.29
296.233	63.15
296.447	97.96
296.662	3.75
296.877	52.91
297.091	54.95
297.306	77.48
297.52	83.63
297.735	63.15
297.949	18.09
298.164	91.82
298.378	-18.77
298.593	59.05
298.807	13.99
299.022	42.67
299.236	36.52
299.451	13.99
299.665	28.33
299.88	83.63
300.094	83.63
300.309	87.72
300.523	73.39
300.737	102.06
300.952	-41.3
301.166	-51.54
301.381	65.19
301.595	16.04
301.809	145.06
302.024	65.19
302.238	42.67
302.452	57
302.667	-33.11
302.881	120.49
303.095	52.91
303.309	36.52
303.524	26.28
303.738	36.52
303.952	7.85
304.166	57
304.381	-47.44
304.595	81.58
304.809	91.82
305.023	87.72
305.237	81.58
305.452	22.19
305.666	73.39
305.88	124.58
306.094	57
306.308	79.53
306.522	59.05
306.736	44.71
306.95	-16.73
307.164	65.19
307.379	-8.53
307.593	89.77
307.807	81.58
308.021	114.34
308.235	57
308.449	83.63
308.663	89.77
308.877	61.1
309.091	63.15
309.305	65.19
309.519	69.29
309.733	71.34
309.947	75.43
310.161	73.39
310.374	130.73
310.588	124.58
310.802	59.05
311.016	69.29
311.23	24.23
311.444	7.85
311.658	59.05
311.872	104.11
312.085	52.91
312.299	79.53
312.513	59.05
312.727	46.76
312.941	87.72
313.154	110.25
313.368	110.25
313.582	89.77
313.796	30.38
314.009	28.33
314.223	32.43
314.437	112.3
314.651	110.25
314.864	73.39
315.078	73.39
315.292	57
315.505	77.48
315.719	57
315.933	83.63
316.146	87.72
316.36	-29.01
316.573	54.95
316.787	91.82
317.001	61.1
317.214	11.95
317.428	9.9
317.641	100.01
317.855	57
318.068	54.95
318.282	34.47
318.495	61.1
318.709	100.01
318.922	18.09
319.136	65.19
319.349	63.15
319.563	20.14
319.776	-18.77
319.99	13.99
320.203	136.87
320.417	89.77
320.63	71.34
320.843	69.29
321.057	89.77
321.27	38.57
321.483	59.05
321.697	40.62
321.91	28.33
322.124	46.76
322.337	-59.73
322.55	46.76
322.763	-0.34
322.977	52.91
323.19	44.71
323.403	67.24
323.617	42.67
323.83	108.2
324.043	24.23
324.256	46.76
324.469	59.05
324.683	110.25
324.896	16.04
325.109	42.67
325.322	24.23
325.535	67.24
325.748	34.47
325.962	79.53
326.175	52.91
326.388	28.33
326.601	-29.01
326.814	77.48
327.027	73.39
327.24	81.58
327.453	93.87
327.666	89.77
327.879	79.53
328.092	79.53
328.305	-4.44
328.518	-2.39
328.731	-18.77
328.944	63.15
329.157	87.72
329.37	32.43
329.583	42.67
329.796	59.05
330.009	-4.44
330.222	34.47
330.435	22.19
330.648	3.75
330.861	48.81
331.073	77.48
331.286	63.15
331.499	77.48
331.712	130.73
331.925	30.38
332.138	42.67
332.35	57
332.563	1.71
332.776	147.11
332.989	13.99
333.202	52.91
333.414	79.53
333.627	95.91
333.84	61.1
334.053	79.53
334.265	52.91
334.478	26.28
334.691	85.67
334.903	106.15
335.116	52.91
335.329	69.29
335.541	75.43
335.754	114.34
335.966	-18.77
336.179	44.71
336.392	54.95
336.604	-29.01
336.817	5.8
337.029	126.63
337.242	63.15
337.454	116.39
337.667	61.1
337.88	153.26
338.092	108.2
338.305	63.15
338.517	71.34
338.729	79.53
338.942	38.57
339.154	50.86
339.367	87.72
339.579	3.75
339.792	87.72
340.004	63.15
340.217	54.95
340.429	108.2
340.641	-2.39
340.854	40.62
341.066	91.82
341.278	-14.68
341.491	65.19
341.703	32.43
341.915	20.14
342.128	124.58
342.34	24.23
342.552	54.95
342.764	-2.39
342.977	52.91
343.189	100.01
343.401	54.95
343.613	-10.58
343.826	50.86
344.038	-31.06
344.25	79.53
344.462	18.09
344.674	59.05
344.886	-0.34
345.099	79.53
345.311	32.43
345.523	26.28
345.735	42.67
345.947	93.87
346.159	18.09
346.371	50.86
346.583	26.28
346.795	97.96
347.007	7.85
347.219	87.72
347.431	-37.2
347.643	20.14
347.855	57
348.067	44.71
348.279	18.09
348.491	-49.49
348.703	67.24
348.915	16.04
349.127	30.38
349.339	93.87
349.551	91.82
349.763	153.26
349.975	36.52
350.187	122.54
350.399	149.16
350.61	102.06
350.822	36.52
351.034	69.29
351.246	71.34
351.458	118.44
351.669	77.48
351.881	91.82
352.093	59.05
352.305	79.53
352.517	42.67
352.728	87.72
352.94	91.82
353.152	32.43
353.363	32.43
353.575	67.24
353.787	65.19
353.999	36.52
354.21	42.67
354.422	3.75
354.633	46.76
354.845	38.57
355.057	73.39
355.268	89.77
355.48	48.81
355.692	67.24
355.903	-2.39
356.115	30.38
356.326	110.25
356.538	104.11
356.749	18.09
356.961	38.57
357.172	116.39
357.384	48.81
357.595	59.05
357.807	102.06
358.018	102.06
358.23	69.29
358.441	116.39
358.653	140.97
358.864	87.72
359.075	61.1
359.287	-33.11
359.498	81.58
359.709	73.39
359.921	65.19
360.132	118.44
360.344	30.38
360.555	91.82
360.766	44.71
360.977	69.29
361.189	61.1
361.4	46.76
361.611	151.21
361.823	5.8
362.034	-0.34
362.245	13.99
362.456	30.38
362.667	20.14
362.879	52.91
363.09	97.96
363.301	50.86
363.512	-4.44
363.723	18.09
363.935	48.81
364.146	44.71
364.357	57
364.568	75.43
364.779	65.19
364.99	140.97
365.201	13.99
365.412	106.15
365.623	95.91
365.834	100.01
366.045	145.06
366.256	108.2
366.467	-8.53
366.678	83.63
366.889	61.1
367.1	73.39
367.311	63.15
367.522	20.14
367.733	81.58
367.944	110.25
368.155	67.24
368.366	69.29
368.577	75.43
368.788	42.67
368.999	26.28
369.209	145.06
369.42	42.67
369.631	151.21
369.842	104.11
370.053	5.8
370.264	145.06
370.474	3.75
370.685	147.11
370.896	95.91
371.107	75.43
371.317	122.54
371.528	130.73
371.739	108.2
371.95	9.9
372.16	81.58
372.371	7.85
372.582	85.67
372.792	89.77
373.003	63.15
373.214	95.91
373.424	93.87
373.635	77.48
373.846	155.3
374.056	67.24
374.267	46.76
374.477	81.58
374.688	112.3
374.898	134.82
375.109	128.68
375.319	46.76
375.53	79.53
375.74	93.87
375.951	100.01
376.161	89.77
376.372	155.3
376.582	59.05
376.793	61.1
377.003	140.97
377.214	59.05
377.424	95.91
377.635	38.57
377.845	50.86
378.055	69.29
378.266	52.91
378.476	50.86
378.686	81.58
378.897	126.63
379.107	116.39
379.317	30.38
379.528	22.19
379.738	118.44
379.948	11.95
380.158	13.99
380.369	38.57
380.579	-26.96
380.789	18.09
380.999	151.21
381.21	159.4
381.42	132.78
381.63	30.38
381.84	18.09
382.05	69.29
382.261	42.67
382.471	163.5
382.681	52.91
382.891	140.97
383.101	65.19
383.311	34.47
383.521	79.53
383.731	81.58
383.941	91.82
384.151	73.39
384.361	120.49
384.571	46.76
384.781	145.06
384.991	147.11
385.201	52.91
385.411	63.15
385.621	120.49
385.831	102.06
386.041	48.81
386.251	44.71
386.461	116.39
386.671	46.76
386.881	85.67
387.091	81.58
387.301	100.01
387.511	83.63
387.72	93.87
387.93	50.86
388.14	79.53
388.35	112.3
388.56	104.11
388.769	52.91
388.979	73.39
389.189	-20.82
389.399	46.76
389.609	77.48
389.818	179.88
390.028	110.25
390.238	132.78
390.447	54.95
390.657	159.4
390.867	128.68
391.076	52.91
391.286	48.81
391.496	87.72
391.705	34.47
391.915	81.58
392.125	106.15
392.334	140.97
392.544	73.39
392.753	75.43
392.963	132.78
393.172	122.54
393.382	138.92
393.591	128.68
393.801	61.1
394.01	110.25
394.22	65.19
394.429	75.43
394.639	95.91
394.848	110.25
395.058	11.95
395.267	85.67
395.477	128.68
395.686	155.3
395.895	229.03
396.105	255.65
396.314	171.69
396.524	120.49
396.733	122.54
396.942	108.2
397.152	159.4
397.361	138.92
397.57	69.29
397.78	171.69
397.989	181.93
398.198	122.54
398.407	157.35
398.617	128.68
398.826	175.78
399.035	140.97
399.244	108.2
399.453	140.97
399.663	102.06
399.872	128.68
400.081	75.43
400.29	110.25
400.499	157.35
400.708	175.78
400.917	173.74
401.127	169.64
401.336	95.91
401.545	204.46
401.754	183.98
401.963	134.82
402.172	224.94
402.381	145.06
402.59	145.06
402.799	128.68
403.008	214.7
403.217	157.35
403.426	214.7
403.635	183.98
403.844	149.16
404.053	136.87
404.262	87.72
404.471	210.6
404.68	181.93
404.888	224.94
405.097	161.45
405.306	245.41
405.515	235.18
405.724	179.88
405.933	190.12
406.142	245.41
406.35	196.26
406.559	339.62
406.768	222.89
406.977	288.42
407.185	216.74
407.394	284.33
407.603	231.08
407.812	319.14
408.02	341.67
408.229	308.9
408.438	290.47
408.646	368.29
408.855	319.14
409.064	364.2
409.272	267.94
409.481	321.19
409.69	411.3
409.898	456.36
410.107	399.01
410.315	380.58
410.524	442.02
410.733	456.36
410.941	429.73
411.15	476.84
411.358	554.66
411.567	478.88
411.775	505.51
411.984	534.18
412.192	568.99
412.401	550.56
412.609	587.43
412.818	628.39
413.026	657.06
413.234	681.63
413.443	736.93
413.651	700.06
413.86	741.02
414.068	820.89
414.276	816.8
414.485	808.61
414.693	935.58
414.901	831.13
415.11	802.46
415.318	939.68
415.526	1085.08
415.734	1066.65
415.943	1042.07
416.151	1072.79
416.359	1167
416.567	1064.6
416.776	1187.48
416.984	1291.93
417.192	1332.89
417.4	1425.04
417.608	1341.08
417.817	1445.52
418.025	1511.06
418.233	1527.44
418.441	1492.63
418.649	1586.83
418.857	1722
419.065	1740.43
419.273	1771.15
419.481	1879.69
419.689	1955.47
419.897	2043.53
420.105	2123.4
420.313	2094.73
420.521	2248.33
420.729	2207.37
420.937	2307.72
421.145	2395.78
421.353	2305.67
421.561	2557.57
421.769	2684.55
421.977	2901.63
422.185	2754.18
422.393	3032.7
422.601	3151.48
422.809	3032.7
423.017	3122.81
423.224	3290.74
423.432	3286.65
423.64	3321.46
423.848	3729.01
424.056	3513.97
424.263	3804.78
424.471	3774.07
424.679	3970.67
424.887	4189.8
425.094	4343.4
425.302	4286.06
425.51	4443.75
425.718	4611.68
425.925	4767.33
426.133	4988.51
426.341	5033.57
426.548	5314.14
426.756	5269.08
426.964	5412.44
427.171	5723.73
427.379	5830.23
427.586	5895.76
427.794	6139.47
428.001	6420.04
428.209	6858.31
428.417	6694.47
428.624	7181.89
428.832	7081.53
429.039	7016
429.247	6999.62
429.454	7716.4
429.662	8150.57
429.869	7734.84
430.076	8298.03
430.284	8013.36
430.491	8410.67
430.699	8824.36
430.906	8760.87
431.114	8920.61
431.321	9473.56
431.528	9616.92
431.736	10026.51
431.943	10464.78
432.15	10216.97
432.358	10571.27
432.565	10888.71
432.772	10944
432.979	11812.34
433.187	11703.8
433.394	11658.74
433.601	12455.4
433.808	12516.84
434.016	12506.6
434.223	12942.82
434.43	13606.36
434.637	13497.82
434.844	14505.42
435.052	14755.27
435.259	14761.42
435.466	14745.03
435.673	14816.71
435.88	15660.48
436.087	16627.12
436.294	16199.09
436.501	16065.97
436.708	16295.35
436.915	16807.34
437.122	17800.6
437.329	17526.18
437.537	18249.11
437.743	18517.39
437.95	18339.22
438.157	19180.93
438.364	20163.96
438.571	19961.21
438.778	20030.84
438.985	21808.48
439.192	20882.8
439.399	21577.06
439.606	21243.24
439.813	22287.7
440.02	23678.27
440.227	23506.24
440.433	23024.97
440.64	23786.82
440.847	24046.91
441.054	24259.9
441.261	25957.66
441.467	25695.52
441.674	25765.15
441.881	27079.95
442.088	27141.39
442.294	26696.98
442.501	27606.28
442.708	28034.3
442.914	29121.77
443.121	30295.26
443.328	29525.22
443.534	31470.79
443.741	30788.82
443.948	30164.19
444.154	32820.41
444.361	32337.09
444.568	32818.36
444.774	32642.23
444.981	32857.27
445.187	33744.04
445.394	35210.39
445.6	34628.76
445.807	38225
446.013	36269.19
446.22	37506.16
446.426	38888.54
446.633	38902.87
446.839	40045.64
447.046	38767.71
447.252	40993.85
447.459	40707.13
447.665	40477.76
447.871	42413.09
448.078	44596.23
448.284	41802.8
448.491	43045.91
448.697	44712.96
448.903	45493.24
449.11	45358.07
449.316	44856.32
449.522	45947.89
449.728	46930.91
449.935	47285.21
450.141	47250.39
450.347	48425.93
450.553	46881.76
450.76	47393.75
450.966	48671.68
451.172	48341.96
451.378	49494.97
451.584	48589.77
451.791	49638.33
451.997	49572.79
452.203	49531.83
452.409	50310.06
452.615	49544.12
452.821	47872.98
453.027	47455.19
453.233	49963.95
453.44	47848.4
453.646	48198.6
453.852	48708.55
454.058	49277.88
454.264	47680.47
454.47	48948.16
454.676	47528.92
454.882	48806.85
455.088	44846.08
455.294	45468.66
455.5	46341.1
455.705	46789.6
455.911	44608.51
456.117	44039.18
456.323	43217.94
456.529	41204.79
456.735	42687.52
456.941	41724.97
457.147	40981.56
457.352	39900.23
457.558	39339.09
457.764	39486.54
457.97	38653.02
458.176	37876.84
458.381	37864.55
458.587	35882.12
458.793	36019.33
458.999	34094.24
459.204	36275.33
459.41	35413.13
459.616	33123.51
459.821	32990.39
460.027	32974
460.233	32206.02
460.438	30596.31
460.644	30911.7
460.85	29471.98
461.055	29078.77
461.261	28869.87
461.466	26592.53
461.672	25982.24
461.878	28044.54
462.083	26084.64
462.289	25472.29
462.494	25240.87
462.7	24290.62
462.905	23426.37
463.111	24327.48
463.316	24444.21
463.522	24094.01
463.727	24200.51
463.932	23840.06
464.138	23723.33
464.343	23674.18
464.549	22934.86
464.754	23801.15
464.959	23641.41
465.165	23600.45
465.37	22560.08
465.575	21757.28
465.781	22748.5
465.986	22898
466.191	21966.17
466.397	21409.12
466.602	20561.26
466.807	21284.2
467.012	21562.72
467.218	21491.04
467.423	20823.4
467.628	20958.57
467.833	22084.95
468.038	21140.84
468.244	20749.68
468.449	21556.58
468.654	20923.76
468.859	20743.53
469.064	20540.79
469.269	19613.06
469.474	19807.61
469.679	20112.76
469.885	19854.72
470.09	19832.19
470.295	19670.4
470.5	19451.27
470.705	19230.09
470.91	19029.38
471.115	18593.17
471.32	19355.01
471.525	18562.45
471.73	18523.54
471.935	18236.82
472.139	17720.73
472.344	17962.39
472.549	17585.57
472.754	17573.28
472.959	17081.77
473.164	17139.11
473.369	16582.06
473.574	17386.91
473.778	17034.66
473.983	16608.69
474.188	16905.64
474.393	16004.53
474.598	16121.27
474.802	15838.65
475.007	15912.38
475.212	15572.41
475.417	15123.91
475.621	15029.7
475.826	15158.72
476.031	15031.75
476.235	14589.39
476.44	15039.94
476.645	14439.89
476.849	14370.26
477.054	14384.59
477.259	14257.62
477.463	14206.42
477.668	13704.67
477.872	13837.78
478.077	13739.48
478.282	13376.99
478.486	13381.09
478.691	13235.68
478.895	13020.64
479.1	12944.87
479.304	13157.86
479.509	12897.77
479.713	13030.88
479.918	12690.92
480.122	12367.34
480.326	12463.6
480.531	12684.78
480.735	12619.24
480.94	12324.33
481.144	12959.2
481.348	12099.06
481.553	12420.59
481.757	12094.96
481.961	12420.59
482.166	12348.91
482.37	12330.48
482.574	11992.56
482.778	12097.01
482.983	12627.43
483.187	11978.23
483.391	12226.03
483.595	12101.11
483.8	12162.55
484.004	11957.75
484.208	12238.32
484.412	12070.39
484.616	12162.55
484.821	12049.91
485.025	11892.21
485.229	12127.73
485.433	12099.06
485.637	12209.65
485.841	11865.59
486.045	11847.16
486.249	12201.46
486.453	12062.19
486.657	11959.8
486.861	12090.87
487.065	11806.2
487.269	11998.71
487.473	11757.05
487.677	12193.26
487.881	12252.66
488.085	11871.73
488.289	12097.01
488.493	12054
488.697	12088.82
488.901	12252.66
489.105	12035.57
489.309	12090.87
489.512	12160.5
489.716	12172.78
489.92	12148.21
490.124	12027.38
490.328	12348.91
490.531	12334.57
490.735	12307.95
490.939	12565.99
491.143	12146.16
491.346	12426.73
491.55	12586.47
491.754	12455.4
491.958	12598.76
492.161	12594.67
492.365	12629.48
492.569	12426.73
492.772	12637.67
492.976	12668.39
493.18	12733.93
493.383	12967.4
493.587	13037.03
493.79	13209.06
493.994	13084.13
494.197	13272.54
494.401	13323.74
494.605	13319.65
494.808	13477.34
495.012	13485.53
495.215	13600.22
495.419	13725.15
495.622	13589.98
495.825	13983.19
496.029	13970.9
496.232	14026.2
496.436	14028.24
496.639	14308.82
496.843	14276.05
497.046	14908.87
497.249	14829
497.453	14937.54
497.656	15130.05
497.859	15152.58
498.063	15150.53
498.266	15365.57
498.469	15467.97
498.673	15461.82
498.876	15764.92
499.079	16162.23
499.282	15990.2
499.485	16440.75
499.689	16420.27
499.892	16709.04
500.095	16684.46
500.298	17284.51
500.501	16883.11
500.705	17372.58
500.908	17319.33
501.111	17728.92
501.314	17903
501.517	18113.94
501.72	18255.25
501.923	18343.31
502.126	18679.18
502.329	18761.1
502.532	18730.38
502.735	19039.62
502.938	19576.19
503.141	19604.86
503.344	19871.1
503.547	19826.04
503.75	20266.36
503.953	20387.19
504.156	20692.33
504.359	20565.36
504.562	20747.63
504.765	21208.42
504.968	21773.66
505.17	21646.69
505.373	21622.11
505.576	22170.97
505.779	22226.26
505.982	22203.74
506.185	22830.41
506.387	22816.08
506.59	23371.08
506.793	23735.62
506.996	23676.23
507.198	24251.7
507.401	23895.36
507.604	24401.21
507.807	24599.86
508.009	24730.93
508.212	24997.17
508.415	25367.85
508.617	25433.38
508.82	25701.67
509.022	25640.23
509.225	26625.3
509.428	26821.91
509.63	26504.47
509.833	26637.59
510.035	27665.67
510.238	27096.33
510.44	27450.63
510.643	27702.53
510.845	28194.04
511.048	28421.37
511.25	28452.09
511.453	28312.83
511.655	29773.03
511.858	29000.94
512.06	29502.7
512.262	29797.6
512.465	29875.43
512.667	30579.93
512.87	30649.56
513.072	30983.38
513.274	31485.13
513.477	31345.87
513.679	31583.43
513.881	32152.77
514.084	32273.6
514.286	32255.17
514.488	32963.76
514.69	33385.65
514.893	34106.53
515.095	33825.96
515.297	34057.38
515.499	34393.25
515.701	34733.21
515.904	34608.28
516.106	35165.33
516.308	35234.96
516.51	35523.72
516.712	35671.18
516.914	36330.62
517.116	36785.27
517.318	36588.67
517.52	36480.13
517.722	37145.72
517.925	37465.2
518.127	37854.31
518.329	37850.22
518.531	37960.81
518.733	39070.81
518.935	38757.47
519.136	38931.54
519.338	39320.66
519.54	39707.72
519.742	39849.03
519.944	40053.83
520.146	40893.5
520.348	40889.4
520.55	41022.52
520.752	41458.74
520.954	41405.49
521.155	41655.34
521.357	42365.99
521.559	42259.49
521.761	43129.88
521.963	42773.53
522.164	43205.66
522.366	43185.18
522.568	43568.15
522.77	43852.81
522.971	44516.36
523.173	44424.2
523.375	44104.71
523.576	44096.52
523.778	44798.98
523.98	45046.78
524.181	45327.35
524.383	45601.78
524.584	45880.3
524.786	46025.71
524.988	45577.2
525.189	46414.82
525.391	46623.72
525.592	46601.19
525.794	46500.84
525.995	46566.37
526.197	46963.68
526.398	46750.69
526.6	47297.5
526.801	47229.91
527.003	47350.74
527.204	47659.99
527.406	48249.8
527.607	48049.1
527.808	48395.21
528.01	47954.89
528.211	48237.51
528.412	49279.93
528.614	48163.79
528.815	48499.65
529.016	49642.42
529.218	48507.85
529.419	49124.29
529.62	48841.67
529.822	49179.58
530.023	48989.12
530.224	49216.44
530.425	49206.2
530.626	49001.41
530.828	48788.42
531.029	49916.85
531.23	49263.55
531.431	48856
531.632	49122.24
531.833	49441.72
532.035	49433.53
532.236	49750.96
532.437	49802.16
532.638	49421.24
532.839	49855.41
533.04	49556.41
533.241	49331.13
533.442	50287.53
533.643	49447.86
533.844	49630.13
534.045	50092.97
534.246	49507.26
534.447	49884.08
534.648	49580.98
534.849	49664.95
535.05	49408.95
535.251	50185.13
535.451	49871.79
535.652	49994.67
535.853	49456.06
536.054	49390.52
536.255	50107.31
536.456	49456.06
536.657	50097.07
536.857	49660.85
537.058	49570.74
537.259	49640.37
537.46	49861.55
537.66	49738.68
537.861	49470.39
538.062	49333.18
538.263	49847.22
538.463	49648.57
538.664	49499.06
538.865	49705.91
539.065	49867.7
539.266	49056.7
539.466	49689.52
539.667	49533.88
539.868	49918.9
540.068	49265.59
540.269	49464.25
540.469	49441.72
540.67	49376.19
540.87	49365.95
541.071	49296.31
541.271	49632.18
541.472	49294.27
541.672	48999.36
541.873	49224.64
542.073	48729.03
542.274	49845.17
542.474	49451.96
542.675	48665.54
542.875	49646.52
543.075	49001.41
543.276	48704.45
543.476	49935.28
543.676	49396.66
543.877	49425.34
544.077	49320.89
544.277	49056.7
544.478	48798.66
544.678	49439.67
544.878	49339.32
545.078	48876.48
545.279	48460.74
545.479	48745.41
545.679	49015.74
545.879	48884.67
546.079	49095.61
546.28	48700.36
546.48	48126.92
546.68	49177.53
546.88	48980.93
547.08	48980.93
547.28	48638.92
547.48	48030.67
547.68	48843.71
547.88	48516.04
548.081	48614.34
548.281	48653.25
548.481	48257.99
548.681	48745.41
548.881	48980.93
549.081	48427.98
549.28	48384.97
549.48	48655.3
549.68	48376.78
549.88	48794.56
550.08	48335.82
550.28	48548.81
550.48	48511.94
550.68	48780.23
550.88	48427.98
551.08	48817.09
551.279	48432.07
551.479	47803.35
551.679	48444.36
551.879	48344.01
552.079	48323.53
552.278	48204.75
552.478	48002
552.678	48640.96
552.878	48389.06
553.077	48659.4
553.277	47872.98
553.477	48548.81
553.676	48184.27
553.876	47852.5
554.076	48192.46
554.275	48114.64
554.475	47920.08
554.674	47942.61
554.874	47991.76
555.074	47905.74
555.273	48053.2
555.473	48380.87
555.672	47594.45
555.872	47502.29
556.071	47889.36
556.271	48231.37
556.47	47606.74
556.67	47295.45
556.869	47467.48
557.068	47567.83
557.268	47303.64
557.467	47571.92
557.667	47578.07
557.866	47512.53
558.065	47324.12
558.265	47051.74
558.464	47418.33
558.663	47434.71
558.863	46509.03
559.062	47829.97
559.261	46848.99
559.461	47633.36
559.66	46840.8
559.859	47381.46
560.058	46799.84
560.258	46652.39
560.457	45986.8
560.656	46853.09
560.855	46468.07
561.054	47287.26
561.253	46044.14
561.453	46607.33
561.652	46517.22
561.851	47180.76
562.05	46029.8
562.249	46105.58
562.448	46783.46
562.647	46353.38
562.846	46009.32
563.045	46298.09
563.244	45865.97
563.443	46545.89
563.642	45329.4
563.841	45896.69
564.04	45353.97
564.239	46130.15
564.438	45880.3
564.637	45822.96
564.836	45677.55
565.035	45120.51
565.234	45675.51
565.432	45364.21
565.631	45034.49
565.83	45433.85
566.029	44973.05
566.228	45425.65
566.427	44878.85
566.625	44753.92
566.824	44676.1
567.023	44956.67
567.222	44213.26
567.42	45122.55
567.619	44477.44
567.818	44571.65
568.016	44475.4
568.215	44690.43
568.414	44323.85
568.612	44545.03
568.811	43975.69
569.01	44147.72
569.208	43265.05
569.407	44289.03
569.605	43123.74
569.804	43891.72
570.002	43572.24
570.201	43801.61
570.4	43496.47
570.598	43207.7
570.797	43219.99
570.995	43219.99
571.193	42667.04
571.392	43187.22
571.59	42902.56
571.789	43035.67
571.987	42859.55
572.186	42550.31
572.384	42169.38
572.582	42576.93
572.781	42730.53
572.979	41839.66
573.177	42370.08
573.376	42484.77
573.574	41974.83
573.772	42298.41
573.971	41921.58
574.169	41559.09
574.367	41759.79
574.565	41823.28
574.763	41663.53
574.962	41544.75
575.16	41200.69
575.358	41430.07
575.556	41122.87
575.754	41223.22
575.952	40977.47
576.151	40922.17
576.349	40709.18
576.547	40631.36
576.745	40799.29
576.943	40883.26
577.141	40455.23
577.339	40580.16
577.537	40660.03
577.735	40508.48
577.933	40324.16
578.131	40158.28
578.329	39881.8
578.527	39545.94
578.725	40008.78
578.923	39988.3
579.121	39828.55
579.319	39496.78
579.516	40006.73
579.714	39189.59
579.912	39437.39
580.11	39296.08
580.308	39191.64
580.506	39113.81
580.704	38818.91
580.901	39236.69
581.099	38874.2
581.297	38466.66
581.495	38362.21
581.692	38913.11
581.89	38202.47
582.088	38911.06
582.285	38087.78
582.483	38444.13
582.681	37895.27
582.878	37772.39
583.076	37475.44
583.274	38237.28
583.471	37461.1
583.669	38055.01
583.866	37534.83
584.064	37117.04
584.262	37041.27
584.459	37272.69
584.657	37340.27
584.854	37104.76
585.052	36193.41
585.249	37272.69
585.447	36879.48
585.644	36355.2
585.841	36514.94
586.039	37059.7
586.236	36371.58
586.434	36082.82
586.631	36269.19
586.828	36000.9
587.026	36306.05
587.223	36037.76
587.42	35583.12
587.618	35583.12
587.815	35533.96
588.012	35562.64
588.21	35302.54
588.407	35460.24
588.604	35646.6
588.801	34956.44
588.999	35286.16
589.196	34684.06
589.393	34741.4
589.59	34598.04
589.787	34731.16
589.984	34516.12
590.182	34550.94
590.379	34385.05
590.576	34147.49
590.773	34065.57
590.97	33705.13
591.167	34389.15
591.364	33883.3
591.561	33756.33
591.758	33559.72
591.955	33572.01
592.152	33518.76
592.349	33084.59
592.546	33789.1
592.743	33385.65
592.94	33264.82
593.137	33508.52
593.334	33111.22
593.531	32668.86
593.727	32787.64
593.924	32748.73
594.121	32302.27
594.318	32351.42
594.515	32195.78
594.712	32537.79
594.908	31956.16
595.105	32296.13
595.302	31794.37
595.499	32103.62
595.696	31694.02
595.892	31450.31
596.089	31902.92
596.286	31857.86
596.482	31460.55
596.679	31276.24
596.876	31175.89
597.072	30731.48
597.269	31122.64
597.466	30786.77
597.662	30917.84
597.859	31065.3
598.055	30807.25
598.252	30272.73
598.448	30667.99
598.645	30330.08
598.841	30098.66
599.038	30747.86
599.234	30199.01
599.431	30250.21
599.627	29779.17
599.824	30127.33
600.02	29838.56
600.217	29693.16
600.413	29359.34
600.609	29183.21
600.806	29060.34
601.002	29353.19
601.198	29177.07
601.395	28814.58
601.591	29154.54
601.787	28908.79
601.984	28714.23
602.18	29215.98
602.376	28656.89
602.572	28769.52
602.769	28194.04
602.965	28105.98
603.161	28196.09
603.357	27985.15
603.553	28132.61
603.75	28026.11
603.946	27970.82
604.142	28079.36
604.338	27716.87
604.534	27872.51
604.73	27546.89
604.926	27532.55
605.122	27774.21
605.318	27583.75
605.514	27227.4
605.71	27006.22
605.906	27340.04
606.102	27176.2
606.298	26971.41
606.494	26449.18
606.69	26846.48
606.886	26948.88
607.082	26883.34
607.278	26758.42
607.474	26389.78
607.67	26817.81
607.866	26440.98
608.062	26785.04
608.257	26209.56
608.453	26291.48
608.649	26426.65
608.845	26293.53
609.041	26092.83
609.236	26029.34
609.432	26166.56
609.628	25908.51
609.824	25939.23
610.019	25550.12
610.215	25507.11
610.411	25875.74
610.606	25558.31
610.802	25589.03
610.998	25726.24
611.193	25546.02
611.389	25419.05
611.584	25543.97
611.78	25212.2
611.976	25349.42
612.171	25324.84
612.367	25302.31
612.562	25064.75
612.758	24771.89
612.953	25048.36
613.149	25099.56
613.344	24773.94
613.539	25158.95
613.735	24794.42
613.93	24898.86
614.126	24927.53
614.321	25105.71
614.517	24837.42
614.712	24644.91
614.907	24261.94
615.103	24841.52
615.298	24276.28
615.493	24923.44
615.688	24352.06
615.884	24661.3
616.079	24096.06
616.274	24317.24
616.47	24085.82
616.665	24263.99
616.86	24071.48
617.055	23950.65
617.25	24059.2
617.445	23815.49
617.641	23469.38
617.836	23926.08
618.031	23606.59
618.226	23827.78
618.421	23387.46
618.616	23622.98
618.811	23047.5
619.006	23508.29
619.201	22740.3
619.396	23072.07
619.591	22744.4
619.786	23061.83
619.981	22762.83
620.176	22625.62
620.371	22334.81
620.566	22646.1
620.761	22037.85
620.956	22691.15
621.151	22240.6
621.346	22097.24
621.541	21785.95
621.735	21906.78
621.93	21667.17
622.125	21771.61
622.32	21413.22
622.515	21857.63
622.709	21409.12
622.904	21224.81
623.099	21108.07
623.294	21460.32
623.488	20655.47
623.683	20979.05
623.878	20669.81
624.072	20651.38
624.267	20618.61
624.462	20430.19
624.656	20278.65
624.851	19989.88
625.046	20018.55
625.24	19926.39
625.435	19871.1
625.629	19772.8
625.824	19672.45
626.018	19463.55
626.213	19234.18
626.407	19236.23
626.602	19070.34
626.796	18947.47
626.991	19176.84
627.185	18804.11
627.38	18701.71
627.574	18822.54
627.768	18146.71
627.963	18376.08
628.157	18181.53
628.352	18230.68
628.546	18156.95
628.74	18118.04
628.935	18013.59
629.129	17802.65
629.323	17466.78
629.517	17487.26
629.712	17474.98
629.906	17309.09
630.1	17382.82
630.294	17370.53
630.489	17247.65
630.683	17151.4
630.877	16793
631.071	17067.43
631.265	17032.61
631.459	16780.71
631.653	16477.62
631.848	16549.29
632.042	16567.73
632.236	16426.42
632.43	16149.94
632.624	16455.09
632.818	16244.15
633.012	15963.58
633.206	15852.98
633.4	15865.27
633.594	15599.04
633.788	15621.56
633.982	15754.68
634.176	15666.62
634.369	15429.06
634.563	15369.66
634.757	15134.15
634.951	15259.07
635.145	15158.72
635.339	15263.17
635.533	15109.57
635.726	14992.84
635.92	14575.05
636.114	14720.46
636.308	14894.54
636.501	14593.48
636.695	14734.79
636.889	14288.34
637.083	14312.91
637.276	14298.58
637.47	14196.18
637.664	14130.64
637.857	14253.52
638.051	14091.73
638.244	13905.37
638.438	13843.93
638.632	13862.36
638.825	13497.82
639.019	13618.65
639.212	13456.86
639.406	13428.19
639.599	13356.51
639.793	13432.29
639.986	13233.63
640.18	13043.17
640.373	12963.3
640.567	12815.85
640.76	12912.1
640.954	12611.05
641.147	12879.33
641.34	12492.27
641.534	12631.53
641.727	12699.11
641.92	12606.95
642.114	12465.64
642.307	12615.15
642.5	12316.14
642.694	12307.95
642.887	12273.14
643.08	12099.06
643.273	12015.09
643.467	11902.45
643.66	11957.75
643.853	11845.11
644.046	11410.94
644.239	11992.56
644.432	11578.87
644.626	11527.67
644.819	11668.98
645.012	11599.35
645.205	11400.7
645.398	11525.63
645.591	11187.71
645.784	11261.44
645.977	11341.31
646.17	11060.74
646.363	11120.13
646.556	10849.8
646.749	10993.15
646.942	10989.06
647.135	10745.35
647.328	10776.07
647.521	10716.68
647.714	10647.05
647.907	10561.03
648.099	10489.35
648.292	10362.38
648.485	10522.12
648.678	10423.82
648.871	10315.28
649.064	10243.6
649.256	10452.49
649.449	9993.75
649.642	10192.4
649.835	10006.03
650.027	10020.37
650.22	9997.84
650.413	9985.55
650.605	9877.01
650.798	9805.33
650.991	9610.78
651.183	9756.18
651.376	9489.95
651.568	9668.12
651.761	9573.91
651.954	9408.03
652.146	9326.11
652.339	9319.96
652.531	9334.3
652.724	9270.81
652.916	8963.62
653.109	9190.94
653.301	9080.35
653.494	9168.41
653.686	8627.75
653.879	9041.44
654.071	8975.91
654.263	8760.87
654.456	8936.99
654.648	8793.64
654.84	8732.2
655.033	8576.55
655.225	8576.55
655.417	8691.24
655.61	8508.97
655.802	8515.11
655.994	8549.93
656.186	8412.71
656.379	8453.67
656.571	8308.27
656.763	8351.28
656.955	8109.61
657.148	8183.34
657.34	8029.74
657.532	8080.94
657.724	8076.85
657.916	8087.09
658.108	8082.99
658.3	7747.12
658.492	7953.97
658.684	7718.45
658.876	7884.34
659.068	7861.81
659.26	7749.17
659.452	7601.72
659.644	7667.25
659.836	7460.41
660.028	7411.26
660.22	7515.7
660.412	7568.95
660.604	7466.55
660.796	7335.48
660.988	7341.63
661.18	7296.57
661.372	7171.65
661.563	7257.66
661.755	7009.86
661.947	7110.21
662.139	7147.07
662.331	7063.1
662.522	7032.38
662.714	7220.8
662.906	6827.59
663.097	6839.87
663.289	6968.9
663.481	6913.6
663.673	6764.1
663.864	6667.84
664.056	6616.65
664.247	6866.5
664.439	6596.17
664.631	6721.09
664.822	6663.75
665.014	6633.03
665.205	6387.27
665.397	6438.47
665.588	6493.77
665.78	6493.77
665.971	6454.86
666.163	6346.31
666.354	6370.89
666.546	6282.83
666.737	6307.4
666.929	6293.07
667.12	6190.67
667.311	6243.92
667.503	6100.56
667.694	6084.17
667.885	6035.02
668.077	6147.66
668.268	5996.11
668.459	5848.66
668.651	5934.67
668.842	5932.62
669.033	5936.72
669.224	5961.3
669.416	5895.76
669.607	5932.62
669.798	5801.55
669.989	5791.31
670.18	5774.93
670.371	5600.85
670.563	5789.27
670.754	5639.76
670.945	5453.4
671.136	5645.91
671.327	5576.28
671.518	5623.38
671.709	5541.46
671.9	5592.66
672.091	5346.91
672.282	5453.4
672.473	5412.44
672.664	5381.72
672.855	5236.31
673.046	5324.38
673.237	5449.3
673.428	5383.77
673.619	5316.19
673.809	5269.08
674	5166.68
674.191	5201.5
674.382	5189.21
674.573	5125.72
674.764	5066.33
674.954	5248.6
675.145	5041.76
675.336	5181.02
675.527	5011.04
675.717	4933.22
675.908	4953.7
676.099	5148.25
676.289	4830.82
676.48	4955.74
676.671	5025.37
676.861	4947.55
677.052	5049.95
677.243	4974.17
677.433	4922.98
677.624	4978.27
677.814	4922.98
678.005	4990.56
678.195	4787.81
678.386	4900.45
678.576	4691.56
678.767	4775.52
678.957	4628.07
679.148	4804.19
679.338	4769.38
679.529	4724.32
679.719	4830.82
679.909	4806.24
680.1	4605.54
680.29	4656.74
680.481	4642.4
680.671	4679.27
680.861	4609.64
681.052	4562.53
681.242	4570.72
681.432	4572.77
681.622	4648.55
681.813	4697.7
682.003	4480.61
682.193	4568.68
682.383	4597.35
682.573	4312.68
682.764	4499.05
682.954	4562.53
683.144	4363.88
683.334	4453.99
683.524	4333.16
683.714	4363.88
683.904	4380.26
684.094	4441.7
684.284	4329.06
684.474	4343.4
684.664	4396.65
684.854	4394.6
685.044	4370.02
685.234	4308.58
685.424	4308.58
685.614	4243.05
685.804	4210.28
685.994	4263.53
686.184	4296.3
686.374	4306.54
686.564	4126.32
686.753	4130.41
686.943	4081.26
687.133	4146.8
687.323	4079.21
687.513	4005.49
687.702	4060.78
687.892	4093.55
688.082	4019.82
688.272	4138.6
688.461	3999.34
688.651	3972.72
688.841	3905.14
689.03	3821.17
689.22	3774.07
689.41	3829.36
689.599	3819.12
689.789	3745.39
689.979	3772.02
690.168	3790.45
690.358	3778.16
690.547	3823.22
690.737	3769.97
690.926	3724.91
691.116	3618.42
691.305	3831.41
691.495	3671.67
691.684	3669.62
691.874	3643
692.063	3561.08
692.252	3757.68
692.442	3638.9
692.631	3624.56
692.82	3579.51
693.01	3534.45
693.199	3587.7
693.388	3450.49
693.578	3507.83
693.767	3481.21
693.956	3430.01
694.146	3526.26
694.335	3407.48
694.524	3346.04
694.713	3561.08
694.902	3518.07
695.092	3356.28
695.281	3251.83
695.47	3409.53
695.659	3307.13
695.848	3405.43
696.037	3251.83
696.226	3305.08
696.415	3296.89
696.604	3282.55
696.793	3276.41
696.982	3184.25
697.171	3376.76
697.36	3315.32
697.549	3270.26
697.738	3303.03
697.927	3206.78
698.116	3292.79
698.305	3239.55
698.494	3286.65
698.683	3286.65
698.872	3374.71
699.061	3085.95
699.25	3225.21
699.438	3139.19
699.627	3280.5
699.816	3251.83
700.005	3200.63
700.193	3272.31
700.382	3049.08
700.571	3251.83
700.76	3202.68
700.948	3198.59
701.137	3147.39
701.326	3192.44
701.514	3126.91
701.703	3184.25
701.892	3210.87
702.08	3350.14
702.269	3108.48
702.457	3214.97
702.646	3133.05
702.834	3098.24
703.023	3139.19
703.212	3159.67
703.4	3139.19
703.589	3075.71
703.777	3032.7
703.965	3014.27
704.154	3044.99
704.342	3133.05
704.531	3085.95
704.719	3128.95
704.907	3151.48
705.096	3141.24
705.284	3055.23
705.472	3196.54
705.661	3024.51
705.849	3073.66
706.037	3036.8
706.226	3079.8
706.414	3073.66
706.602	3126.91
706.79	2977.41
706.979	3071.61
707.167	3106.43
707.355	2965.12
707.543	2963.07
707.731	2936.45
707.919	2946.69
708.107	2934.4
708.296	2893.44
708.484	2942.59
708.672	2950.78
708.86	2911.87
709.048	2891.39
709.236	3069.56
709.424	2973.31
709.612	3024.51
709.8	2981.5
709.988	2977.41
710.176	2989.69
710.364	2930.3
710.551	2969.21
710.739	3059.32
710.927	2956.93
711.115	3044.99
711.303	3010.17
711.491	2930.3
711.679	2893.44
711.866	2897.53
712.054	2934.4
712.242	2872.96
712.43	2995.84
712.617	3012.22
712.805	2930.3
712.993	2942.59
713.181	2897.53
713.368	2889.34
713.556	2846.34
713.744	2885.25
713.931	2956.93
714.119	2918.01
714.306	2848.38
714.494	2969.21
714.682	2844.29
714.869	2940.54
715.057	2940.54
715.244	2772.61
715.432	2987.65
715.619	2848.38
715.807	2905.73
715.994	2883.2
716.182	2832
716.369	2932.35
716.556	2868.86
716.744	2770.56
716.931	2832
717.119	2868.86
717.306	2776.7
717.493	2838.14
717.681	2827.9
717.868	2862.72
718.055	2870.91
718.242	2891.39
718.43	2797.18
718.617	2918.01
718.804	2739.84
718.991	2858.62
719.179	2721.41
719.366	2844.29
719.553	2754.18
719.74	2846.34
719.927	2707.07
720.114	2899.58
720.301	2829.95
720.488	2727.55
720.676	2723.46
720.863	2832
721.05	2680.45
721.237	2786.94
721.424	2778.75
721.611	2741.89
721.798	2690.69
721.985	2678.4
722.172	2772.61
722.358	2655.87
722.545	2762.37
722.732	2770.56
722.919	2725.51
723.106	2647.68
723.293	2793.09
723.48	2576
723.667	2713.22
723.853	2748.03
724.04	2776.7
724.227	2774.66
724.414	2768.51
724.6	2655.87
724.787	2731.65
724.974	2651.78
725.161	2700.93
725.347	2731.65
725.534	2788.99
725.72	2715.27
725.907	2535.04
726.094	2715.27
726.28	2786.94
726.467	2662.02
726.653	2539.14
726.84	2635.39
727.027	2711.17
727.213	2576
727.4	2737.79
727.586	2619.01
727.773	2666.11
727.959	2668.16
728.145	2576
728.332	2694.79
728.518	2586.24
728.705	2735.74
728.891	2557.57
729.077	2590.34
729.264	2459.27
729.45	2592.39
729.636	2629.25
729.823	2627.2
730.009	2563.72
730.195	2551.43
730.382	2510.47
730.568	2647.68
730.754	2473.6
730.94	2565.76
731.126	2625.15
731.313	2645.63
731.499	2588.29
731.685	2418.31
731.871	2563.72
732.057	2479.75
732.243	2489.99
732.429	2645.63
732.615	2571.91
732.801	2500.23
732.987	2465.41
733.173	2549.38
733.359	2586.24
733.545	2514.56
733.731	2391.69
733.917	2446.98
734.103	2498.18
734.289	2539.14
734.475	2596.48
734.661	2559.62
734.847	2506.37
735.033	2477.7
735.219	2541.19
735.404	2500.23
735.59	2422.41
735.776	2373.25
735.962	2385.54
736.148	2428.55
736.333	2514.56
736.519	2498.18
736.705	2428.55
736.89	2440.84
737.076	2387.59
737.262	2416.26
737.447	2344.58
737.633	2389.64
737.819	2199.18
738.004	2451.08
738.19	2385.54
738.375	2293.38
738.561	2393.73
738.747	2303.62
738.932	2385.54
739.118	2418.31
739.303	2272.9
739.489	2401.93
739.674	2350.73
739.859	2195.08
740.045	2326.15
740.23	2281.1
740.416	2311.82
740.601	2277
740.786	2240.14
740.972	2195.08
741.157	2242.18
741.342	2227.85
741.528	2190.99
741.713	2301.58
741.898	2283.14
742.084	2209.42
742.269	2217.61
742.454	2285.19
742.639	2244.23
742.824	2113.16
743.01	2117.26
743.195	2092.68
743.38	2211.46
743.565	2147.98
743.75	2086.54
743.935	2182.79
744.12	2055.82
744.305	2135.69
744.49	2041.48
744.675	2002.57
744.86	2043.53
745.045	2066.06
745.23	1982.09
745.415	2029.2
745.6	2082.44
745.785	1959.56
745.97	1984.14
746.155	2000.52
746.34	2074.25
746.525	2008.72
746.71	2039.44
746.895	1877.65
747.079	1947.28
747.264	1924.75
747.449	1990.28
747.634	1863.31
747.819	1867.41
748.003	1873.55
748.188	1906.32
748.373	1851.02
748.557	1898.13
748.742	1818.25
748.927	1877.65
749.111	1785.49
749.296	1877.65
749.481	1859.21
749.665	1777.3
749.85	1783.44
750.034	1699.47
750.219	1668.75
750.404	1808.02
750.588	1726.1
750.773	1674.9
750.957	1607.31
751.141	1642.13
751.326	1644.18
751.51	1625.75
751.695	1642.13
751.879	1642.13
752.064	1722
752.248	1603.22
752.432	1576.59
752.617	1500.82
752.801	1572.5
752.985	1595.03
753.17	1580.69
753.354	1613.46
753.538	1545.88
753.722	1504.92
753.907	1496.72
754.091	1525.4
754.275	1535.64
754.459	1373.85
754.643	1447.57
754.828	1490.58
755.012	1410.71
755.196	1488.53
755.38	1537.68
755.564	1404.57
755.748	1388.18
755.932	1490.58
756.116	1375.89
756.3	1382.04
756.484	1328.79
756.668	1412.76
756.852	1371.8
757.036	1326.74
757.22	1263.26
757.404	1406.61
757.588	1363.61
757.772	1253.02
757.956	1365.65
758.14	1324.69
758.323	1361.56
758.507	1279.64
758.691	1281.69
758.875	1220.25
759.059	1214.1
759.242	1218.2
759.426	1306.26
759.61	1181.34
759.794	1185.43
759.977	1134.23
760.161	1382.04
760.345	1193.62
760.528	1150.62
760.712	1134.23
760.895	1226.39
761.079	1230.49
761.263	1162.9
761.446	1078.94
761.63	1232.54
761.813	1107.61
761.997	1103.51
762.18	1183.38
762.364	1062.55
762.547	1017.5
762.731	1164.95
762.914	1068.7
763.098	1087.13
763.281	1033.88
763.464	1060.51
763.648	1058.46
763.831	1017.5
764.015	1015.45
764.198	1105.56
764.381	1117.85
764.564	1009.31
764.748	1064.6
764.931	1042.07
765.114	1007.26
765.297	1013.4
765.481	994.97
765.664	978.59
765.847	1003.16
766.03	1029.79
766.213	919.2
766.397	900.76
766.58	929.44
766.763	984.73
766.946	974.49
767.129	1046.17
767.312	947.87
767.495	986.78
767.678	962.2
767.861	1019.55
768.044	958.11
768.227	1046.17
768.41	994.97
768.593	949.92
768.776	933.53
768.959	923.29
769.142	925.34
769.324	939.68
769.507	939.68
769.69	902.81
769.873	960.16
770.056	911
770.239	919.2
770.421	935.58
770.604	796.32
770.787	951.96
770.97	861.85
771.152	827.04
771.335	941.72
771.518	837.28
771.7	861.85
771.883	913.05
772.066	845.47
772.248	839.33
772.431	951.96
772.613	798.37
772.796	861.85
772.978	843.42
773.161	1001.12
773.343	863.9
773.526	790.17
773.708	747.17
773.891	775.84
774.073	851.61
774.256	812.7
774.438	806.56
774.621	814.75
774.803	870.05
774.985	849.57
775.168	714.4
775.35	822.94
775.532	810.65
775.715	659.1
775.897	835.23
776.079	751.26
776.261	708.26
776.444	687.78
776.626	753.31
776.808	663.2
776.99	743.07
777.173	788.13
777.355	679.58
777.537	704.16
777.719	736.93
777.901	736.93
778.083	718.5
778.265	646.82
778.447	810.65
778.629	730.78
778.811	659.1
778.993	681.63
779.175	683.68
779.357	642.72
779.539	652.96
779.721	612
779.903	644.77
780.085	583.33
780.267	620.19
780.449	671.39
780.631	595.62
780.812	659.1
780.994	566.95
781.176	505.51
781.358	603.81
781.54	632.48
781.721	603.81
781.903	568.99
782.085	523.94
782.267	587.43
782.448	616.1
782.63	609.95
782.812	511.65
782.993	495.27
783.175	540.32
783.357	468.64
783.538	591.52
783.72	444.07
783.901	476.84
784.083	528.03
784.264	515.75
784.446	497.32
784.627	487.08
784.809	571.04
784.99	536.23
785.172	444.07
785.353	460.45
785.535	519.84
785.716	487.08
785.897	566.95
786.079	538.27
786.26	507.55
786.441	528.03
786.623	558.75
786.804	439.97
786.985	450.21
787.167	480.93
787.348	450.21
787.529	405.16
787.71	452.26
787.891	495.27
788.073	456.36
788.254	341.67
788.435	509.6
788.616	429.73
788.797	409.25
788.978	450.21
789.159	364.2
789.34	444.07
789.522	347.81
789.703	362.15
789.884	386.72
790.065	413.35
790.246	409.25
790.427	403.11
790.607	423.59
790.788	452.26
790.969	343.72
791.15	433.83
791.331	386.72
791.512	321.19
791.693	360.1
791.874	378.53
792.054	376.48
792.235	333.48
792.416	364.2
792.597	333.48
792.778	337.57
792.958	366.25
793.139	284.33
793.32	335.53
793.5	366.25
793.681	308.9
793.862	419.49
794.042	411.3
794.223	308.9
794.404	327.33
794.584	358.05
794.765	319.14
794.945	374.44
795.126	292.52
795.306	341.67
795.487	265.89
795.667	278.18
795.848	362.15
796.028	292.52
796.209	327.33
796.389	351.91
796.57	226.98
796.75	317.09
796.93	276.13
797.111	300.71
797.291	325.29
797.471	272.04
797.652	231.08
797.832	329.38
798.012	356.01
798.192	263.85
798.373	282.28
798.553	237.22
798.733	323.24
798.913	292.52
799.093	319.14
799.274	233.13
799.454	214.7
799.634	249.51
799.814	253.61
799.994	278.18
800.174	231.08
800.354	214.7
800.534	251.56
800.714	292.52
800.894	302.76
801.074	231.08
801.254	310.95
801.434	333.48
801.614	282.28
801.794	155.3
801.974	614.05
802.154	259.75
802.334	315.05
802.514	122.54
802.693	220.84
802.873	282.28
803.053	335.53
803.233	224.94
803.413	290.47
803.592	243.37
803.772	210.6
803.952	247.46
804.131	243.37
804.311	222.89
804.491	206.5
804.67	237.22
804.85	216.74
805.03	224.94
805.209	276.13
805.389	167.59
805.568	210.6
805.748	282.28
805.928	241.32
806.107	284.33
806.287	257.7
806.466	265.89
806.646	200.36
806.825	280.23
807.004	165.54
807.184	202.41
807.363	206.5
807.543	251.56
807.722	173.74
807.901	214.7
808.081	247.46
808.26	181.93
808.439	251.56
808.619	233.13
808.798	147.11
808.977	173.74
809.156	267.94
809.336	212.65
809.515	210.6
809.694	181.93
809.873	235.18
810.052	134.82
810.231	267.94
810.411	237.22
810.59	237.22
810.769	157.35
810.948	208.55
811.127	233.13
811.306	171.69
811.485	204.46
811.664	167.59
811.843	138.92
812.022	161.45
812.201	143.02
812.38	206.5
812.559	204.46
812.737	196.26
812.916	171.69
813.095	157.35
813.274	177.83
813.453	226.98
813.632	167.59
813.811	190.12
813.989	85.67
814.168	206.5
814.347	114.34
814.526	188.07
814.704	114.34
814.883	255.65
815.062	140.97
815.24	194.22
815.419	130.73
815.598	220.84
815.776	112.3
815.955	126.63
816.133	153.26
816.312	91.82
816.49	179.88
816.669	116.39
816.847	186.02
817.026	196.26
817.204	136.87
817.383	130.73
817.561	171.69
817.74	183.98
817.918	97.96
818.097	192.17
818.275	175.78
818.453	145.06
818.632	83.63
818.81	140.97
818.988	169.64
819.167	149.16
819.345	120.49
819.523	124.58
819.701	100.01
819.879	126.63
820.058	42.67
820.236	186.02
820.414	190.12
820.592	153.26
820.77	218.79
820.948	136.87
821.127	165.54
821.305	11.95
821.483	63.15
821.661	147.11
821.839	114.34
822.017	147.11
822.195	85.67
822.373	194.22
822.551	169.64
822.729	177.83
822.907	122.54
823.085	73.39
823.262	173.74
823.44	179.88
823.618	108.2
823.796	104.11
823.974	153.26
824.152	118.44
824.329	13.99
824.507	161.45
824.685	143.02
824.863	120.49
825.04	173.74
825.218	165.54
825.396	81.58
825.574	112.3
825.751	108.2
825.929	126.63
826.107	42.67
826.284	163.5
826.462	157.35
826.639	91.82
826.817	102.06
826.994	112.3
827.172	114.34
827.349	83.63
827.527	36.52
827.704	120.49
827.882	91.82
828.059	97.96
828.237	110.25
828.414	104.11
828.591	61.1
828.769	30.38
828.946	132.78
829.124	126.63
829.301	110.25
829.478	118.44
829.655	126.63
829.833	175.78
830.01	24.23
830.187	153.26
830.364	97.96
830.542	145.06
830.719	93.87
830.896	140.97
831.073	100.01
831.25	179.88
831.427	116.39
831.604	93.87
831.782	65.19
831.959	138.92
832.136	65.19
832.313	169.64
832.49	42.67
832.667	91.82
832.844	116.39
833.021	122.54
833.198	9.9
833.374	59.05
833.551	194.22
833.728	165.54
833.905	130.73
834.082	71.34
834.259	93.87
834.436	87.72
834.612	52.91
834.789	116.39
834.966	122.54
835.143	132.78
835.319	48.81
835.496	71.34
835.673	106.15
835.85	190.12
836.026	100.01
836.203	120.49
836.38	67.24
836.556	112.3
836.733	75.43
836.909	151.21
837.086	69.29
837.262	42.67
837.439	93.87
837.616	63.15
837.792	18.09
837.968	65.19
838.145	-10.58
838.321	145.06
838.498	89.77
838.674	116.39
838.851	140.97
839.027	40.62
839.203	118.44
839.38	126.63
839.556	32.43
839.732	116.39
839.909	50.86
840.085	118.44
840.261	79.53
840.437	34.47
840.614	128.68
840.79	44.71
840.966	110.25
841.142	85.67
841.318	36.52
841.494	100.01
841.671	126.63
841.847	124.58
842.023	79.53
842.199	87.72
842.375	18.09
842.551	65.19
842.727	61.1
842.903	71.34
843.079	26.28
843.255	95.91
843.431	102.06
843.607	73.39
843.783	85.67
843.959	38.57
844.134	36.52
844.31	122.54
844.486	30.38
844.662	122.54
844.838	63.15
845.013	106.15
845.189	50.86
845.365	104.11
845.541	91.82
845.716	30.38
845.892	112.3
846.068	-14.68
846.244	71.34
846.419	71.34
846.595	61.1
846.77	46.76
846.946	73.39
847.122	89.77
847.297	54.95
847.473	65.19
847.648	52.91
847.824	52.91
847.999	22.19
848.175	108.2
848.35	54.95
848.526	126.63
848.701	52.91
848.876	28.33
849.052	116.39
849.227	89.77
849.403	-2.39
849.578	7.85
849.753	63.15
849.929	122.54
850.104	-76.12
850.279	57
850.454	126.63
850.63	100.01
850.805	-0.34
850.98	42.67
851.155	18.09
851.33	42.67
851.505	9.9
851.681	116.39
851.856	75.43
852.031	69.29
852.206	28.33
852.381	75.43
852.556	73.39
852.731	155.3
852.906	32.43
853.081	75.43
853.256	75.43
853.431	-53.59
853.606	-14.68
853.781	32.43
853.956	102.06
854.131	57
854.305	11.95
854.48	104.11
854.655	-4.44
854.83	1.71
855.005	46.76
855.18	91.82
855.354	128.68
855.529	46.76
855.704	22.19
855.879	38.57
856.053	5.8
856.228	54.95
856.403	24.23
856.577	65.19
856.752	52.91
856.926	38.57
857.101	32.43
857.276	85.67
857.45	22.19
857.625	22.19
857.799	18.09
857.974	50.86
858.148	1.71
858.323	50.86
858.497	32.43
858.672	24.23
858.846	122.54
859.02	22.19
859.195	13.99
859.369	-31.06
859.543	91.82
859.718	-8.53
859.892	42.67
860.066	93.87
860.241	-16.73
860.415	-8.53
860.589	61.1
860.763	32.43
860.938	48.81
861.112	30.38
861.286	28.33
861.46	79.53
861.634	5.8
861.808	77.48
861.982	7.85
862.157	5.8
862.331	5.8
862.505	1.71
862.679	36.52
862.853	26.28
863.027	83.63
863.201	91.82
863.375	22.19
863.549	16.04
863.722	71.34
863.896	57
864.07	-6.49
864.244	118.44
864.418	28.33
864.592	38.57
864.766	24.23
864.939	104.11
865.113	93.87
865.287	38.57
865.461	5.8
865.634	44.71
865.808	26.28
865.982	38.57
866.156	-18.77
866.329	-8.53
866.503	3.75
866.676	63.15
866.85	9.9
867.024	-2.39
867.197	30.38
867.371	69.29
867.544	38.57
867.718	9.9
867.891	73.39
868.065	1.71
868.238	26.28
868.412	50.86
868.585	-8.53
868.759	32.43
868.932	44.71
869.105	75.43
869.279	-8.53
869.452	36.52
869.625	-6.49
869.799	-20.82
869.972	9.9
870.145	63.15
870.319	54.95
870.492	52.91
870.665	-31.06
870.838	-26.96
871.011	9.9
871.185	24.23
871.358	-4.44
871.531	34.47
871.704	-10.58
871.877	42.67
872.05	9.9
872.223	13.99
872.396	-4.44
872.569	18.09
872.742	-2.39
872.915	-41.3
873.088	18.09
873.261	16.04
873.434	42.67
873.607	54.95
873.78	36.52
873.953	-35.16
874.126	18.09
874.299	42.67
874.471	-6.49
874.644	95.91
874.817	50.86
874.99	91.82
875.163	38.57
875.335	9.9
875.508	54.95
875.681	128.68
875.853	22.19
876.026	54.95
876.199	-6.49
876.371	5.8
876.544	32.43
876.717	1.71
876.889	63.15
877.062	54.95
877.234	61.1
877.407	9.9
877.579	130.73
877.752	-18.77
877.924	-20.82
878.097	54.95
878.269	1.71
878.442	50.86
878.614	42.67
878.786	46.76
878.959	3.75
879.131	46.76
879.303	16.04
879.476	-2.39
879.648	38.57
879.82	7.85
879.993	22.19
880.165	48.81
880.337	13.99
880.509	38.57
880.681	52.91
880.854	24.23
881.026	-10.58
881.198	46.76
881.37	-41.3
881.542	40.62
881.714	63.15
881.886	91.82
882.058	7.85
882.23	46.76
882.402	50.86
882.574	38.57
882.746	7.85
882.918	24.23
883.09	-18.77
883.262	-53.59
883.434	44.71
883.606	63.15
883.778	24.23
883.95	40.62
884.122	-67.92
884.293	79.53
884.465	54.95
884.637	97.96
884.809	20.14
884.98	13.99
885.152	59.05
885.324	75.43
885.496	36.52
885.667	22.19
885.839	13.99
886.011	110.25
886.182	5.8
886.354	57
886.525	3.75
886.697	-18.77
886.869	16.04
887.04	44.71
887.212	42.67
887.383	24.23
887.555	11.95
887.726	13.99
887.897	9.9
888.069	32.43
888.24	-37.2
888.412	46.76
888.583	71.34
888.754	59.05
888.926	-67.92
889.097	20.14
889.268	-10.58
889.44	46.76
889.611	52.91
889.782	3.75
889.953	-20.82
890.125	44.71
890.296	-0.34
890.467	24.23
890.638	-12.63
890.809	57
890.98	34.47
891.151	34.47
891.323	26.28
891.494	18.09
891.665	7.85
891.836	3.75
892.007	3.75
892.178	16.04
892.349	48.81
892.52	30.38
892.691	36.52
892.862	61.1
893.032	46.76
893.203	46.76
893.374	-29.01
893.545	38.57
893.716	13.99
893.887	3.75
894.057	7.85
894.228	1.71
894.399	-37.2
894.57	22.19
894.74	48.81
894.911	-16.73
895.082	50.86
895.253	87.72
895.423	-6.49
895.594	26.28
895.764	-14.68
895.935	13.99
896.106	89.77
896.276	-12.63
896.447	75.43
896.617	34.47
896.788	48.81
896.958	-16.73
897.129	52.91
897.299	34.47
897.47	40.62
897.64	83.63
897.81	24.23
897.981	122.54
898.151	-61.78
898.322	54.95
898.492	34.47
898.662	-35.16
898.832	11.95
899.003	-10.58
899.173	-12.63
899.343	-16.73
899.513	40.62
