Data from USB4F104151__59__12-01-45-629.txt Node

Date: Fri Mar 14 12:01:45 EDT 2025
User: louis
Spectrometer: USB4F10415
Trigger mode: 4
Integration Time (sec): 2.000000E-2
Scans to average: 1
Electric dark correction enabled: true
Nonlinearity correction enabled: false
Boxcar width: 0
XAxis mode: Wavelengths
Number of Pixels in Spectrum: 3648
>>>>>Begin Spectral Data<<<<<
178.204	-47.27
178.424	-47.27
178.644	-47.27
178.864	-61.61
179.084	-59.56
179.304	-6.31
179.524	28.5
179.744	-37.03
179.964	51.03
180.184	24.4
180.404	-6.31
180.624	24.4
180.844	-10.41
181.064	-131.24
181.283	63.32
181.503	22.36
181.723	-22.7
181.943	-51.37
182.163	38.74
182.383	-8.36
182.602	104.28
182.822	-10.41
183.042	-0.17
183.262	-41.13
183.482	14.17
183.701	14.17
183.921	-20.65
184.141	22.36
184.361	71.51
184.58	44.88
184.8	18.26
185.02	48.98
185.239	53.08
185.459	-32.94
185.679	14.17
185.898	-30.89
186.118	59.22
186.338	40.79
186.557	-12.46
186.777	20.31
186.997	-6.31
187.216	-20.65
187.436	-8.36
187.655	94.04
187.875	16.21
188.095	-2.22
188.314	-20.65
188.534	8.02
188.753	-8.36
188.973	28.5
189.192	10.07
189.412	36.69
189.631	3.93
189.851	34.64
190.07	110.42
190.29	-12.46
190.509	106.32
190.729	-0.17
190.948	22.36
191.168	122.71
191.387	10.07
191.607	46.93
191.826	-2.22
192.045	-37.03
192.265	-2.22
192.484	38.74
192.704	-8.36
192.923	-20.65
193.142	-12.46
193.362	3.93
193.581	10.07
193.8	22.36
194.02	81.75
194.239	46.93
194.458	38.74
194.678	100.18
194.897	42.84
195.116	-4.27
195.335	-37.03
195.555	14.17
195.774	48.98
195.993	48.98
196.212	61.27
196.432	-41.13
196.651	16.21
196.87	65.36
197.089	3.93
197.308	-22.7
197.528	-55.47
197.747	-47.27
197.966	55.12
198.185	104.28
198.404	-2.22
198.623	10.07
198.842	32.6
199.062	38.74
199.281	89.94
199.5	36.69
199.719	3.93
199.938	42.84
200.157	57.17
200.376	-4.27
200.595	-0.17
200.814	8.02
201.033	5.97
201.252	20.31
201.471	-24.75
201.69	36.69
201.909	61.27
202.128	14.17
202.347	-4.27
202.566	46.93
202.785	-2.22
203.004	-39.08
203.223	24.4
203.442	61.27
203.661	14.17
203.879	-16.55
204.098	38.74
204.317	-10.41
204.536	36.69
204.755	67.41
204.974	79.7
205.193	55.12
205.411	46.93
205.63	94.04
205.849	-0.17
206.068	12.12
206.287	-39.08
206.505	48.98
206.724	14.17
206.943	57.17
207.162	12.12
207.381	96.08
207.599	40.79
207.818	5.97
208.037	-24.75
208.255	34.64
208.474	10.07
208.693	55.12
208.911	55.12
209.13	-26.79
209.349	-16.55
209.567	59.22
209.786	32.6
210.005	16.21
210.223	36.69
210.442	-47.27
210.661	-10.41
210.879	24.4
211.098	24.4
211.316	-57.51
211.535	-18.6
211.753	24.4
211.972	96.08
212.191	48.98
212.409	24.4
212.628	1.88
212.846	-2.22
213.065	34.64
213.283	61.27
213.502	-0.17
213.72	8.02
213.938	14.17
214.157	36.69
214.375	100.18
214.594	24.4
214.812	65.36
215.031	12.12
215.249	73.56
215.467	18.26
215.686	-43.18
215.904	30.55
216.122	32.6
216.341	-20.65
216.559	-51.37
216.778	118.61
216.996	1.88
217.214	10.07
217.432	-14.51
217.651	89.94
217.869	57.17
218.087	-26.79
218.306	16.21
218.524	120.66
218.742	-39.08
218.96	22.36
219.179	3.93
219.397	71.51
219.615	36.69
219.833	18.26
220.051	-8.36
220.27	36.69
220.488	-16.55
220.706	22.36
220.924	5.97
221.142	18.26
221.36	12.12
221.578	30.55
221.796	-10.41
222.015	61.27
222.233	30.55
222.451	44.88
222.669	-49.32
222.887	57.17
223.105	5.97
223.323	24.4
223.541	12.12
223.759	30.55
223.977	12.12
224.195	-2.22
224.413	100.18
224.631	5.97
224.849	42.84
225.067	165.71
225.285	-20.65
225.503	77.65
225.721	-34.99
225.939	67.41
226.157	8.02
226.375	87.89
226.592	-26.79
226.81	10.07
227.028	51.03
227.246	32.6
227.464	5.97
227.682	40.79
227.9	71.51
228.117	32.6
228.335	-0.17
228.553	5.97
228.771	1.88
228.989	-0.17
229.206	65.36
229.424	-45.23
229.642	-0.17
229.86	26.45
230.077	75.6
230.295	-8.36
230.513	71.51
230.731	57.17
230.948	1.88
231.166	28.5
231.384	20.31
231.601	44.88
231.819	8.02
232.037	5.97
232.254	-77.99
232.472	48.98
232.689	20.31
232.907	65.36
233.125	3.93
233.342	-45.23
233.56	-20.65
233.777	-16.55
233.995	1.88
234.213	30.55
234.43	42.84
234.648	-6.31
234.865	-12.46
235.083	18.26
235.3	110.42
235.518	55.12
235.735	46.93
235.953	94.04
236.17	53.08
236.388	-34.99
236.605	18.26
236.822	55.12
237.04	-14.51
237.257	30.55
237.475	-18.6
237.692	57.17
237.909	-63.66
238.127	87.89
238.344	53.08
238.562	53.08
238.779	-24.75
238.996	3.93
239.214	14.17
239.431	83.8
239.648	8.02
239.865	-2.22
240.083	1.88
240.3	46.93
240.517	-65.71
240.735	-26.79
240.952	36.69
241.169	26.45
241.386	34.64
241.603	32.6
241.821	-110.76
242.038	10.07
242.255	-0.17
242.472	-53.42
242.689	-2.22
242.907	28.5
243.124	3.93
243.341	61.27
243.558	-0.17
243.775	28.5
243.992	-73.9
244.209	75.6
244.426	63.32
244.643	122.71
244.86	1.88
245.078	-28.84
245.295	53.08
245.512	42.84
245.729	-0.17
245.946	-22.7
246.163	22.36
246.38	-6.31
246.597	10.07
246.814	16.21
247.031	46.93
247.248	-45.23
247.464	75.6
247.681	16.21
247.898	20.31
248.115	83.8
248.332	42.84
248.549	120.66
248.766	71.51
248.983	114.52
249.2	51.03
249.417	114.52
249.633	-30.89
249.85	34.64
250.067	42.84
250.284	42.84
250.501	61.27
250.717	98.13
250.934	65.36
251.151	26.45
251.368	10.07
251.585	81.75
251.801	114.52
252.018	32.6
252.235	63.32
252.451	28.5
252.668	-4.27
252.885	67.41
253.102	63.32
253.318	65.36
253.535	5.97
253.752	-12.46
253.968	55.12
254.185	24.4
254.401	30.55
254.618	69.46
254.835	-30.89
255.051	89.94
255.268	16.21
255.484	30.55
255.701	14.17
255.917	98.13
256.134	-20.65
256.351	-6.31
256.567	-18.6
256.784	-24.75
257	-0.17
257.217	57.17
257.433	14.17
257.65	30.55
257.866	34.64
258.082	24.4
258.299	38.74
258.515	79.7
258.732	12.12
258.948	-26.79
259.165	46.93
259.381	-30.89
259.597	-28.84
259.814	24.4
260.03	3.93
260.246	55.12
260.463	-12.46
260.679	53.08
260.895	63.32
261.112	28.5
261.328	63.32
261.544	14.17
261.761	94.04
261.977	8.02
262.193	18.26
262.409	-2.22
262.626	98.13
262.842	8.02
263.058	34.64
263.274	30.55
263.49	-16.55
263.707	30.55
263.923	-37.03
264.139	-16.55
264.355	46.93
264.571	26.45
264.787	44.88
265.004	-10.41
265.22	-41.13
265.436	14.17
265.652	-49.32
265.868	28.5
266.084	12.12
266.3	24.4
266.516	8.02
266.732	-10.41
266.948	85.84
267.164	16.21
267.38	38.74
267.596	-0.17
267.812	24.4
268.028	77.65
268.244	44.88
268.46	12.12
268.676	65.36
268.892	3.93
269.108	20.31
269.324	-30.89
269.54	-22.7
269.756	87.89
269.972	-37.03
270.188	28.5
270.403	-20.65
270.619	79.7
270.835	24.4
271.051	12.12
271.267	-55.47
271.483	3.93
271.698	-51.37
271.914	104.28
272.13	8.02
272.346	69.46
272.562	-16.55
272.777	59.22
272.993	-30.89
273.209	34.64
273.425	-10.41
273.64	3.93
273.856	69.46
274.072	26.45
274.287	59.22
274.503	-53.42
274.719	-8.36
274.934	71.51
275.15	-22.7
275.366	65.36
275.581	44.88
275.797	-4.27
276.012	24.4
276.228	22.36
276.444	40.79
276.659	40.79
276.875	28.5
277.09	16.21
277.306	-8.36
277.521	30.55
277.737	-8.36
277.952	3.93
278.168	42.84
278.383	-32.94
278.599	34.64
278.814	55.12
279.03	71.51
279.245	67.41
279.461	-8.36
279.676	67.41
279.892	20.31
280.107	5.97
280.322	30.55
280.538	46.93
280.753	44.88
280.969	-0.17
281.184	28.5
281.399	67.41
281.615	-24.75
281.83	83.8
282.045	5.97
282.26	-14.51
282.476	42.84
282.691	22.36
282.906	26.45
283.122	145.24
283.337	20.31
283.552	-26.79
283.767	1.88
283.983	-0.17
284.198	-43.18
284.413	26.45
284.628	-37.03
284.843	8.02
285.058	71.51
285.274	-28.84
285.489	-28.84
285.704	-73.9
285.919	-61.61
286.134	85.84
286.349	91.99
286.564	-8.36
286.779	1.88
286.995	79.7
287.21	26.45
287.425	51.03
287.64	73.56
287.855	46.93
288.07	40.79
288.285	83.8
288.5	-4.27
288.715	108.37
288.93	-14.51
289.145	26.45
289.36	38.74
289.575	-39.08
289.79	-32.94
290.004	-10.41
290.219	26.45
290.434	-2.22
290.649	75.6
290.864	14.17
291.079	24.4
291.294	53.08
291.509	1.88
291.724	-18.6
291.938	3.93
292.153	73.56
292.368	24.4
292.583	44.88
292.798	36.69
293.012	-0.17
293.227	83.8
293.442	20.31
293.657	34.64
293.871	79.7
294.086	-0.17
294.301	5.97
294.516	55.12
294.73	55.12
294.945	8.02
295.16	46.93
295.374	102.23
295.589	44.88
295.804	30.55
296.018	14.17
296.233	18.26
296.447	30.55
296.662	10.07
296.877	46.93
297.091	108.37
297.306	81.75
297.52	44.88
297.735	-4.27
297.949	-2.22
298.164	-6.31
298.378	16.21
298.593	-12.46
298.807	108.37
299.022	40.79
299.236	83.8
299.451	48.98
299.665	30.55
299.88	98.13
300.094	57.17
300.309	10.07
300.523	-45.23
300.737	-6.31
300.952	81.75
301.166	16.21
301.381	53.08
301.595	69.46
301.809	-0.17
302.024	8.02
302.238	48.98
302.452	59.22
302.667	16.21
302.881	130.9
303.095	77.65
303.309	73.56
303.524	-37.03
303.738	-75.95
303.952	-12.46
304.166	71.51
304.381	-28.84
304.595	114.52
304.809	51.03
305.023	32.6
305.237	-4.27
305.452	34.64
305.666	77.65
305.88	42.84
306.094	73.56
306.308	1.88
306.522	51.03
306.736	40.79
306.95	26.45
307.164	1.88
307.379	26.45
307.593	71.51
307.807	26.45
308.021	18.26
308.235	-16.55
308.449	57.17
308.663	18.26
308.877	106.32
309.091	16.21
309.305	91.99
309.519	38.74
309.733	94.04
309.947	-30.89
310.161	46.93
310.374	44.88
310.588	91.99
310.802	-18.6
311.016	59.22
311.23	10.07
311.444	38.74
311.658	32.6
311.872	-0.17
312.085	16.21
312.299	40.79
312.513	-22.7
312.727	-18.6
312.941	32.6
313.154	-22.7
313.368	26.45
313.582	-20.65
313.796	14.17
314.009	5.97
314.223	61.27
314.437	102.23
314.651	12.12
314.864	46.93
315.078	26.45
315.292	34.64
315.505	18.26
315.719	42.84
315.933	32.6
316.146	30.55
316.36	75.6
316.573	118.61
316.787	40.79
317.001	34.64
317.214	42.84
317.428	55.12
317.641	18.26
317.855	-4.27
318.068	61.27
318.282	18.26
318.495	63.32
318.709	77.65
318.922	28.5
319.136	-24.75
319.349	36.69
319.563	79.7
319.776	67.41
319.99	-51.37
320.203	63.32
320.417	141.14
320.63	28.5
320.843	38.74
321.057	20.31
321.27	10.07
321.483	-49.32
321.697	36.69
321.91	26.45
322.124	-8.36
322.337	44.88
322.55	-2.22
322.763	-20.65
322.977	59.22
323.19	3.93
323.403	51.03
323.617	44.88
323.83	81.75
324.043	141.14
324.256	32.6
324.469	-18.6
324.683	-16.55
324.896	20.31
325.109	77.65
325.322	-22.7
325.535	98.13
325.748	-4.27
325.962	24.4
326.175	5.97
326.388	81.75
326.601	36.69
326.814	65.36
327.027	42.84
327.24	65.36
327.453	-8.36
327.666	28.5
327.879	24.4
328.092	118.61
328.305	3.93
328.518	8.02
328.731	28.5
328.944	71.51
329.157	-12.46
329.37	48.98
329.583	44.88
329.796	59.22
330.009	112.47
330.222	122.71
330.435	20.31
330.648	63.32
330.861	-16.55
331.073	71.51
331.286	53.08
331.499	118.61
331.712	24.4
331.925	59.22
332.138	61.27
332.35	59.22
332.563	59.22
332.776	46.93
332.989	30.55
333.202	-18.6
333.414	1.88
333.627	24.4
333.84	-26.79
334.053	-20.65
334.265	51.03
334.478	71.51
334.691	1.88
334.903	120.66
335.116	-18.6
335.329	34.64
335.541	24.4
335.754	96.08
335.966	-51.37
336.179	73.56
336.392	51.03
336.604	87.89
336.817	122.71
337.029	53.08
337.242	75.6
337.454	51.03
337.667	28.5
337.88	10.07
338.092	10.07
338.305	81.75
338.517	51.03
338.729	108.37
338.942	67.41
339.154	89.94
339.367	-59.56
339.579	40.79
339.792	-45.23
340.004	102.23
340.217	91.99
340.429	67.41
340.641	36.69
340.854	46.93
341.066	-39.08
341.278	73.56
341.491	81.75
341.703	38.74
341.915	51.03
342.128	38.74
342.34	81.75
342.552	32.6
342.764	-16.55
342.977	14.17
343.189	10.07
343.401	-22.7
343.613	26.45
343.826	67.41
344.038	-10.41
344.25	87.89
344.462	40.79
344.674	-30.89
344.886	71.51
345.099	-16.55
345.311	36.69
345.523	36.69
345.735	30.55
345.947	3.93
346.159	75.6
346.371	5.97
346.583	8.02
346.795	53.08
347.007	57.17
347.219	53.08
347.431	87.89
347.643	83.8
347.855	51.03
348.067	30.55
348.279	73.56
348.491	77.65
348.703	26.45
348.915	38.74
349.127	8.02
349.339	14.17
349.551	1.88
349.763	48.98
349.975	8.02
350.187	94.04
350.399	5.97
350.61	28.5
350.822	-24.75
351.034	-24.75
351.246	-10.41
351.458	100.18
351.669	53.08
351.881	59.22
352.093	-28.84
352.305	51.03
352.517	57.17
352.728	-2.22
352.94	-34.99
353.152	69.46
353.363	30.55
353.575	42.84
353.787	61.27
353.999	71.51
354.21	40.79
354.422	30.55
354.633	98.13
354.845	55.12
355.057	-10.41
355.268	-18.6
355.48	65.36
355.692	-49.32
355.903	-26.79
356.115	5.97
356.326	61.27
356.538	-2.22
356.749	48.98
356.961	38.74
357.172	18.26
357.384	38.74
357.595	102.23
357.807	28.5
358.018	89.94
358.23	67.41
358.441	40.79
358.653	59.22
358.864	32.6
359.075	61.27
359.287	75.6
359.498	69.46
359.709	42.84
359.921	48.98
360.132	75.6
360.344	87.89
360.555	-20.65
360.766	36.69
360.977	3.93
361.189	42.84
361.4	120.66
361.611	-16.55
361.823	55.12
362.034	87.89
362.245	-2.22
362.456	16.21
362.667	12.12
362.879	40.79
363.09	48.98
363.301	-10.41
363.512	36.69
363.723	22.36
363.935	28.5
364.146	-6.31
364.357	30.55
364.568	5.97
364.779	-53.42
364.99	16.21
365.201	10.07
365.412	59.22
365.623	16.21
365.834	-6.31
366.045	51.03
366.256	-71.85
366.467	30.55
366.678	57.17
366.889	104.28
367.1	75.6
367.311	137.04
367.522	85.84
367.733	118.61
367.944	-6.31
368.155	57.17
368.366	73.56
368.577	85.84
368.788	87.89
368.999	53.08
369.209	98.13
369.42	73.56
369.631	98.13
369.842	77.65
370.053	-41.13
370.264	69.46
370.474	34.64
370.685	18.26
370.896	71.51
371.107	-18.6
371.317	96.08
371.528	48.98
371.739	102.23
371.95	10.07
372.16	42.84
372.371	32.6
372.582	102.23
372.792	12.12
373.003	116.56
373.214	128.85
373.424	24.4
373.635	91.99
373.846	20.31
374.056	65.36
374.267	28.5
374.477	-16.55
374.688	-18.6
374.898	26.45
375.109	48.98
375.319	30.55
375.53	94.04
375.74	69.46
375.951	8.02
376.161	65.36
376.372	10.07
376.582	48.98
376.793	34.64
377.003	48.98
377.214	71.51
377.424	79.7
377.635	-18.6
377.845	-28.84
378.055	77.65
378.266	-10.41
378.476	57.17
378.686	104.28
378.897	24.4
379.107	-47.27
379.317	-45.23
379.528	59.22
379.738	118.61
379.948	-0.17
380.158	42.84
380.369	20.31
380.579	87.89
380.789	44.88
380.999	110.42
381.21	71.51
381.42	46.93
381.63	-65.71
381.84	87.89
382.05	81.75
382.261	65.36
382.471	130.9
382.681	67.41
382.891	59.22
383.101	46.93
383.311	22.36
383.521	-6.31
383.731	81.75
383.941	44.88
384.151	28.5
384.361	67.41
384.571	42.84
384.781	61.27
384.991	85.84
385.201	69.46
385.411	63.32
385.621	83.8
385.831	71.51
386.041	108.37
386.251	46.93
386.461	26.45
386.671	69.46
386.881	30.55
387.091	24.4
387.301	73.56
387.511	1.88
387.72	65.36
387.93	20.31
388.14	18.26
388.35	61.27
388.56	40.79
388.769	24.4
388.979	53.08
389.189	26.45
389.399	10.07
389.609	44.88
389.818	38.74
390.028	38.74
390.238	87.89
390.447	53.08
390.657	38.74
390.867	51.03
391.076	163.67
391.286	48.98
391.496	106.32
391.705	75.6
391.915	163.67
392.125	124.76
392.334	48.98
392.544	48.98
392.753	104.28
392.963	96.08
393.172	102.23
393.382	46.93
393.591	12.12
393.801	32.6
394.01	122.71
394.22	69.46
394.429	94.04
394.639	34.64
394.848	94.04
395.058	100.18
395.267	85.84
395.477	61.27
395.686	167.76
395.895	87.89
396.105	157.52
396.314	100.18
396.524	48.98
396.733	75.6
396.942	57.17
397.152	102.23
397.361	91.99
397.57	91.99
397.78	53.08
397.989	73.56
398.198	110.42
398.407	116.56
398.617	145.24
398.826	53.08
399.035	71.51
399.244	71.51
399.453	128.85
399.663	73.56
399.872	120.66
400.081	40.79
400.29	169.81
400.499	83.8
400.708	132.95
400.917	89.94
401.127	137.04
401.336	91.99
401.545	202.58
401.754	141.14
401.963	161.62
402.172	55.12
402.381	132.95
402.59	110.42
402.799	98.13
403.008	188.24
403.217	83.8
403.426	102.23
403.635	149.33
403.844	126.8
404.053	180.05
404.262	155.47
404.471	159.57
404.68	132.95
404.888	143.19
405.097	94.04
405.306	132.95
405.515	184.15
405.724	135
405.933	225.11
406.142	184.15
406.35	231.25
406.559	202.58
406.768	200.53
406.977	214.87
407.185	132.95
407.394	204.63
407.603	216.91
407.812	190.29
408.02	194.39
408.229	204.63
408.438	157.52
408.646	184.15
408.855	210.77
409.064	188.24
409.272	282.45
409.481	253.78
409.69	229.2
409.898	261.97
410.107	325.46
410.315	284.5
410.524	221.01
410.733	339.79
410.941	356.18
411.15	415.57
411.358	452.43
411.567	388.94
411.775	397.14
411.984	419.66
412.192	388.94
412.401	460.62
412.609	415.57
412.818	558.92
413.026	493.39
413.234	581.45
413.443	532.3
413.651	485.2
413.86	571.21
414.068	616.27
414.276	587.6
414.485	583.5
414.693	649.04
414.901	612.17
415.11	642.89
415.318	700.23
415.526	761.67
415.734	812.87
415.943	728.91
416.151	798.54
416.359	831.3
416.567	788.3
416.776	900.94
416.984	933.7
417.192	966.47
417.4	945.99
417.608	919.37
417.817	1193.8
418.025	1077.06
418.233	1228.61
418.441	1130.31
418.649	1085.25
418.857	1292.1
419.065	1388.35
419.273	1244.99
419.481	1365.82
419.689	1470.27
419.897	1412.93
420.105	1552.19
420.313	1556.29
420.521	1666.88
420.729	1587.01
420.937	1685.31
421.145	1713.98
421.353	1875.77
421.561	1824.57
421.769	1898.3
421.977	1990.45
422.185	1914.68
422.393	2201.4
422.601	2199.35
422.809	2230.07
423.017	2273.07
423.224	2275.12
423.432	2477.87
423.64	2479.92
423.848	2709.29
424.056	2594.61
424.263	2871.08
424.471	2809.64
424.679	3032.87
424.887	3057.45
425.094	3055.4
425.302	3182.37
425.51	3303.2
425.718	3460.9
425.925	3342.11
426.133	3655.45
426.341	3753.76
426.548	4011.8
426.756	3909.4
426.964	4028.18
427.171	4183.83
427.379	4482.83
427.586	4419.35
427.794	4431.63
428.001	4718.35
428.209	5054.22
428.417	5003.02
428.624	5142.28
428.832	5242.63
429.039	5117.7
429.247	5138.18
429.454	5732.09
429.662	6053.62
429.869	5682.94
430.076	6194.93
430.284	5826.3
430.491	6192.89
430.699	6577.9
430.906	6510.32
431.114	6498.03
431.321	6893.29
431.528	7149.29
431.736	7532.26
431.943	7757.53
432.15	7577.31
432.358	7749.34
432.565	8040.15
432.772	8181.46
432.979	8376.02
433.187	8713.94
433.394	8605.39
433.601	9242.31
433.808	9178.83
434.016	9291.46
434.223	9543.36
434.43	10213.05
434.637	9778.88
434.844	10602.16
435.052	11144.88
435.259	10800.82
435.466	10733.23
435.673	10970.8
435.88	11513.51
436.087	11976.35
436.294	11978.4
436.501	11816.61
436.708	12091.04
436.915	12643.99
437.122	13256.33
437.329	12785.3
437.537	13469.32
437.743	13436.55
437.95	13565.57
438.157	14337.66
438.364	14710.39
438.571	14579.32
438.778	14827.12
438.985	16014.94
439.192	15699.56
439.399	15963.75
439.606	15683.17
439.813	16264.8
440.02	17448.52
440.227	17092.18
440.433	16924.24
440.64	17704.52
440.847	17356.36
441.054	17997.38
441.261	19131.95
441.467	18843.19
441.674	19480.11
441.881	20035.11
442.088	20047.4
442.294	19758.63
442.501	20196.9
442.708	20842.01
442.914	21509.65
443.121	22357.5
443.328	21724.68
443.534	23463.41
443.741	22814.2
443.948	22523.39
444.154	24206.82
444.361	23811.56
444.568	24364.51
444.774	24139.24
444.981	24471.01
445.187	25071.06
445.394	26488.26
445.6	25701.84
445.807	28396.96
446.013	27022.78
446.22	27596.21
446.426	28757.41
446.633	28587.43
446.839	29920.65
447.046	28779.93
447.252	30262.66
447.459	30078.35
447.665	29980.04
447.871	31595.89
448.078	33221.98
448.284	31618.42
448.491	32189.8
448.697	33334.62
448.903	34082.13
449.11	34186.57
449.316	33477.97
449.522	34235.72
449.728	35059.01
449.935	35200.32
450.141	35183.93
450.347	36011.31
450.553	35020.09
450.76	35167.55
450.966	36504.87
451.172	36005.17
451.378	36906.27
451.584	35927.35
451.791	36859.17
451.997	36568.36
452.203	37639.45
452.409	37475.61
452.615	37592.34
452.821	36134.19
453.027	35927.35
453.233	37526.81
453.44	36236.59
453.646	36435.24
453.852	36556.07
454.058	37387.55
454.264	36119.85
454.47	36807.97
454.676	35685.68
454.882	37088.54
455.088	33791.31
455.294	33983.82
455.5	34741.57
455.705	35233.08
455.911	33428.82
456.117	32609.64
456.323	32722.27
456.529	30952.83
456.735	32462.18
456.941	31444.34
457.147	30995.84
457.352	30178.7
457.558	29539.73
457.764	29791.63
457.97	29132.18
458.176	28550.56
458.381	28403.11
458.587	27088.31
458.793	27268.53
458.999	25599.44
459.204	27323.83
459.41	26555.84
459.616	24800.73
459.821	25023.96
460.027	24647.13
460.233	24440.29
460.438	23172.6
460.644	23395.82
460.85	22369.79
461.055	21909
461.261	21769.74
461.466	20669.98
461.672	19912.23
461.878	21102.1
462.083	19611.18
462.289	19267.12
462.494	19064.37
462.7	18177.6
462.905	17993.28
463.111	18361.92
463.316	18464.32
463.522	18021.95
463.727	17995.33
463.932	18134.59
464.138	17808.97
464.343	18280
464.549	17348.17
464.754	17710.66
464.959	17460.81
465.165	17770.05
465.37	17067.6
465.575	16549.46
465.781	17131.09
465.986	17409.61
466.191	16496.22
466.397	16248.41
466.602	15629.93
466.807	16283.23
467.012	16170.59
467.218	16109.15
467.423	15920.74
467.628	15879.78
467.833	16473.69
468.038	16010.85
468.244	15490.66
468.449	16109.15
468.654	15464.04
468.859	15660.65
469.064	15597.16
469.269	14747.25
469.474	14861.94
469.679	15378.03
469.885	14708.34
470.09	15079.02
470.295	15021.68
470.5	14466.68
470.705	14585.46
470.91	14038.66
471.115	14112.38
471.32	14544.5
471.525	14239.36
471.73	13885.06
471.935	13905.54
472.139	13438.6
472.344	13762.18
472.549	13653.64
472.754	13387.4
472.959	13119.12
473.164	12775.06
473.369	12564.12
473.574	13037.2
473.778	12994.19
473.983	12584.6
474.188	12703.38
474.393	12111.52
474.598	12385.94
474.802	11824.8
475.007	11929.25
475.212	11996.83
475.417	11656.87
475.621	11658.92
475.826	11648.68
476.031	11392.68
476.235	11077.29
476.44	11511.46
476.645	11022
476.849	11118.25
477.054	11058.86
477.259	10870.45
477.463	10829.49
477.668	10446.52
477.872	10718.9
478.077	10346.17
478.282	10247.86
478.486	10141.37
478.691	10153.66
478.895	9936.57
479.1	10116.79
479.304	10112.7
479.509	9596.61
479.713	9823.94
479.918	9785.02
480.122	9426.63
480.326	9653.95
480.531	9666.24
480.735	9668.29
480.94	9479.88
481.144	9866.94
481.348	9250.5
481.553	9449.16
481.757	9281.22
481.961	9408.2
482.166	9385.67
482.37	9481.92
482.574	9174.73
482.778	9473.73
482.983	9350.85
483.187	9117.39
483.391	9277.13
483.595	9266.89
483.8	9074.38
484.004	9170.63
484.208	9436.87
484.412	9287.37
484.616	9299.66
484.821	9285.32
485.025	9191.11
485.229	9463.49
485.433	9166.54
485.637	9209.54
485.841	9400.01
486.045	9238.22
486.249	9330.37
486.453	9213.64
486.657	9307.85
486.861	9414.34
487.065	8910.54
487.269	9197.26
487.473	8986.32
487.677	9520.84
487.881	9170.63
488.085	9133.77
488.289	9270.98
488.493	9168.59
488.697	9369.29
488.901	9426.63
489.105	9381.57
489.309	9418.44
489.512	9440.97
489.716	9211.59
489.92	9377.48
490.124	9397.96
490.328	9465.54
490.531	9262.79
490.735	9463.49
490.939	9502.4
491.143	9463.49
491.346	9492.16
491.55	9664.19
491.754	9541.32
491.958	9590.47
492.161	9520.84
492.365	9623.23
492.569	9701.06
492.772	9471.68
492.976	9842.37
493.18	9807.55
493.383	9983.68
493.587	10104.51
493.79	10071.74
493.994	9916.09
494.197	10104.51
494.401	10081.98
494.605	10276.54
494.808	10286.78
495.012	10227.39
495.215	10636.98
495.419	10538.68
495.622	10714.8
495.825	10757.81
496.029	10647.22
496.232	10772.14
496.436	10710.71
496.639	11103.92
496.843	10862.26
497.046	11277.99
497.249	11456.17
497.453	11495.08
497.656	11642.53
497.859	11710.11
498.063	11734.69
498.266	11935.39
498.469	11857.57
498.673	11937.44
498.876	12263.07
499.079	12228.25
499.282	12387.99
499.485	12805.78
499.689	12715.67
499.892	12889.74
500.095	12742.29
500.298	13094.54
500.501	13084.3
500.705	13373.07
500.908	13700.74
501.111	13745.8
501.314	13903.49
501.517	13694.6
501.72	13981.31
501.923	13985.41
502.126	14435.96
502.329	14640.76
502.532	14706.29
502.735	14669.43
502.938	14825.08
503.141	15064.69
503.344	15230.57
503.547	15339.12
503.75	15691.37
503.953	15750.76
504.156	15867.49
504.359	16012.9
504.562	16131.68
504.765	16518.75
504.968	16576.09
505.17	16660.06
505.373	16729.69
505.576	17284.69
505.779	17319.5
505.982	17327.69
506.185	17469
506.387	17655.37
506.59	17937.99
506.793	18179.65
506.996	18239.04
507.198	18644.54
507.401	18454.08
507.604	19064.37
507.807	19009.08
508.009	19217.97
508.212	19297.84
508.415	19674.67
508.617	19641.9
508.82	19934.76
509.022	19680.81
509.225	20313.63
509.428	20344.35
509.63	20629.02
509.833	20665.88
510.035	21036.56
510.238	20829.72
510.44	21683.72
510.643	21655.05
510.845	21915.14
511.048	21655.05
511.25	22359.55
511.453	22244.87
511.655	22830.58
511.858	22394.37
512.06	22797.82
512.262	22924.79
512.465	23203.32
512.667	23428.59
512.87	23762.41
513.072	24028.65
513.274	24190.44
513.477	24419.81
513.679	24440.29
513.881	24690.14
514.084	24772.06
514.286	24983
514.488	25296.34
514.69	26088.9
514.893	25912.78
515.095	26185.16
515.297	26189.25
515.499	26271.17
515.701	26680.77
515.904	27219.38
516.106	27024.82
516.308	27518.39
516.51	27506.1
516.712	27669.94
516.914	28249.51
517.116	28272.04
517.318	28306.85
517.52	28493.22
517.722	28937.63
517.925	29115.8
518.127	29750.67
518.329	29498.77
518.531	29404.56
518.733	30070.15
518.935	30147.98
519.136	30092.68
519.338	30813.57
519.54	30518.66
519.742	30913.92
519.944	30989.69
520.146	31655.28
520.348	31460.73
520.55	31823.22
520.752	31786.35
520.954	32388.46
521.155	32187.75
521.357	32695.65
521.559	33045.85
521.761	33199.45
521.963	33293.66
522.164	33447.25
522.366	33496.41
522.568	33791.31
522.77	33727.83
522.971	34524.49
523.173	34428.23
523.375	34553.16
523.576	34561.35
523.778	34532.68
523.98	35366.2
524.181	35067.2
524.383	35087.68
524.584	35581.24
524.786	35433.78
524.988	35255.61
525.189	35894.58
525.391	36121.9
525.592	36560.17
525.794	36130.09
525.995	36195.63
526.197	36300.08
526.398	36631.85
526.6	36836.64
526.801	36767.01
527.003	36906.27
527.204	37129.5
527.406	37270.81
527.607	37528.86
527.808	37602.58
528.01	36883.75
528.211	37084.45
528.412	37895.44
528.614	37584.15
528.815	37795.09
529.016	38077.71
529.218	37825.81
529.419	38339.85
529.62	38311.18
529.822	38073.62
530.023	37960.98
530.224	38272.27
530.425	38044.94
530.626	37758.23
530.828	37985.55
531.029	38458.63
531.23	38212.88
531.431	38497.55
531.632	38704.39
531.833	38364.43
532.035	38481.16
532.236	38417.68
532.437	38769.93
532.638	38348.04
532.839	38679.82
533.04	38657.29
533.241	38018.32
533.442	38892.8
533.643	38630.66
533.844	38372.62
534.045	38536.46
534.246	37768.47
534.447	39060.74
534.648	38262.03
534.849	38518.03
535.05	38188.3
535.251	38784.26
535.451	38681.86
535.652	38688.01
535.853	38751.49
536.054	38733.06
536.255	38487.31
536.456	38321.42
536.657	39206.14
536.857	38450.44
537.058	38499.59
537.259	38821.12
537.46	38802.69
537.66	38436.11
537.861	38817.03
538.062	38464.78
538.263	38872.32
538.463	38618.38
538.664	38225.17
538.865	38614.28
539.065	38546.7
539.266	38178.06
539.466	39124.22
539.667	38053.14
539.868	38454.54
540.068	38526.22
540.269	38432.01
540.469	38774.02
540.67	38266.13
540.87	38286.61
541.071	38708.49
541.271	38604.04
541.472	38307.08
541.672	38286.61
541.873	38118.67
542.073	38077.71
542.274	38700.29
542.474	37963.03
542.675	37887.25
542.875	38368.52
543.075	37856.53
543.276	37831.96
543.476	38331.66
543.676	38057.23
543.877	38163.73
544.077	37885.2
544.277	38348.04
544.478	38302.99
544.678	37942.55
544.878	37598.49
545.078	37944.59
545.279	37868.82
545.479	37545.24
545.679	38200.59
545.879	37922.07
546.079	38024.47
546.28	37877.01
546.48	37340.44
546.68	38085.9
546.88	38171.92
547.08	37885.2
547.28	37565.72
547.48	37545.24
547.68	38090
547.88	37547.29
548.081	37866.77
548.281	38100.24
548.481	37627.16
548.681	37891.35
548.881	37874.96
549.081	37823.76
549.28	37473.56
549.48	37889.3
549.68	37664.02
549.88	37977.36
550.08	37485.85
550.28	37696.79
550.48	37373.21
550.68	37735.7
550.88	37426.46
551.08	37348.64
551.279	37563.67
551.479	37330.2
551.679	37600.54
551.879	37532.95
552.079	37604.63
552.278	37135.65
552.478	37369.12
552.678	37297.44
552.878	37561.62
553.077	36986.14
553.277	37207.33
553.477	38196.49
553.676	37338.4
553.876	37516.57
554.076	36959.52
554.275	37418.27
554.475	36934.95
554.674	37418.27
554.874	37233.95
555.074	36930.85
555.273	37405.98
555.473	37362.97
555.672	37000.48
555.872	36844.84
556.071	37147.93
556.271	37102.88
556.47	37109.02
556.67	36732.2
556.869	36910.37
557.068	36730.15
557.268	36730.15
557.467	36674.85
557.667	36750.63
557.866	36934.95
558.065	37231.9
558.265	36472.1
558.464	36422.95
558.663	36859.17
558.863	36459.82
559.062	36875.55
559.261	36349.23
559.461	36650.28
559.66	36246.83
559.859	36214.06
560.058	36338.99
560.258	36107.57
560.457	35898.67
560.656	36504.87
560.855	36300.08
561.054	36013.36
561.253	35767.6
561.453	36197.68
561.652	36488.49
561.851	36259.12
562.05	36197.68
562.249	35788.08
562.448	35970.35
562.647	35870
562.846	35626.29
563.045	35657.01
563.244	35657.01
563.443	35835.19
563.642	35136.83
563.841	35212.6
564.04	35439.93
564.239	35773.75
564.438	35159.36
564.637	35552.57
564.836	35517.75
565.035	34864.45
565.234	35493.18
565.432	34977.09
565.631	35138.88
565.83	34991.42
566.029	34944.32
566.228	34923.84
566.427	34800.96
566.625	34688.32
566.824	34461
567.023	34731.33
567.222	34389.32
567.42	35165.5
567.619	34714.95
567.818	34882.88
568.016	34221.39
568.215	34712.9
568.414	34422.09
568.612	34420.04
568.811	34293.07
569.01	34219.34
569.208	33807.7
569.407	34497.86
569.605	33678.68
569.804	34184.52
570.002	33363.29
570.201	33828.18
570.4	33611.09
570.598	33668.44
570.797	33514.84
570.995	33738.07
571.193	33209.69
571.392	33891.66
571.59	32867.68
571.789	33092.96
571.987	33199.45
572.186	33252.7
572.384	33209.69
572.582	33281.37
572.781	33101.15
572.979	32812.38
573.177	32836.96
573.376	32875.87
573.574	32646.5
573.772	32916.83
573.971	32617.83
574.169	32822.62
574.367	32294.25
574.565	32372.07
574.763	32390.5
574.962	32394.6
575.16	32195.95
575.358	32302.44
575.556	32138.6
575.754	32046.44
575.952	31749.49
576.151	32337.26
576.349	31948.14
576.547	32015.72
576.745	31792.5
576.943	31653.23
577.141	31249.78
577.339	31477.11
577.537	31163.77
577.735	31319.42
577.933	30889.34
578.131	31505.78
578.329	31090.04
578.527	30803.33
578.725	30971.26
578.923	30885.25
579.121	30537.09
579.319	30512.52
579.516	31042.94
579.714	30911.87
579.912	30625.15
580.11	30479.75
580.308	30778.75
580.506	30594.43
580.704	30012.81
580.901	30586.24
581.099	30340.49
581.297	30094.73
581.495	29865.36
581.692	30379.4
581.89	30010.76
582.088	29834.64
582.285	29613.46
582.483	29758.86
582.681	29799.82
582.878	29767.06
583.076	29584.79
583.274	29449.62
583.471	28919.2
583.669	29506.96
583.866	29142.42
584.064	29214.1
584.262	29160.86
584.459	29007.26
584.657	28599.71
584.854	29060.51
585.052	28394.92
585.249	28935.58
585.447	29040.03
585.644	28747.17
585.841	28638.62
586.039	28460.45
586.236	28399.01
586.434	28329.38
586.631	28067.24
586.828	28190.12
587.026	27950.51
587.223	27907.5
587.42	28022.19
587.618	27872.68
587.815	27766.19
588.012	27637.17
588.21	27508.15
588.407	27790.77
588.604	27502
588.801	27479.47
588.999	27381.17
589.196	27307.44
589.393	27389.36
589.59	27227.57
589.787	26840.51
589.984	26824.12
590.182	26500.54
590.379	27196.85
590.576	26875.32
590.773	27039.16
590.97	26447.3
591.167	26359.24
591.364	26054.09
591.561	26275.27
591.758	26312.13
591.955	26291.65
592.152	26322.37
592.349	26072.52
592.546	26219.97
592.743	26043.85
592.94	25605.58
593.137	25843.15
593.334	25949.64
593.531	25638.35
593.727	25638.35
593.924	25462.22
594.121	25431.51
594.318	25593.29
594.515	25093.59
594.712	25581.01
594.908	25140.69
595.105	24950.23
595.302	24802.78
595.499	25126.36
595.696	24872.41
595.892	24794.59
596.089	24770.01
596.286	24983
596.482	24575.45
596.679	24622.56
596.876	24739.29
597.072	24481.25
597.269	24575.45
597.466	24047.08
597.662	24159.72
597.859	24321.51
598.055	24319.46
598.252	24088.04
598.448	23952.87
598.645	24071.65
598.841	23614.96
599.038	23746.03
599.234	23963.11
599.431	23324.15
599.627	23473.65
599.824	23422.45
600.02	23397.87
600.217	23455.22
600.413	23186.93
600.609	23195.12
600.806	22980.09
601.002	23172.6
601.198	23041.53
601.395	22914.55
601.591	22730.23
601.787	23045.62
601.984	22461.95
602.18	22836.73
602.376	22470.14
602.572	22494.72
602.769	22621.69
602.965	22261.25
603.161	22277.63
603.357	22232.58
603.553	21851.66
603.75	22242.82
603.946	21872.14
604.142	22314.5
604.338	21804.55
604.534	21800.46
604.73	21706.25
604.926	21431.82
605.122	21739.02
605.318	21640.72
605.514	21433.87
605.71	21372.43
605.906	21442.06
606.102	21347.86
606.298	21267.98
606.494	21265.94
606.69	21270.03
606.886	21364.24
607.082	21055
607.278	21282.32
607.474	21106.2
607.67	20909.59
607.866	20473.37
608.062	21165.59
608.257	20903.45
608.453	21102.1
608.649	21014.04
608.845	20616.73
609.041	20704.79
609.236	20676.12
609.432	20555.29
609.628	20725.27
609.824	20624.92
610.019	20344.35
610.215	20426.27
610.411	20297.25
610.606	20282.91
610.802	20231.71
610.998	19971.62
611.193	20186.66
611.389	20162.08
611.584	20059.68
611.78	19945
611.976	20119.07
612.171	19949.09
612.367	20102.69
612.562	20065.83
612.758	19701.29
612.953	19586.6
613.149	20149.79
613.344	19760.68
613.539	19918.37
613.735	19732.01
613.93	19650.09
614.126	19336.75
614.321	19338.8
614.517	19338.8
614.712	19758.63
614.907	19312.17
615.103	19787.3
615.298	19400.24
615.493	19637.8
615.688	19291.69
615.884	19705.38
616.079	19281.46
616.274	19392.05
616.47	19396.14
616.665	19271.22
616.86	19187.25
617.055	18961.97
617.25	19007.03
617.445	19019.32
617.641	18845.24
617.836	18935.35
618.031	18595.39
618.226	18853.43
618.421	18755.13
618.616	18990.64
618.811	18671.16
619.006	18583.1
619.201	18415.16
619.396	18495.04
619.591	18263.61
619.786	18177.6
619.981	17974.85
620.176	18300.48
620.371	17901.12
620.566	18089.54
620.761	17886.79
620.956	18005.57
621.151	17389.13
621.346	17595.98
621.541	17446.48
621.735	17413.71
621.93	17432.14
622.125	17081.94
622.32	17051.22
622.515	17370.7
622.709	16891.48
622.904	16993.87
623.099	16873.04
623.294	16924.24
623.488	16502.36
623.683	16649.82
623.878	16457.31
624.072	16619.1
624.267	16770.65
624.462	16148.06
624.656	16170.59
624.851	16094.82
625.046	16076.38
625.24	15877.73
625.435	15730.28
625.629	15640.17
625.824	15767.14
626.018	15580.78
626.213	15201.9
626.407	15488.62
626.602	15197.81
626.796	15277.68
626.991	15244.91
627.185	15359.59
627.38	14698.1
627.574	14673.53
627.768	14788.21
627.963	14700.15
628.157	14581.37
628.352	14749.3
628.546	14626.42
628.74	14618.23
628.935	14376.57
629.129	14380.67
629.323	14016.13
629.517	14251.64
629.712	14130.81
629.906	14190.2
630.1	13612.68
630.294	14153.34
630.489	13698.69
630.683	13631.11
630.877	13600.39
631.071	13647.49
631.265	13645.45
631.459	13549.19
631.653	13379.21
631.848	13328.01
632.042	13160.08
632.236	13274.76
632.43	12971.66
632.624	12969.62
632.818	13123.21
633.012	12873.36
633.206	12826.26
633.4	13086.35
633.594	12490.39
633.788	12684.95
633.982	12625.56
634.176	12740.24
634.369	12568.21
634.563	12459.67
634.757	12316.31
634.951	12316.31
635.145	12220.06
635.339	12084.89
635.533	11984.54
635.726	12111.52
635.92	11767.46
636.114	11808.42
636.308	11654.82
636.501	11882.14
636.695	11626.15
636.889	11517.61
637.083	11599.52
637.276	11495.08
637.47	11450.02
637.664	11495.08
637.857	11413.16
638.051	11386.54
638.244	11146.92
638.438	11306.66
638.632	11263.66
638.825	11148.97
639.019	10944.17
639.212	10952.37
639.406	10860.21
639.599	10915.5
639.793	10770.1
639.986	10858.16
640.18	10645.17
640.373	10747.57
640.567	10450.61
640.76	10589.88
640.954	10407.61
641.147	10297.02
641.34	10278.58
641.534	10446.52
641.727	10165.95
641.92	10245.82
642.114	9893.57
642.307	10163.9
642.5	9836.22
642.694	9846.46
642.887	9664.19
643.08	9856.7
643.273	9840.32
643.467	9584.32
643.66	9631.43
643.853	9561.8
644.046	9537.22
644.239	9660.1
644.432	9426.63
644.626	9414.34
644.819	9639.62
645.012	9313.99
645.205	9387.72
645.398	9158.35
645.591	9096.91
645.784	9111.24
645.977	9037.52
646.17	9062.09
646.363	8912.59
646.556	8834.77
646.749	8804.05
646.942	9045.71
647.135	8847.05
647.328	8838.86
647.521	8619.73
647.714	8554.19
647.907	8525.52
648.099	8535.76
648.292	8552.15
648.485	8404.69
648.678	8152.79
648.871	8414.93
649.064	8203.99
649.256	8326.87
649.449	8165.08
649.642	8265.43
649.835	8175.32
650.027	8072.92
650.22	8077.02
650.413	8034.01
650.605	7972.57
650.798	7884.51
650.991	7886.56
651.183	7923.42
651.376	7798.49
651.568	7970.52
651.761	7747.3
651.954	7806.69
652.146	7655.14
652.339	7626.46
652.531	7503.59
652.724	7591.65
652.916	7456.48
653.109	7575.27
653.301	7294.69
653.494	7440.1
653.686	7235.3
653.879	7534.31
654.071	7198.44
654.263	7130.86
654.456	7257.83
654.648	7016.17
654.84	6973.16
655.033	7032.55
655.225	7024.36
655.417	6917.87
655.61	7042.79
655.802	6999.79
655.994	6868.72
656.186	7055.08
656.379	6893.29
656.571	6891.24
656.763	6698.74
656.955	6614.77
657.148	6760.17
657.34	6625.01
657.532	6561.52
657.724	6598.38
657.916	6561.52
658.108	6518.51
658.3	6510.32
658.492	6393.59
658.684	6227.7
658.876	6491.89
659.068	6278.9
659.26	6332.15
659.452	6332.15
659.644	6293.24
659.836	6188.79
660.028	6242.04
660.22	6131.45
660.412	6205.17
660.604	6102.78
660.796	6094.58
660.988	6147.83
661.18	5988.09
661.372	5842.68
661.563	5916.41
661.755	5947.13
661.947	5973.75
662.139	5717.76
662.331	5879.55
662.522	5756.67
662.714	5641.98
662.906	5699.33
663.097	5648.13
663.289	5410.56
663.481	5547.78
663.673	5635.84
663.864	5588.74
664.056	5482.24
664.247	5541.63
664.439	5394.18
664.631	5564.16
664.822	5472
665.014	5508.87
665.205	5328.64
665.397	5310.21
665.588	5340.93
665.78	5291.78
665.971	5418.75
666.163	5320.45
666.354	5164.81
666.546	5033.74
666.737	5150.47
666.929	5136.13
667.12	5283.59
667.311	5099.27
667.503	4964.11
667.694	4996.87
667.885	5046.02
668.077	4968.2
668.268	5025.54
668.459	4906.76
668.651	4974.35
668.842	4919.05
669.033	4882.19
669.224	4794.12
669.416	4904.71
669.607	4812.56
669.798	4880.14
669.989	4947.72
670.18	4722.45
670.371	4796.17
670.563	4550.42
670.754	4802.32
670.945	4648.72
671.136	4470.55
671.327	4517.65
671.518	4685.58
671.709	4628.24
671.9	4507.41
672.091	4618
672.282	4554.51
672.473	4482.83
672.664	4478.74
672.855	4431.63
673.046	4351.76
673.237	4478.74
673.428	4443.92
673.619	4472.59
673.809	4335.38
674	4341.52
674.191	4378.39
674.382	4353.81
674.573	4161.3
674.764	4232.98
674.954	4319
675.145	4212.5
675.336	4222.74
675.527	4292.37
675.717	4294.42
675.908	4314.9
676.099	4179.73
676.289	4204.31
676.48	4171.54
676.671	4122.39
676.861	4163.35
677.052	4116.25
677.243	4114.2
677.433	4077.34
677.624	4075.29
677.814	4183.83
678.005	4108.05
678.195	4083.48
678.386	4079.38
678.576	4036.38
678.767	4101.91
678.957	4052.76
679.148	4067.1
679.338	4024.09
679.529	3886.87
679.719	3886.87
679.909	4038.42
680.1	3913.5
680.29	4019.99
680.481	3890.97
680.671	3983.13
680.861	3794.72
681.052	3991.32
681.242	3858.2
681.432	3845.91
681.622	3878.68
681.813	3782.43
682.003	3819.29
682.193	3833.63
682.383	3950.36
682.573	3786.52
682.764	3649.31
682.954	3856.15
683.144	3706.65
683.334	3661.6
683.524	3845.91
683.714	3731.23
683.904	3716.89
684.094	3686.17
684.284	3714.84
684.474	3731.23
684.664	3651.36
684.854	3618.59
685.044	3604.25
685.234	3686.17
685.424	3483.42
685.614	3503.9
685.804	3559.2
685.994	3579.68
686.184	3505.95
686.374	3395.36
686.564	3630.88
686.753	3503.9
686.943	3421.99
687.133	3446.56
687.323	3487.52
687.513	3446.56
687.702	3471.14
687.892	3401.51
688.082	3397.41
688.272	3526.43
688.461	3440.42
688.651	3383.07
688.841	3278.63
689.03	3245.86
689.22	3313.44
689.41	3243.81
689.599	3219.24
689.789	3149.61
689.979	3209
690.168	3264.29
690.358	3307.3
690.547	3168.04
690.737	3088.17
690.926	3237.67
691.116	3039.01
691.305	3245.86
691.495	3114.79
691.684	3061.54
691.874	3073.83
692.063	2971.43
692.252	3041.06
692.442	3071.78
692.631	3137.32
692.82	2987.82
693.01	2953
693.199	3008.3
693.388	3053.35
693.578	2944.81
693.767	3020.58
693.956	3036.97
694.146	3006.25
694.335	2901.8
694.524	2957.1
694.713	2864.94
694.902	2844.46
695.092	2875.18
695.281	2832.17
695.47	2844.46
695.659	2772.78
695.848	2961.19
696.037	2955.05
696.226	2912.04
696.415	2795.31
696.604	2666.28
696.793	2885.42
696.982	2803.5
697.171	2875.18
697.36	2834.22
697.549	2742.06
697.738	2780.97
697.927	2746.16
698.116	2690.86
698.305	2774.83
698.494	2649.9
698.683	2746.16
698.872	2795.31
699.061	2869.03
699.25	2764.59
699.438	2649.9
699.627	2709.29
699.816	2809.64
700.005	2701.1
700.193	2633.52
700.382	2776.87
700.571	2758.44
700.76	2680.62
700.948	2766.64
701.137	2774.83
701.326	2701.1
701.514	2848.55
701.703	2795.31
701.892	2598.7
702.08	2791.21
702.269	2740.01
702.457	2733.87
702.646	2701.1
702.834	2705.2
703.023	2744.11
703.212	2778.92
703.4	2766.64
703.589	2711.34
703.777	2713.39
703.965	2613.04
704.154	2727.72
704.342	2672.43
704.531	2756.4
704.719	2752.3
704.907	2670.38
705.096	2670.38
705.284	2756.4
705.472	2733.87
705.661	2637.61
705.849	2694.96
706.037	2768.68
706.226	2557.74
706.414	2606.89
706.602	2629.42
706.79	2510.64
706.979	2545.45
707.167	2574.13
707.355	2713.39
707.543	2570.03
707.731	2754.35
707.919	2672.43
708.107	2588.46
708.296	2610.99
708.484	2557.74
708.672	2703.15
708.86	2559.79
709.048	2701.1
709.236	2709.29
709.424	2625.33
709.612	2672.43
709.8	2588.46
709.988	2678.57
710.176	2705.2
710.364	2662.19
710.551	2633.52
710.739	2590.51
710.927	2592.56
711.115	2662.19
711.303	2629.42
711.491	2570.03
711.679	2582.32
711.866	2615.09
712.054	2504.5
712.242	2617.13
712.43	2574.13
712.617	2570.03
712.805	2633.52
712.993	2576.17
713.181	2570.03
713.368	2623.28
713.556	2688.81
713.744	2531.12
713.931	2740.01
714.119	2670.38
714.306	2631.47
714.494	2613.04
714.682	2576.17
714.869	2565.93
715.057	2590.51
715.244	2666.28
715.432	2604.85
715.619	2641.71
715.807	2666.28
715.994	2610.99
716.182	2520.88
716.369	2561.84
716.556	2656.04
716.744	2422.58
716.931	2512.69
717.119	2645.8
717.306	2510.64
717.493	2584.37
717.681	2531.12
717.868	2633.52
718.055	2522.93
718.242	2545.45
718.43	2602.8
718.617	2527.02
718.804	2490.16
718.991	2660.14
719.179	2520.88
719.366	2500.4
719.553	2684.72
719.74	2488.11
719.927	2533.17
720.114	2426.67
720.301	2557.74
720.488	2555.69
720.676	2449.2
720.863	2582.32
721.05	2567.98
721.237	2633.52
721.424	2510.64
721.611	2555.69
721.798	2518.83
721.985	2432.82
722.172	2672.43
722.358	2547.5
722.545	2494.26
722.732	2551.6
722.919	2514.73
723.106	2545.45
723.293	2508.59
723.48	2465.58
723.667	2617.13
723.853	2346.8
724.04	2445.1
724.227	2549.55
724.414	2522.93
724.6	2590.51
724.787	2451.25
724.974	2373.43
725.161	2377.52
725.347	2391.86
725.534	2496.3
725.72	2516.78
725.907	2479.92
726.094	2479.92
726.28	2572.08
726.467	2408.24
726.653	2338.61
726.84	2447.15
727.027	2563.89
727.213	2330.42
727.4	2449.2
727.586	2516.78
727.773	2410.29
727.959	2387.76
728.145	2459.44
728.332	2481.97
728.518	2457.39
728.705	2395.95
728.891	2303.79
729.077	2465.58
729.264	2475.82
729.45	2305.84
729.636	2354.99
729.823	2418.48
730.009	2393.9
730.195	2348.85
730.382	2430.77
730.568	2354.99
730.754	2357.04
730.94	2363.19
731.126	2420.53
731.313	2418.48
731.499	2324.27
731.685	2406.19
731.871	2467.63
732.057	2391.86
732.243	2338.61
732.429	2369.33
732.615	2377.52
732.801	2420.53
732.987	2369.33
733.173	2381.62
733.359	2432.82
733.545	2402.1
733.731	2311.99
733.917	2299.7
734.103	2311.99
734.289	2332.47
734.475	2189.11
734.661	2348.85
734.847	2340.66
735.033	2352.95
735.219	2350.9
735.404	2371.38
735.59	2428.72
735.776	2369.33
735.962	2305.84
736.148	2340.66
736.333	2332.47
736.519	2295.6
736.705	2322.23
736.89	2305.84
737.076	2285.36
737.262	2232.12
737.447	2137.91
737.633	2228.02
737.819	2285.36
738.004	2193.2
738.19	2279.22
738.375	2101.05
738.561	2182.96
738.747	2158.39
738.932	2234.16
739.118	2209.59
739.303	2223.92
739.489	2154.29
739.674	2109.24
739.859	2195.25
740.045	2144.05
740.23	2125.62
740.416	2113.33
740.601	2142
740.786	2187.06
740.972	2096.95
741.157	2086.71
741.342	2187.06
741.528	2080.57
741.713	2178.87
741.898	2090.81
742.084	2125.62
742.269	2037.56
742.454	2164.53
742.639	2119.48
742.824	1994.55
743.01	2004.79
743.195	2047.8
743.38	2049.85
743.565	2015.03
743.75	1984.31
743.935	2002.74
744.12	2060.09
744.305	1939.26
744.49	1955.64
744.675	1922.87
744.86	2062.13
745.045	1955.64
745.23	1994.55
745.415	1926.97
745.6	1875.77
745.785	1886.01
745.97	1939.26
746.155	1904.44
746.34	1873.72
746.525	1834.81
746.71	1691.45
746.895	1824.57
747.079	1840.95
747.264	1843
747.449	1795.9
747.634	1759.03
747.819	1890.1
748.003	1775.42
748.188	1713.98
748.373	1752.89
748.557	1730.36
748.742	1632.06
748.927	1783.61
749.111	1793.85
749.296	1687.36
749.481	1638.2
749.665	1673.02
749.85	1650.49
750.034	1738.55
750.219	1761.08
750.404	1570.62
750.588	1580.86
750.773	1736.51
750.957	1552.19
751.141	1627.96
751.326	1609.53
751.51	1697.6
751.695	1539.9
751.879	1535.81
752.064	1591.1
752.248	1529.66
752.432	1605.44
752.617	1439.55
752.801	1552.19
752.985	1492.8
753.17	1500.99
753.354	1503.04
753.538	1468.22
753.722	1548.09
753.907	1433.41
754.091	1439.55
754.275	1472.32
754.459	1414.98
754.643	1361.73
754.828	1292.1
755.012	1384.26
755.196	1351.49
755.38	1386.3
755.564	1304.39
755.748	1376.06
755.932	1374.02
756.116	1341.25
756.3	1333.06
756.484	1288
756.668	1212.23
756.852	1154.88
757.036	1288
757.22	1296.19
757.404	1294.15
757.588	1234.75
757.772	1267.52
757.956	1267.52
758.14	1214.27
758.323	1240.9
758.507	1165.12
758.691	1265.47
758.875	1113.92
759.059	1208.13
759.242	1181.51
759.426	1210.18
759.61	1101.64
759.794	1113.92
759.977	1181.51
760.161	1132.36
760.345	1120.07
760.528	1048.39
760.712	1011.53
760.895	1197.89
761.079	1085.25
761.263	1128.26
761.446	1060.68
761.63	1072.96
761.813	1115.97
761.997	1097.54
762.18	993.09
762.364	1103.68
762.547	982.85
762.731	1032.01
762.914	1058.63
763.098	954.18
763.281	1060.68
763.464	1048.39
763.648	964.42
763.831	941.89
764.015	1019.72
764.198	999.24
764.381	939.85
764.564	945.99
764.748	1075.01
764.931	1027.91
765.114	1001.29
765.297	956.23
765.481	950.09
765.664	970.57
765.847	900.94
766.03	954.18
766.213	950.09
766.397	962.37
766.58	862.02
766.763	966.47
766.946	921.42
767.129	923.46
767.312	894.79
767.495	954.18
767.678	849.74
767.861	958.28
768.044	921.42
768.227	843.59
768.41	896.84
768.593	933.7
768.776	859.98
768.959	853.83
769.142	900.94
769.324	823.11
769.507	802.63
769.69	892.74
769.873	917.32
770.056	913.22
770.239	825.16
770.421	849.74
770.604	933.7
770.787	847.69
770.97	814.92
771.152	864.07
771.335	810.82
771.518	776.01
771.7	857.93
771.883	874.31
772.066	788.3
772.248	759.63
772.431	806.73
772.613	763.72
772.796	776.01
772.978	724.81
773.161	814.92
773.343	771.91
773.526	708.43
773.708	800.59
773.891	689.99
774.073	823.11
774.256	649.04
774.438	837.45
774.621	728.91
774.803	712.52
774.985	687.95
775.168	794.44
775.35	667.47
775.532	816.97
775.715	706.38
775.897	671.56
776.079	571.21
776.261	653.13
776.444	716.62
776.626	593.74
776.808	653.13
776.99	667.47
777.173	636.75
777.355	618.32
777.537	675.66
777.719	714.57
777.901	683.85
778.083	667.47
778.265	589.64
778.447	583.5
778.629	663.37
778.811	563.02
778.993	599.88
779.175	751.43
779.357	612.17
779.539	614.22
779.721	556.88
779.903	616.27
780.085	569.16
780.267	560.97
780.449	507.73
780.631	532.3
780.812	585.55
780.994	667.47
781.176	612.17
781.358	524.11
781.54	556.88
781.721	528.21
781.903	577.36
782.085	497.49
782.267	485.2
782.448	464.72
782.63	507.73
782.812	491.34
782.993	495.44
783.175	485.2
783.357	452.43
783.538	489.29
783.72	505.68
783.901	442.19
784.083	411.47
784.264	395.09
784.446	421.71
784.627	483.15
784.809	462.67
784.99	427.85
785.172	358.22
785.353	307.02
785.535	427.85
785.716	380.75
785.897	368.46
786.079	378.7
786.26	448.33
786.441	444.24
786.623	417.61
786.804	440.14
786.985	370.51
787.167	466.77
787.348	372.56
787.529	370.51
787.71	431.95
787.891	477.01
788.073	452.43
788.254	388.94
788.435	436.05
788.616	423.76
788.797	325.46
788.978	360.27
789.159	415.57
789.34	436.05
789.522	397.14
789.703	370.51
789.884	390.99
790.065	337.74
790.246	370.51
790.427	327.5
790.607	417.61
790.788	393.04
790.969	325.46
791.15	352.08
791.331	331.6
791.512	341.84
791.693	304.98
791.874	345.94
792.054	366.42
792.235	362.32
792.416	337.74
792.597	360.27
792.778	339.79
792.958	268.11
793.139	208.72
793.32	296.78
793.5	294.74
793.681	395.09
793.862	247.63
794.042	309.07
794.223	286.54
794.404	309.07
794.584	284.5
794.765	366.42
794.945	276.31
795.126	264.02
795.306	329.55
795.487	274.26
795.667	300.88
795.848	302.93
796.028	237.39
796.209	245.59
796.389	229.2
796.57	323.41
796.75	225.11
796.93	347.98
797.111	251.73
797.291	288.59
797.471	249.68
797.652	270.16
797.832	241.49
798.012	321.36
798.192	175.95
798.373	251.73
798.553	221.01
798.733	253.78
798.913	200.53
799.093	276.31
799.274	294.74
799.454	272.21
799.634	249.68
799.814	290.64
799.994	239.44
800.174	235.35
800.354	225.11
800.534	190.29
800.714	194.39
800.894	159.57
801.074	175.95
801.254	200.53
801.434	239.44
801.614	231.25
801.794	227.15
801.974	548.68
802.154	229.2
802.334	276.31
802.514	188.24
802.693	251.73
802.873	198.48
803.053	317.26
803.233	253.78
803.413	237.39
803.592	221.01
803.772	231.25
803.952	239.44
804.131	184.15
804.311	237.39
804.491	229.2
804.67	182.1
804.85	225.11
805.03	210.77
805.209	208.72
805.389	280.4
805.568	239.44
805.748	202.58
805.928	251.73
806.107	233.3
806.287	261.97
806.466	216.91
806.646	200.53
806.825	171.86
807.004	165.71
807.184	212.82
807.363	147.28
807.543	198.48
807.722	151.38
807.901	206.67
808.081	96.08
808.26	108.37
808.439	237.39
808.619	141.14
808.798	253.78
808.977	184.15
809.156	241.49
809.336	89.94
809.515	233.3
809.694	145.24
809.873	165.71
810.052	190.29
810.231	180.05
810.411	171.86
810.59	255.83
810.769	106.32
810.948	182.1
811.127	91.99
811.306	67.41
811.485	145.24
811.664	218.96
811.843	173.91
812.022	137.04
812.201	186.19
812.38	210.77
812.559	147.28
812.737	126.8
812.916	108.37
813.095	132.95
813.274	186.19
813.453	161.62
813.632	163.67
813.811	143.19
813.989	132.95
814.168	114.52
814.347	130.9
814.526	151.38
814.704	159.57
814.883	165.71
815.062	151.38
815.24	251.73
815.419	157.52
815.598	100.18
815.776	98.13
815.955	126.8
816.133	87.89
816.312	157.52
816.49	128.85
816.669	161.62
816.847	124.76
817.026	104.28
817.204	94.04
817.383	10.07
817.561	118.61
817.74	130.9
817.918	139.09
818.097	118.61
818.275	130.9
818.453	87.89
818.632	147.28
818.81	120.66
818.988	79.7
819.167	100.18
819.345	114.52
819.523	145.24
819.701	75.6
819.879	120.66
820.058	124.76
820.236	145.24
820.414	89.94
820.592	161.62
820.77	122.71
820.948	110.42
821.127	126.8
821.305	122.71
821.483	153.43
821.661	106.32
821.839	135
822.017	110.42
822.195	145.24
822.373	132.95
822.551	122.71
822.729	102.23
822.907	48.98
823.085	163.67
823.262	51.03
823.44	79.7
823.618	96.08
823.796	102.23
823.974	116.56
824.152	53.08
824.329	57.17
824.507	137.04
824.685	163.67
824.863	128.85
825.04	169.81
825.218	106.32
825.396	137.04
825.574	169.81
825.751	126.8
825.929	106.32
826.107	96.08
826.284	112.47
826.462	65.36
826.639	130.9
826.817	5.97
826.994	100.18
827.172	61.27
827.349	141.14
827.527	94.04
827.704	91.99
827.882	16.21
828.059	104.28
828.237	102.23
828.414	139.09
828.591	14.17
828.769	94.04
828.946	59.22
829.124	65.36
829.301	91.99
829.478	104.28
829.655	69.46
829.833	126.8
830.01	94.04
830.187	120.66
830.364	94.04
830.542	57.17
830.719	104.28
830.896	20.31
831.073	28.5
831.25	116.56
831.427	14.17
831.604	108.37
831.782	55.12
831.959	139.09
832.136	81.75
832.313	89.94
832.49	48.98
832.667	79.7
832.844	137.04
833.021	102.23
833.198	96.08
833.374	59.22
833.551	-4.27
833.728	65.36
833.905	12.12
834.082	59.22
834.259	94.04
834.436	71.51
834.612	22.36
834.789	106.32
834.966	51.03
835.143	48.98
835.319	63.32
835.496	85.84
835.673	100.18
835.85	42.84
836.026	94.04
836.203	65.36
836.38	48.98
836.556	-20.65
836.733	3.93
836.909	94.04
837.086	67.41
837.262	10.07
837.439	24.4
837.616	55.12
837.792	18.26
837.968	73.56
838.145	-8.36
838.321	30.55
838.498	79.7
838.674	96.08
838.851	87.89
839.027	65.36
839.203	83.8
839.38	118.61
839.556	-10.41
839.732	55.12
839.909	16.21
840.085	87.89
840.261	77.65
840.437	-18.6
840.614	30.55
840.79	83.8
840.966	44.88
841.142	96.08
841.318	26.45
841.494	65.36
841.671	-18.6
841.847	73.56
842.023	94.04
842.199	102.23
842.375	40.79
842.551	24.4
842.727	-0.17
842.903	151.38
843.079	55.12
843.255	63.32
843.431	20.31
843.607	73.56
843.783	59.22
843.959	38.74
844.134	81.75
844.31	87.89
844.486	-51.37
844.662	26.45
844.838	83.8
845.013	83.8
845.189	-18.6
845.365	51.03
845.541	69.46
845.716	48.98
845.892	75.6
846.068	16.21
846.244	30.55
846.419	22.36
846.595	-37.03
846.77	100.18
846.946	63.32
847.122	36.69
847.297	-2.22
847.473	71.51
847.648	14.17
847.824	73.56
847.999	22.36
848.175	-30.89
848.35	61.27
848.526	51.03
848.701	40.79
848.876	5.97
849.052	42.84
849.227	26.45
849.403	-8.36
849.578	3.93
849.753	10.07
849.929	-6.31
850.104	91.99
850.279	38.74
850.454	32.6
850.63	3.93
850.805	73.56
850.98	-20.65
851.155	-16.55
851.33	36.69
851.505	-4.27
851.681	79.7
851.856	42.84
852.031	3.93
852.206	-16.55
852.381	-0.17
852.556	98.13
852.731	44.88
852.906	102.23
853.081	48.98
853.256	24.4
853.431	20.31
853.606	55.12
853.781	-2.22
853.956	16.21
854.131	51.03
854.305	44.88
854.48	12.12
854.655	-39.08
854.83	63.32
855.005	67.41
855.18	77.65
855.354	14.17
855.529	8.02
855.704	-32.94
855.879	-26.79
856.053	16.21
856.228	22.36
856.403	-2.22
856.577	8.02
856.752	-4.27
856.926	65.36
857.101	38.74
857.276	96.08
857.45	46.93
857.625	3.93
857.799	55.12
857.974	-6.31
858.148	5.97
858.323	44.88
858.497	-45.23
858.672	3.93
858.846	32.6
859.02	-8.36
859.195	-6.31
859.369	-16.55
859.543	20.31
859.718	30.55
859.892	71.51
860.066	-12.46
860.241	-20.65
860.415	79.7
860.589	46.93
860.763	26.45
860.938	-26.79
861.112	3.93
861.286	20.31
861.46	12.12
861.634	-30.89
861.808	98.13
861.982	20.31
862.157	-2.22
862.331	20.31
862.505	12.12
862.679	-14.51
862.853	-18.6
863.027	36.69
863.201	79.7
863.375	34.64
863.549	65.36
863.722	-43.18
863.896	116.56
864.07	12.12
864.244	71.51
864.418	-14.51
864.592	65.36
864.766	12.12
864.939	34.64
865.113	-63.66
865.287	71.51
865.461	-41.13
865.634	26.45
865.808	34.64
865.982	-26.79
866.156	-10.41
866.329	32.6
866.503	73.56
866.676	32.6
866.85	28.5
867.024	34.64
867.197	28.5
867.371	55.12
867.544	12.12
867.718	59.22
867.891	5.97
868.065	73.56
868.238	-45.23
868.412	38.74
868.585	44.88
868.759	26.45
868.932	22.36
869.105	22.36
869.279	-30.89
869.452	-8.36
869.625	-28.84
869.799	12.12
869.972	36.69
870.145	32.6
870.319	16.21
870.492	5.97
870.665	-26.79
870.838	-4.27
871.011	-41.13
871.185	24.4
871.358	-41.13
871.531	24.4
871.704	1.88
871.877	-30.89
872.05	40.79
872.223	3.93
872.396	36.69
872.569	20.31
872.742	24.4
872.915	38.74
873.088	-24.75
873.261	67.41
873.434	20.31
873.607	-28.84
873.78	40.79
873.953	-2.22
874.126	-75.95
874.299	-22.7
874.471	14.17
874.644	87.89
874.817	48.98
874.99	12.12
875.163	36.69
875.335	8.02
875.508	-18.6
875.681	18.26
875.853	10.07
876.026	28.5
876.199	-73.9
876.371	77.65
876.544	79.7
876.717	-24.75
876.889	-12.46
877.062	3.93
877.234	-20.65
877.407	20.31
877.579	-0.17
877.752	12.12
877.924	24.4
878.097	-12.46
878.269	28.5
878.442	14.17
878.614	-26.79
878.786	14.17
878.959	-16.55
879.131	-10.41
879.303	38.74
879.476	-20.65
879.648	89.94
879.82	-10.41
879.993	-4.27
880.165	18.26
880.337	-92.33
880.509	20.31
880.681	-8.36
880.854	-61.61
881.026	16.21
881.198	48.98
881.37	10.07
881.542	85.84
881.714	10.07
881.886	40.79
882.058	-2.22
882.23	18.26
882.402	-2.22
882.574	38.74
882.746	-43.18
882.918	16.21
883.09	14.17
883.262	-82.09
883.434	1.88
883.606	59.22
883.778	30.55
883.95	65.36
884.122	-47.27
884.293	63.32
884.465	38.74
884.637	44.88
884.809	-22.7
884.98	-6.31
885.152	-26.79
885.324	18.26
885.496	-4.27
885.667	-2.22
885.839	10.07
886.011	83.8
886.182	5.97
886.354	89.94
886.525	22.36
886.697	-32.94
886.869	-24.75
887.04	44.88
887.212	91.99
887.383	48.98
887.555	14.17
887.726	-32.94
887.897	-34.99
888.069	73.56
888.24	-20.65
888.412	85.84
888.583	65.36
888.754	63.32
888.926	3.93
889.097	32.6
889.268	48.98
889.44	-0.17
889.611	-30.89
889.782	-12.46
889.953	-59.56
890.125	-51.37
890.296	-20.65
890.467	-26.79
890.638	-0.17
890.809	63.32
890.98	-26.79
891.151	5.97
891.323	-10.41
891.494	46.93
891.665	-22.7
891.836	28.5
892.007	5.97
892.178	-4.27
892.349	-2.22
892.52	-51.37
892.691	46.93
892.862	-6.31
893.032	10.07
893.203	32.6
893.374	16.21
893.545	30.55
893.716	-18.6
893.887	3.93
894.057	-71.85
894.228	-12.46
894.399	-0.17
894.57	30.55
894.74	-71.85
894.911	-10.41
895.082	-53.42
895.253	-41.13
895.423	-16.55
895.594	-26.79
895.764	57.17
895.935	32.6
896.106	28.5
896.276	-71.85
896.447	-14.51
896.617	-2.22
896.788	-2.22
896.958	48.98
897.129	-28.84
897.299	36.69
897.47	-55.47
897.64	16.21
897.81	18.26
897.981	79.7
898.151	-37.03
898.322	3.93
898.492	48.98
898.662	18.26
898.832	-20.65
899.003	51.03
899.173	26.45
899.343	-4.27
899.513	-47.27
