Data from USB4F104151__98__12-02-40-803.txt Node

Date: Fri Mar 14 12:02:40 EDT 2025
User: louis
Spectrometer: USB4F10415
Trigger mode: 4
Integration Time (sec): 2.000000E-2
Scans to average: 1
Electric dark correction enabled: true
Nonlinearity correction enabled: false
Boxcar width: 0
XAxis mode: Wavelengths
Number of Pixels in Spectrum: 3648
>>>>>Begin Spectral Data<<<<<
178.204	-32.77
178.424	-32.77
178.644	-32.77
178.864	-51.2
179.084	-12.29
179.304	-18.43
179.524	53.25
179.744	47.1
179.964	6.14
180.184	24.58
180.404	12.29
180.624	-38.91
180.844	-55.3
181.064	-34.82
181.283	-16.38
181.503	-30.72
181.723	51.2
181.943	-28.67
182.163	40.96
182.383	6.14
182.602	69.63
182.822	67.58
183.042	57.34
183.262	-22.53
183.482	2.05
183.701	32.77
183.921	-2.05
184.141	16.38
184.361	86.01
184.58	-51.2
184.8	12.29
185.02	-26.62
185.239	24.58
185.459	12.29
185.679	-75.77
185.898	45.06
186.118	65.53
186.338	-28.67
186.557	81.92
186.777	-20.48
186.997	14.34
187.216	-0
187.436	-18.43
187.655	86.01
187.875	108.54
188.095	-47.1
188.314	38.91
188.534	-8.19
188.753	26.62
188.973	32.77
189.192	20.48
189.412	-51.2
189.631	53.25
189.851	20.48
190.07	45.06
190.29	104.45
190.509	51.2
190.729	-26.62
190.948	141.31
191.168	118.78
191.387	18.43
191.607	34.82
191.826	4.1
192.045	30.72
192.265	-12.29
192.484	32.77
192.704	20.48
192.923	14.34
193.142	51.2
193.362	10.24
193.581	38.91
193.8	-26.62
194.02	69.63
194.239	-47.1
194.458	-38.91
194.678	-24.58
194.897	-12.29
195.116	71.68
195.335	6.14
195.555	-47.1
195.774	112.64
195.993	61.44
196.212	-34.82
196.432	69.63
196.651	47.1
196.87	24.58
197.089	108.54
197.308	94.21
197.528	53.25
197.747	2.05
197.966	-12.29
198.185	24.58
198.404	-61.44
198.623	16.38
198.842	69.63
199.062	12.29
199.281	30.72
199.5	-61.44
199.719	4.1
199.938	-4.1
200.157	-34.82
200.376	43.01
200.595	22.53
200.814	-22.53
201.033	-18.43
201.252	28.67
201.471	79.87
201.69	32.77
201.909	77.82
202.128	38.91
202.347	-51.2
202.566	40.96
202.785	-24.58
203.004	24.58
203.223	57.34
203.442	10.24
203.661	32.77
203.879	18.43
204.098	40.96
204.317	-16.38
204.536	4.1
204.755	12.29
204.974	8.19
205.193	45.06
205.411	75.77
205.63	43.01
205.849	47.1
206.068	53.25
206.287	20.48
206.505	10.24
206.724	38.91
206.943	-18.43
207.162	26.62
207.381	51.2
207.599	43.01
207.818	-2.05
208.037	32.77
208.255	61.44
208.474	81.92
208.693	69.63
208.911	79.87
209.13	57.34
209.349	67.58
209.567	32.77
209.786	86.01
210.005	47.1
210.223	51.2
210.442	-38.91
210.661	55.3
210.879	14.34
211.098	-8.19
211.316	28.67
211.535	61.44
211.753	20.48
211.972	-53.25
212.191	30.72
212.409	108.54
212.628	57.34
212.846	98.3
213.065	-0
213.283	51.2
213.502	45.06
213.72	16.38
213.938	6.14
214.157	2.05
214.375	24.58
214.594	-6.14
214.812	2.05
215.031	-14.34
215.249	-18.43
215.467	12.29
215.686	18.43
215.904	104.45
216.122	71.68
216.341	61.44
216.559	34.82
216.778	43.01
216.996	59.39
217.214	20.48
217.432	71.68
217.651	-8.19
217.869	16.38
218.087	20.48
218.306	-45.06
218.524	65.53
218.742	-22.53
218.96	-2.05
219.179	49.15
219.397	-40.96
219.615	86.01
219.833	43.01
220.051	24.58
220.27	90.11
220.488	-34.82
220.706	-8.19
220.924	59.39
221.142	47.1
221.36	18.43
221.578	-18.43
221.796	57.34
222.015	22.53
222.233	86.01
222.451	49.15
222.669	61.44
222.887	-6.14
223.105	14.34
223.323	12.29
223.541	12.29
223.759	38.91
223.977	61.44
224.195	-30.72
224.413	30.72
224.631	36.86
224.849	59.39
225.067	22.53
225.285	63.49
225.503	-6.14
225.721	-40.96
225.939	86.01
226.157	49.15
226.375	59.39
226.592	20.48
226.81	18.43
227.028	83.97
227.246	30.72
227.464	-51.2
227.682	-65.54
227.9	-55.3
228.117	36.86
228.335	-4.1
228.553	14.34
228.771	-20.48
228.989	69.63
229.206	38.91
229.424	14.34
229.642	67.58
229.86	28.67
230.077	38.91
230.295	49.15
230.513	49.15
230.731	55.3
230.948	61.44
231.166	57.34
231.384	-6.14
231.601	55.3
231.819	4.1
232.037	57.34
232.254	-43.01
232.472	20.48
232.689	-36.86
232.907	12.29
233.125	59.39
233.342	51.2
233.56	-16.38
233.777	26.62
233.995	79.87
234.213	30.72
234.43	-30.72
234.648	12.29
234.865	-8.19
235.083	2.05
235.3	43.01
235.518	36.86
235.735	57.34
235.953	57.34
236.17	57.34
236.388	12.29
236.605	75.77
236.822	43.01
237.04	10.24
237.257	-51.2
237.475	18.43
237.692	73.73
237.909	-18.43
238.127	32.77
238.344	-30.72
238.562	90.11
238.779	-6.14
238.996	-0
239.214	-34.82
239.431	20.48
239.648	38.91
239.865	59.39
240.083	-4.1
240.3	40.96
240.517	-14.34
240.735	10.24
240.952	43.01
241.169	73.73
241.386	75.77
241.603	63.49
241.821	57.34
242.038	8.19
242.255	53.25
242.472	137.21
242.689	2.05
242.907	6.14
243.124	-0
243.341	45.06
243.558	-53.25
243.775	24.58
243.992	10.24
244.209	61.44
244.426	163.84
244.643	22.53
244.86	57.34
245.078	14.34
245.295	26.62
245.512	55.3
245.729	-24.58
245.946	-2.05
246.163	24.58
246.38	-26.62
246.597	-6.14
246.814	43.01
247.031	81.92
247.248	-32.77
247.464	16.38
247.681	34.82
247.898	22.53
248.115	55.3
248.332	38.91
248.549	77.82
248.766	22.53
248.983	-14.34
249.2	-43.01
249.417	73.73
249.633	12.29
249.85	32.77
250.067	-2.05
250.284	59.39
250.501	24.58
250.717	8.19
250.934	-55.3
251.151	53.25
251.368	-6.14
251.585	61.44
251.801	47.1
252.018	12.29
252.235	79.87
252.451	47.1
252.668	12.29
252.885	100.35
253.102	118.78
253.318	30.72
253.535	-8.19
253.752	26.62
253.968	83.97
254.185	20.48
254.401	-40.96
254.618	34.82
254.835	16.38
255.051	59.39
255.268	79.87
255.484	47.1
255.701	36.86
255.917	75.77
256.134	-12.29
256.351	61.44
256.567	-40.96
256.784	81.92
257	18.43
257.217	30.72
257.433	24.58
257.65	12.29
257.866	59.39
258.082	-45.06
258.299	77.82
258.515	51.2
258.732	20.48
258.948	-34.82
259.165	67.58
259.381	6.14
259.597	20.48
259.814	-26.62
260.03	16.38
260.246	-53.25
260.463	-40.96
260.679	-10.24
260.895	47.1
261.112	61.44
261.328	28.67
261.544	-10.24
261.761	30.72
261.977	24.58
262.193	-34.82
262.409	-26.62
262.626	67.58
262.842	8.19
263.058	77.82
263.274	63.49
263.49	-2.05
263.707	63.49
263.923	38.91
264.139	22.53
264.355	10.24
264.571	51.2
264.787	96.25
265.004	73.73
265.22	-4.1
265.436	4.1
265.652	51.2
265.868	18.43
266.084	-16.38
266.3	51.2
266.516	10.24
266.732	71.68
266.948	18.43
267.164	26.62
267.38	63.49
267.596	38.91
267.812	22.53
268.028	61.44
268.244	51.2
268.46	20.48
268.676	83.97
268.892	18.43
269.108	4.1
269.324	110.59
269.54	40.96
269.756	-10.24
269.972	112.64
270.188	57.34
270.403	45.06
270.619	16.38
270.835	18.43
271.051	-38.91
271.267	26.62
271.483	73.73
271.698	36.86
271.914	88.06
272.13	8.19
272.346	-28.67
272.562	-24.58
272.777	104.45
272.993	14.34
273.209	32.77
273.425	83.97
273.64	65.53
273.856	-2.05
274.072	43.01
274.287	-43.01
274.503	-8.19
274.719	-8.19
274.934	36.86
275.15	-8.19
275.366	77.82
275.581	-12.29
275.797	-24.58
276.012	-88.06
276.228	32.77
276.444	32.77
276.659	2.05
276.875	-14.34
277.09	26.62
277.306	40.96
277.521	67.58
277.737	18.43
277.952	51.2
278.168	67.58
278.383	59.39
278.599	4.1
278.814	36.86
279.03	-6.14
279.245	102.4
279.461	36.86
279.676	10.24
279.892	-4.1
280.107	49.15
280.322	24.58
280.538	65.53
280.753	108.54
280.969	-2.05
281.184	-4.1
281.399	81.92
281.615	20.48
281.83	6.14
282.045	6.14
282.26	-14.34
282.476	24.58
282.691	30.72
282.906	26.62
283.122	10.24
283.337	88.06
283.552	24.58
283.767	38.91
283.983	77.82
284.198	-36.86
284.413	14.34
284.628	-34.82
284.843	18.43
285.058	10.24
285.274	88.06
285.489	18.43
285.704	16.38
285.919	38.91
286.134	40.96
286.349	106.49
286.564	36.86
286.779	2.05
286.995	12.29
287.21	38.91
287.425	106.49
287.64	57.34
287.855	83.97
288.07	34.82
288.285	8.19
288.5	38.91
288.715	67.58
288.93	40.96
289.145	20.48
289.36	57.34
289.575	-34.82
289.79	63.49
290.004	30.72
290.219	55.3
290.434	73.73
290.649	-18.43
290.864	100.35
291.079	-0
291.294	-10.24
291.509	-22.53
291.724	22.53
291.938	57.34
292.153	61.44
292.368	4.1
292.583	51.2
292.798	-55.3
293.012	36.86
293.227	45.06
293.442	57.34
293.657	77.82
293.871	12.29
294.086	45.06
294.301	45.06
294.516	57.34
294.73	47.1
294.945	75.77
295.16	120.83
295.374	102.4
295.589	51.2
295.804	10.24
296.018	8.19
296.233	30.72
296.447	8.19
296.662	10.24
296.877	-12.29
297.091	-20.48
297.306	53.25
297.52	20.48
297.735	81.92
297.949	43.01
298.164	100.35
298.378	47.1
298.593	75.77
298.807	-47.1
299.022	59.39
299.236	-0
299.451	20.48
299.665	4.1
299.88	2.05
300.094	12.29
300.309	-0
300.523	49.15
300.737	-34.82
300.952	-18.43
301.166	-47.1
301.381	73.73
301.595	30.72
301.809	28.67
302.024	8.19
302.238	53.25
302.452	26.62
302.667	16.38
302.881	38.91
303.095	90.11
303.309	4.1
303.524	-34.82
303.738	-22.53
303.952	4.1
304.166	24.58
304.381	-2.05
304.595	92.16
304.809	69.63
305.023	53.25
305.237	43.01
305.452	30.72
305.666	63.49
305.88	57.34
306.094	77.82
306.308	16.38
306.522	110.59
306.736	-0
306.95	71.68
307.164	6.14
307.379	-28.67
307.593	-26.62
307.807	22.53
308.021	-38.91
308.235	4.1
308.449	104.45
308.663	32.77
308.877	118.78
309.091	77.82
309.305	47.1
309.519	-12.29
309.733	24.58
309.947	-6.14
310.161	102.4
310.374	102.4
310.588	53.25
310.802	14.34
311.016	-2.05
311.23	34.82
311.444	-12.29
311.658	2.05
311.872	55.3
312.085	24.58
312.299	51.2
312.513	38.91
312.727	-18.43
312.941	34.82
313.154	38.91
313.368	8.19
313.582	36.86
313.796	65.53
314.009	55.3
314.223	-12.29
314.437	47.1
314.651	-4.1
314.864	20.48
315.078	51.2
315.292	22.53
315.505	-8.19
315.719	96.25
315.933	81.92
316.146	65.53
316.36	40.96
316.573	8.19
316.787	10.24
317.001	-12.29
317.214	36.86
317.428	6.14
317.641	18.43
317.855	53.25
318.068	51.2
318.282	69.63
318.495	53.25
318.709	57.34
318.922	28.67
319.136	112.64
319.349	10.24
319.563	-6.14
319.776	51.2
319.99	-12.29
320.203	30.72
320.417	10.24
320.63	100.35
320.843	67.58
321.057	40.96
321.27	8.19
321.483	79.87
321.697	69.63
321.91	-4.1
322.124	51.2
322.337	98.3
322.55	94.21
322.763	8.19
322.977	-32.77
323.19	-6.14
323.403	32.77
323.617	10.24
323.83	40.96
324.043	-38.91
324.256	40.96
324.469	6.14
324.683	61.44
324.896	28.67
325.109	24.58
325.322	47.1
325.535	51.2
325.748	73.73
325.962	51.2
326.175	2.05
326.388	-6.14
326.601	49.15
326.814	83.97
327.027	-24.58
327.24	49.15
327.453	8.19
327.666	57.34
327.879	120.83
328.092	75.77
328.305	34.82
328.518	-0
328.731	43.01
328.944	-10.24
329.157	59.39
329.37	4.1
329.583	40.96
329.796	67.58
330.009	53.25
330.222	36.86
330.435	57.34
330.648	32.77
330.861	-22.53
331.073	30.72
331.286	-38.91
331.499	61.44
331.712	-14.34
331.925	-18.43
332.138	51.2
332.35	65.53
332.563	-10.24
332.776	28.67
332.989	-8.19
333.202	-71.68
333.414	38.91
333.627	-12.29
333.84	69.63
334.053	112.64
334.265	12.29
334.478	-69.63
334.691	-51.2
334.903	92.16
335.116	75.77
335.329	53.25
335.541	22.53
335.754	67.58
335.966	18.43
336.179	71.68
336.392	28.67
336.604	4.1
336.817	16.38
337.029	102.4
337.242	30.72
337.454	96.25
337.667	47.1
337.88	104.45
338.092	2.05
338.305	73.73
338.517	-12.29
338.729	120.83
338.942	43.01
339.154	-22.53
339.367	14.34
339.579	67.58
339.792	43.01
340.004	47.1
340.217	77.82
340.429	34.82
340.641	12.29
340.854	-28.67
341.066	18.43
341.278	24.58
341.491	57.34
341.703	30.72
341.915	26.62
342.128	100.35
342.34	-14.34
342.552	26.62
342.764	88.06
342.977	45.06
343.189	34.82
343.401	26.62
343.613	-8.19
343.826	83.97
344.038	8.19
344.25	-43.01
344.462	55.3
344.674	55.3
344.886	57.34
345.099	86.01
345.311	34.82
345.523	-12.29
345.735	14.34
345.947	49.15
346.159	-26.62
346.371	-22.53
346.583	61.44
346.795	57.34
347.007	-8.19
347.219	34.82
347.431	-6.14
347.643	49.15
347.855	73.73
348.067	55.3
348.279	-18.43
348.491	81.92
348.703	61.44
348.915	65.53
349.127	-45.06
349.339	30.72
349.551	61.44
349.763	73.73
349.975	59.39
350.187	47.1
350.399	77.82
350.61	28.67
350.822	47.1
351.034	18.43
351.246	20.48
351.458	-63.49
351.669	40.96
351.881	86.01
352.093	98.3
352.305	81.92
352.517	65.53
352.728	40.96
352.94	112.64
353.152	51.2
353.363	-16.38
353.575	30.72
353.787	59.39
353.999	-34.82
354.21	45.06
354.422	96.25
354.633	34.82
354.845	-30.72
355.057	-0
355.268	126.97
355.48	-16.38
355.692	-45.06
355.903	61.44
356.115	77.82
356.326	47.1
356.538	114.69
356.749	67.58
356.961	61.44
357.172	32.77
357.384	30.72
357.595	90.11
357.807	51.2
358.018	26.62
358.23	20.48
358.441	40.96
358.653	65.53
358.864	4.1
359.075	129.02
359.287	10.24
359.498	81.92
359.709	30.72
359.921	22.53
360.132	96.25
360.344	98.3
360.555	79.87
360.766	63.49
360.977	28.67
361.189	-20.48
361.4	36.86
361.611	55.3
361.823	86.01
362.034	108.54
362.245	28.67
362.456	20.48
362.667	104.45
362.879	32.77
363.09	36.86
363.301	61.44
363.512	63.49
363.723	55.3
363.935	14.34
364.146	38.91
364.357	-2.05
364.568	98.3
364.779	10.24
364.99	-2.05
365.201	38.91
365.412	63.49
365.623	65.53
365.834	88.06
366.045	49.15
366.256	81.92
366.467	4.1
366.678	55.3
366.889	79.87
367.1	34.82
367.311	-10.24
367.522	49.15
367.733	26.62
367.944	26.62
368.155	30.72
368.366	90.11
368.577	-28.67
368.788	18.43
368.999	4.1
369.209	-36.86
369.42	79.87
369.631	149.5
369.842	26.62
370.053	38.91
370.264	38.91
370.474	86.01
370.685	12.29
370.896	28.67
371.107	59.39
371.317	73.73
371.528	40.96
371.739	63.49
371.95	92.16
372.16	40.96
372.371	75.77
372.582	47.1
372.792	-12.29
373.003	47.1
373.214	40.96
373.424	-2.05
373.635	45.06
373.846	57.34
374.056	10.24
374.267	49.15
374.477	26.62
374.688	36.86
374.898	73.73
375.109	90.11
375.319	92.16
375.53	81.92
375.74	77.82
375.951	12.29
376.161	53.25
376.372	36.86
376.582	57.34
376.793	38.91
377.003	10.24
377.214	73.73
377.424	116.73
377.635	43.01
377.845	-0
378.055	-0
378.266	6.14
378.476	116.73
378.686	18.43
378.897	-30.72
379.107	63.49
379.317	100.35
379.528	24.58
379.738	43.01
379.948	-0
380.158	57.34
380.369	24.58
380.579	43.01
380.789	43.01
380.999	6.14
381.21	98.3
381.42	30.72
381.63	100.35
381.84	94.21
382.05	81.92
382.261	51.2
382.471	59.39
382.681	104.45
382.891	96.25
383.101	81.92
383.311	-0
383.521	26.62
383.731	2.05
383.941	57.34
384.151	47.1
384.361	16.38
384.571	73.73
384.781	59.39
384.991	67.58
385.201	32.77
385.411	36.86
385.621	20.48
385.831	-14.34
386.041	116.73
386.251	79.87
386.461	40.96
386.671	47.1
386.881	49.15
387.091	-2.05
387.301	-34.82
387.511	6.14
387.72	79.87
387.93	81.92
388.14	12.29
388.35	-0
388.56	81.92
388.769	92.16
388.979	65.53
389.189	59.39
389.399	69.63
389.609	100.35
389.818	32.77
390.028	32.77
390.238	88.06
390.447	26.62
390.657	71.68
390.867	73.73
391.076	24.58
391.286	55.3
391.496	43.01
391.705	40.96
391.915	24.58
392.125	124.93
392.334	-0
392.544	116.73
392.753	102.4
392.963	73.73
393.172	8.19
393.382	14.34
393.591	92.16
393.801	36.86
394.01	86.01
394.22	24.58
394.429	114.69
394.639	2.05
394.848	86.01
395.058	36.86
395.267	-6.14
395.477	73.73
395.686	34.82
395.895	120.83
396.105	137.21
396.314	53.25
396.524	112.64
396.733	100.35
396.942	151.55
397.152	92.16
397.361	61.44
397.57	83.97
397.78	71.68
397.989	-10.24
398.198	184.32
398.407	108.54
398.617	45.06
398.826	159.74
399.035	22.53
399.244	124.93
399.453	67.58
399.663	169.98
399.872	83.97
400.081	4.1
400.29	55.3
400.499	133.12
400.708	124.93
400.917	77.82
401.127	83.97
401.336	118.78
401.545	126.97
401.754	110.59
401.963	133.12
402.172	67.58
402.381	104.45
402.59	88.06
402.799	143.36
403.008	155.65
403.217	126.97
403.426	124.93
403.635	94.21
403.844	165.89
404.053	112.64
404.262	96.25
404.471	200.7
404.68	169.98
404.888	131.07
405.097	71.68
405.306	112.64
405.515	172.03
405.724	104.45
405.933	163.84
406.142	221.18
406.35	141.31
406.559	124.93
406.768	137.21
406.977	110.59
407.185	245.76
407.394	190.46
407.603	163.84
407.812	172.03
408.02	282.62
408.229	204.8
408.438	253.95
408.646	231.42
408.855	229.37
409.064	229.37
409.272	223.23
409.481	325.63
409.69	286.72
409.898	245.76
410.107	301.05
410.315	339.96
410.524	270.33
410.733	264.19
410.941	374.78
411.15	350.2
411.358	325.63
411.567	368.63
411.775	368.63
411.984	325.63
412.192	419.83
412.401	415.74
412.609	419.83
412.818	524.28
413.026	473.08
413.234	509.94
413.443	530.42
413.651	497.66
413.86	524.28
414.068	552.95
414.276	573.43
414.485	573.43
414.693	589.81
414.901	589.81
415.11	600.05
415.318	606.2
415.526	780.28
415.734	708.6
415.943	718.84
416.151	724.98
416.359	759.8
416.567	819.19
416.776	806.9
416.984	933.87
417.192	927.73
417.4	897.01
417.608	931.83
417.817	905.2
418.025	958.45
418.233	1200.11
418.441	1032.18
418.649	1171.44
418.857	1073.14
419.065	1116.14
419.273	1198.06
419.481	1298.41
419.689	1288.17
419.897	1294.32
420.105	1386.47
420.313	1556.46
420.521	1560.55
420.729	1456.11
420.937	1726.44
421.145	1546.22
421.353	1689.57
421.561	1818.6
421.769	1875.94
421.977	1875.94
422.185	1896.42
422.393	1982.43
422.601	2035.68
422.809	2078.69
423.017	2088.93
423.224	2277.34
423.432	2349.02
423.64	2258.91
423.848	2600.92
424.056	2414.56
424.263	2701.27
424.471	2578.39
424.679	2779.09
424.887	2787.29
425.094	2764.76
425.302	2895.83
425.51	3024.85
425.718	3129.3
425.925	3194.83
426.133	3313.61
426.341	3479.5
426.548	3561.42
426.756	3594.19
426.964	3747.78
427.171	3772.36
427.379	3973.06
427.586	4102.08
427.794	4034.5
428.001	4446.14
428.209	4616.12
428.417	4493.24
428.624	4786.1
428.832	4759.48
429.039	4773.82
429.247	4693.94
429.454	5300.14
429.662	5509.04
429.869	5220.27
430.076	5599.15
430.284	5447.6
430.491	5732.26
430.699	6135.71
430.906	5900.2
431.114	5984.16
431.321	6295.46
431.528	6604.7
431.736	6965.14
431.943	7139.22
432.15	6752.15
432.358	6948.76
432.565	7493.52
432.772	7178.13
432.979	7763.85
433.187	7929.73
433.394	8007.56
433.601	8472.45
433.808	8546.17
434.016	8501.12
434.223	8662.91
434.43	9224.05
434.637	9017.21
434.844	9633.65
435.052	10057.57
435.259	9740.14
435.466	10116.97
435.673	9750.38
435.88	10430.3
436.087	11085.65
436.294	10966.87
436.501	10647.39
436.708	11028.31
436.915	11431.76
437.122	11722.57
437.329	11747.15
437.537	12201.8
437.743	12398.4
437.95	12162.89
438.157	13080.38
438.364	13422.39
438.571	13311.8
438.778	13422.39
438.985	14812.96
439.192	14069.55
439.399	14397.22
439.606	14280.49
439.813	14999.32
440.02	15916.81
440.227	15535.89
440.433	15525.65
440.64	16156.43
440.847	15816.46
441.054	16533.25
441.261	17362.68
441.467	17305.34
441.674	17559.28
441.881	18218.73
442.088	18188.01
442.294	17819.38
442.501	18616.04
442.708	18931.42
442.914	19447.51
443.121	20383.43
443.328	20037.33
443.534	21356.22
443.741	20539.08
443.948	20534.98
444.154	21700.28
444.361	21694.13
444.568	21731
444.774	21708.47
444.981	21939.89
445.187	22509.22
445.394	23850.64
445.6	23535.26
445.807	25558.65
446.013	24487.56
446.22	25161.34
446.426	26132.08
446.633	26175.09
446.839	27131.49
447.046	26087.03
447.252	27471.45
447.459	27510.36
447.665	27344.48
447.871	28597.84
448.078	30008.89
448.284	28202.58
448.491	29130.31
448.697	30373.42
448.903	30965.29
449.11	31047.21
449.316	30510.64
449.522	30930.47
449.728	31694.36
449.935	31964.7
450.141	31890.97
450.347	32996.87
450.553	31847.96
450.76	32130.58
450.966	32953.87
451.172	32734.73
451.378	33437.19
451.584	32572.94
451.791	33791.48
451.997	33375.75
452.203	34090.49
452.409	34129.4
452.615	33787.39
452.821	32863.75
453.027	32093.72
453.233	33664.51
453.44	32425.49
453.646	33019.4
453.852	33134.09
454.058	33605.12
454.264	32427.54
454.47	33508.86
454.676	32456.21
454.882	33443.33
455.088	30699.05
455.294	30936.62
455.5	31460.9
455.705	31784.47
455.911	30465.58
456.117	29826.62
456.323	29736.51
456.529	27848.28
456.735	29392.45
456.941	28603.98
457.147	28339.79
457.352	27164.26
457.558	27076.19
457.764	26969.7
457.97	26193.52
458.176	25822.84
458.381	25456.25
458.587	24639.11
458.793	23975.57
458.999	23185.05
459.204	24794.76
459.41	24172.18
459.616	22595.24
459.821	22851.24
460.027	22259.37
460.233	21817.01
460.438	20840.13
460.644	21270.2
460.85	20096.72
461.055	19967.7
461.261	19869.39
461.466	18278.12
461.672	18001.65
461.878	19013.34
462.083	17917.68
462.289	17336.06
462.494	17454.84
462.7	16596.74
462.905	16037.64
463.111	16525.06
463.316	16678.66
463.522	16518.92
463.727	16430.85
463.932	16398.09
464.138	16078.6
464.343	16078.6
464.549	15781.65
464.754	16219.91
464.959	16174.86
465.165	15974.16
465.37	15277.85
465.575	14941.98
465.781	15773.46
465.986	15664.91
466.191	14954.27
466.397	14823.2
466.602	14124.84
466.807	14755.61
467.012	14468.9
467.218	14470.95
467.423	14288.68
467.628	14407.46
467.833	14921.5
468.038	14466.85
468.244	14022.44
468.449	14651.17
468.654	14200.62
468.859	14022.44
469.064	13999.91
469.269	13266.74
469.474	13358.9
469.679	13870.89
469.885	13352.76
470.09	13510.45
470.295	13469.49
470.5	13127.48
470.705	13231.93
470.91	12676.93
471.115	12894.01
471.32	12986.17
471.525	12859.2
471.73	12748.61
471.935	12476.23
472.139	12185.41
472.344	12144.45
472.549	12013.38
472.754	12019.53
472.959	11741
473.164	11736.91
473.369	11466.58
473.574	11786.06
473.778	11867.98
473.983	11571.02
474.188	11495.25
474.393	10936.15
474.598	11099.99
474.802	10819.42
475.007	10749.79
475.212	10868.57
475.417	10520.42
475.621	10676.06
475.826	10504.03
476.031	10393.44
476.235	10270.56
476.44	10272.61
476.645	10129.25
476.849	10174.31
477.054	9846.63
477.259	9795.43
477.463	9758.57
477.668	9658.22
477.872	9787.24
478.077	9492.34
478.282	9246.58
478.486	9248.63
478.691	9185.14
478.895	9213.81
479.1	9217.91
479.304	9099.13
479.509	8720.25
479.713	9017.21
479.918	8976.25
480.122	8605.56
480.326	8869.75
480.531	8945.53
480.735	8621.95
480.94	8738.68
481.144	8763.26
481.348	8468.35
481.553	8863.61
481.757	8456.06
481.961	8583.04
482.166	8712.06
482.37	8511.36
482.574	8449.92
482.778	8566.65
482.983	8404.86
483.187	8578.94
483.391	8537.98
483.595	8376.19
483.8	8296.32
484.004	8517.5
484.208	8664.96
484.412	8529.79
484.616	8435.58
484.821	8484.73
485.025	8327.04
485.229	8402.82
485.433	8302.47
485.637	8306.56
485.841	8359.81
486.045	8380.29
486.249	8331.14
486.453	8300.42
486.657	8447.87
486.861	8505.21
487.065	8277.89
487.269	8449.92
487.473	8017.8
487.677	8599.42
487.881	8546.17
488.085	8312.71
488.289	8544.13
488.493	8556.41
488.697	8484.73
488.901	8490.88
489.105	8370.05
489.309	8464.25
489.512	8515.45
489.716	8445.82
489.92	8533.89
490.124	8372.1
490.328	8654.72
490.531	8615.8
490.735	8681.34
490.939	8673.15
491.143	8716.16
491.346	8667
491.55	8873.85
491.754	8873.85
491.958	8914.81
492.161	8789.88
492.365	8886.14
492.569	8841.08
492.772	8877.94
492.976	9033.59
493.18	9047.93
493.383	9146.23
493.587	9277.3
493.79	9365.36
493.994	9064.31
494.197	9150.32
494.401	9465.71
494.605	9404.27
494.808	9502.58
495.012	9654.12
495.215	9670.51
495.419	9674.6
495.622	9566.06
495.825	9742.19
496.029	9828.2
496.232	10006.38
496.436	9711.47
496.639	10227.56
496.843	9973.61
497.046	10325.86
497.249	10375.01
497.453	10528.61
497.656	10755.93
497.859	10475.36
498.063	10614.62
498.266	11095.89
498.469	10938.2
498.673	11118.42
498.876	11321.17
499.079	11452.24
499.282	11132.76
499.485	11370.32
499.689	11509.58
499.892	11867.98
500.095	11646.8
500.298	11982.67
500.501	11984.71
500.705	12283.72
500.908	12414.79
501.111	12547.9
501.314	12564.29
501.517	12693.31
501.72	13020.99
501.923	12896.06
502.126	13166.39
502.329	13561.65
502.532	13379.38
502.735	13655.86
502.938	13786.93
503.141	13963.05
503.344	14112.55
503.547	14202.66
503.75	14548.77
503.953	14657.31
504.156	14477.09
504.359	14677.79
504.562	14759.71
504.765	15023.9
504.968	15263.51
505.17	15443.73
505.373	15533.84
505.576	15806.22
505.779	15877.9
505.982	15968.01
506.185	15988.49
506.387	16238.34
506.59	16531.2
506.793	16758.53
506.996	16824.06
507.198	17157.88
507.401	17170.17
507.604	17131.26
507.807	17637.11
508.009	17590
508.212	17628.92
508.415	18163.43
508.617	18284.26
508.82	18329.32
509.022	18069.23
509.225	18544.36
509.428	18986.72
509.63	18777.83
509.833	19148.51
510.035	19410.65
510.238	19445.46
510.44	19885.78
510.643	20135.63
510.845	20143.82
511.048	19906.26
511.25	20557.51
511.453	20502.22
511.655	21472.95
511.858	20954.82
512.06	21266.11
512.262	21327.55
512.465	21315.26
512.667	21716.66
512.87	22001.33
513.072	21954.22
513.274	22560.42
513.477	22406.83
513.679	23035.55
513.881	23223.97
514.084	23135.9
514.286	23002.78
514.488	23361.18
514.69	23959.19
514.893	23891.6
515.095	24014.48
515.297	24383.12
515.499	24340.11
515.701	24587.91
515.904	24913.54
516.106	24997.51
516.308	25194.11
516.51	25495.16
516.712	25634.42
516.914	26244.72
517.116	26160.75
517.318	26433.13
517.52	26521.2
517.722	26340.97
517.925	27063.91
518.127	27280.99
518.329	27332.19
518.531	27141.73
518.733	28065.36
518.935	27915.86
519.136	28178
519.338	28304.98
519.54	28628.56
519.742	28509.77
519.944	28931.65
520.146	29130.31
520.348	29302.34
520.55	29724.22
520.752	29521.47
520.954	30144.05
521.155	29982.26
521.357	30549.55
521.559	30576.17
521.761	30903.85
521.963	30783.02
522.164	30752.3
522.366	31292.96
522.568	31569.44
522.77	31530.53
522.971	32167.45
523.173	31716.89
523.375	31931.93
523.576	31944.22
523.778	32202.26
523.98	32570.89
524.181	32599.57
524.383	32656.91
524.584	33293.83
524.786	33242.63
524.988	33435.14
525.189	33336.84
525.391	33658.37
525.592	33949.18
525.794	34086.39
525.995	33459.71
526.197	34059.77
526.398	34045.43
526.6	34119.16
526.801	34682.35
527.003	34723.31
527.204	34518.51
527.406	34854.38
527.607	34588.14
527.808	35145.19
528.01	34618.86
528.211	35034.6
528.412	35440.1
528.614	35274.21
528.815	35552.74
529.016	35466.72
529.218	35186.15
529.419	35579.36
529.62	35880.41
529.822	35309.03
530.023	35771.87
530.224	35663.33
530.425	35732.96
530.626	35528.16
530.828	35839.45
531.029	36134.36
531.23	35712.48
531.431	35726.81
531.632	35759.58
531.833	35773.92
532.035	35687.9
532.236	35927.52
532.437	36187.61
532.638	35892.7
532.839	36464.08
533.04	36257.24
533.241	35671.52
533.442	36398.55
533.643	36373.97
533.844	36111.83
534.045	36416.98
534.246	35720.67
534.447	36363.73
534.648	36144.6
534.849	36335.06
535.05	35847.64
535.251	36314.58
535.451	36251.09
535.652	36218.33
535.853	36210.14
536.054	36419.03
536.255	36283.86
536.456	35749.34
536.657	36711.89
536.857	36042.2
537.058	36533.71
537.259	36236.76
537.46	35904.99
537.66	35712.48
537.861	36322.77
538.062	35976.67
538.263	36124.12
538.463	36203.99
538.664	35847.64
538.865	36146.65
539.065	36169.18
539.266	35712.48
539.466	36425.17
539.667	35460.58
539.868	36144.6
540.068	36138.46
540.269	36091.35
540.469	36156.89
540.67	35806.69
540.87	35814.88
541.071	35904.99
541.271	35874.27
541.472	36060.63
541.672	35786.21
541.873	35655.14
542.073	35487.2
542.274	36120.02
542.474	35954.14
542.675	35687.9
542.875	35892.7
543.075	35558.88
543.276	35206.63
543.476	36363.73
543.676	35825.12
543.877	35509.73
544.077	35558.88
544.277	35511.78
544.478	35511.78
544.678	35933.66
544.878	35773.92
545.078	35491.3
545.279	35429.86
545.479	35462.63
545.679	35821.02
545.879	35499.49
546.079	35427.81
546.28	35407.33
546.48	35093.99
546.68	35532.26
546.88	35538.4
547.08	35388.9
547.28	35444.2
547.48	34934.25
547.68	35356.13
547.88	35306.98
548.081	35855.84
548.281	35589.6
548.481	35139.05
548.681	35810.78
548.881	35384.8
549.081	35515.87
549.28	35042.79
549.48	35409.38
549.68	35393
549.88	35251.69
550.08	35128.81
550.28	35290.6
550.48	35012.07
550.68	35157.48
550.88	35251.69
551.08	34803.18
551.279	35163.62
551.479	34680.3
551.679	35231.21
551.879	34838
552.079	35288.55
552.278	35096.04
552.478	35300.84
552.678	34862.57
552.878	34850.28
553.077	34582
553.277	34749.93
553.477	35288.55
553.676	34897.39
553.876	34534.9
554.076	34530.8
554.275	34295.28
554.475	34369.01
554.674	34774.51
554.874	34747.89
555.074	34573.81
555.273	34778.61
555.473	34766.32
555.672	34862.57
555.872	34434.55
556.071	34125.3
556.271	34801.13
556.47	34369.01
556.67	34399.73
556.869	34719.21
557.068	34706.93
557.268	34160.12
557.467	34239.99
557.667	34297.33
557.866	34076.15
558.065	33779.2
558.265	34047.48
558.464	33992.19
558.663	34270.71
558.863	33361.41
559.062	34209.27
559.261	33656.32
559.461	34164.21
559.66	33308.16
559.859	33619.46
560.058	33748.48
560.258	33719.81
560.457	33365.51
560.656	33936.89
560.855	33719.81
561.054	33795.58
561.253	33136.13
561.453	33275.4
561.652	33318.4
561.851	33218.05
562.05	33494.53
562.249	33220.1
562.448	33355.27
562.647	33609.22
562.846	33388.03
563.045	33005.06
563.244	33084.94
563.443	33402.37
563.642	32814.6
563.841	33017.35
564.04	32669.2
564.239	33095.17
564.438	32826.89
564.637	32661.01
564.836	33048.07
565.035	32364.05
565.234	32734.73
565.432	32429.59
565.631	32472.59
565.83	32706.06
566.029	32511.5
566.228	32038.42
566.427	32372.24
566.625	32267.8
566.824	32149.01
567.023	32042.52
567.222	31487.52
567.42	32187.92
567.619	32112.15
567.818	32144.92
568.016	31737.37
568.215	32126.49
568.414	31845.91
568.612	31884.83
568.811	31675.93
569.01	31616.54
569.208	31409.7
569.407	31411.74
569.605	31356.45
569.804	31567.39
570.002	31043.11
570.201	31362.59
570.4	30961.19
570.598	30570.03
570.797	30991.91
570.995	30789.16
571.193	30637.61
571.392	31026.73
571.59	30615.08
571.789	30586.41
571.987	30344.75
572.186	30283.31
572.384	30402.1
572.582	30866.99
572.781	30430.77
572.979	30088.76
573.177	30017.08
573.376	30473.77
573.574	30066.23
573.772	30221.87
573.971	29638.2
574.169	29711.93
574.367	29470.27
574.565	29861.43
574.763	29810.23
574.962	29412.93
575.16	29277.76
575.358	29701.69
575.556	29101.64
575.754	29859.38
575.952	29046.34
576.151	29257.28
576.349	29288
576.547	28902.98
576.745	28970.57
576.943	28550.73
577.141	28737.1
577.339	29064.77
577.537	28941.89
577.735	28737.1
577.933	28304.98
578.131	28913.22
578.329	28081.75
578.527	28270.16
578.725	28431.95
578.923	28495.44
579.121	28085.84
579.319	27858.52
579.516	28204.63
579.714	28040.79
579.912	27899.48
580.11	28122.71
580.308	27754.07
580.506	27704.92
580.704	27448.93
580.901	27647.58
581.099	27553.37
581.297	27422.3
581.495	27344.48
581.692	27483.74
581.89	27203.17
582.088	27371.1
582.285	27147.87
582.483	27332.19
582.681	27020.9
582.878	26746.47
583.076	26728.04
583.274	27197.02
583.471	26676.84
583.669	26846.82
583.866	26347.12
584.064	26551.91
584.262	26162.8
584.459	26621.55
584.657	26596.97
584.854	26709.61
585.052	26224.24
585.249	26025.59
585.447	25935.48
585.644	26007.16
585.841	26029.68
586.039	26130.03
586.236	25667.19
586.434	25609.85
586.631	25839.22
586.828	25396.86
587.026	25849.46
587.223	25620.09
587.42	25509.5
587.618	25290.37
587.815	25038.47
588.012	25091.71
588.21	25161.34
588.407	25155.2
588.604	25181.82
588.801	24995.46
588.999	25071.23
589.196	24950.4
589.393	24823.43
589.59	24622.73
589.787	24776.33
589.984	24587.91
590.182	24284.81
590.379	24315.53
590.576	24202.89
590.773	24344.2
590.97	24344.2
591.167	24454.79
591.364	24460.94
591.561	24170.13
591.758	23914.13
591.955	24016.53
592.152	23973.52
592.349	23697.05
592.546	23746.2
592.743	24010.39
592.94	23400.09
593.137	23508.63
593.334	23486.11
593.531	23203.49
593.727	23416.47
593.924	23109.28
594.121	23086.75
594.318	23207.58
594.515	23099.04
594.712	23062.18
594.908	22679.21
595.105	22750.88
595.302	22748.84
595.499	23045.79
595.696	22761.12
595.892	22570.66
596.089	22605.48
596.286	22703.78
596.482	22642.34
596.679	22488.74
596.876	22478.51
597.072	22361.77
597.269	22195.89
597.466	22009.52
597.662	22333.1
597.859	21991.09
598.055	21970.61
598.252	21679.8
598.448	22023.86
598.645	21655.22
598.841	21530.3
599.038	21755.57
599.234	21894.83
599.431	21669.56
599.627	21640.89
599.824	21333.69
600.02	21235.39
600.217	21264.06
600.413	21235.39
600.609	20965.06
600.806	21069.5
601.002	21147.33
601.198	21126.85
601.395	20719.3
601.591	21001.92
601.787	20991.68
601.984	20807.36
602.18	20991.68
602.376	20557.51
602.572	20553.41
602.769	20377.29
602.965	20510.41
603.161	20506.31
603.357	20371.15
603.553	20278.99
603.75	20104.91
603.946	20004.56
604.142	20227.79
604.338	19822.29
604.534	19881.68
604.73	19785.43
604.926	19783.38
605.122	19816.15
605.318	19705.56
605.514	19726.03
605.71	19384.02
605.906	19461.85
606.102	19535.57
606.298	19459.8
606.494	19295.96
606.69	19384.02
606.886	19412.7
607.082	19310.3
607.278	19345.11
607.474	18994.91
607.67	19218.14
607.866	18960.09
608.062	19199.71
608.257	19304.15
608.453	19138.27
608.649	19044.06
608.845	18902.75
609.041	18757.35
609.236	18896.61
609.432	18939.61
609.628	19185.37
609.824	18460.39
610.019	18831.07
610.215	18597.6
610.411	18773.73
610.606	18726.63
610.802	18714.34
610.998	18796.26
611.193	18837.22
611.389	18523.88
611.584	18482.92
611.78	18177.77
611.976	18509.54
612.171	18454.25
612.367	18378.47
612.562	18196.2
612.758	18149.1
612.953	17950.45
613.149	18304.74
613.344	18282.22
613.539	18300.65
613.735	18357.99
613.93	18484.97
614.126	18042.6
614.321	17784.56
614.517	17905.39
614.712	17770.22
614.907	17870.58
615.103	18085.61
615.298	17716.98
615.493	17899.25
615.688	17501.94
615.884	17876.72
616.079	17391.35
616.274	17506.04
616.47	17567.48
616.665	17626.87
616.86	17651.44
617.055	17676.02
617.25	17336.06
617.445	17336.06
617.641	17108.73
617.836	17575.67
618.031	17059.58
618.226	17192.7
618.421	17164.03
618.616	17297.14
618.811	17024.76
619.006	17161.98
619.201	16647.94
619.396	17043.2
619.591	16774.91
619.786	16756.48
619.981	16410.37
620.176	16721.66
620.371	16383.75
620.566	16627.46
620.761	16373.51
620.956	16404.23
621.151	15904.53
621.346	16385.8
621.541	15945.48
621.735	16236.3
621.93	15722.26
622.125	16017.16
622.32	15693.58
622.515	15884.05
622.709	15660.82
622.904	15744.78
623.099	15654.67
623.294	15480.6
623.488	15183.64
623.683	15179.54
623.878	15118.11
624.072	15175.45
624.267	15134.49
624.462	15179.54
624.656	14733.09
624.851	14978.84
625.046	14815.01
625.24	14685.98
625.435	14552.87
625.629	14403.36
625.824	14456.61
626.018	14440.23
626.213	14221.09
626.407	14288.68
626.602	14163.75
626.796	14081.83
626.991	14278.44
627.185	14024.49
627.38	13942.57
627.574	13541.17
627.768	13606.7
627.963	13668.14
628.157	13414.2
628.352	13625.14
628.546	13141.82
628.74	13307.7
628.935	13098.81
629.129	13414.2
629.323	13004.6
629.517	12891.96
629.712	13090.62
629.906	13049.66
630.1	12715.84
630.294	12928.83
630.489	12773.18
630.683	12937.02
630.877	12554.05
631.071	12416.83
631.265	12248.9
631.459	12404.55
631.653	12533.57
631.848	12285.76
632.042	12095.3
632.236	12179.27
632.43	12019.53
632.624	12033.86
632.818	11927.37
633.012	11751.24
633.206	11765.58
633.4	11943.75
633.594	11624.27
633.788	11743.05
633.982	11575.12
634.176	11663.18
634.369	11661.13
634.563	11411.28
634.757	11466.58
634.951	11351.89
635.145	11151.19
635.339	11319.12
635.533	11034.46
635.726	11091.8
635.92	10852.19
636.114	11089.75
636.308	10708.83
636.501	10674.01
636.695	10821.47
636.889	10680.16
637.083	10641.25
637.276	10528.61
637.47	10858.33
637.664	10581.85
637.857	10585.95
638.051	10473.31
638.244	10317.67
638.438	10418.02
638.632	10243.94
638.825	10162.02
639.019	10096.49
639.212	10012.52
639.406	10098.53
639.599	9908.07
639.793	10110.82
639.986	9848.68
640.18	9957.22
640.373	9590.64
640.567	9533.29
640.76	9869.16
640.954	9570.16
641.147	9654.12
641.34	9420.66
641.534	9555.82
641.727	9293.68
641.92	9275.25
642.114	9240.43
642.307	9258.87
642.5	9297.78
642.694	9052.02
642.887	9035.64
643.08	9099.13
643.273	9092.98
643.467	8824.7
643.66	8701.82
643.853	8847.23
644.046	8761.21
644.239	8798.07
644.432	8693.63
644.626	8628.09
644.819	8478.59
645.012	8601.47
645.205	8513.41
645.398	8578.94
645.591	8372.1
645.784	8464.25
645.977	8376.19
646.17	8210.31
646.363	8241.03
646.556	8218.5
646.749	8238.98
646.942	8193.92
647.135	8064.9
647.328	8138.63
647.521	7913.35
647.714	8064.9
647.907	7825.29
648.099	7944.07
648.292	7763.85
648.485	7933.83
648.678	7673.74
648.871	7788.43
649.064	7575.44
649.256	7810.95
649.449	7444.37
649.642	7647.12
649.835	7511.95
650.027	7561.1
650.22	7360.4
650.413	7331.73
650.605	7360.4
650.798	7206.8
650.991	7282.58
651.183	7311.25
651.376	7141.27
651.568	7135.12
651.761	7151.51
651.954	7028.63
652.146	6915.99
652.339	7100.31
652.531	6991.77
652.724	6887.32
652.916	7124.88
653.109	6664.09
653.301	6942.61
653.494	6778.78
653.686	6533.02
653.879	6621.08
654.071	6743.96
654.263	6709.15
654.456	6694.81
654.648	6754.2
654.84	6401.95
655.033	6412.19
655.225	6414.24
655.417	6498.2
655.61	6330.27
655.802	6438.81
655.994	6297.5
656.186	6266.78
656.379	6340.51
656.571	6193.06
656.763	6150.05
656.955	6324.13
657.148	6221.73
657.34	6154.15
657.532	6180.77
657.724	6096.8
657.916	6174.63
658.108	5953.45
658.3	5930.92
658.492	5945.25
658.684	5988.26
658.876	6023.08
659.068	5887.91
659.26	5773.22
659.452	5736.36
659.644	5789.61
659.836	5722.02
660.028	5724.07
660.22	5646.25
660.412	5570.47
660.604	5523.37
660.796	5566.38
660.988	5457.84
661.18	5289.9
661.372	5445.55
661.563	5629.87
661.755	5566.38
661.947	5550
662.139	5259.18
662.331	5400.49
662.522	5283.76
662.714	5375.92
662.906	5224.37
663.097	5291.95
663.289	5158.83
663.481	5230.51
663.673	5128.11
663.864	5150.64
664.056	5097.39
664.247	5138.35
664.439	5027.76
664.631	5019.57
664.822	5148.59
665.014	5027.76
665.205	5042.1
665.397	4757.43
665.588	4884.41
665.78	4845.49
665.971	4751.29
666.163	4722.62
666.354	4851.64
666.546	4808.63
666.737	4612.03
666.929	4710.33
667.12	4759.48
667.311	4732.86
667.503	4708.28
667.694	4771.77
667.885	4546.49
668.077	4564.92
668.268	4571.07
668.459	4622.27
668.651	4489.15
668.842	4480.96
669.033	4665.27
669.224	4585.4
669.416	4523.96
669.607	4421.56
669.798	4458.43
669.989	4409.28
670.18	4476.86
670.371	4351.93
670.563	4233.15
670.754	4280.25
670.945	4224.96
671.136	4306.88
671.327	4300.73
671.518	4276.16
671.709	4288.45
671.9	4239.3
672.091	4399.04
672.282	4296.64
672.473	4177.86
672.664	4245.44
672.855	4181.95
673.046	4149.18
673.237	4261.82
673.428	4059.07
673.619	4196.29
673.809	4071.36
674	4018.11
674.191	4097.99
674.382	4106.18
674.573	4085.7
674.764	4108.23
674.954	4011.97
675.145	4067.27
675.336	3964.87
675.527	3989.44
675.717	3915.72
675.908	3848.13
676.099	4046.79
676.289	4011.97
676.48	3979.2
676.671	3848.13
676.861	3872.71
677.052	3809.22
677.243	3755.97
677.433	3825.61
677.624	3811.27
677.814	3798.98
678.005	3760.07
678.195	3928
678.386	3735.49
678.576	3733.45
678.767	3688.39
678.957	3651.53
679.148	3712.97
679.338	3659.72
679.529	3805.13
679.719	3686.34
679.909	3715.02
680.1	3659.72
680.29	3708.87
680.481	3655.62
680.671	3614.66
680.861	3661.77
681.052	3626.95
681.242	3530.7
681.432	3616.71
681.622	3569.61
681.813	3594.19
682.003	3583.95
682.193	3553.23
682.383	3524.55
682.573	3409.87
682.764	3635.14
682.954	3588.04
683.144	3643.34
683.334	3512.27
683.524	3577.8
683.714	3502.03
683.904	3495.88
684.094	3520.46
684.284	3389.39
684.474	3479.5
684.664	3397.58
684.854	3530.7
685.044	3454.92
685.234	3330
685.424	3413.96
685.614	3413.96
685.804	3456.97
685.994	3422.16
686.184	3325.9
686.374	3301.33
686.564	3354.57
686.753	3334.09
686.943	3213.26
687.133	3207.12
687.323	3137.49
687.513	3209.17
687.702	3110.86
687.892	3211.21
688.082	3272.65
688.272	3203.02
688.461	3168.21
688.651	3164.11
688.841	3028.95
689.03	3151.82
689.22	3071.95
689.41	3139.54
689.599	3074
689.789	3162.06
689.979	3059.67
690.168	3035.09
690.358	3131.34
690.547	2965.46
690.737	2985.94
690.926	2985.94
691.116	2928.6
691.305	3051.47
691.495	2963.41
691.684	3022.8
691.874	2899.92
692.063	2875.35
692.252	2865.11
692.442	2846.68
692.631	2789.33
692.82	2889.68
693.01	2942.93
693.199	2742.23
693.388	2906.07
693.578	2867.16
693.767	2832.34
693.956	2752.47
694.146	2754.52
694.335	2789.33
694.524	2719.7
694.713	2787.29
694.902	2715.61
695.092	2746.33
695.281	2826.2
695.47	2736.09
695.659	2658.26
695.848	2709.46
696.037	2715.61
696.226	2756.57
696.415	2731.99
696.604	2731.99
696.793	2559.96
696.982	2805.72
697.171	2688.98
697.36	2721.75
697.549	2623.45
697.738	2525.15
697.927	2617.3
698.116	2674.65
698.305	2826.2
698.494	2729.94
698.683	2590.68
698.872	2779.09
699.061	2637.78
699.25	2668.5
699.438	2748.37
699.627	2680.79
699.816	2695.13
700.005	2609.11
700.193	2613.21
700.382	2734.04
700.571	2664.41
700.76	2799.57
700.948	2750.42
701.137	2662.36
701.326	2662.36
701.514	2641.88
701.703	2703.32
701.892	2590.68
702.08	2727.89
702.269	2557.91
702.457	2672.6
702.646	2711.51
702.834	2684.89
703.023	2740.18
703.212	2578.39
703.4	2662.36
703.589	2740.18
703.777	2715.61
703.965	2537.43
704.154	2676.7
704.342	2662.36
704.531	2635.74
704.719	2762.71
704.907	2691.03
705.096	2619.35
705.284	2568.15
705.472	2674.65
705.661	2727.89
705.849	2705.37
706.037	2688.98
706.226	2664.41
706.414	2645.98
706.602	2676.7
706.79	2717.65
706.979	2680.79
707.167	2648.02
707.355	2674.65
707.543	2588.63
707.731	2578.39
707.919	2715.61
708.107	2584.54
708.296	2617.3
708.484	2613.21
708.672	2637.78
708.86	2660.31
709.048	2666.46
709.236	2619.35
709.424	2664.41
709.612	2705.37
709.8	2711.51
709.988	2621.4
710.176	2748.37
710.364	2686.93
710.551	2463.71
710.739	2688.98
710.927	2580.44
711.115	2598.87
711.303	2758.61
711.491	2691.03
711.679	2600.92
711.866	2736.09
712.054	2607.06
712.242	2719.7
712.43	2588.63
712.617	2637.78
712.805	2613.21
712.993	2711.51
713.181	2586.58
713.368	2746.33
713.556	2715.61
713.744	2756.57
713.931	2731.99
714.119	2691.03
714.306	2551.77
714.494	2635.74
714.682	2611.16
714.869	2551.77
715.057	2707.41
715.244	2570.2
715.432	2752.47
715.619	2602.97
715.807	2576.34
715.994	2504.67
716.182	2648.02
716.369	2598.87
716.556	2676.7
716.744	2658.26
716.931	2611.16
717.119	2648.02
717.306	2592.73
717.493	2670.55
717.681	2617.3
717.868	2592.73
718.055	2645.98
718.242	2582.49
718.43	2598.87
718.617	2691.03
718.804	2656.22
718.991	2654.17
719.179	2705.37
719.366	2551.77
719.553	2541.53
719.74	2609.11
719.927	2664.41
720.114	2596.82
720.301	2629.59
720.488	2535.39
720.676	2580.44
720.863	2637.78
721.05	2600.92
721.237	2633.69
721.424	2555.86
721.611	2570.2
721.798	2500.57
721.985	2551.77
722.172	2623.45
722.358	2502.62
722.545	2529.24
722.732	2641.88
722.919	2617.3
723.106	2521.05
723.293	2555.86
723.48	2549.72
723.667	2516.95
723.853	2457.56
724.04	2437.08
724.227	2516.95
724.414	2521.05
724.6	2512.86
724.787	2547.67
724.974	2566.1
725.161	2500.57
725.347	2428.89
725.534	2553.82
725.72	2457.56
725.907	2457.56
726.094	2525.15
726.28	2445.27
726.467	2432.99
726.653	2574.3
726.84	2562.01
727.027	2566.1
727.213	2453.47
727.4	2578.39
727.586	2443.23
727.773	2455.51
727.959	2402.27
728.145	2564.06
728.332	2510.81
728.518	2549.72
728.705	2627.54
728.891	2453.47
729.077	2430.94
729.264	2486.23
729.45	2414.56
729.636	2373.6
729.823	2371.55
730.009	2463.71
730.195	2330.59
730.382	2406.36
730.568	2432.99
730.754	2457.56
730.94	2377.69
731.126	2459.61
731.313	2435.03
731.499	2430.94
731.685	2346.97
731.871	2406.36
732.057	2338.78
732.243	2432.99
732.429	2420.7
732.615	2475.99
732.801	2488.28
732.987	2529.24
733.173	2310.11
733.359	2475.99
733.545	2357.21
733.731	2357.21
733.917	2402.27
734.103	2324.44
734.289	2273.25
734.475	2287.58
734.661	2279.39
734.847	2334.68
735.033	2441.18
735.219	2287.58
735.404	2389.98
735.59	2424.8
735.776	2289.63
735.962	2351.07
736.148	2346.97
736.333	2316.25
736.519	2246.62
736.705	2342.88
736.89	2340.83
737.076	2277.34
737.262	2285.53
737.447	2213.85
737.633	2240.48
737.819	2232.29
738.004	2213.85
738.19	2273.25
738.375	2314.2
738.561	2228.19
738.747	2101.22
738.932	2133.98
739.118	2254.81
739.303	2236.38
739.489	2179.04
739.674	2258.91
739.859	2191.33
740.045	2172.89
740.23	2148.32
740.416	2095.07
740.601	2250.72
740.786	2195.42
740.972	2187.23
741.157	2189.28
741.342	2058.21
741.528	2125.79
741.713	2211.81
741.898	2117.6
742.084	2033.63
742.269	2056.16
742.454	2166.75
742.639	2011.11
742.824	2047.97
743.01	2129.89
743.195	1949.67
743.38	2050.02
743.565	2019.3
743.75	2082.78
743.935	1939.43
744.12	2002.91
744.305	2000.87
744.49	1986.53
744.675	1988.58
744.86	1982.43
745.045	1947.62
745.23	1890.28
745.415	1906.66
745.6	1873.89
745.785	1884.13
745.97	1935.33
746.155	1912.8
746.34	1859.56
746.525	1761.25
746.71	1896.42
746.895	1771.49
747.079	1861.6
747.264	1771.49
747.449	1890.28
747.634	1779.68
747.819	1765.35
748.003	1824.74
748.188	1738.73
748.373	1781.73
748.557	1779.68
748.742	1626.09
748.927	1681.38
749.111	1734.63
749.296	1718.25
749.481	1710.05
749.665	1636.33
749.85	1726.44
750.034	1638.37
750.219	1785.83
750.404	1742.82
750.588	1558.5
750.773	1550.31
750.957	1611.75
751.141	1646.57
751.326	1488.87
751.51	1540.07
751.695	1519.59
751.879	1581.03
752.064	1576.94
752.248	1591.27
752.432	1603.56
752.617	1527.78
752.801	1517.54
752.985	1437.67
753.17	1470.44
753.354	1484.78
753.538	1384.43
753.722	1486.83
753.907	1456.11
754.091	1378.28
754.275	1409
754.459	1443.82
754.643	1325.04
754.828	1452.01
755.012	1454.06
755.196	1423.34
755.38	1253.36
755.564	1359.85
755.748	1353.71
755.932	1286.12
756.116	1210.35
756.3	1327.08
756.484	1216.49
756.668	1226.73
756.852	1263.6
757.036	1308.65
757.22	1202.16
757.404	1175.53
757.588	1232.88
757.772	1282.03
757.956	1216.49
758.14	1232.88
758.323	1193.97
758.507	1228.78
758.691	1153.01
758.875	1212.4
759.059	1155.05
759.242	1148.91
759.426	1165.29
759.61	1144.81
759.794	1177.58
759.977	1071.09
760.161	1181.68
760.345	1095.66
760.528	1126.38
760.712	1071.09
760.895	1097.71
761.079	1077.23
761.263	1105.9
761.446	1040.37
761.63	1083.38
761.813	1118.19
761.997	1040.37
762.18	1050.61
762.364	1075.18
762.547	897.01
762.731	991.22
762.914	1093.62
763.098	958.45
763.281	978.93
763.464	1003.5
763.648	1015.79
763.831	993.26
764.015	1038.32
764.198	915.44
764.381	962.55
764.564	968.69
764.748	1052.66
764.931	923.63
765.114	993.26
765.297	929.78
765.481	837.62
765.664	1003.5
765.847	933.87
766.03	946.16
766.213	952.31
766.397	931.83
766.58	987.12
766.763	956.4
766.946	890.87
767.129	970.74
767.312	935.92
767.495	864.24
767.678	794.61
767.861	827.38
768.044	833.52
768.227	921.59
768.41	876.53
768.593	950.26
768.776	884.72
768.959	856.05
769.142	845.81
769.324	917.49
769.507	866.29
769.69	854
769.873	864.24
770.056	907.25
770.239	823.28
770.421	804.85
770.604	866.29
770.787	778.23
770.97	767.99
771.152	776.18
771.335	784.37
771.518	872.43
771.7	823.28
771.883	751.6
772.066	802.8
772.248	841.72
772.431	872.43
772.613	761.84
772.796	741.36
772.978	763.89
773.161	858.1
773.343	696.31
773.526	727.03
773.708	757.75
773.891	716.79
774.073	767.99
774.256	712.69
774.438	716.79
774.621	655.35
774.803	784.37
774.985	741.36
775.168	618.49
775.35	747.51
775.532	718.84
775.715	696.31
775.897	600.05
776.079	638.97
776.261	667.64
776.444	649.21
776.626	651.25
776.808	606.2
776.99	634.87
777.173	641.01
777.355	675.83
777.537	659.45
777.719	686.07
777.901	692.21
778.083	579.58
778.265	616.44
778.447	694.26
778.629	651.25
778.811	636.92
778.993	593.91
779.175	624.63
779.357	571.38
779.539	520.18
779.721	622.58
779.903	563.19
780.085	634.87
780.267	548.86
780.449	505.85
780.631	591.86
780.812	614.39
780.994	604.15
781.176	509.94
781.358	528.38
781.54	575.48
781.721	530.42
781.903	622.58
782.085	471.03
782.267	495.61
782.448	454.65
782.63	450.55
782.812	448.51
782.993	493.56
783.175	479.22
783.357	485.37
783.538	499.7
783.72	511.99
783.901	479.22
784.083	477.18
784.264	475.13
784.446	421.88
784.627	417.79
784.809	493.56
784.99	452.6
785.172	444.41
785.353	468.98
785.535	438.27
785.716	425.98
785.897	468.98
786.079	409.59
786.26	364.54
786.441	483.32
786.623	286.72
786.804	448.51
786.985	333.82
787.167	446.46
787.348	389.11
787.529	446.46
787.71	450.55
787.891	421.88
788.073	368.63
788.254	405.5
788.435	454.65
788.616	419.83
788.797	356.35
788.978	309.24
789.159	329.72
789.34	387.07
789.522	344.06
789.703	337.91
789.884	395.26
790.065	401.4
790.246	360.44
790.427	327.67
790.607	348.15
790.788	380.92
790.969	342.01
791.15	389.11
791.331	358.39
791.512	288.76
791.693	335.87
791.874	337.91
792.054	432.12
792.235	374.78
792.416	278.52
792.597	339.96
792.778	303.1
792.958	356.35
793.139	321.53
793.32	348.15
793.5	286.72
793.681	391.16
793.862	290.81
794.042	288.76
794.223	243.71
794.404	268.28
794.584	290.81
794.765	223.23
794.945	372.73
795.126	258.04
795.306	272.38
795.487	356.35
795.667	260.09
795.848	339.96
796.028	286.72
796.209	335.87
796.389	362.49
796.57	315.39
796.75	247.8
796.93	227.32
797.111	196.6
797.291	249.85
797.471	286.72
797.652	180.22
797.832	229.37
798.012	268.28
798.192	212.99
798.373	192.51
798.553	196.6
798.733	266.24
798.913	188.41
799.093	184.32
799.274	325.63
799.454	262.14
799.634	249.85
799.814	262.14
799.994	180.22
800.174	206.84
800.354	264.19
800.534	194.56
800.714	315.39
800.894	145.41
801.074	206.84
801.254	196.6
801.434	284.67
801.614	272.38
801.794	266.24
801.974	518.14
802.154	200.7
802.334	192.51
802.514	163.84
802.693	202.75
802.873	157.69
803.053	251.9
803.233	241.66
803.413	200.7
803.592	258.04
803.772	241.66
803.952	163.84
804.131	206.84
804.311	260.09
804.491	206.84
804.67	208.89
804.85	260.09
805.03	151.55
805.209	266.24
805.389	167.93
805.568	126.97
805.748	245.76
805.928	217.08
806.107	206.84
806.287	145.41
806.466	139.26
806.646	167.93
806.825	129.02
807.004	161.79
807.184	174.08
807.363	219.13
807.543	114.69
807.722	264.19
807.901	139.26
808.081	149.5
808.26	30.72
808.439	174.08
808.619	178.17
808.798	139.26
808.977	256
809.156	210.94
809.336	178.17
809.515	155.65
809.694	202.75
809.873	221.18
810.052	98.3
810.231	208.89
810.411	188.41
810.59	114.69
810.769	151.55
810.948	153.6
811.127	112.64
811.306	157.69
811.485	71.68
811.664	165.89
811.843	131.07
812.022	145.41
812.201	143.36
812.38	118.78
812.559	165.89
812.737	139.26
812.916	151.55
813.095	157.69
813.274	112.64
813.453	178.17
813.632	186.37
813.811	176.13
813.989	192.51
814.168	153.6
814.347	90.11
814.526	174.08
814.704	157.69
814.883	192.51
815.062	88.06
815.24	69.63
815.419	180.22
815.598	157.69
815.776	40.96
815.955	180.22
816.133	51.2
816.312	106.49
816.49	45.06
816.669	169.98
816.847	92.16
817.026	165.89
817.204	59.39
817.383	137.21
817.561	86.01
817.74	229.37
817.918	90.11
818.097	90.11
818.275	129.02
818.453	90.11
818.632	100.35
818.81	118.78
818.988	86.01
819.167	135.17
819.345	106.49
819.523	55.3
819.701	172.03
819.879	151.55
820.058	116.73
820.236	137.21
820.414	176.13
820.592	151.55
820.77	98.3
820.948	139.26
821.127	32.77
821.305	122.88
821.483	53.25
821.661	94.21
821.839	83.97
822.017	102.4
822.195	112.64
822.373	90.11
822.551	102.4
822.729	180.22
822.907	73.73
823.085	92.16
823.262	6.14
823.44	151.55
823.618	67.58
823.796	133.12
823.974	149.5
824.152	145.41
824.329	67.58
824.507	8.19
824.685	106.49
824.863	34.82
825.04	98.3
825.218	145.41
825.396	96.25
825.574	63.49
825.751	-8.19
825.929	137.21
826.107	30.72
826.284	116.73
826.462	114.69
826.639	59.39
826.817	57.34
826.994	51.2
827.172	149.5
827.349	147.45
827.527	59.39
827.704	145.41
827.882	98.3
828.059	96.25
828.237	110.59
828.414	77.82
828.591	22.53
828.769	104.45
828.946	100.35
829.124	73.73
829.301	106.49
829.478	94.21
829.655	77.82
829.833	116.73
830.01	43.01
830.187	92.16
830.364	63.49
830.542	69.63
830.719	110.59
830.896	106.49
831.073	151.55
831.25	38.91
831.427	145.41
831.604	98.3
831.782	12.29
831.959	98.3
832.136	129.02
832.313	114.69
832.49	38.91
832.667	104.45
832.844	104.45
833.021	32.77
833.198	86.01
833.374	34.82
833.551	118.78
833.728	94.21
833.905	129.02
834.082	57.34
834.259	65.53
834.436	75.77
834.612	-0
834.789	79.87
834.966	135.17
835.143	77.82
835.319	92.16
835.496	104.45
835.673	59.39
835.85	-18.43
836.026	108.54
836.203	126.97
836.38	10.24
836.556	22.53
836.733	96.25
836.909	108.54
837.086	63.49
837.262	45.06
837.439	73.73
837.616	98.3
837.792	22.53
837.968	98.3
838.145	-16.38
838.321	34.82
838.498	112.64
838.674	53.25
838.851	71.68
839.027	69.63
839.203	94.21
839.38	102.4
839.556	57.34
839.732	26.62
839.909	14.34
840.085	22.53
840.261	-28.67
840.437	43.01
840.614	43.01
840.79	2.05
840.966	61.44
841.142	73.73
841.318	30.72
841.494	90.11
841.671	38.91
841.847	92.16
842.023	45.06
842.199	49.15
842.375	120.83
842.551	24.58
842.727	86.01
842.903	157.69
843.079	-12.29
843.255	79.87
843.431	36.86
843.607	53.25
843.783	86.01
843.959	67.58
844.134	26.62
844.31	61.44
844.486	-65.54
844.662	30.72
844.838	28.67
845.013	43.01
845.189	75.77
845.365	55.3
845.541	75.77
845.716	40.96
845.892	79.87
846.068	16.38
846.244	55.3
846.419	53.25
846.595	-18.43
846.77	47.1
846.946	77.82
847.122	55.3
847.297	61.44
847.473	122.88
847.648	24.58
847.824	77.82
847.999	-20.48
848.175	61.44
848.35	-14.34
848.526	118.78
848.701	96.25
848.876	-24.58
849.052	104.45
849.227	137.21
849.403	12.29
849.578	61.44
849.753	43.01
849.929	-24.58
850.104	-6.14
850.279	36.86
850.454	-4.1
850.63	28.67
850.805	63.49
850.98	106.49
851.155	43.01
851.33	40.96
851.505	79.87
851.681	61.44
851.856	38.91
852.031	71.68
852.206	-0
852.381	40.96
852.556	36.86
852.731	36.86
852.906	-16.38
853.081	96.25
853.256	71.68
853.431	73.73
853.606	45.06
853.781	-69.63
853.956	-86.01
854.131	81.92
854.305	40.96
854.48	77.82
854.655	-49.15
854.83	40.96
855.005	43.01
855.18	49.15
855.354	24.58
855.529	104.45
855.704	47.1
855.879	49.15
856.053	67.58
856.228	61.44
856.403	20.48
856.577	51.2
856.752	-12.29
856.926	24.58
857.101	-32.77
857.276	20.48
857.45	14.34
857.625	71.68
857.799	51.2
857.974	-6.14
858.148	-51.2
858.323	26.62
858.497	-4.1
858.672	20.48
858.846	14.34
859.02	-22.53
859.195	-30.72
859.369	100.35
859.543	30.72
859.718	94.21
859.892	104.45
860.066	126.97
860.241	36.86
860.415	-2.05
860.589	-22.53
860.763	49.15
860.938	30.72
861.112	-6.14
861.286	40.96
861.46	20.48
861.634	-6.14
861.808	14.34
861.982	8.19
862.157	14.34
862.331	-18.43
862.505	-16.38
862.679	10.24
862.853	71.68
863.027	18.43
863.201	28.67
863.375	2.05
863.549	28.67
863.722	26.62
863.896	20.48
864.07	-0
864.244	83.97
864.418	-6.14
864.592	-36.86
864.766	79.87
864.939	-14.34
865.113	24.58
865.287	-18.43
865.461	47.1
865.634	63.49
865.808	24.58
865.982	61.44
866.156	-2.05
866.329	28.67
866.503	36.86
866.676	30.72
866.85	-10.24
867.024	47.1
867.197	-20.48
867.371	-26.62
867.544	-34.82
867.718	14.34
867.891	-2.05
868.065	26.62
868.238	-30.72
868.412	122.88
868.585	18.43
868.759	10.24
868.932	43.01
869.105	4.1
869.279	-28.67
869.452	-24.58
869.625	65.53
869.799	16.38
869.972	40.96
870.145	22.53
870.319	4.1
870.492	61.44
870.665	-20.48
870.838	-14.34
871.011	-18.43
871.185	6.14
871.358	79.87
871.531	-10.24
871.704	-4.1
871.877	-20.48
872.05	-45.06
872.223	-49.15
872.396	2.05
872.569	32.77
872.742	12.29
872.915	22.53
873.088	6.14
873.261	-32.77
873.434	-24.58
873.607	4.1
873.78	43.01
873.953	-2.05
874.126	45.06
874.299	-28.67
874.471	30.72
874.644	20.48
874.817	6.14
874.99	69.63
875.163	-38.91
875.335	43.01
875.508	-14.34
875.681	129.02
875.853	-53.25
876.026	8.19
876.199	12.29
876.371	28.67
876.544	4.1
876.717	71.68
876.889	18.43
877.062	108.54
877.234	-8.19
877.407	-45.06
877.579	28.67
877.752	8.19
877.924	55.3
878.097	20.48
878.269	59.39
878.442	2.05
878.614	71.68
878.786	81.92
878.959	16.38
879.131	-20.48
879.303	-90.11
879.476	-20.48
879.648	-0
879.82	6.14
879.993	6.14
880.165	10.24
880.337	18.43
880.509	47.1
880.681	-61.44
880.854	18.43
881.026	-18.43
881.198	18.43
881.37	14.34
881.542	22.53
881.714	2.05
881.886	34.82
882.058	18.43
882.23	55.3
882.402	28.67
882.574	-10.24
882.746	2.05
882.918	36.86
883.09	73.73
883.262	55.3
883.434	-45.06
883.606	-75.77
883.778	53.25
883.95	43.01
884.122	30.72
884.293	-32.77
884.465	16.38
884.637	-2.05
884.809	-34.82
884.98	45.06
885.152	-65.54
885.324	-67.58
885.496	-28.67
885.667	16.38
885.839	-4.1
886.011	32.77
886.182	-32.77
886.354	8.19
886.525	38.91
886.697	-8.19
886.869	-96.25
887.04	6.14
887.212	79.87
887.383	32.77
887.555	16.38
887.726	-28.67
887.897	-40.96
888.069	-0
888.24	73.73
888.412	55.3
888.583	-40.96
888.754	-4.1
888.926	-12.29
889.097	20.48
889.268	12.29
889.44	4.1
889.611	-30.72
889.782	-14.34
889.953	-38.91
890.125	-65.54
890.296	-34.82
890.467	20.48
890.638	-96.25
890.809	-12.29
890.98	14.34
891.151	-6.14
891.323	14.34
891.494	-18.43
891.665	-40.96
891.836	22.53
892.007	16.38
892.178	73.73
892.349	4.1
892.52	-20.48
892.691	63.49
892.862	30.72
893.032	-63.49
893.203	34.82
893.374	43.01
893.545	65.53
893.716	-26.62
893.887	-38.91
894.057	-36.86
894.228	32.77
894.399	73.73
894.57	-12.29
894.74	55.3
894.911	28.67
895.082	10.24
895.253	-24.58
895.423	47.1
895.594	77.82
895.764	26.62
895.935	2.05
896.106	-43.01
896.276	-6.14
896.447	47.1
896.617	57.34
896.788	-14.34
896.958	8.19
897.129	-57.34
897.299	-24.58
897.47	24.58
897.64	2.05
897.81	-55.3
897.981	-6.14
898.151	-34.82
898.322	-20.48
898.492	16.38
898.662	-55.3
898.832	-38.91
899.003	36.86
899.173	36.86
899.343	90.11
899.513	-71.68
