Data from USB4F104151__62__12-01-50-928.txt Node

Date: Fri Mar 14 12:01:50 EDT 2025
User: louis
Spectrometer: USB4F10415
Trigger mode: 4
Integration Time (sec): 2.000000E-2
Scans to average: 1
Electric dark correction enabled: true
Nonlinearity correction enabled: false
Boxcar width: 0
XAxis mode: Wavelengths
Number of Pixels in Spectrum: 3648
>>>>>Begin Spectral Data<<<<<
178.204	-55.81
178.424	-55.81
178.644	-55.81
178.864	-86.53
179.084	-39.42
179.304	-33.28
179.524	-37.38
179.744	-55.81
179.964	50.69
180.184	17.92
180.404	105.98
180.624	40.45
180.844	-39.42
181.064	9.73
181.283	-31.23
181.503	-25.09
181.723	-2.56
181.943	-18.94
182.163	42.5
182.383	48.64
182.602	85.5
182.822	93.69
183.042	60.93
183.262	32.26
183.482	15.87
183.701	177.66
183.921	3.58
184.141	19.97
184.361	136.7
184.58	32.26
184.8	13.82
185.02	71.17
185.239	-10.75
185.459	60.93
185.679	73.21
185.898	75.26
186.118	22.02
186.338	22.02
186.557	69.12
186.777	-66.05
186.997	9.73
187.216	118.27
187.436	95.74
187.655	52.74
187.875	62.98
188.095	26.11
188.314	-2.56
188.534	108.03
188.753	36.35
188.973	42.5
189.192	28.16
189.412	28.16
189.631	48.64
189.851	50.69
190.07	28.16
190.29	1.54
190.509	1.54
190.729	48.64
190.948	52.74
191.168	105.98
191.387	36.35
191.607	-10.75
191.826	50.69
192.045	-25.09
192.265	11.78
192.484	36.35
192.704	48.64
192.923	-12.8
193.142	42.5
193.362	105.98
193.581	-18.94
193.8	46.59
194.02	-41.47
194.239	36.35
194.458	13.82
194.678	69.12
194.897	13.82
195.116	40.45
195.335	73.21
195.555	42.5
195.774	17.92
195.993	93.69
196.212	38.4
196.432	65.02
196.651	50.69
196.87	26.11
197.089	54.78
197.308	3.58
197.528	69.12
197.747	26.11
197.966	9.73
198.185	75.26
198.404	17.92
198.623	-6.66
198.842	17.92
199.062	3.58
199.281	-31.23
199.5	132.61
199.719	-33.28
199.938	99.84
200.157	110.08
200.376	36.35
200.595	65.02
200.814	36.35
201.033	44.54
201.252	11.78
201.471	24.06
201.69	36.35
201.909	58.88
202.128	99.84
202.347	15.87
202.566	58.88
202.785	38.4
203.004	28.16
203.223	144.89
203.442	-4.61
203.661	30.21
203.879	28.16
204.098	58.88
204.317	-16.9
204.536	85.5
204.755	30.21
204.974	108.03
205.193	67.07
205.411	130.56
205.63	30.21
205.849	28.16
206.068	-2.56
206.287	56.83
206.505	5.63
206.724	28.16
206.943	9.73
207.162	-27.14
207.381	93.69
207.599	32.26
207.818	60.93
208.037	75.26
208.255	48.64
208.474	75.26
208.693	30.21
208.911	56.83
209.13	108.03
209.349	87.55
209.567	13.82
209.786	46.59
210.005	3.58
210.223	-4.61
210.442	-25.09
210.661	38.4
210.879	58.88
211.098	50.69
211.316	93.69
211.535	28.16
211.753	73.21
211.972	-6.66
212.191	13.82
212.409	75.26
212.628	42.5
212.846	11.78
213.065	97.79
213.283	38.4
213.502	1.54
213.72	44.54
213.938	60.93
214.157	-70.14
214.375	73.21
214.594	97.79
214.812	62.98
215.031	5.63
215.249	58.88
215.467	58.88
215.686	50.69
215.904	58.88
216.122	105.98
216.341	89.6
216.559	30.21
216.778	38.4
216.996	65.02
217.214	36.35
217.432	134.65
217.651	11.78
217.869	36.35
218.087	7.68
218.306	62.98
218.524	79.36
218.742	58.88
218.96	42.5
219.179	42.5
219.397	44.54
219.615	65.02
219.833	3.58
220.051	15.87
220.27	42.5
220.488	56.83
220.706	-25.09
220.924	11.78
221.142	36.35
221.36	-49.66
221.578	-53.76
221.796	19.97
222.015	56.83
222.233	103.93
222.451	79.36
222.669	42.5
222.887	50.69
223.105	52.74
223.323	48.64
223.541	32.26
223.759	69.12
223.977	19.97
224.195	28.16
224.413	62.98
224.631	62.98
224.849	19.97
225.067	17.92
225.285	3.58
225.503	30.21
225.721	-10.75
225.939	62.98
226.157	58.88
226.375	91.65
226.592	77.31
226.81	75.26
227.028	62.98
227.246	87.55
227.464	32.26
227.682	13.82
227.9	46.59
228.117	95.74
228.335	48.64
228.553	7.68
228.771	-8.7
228.989	56.83
229.206	34.3
229.424	67.07
229.642	11.78
229.86	-18.94
230.077	1.54
230.295	11.78
230.513	42.5
230.731	79.36
230.948	3.58
231.166	28.16
231.384	69.12
231.601	13.82
231.819	77.31
232.037	65.02
232.254	73.21
232.472	9.73
232.689	48.64
232.907	58.88
233.125	24.06
233.342	-4.61
233.56	38.4
233.777	110.08
233.995	22.02
234.213	67.07
234.43	46.59
234.648	3.58
234.865	75.26
235.083	22.02
235.3	36.35
235.518	71.17
235.735	46.59
235.953	87.55
236.17	56.83
236.388	112.13
236.605	97.79
236.822	99.84
237.04	65.02
237.257	87.55
237.475	-31.23
237.692	36.35
237.909	38.4
238.127	54.78
238.344	62.98
238.562	44.54
238.779	19.97
238.996	-35.33
239.214	44.54
239.431	93.69
239.648	46.59
239.865	36.35
240.083	11.78
240.3	73.21
240.517	-2.56
240.735	128.51
240.952	65.02
241.169	116.22
241.386	17.92
241.603	-4.61
241.821	85.5
242.038	32.26
242.255	5.63
242.472	13.82
242.689	95.74
242.907	81.41
243.124	32.26
243.341	-31.23
243.558	73.21
243.775	85.5
243.992	-4.61
244.209	-57.86
244.426	58.88
244.643	52.74
244.86	-33.28
245.078	73.21
245.295	97.79
245.512	52.74
245.729	38.4
245.946	34.3
246.163	79.36
246.38	75.26
246.597	32.26
246.814	44.54
247.031	58.88
247.248	-27.14
247.464	103.93
247.681	26.11
247.898	38.4
248.115	114.17
248.332	-41.47
248.549	93.69
248.766	85.5
248.983	48.64
249.2	30.21
249.417	11.78
249.633	75.26
249.85	93.69
250.067	46.59
250.284	42.5
250.501	1.54
250.717	-6.66
250.934	5.63
251.151	52.74
251.368	79.36
251.585	38.4
251.801	67.07
252.018	9.73
252.235	32.26
252.451	9.73
252.668	81.41
252.885	79.36
253.102	26.11
253.318	19.97
253.535	69.12
253.752	9.73
253.968	-70.14
254.185	17.92
254.401	28.16
254.618	79.36
254.835	40.45
255.051	67.07
255.268	5.63
255.484	54.78
255.701	48.64
255.917	24.06
256.134	50.69
256.351	19.97
256.567	22.02
256.784	56.83
257	-41.47
257.217	50.69
257.433	112.13
257.65	-10.75
257.866	-2.56
258.082	19.97
258.299	-12.8
258.515	52.74
258.732	58.88
258.948	50.69
259.165	24.06
259.381	-20.99
259.597	77.31
259.814	79.36
260.03	62.98
260.246	56.83
260.463	34.3
260.679	32.26
260.895	83.45
261.112	91.65
261.328	36.35
261.544	58.88
261.761	95.74
261.977	77.31
262.193	71.17
262.409	54.78
262.626	81.41
262.842	60.93
263.058	36.35
263.274	71.17
263.49	9.73
263.707	19.97
263.923	85.5
264.139	28.16
264.355	17.92
264.571	44.54
264.787	24.06
265.004	54.78
265.22	42.5
265.436	46.59
265.652	54.78
265.868	42.5
266.084	38.4
266.3	36.35
266.516	42.5
266.732	48.64
266.948	130.56
267.164	95.74
267.38	75.26
267.596	36.35
267.812	30.21
268.028	1.54
268.244	42.5
268.46	40.45
268.676	-23.04
268.892	85.5
269.108	97.79
269.324	-23.04
269.54	3.58
269.756	73.21
269.972	-0.51
270.188	34.3
270.403	71.17
270.619	87.55
270.835	1.54
271.051	99.84
271.267	67.07
271.483	85.5
271.698	17.92
271.914	75.26
272.13	75.26
272.346	1.54
272.562	62.98
272.777	50.69
272.993	11.78
273.209	15.87
273.425	58.88
273.64	93.69
273.856	87.55
274.072	89.6
274.287	44.54
274.503	62.98
274.719	62.98
274.934	5.63
275.15	-0.51
275.366	15.87
275.581	-43.52
275.797	50.69
276.012	44.54
276.228	60.93
276.444	103.93
276.659	30.21
276.875	-47.62
277.09	87.55
277.306	99.84
277.521	75.26
277.737	40.45
277.952	67.07
278.168	40.45
278.383	54.78
278.599	48.64
278.814	9.73
279.03	-4.61
279.245	30.21
279.461	-37.38
279.676	42.5
279.892	-12.8
280.107	69.12
280.322	42.5
280.538	65.02
280.753	24.06
280.969	54.78
281.184	38.4
281.399	67.07
281.615	40.45
281.83	85.5
282.045	28.16
282.26	85.5
282.476	-2.56
282.691	30.21
282.906	116.22
283.122	58.88
283.337	-23.04
283.552	26.11
283.767	-57.86
283.983	46.59
284.198	-0.51
284.413	50.69
284.628	-10.75
284.843	42.5
285.058	52.74
285.274	-10.75
285.489	32.26
285.704	-37.38
285.919	22.02
286.134	54.78
286.349	99.84
286.564	56.83
286.779	34.3
286.995	114.17
287.21	17.92
287.425	-8.7
287.64	5.63
287.855	17.92
288.07	7.68
288.285	97.79
288.5	65.02
288.715	46.59
288.93	15.87
289.145	52.74
289.36	99.84
289.575	15.87
289.79	36.35
290.004	50.69
290.219	17.92
290.434	81.41
290.649	58.88
290.864	36.35
291.079	73.21
291.294	40.45
291.509	58.88
291.724	28.16
291.938	52.74
292.153	48.64
292.368	120.32
292.583	62.98
292.798	73.21
293.012	73.21
293.227	-4.61
293.442	-2.56
293.657	-14.85
293.871	110.08
294.086	91.65
294.301	126.46
294.516	110.08
294.73	38.4
294.945	93.69
295.16	56.83
295.374	32.26
295.589	40.45
295.804	40.45
296.018	11.78
296.233	58.88
296.447	22.02
296.662	30.21
296.877	105.98
297.091	75.26
297.306	69.12
297.52	105.98
297.735	136.7
297.949	26.11
298.164	134.65
298.378	83.45
298.593	3.58
298.807	38.4
299.022	40.45
299.236	5.63
299.451	40.45
299.665	97.79
299.88	-8.7
300.094	36.35
300.309	85.5
300.523	34.3
300.737	-18.94
300.952	101.89
301.166	89.6
301.381	-0.51
301.595	-47.62
301.809	60.93
302.024	17.92
302.238	24.06
302.452	67.07
302.667	48.64
302.881	11.78
303.095	48.64
303.309	24.06
303.524	28.16
303.738	89.6
303.952	112.13
304.166	36.35
304.381	40.45
304.595	58.88
304.809	-41.47
305.023	50.69
305.237	7.68
305.452	148.99
305.666	34.3
305.88	56.83
306.094	118.27
306.308	67.07
306.522	65.02
306.736	36.35
306.95	30.21
307.164	75.26
307.379	50.69
307.593	89.6
307.807	85.5
308.021	42.5
308.235	91.65
308.449	77.31
308.663	42.5
308.877	24.06
309.091	54.78
309.305	17.92
309.519	38.4
309.733	34.3
309.947	-43.52
310.161	-4.61
310.374	108.03
310.588	62.98
310.802	5.63
311.016	30.21
311.23	54.78
311.444	54.78
311.658	42.5
311.872	40.45
312.085	26.11
312.299	83.45
312.513	136.7
312.727	46.59
312.941	3.58
313.154	99.84
313.368	7.68
313.582	3.58
313.796	30.21
314.009	79.36
314.223	69.12
314.437	30.21
314.651	22.02
314.864	52.74
315.078	50.69
315.292	44.54
315.505	-2.56
315.719	58.88
315.933	79.36
316.146	24.06
316.36	15.87
316.573	71.17
316.787	22.02
317.001	46.59
317.214	60.93
317.428	77.31
317.641	-27.14
317.855	42.5
318.068	30.21
318.282	40.45
318.495	77.31
318.709	83.45
318.922	105.98
319.136	105.98
319.349	93.69
319.563	56.83
319.776	-33.28
319.99	62.98
320.203	48.64
320.417	-4.61
320.63	93.69
320.843	108.03
321.057	97.79
321.27	54.78
321.483	81.41
321.697	48.64
321.91	34.3
322.124	9.73
322.337	40.45
322.55	7.68
322.763	19.97
322.977	26.11
323.19	38.4
323.403	87.55
323.617	67.07
323.83	81.41
324.043	73.21
324.256	122.37
324.469	40.45
324.683	97.79
324.896	42.5
325.109	89.6
325.322	30.21
325.535	69.12
325.748	22.02
325.962	75.26
326.175	-12.8
326.388	67.07
326.601	69.12
326.814	65.02
327.027	95.74
327.24	75.26
327.453	3.58
327.666	30.21
327.879	120.32
328.092	58.88
328.305	79.36
328.518	52.74
328.731	22.02
328.944	-2.56
329.157	89.6
329.37	116.22
329.583	71.17
329.796	54.78
330.009	73.21
330.222	62.98
330.435	124.41
330.648	91.65
330.861	24.06
331.073	130.56
331.286	-2.56
331.499	58.88
331.712	26.11
331.925	34.3
332.138	32.26
332.35	97.79
332.563	60.93
332.776	95.74
332.989	9.73
333.202	73.21
333.414	-4.61
333.627	58.88
333.84	71.17
334.053	120.32
334.265	19.97
334.478	60.93
334.691	85.5
334.903	-4.61
335.116	9.73
335.329	110.08
335.541	44.54
335.754	7.68
335.966	79.36
336.179	89.6
336.392	-18.94
336.604	87.55
336.817	42.5
337.029	134.65
337.242	44.54
337.454	30.21
337.667	24.06
337.88	116.22
338.092	97.79
338.305	148.99
338.517	52.74
338.729	91.65
338.942	136.7
339.154	3.58
339.367	34.3
339.579	52.74
339.792	40.45
340.004	91.65
340.217	93.69
340.429	-8.7
340.641	69.12
340.854	73.21
341.066	15.87
341.278	101.89
341.491	42.5
341.703	54.78
341.915	40.45
342.128	75.26
342.34	32.26
342.552	52.74
342.764	-25.09
342.977	24.06
343.189	-8.7
343.401	85.5
343.613	-31.23
343.826	42.5
344.038	34.3
344.25	9.73
344.462	65.02
344.674	48.64
344.886	-14.85
345.099	30.21
345.311	52.74
345.523	159.23
345.735	-18.94
345.947	97.79
346.159	-29.18
346.371	52.74
346.583	40.45
346.795	67.07
347.007	89.6
347.219	89.6
347.431	71.17
347.643	95.74
347.855	38.4
348.067	83.45
348.279	40.45
348.491	44.54
348.703	30.21
348.915	83.45
349.127	42.5
349.339	19.97
349.551	36.35
349.763	83.45
349.975	42.5
350.187	65.02
350.399	58.88
350.61	-27.14
350.822	15.87
351.034	19.97
351.246	28.16
351.458	75.26
351.669	-20.99
351.881	54.78
352.093	99.84
352.305	75.26
352.517	75.26
352.728	42.5
352.94	89.6
353.152	103.93
353.363	13.82
353.575	91.65
353.787	9.73
353.999	24.06
354.21	85.5
354.422	30.21
354.633	40.45
354.845	44.54
355.057	93.69
355.268	-14.85
355.48	75.26
355.692	28.16
355.903	97.79
356.115	110.08
356.326	52.74
356.538	62.98
356.749	24.06
356.961	54.78
357.172	-14.85
357.384	1.54
357.595	52.74
357.807	58.88
358.018	40.45
358.23	42.5
358.441	108.03
358.653	62.98
358.864	81.41
359.075	52.74
359.287	65.02
359.498	15.87
359.709	1.54
359.921	85.5
360.132	24.06
360.344	42.5
360.555	38.4
360.766	75.26
360.977	26.11
361.189	58.88
361.4	116.22
361.611	-4.61
361.823	40.45
362.034	36.35
362.245	60.93
362.456	42.5
362.667	54.78
362.879	58.88
363.09	89.6
363.301	46.59
363.512	46.59
363.723	11.78
363.935	48.64
364.146	67.07
364.357	65.02
364.568	42.5
364.779	36.35
364.99	30.21
365.201	91.65
365.412	22.02
365.623	38.4
365.834	3.58
366.045	38.4
366.256	1.54
366.467	48.64
366.678	77.31
366.889	3.58
367.1	7.68
367.311	142.85
367.522	5.63
367.733	77.31
367.944	65.02
368.155	85.5
368.366	34.3
368.577	56.83
368.788	71.17
368.999	9.73
369.209	24.06
369.42	71.17
369.631	58.88
369.842	1.54
370.053	60.93
370.264	24.06
370.474	36.35
370.685	112.13
370.896	85.5
371.107	40.45
371.317	118.27
371.528	22.02
371.739	69.12
371.95	-0.51
372.16	138.75
372.371	19.97
372.582	73.21
372.792	54.78
373.003	69.12
373.214	118.27
373.424	26.11
373.635	44.54
373.846	136.7
374.056	54.78
374.267	95.74
374.477	36.35
374.688	48.64
374.898	56.83
375.109	67.07
375.319	9.73
375.53	138.75
375.74	17.92
375.951	67.07
376.161	81.41
376.372	50.69
376.582	26.11
376.793	124.41
377.003	56.83
377.214	-25.09
377.424	87.55
377.635	65.02
377.845	153.09
378.055	101.89
378.266	103.93
378.476	122.37
378.686	62.98
378.897	36.35
379.107	65.02
379.317	34.3
379.528	65.02
379.738	103.93
379.948	101.89
380.158	91.65
380.369	52.74
380.579	44.54
380.789	75.26
380.999	89.6
381.21	-12.8
381.42	101.89
381.63	73.21
381.84	48.64
382.05	81.41
382.261	134.65
382.471	79.36
382.681	79.36
382.891	122.37
383.101	15.87
383.311	56.83
383.521	26.11
383.731	73.21
383.941	105.98
384.151	19.97
384.361	101.89
384.571	75.26
384.781	44.54
384.991	89.6
385.201	44.54
385.411	48.64
385.621	36.35
385.831	-49.66
386.041	116.22
386.251	19.97
386.461	140.8
386.671	83.45
386.881	161.28
387.091	75.26
387.301	79.36
387.511	73.21
387.72	112.13
387.93	58.88
388.14	81.41
388.35	97.79
388.56	48.64
388.769	112.13
388.979	42.5
389.189	42.5
389.399	91.65
389.609	40.45
389.818	108.03
390.028	19.97
390.238	85.5
390.447	42.5
390.657	85.5
390.867	71.17
391.076	65.02
391.286	79.36
391.496	56.83
391.705	122.37
391.915	99.84
392.125	105.98
392.334	52.74
392.544	97.79
392.753	75.26
392.963	24.06
393.172	108.03
393.382	36.35
393.591	114.17
393.801	58.88
394.01	62.98
394.22	105.98
394.429	79.36
394.639	93.69
394.848	87.55
395.058	79.36
395.267	46.59
395.477	28.16
395.686	108.03
395.895	124.41
396.105	126.46
396.314	157.18
396.524	83.45
396.733	128.51
396.942	75.26
397.152	128.51
397.361	105.98
397.57	108.03
397.78	42.5
397.989	89.6
398.198	173.57
398.407	95.74
398.617	85.5
398.826	118.27
399.035	28.16
399.244	83.45
399.453	181.76
399.663	165.37
399.872	108.03
400.081	105.98
400.29	175.61
400.499	67.07
400.708	192
400.917	112.13
401.127	157.18
401.336	65.02
401.545	93.69
401.754	77.31
401.963	142.85
402.172	114.17
402.381	112.13
402.59	132.61
402.799	75.26
403.008	108.03
403.217	167.42
403.426	136.7
403.635	77.31
403.844	71.17
404.053	81.41
404.262	62.98
404.471	155.13
404.68	177.66
404.888	214.52
405.097	216.57
405.306	189.95
405.515	108.03
405.724	239.1
405.933	148.99
406.142	142.85
406.35	212.48
406.559	187.9
406.768	114.17
406.977	163.33
407.185	169.47
407.394	241.15
407.603	167.42
407.812	349.69
408.02	204.28
408.229	237.05
408.438	239.1
408.646	298.49
408.855	239.1
409.064	194.05
409.272	263.68
409.481	310.78
409.69	251.39
409.898	247.29
410.107	267.77
410.315	273.92
410.524	267.77
410.733	273.92
410.941	349.69
411.15	304.64
411.358	323.07
411.567	386.55
411.775	351.74
411.984	386.55
412.192	374.27
412.401	419.32
412.609	503.29
412.818	450.04
413.026	519.67
413.234	478.71
413.443	501.24
413.651	484.86
413.86	513.53
414.068	583.16
414.276	650.74
414.485	472.57
414.693	603.64
414.901	712.18
415.11	624.12
415.318	665.08
415.526	693.75
415.734	671.22
415.943	769.52
416.151	828.92
416.359	701.94
416.567	833.01
416.776	830.96
416.984	927.22
417.192	876.02
417.4	835.06
417.608	800.24
417.817	894.45
418.025	945.65
418.233	1048.05
418.441	1011.18
418.649	1023.47
418.857	1168.88
419.065	1111.54
419.273	1226.22
419.481	1230.32
419.689	1342.96
419.897	1392.11
420.105	1351.15
420.313	1428.97
420.521	1447.4
420.729	1471.98
420.937	1474.03
421.145	1572.33
421.353	1674.73
421.561	1789.41
421.769	1773.03
421.977	1902.05
422.185	2012.64
422.393	2084.32
422.601	2172.38
422.809	2016.74
423.017	2121.18
423.224	2135.52
423.432	2368.99
423.64	2297.31
423.848	2500.06
424.056	2506.2
424.263	2612.7
424.471	2549.21
424.679	2557.4
424.887	2833.88
425.094	2760.15
425.302	3040.72
425.51	2981.33
425.718	3036.63
425.925	3229.13
426.133	3304.91
426.341	3425.74
426.548	3476.94
426.756	3599.82
426.964	3472.84
427.171	3759.56
427.379	3919.3
427.586	3888.58
427.794	4222.4
428.001	4363.71
428.209	4558.27
428.417	4396.48
428.624	4689.34
428.832	4812.21
429.039	4597.18
429.247	4629.95
429.454	5174.71
429.662	5565.87
429.869	5139.89
430.076	5371.31
430.284	5332.4
430.491	5584.3
430.699	5868.97
430.906	6010.28
431.114	5979.56
431.321	6217.12
431.528	6383.01
431.736	6774.17
431.943	6915.48
432.15	6765.98
432.358	6868.38
432.565	7288.21
432.772	7136.66
432.979	7558.54
433.187	7658.89
433.394	7728.52
433.601	8476.03
433.808	8316.29
434.016	8299.91
434.223	8648.06
434.43	9143.67
434.637	9008.5
434.844	9411.95
435.052	9837.93
435.259	9612.65
435.466	9678.19
435.673	9569.65
435.88	10509.66
436.087	10933.59
436.294	11210.07
436.501	10661.21
436.708	10921.31
436.915	11253.08
437.122	11670.86
437.329	11664.72
437.537	12160.33
437.743	12375.36
437.95	12082.5
438.157	12862.78
438.364	13106.49
438.571	13255.99
438.778	13323.57
438.985	14490.91
439.192	13876.52
439.399	14259.49
439.606	14167.34
439.813	14777.63
440.02	15815.95
440.227	15576.34
440.433	15168.79
440.64	16176.39
440.847	15912.21
441.054	16084.23
441.261	17337.59
441.467	16956.67
441.674	17222.91
441.881	18253.03
442.088	17878.26
442.294	17831.15
442.501	18363.62
442.708	18697.44
442.914	19369.18
443.121	20206.8
443.328	19567.83
443.534	20882.63
443.741	20284.62
443.948	19969.23
444.154	21742.77
444.361	21357.75
444.568	21570.74
444.774	21781.68
444.981	22275.24
445.187	22490.28
445.394	23682.2
445.6	23186.59
445.807	25599.1
446.013	24333.45
446.22	24884.36
446.426	25441.4
446.633	25908.34
446.839	26729.58
447.046	26293.36
447.252	27186.27
447.459	27133.03
447.665	27018.34
447.871	28632.14
448.078	29627.45
448.284	28103.76
448.491	28740.68
448.697	30188.6
448.903	30647.34
449.11	30944.3
449.316	30338.1
449.522	30811.18
449.728	31857.69
449.935	31802.39
450.141	32048.15
450.347	32437.27
450.553	31646.75
450.76	31978.52
450.966	32607.25
451.172	32568.34
451.378	33420.29
451.584	32736.27
451.791	33526.78
451.997	33534.98
452.203	33680.38
452.409	33707.01
452.615	33635.33
452.821	32461.84
453.027	32128.02
453.233	33758.2
453.44	32281.62
453.646	32822.28
453.852	33221.64
454.058	33532.93
454.264	32332.82
454.47	33321.99
454.676	32642.06
454.882	33498.11
455.088	30385.2
455.294	31022.12
455.5	31368.23
455.705	31573.02
455.911	30436.4
456.117	29848.63
456.323	29510.72
456.529	27966.55
456.735	29133.89
456.941	28267.6
457.147	27858.01
457.352	26995.81
457.558	26674.28
457.764	26641.51
457.97	26272.88
458.176	25689.21
458.381	25732.22
458.587	24427.66
458.793	24650.89
458.999	23368.86
459.204	24867.97
459.41	24265.87
459.616	22363.31
459.821	22615.21
460.027	22322.35
460.233	21820.6
460.438	21087.42
460.644	21093.57
460.85	20229.32
461.055	19897.55
461.261	19893.46
461.466	18351.34
461.672	17732.85
461.878	19238.11
462.083	17853.68
462.289	17251.58
462.494	17165.56
462.7	16389.38
462.905	16186.63
463.111	16760.06
463.316	16643.33
463.522	16385.29
463.727	16276.74
463.932	16282.89
464.138	16024.84
464.343	16194.82
464.549	15801.61
464.754	16577.8
464.959	16205.06
465.165	15940.88
465.37	15428.88
465.575	14834.97
465.781	15615.25
465.986	15510.8
466.191	15027.48
466.397	14988.57
466.602	13993.26
466.807	14691.62
467.012	14701.86
467.218	14441.76
467.423	14454.05
467.628	14449.96
467.833	14839.07
468.038	14443.81
468.244	14028.07
468.449	14599.46
468.654	14085.42
468.859	14042.41
469.064	14146.86
469.269	13528.37
469.474	13610.29
469.679	13854
469.885	13362.48
470.09	13307.19
470.295	13434.16
470.5	13100.34
470.705	13116.73
470.91	12881.21
471.115	12891.45
471.32	12717.37
471.525	12836.16
471.73	12418.37
471.935	12522.82
472.139	12055.88
472.344	12250.44
472.549	12164.42
472.754	12002.63
472.959	11720.01
473.164	11375.95
473.369	11468.11
473.574	11814.22
473.778	11564.37
473.983	11578.7
474.188	11367.76
474.393	10906.97
474.598	11068.76
474.802	10898.78
475.007	10857.82
475.212	10866.01
475.417	10433.89
475.621	10413.41
475.826	10501.47
476.031	10329.44
476.235	10216.8
476.44	10366.31
476.645	9799.02
476.849	9966.95
477.054	9917.8
477.259	9934.18
477.463	9792.87
477.668	9530.73
477.872	9743.72
478.077	9485.68
478.282	9119.09
478.486	9250.16
478.691	9123.19
478.895	9088.37
479.1	8981.88
479.304	9186.68
479.509	8746.36
479.713	9047.41
479.918	8840.57
480.122	8525.18
480.326	8637.82
480.531	8736.12
480.735	8600.96
480.94	8539.52
481.144	8666.49
481.348	8267.14
481.553	8529.28
481.757	8193.41
481.961	8498.56
482.166	8680.83
482.37	8637.82
482.574	8441.22
482.778	8367.49
482.983	8531.33
483.187	8469.89
483.391	8310.15
483.595	8283.52
483.8	8359.3
484.004	8338.82
484.208	8287.62
484.412	8338.82
484.616	8334.72
484.821	8641.92
485.025	8287.62
485.229	8330.62
485.433	8226.18
485.637	8250.75
485.841	8283.52
486.045	8324.48
486.249	8347.01
486.453	8228.23
486.657	8351.1
486.861	8318.34
487.065	8240.51
487.269	8201.6
487.473	8201.6
487.677	8449.41
487.881	8420.74
488.085	8375.68
488.289	8416.64
488.493	8295.81
488.697	8428.93
488.901	8451.46
489.105	8318.34
489.309	8582.53
489.512	8494.46
489.716	8410.5
489.92	8537.47
490.124	8490.37
490.328	8594.81
490.531	8596.86
490.735	8600.96
490.939	8553.85
491.143	8551.81
491.346	8623.48
491.55	8533.37
491.754	8570.24
491.958	8613.24
492.161	8707.45
492.365	8713.6
492.569	8705.4
492.772	8754.55
492.976	8920.44
493.18	8832.38
493.383	9096.57
493.587	9006.45
493.79	9248.11
493.994	8889.72
494.197	9235.83
494.401	9190.77
494.605	9207.16
494.808	9274.74
495.012	9325.94
495.215	9330.03
495.419	9403.76
495.622	9389.42
495.825	9573.74
496.029	9635.18
496.232	9813.35
496.436	9821.55
496.639	10120.55
496.843	9928.04
497.046	10098.02
497.249	10165.6
497.453	10235.24
497.656	10548.58
497.859	10386.79
498.063	10589.53
498.266	10829.15
498.469	10599.77
498.673	10780
498.876	10804.57
499.079	11099.48
499.282	11244.88
499.485	11435.35
499.689	11486.54
499.892	11517.26
500.095	11556.18
500.298	11818.32
500.501	11697.49
500.705	12178.76
500.908	12080.46
501.111	12463.43
501.314	12211.53
501.517	12600.64
501.72	13024.57
501.923	12582.21
502.126	12860.73
502.329	13329.72
502.532	13423.92
502.735	13376.82
502.938	13649.2
503.141	13489.46
503.344	13702.45
503.547	13892.91
503.75	13870.38
503.953	14132.52
504.156	14255.4
504.359	14503.2
504.562	14380.32
504.765	14869.79
504.968	15043.87
505.17	15256.86
505.373	15303.96
505.576	15504.66
505.779	15758.61
505.982	15695.12
506.185	15977.74
506.387	15863.05
506.59	16088.33
506.793	16467.2
506.996	16309.51
507.198	16774.4
507.401	16846.08
507.604	16866.56
507.807	17280.25
508.009	17181.95
508.212	17171.71
508.415	17642.74
508.617	17890.54
508.82	17927.41
509.022	17951.98
509.225	18429.16
509.428	18390.25
509.63	18531.56
509.833	18533.61
510.035	19238.11
510.238	18746.59
510.44	19330.27
510.643	19487.96
510.845	19596.5
511.048	19725.52
511.25	20055.25
511.453	19999.95
511.655	20729.03
511.858	20427.98
512.06	20722.88
512.262	20995.26
512.465	20808.9
512.667	21367.99
512.87	21507.26
513.072	21480.63
513.274	21888.18
513.477	22103.21
513.679	22211.76
513.881	22447.27
514.084	22807.72
514.286	22832.29
514.488	22906.02
514.69	23440.54
514.893	23215.26
515.095	23778.45
515.297	23714.97
515.499	24003.73
515.701	24274.06
515.904	24355.98
516.106	24333.45
516.308	24743.05
516.51	24929.41
516.712	24749.19
516.914	25285.76
517.116	25609.34
517.318	25527.42
517.52	25566.33
517.722	25726.07
517.925	26121.33
518.127	26784.87
518.329	26954.85
518.531	26317.93
518.733	26989.67
518.935	27235.42
519.136	27221.09
519.338	27612.25
519.54	27733.08
519.742	27839.58
519.944	28062.8
520.146	28503.12
520.348	28451.92
520.55	28677.19
520.752	28546.12
520.954	29416.51
521.155	29158.47
521.357	29377.6
521.559	29563.96
521.761	30104.63
521.963	30045.24
522.164	29955.13
522.366	30440.5
522.568	30340.15
522.77	30663.72
522.971	31226.92
523.173	30690.35
523.375	31206.44
523.576	31124.52
523.778	31085.61
523.98	31654.94
524.181	31833.11
524.383	31777.82
524.584	31951.9
524.786	32220.18
524.988	31835.16
525.189	32015.38
525.391	32404.5
525.592	32697.36
525.794	32822.28
525.995	32580.62
526.197	32822.28
526.398	33047.56
526.6	33283.08
526.801	33248.26
527.003	33350.66
527.204	33418.24
527.406	33442.82
527.607	33360.9
527.808	34024.44
528.01	33348.61
528.211	33721.34
528.412	34425.84
528.614	34286.58
528.815	33803.26
529.016	34612.21
529.218	33938.43
529.419	34247.67
529.62	34073.59
529.822	34558.96
530.023	34214.9
530.224	34348.02
530.425	34229.24
530.626	34567.15
530.828	34141.18
531.029	35068.9
531.23	34726.89
531.431	34409.46
531.632	34563.06
531.833	34739.18
532.035	34753.52
532.236	34616.3
532.437	34825.2
532.638	34728.94
532.839	34884.59
533.04	34812.91
533.241	34831.34
533.442	34855.92
533.643	34896.88
533.844	34767.85
534.045	35087.34
534.246	34348.02
534.447	34817
534.648	34687.98
534.849	35099.62
535.05	34997.23
535.251	34771.95
535.451	35042.28
535.652	35372
535.853	34751.47
536.054	34890.73
536.255	35062.76
536.456	34624.5
536.657	35218.41
536.857	34919.4
537.058	34837.48
537.259	34943.98
537.46	34778.09
537.66	35048.43
537.861	34943.98
538.062	35013.61
538.263	34710.51
538.463	34710.51
538.664	34632.69
538.865	34819.05
539.065	35533.79
539.266	34515.95
539.466	35091.43
539.667	34487.28
539.868	34982.89
540.068	34671.6
540.269	34438.13
540.469	35105.77
540.67	34536.43
540.87	34604.02
541.071	34823.15
541.271	34718.7
541.472	34915.31
541.672	34175.99
541.873	34358.26
542.073	33909.75
542.274	34866.16
542.474	34460.66
542.675	34397.17
542.875	34784.24
543.075	34309.11
543.276	34108.41
543.476	34917.36
543.676	34399.22
543.877	34671.6
544.077	34857.96
544.277	34495.47
544.478	34235.38
544.678	34460.66
544.878	34384.88
545.078	34124.79
545.279	34188.28
545.479	34438.13
545.679	34462.71
545.879	34147.32
546.079	34065.4
546.28	34456.56
546.48	33864.7
546.68	34370.55
546.88	34391.03
547.08	34421.75
547.28	34503.67
547.48	33776.64
547.68	34214.9
547.88	33844.22
548.081	34319.35
548.281	34206.71
548.481	34069.5
548.681	34243.57
548.881	34159.61
549.081	33856.51
549.28	34087.93
549.48	34317.3
549.68	33907.71
549.88	34536.43
550.08	34053.11
550.28	33831.93
550.48	33999.87
550.68	34186.23
550.88	33917.95
551.08	33997.82
551.279	34370.55
551.479	33715.2
551.679	34012.15
551.879	33698.81
552.079	34040.82
552.278	33745.92
552.478	33885.18
552.678	33442.82
552.878	34171.89
553.077	33813.5
553.277	33475.59
553.477	33965.05
553.676	33567.74
553.876	33819.64
554.076	33489.92
554.275	33561.6
554.475	33221.64
554.674	34003.96
554.874	33657.85
555.074	33324.04
555.273	33287.17
555.473	33897.47
555.672	33235.97
555.872	33061.9
556.071	33737.73
556.271	33573.89
556.47	33182.73
556.67	33164.29
556.869	33147.91
557.068	33666.05
557.268	33457.15
557.467	33051.66
557.667	33326.08
557.866	32973.83
558.065	33162.25
558.265	32949.26
558.464	32801.8
558.663	33467.39
558.863	33065.99
559.062	33254.4
559.261	32846.86
559.461	32967.69
559.66	32320.53
559.859	32947.21
560.058	32390.16
560.258	33102.85
560.457	32312.34
560.656	32863.24
560.855	32379.92
561.054	32771.08
561.253	32209.94
561.453	32619.53
561.652	32404.5
561.851	32877.58
562.05	32402.45
562.249	32238.61
562.448	32683.02
562.647	32607.25
562.846	32390.16
563.045	31996.95
563.244	31906.84
563.443	32154.65
563.642	31761.44
563.841	31908.89
564.04	31876.12
564.239	32091.16
564.438	31794.2
564.637	32312.34
564.836	31900.7
565.035	31626.27
565.234	31984.66
565.432	31814.68
565.631	31591.45
565.83	31755.29
566.029	31661.08
566.228	31462.43
566.427	31278.11
566.625	31233.06
566.824	30866.47
567.023	31489.06
567.222	30966.82
567.42	31546.4
567.619	31175.72
567.818	31063.08
568.016	30921.77
568.215	31329.31
568.414	30784.55
568.612	31052.84
568.811	30831.66
569.01	30678.06
569.208	30598.19
569.407	31024.17
569.605	30516.27
569.804	30932.01
570.002	30420.02
570.201	30432.3
570.4	30114.87
570.598	30426.16
570.797	29867.06
570.995	30438.45
571.193	30008.37
571.392	30503.98
571.59	30004.28
571.789	29897.78
571.987	29854.78
572.186	30030.9
572.384	29748.28
572.582	29877.3
572.781	30035
572.979	29260.87
573.177	29549.63
573.376	29791.29
573.574	29455.42
573.772	29742.14
573.971	29221.95
574.169	29279.3
574.367	28890.18
574.565	29060.16
574.763	28800.07
574.962	28953.67
575.16	28685.39
575.358	29041.73
575.556	28961.86
575.754	29162.56
575.952	28443.73
576.151	28881.99
576.349	28236.88
576.547	28480.59
576.745	28525.64
576.943	28482.64
577.141	28283.98
577.339	28499.02
577.537	28286.03
577.735	28290.13
577.933	27937.88
578.131	28281.94
578.329	27765.85
578.527	27950.17
578.725	28365.9
578.923	27771.99
579.121	27933.78
579.319	27667.55
579.516	27888.73
579.714	27837.53
579.912	27614.3
580.11	27225.18
580.308	27257.95
580.506	27262.05
580.704	26924.13
580.901	27173.99
581.099	27409.5
581.297	26950.76
581.495	27087.97
581.692	27206.75
581.89	26774.63
582.088	27206.75
582.285	26557.55
582.483	27053.16
582.681	26743.91
582.878	26621.03
583.076	26414.19
583.274	27073.63
583.471	26176.62
583.669	26322.03
583.866	26356.85
584.064	26324.08
584.262	26127.47
584.459	26057.84
584.657	26336.37
584.854	26063.99
585.052	25617.53
585.249	26104.95
585.447	26074.23
585.644	25396.35
585.841	25730.17
586.039	25834.61
586.236	25523.32
586.434	25492.6
586.631	25132.16
586.828	25418.88
587.026	25281.66
587.223	24802.44
587.42	25203.84
587.618	25181.31
587.815	24958.08
588.012	24695.94
588.21	24364.17
588.407	25220.22
588.604	24528.01
588.801	24609.93
588.999	24843.4
589.196	24675.46
589.393	24300.69
589.59	24394.89
589.787	24087.7
589.984	24085.65
590.182	24087.7
590.379	24016.02
590.576	24237.2
590.773	24102.03
590.97	23798.93
591.167	23985.3
591.364	23467.16
591.561	23749.78
591.758	23487.64
591.955	23745.69
592.152	23766.17
592.349	23227.55
592.546	23334.04
592.743	23395.48
592.94	23284.89
593.137	23354.52
593.334	23329.95
593.531	22756.52
593.727	22951.07
593.924	22820
594.121	22768.8
594.318	23125.15
594.515	22662.31
594.712	22797.48
594.908	22715.56
595.105	22842.53
595.302	22260.91
595.499	22537.38
595.696	22375.59
595.892	21761.2
596.089	22471.85
596.286	22277.29
596.482	22271.15
596.679	22070.45
596.876	21994.67
597.072	21937.33
597.269	21943.47
597.466	21626.04
597.662	21828.79
597.859	21839.03
598.055	21685.43
598.252	21800.12
598.448	21302.46
598.645	21472.44
598.841	21247.16
599.038	21337.27
599.234	21408.95
599.431	21273.79
599.627	21378.23
599.824	21404.86
600.02	20948.16
600.217	21255.36
600.413	21167.29
600.609	20622.53
600.806	20737.22
601.002	20903.11
601.198	20464.84
601.395	20620.49
601.591	20372.68
601.787	20481.22
601.984	20065.49
602.18	20401.35
602.376	20141.26
602.572	20389.06
602.769	20370.63
602.965	20028.62
603.161	20163.79
603.357	19950.8
603.553	19664.08
603.75	19700.95
603.946	19743.95
604.142	19893.46
604.338	19797.2
604.534	19694.8
604.73	19698.9
604.926	19473.62
605.122	19346.65
605.318	19315.93
605.514	19072.22
605.71	18924.77
605.906	19299.55
606.102	18988.25
606.298	19148
606.494	19164.38
606.69	19055.84
606.886	19283.16
607.082	19018.97
607.278	19025.12
607.474	18533.61
607.67	19047.65
607.866	18660.58
608.062	19053.79
608.257	18830.56
608.453	18531.56
608.649	18443.49
608.845	18525.41
609.041	18676.96
609.236	18644.2
609.432	18304.23
609.628	18709.73
609.824	18554.08
610.019	18408.68
610.215	18492.65
610.411	18177.26
610.606	18339.05
610.802	18142.44
610.998	18130.16
611.193	18345.19
611.389	18091.24
611.584	17853.68
611.78	17757.43
611.976	17605.88
612.171	17825.01
612.367	18083.05
612.562	18054.38
612.758	17685.75
612.953	17804.53
613.149	18052.33
613.344	17698.03
613.539	17884.4
613.735	17599.73
613.93	17874.16
614.126	17710.32
614.321	17624.31
614.517	17827.06
614.712	17509.62
614.907	17325.3
615.103	17546.48
615.298	17485.05
615.493	17454.33
615.688	17149.18
615.884	17661.17
616.079	17433.85
616.274	17251.58
616.47	17075.45
616.665	17224.95
616.86	16946.43
617.055	17065.21
617.25	16905.47
617.445	17128.7
617.641	16725.25
617.836	17071.36
618.031	16628.99
618.226	16891.13
618.421	16680.19
618.616	17102.08
618.811	16866.56
619.006	16811.26
619.201	16256.26
619.396	16583.94
619.591	16248.07
619.786	16348.42
619.981	16250.12
620.176	16223.5
620.371	15789.33
620.566	16100.62
620.761	15998.22
620.956	16223.5
621.151	15738.13
621.346	15867.15
621.541	15451.41
621.735	15768.85
621.93	15533.33
622.125	15586.58
622.32	15236.38
622.515	15437.08
622.709	15531.28
622.904	15398.17
623.099	15025.43
623.294	15142.17
623.488	15158.55
623.683	15037.72
623.878	14890.27
624.072	14464.29
624.267	14597.41
624.462	14632.22
624.656	14220.58
624.851	14595.36
625.046	14261.54
625.24	14308.65
625.435	14126.38
625.629	14042.41
625.824	14075.18
626.018	14189.86
626.213	13870.38
626.407	13911.34
626.602	13759.79
626.796	13690.16
626.991	13765.93
627.185	13509.94
627.38	13577.52
627.574	13428.02
627.768	13346.1
627.963	13331.76
628.157	13245.75
628.352	13098.3
628.546	12987.71
628.74	13038.91
628.935	13008.19
629.129	12993.85
629.323	12967.23
629.517	12776.77
629.712	12735.81
629.906	12416.32
630.1	12338.5
630.294	12473.67
630.489	12397.89
630.683	12338.5
630.877	12195.14
631.071	12225.86
631.265	12154.18
631.459	12055.88
631.653	12092.74
631.848	11955.53
632.042	11920.71
632.236	11887.95
632.43	11646.29
632.624	11922.76
632.818	11865.42
633.012	11625.81
633.206	11367.76
633.4	11388.24
633.594	11265.36
633.788	11574.61
633.982	11255.12
634.176	11115.86
634.369	11173.21
634.563	11142.49
634.757	11052.38
634.951	11160.92
635.145	10997.08
635.339	10818.91
635.533	10716.51
635.726	10845.53
635.92	10653.02
636.114	10667.36
636.308	10601.82
636.501	10734.94
636.695	10524
636.889	10538.34
637.083	10335.59
637.276	10480.99
637.47	10448.22
637.664	10069.35
637.857	10089.83
638.051	10358.11
638.244	10063.21
638.438	10108.26
638.632	9905.51
638.825	9854.31
639.019	9876.84
639.212	9887.08
639.406	9694.57
639.599	9583.98
639.793	9706.86
639.986	9657.71
640.18	9700.72
640.373	9471.34
640.567	9452.91
640.76	9551.21
640.954	9250.16
641.147	9284.98
641.34	9370.99
641.534	9002.36
641.727	9168.24
641.92	9184.63
642.114	8922.49
642.307	8951.16
642.5	9053.56
642.694	8889.72
642.887	8717.69
643.08	8926.58
643.273	8732.03
643.467	8854.9
643.66	8512.89
643.853	8535.42
644.046	8506.75
644.239	8324.48
644.432	8670.59
644.626	8433.02
644.819	8334.72
645.012	8320.39
645.205	8473.98
645.398	8347.01
645.591	8265.09
645.784	8170.88
645.977	8117.64
646.17	8043.91
646.363	7904.65
646.556	8129.92
646.749	8091.01
646.942	8250.75
647.135	7851.4
647.328	7859.59
647.521	7955.85
647.714	7634.32
647.907	7652.75
648.099	7493.01
648.292	7648.65
648.485	7708.04
648.678	7554.44
648.871	7505.29
649.064	7533.97
649.256	7450
649.449	7425.42
649.642	7214.48
649.835	7370.13
650.027	7339.41
650.22	7155.09
650.413	7171.47
650.605	7232.91
650.798	6946.2
650.991	7132.56
651.183	7001.49
651.376	7032.21
651.568	6796.7
651.761	6892.95
651.954	6823.32
652.146	6839.7
652.339	6800.79
652.531	6854.04
652.724	6698.39
652.916	6710.68
653.109	6735.26
653.301	6647.19
653.494	6618.52
653.686	6391.2
653.879	6667.67
654.071	6509.98
654.263	6540.7
654.456	6512.03
654.648	6385.05
654.84	6340
655.033	6290.85
655.225	6337.95
655.417	6307.23
655.61	6278.56
655.802	6196.64
655.994	6170.02
656.186	6245.79
656.379	6174.11
656.571	6061.48
656.763	6063.52
656.955	6108.58
657.148	6172.07
657.34	6102.43
657.532	5852.58
657.724	5909.93
657.916	5983.65
658.108	5828.01
658.3	5760.42
658.492	5785
658.684	5791.14
658.876	5690.79
659.068	5674.41
659.26	5707.18
659.452	5586.35
659.644	5619.11
659.836	5655.98
660.028	5510.57
660.22	5541.29
660.412	5535.15
660.604	5529
660.796	5451.18
660.988	5391.79
661.18	5324.21
661.372	5248.43
661.563	5395.89
661.755	5283.25
661.947	5217.71
662.139	5219.76
662.331	5115.31
662.522	5160.37
662.714	5193.14
662.906	5250.48
663.097	5047.73
663.289	5043.64
663.481	5197.23
663.673	5090.74
663.864	5037.49
664.056	4916.66
664.247	4994.48
664.439	4976.05
664.631	4898.23
664.822	4974
665.014	4898.23
665.205	4959.67
665.397	4892.09
665.588	4734.39
665.78	4707.77
665.971	4761.02
666.163	4675
666.354	4767.16
666.546	4722.1
666.737	4537.79
666.929	4666.81
667.12	4701.62
667.311	4550.07
667.503	4515.26
667.694	4502.97
667.885	4554.17
668.077	4488.64
668.268	4384.19
668.459	4404.67
668.651	4580.79
668.842	4523.45
669.033	4376
669.224	4353.47
669.416	4281.79
669.607	4339.13
669.798	4281.79
669.989	4451.77
670.18	4257.22
670.371	4357.57
670.563	4222.4
670.754	4224.45
670.945	4171.2
671.136	4201.92
671.327	4165.06
671.518	4253.12
671.709	4234.69
671.9	4132.29
672.091	4033.99
672.282	4122.05
672.473	3941.83
672.664	4134.34
672.855	4136.38
673.046	3999.17
673.237	4099.52
673.428	4033.99
673.619	4009.41
673.809	3884.48
674	3923.4
674.191	4107.71
674.382	3884.48
674.573	3900.87
674.764	3941.83
674.954	3847.62
675.145	3896.77
675.336	3886.53
675.527	3902.92
675.717	3833.29
675.908	3894.72
676.099	3919.3
676.289	3694.02
676.48	3845.57
676.671	3786.18
676.861	3732.94
677.052	3882.44
677.243	3689.93
677.433	3771.85
677.624	3810.76
677.814	3745.22
678.005	3659.21
678.195	3775.94
678.386	3734.98
678.576	3665.35
678.767	3700.17
678.957	3630.54
679.148	3888.58
679.338	3644.87
679.529	3579.34
679.719	3601.87
679.909	3550.67
680.1	3526.09
680.29	3624.39
680.481	3571.15
680.671	3659.21
680.861	3603.91
681.052	3483.08
681.242	3675.59
681.432	3474.89
681.622	3519.95
681.813	3515.85
682.003	3478.99
682.193	3577.29
682.383	3407.31
682.573	3429.84
682.764	3464.65
682.954	3620.3
683.144	3370.44
683.334	3458.51
683.524	3503.56
683.714	3419.6
683.904	3423.69
684.094	3440.08
684.284	3431.88
684.474	3534.28
684.664	3306.96
684.854	3304.91
685.044	3409.36
685.234	3356.11
685.424	3481.03
685.614	3374.54
685.804	3337.68
685.994	3222.99
686.184	3345.87
686.374	3231.18
686.564	3198.42
686.753	3147.22
686.943	3227.09
687.133	3233.23
687.323	3294.67
687.513	3243.47
687.702	3177.94
687.892	3177.94
688.082	3069.39
688.272	3200.46
688.461	3102.16
688.651	3079.63
688.841	3067.35
689.03	3014.1
689.22	3059.15
689.41	3126.74
689.599	3020.24
689.789	3063.25
689.979	3028.43
690.168	2919.89
690.358	2962.9
690.547	2989.52
690.737	3028.43
690.926	2817.49
691.116	2966.99
691.305	3067.35
691.495	2878.93
691.684	2856.4
691.874	2813.4
692.063	2973.14
692.252	2899.41
692.442	2786.77
692.631	2733.53
692.82	2758.1
693.01	2983.38
693.199	2801.11
693.388	2821.59
693.578	2772.44
693.767	2788.82
693.956	2756.05
694.146	2653.66
694.335	2586.07
694.524	2713.05
694.713	2651.61
694.902	2817.49
695.092	2618.84
695.281	2774.49
695.47	2684.38
695.659	2545.11
695.848	2563.54
696.037	2592.22
696.226	2743.77
696.415	2627.03
696.604	2702.81
696.793	2684.38
696.982	2747.86
697.171	2776.53
697.36	2602.46
697.549	2506.2
697.738	2528.73
697.927	2549.21
698.116	2739.67
698.305	2678.23
698.494	2602.46
698.683	2711
698.872	2577.88
699.061	2637.27
699.25	2553.31
699.438	2584.02
699.627	2672.09
699.816	2491.87
700.005	2577.88
700.193	2688.47
700.382	2512.35
700.571	2549.21
700.76	2538.97
700.948	2602.46
701.137	2516.44
701.326	2663.9
701.514	2616.79
701.703	2612.7
701.892	2649.56
702.08	2579.93
702.269	2522.59
702.457	2405.85
702.646	2559.45
702.834	2493.91
703.023	2649.56
703.212	2575.83
703.4	2534.87
703.589	2588.12
703.777	2561.5
703.965	2524.63
704.154	2545.11
704.342	2506.2
704.531	2592.22
704.719	2641.37
704.907	2506.2
705.096	2586.07
705.284	2618.84
705.472	2670.04
705.661	2405.85
705.849	2686.42
706.037	2624.98
706.226	2553.31
706.414	2414.04
706.602	2534.87
706.79	2545.11
706.979	2594.26
707.167	2563.54
707.355	2596.31
707.543	2569.69
707.731	2555.35
707.919	2491.87
708.107	2469.34
708.296	2500.06
708.484	2438.62
708.672	2584.02
708.86	2524.63
709.048	2655.7
709.236	2594.26
709.424	2631.13
709.612	2586.07
709.8	2541.02
709.988	2536.92
710.176	2543.07
710.364	2528.73
710.551	2487.77
710.739	2600.41
710.927	2430.43
711.115	2532.83
711.303	2543.07
711.491	2457.05
711.679	2661.85
711.866	2541.02
712.054	2553.31
712.242	2549.21
712.43	2592.22
712.617	2610.65
712.805	2508.25
712.993	2553.31
713.181	2518.49
713.368	2629.08
713.556	2547.16
713.744	2551.26
713.931	2672.09
714.119	2622.94
714.306	2600.41
714.494	2584.02
714.682	2557.4
714.869	2373.08
715.057	2518.49
715.244	2612.7
715.432	2532.83
715.619	2571.74
715.807	2594.26
715.994	2446.81
716.182	2493.91
716.369	2538.97
716.556	2581.98
716.744	2448.86
716.931	2592.22
717.119	2635.22
717.306	2655.7
717.493	2491.87
717.681	2457.05
717.868	2600.41
718.055	2676.18
718.242	2436.57
718.43	2493.91
718.617	2532.83
718.804	2581.98
718.991	2557.4
719.179	2641.37
719.366	2653.66
719.553	2547.16
719.74	2514.39
719.927	2467.29
720.114	2608.6
720.301	2559.45
720.488	2516.44
720.676	2588.12
720.863	2426.33
721.05	2500.06
721.237	2475.48
721.424	2514.39
721.611	2463.19
721.798	2504.15
721.985	2436.57
722.172	2450.91
722.358	2547.16
722.545	2590.17
722.732	2545.11
722.919	2549.21
723.106	2397.66
723.293	2541.02
723.48	2557.4
723.667	2344.41
723.853	2491.87
724.04	2508.25
724.227	2495.96
724.414	2455
724.6	2524.63
724.787	2450.91
724.974	2481.63
725.161	2416.09
725.347	2483.67
725.534	2356.7
725.72	2463.19
725.907	2479.58
726.094	2455
726.28	2397.66
726.467	2495.96
726.653	2534.87
726.84	2321.88
727.027	2463.19
727.213	2397.66
727.4	2467.29
727.586	2407.9
727.773	2485.72
727.959	2444.76
728.145	2377.18
728.332	2412
728.518	2414.04
728.705	2395.61
728.891	2399.71
729.077	2414.04
729.264	2442.71
729.45	2440.67
729.636	2584.02
729.823	2368.99
730.009	2379.23
730.195	2407.9
730.382	2426.33
730.568	2461.15
730.754	2407.9
730.94	2471.39
731.126	2412
731.313	2358.75
731.499	2416.09
731.685	2377.18
731.871	2403.8
732.057	2328.03
732.243	2366.94
732.429	2393.56
732.615	2436.57
732.801	2403.8
732.987	2481.63
733.173	2309.6
733.359	2280.93
733.545	2272.73
733.731	2297.31
733.917	2336.22
734.103	2416.09
734.289	2291.17
734.475	2352.6
734.661	2321.88
734.847	2334.17
735.033	2262.49
735.219	2305.5
735.404	2395.61
735.59	2289.12
735.776	2291.17
735.962	2344.41
736.148	2317.79
736.333	2334.17
736.519	2282.97
736.705	2307.55
736.89	2315.74
737.076	2340.32
737.262	2231.77
737.447	2377.18
737.633	2217.44
737.819	2295.26
738.004	2201.05
738.19	2250.21
738.375	2293.21
738.561	2323.93
738.747	2201.05
738.932	2262.49
739.118	2289.12
739.303	2250.21
739.489	2207.2
739.674	2129.38
739.859	2127.33
740.045	2127.33
740.23	2360.8
740.416	2055.65
740.601	2213.34
740.786	2170.33
740.972	2123.23
741.157	2135.52
741.342	2037.22
741.528	2203.1
741.713	2076.13
741.898	2139.62
742.084	2008.55
742.269	2121.18
742.454	2014.69
742.639	2090.46
742.824	1990.11
743.01	2063.84
743.195	2147.81
743.38	2051.55
743.565	2106.85
743.75	2108.9
743.935	1988.07
744.12	2059.74
744.305	1963.49
744.49	1967.59
744.675	1977.83
744.86	1846.76
745.045	1981.92
745.23	1975.78
745.415	1930.72
745.6	1865.19
745.785	1902.05
745.97	1961.44
746.155	1721.83
746.34	2024.93
746.525	1889.76
746.71	2033.12
746.895	1961.44
747.079	1768.93
747.264	1824.23
747.449	1881.57
747.634	1828.32
747.819	1795.56
748.003	1807.84
748.188	1779.17
748.373	1713.64
748.557	1758.69
748.742	1676.77
748.927	1797.6
749.111	1701.35
749.296	1687.01
749.481	1699.3
749.665	1627.62
749.85	1715.69
750.034	1678.82
750.219	1742.31
750.404	1660.39
750.588	1623.53
750.773	1654.25
750.957	1648.1
751.141	1654.25
751.326	1611.24
751.51	1562.09
751.695	1586.66
751.879	1615.34
752.064	1578.47
752.248	1506.79
752.432	1519.08
752.617	1568.23
752.801	1512.94
752.985	1525.22
753.17	1394.15
753.354	1330.67
753.538	1529.32
753.722	1408.49
753.907	1486.31
754.091	1441.26
754.275	1431.02
754.459	1490.41
754.643	1299.95
754.828	1353.2
755.012	1342.96
755.196	1326.57
755.38	1353.2
755.564	1486.31
755.748	1328.62
755.932	1367.53
756.116	1406.44
756.3	1334.76
756.484	1285.61
756.668	1377.77
756.852	1279.47
757.036	1342.96
757.22	1168.88
757.404	1234.41
757.588	1263.08
757.772	1175.02
757.956	1242.61
758.14	1281.52
758.323	1254.89
758.507	1187.31
758.691	1244.65
758.875	1156.59
759.059	1218.03
759.242	1117.68
759.426	1175.02
759.61	1187.31
759.794	1183.21
759.977	1121.77
760.161	1275.37
760.345	1203.69
760.528	1156.59
760.712	1175.02
760.895	1136.11
761.079	1058.29
761.263	1089.01
761.446	1129.97
761.63	1117.68
761.813	1101.3
761.997	1146.35
762.18	1027.57
762.364	1129.97
762.547	1093.1
762.731	1046
762.914	1097.2
763.098	1080.82
763.281	955.89
763.464	1019.38
763.648	1002.99
763.831	1023.47
764.015	1052.14
764.198	1035.76
764.381	1041.9
764.564	986.61
764.748	998.9
764.931	1015.28
765.114	978.42
765.297	1027.57
765.481	998.9
765.664	1011.18
765.847	916.98
766.03	1005.04
766.213	1015.28
766.397	1015.28
766.58	910.83
766.763	914.93
766.946	1002.99
767.129	910.83
767.312	914.93
767.495	984.56
767.678	925.17
767.861	943.6
768.044	859.63
768.227	906.74
768.41	900.59
768.593	1013.23
768.776	927.22
768.959	869.87
769.142	871.92
769.324	867.83
769.507	896.5
769.69	914.93
769.873	857.59
770.056	914.93
770.239	933.36
770.421	890.35
770.604	845.3
770.787	867.83
770.97	851.44
771.152	732.66
771.335	957.94
771.518	841.2
771.7	843.25
771.883	849.4
772.066	855.54
772.248	847.35
772.431	777.72
772.613	785.91
772.796	796.15
772.978	896.5
773.161	871.92
773.343	763.38
773.526	779.76
773.708	722.42
773.891	738.8
774.073	783.86
774.256	828.92
774.438	724.47
774.621	753.14
774.803	720.37
774.985	685.56
775.168	755.19
775.35	675.32
775.532	706.04
775.715	732.66
775.897	660.98
776.079	759.28
776.261	644.6
776.444	714.23
776.626	728.56
776.808	720.37
776.99	609.78
777.173	599.54
777.355	703.99
777.537	679.41
777.719	658.93
777.901	669.17
778.083	634.36
778.265	615.93
778.447	609.78
778.629	648.69
778.811	628.21
778.993	603.64
779.175	634.36
779.357	560.63
779.539	599.54
779.721	650.74
779.903	593.4
780.085	546.3
780.267	587.26
780.449	570.87
780.631	679.41
780.812	570.87
780.994	601.59
781.176	599.54
781.358	634.36
781.54	540.15
781.721	607.73
781.903	568.82
782.085	511.48
782.267	562.68
782.448	460.28
782.63	464.38
782.812	536.06
782.993	505.34
783.175	499.19
783.357	441.85
783.538	499.19
783.72	519.67
783.901	515.58
784.083	480.76
784.264	450.04
784.446	509.43
784.627	411.13
784.809	560.63
784.99	493.05
785.172	421.37
785.353	429.56
785.535	534.01
785.716	464.38
785.897	431.61
786.079	460.28
786.26	447.99
786.441	468.47
786.623	454.14
786.804	411.13
786.985	536.06
787.167	402.94
787.348	386.55
787.529	472.57
787.71	433.66
787.891	450.04
788.073	372.22
788.254	468.47
788.435	409.08
788.616	488.95
788.797	333.31
788.978	478.71
789.159	325.12
789.34	378.36
789.522	396.79
789.703	325.12
789.884	366.07
790.065	423.42
790.246	323.07
790.427	443.9
790.607	361.98
790.788	353.79
790.969	433.66
791.15	329.21
791.331	392.7
791.512	351.74
791.693	386.55
791.874	355.83
792.054	314.88
792.235	382.46
792.416	304.64
792.597	355.83
792.778	396.79
792.958	278.01
793.139	306.68
793.32	394.75
793.5	312.83
793.681	359.93
793.862	337.4
794.042	386.55
794.223	306.68
794.404	284.16
794.584	247.29
794.765	263.68
794.945	318.97
795.126	288.25
795.306	310.78
795.487	263.68
795.667	267.77
795.848	333.31
796.028	308.73
796.209	368.12
796.389	302.59
796.57	235
796.75	204.28
796.93	284.16
797.111	241.15
797.291	292.35
797.471	282.11
797.652	331.26
797.832	282.11
798.012	259.58
798.192	216.57
798.373	269.82
798.553	290.3
798.733	267.77
798.913	243.2
799.093	239.1
799.274	228.86
799.454	194.05
799.634	325.12
799.814	404.99
799.994	284.16
800.174	243.2
800.354	226.81
800.534	235
800.714	263.68
800.894	185.85
801.074	292.35
801.254	235
801.434	232.96
801.614	206.33
801.794	249.34
801.974	648.69
802.154	245.24
802.334	269.82
802.514	196.09
802.693	243.2
802.873	228.86
803.053	253.44
803.233	228.86
803.413	247.29
803.592	187.9
803.772	220.67
803.952	241.15
804.131	173.57
804.311	263.68
804.491	327.16
804.67	175.61
804.85	218.62
805.03	282.11
805.209	255.48
805.389	216.57
805.568	235
805.748	218.62
805.928	261.63
806.107	243.2
806.287	243.2
806.466	173.57
806.646	202.24
806.825	181.76
807.004	232.96
807.184	247.29
807.363	196.09
807.543	148.99
807.722	200.19
807.901	253.44
808.081	275.96
808.26	136.7
808.439	212.48
808.619	224.76
808.798	189.95
808.977	175.61
809.156	232.96
809.336	185.85
809.515	175.61
809.694	153.09
809.873	183.81
810.052	148.99
810.231	200.19
810.411	181.76
810.59	206.33
810.769	128.51
810.948	192
811.127	173.57
811.306	200.19
811.485	200.19
811.664	204.28
811.843	159.23
812.022	118.27
812.201	189.95
812.38	155.13
812.559	136.7
812.737	189.95
812.916	83.45
813.095	144.89
813.274	198.14
813.453	187.9
813.632	155.13
813.811	159.23
813.989	83.45
814.168	110.08
814.347	204.28
814.526	132.61
814.704	130.56
814.883	202.24
815.062	169.47
815.24	163.33
815.419	118.27
815.598	112.13
815.776	38.4
815.955	148.99
816.133	200.19
816.312	99.84
816.49	65.02
816.669	161.28
816.847	122.37
817.026	173.57
817.204	153.09
817.383	122.37
817.561	99.84
817.74	179.71
817.918	206.33
818.097	177.66
818.275	142.85
818.453	79.36
818.632	148.99
818.81	97.79
818.988	91.65
819.167	155.13
819.345	99.84
819.523	52.74
819.701	177.66
819.879	136.7
820.058	148.99
820.236	173.57
820.414	148.99
820.592	134.65
820.77	62.98
820.948	130.56
821.127	118.27
821.305	189.95
821.483	120.32
821.661	140.8
821.839	151.04
822.017	136.7
822.195	132.61
822.373	153.09
822.551	122.37
822.729	148.99
822.907	163.33
823.085	146.94
823.262	101.89
823.44	79.36
823.618	103.93
823.796	108.03
823.974	196.09
824.152	120.32
824.329	108.03
824.507	151.04
824.685	101.89
824.863	118.27
825.04	159.23
825.218	151.04
825.396	136.7
825.574	144.89
825.751	40.45
825.929	165.37
826.107	142.85
826.284	171.52
826.462	67.07
826.639	91.65
826.817	105.98
826.994	87.55
827.172	65.02
827.349	181.76
827.527	97.79
827.704	95.74
827.882	144.89
828.059	103.93
828.237	46.59
828.414	157.18
828.591	77.31
828.769	99.84
828.946	56.83
829.124	122.37
829.301	122.37
829.478	108.03
829.655	167.42
829.833	87.55
830.01	17.92
830.187	97.79
830.364	87.55
830.542	101.89
830.719	87.55
830.896	95.74
831.073	134.65
831.25	93.69
831.427	157.18
831.604	155.13
831.782	50.69
831.959	97.79
832.136	71.17
832.313	128.51
832.49	65.02
832.667	89.6
832.844	50.69
833.021	163.33
833.198	110.08
833.374	40.45
833.551	77.31
833.728	62.98
833.905	112.13
834.082	15.87
834.259	110.08
834.436	144.89
834.612	56.83
834.789	69.12
834.966	69.12
835.143	40.45
835.319	79.36
835.496	140.8
835.673	77.31
835.85	71.17
836.026	54.78
836.203	50.69
836.38	81.41
836.556	67.07
836.733	128.51
836.909	146.94
837.086	15.87
837.262	56.83
837.439	67.07
837.616	69.12
837.792	122.37
837.968	99.84
838.145	83.45
838.321	46.59
838.498	120.32
838.674	103.93
838.851	46.59
839.027	79.36
839.203	112.13
839.38	36.35
839.556	48.64
839.732	140.8
839.909	40.45
840.085	128.51
840.261	91.65
840.437	73.21
840.614	52.74
840.79	116.22
840.966	95.74
841.142	101.89
841.318	44.54
841.494	95.74
841.671	62.98
841.847	-12.8
842.023	44.54
842.199	148.99
842.375	114.17
842.551	52.74
842.727	97.79
842.903	38.4
843.079	-29.18
843.255	91.65
843.431	105.98
843.607	79.36
843.783	101.89
843.959	44.54
844.134	89.6
844.31	15.87
844.486	44.54
844.662	89.6
844.838	99.84
845.013	93.69
845.189	11.78
845.365	54.78
845.541	65.02
845.716	110.08
845.892	65.02
846.068	112.13
846.244	58.88
846.419	69.12
846.595	-4.61
846.77	60.93
846.946	108.03
847.122	77.31
847.297	48.64
847.473	40.45
847.648	36.35
847.824	46.59
847.999	-2.56
848.175	52.74
848.35	34.3
848.526	165.37
848.701	50.69
848.876	83.45
849.052	65.02
849.227	58.88
849.403	34.3
849.578	42.5
849.753	73.21
849.929	67.07
850.104	-25.09
850.279	65.02
850.454	28.16
850.63	130.56
850.805	62.98
850.98	112.13
851.155	62.98
851.33	138.75
851.505	85.5
851.681	52.74
851.856	42.5
852.031	36.35
852.206	17.92
852.381	71.17
852.556	118.27
852.731	157.18
852.906	71.17
853.081	56.83
853.256	105.98
853.431	77.31
853.606	81.41
853.781	79.36
853.956	-6.66
854.131	-0.51
854.305	54.78
854.48	38.4
854.655	71.17
854.83	58.88
855.005	32.26
855.18	69.12
855.354	48.64
855.529	-35.33
855.704	36.35
855.879	105.98
856.053	112.13
856.228	48.64
856.403	58.88
856.577	71.17
856.752	15.87
856.926	26.11
857.101	58.88
857.276	15.87
857.45	15.87
857.625	-57.86
857.799	108.03
857.974	108.03
858.148	-16.9
858.323	32.26
858.497	28.16
858.672	15.87
858.846	26.11
859.02	140.8
859.195	19.97
859.369	52.74
859.543	44.54
859.718	30.21
859.892	56.83
860.066	69.12
860.241	-37.38
860.415	26.11
860.589	38.4
860.763	110.08
860.938	22.02
861.112	83.45
861.286	-76.29
861.46	-4.61
861.634	118.27
861.808	140.8
861.982	19.97
862.157	3.58
862.331	52.74
862.505	50.69
862.679	44.54
862.853	116.22
863.027	60.93
863.201	44.54
863.375	15.87
863.549	28.16
863.722	46.59
863.896	19.97
864.07	44.54
864.244	75.26
864.418	22.02
864.592	42.5
864.766	71.17
864.939	-27.14
865.113	48.64
865.287	30.21
865.461	40.45
865.634	38.4
865.808	-8.7
865.982	-6.66
866.156	-18.94
866.329	75.26
866.503	13.82
866.676	28.16
866.85	5.63
867.024	30.21
867.197	13.82
867.371	116.22
867.544	7.68
867.718	56.83
867.891	93.69
868.065	50.69
868.238	79.36
868.412	30.21
868.585	40.45
868.759	9.73
868.932	-16.9
869.105	95.74
869.279	54.78
869.452	62.98
869.625	42.5
869.799	5.63
869.972	-18.94
870.145	13.82
870.319	34.3
870.492	71.17
870.665	34.3
870.838	58.88
871.011	13.82
871.185	71.17
871.358	50.69
871.531	65.02
871.704	-41.47
871.877	22.02
872.05	79.36
872.223	-29.18
872.396	67.07
872.569	54.78
872.742	75.26
872.915	48.64
873.088	3.58
873.261	9.73
873.434	40.45
873.607	52.74
873.78	22.02
873.953	69.12
874.126	56.83
874.299	32.26
874.471	19.97
874.644	62.98
874.817	24.06
874.99	19.97
875.163	52.74
875.335	42.5
875.508	9.73
875.681	65.02
875.853	-18.94
876.026	7.68
876.199	60.93
876.371	22.02
876.544	79.36
876.717	-47.62
876.889	11.78
877.062	22.02
877.234	19.97
877.407	28.16
877.579	95.74
877.752	3.58
877.924	30.21
878.097	36.35
878.269	75.26
878.442	91.65
878.614	34.3
878.786	-6.66
878.959	-4.61
879.131	108.03
879.303	-23.04
879.476	52.74
879.648	54.78
879.82	9.73
879.993	13.82
880.165	138.75
880.337	13.82
880.509	3.58
880.681	40.45
880.854	52.74
881.026	-20.99
881.198	132.61
881.37	-25.09
881.542	-6.66
881.714	15.87
881.886	52.74
882.058	3.58
882.23	28.16
882.402	-35.33
882.574	30.21
882.746	-10.75
882.918	54.78
883.09	60.93
883.262	22.02
883.434	91.65
883.606	50.69
883.778	56.83
883.95	38.4
884.122	15.87
884.293	19.97
884.465	-29.18
884.637	112.13
884.809	5.63
884.98	19.97
885.152	32.26
885.324	36.35
885.496	1.54
885.667	42.5
885.839	-43.52
886.011	50.69
886.182	132.61
886.354	75.26
886.525	67.07
886.697	38.4
886.869	48.64
887.04	65.02
887.212	69.12
887.383	95.74
887.555	60.93
887.726	-12.8
887.897	-12.8
888.069	52.74
888.24	52.74
888.412	15.87
888.583	56.83
888.754	44.54
888.926	-55.81
889.097	28.16
889.268	-4.61
889.44	-27.14
889.611	48.64
889.782	-29.18
889.953	38.4
890.125	30.21
890.296	-31.23
890.467	11.78
890.638	81.41
890.809	-4.61
890.98	5.63
891.151	9.73
891.323	22.02
891.494	56.83
891.665	-55.81
891.836	52.74
892.007	-10.75
892.178	3.58
892.349	83.45
892.52	-2.56
892.691	50.69
892.862	24.06
893.032	-23.04
893.203	1.54
893.374	-14.85
893.545	11.78
893.716	65.02
893.887	44.54
894.057	28.16
894.228	3.58
894.399	-8.7
894.57	69.12
894.74	60.93
894.911	38.4
895.082	46.59
895.253	9.73
895.423	65.02
895.594	67.07
895.764	17.92
895.935	44.54
896.106	81.41
896.276	-4.61
896.447	7.68
896.617	17.92
896.788	-61.95
896.958	5.63
897.129	28.16
897.299	62.98
897.47	79.36
897.64	81.41
897.81	128.51
897.981	34.3
898.151	-4.61
898.322	24.06
898.492	-39.42
898.662	1.54
898.832	1.54
899.003	44.54
899.173	-47.62
899.343	28.16
899.513	7.68
