Data from USB4F104151__90__12-02-32-304.txt Node

Date: Fri Mar 14 12:02:32 EDT 2025
User: louis
Spectrometer: USB4F10415
Trigger mode: 4
Integration Time (sec): 2.000000E-2
Scans to average: 1
Electric dark correction enabled: true
Nonlinearity correction enabled: false
Boxcar width: 0
XAxis mode: Wavelengths
Number of Pixels in Spectrum: 3648
>>>>>Begin Spectral Data<<<<<
178.204	-41.64
178.424	-41.64
178.644	-41.64
178.864	-113.32
179.084	-115.37
179.304	-31.4
179.524	-10.92
179.744	11.61
179.964	66.9
180.184	-23.21
180.404	-39.59
180.624	-51.88
180.844	114
181.064	-47.79
181.283	-2.73
181.503	56.66
181.723	-41.64
181.943	-58.03
182.163	105.81
182.383	36.18
182.602	38.23
182.822	68.95
183.042	46.42
183.262	9.56
183.482	-4.78
183.701	34.13
183.921	15.7
184.141	77.14
184.361	-15.02
184.58	25.94
184.8	36.18
185.02	27.99
185.239	-15.02
185.459	-55.98
185.679	-12.97
185.898	-35.5
186.118	19.8
186.338	60.76
186.557	5.46
186.777	-49.83
186.997	21.85
187.216	44.37
187.436	73.04
187.655	62.8
187.875	21.85
188.095	21.85
188.314	68.95
188.534	56.66
188.753	3.41
188.973	85.33
189.192	25.94
189.412	101.72
189.631	5.46
189.851	25.94
190.07	-10.92
190.29	-41.64
190.509	27.99
190.729	-51.88
190.948	89.43
191.168	77.14
191.387	23.89
191.607	15.7
191.826	3.41
192.045	-19.11
192.265	-8.87
192.484	89.43
192.704	3.41
192.923	-35.5
193.142	126.29
193.362	36.18
193.581	15.7
193.8	77.14
194.02	-37.55
194.239	30.04
194.458	-55.98
194.678	32.08
194.897	9.56
195.116	27.99
195.335	111.96
195.555	19.8
195.774	25.94
195.993	1.37
196.212	50.52
196.432	9.56
196.651	27.99
196.87	23.89
197.089	44.37
197.308	30.04
197.528	62.8
197.747	27.99
197.966	52.56
198.185	50.52
198.404	71
198.623	11.61
198.842	71
199.062	-19.11
199.281	93.52
199.5	34.13
199.719	111.96
199.938	7.51
200.157	58.71
200.376	38.23
200.595	77.14
200.814	30.04
201.033	36.18
201.252	58.71
201.471	62.8
201.69	44.37
201.909	46.42
202.128	66.9
202.347	23.89
202.566	60.76
202.785	-0.68
203.004	-74.41
203.223	5.46
203.442	114
203.661	17.75
203.879	36.18
204.098	101.72
204.317	-43.69
204.536	44.37
204.755	120.15
204.974	11.61
205.193	50.52
205.411	66.9
205.63	-12.97
205.849	-29.35
206.068	46.42
206.287	36.18
206.505	13.65
206.724	-31.4
206.943	-60.07
207.162	-17.07
207.381	85.33
207.599	58.71
207.818	9.56
208.037	13.65
208.255	64.85
208.474	91.48
208.693	-21.16
208.911	38.23
209.13	44.37
209.349	56.66
209.567	50.52
209.786	38.23
210.005	71
210.223	19.8
210.442	5.46
210.661	71
210.879	42.32
211.098	19.8
211.316	66.9
211.535	30.04
211.753	5.46
211.972	5.46
212.191	81.24
212.409	58.71
212.628	56.66
212.846	85.33
213.065	7.51
213.283	132.44
213.502	56.66
213.72	23.89
213.938	-8.87
214.157	34.13
214.375	-23.21
214.594	46.42
214.812	52.56
215.031	5.46
215.249	-37.55
215.467	54.61
215.686	-47.79
215.904	99.67
216.122	-8.87
216.341	27.99
216.559	23.89
216.778	-31.4
216.996	56.66
217.214	11.61
217.432	-53.93
217.651	-55.98
217.869	7.51
218.087	9.56
218.306	56.66
218.524	-0.68
218.742	27.99
218.96	-27.31
219.179	9.56
219.397	58.71
219.615	-0.68
219.833	128.34
220.051	101.72
220.27	21.85
220.488	9.56
220.706	60.76
220.924	21.85
221.142	7.51
221.36	1.37
221.578	7.51
221.796	48.47
222.015	34.13
222.233	11.61
222.451	-12.97
222.669	-21.16
222.887	44.37
223.105	-23.21
223.323	30.04
223.541	13.65
223.759	34.13
223.977	66.9
224.195	32.08
224.413	-33.45
224.631	38.23
224.849	62.8
225.067	23.89
225.285	-2.73
225.503	-53.93
225.721	-25.26
225.939	-33.45
226.157	81.24
226.375	103.76
226.592	52.56
226.81	21.85
227.028	7.51
227.246	85.33
227.464	42.32
227.682	23.89
227.9	-6.83
228.117	3.41
228.335	3.41
228.553	-8.87
228.771	68.95
228.989	101.72
229.206	48.47
229.424	48.47
229.642	50.52
229.86	-27.31
230.077	71
230.295	48.47
230.513	75.09
230.731	15.7
230.948	89.43
231.166	44.37
231.384	64.85
231.601	-19.11
231.819	34.13
232.037	46.42
232.254	13.65
232.472	-2.73
232.689	66.9
232.907	38.23
233.125	116.05
233.342	13.65
233.56	27.99
233.777	-41.64
233.995	-27.31
234.213	27.99
234.43	15.7
234.648	34.13
234.865	-6.83
235.083	52.56
235.3	73.04
235.518	34.13
235.735	-45.74
235.953	68.95
236.17	42.32
236.388	19.8
236.605	-33.45
236.822	-2.73
237.04	75.09
237.257	25.94
237.475	-29.35
237.692	3.41
237.909	13.65
238.127	62.8
238.344	46.42
238.562	13.65
238.779	-49.83
238.996	-15.02
239.214	46.42
239.431	30.04
239.648	-6.83
239.865	81.24
240.083	-4.78
240.3	44.37
240.517	-15.02
240.735	3.41
240.952	58.71
241.169	75.09
241.386	-12.97
241.603	56.66
241.821	3.41
242.038	1.37
242.255	-4.78
242.472	-19.11
242.689	46.42
242.907	46.42
243.124	21.85
243.341	77.14
243.558	-21.16
243.775	-12.97
243.992	-53.93
244.209	19.8
244.426	56.66
244.643	46.42
244.86	-17.07
245.078	46.42
245.295	9.56
245.512	40.28
245.729	27.99
245.946	50.52
246.163	3.41
246.38	64.85
246.597	23.89
246.814	7.51
247.031	-27.31
247.248	11.61
247.464	-6.83
247.681	-27.31
247.898	42.32
248.115	46.42
248.332	-2.73
248.549	38.23
248.766	30.04
248.983	77.14
249.2	23.89
249.417	15.7
249.633	38.23
249.85	-6.83
250.067	1.37
250.284	46.42
250.501	5.46
250.717	15.7
250.934	44.37
251.151	95.57
251.368	52.56
251.585	21.85
251.801	27.99
252.018	68.95
252.235	3.41
252.451	1.37
252.668	38.23
252.885	32.08
253.102	48.47
253.318	79.19
253.535	81.24
253.752	-10.92
253.968	-41.64
254.185	68.95
254.401	62.8
254.618	5.46
254.835	58.71
255.051	46.42
255.268	44.37
255.484	89.43
255.701	32.08
255.917	36.18
256.134	-60.07
256.351	-12.97
256.567	3.41
256.784	66.9
257	-27.31
257.217	50.52
257.433	32.08
257.65	46.42
257.866	19.8
258.082	1.37
258.299	-6.83
258.515	27.99
258.732	1.37
258.948	11.61
259.165	48.47
259.381	5.46
259.597	58.71
259.814	-19.11
260.03	54.61
260.246	111.96
260.463	111.96
260.679	34.13
260.895	25.94
261.112	56.66
261.328	3.41
261.544	-47.79
261.761	81.24
261.977	27.99
262.193	30.04
262.409	105.81
262.626	-41.64
262.842	9.56
263.058	23.89
263.274	9.56
263.49	-27.31
263.707	5.46
263.923	-2.73
264.139	-103.08
264.355	19.8
264.571	48.47
264.787	52.56
265.004	64.85
265.22	62.8
265.436	40.28
265.652	32.08
265.868	42.32
266.084	-25.26
266.3	1.37
266.516	-23.21
266.732	105.81
266.948	17.75
267.164	91.48
267.38	13.65
267.596	62.8
267.812	66.9
268.028	36.18
268.244	38.23
268.46	58.71
268.676	-6.83
268.892	58.71
269.108	-49.83
269.324	19.8
269.54	11.61
269.756	44.37
269.972	54.61
270.188	114
270.403	11.61
270.619	-10.92
270.835	32.08
271.051	77.14
271.267	42.32
271.483	-15.02
271.698	32.08
271.914	3.41
272.13	44.37
272.346	56.66
272.562	34.13
272.777	95.57
272.993	-17.07
273.209	3.41
273.425	48.47
273.64	44.37
273.856	66.9
274.072	-23.21
274.287	15.7
274.503	52.56
274.719	-10.92
274.934	93.52
275.15	-27.31
275.366	71
275.581	126.29
275.797	44.37
276.012	58.71
276.228	46.42
276.444	25.94
276.659	62.8
276.875	-10.92
277.09	85.33
277.306	46.42
277.521	56.66
277.737	-33.45
277.952	32.08
278.168	62.8
278.383	-31.4
278.599	7.51
278.814	30.04
279.03	60.76
279.245	136.53
279.461	109.91
279.676	89.43
279.892	23.89
280.107	-2.73
280.322	42.32
280.538	34.13
280.753	85.33
280.969	66.9
281.184	58.71
281.399	144.72
281.615	-2.73
281.83	83.28
282.045	7.51
282.26	66.9
282.476	13.65
282.691	114
282.906	-15.02
283.122	36.18
283.337	89.43
283.552	60.76
283.767	25.94
283.983	27.99
284.198	50.52
284.413	-0.68
284.628	15.7
284.843	62.8
285.058	54.61
285.274	42.32
285.489	46.42
285.704	52.56
285.919	21.85
286.134	34.13
286.349	58.71
286.564	-0.68
286.779	15.7
286.995	40.28
287.21	-49.83
287.425	48.47
287.64	21.85
287.855	1.37
288.07	62.8
288.285	81.24
288.5	52.56
288.715	3.41
288.93	17.75
289.145	19.8
289.36	52.56
289.575	81.24
289.79	15.7
290.004	32.08
290.219	46.42
290.434	-37.55
290.649	97.62
290.864	81.24
291.079	23.89
291.294	27.99
291.509	9.56
291.724	-47.79
291.938	13.65
292.153	46.42
292.368	54.61
292.583	11.61
292.798	46.42
293.012	77.14
293.227	15.7
293.442	91.48
293.657	-10.92
293.871	36.18
294.086	40.28
294.301	-0.68
294.516	36.18
294.73	7.51
294.945	23.89
295.16	79.19
295.374	34.13
295.589	42.32
295.804	32.08
296.018	5.46
296.233	44.37
296.447	85.33
296.662	62.8
296.877	11.61
297.091	-21.16
297.306	23.89
297.52	64.85
297.735	-62.12
297.949	34.13
298.164	73.04
298.378	-23.21
298.593	48.47
298.807	105.81
299.022	64.85
299.236	101.72
299.451	-58.03
299.665	83.28
299.88	103.76
300.094	38.23
300.309	-27.31
300.523	54.61
300.737	44.37
300.952	89.43
301.166	-15.02
301.381	19.8
301.595	62.8
301.809	118.1
302.024	-6.83
302.238	-39.59
302.452	23.89
302.667	56.66
302.881	34.13
303.095	44.37
303.309	40.28
303.524	46.42
303.738	-4.78
303.952	71
304.166	13.65
304.381	-58.03
304.595	144.72
304.809	36.18
305.023	56.66
305.237	9.56
305.452	50.52
305.666	54.61
305.88	97.62
306.094	13.65
306.308	-35.5
306.522	87.38
306.736	75.09
306.95	42.32
307.164	79.19
307.379	50.52
307.593	56.66
307.807	21.85
308.021	15.7
308.235	48.47
308.449	1.37
308.663	11.61
308.877	-37.55
309.091	27.99
309.305	30.04
309.519	15.7
309.733	75.09
309.947	71
310.161	56.66
310.374	1.37
310.588	62.8
310.802	-8.87
311.016	7.51
311.23	19.8
311.444	46.42
311.658	7.51
311.872	27.99
312.085	52.56
312.299	58.71
312.513	42.32
312.727	97.62
312.941	5.46
313.154	128.34
313.368	38.23
313.582	23.89
313.796	23.89
314.009	34.13
314.223	13.65
314.437	75.09
314.651	50.52
314.864	38.23
315.078	64.85
315.292	66.9
315.505	-0.68
315.719	118.1
315.933	68.95
316.146	58.71
316.36	27.99
316.573	116.05
316.787	50.52
317.001	13.65
317.214	7.51
317.428	19.8
317.641	34.13
317.855	116.05
318.068	46.42
318.282	-25.26
318.495	128.34
318.709	23.89
318.922	1.37
319.136	75.09
319.349	40.28
319.563	101.72
319.776	13.65
319.99	73.04
320.203	36.18
320.417	27.99
320.63	66.9
320.843	64.85
321.057	40.28
321.27	36.18
321.483	42.32
321.697	52.56
321.91	25.94
322.124	40.28
322.337	27.99
322.55	126.29
322.763	73.04
322.977	50.52
323.19	62.8
323.403	71
323.617	71
323.83	36.18
324.043	15.7
324.256	52.56
324.469	17.75
324.683	25.94
324.896	-31.4
325.109	79.19
325.322	-4.78
325.535	73.04
325.748	71
325.962	44.37
326.175	89.43
326.388	27.99
326.601	-4.78
326.814	-8.87
327.027	60.76
327.24	56.66
327.453	44.37
327.666	66.9
327.879	161.11
328.092	81.24
328.305	30.04
328.518	25.94
328.731	79.19
328.944	87.38
329.157	136.53
329.37	71
329.583	79.19
329.796	77.14
330.009	34.13
330.222	17.75
330.435	5.46
330.648	62.8
330.861	56.66
331.073	54.61
331.286	13.65
331.499	48.47
331.712	3.41
331.925	30.04
332.138	32.08
332.35	34.13
332.563	-21.16
332.776	64.85
332.989	54.61
333.202	40.28
333.414	132.44
333.627	66.9
333.84	-0.68
334.053	79.19
334.265	34.13
334.478	-19.11
334.691	-23.21
334.903	-4.78
335.116	89.43
335.329	13.65
335.541	111.96
335.754	169.3
335.966	75.09
336.179	42.32
336.392	1.37
336.604	3.41
336.817	54.61
337.029	101.72
337.242	23.89
337.454	23.89
337.667	42.32
337.88	-27.31
338.092	30.04
338.305	50.52
338.517	38.23
338.729	126.29
338.942	30.04
339.154	42.32
339.367	34.13
339.579	62.8
339.792	56.66
340.004	44.37
340.217	11.61
340.429	79.19
340.641	-33.45
340.854	71
341.066	66.9
341.278	50.52
341.491	7.51
341.703	38.23
341.915	73.04
342.128	46.42
342.34	23.89
342.552	7.51
342.764	1.37
342.977	1.37
343.189	-12.97
343.401	30.04
343.613	52.56
343.826	54.61
344.038	-12.97
344.25	9.56
344.462	19.8
344.674	25.94
344.886	46.42
345.099	52.56
345.311	111.96
345.523	93.52
345.735	-4.78
345.947	46.42
346.159	71
346.371	-2.73
346.583	25.94
346.795	103.76
347.007	58.71
347.219	50.52
347.431	-72.36
347.643	95.57
347.855	62.8
348.067	73.04
348.279	87.38
348.491	27.99
348.703	-0.68
348.915	79.19
349.127	13.65
349.339	17.75
349.551	52.56
349.763	7.51
349.975	38.23
350.187	23.89
350.399	126.29
350.61	60.76
350.822	-15.02
351.034	46.42
351.246	11.61
351.458	75.09
351.669	107.86
351.881	38.23
352.093	25.94
352.305	89.43
352.517	50.52
352.728	21.85
352.94	66.9
353.152	71
353.363	-6.83
353.575	58.71
353.787	66.9
353.999	73.04
354.21	42.32
354.422	36.18
354.633	54.61
354.845	32.08
355.057	36.18
355.268	64.85
355.48	71
355.692	-2.73
355.903	-4.78
356.115	40.28
356.326	91.48
356.538	109.91
356.749	66.9
356.961	40.28
357.172	114
357.384	36.18
357.595	54.61
357.807	-8.87
358.018	87.38
358.23	15.7
358.441	124.24
358.653	111.96
358.864	52.56
359.075	75.09
359.287	64.85
359.498	75.09
359.709	103.76
359.921	77.14
360.132	68.95
360.344	19.8
360.555	-15.02
360.766	114
360.977	3.41
361.189	79.19
361.4	114
361.611	73.04
361.823	5.46
362.034	71
362.245	58.71
362.456	95.57
362.667	64.85
362.879	30.04
363.09	19.8
363.301	27.99
363.512	89.43
363.723	54.61
363.935	19.8
364.146	66.9
364.357	58.71
364.568	42.32
364.779	27.99
364.99	159.06
365.201	81.24
365.412	23.89
365.623	36.18
365.834	97.62
366.045	-6.83
366.256	93.52
366.467	116.05
366.678	34.13
366.889	64.85
367.1	68.95
367.311	23.89
367.522	79.19
367.733	46.42
367.944	38.23
368.155	105.81
368.366	73.04
368.577	81.24
368.788	30.04
368.999	62.8
369.209	30.04
369.42	38.23
369.631	64.85
369.842	103.76
370.053	58.71
370.264	122.2
370.474	19.8
370.685	91.48
370.896	68.95
371.107	97.62
371.317	38.23
371.528	34.13
371.739	142.68
371.95	30.04
372.16	62.8
372.371	130.39
372.582	89.43
372.792	66.9
373.003	85.33
373.214	56.66
373.424	54.61
373.635	99.67
373.846	91.48
374.056	9.56
374.267	75.09
374.477	-4.78
374.688	17.75
374.898	64.85
375.109	52.56
375.319	48.47
375.53	64.85
375.74	71
375.951	73.04
376.161	30.04
376.372	38.23
376.582	44.37
376.793	77.14
377.003	-0.68
377.214	23.89
377.424	83.28
377.635	79.19
377.845	85.33
378.055	91.48
378.266	64.85
378.476	81.24
378.686	54.61
378.897	71
379.107	105.81
379.317	73.04
379.528	17.75
379.738	105.81
379.948	40.28
380.158	34.13
380.369	46.42
380.579	46.42
380.789	-10.92
380.999	97.62
381.21	34.13
381.42	111.96
381.63	19.8
381.84	77.14
382.05	44.37
382.261	130.39
382.471	122.2
382.681	21.85
382.891	62.8
383.101	58.71
383.311	1.37
383.521	34.13
383.731	114
383.941	79.19
384.151	56.66
384.361	36.18
384.571	73.04
384.781	124.24
384.991	89.43
385.201	13.65
385.411	95.57
385.621	83.28
385.831	105.81
386.041	48.47
386.251	81.24
386.461	62.8
386.671	9.56
386.881	62.8
387.091	75.09
387.301	83.28
387.511	36.18
387.72	89.43
387.93	13.65
388.14	75.09
388.35	48.47
388.56	64.85
388.769	32.08
388.979	73.04
389.189	25.94
389.399	21.85
389.609	107.86
389.818	27.99
390.028	13.65
390.238	30.04
390.447	99.67
390.657	73.04
390.867	52.56
391.076	91.48
391.286	111.96
391.496	62.8
391.705	109.91
391.915	91.48
392.125	140.63
392.334	44.37
392.544	83.28
392.753	46.42
392.963	73.04
393.172	83.28
393.382	66.9
393.591	25.94
393.801	89.43
394.01	56.66
394.22	130.39
394.429	64.85
394.639	107.86
394.848	66.9
395.058	132.44
395.267	93.52
395.477	105.81
395.686	103.76
395.895	136.53
396.105	116.05
396.314	91.48
396.524	105.81
396.733	34.13
396.942	122.2
397.152	81.24
397.361	71
397.57	120.15
397.78	177.49
397.989	138.58
398.198	193.87
398.407	25.94
398.617	154.96
398.826	144.72
399.035	120.15
399.244	85.33
399.453	103.76
399.663	71
399.872	197.97
400.081	64.85
400.29	101.72
400.499	50.52
400.708	165.2
400.917	114
401.127	173.39
401.336	134.48
401.545	232.79
401.754	189.78
401.963	99.67
402.172	146.77
402.381	146.77
402.59	148.82
402.799	130.39
403.008	95.57
403.217	120.15
403.426	193.87
403.635	202.07
403.844	152.92
404.053	267.6
404.262	154.96
404.471	240.98
404.68	152.92
404.888	146.77
405.097	165.2
405.306	138.58
405.515	226.64
405.724	212.31
405.933	181.59
406.142	210.26
406.35	167.25
406.559	183.63
406.768	189.78
406.977	271.7
407.185	212.31
407.394	259.41
407.603	259.41
407.812	253.27
408.02	329.04
408.229	308.56
408.438	228.69
408.646	240.98
408.855	329.04
409.064	345.42
409.272	320.85
409.481	333.14
409.69	421.2
409.898	367.95
410.107	396.62
410.315	324.94
410.524	443.73
410.733	394.58
410.941	390.48
411.15	472.4
411.358	441.68
411.567	634.19
411.775	503.12
411.984	580.94
412.192	566.6
412.401	515.41
412.609	539.98
412.818	671.05
413.026	619.85
413.234	705.87
413.443	664.91
413.651	720.2
413.86	699.72
414.068	789.83
414.276	791.88
414.485	771.4
414.693	849.22
414.901	904.52
415.11	863.56
415.318	935.24
415.526	939.34
415.734	980.29
415.943	955.72
416.151	1168.71
416.359	1008.97
416.567	1137.99
416.776	1164.61
416.984	1324.35
417.192	1246.53
417.4	1334.59
417.608	1324.35
417.817	1355.07
418.025	1320.26
418.233	1606.97
418.441	1555.77
418.649	1592.64
418.857	1697.08
419.065	1725.76
419.273	1762.62
419.481	1807.67
419.689	1819.96
419.897	1922.36
420.105	2026.81
420.313	2121.01
420.521	2127.16
420.729	2258.23
420.937	2362.67
421.145	2288.95
421.353	2479.41
421.561	2645.29
421.769	2678.06
421.977	2757.93
422.185	2757.93
422.393	2872.62
422.601	3030.31
422.809	3134.76
423.017	3001.64
423.224	3181.86
423.432	3431.71
423.64	3173.67
423.848	3706.14
424.056	3530.02
424.263	3820.83
424.471	3749.15
424.679	4011.29
424.887	4144.41
425.094	4181.27
425.302	4191.51
425.51	4398.35
425.718	4574.48
425.925	4500.75
426.133	4922.63
426.341	5072.14
426.548	5231.88
426.756	5258.5
426.964	5276.93
427.171	5809.4
427.379	5813.5
427.586	5817.6
427.794	6016.25
428.001	6388.98
428.209	6683.89
428.417	6706.41
428.624	6943.98
428.832	7013.61
429.039	7009.51
429.247	6993.13
429.454	7677.15
429.662	8121.56
429.869	7576.8
430.076	8250.58
430.284	7884
430.491	8254.68
430.699	8660.18
430.906	8942.8
431.114	8996.04
431.321	9190.6
431.528	9315.53
431.736	10087.61
431.943	10417.33
432.15	10122.43
432.358	10276.02
432.565	10675.38
432.772	11021.49
432.979	11111.6
433.187	11515.05
433.394	11521.19
433.601	12475.54
433.808	12473.49
434.016	12344.47
434.223	12823.7
434.43	13636.74
434.637	13438.09
434.844	14347.39
435.052	14382.2
435.259	14398.59
435.466	14476.41
435.673	14484.6
435.88	15412.33
436.087	16100.45
436.294	16125.02
436.501	15684.71
436.708	16088.16
436.915	16630.87
437.122	17325.13
437.329	17339.47
437.537	18050.11
437.743	18101.31
437.95	17810.5
438.157	19225.65
438.364	19414.06
438.571	19686.44
438.778	19414.06
438.985	21349.39
439.192	20638.75
439.399	21343.25
439.606	20706.33
439.813	22080.52
440.02	23307.25
440.227	22852.6
440.433	22842.36
440.64	23497.71
440.847	23299.06
441.054	24114.15
441.261	25164.76
441.467	25043.93
441.674	25455.57
441.881	26612.67
442.088	26188.74
442.294	26117.06
442.501	26901.43
442.708	27505.59
442.914	28603.3
443.121	29903.76
443.328	28943.26
443.534	30972.8
443.741	29838.22
443.948	29760.4
444.154	31890.29
444.361	31564.66
444.568	31667.06
444.774	31931.25
444.981	32111.47
445.187	32918.37
445.394	34577.22
445.6	34255.69
445.807	37169.95
446.013	35775.28
446.22	36477.74
446.426	37557.02
446.633	37845.78
446.839	39250.69
447.046	37704.47
447.252	39629.56
447.459	39783.16
447.665	39230.21
447.871	41368.29
448.078	43250.37
448.284	41216.74
448.491	42044.12
448.697	43715.26
448.903	44415.66
449.11	44616.36
449.316	44057.27
449.522	44626.6
449.728	45689.5
449.935	45841.05
450.141	46402.19
450.347	46740.11
450.553	45669.02
450.76	46391.95
450.966	47762.04
451.172	46682.76
451.378	47903.35
451.584	47207.04
451.791	48212.6
451.997	48343.67
452.203	48532.08
452.409	48880.24
452.615	48368.24
452.821	46525.07
453.027	46508.69
453.233	48788.08
453.44	46803.6
453.646	47393.41
453.852	47698.56
454.058	48317.04
454.264	46500.5
454.47	47366.79
454.676	46467.73
454.882	47936.12
455.088	43926.2
455.294	44563.12
455.5	44812.97
455.705	45492.9
455.911	43682.49
456.117	42611.4
456.323	42054.36
456.529	39781.11
456.735	41798.36
456.941	40794.85
457.147	39955.19
457.352	39179.01
457.558	38482.7
457.764	38312.72
457.97	37567.26
458.176	37071.65
458.381	36856.61
458.587	34544.45
458.793	35294.01
458.999	32754.53
459.204	35691.32
459.41	34374.47
459.616	32043.88
459.821	32058.22
460.027	31525.75
460.233	31525.75
460.438	29787.02
460.644	30329.73
460.85	29170.58
461.055	28464.03
461.261	28328.87
461.466	26244.04
461.672	25265.11
461.878	27159.48
462.083	25367.51
462.289	24943.58
462.494	24654.81
462.7	23593.97
462.905	22811.64
463.111	23532.53
463.316	23815.15
463.522	23143.41
463.727	23440.37
463.932	23307.25
464.138	23112.69
464.343	23098.36
464.549	22254.59
464.754	23532.53
464.959	23237.62
465.165	22891.51
465.37	22139.91
465.575	21502.99
465.781	22088.71
465.986	22414.34
466.191	21672.97
466.397	21074.96
466.602	20282.4
466.807	20737.05
467.012	20864.02
467.218	20712.47
467.423	20368.41
467.628	20603.93
467.833	21490.7
468.038	20970.52
468.244	20145.19
468.449	20962.33
468.654	19997.73
468.859	19975.2
469.064	19940.39
469.269	19188.78
469.474	19242.03
469.679	19473.45
469.885	18869.3
470.09	19217.46
470.295	19440.68
470.5	18437.18
470.705	18807.86
470.91	18437.18
471.115	18189.38
471.32	18469.95
471.525	18248.77
471.73	17783.88
471.935	17654.86
472.139	17642.57
472.344	17321.04
472.549	17149.01
472.754	16936.02
472.959	16417.88
473.164	16440.41
473.369	16299.1
473.574	16647.26
473.778	16503.9
473.983	16335.96
474.188	16278.62
474.393	15727.72
474.598	15508.58
474.802	15414.38
475.007	15365.23
475.212	15375.47
475.417	15004.78
475.621	14785.65
475.826	14795.89
476.031	14457.98
476.235	14468.22
476.44	14531.7
476.645	14273.66
476.849	14306.43
477.054	14025.86
477.259	14167.17
477.463	13802.63
477.668	13292.68
477.872	13687.94
478.077	13360.27
478.282	13167.76
478.486	13079.69
478.691	12889.23
478.895	12938.38
479.1	12717.2
479.304	12977.3
479.509	12600.47
479.713	12835.99
479.918	12405.91
480.122	12289.18
480.326	12440.73
480.531	12254.36
480.735	12418.2
480.94	12168.35
481.144	12514.45
481.348	12020.89
481.553	12045.47
481.757	12057.76
481.961	11883.68
482.166	12168.35
482.37	12041.37
482.574	11682.98
482.778	12035.23
482.983	11969.69
483.187	11836.58
483.391	11932.83
483.595	11658.4
483.8	11846.82
484.004	11832.48
484.208	11930.78
484.412	11633.83
484.616	11936.93
484.821	11855.01
485.025	11785.38
485.229	12045.47
485.433	11809.95
485.637	11674.79
485.841	11842.72
486.045	11568.29
486.249	11599.01
486.453	11660.45
486.657	11742.37
486.861	11801.76
487.065	11508.9
487.269	11734.18
487.473	11779.23
487.677	11916.45
487.881	11918.5
488.085	11840.67
488.289	11820.19
488.493	11803.81
488.697	11928.74
488.901	11625.64
489.105	11758.75
489.309	12070.05
489.512	11877.54
489.716	11840.67
489.92	11975.84
490.124	11941.02
490.328	12092.57
490.531	12055.71
490.735	12104.86
490.939	12145.82
491.143	12031.13
491.346	12131.48
491.55	12272.79
491.754	12227.74
491.958	12373.14
492.161	12438.68
492.365	12541.08
492.569	12307.61
492.772	12268.7
492.976	12448.92
493.18	12735.63
493.383	12608.66
493.587	13028.49
493.79	12987.54
493.994	12618.9
494.197	13110.41
494.401	12969.1
494.605	12962.96
494.808	13153.42
495.012	13276.3
495.215	13460.62
495.419	13669.51
495.622	13489.29
495.825	13788.29
496.029	13776
496.232	13900.93
496.436	14185.6
496.639	14394.49
496.843	14097.53
497.046	14355.58
497.249	14603.38
497.453	14658.68
497.656	14736.5
497.859	14763.12
498.063	14828.66
498.266	15375.47
498.469	15299.69
498.673	15375.47
498.876	15719.53
499.079	15963.23
499.282	15723.62
499.485	16165.98
499.689	16307.29
499.892	16481.37
500.095	16628.82
500.298	16665.69
500.501	16759.89
500.705	17243.21
500.908	17472.59
501.111	17445.96
501.314	17570.89
501.517	17992.77
501.72	18256.96
501.923	18029.63
502.126	18422.84
502.329	18992.18
502.532	18830.39
502.735	18721.85
502.938	19201.07
503.141	19213.36
503.344	19651.63
503.547	19684.39
503.75	20145.19
503.953	20438.05
504.156	20165.67
504.359	20667.42
504.562	20732.95
504.765	21193.75
504.968	21183.51
505.17	21505.04
505.373	21509.13
505.576	21933.06
505.779	22113.28
505.982	22293.51
506.185	22772.73
506.387	22825.98
506.59	22975.48
506.793	23456.75
506.996	23403.5
507.198	23907.3
507.401	23985.13
507.604	24423.39
507.807	24560.61
508.009	24787.93
508.212	24683.48
508.415	25029.59
508.617	25469.9
508.82	25834.44
509.022	25574.35
509.225	26399.68
509.428	26461.12
509.63	26416.07
509.833	26340.29
510.035	27175.86
510.238	27188.15
510.44	27288.5
510.643	27945.9
510.845	28373.92
511.048	27966.38
511.25	28480.42
511.453	28550.05
511.655	29563.79
511.858	29100.95
512.06	29367.19
512.262	29850.51
512.465	29944.72
512.667	29993.87
512.87	30624.64
513.072	30608.26
513.274	31411.06
513.477	31667.06
513.679	31935.34
513.881	32009.07
514.084	32582.5
514.286	31994.73
514.488	32410.47
514.69	33424.22
514.893	33446.74
515.095	33614.68
515.297	33880.91
515.499	34079.57
515.701	34528.07
515.904	35038.01
516.106	34995.01
516.308	35081.02
516.51	35578.68
516.712	35629.88
516.914	36307.76
517.116	36604.71
517.318	36571.94
517.52	36956.96
517.722	37215.01
517.925	37497.63
518.127	38210.32
518.329	37907.22
518.531	37919.51
518.733	38365.96
518.935	39078.66
519.136	39013.12
519.338	39516.92
519.54	39418.62
519.742	39942.9
519.944	39918.32
520.146	40917.73
520.348	40753.9
520.55	40913.64
520.752	41183.97
520.954	42027.73
521.155	41589.47
521.357	42062.55
521.559	42255.06
521.761	42996.42
521.963	42562.25
522.164	42859.21
522.366	43027.14
522.568	43516.61
522.77	43651.77
522.971	44309.17
523.173	43739.83
523.375	44159.67
523.576	44581.55
523.778	44395.18
523.98	45398.69
524.181	45093.54
524.383	45058.73
524.584	45716.12
524.786	45619.87
524.988	45857.43
525.189	46355.09
525.391	46566.03
525.592	46416.53
525.794	46826.12
525.995	46811.79
526.197	47411.84
526.398	47501.95
526.6	47440.51
526.801	47604.35
527.003	47737.47
527.204	47731.32
527.406	48319.09
527.607	47876.73
527.808	48362.1
528.01	47417.99
528.211	47831.68
528.412	49005.16
528.614	48648.82
528.815	48380.53
529.016	49017.45
529.218	48685.68
529.419	48992.87
529.62	48837.23
529.822	48855.66
530.023	49015.4
530.224	48896.62
530.425	49285.73
530.626	48624.24
530.828	49103.46
531.029	50276.95
531.23	49023.59
531.431	49222.25
531.632	49216.1
531.833	49375.84
532.035	49283.69
532.236	49259.11
532.437	49588.83
532.638	49298.02
532.839	50006.62
533.04	50004.57
533.241	49177.19
533.442	50027.1
533.643	49582.69
533.844	49367.65
534.045	49455.71
534.246	49273.45
534.447	50012.76
534.648	49451.62
534.849	49789.53
535.05	49648.22
535.251	49615.46
535.451	49334.88
535.652	49599.07
535.853	49132.14
536.054	49728.09
536.255	49769.05
536.456	49138.28
536.657	50096.73
536.857	49001.07
537.058	48806.51
537.259	49445.47
537.46	49637.98
537.66	49752.67
537.861	49531.49
538.062	49406.56
538.263	49377.89
538.463	49066.6
538.664	49070.7
538.865	49658.46
539.065	49756.77
539.266	48925.29
539.466	49945.18
539.667	48958.06
539.868	49633.89
540.068	49027.69
540.269	49240.68
540.469	49314.4
540.67	49060.46
540.87	48974.44
541.071	48843.37
541.271	49218.15
541.472	48898.67
541.672	48906.86
541.873	48835.18
542.073	48646.77
542.274	49648.22
542.474	48695.92
542.675	48796.27
542.875	49306.21
543.075	48929.39
543.276	48362.1
543.476	49461.86
543.676	48702.06
543.877	48943.72
544.077	48970.35
544.277	48736.88
544.478	48593.52
544.678	49130.09
544.878	48417.39
545.078	48384.63
545.279	48306.8
545.479	48198.26
545.679	48601.71
545.879	48487.03
546.079	48444.02
546.28	48167.54
546.48	48286.32
546.68	48667.25
546.88	48280.18
547.08	48282.23
547.28	48405.11
547.48	48120.44
547.68	48210.55
547.88	47958.65
548.081	48095.86
548.281	48308.85
548.481	47991.42
548.681	48642.67
548.881	48267.89
549.081	48302.71
549.28	48044.66
549.48	48163.45
549.68	47932.03
549.88	48513.65
550.08	48077.43
550.28	47934.07
550.48	47917.69
550.68	48147.06
550.88	47846.01
551.08	48048.76
551.279	47993.46
551.479	47583.87
551.679	47985.27
551.879	47542.91
552.079	47913.59
552.278	47741.56
552.478	47950.46
552.678	48067.19
552.878	47663.74
553.077	47311.49
553.277	46992.01
553.477	47970.94
553.676	47209.09
553.876	47311.49
554.076	47379.07
554.275	47510.14
554.475	46992.01
554.674	47245.96
554.874	47524.48
555.074	47135.37
555.273	47331.97
555.473	47604.35
555.672	46977.67
555.872	47188.61
556.071	47350.4
556.271	46811.79
556.47	46940.81
556.67	46574.22
556.869	47063.69
557.068	47055.5
557.268	46516.88
557.467	46674.57
557.667	46828.17
557.866	46344.85
558.065	46477.97
558.265	46813.83
558.464	46217.88
558.663	47026.82
558.863	45978.26
559.062	46719.63
559.261	46373.52
559.461	46709.39
559.66	45730.46
559.859	46115.48
560.058	45761.18
560.258	46281.36
560.457	45677.21
560.656	45965.98
560.855	45808.28
561.054	45775.51
561.253	45601.44
561.453	45855.39
561.652	45963.93
561.851	45752.99
562.05	45165.22
562.249	45132.45
562.448	45716.12
562.647	45419.17
562.846	45263.52
563.045	45218.47
563.244	45028.01
563.443	45402.78
563.642	44870.31
563.841	44985
564.04	44747.43
564.239	45427.36
564.438	44481.2
564.637	45111.97
564.836	44518.06
565.035	43887.29
565.234	44526.25
565.432	44010.17
565.631	44176.05
565.83	44642.99
566.029	44354.22
566.228	43934.39
566.427	44102.32
566.625	43893.43
566.824	43930.29
567.023	43723.45
567.222	43291.33
567.42	44157.62
567.619	43479.74
567.818	43276.99
568.016	43352.77
568.215	44159.67
568.414	43141.83
568.612	42904.26
568.811	43244.23
569.01	43285.18
569.208	42697.42
569.407	43276.99
569.605	42654.41
569.804	42846.92
570.002	42531.53
570.201	43053.76
570.4	42234.58
570.598	42566.35
570.797	42640.07
570.995	42212.05
571.193	42101.46
571.392	42318.54
571.59	41943.77
571.789	41665.24
571.987	41951.96
572.186	41390.81
572.384	41618.14
572.582	41544.41
572.781	41771.74
572.979	41229.02
573.177	41269.98
573.376	41751.26
573.574	40901.35
573.772	41153.25
573.971	41048.8
574.169	40684.26
574.367	40710.89
574.565	41056.99
574.763	40551.15
574.962	40719.08
575.16	40172.27
575.358	40665.83
575.556	39940.85
575.754	40559.34
575.952	39795.45
576.151	40262.38
576.349	39715.58
576.547	39830.26
576.745	39787.25
576.943	40209.14
577.141	39762.68
577.339	39578.36
577.537	39490.3
577.735	39265.02
577.933	39017.22
578.131	39279.36
578.329	38949.64
578.527	38824.71
578.725	39308.03
578.923	38906.63
579.121	38441.74
579.319	38775.56
579.516	38583.05
579.714	38486.79
579.912	38312.72
580.11	38376.2
580.308	38595.34
580.506	38286.09
580.704	37706.52
580.901	38095.63
581.099	38118.16
581.297	37632.79
581.495	37473.05
581.692	37767.96
581.89	37239.58
582.088	37710.61
582.285	37268.25
582.483	37608.22
582.681	36860.71
582.878	36999.97
583.076	36559.66
583.274	37055.26
583.471	36158.25
583.669	36401.96
583.866	36502.31
584.064	36911.91
584.262	36072.24
584.459	36578.09
584.657	36236.08
584.854	36283.18
585.052	35941.17
585.249	35769.14
585.447	35867.44
585.644	35539.77
585.841	35810.1
586.039	35865.39
586.236	35300.15
586.434	35310.39
586.631	35087.17
586.828	35230.52
587.026	35304.25
587.223	35064.64
587.42	34720.58
587.618	34816.83
587.815	34401.1
588.012	34489.16
588.21	34548.55
588.407	34736.96
588.604	34292.55
588.801	33954.64
588.999	34036.56
589.196	34147.15
589.393	34085.71
589.59	33549.14
589.787	33604.44
589.984	33686.36
590.182	33055.58
590.379	33960.78
590.576	33608.53
590.773	33170.27
590.97	32754.53
591.167	33198.94
591.364	32764.77
591.561	32944.99
591.758	32658.28
591.955	32568.16
592.152	32889.7
592.349	32904.03
592.546	32246.63
592.743	32557.92
592.94	31980.4
593.137	32117.61
593.334	32168.81
593.531	31794.03
593.727	32516.97
593.924	31763.31
594.121	31527.8
594.318	31767.41
594.515	31398.77
594.712	31402.87
594.908	31308.66
595.105	31110.01
595.302	31202.17
595.499	31325.05
595.696	30940.03
595.892	30806.91
596.089	31193.98
596.286	30817.15
596.482	30563.2
596.679	30491.52
596.876	30632.83
597.072	30452.61
597.269	30354.31
597.466	30364.55
597.662	30069.64
597.859	30165.9
598.055	30014.35
598.252	30120.84
598.448	29574.03
598.645	29510.55
598.841	29262.74
599.038	29508.5
599.234	29172.63
599.431	29535.12
599.627	29086.62
599.824	29031.32
600.02	29078.43
600.217	29236.12
600.413	28902.3
600.609	28724.13
600.806	28455.84
601.002	28752.8
601.198	28634.02
601.395	28455.84
601.591	28375.97
601.787	28570.53
601.984	27954.09
602.18	28396.45
602.376	27753.39
602.572	27833.26
602.769	28144.55
602.965	27429.81
603.161	27655.09
603.357	27474.87
603.553	27741.1
603.75	27241.4
603.946	27362.23
604.142	27435.95
604.338	27118.52
604.534	27315.12
604.73	27112.38
604.926	26936.25
605.122	27048.89
605.318	26547.14
605.514	26708.93
605.71	26891.19
605.906	26416.07
606.102	26553.28
606.298	26459.07
606.494	26713.02
606.69	26280.9
606.886	26479.55
607.082	25877.45
607.278	26553.28
607.474	26053.58
607.67	26129.35
607.866	25725.9
608.062	26221.51
608.257	25924.55
608.453	26123.21
608.649	26098.63
608.845	25775.05
609.041	25918.41
609.236	25347.03
609.432	25609.17
609.628	25383.89
609.824	25717.71
610.019	25365.46
610.215	25121.75
610.411	25207.76
610.606	25301.97
610.802	25289.68
610.998	25478.1
611.193	25070.55
611.389	24611.81
611.584	25000.92
611.78	24660.96
611.976	24628.19
612.171	24757.21
612.367	24759.26
612.562	24486.88
612.758	24525.79
612.953	24118.25
613.149	24474.59
613.344	24216.55
613.539	24896.47
613.735	24462.3
613.93	24538.08
614.126	24292.32
614.321	24757.21
614.517	23997.42
614.712	24038.37
614.907	23729.13
615.103	24087.53
615.298	24128.49
615.493	23970.79
615.688	23774.19
615.884	24138.72
616.079	23428.08
616.274	23897.06
616.47	23690.22
616.665	24058.85
616.86	23657.45
617.055	23401.46
617.25	23761.9
617.445	23618.54
617.641	23444.46
617.836	23563.25
618.031	23167.99
618.226	23485.42
618.421	23288.82
618.616	23213.04
618.811	22940.66
619.006	23194.61
619.201	22684.67
619.396	22549.5
619.591	22713.34
619.786	22955
619.981	22303.74
620.176	22588.41
620.371	22346.75
620.566	22133.76
620.761	22094.85
620.956	22195.2
621.151	21888.01
621.346	21769.23
621.541	21703.69
621.735	21636.11
621.93	21337.1
622.125	21564.43
622.32	21095.44
622.515	21447.69
622.709	20888.6
622.904	21113.88
623.099	20818.97
623.294	20931.61
623.488	20798.49
623.683	20714.52
623.878	20280.35
624.072	20392.99
624.267	20153.38
624.462	19842.09
624.656	19842.09
624.851	20038.69
625.046	19657.77
625.24	19729.45
625.435	19332.14
625.629	19633.19
625.824	19446.83
626.018	19373.1
626.213	19082.29
626.407	19373.1
626.602	18805.81
626.796	18791.48
626.991	18435.13
627.185	18543.67
627.38	18682.94
627.574	18650.17
627.768	18426.94
627.963	18277.44
628.157	18134.08
628.352	18119.74
628.546	17857.6
628.74	18160.7
628.935	17566.79
629.129	17966.15
629.323	17470.54
629.517	17413.2
629.712	17421.39
629.906	17632.33
630.1	17210.45
630.294	17185.87
630.489	17239.12
630.683	17122.38
630.877	16854.1
631.071	16680.02
631.265	16944.21
631.459	16620.63
631.653	16327.77
631.848	16405.6
632.042	16272.48
632.236	16602.2
632.43	16077.92
632.624	16419.93
632.818	15920.23
633.012	15805.54
633.206	15934.56
633.4	15850.6
633.594	15627.37
633.788	15629.41
633.982	15647.85
634.176	15516.78
634.369	15535.21
634.563	15252.59
634.757	15213.68
634.951	15166.57
635.145	15098.99
635.339	15256.68
635.533	14691.45
635.726	14767.22
635.92	14716.02
636.114	14666.87
636.308	14699.64
636.501	14341.24
636.695	14449.78
636.889	14273.66
637.083	14240.89
637.276	14167.17
637.47	14222.46
637.664	14169.21
637.857	13939.84
638.051	14011.52
638.244	13841.54
638.438	13823.11
638.632	13726.85
638.825	13534.34
639.019	13462.66
639.212	13374.6
639.406	13382.79
639.599	13161.61
639.793	13065.36
639.986	13038.73
640.18	13178
640.373	13026.45
640.567	12694.68
640.76	12932.24
640.954	12678.29
641.147	12643.48
641.34	12741.78
641.534	12711.06
641.727	12575.89
641.92	12571.8
642.114	12315.8
642.307	12278.94
642.5	12373.14
642.694	11861.15
642.887	12027.04
643.08	12008.61
643.273	12096.67
643.467	11971.74
643.66	12115.1
643.853	11936.93
644.046	11621.54
644.239	11734.18
644.432	11594.92
644.626	11474.09
644.819	11476.13
645.012	11431.08
645.205	11541.67
645.398	11197.61
645.591	11209.9
645.784	11205.8
645.977	11021.49
646.17	11074.73
646.363	10724.53
646.556	10867.89
646.749	10718.39
646.942	11015.34
647.135	10749.11
647.328	10675.38
647.521	10728.63
647.714	10468.53
647.907	10472.63
648.099	10644.66
648.292	10257.59
648.485	10523.83
648.678	10366.14
648.871	10443.96
649.064	10294.46
649.256	10312.89
649.449	10128.57
649.642	10015.93
649.835	9944.25
650.027	9872.57
650.22	9985.21
650.413	9880.77
650.605	9909.44
650.798	9645.25
650.991	9790.66
651.183	9632.96
651.376	9462.98
651.568	9313.48
651.761	9438.41
651.954	9594.05
652.146	9342.15
652.339	9403.59
652.531	9446.6
652.724	9264.33
652.916	8994
653.109	9088.2
653.301	9088.2
653.494	9215.18
653.686	8991.95
653.879	8989.9
654.071	8926.41
654.263	8856.78
654.456	8723.66
654.648	8787.15
654.84	8613.07
655.033	8670.42
655.225	8508.63
655.417	8539.35
655.61	8559.83
655.802	8678.61
655.994	8484.05
656.186	8654.03
656.379	8338.65
656.571	8338.65
656.763	8252.63
656.955	8226.01
657.148	8113.37
657.34	8119.51
657.532	8125.66
657.724	8017.12
657.916	8150.23
658.108	8115.42
658.3	7976.16
658.492	7908.57
658.684	7802.08
658.876	7900.38
659.068	7720.16
659.26	7709.92
659.452	7632.1
659.644	7632.1
659.836	7714.02
660.028	7650.53
660.22	7372
660.412	7443.68
660.604	7404.77
660.796	7458.02
660.988	7474.4
661.18	7447.78
661.372	7179.5
661.563	7290.09
661.755	7222.5
661.947	7128.3
662.139	7322.85
662.331	7199.98
662.522	7017.71
662.714	7107.82
662.906	6931.69
663.097	6931.69
663.289	6853.87
663.481	6880.49
663.673	6884.59
663.864	6720.75
664.056	6759.66
664.247	6911.21
664.439	6712.56
664.631	6663.41
664.822	6702.32
665.014	6659.31
665.205	6440.18
665.397	6434.04
665.588	6438.13
665.78	6464.75
665.971	6497.52
666.163	6501.62
666.354	6401.27
666.546	6462.71
666.737	6569.2
666.929	6368.5
667.12	6362.36
667.311	6284.53
667.503	6270.2
667.694	6122.74
667.885	6071.54
668.077	6206.71
668.268	6059.26
668.459	6092.02
668.651	5960.95
668.842	5975.29
669.033	5905.66
669.224	5879.04
669.416	5985.53
669.607	5944.57
669.798	5829.88
669.989	5960.95
670.18	5813.5
670.371	5807.36
670.563	5858.56
670.754	5637.38
670.945	5633.28
671.136	5608.7
671.327	5649.66
671.518	5563.65
671.709	5784.83
671.9	5614.85
672.091	5504.26
672.282	5684.48
672.473	5477.63
672.664	5430.53
672.855	5455.11
673.046	5268.74
673.237	5534.98
673.428	5524.74
673.619	5256.45
673.809	5266.69
674	5315.84
674.191	5399.81
674.382	5330.18
674.573	5231.88
674.764	5057.8
674.954	5297.41
675.145	5152.01
675.336	5139.72
675.527	5094.66
675.717	5055.75
675.908	4990.22
676.099	5168.39
676.289	5129.48
676.48	5211.4
676.671	4959.5
676.861	4900.11
677.052	4906.25
677.243	4953.35
677.433	4998.41
677.624	5010.7
677.814	4998.41
678.005	4959.5
678.195	4969.74
678.386	4922.63
678.576	4853
678.767	4771.08
678.957	4771.08
679.148	5027.08
679.338	4803.85
679.529	4875.53
679.719	4914.44
679.909	4826.38
680.1	4752.65
680.29	4715.79
680.481	4658.45
680.671	4713.74
680.861	4605.2
681.052	4674.83
681.242	4586.77
681.432	4631.82
681.622	4554
681.813	4787.47
682.003	4683.02
682.193	4455.7
682.383	4492.56
682.573	4408.59
682.764	4513.04
682.954	4449.55
683.144	4558.1
683.334	4424.98
683.524	4478.23
683.714	4461.84
683.904	4445.46
684.094	4433.17
684.284	4396.31
684.474	4556.05
684.664	4306.2
684.854	4371.73
685.044	4439.31
685.234	4283.67
685.424	4175.13
685.614	4218.13
685.804	4347.16
685.994	4252.95
686.184	4123.93
686.374	4232.47
686.564	4232.47
686.753	4332.82
686.943	4179.22
687.133	4113.69
687.323	4080.92
687.513	4072.73
687.702	4125.97
687.892	4011.29
688.082	4042.01
688.272	4074.78
688.461	4099.35
688.651	4111.64
688.841	3982.62
689.03	4093.21
689.22	4044.06
689.41	3859.74
689.599	3884.31
689.789	4017.43
689.979	3837.21
690.168	3800.35
690.358	3775.77
690.547	3839.26
690.737	3685.66
690.926	3802.4
691.116	3726.62
691.305	3857.69
691.495	3736.86
691.684	3775.77
691.874	3743
692.063	3781.92
692.252	3708.19
692.442	3689.76
692.631	3534.11
692.82	3632.41
693.01	3503.39
693.199	3671.33
693.388	3605.79
693.578	3700
693.767	3435.81
693.956	3589.41
694.146	3607.84
694.335	3560.74
694.524	3499.3
694.713	3478.82
694.902	3550.5
695.092	3450.14
695.281	3534.11
695.47	3452.19
695.659	3409.19
695.848	3364.13
696.037	3413.28
696.226	3511.58
696.415	3421.47
696.604	3419.43
696.793	3448.1
696.982	3538.21
697.171	3478.82
697.36	3523.87
697.549	3421.47
697.738	3321.12
697.927	3296.55
698.116	3337.51
698.305	3394.85
698.494	3331.36
698.683	3392.8
698.872	3462.43
699.061	3222.82
699.25	3405.09
699.438	3271.97
699.627	3343.65
699.816	3388.71
700.005	3231.01
700.193	3335.46
700.382	3407.14
700.571	3335.46
700.76	3319.07
700.948	3331.36
701.137	3306.79
701.326	3237.16
701.514	3188
701.703	3233.06
701.892	3423.52
702.08	3357.99
702.269	3235.11
702.457	3335.46
702.646	3396.9
702.834	3183.91
703.023	3196.2
703.212	3423.52
703.4	3390.75
703.589	3329.31
703.777	3235.11
703.965	3175.72
704.154	3292.45
704.342	3185.96
704.531	3259.68
704.719	3204.39
704.907	3212.58
705.096	3040.55
705.284	3220.77
705.472	3124.52
705.661	3188
705.849	3190.05
706.037	3286.31
706.226	3130.66
706.414	3308.83
706.602	3181.86
706.79	3157.29
706.979	3257.64
707.167	3263.78
707.355	3173.67
707.543	3169.57
707.731	3001.64
707.919	3175.72
708.107	3220.77
708.296	3161.38
708.484	3089.7
708.672	3237.16
708.86	3106.09
709.048	3040.55
709.236	3097.89
709.424	3042.6
709.612	3263.78
709.8	3140.9
709.988	3155.24
710.176	3165.48
710.364	3089.7
710.551	3044.65
710.739	3185.96
710.927	3065.13
711.115	3093.8
711.303	3046.69
711.491	3009.83
711.679	3122.47
711.866	2975.02
712.054	3142.95
712.242	3038.5
712.43	3063.08
712.617	3042.6
712.805	3046.69
712.993	3167.53
713.181	2893.1
713.368	3003.69
713.556	3048.74
713.744	3104.04
713.931	3165.48
714.119	2983.21
714.306	2977.06
714.494	3013.93
714.682	2915.62
714.869	2944.3
715.057	3003.69
715.244	3138.85
715.432	3071.27
715.619	2977.06
715.807	2915.62
715.994	3085.61
716.182	2866.47
716.369	2872.62
716.556	2987.3
716.744	2915.62
716.931	2936.1
717.119	2891.05
717.306	2895.15
717.493	2907.43
717.681	3089.7
717.868	2979.11
718.055	2997.54
718.242	2938.15
718.43	2966.82
718.617	2835.75
718.804	2886.95
718.991	2862.38
719.179	2950.44
719.366	2895.15
719.553	2807.08
719.74	2852.14
719.927	2848.04
720.114	2768.17
720.301	2970.92
720.488	2825.51
720.676	2702.64
720.863	2870.57
721.05	2794.79
721.237	2792.75
721.424	2762.03
721.611	2864.43
721.798	2829.61
721.985	2723.12
722.172	2766.12
722.358	2739.5
722.545	2696.49
722.732	2862.38
722.919	2796.84
723.106	2686.25
723.293	2825.51
723.48	2755.88
723.667	2700.59
723.853	2708.78
724.04	2770.22
724.227	2780.46
724.414	2743.6
724.6	2710.83
724.787	2665.77
724.974	2630.96
725.161	2684.2
725.347	2661.68
725.534	2673.96
725.72	2565.42
725.907	2641.2
726.094	2786.6
726.28	2739.5
726.467	2639.15
726.653	2610.48
726.84	2757.93
727.027	2620.72
727.213	2757.93
727.4	2555.18
727.586	2563.37
727.773	2628.91
727.959	2512.18
728.145	2653.48
728.332	2522.41
728.518	2571.57
728.705	2577.71
728.891	2622.77
729.077	2602.29
729.264	2501.94
729.45	2612.53
729.636	2618.67
729.823	2454.83
730.009	2587.95
730.195	2538.8
730.382	2514.22
730.568	2559.28
730.754	2536.75
730.94	2450.74
731.126	2563.37
731.313	2477.36
731.499	2471.22
731.685	2463.02
731.871	2493.74
732.057	2518.32
732.243	2471.22
732.429	2534.7
732.615	2456.88
732.801	2444.59
732.987	2280.75
733.173	2510.13
733.359	2530.61
733.545	2358.58
733.731	2463.02
733.917	2463.02
734.103	2430.26
734.289	2475.31
734.475	2389.3
734.661	2569.52
734.847	2397.49
735.033	2362.67
735.219	2223.41
735.404	2348.34
735.59	2356.53
735.776	2307.38
735.962	2305.33
736.148	2340.15
736.333	2211.12
736.519	2352.43
736.705	2317.62
736.89	2331.95
737.076	2344.24
737.262	2293.04
737.447	2254.13
737.633	2321.71
737.819	2315.57
738.004	2387.25
738.19	2268.47
738.375	2321.71
738.561	2362.67
738.747	2200.88
738.932	2264.37
739.118	2340.15
739.303	2121.01
739.489	2311.47
739.674	2170.16
739.859	2088.25
740.045	2176.31
740.23	2200.88
740.416	2143.54
740.601	2153.78
740.786	2127.16
740.972	2116.92
741.157	2235.7
741.342	2245.94
741.528	2041.14
741.713	2141.49
741.898	2051.38
742.084	2061.62
742.269	2116.92
742.454	2043.19
742.639	2159.92
742.824	2086.2
743.01	2030.9
743.195	2182.45
743.38	2172.21
743.565	2110.77
743.75	2118.97
743.935	2028.85
744.12	2127.16
744.305	1977.66
744.49	1922.36
744.675	2069.81
744.86	1971.51
745.045	2053.43
745.23	1916.22
745.415	1996.09
745.6	1967.42
745.785	1930.55
745.97	1938.74
746.155	1936.7
746.34	1897.78
746.525	1998.13
746.71	1830.2
746.895	1856.83
747.079	1891.64
747.264	1828.15
747.449	1862.97
747.634	1670.46
747.819	1764.67
748.003	1779
748.188	1860.92
748.373	1824.06
748.557	1703.23
748.742	1703.23
748.927	1654.08
749.111	1629.5
749.296	1727.8
749.481	1568.06
749.665	1660.22
749.85	1668.41
750.034	1631.55
750.219	1615.16
750.404	1715.52
750.588	1690.94
750.773	1750.33
750.957	1557.82
751.141	1617.21
751.326	1609.02
751.51	1461.57
751.695	1549.63
751.879	1641.79
752.064	1543.49
752.248	1602.88
752.432	1467.71
752.617	1584.45
752.801	1496.38
752.985	1482.05
753.17	1502.53
753.354	1498.43
753.538	1463.62
753.722	1434.94
753.907	1402.18
754.091	1420.61
754.275	1449.28
754.459	1373.5
754.643	1316.16
754.828	1398.08
755.012	1398.08
755.196	1369.41
755.38	1340.74
755.564	1340.74
755.748	1275.2
755.932	1312.07
756.116	1316.16
756.3	1336.64
756.484	1250.63
756.668	1367.36
756.852	1170.76
757.036	1291.59
757.22	1207.62
757.404	1201.48
757.588	1248.58
757.772	1213.76
757.956	1215.81
758.14	1199.43
758.323	1099.08
758.507	1289.54
758.691	1140.04
758.875	1181
759.059	1178.95
759.242	1146.18
759.426	1185.09
759.61	1148.23
759.794	1101.12
759.977	1160.52
760.161	1224
760.345	1113.41
760.528	1142.08
760.712	1135.94
760.895	1109.32
761.079	1111.36
761.263	955.72
761.446	1103.17
761.63	996.68
761.813	1152.32
761.997	1072.45
762.18	1047.88
762.364	1062.21
762.547	1068.36
762.731	1078.6
762.914	1094.98
763.098	1074.5
763.281	1015.11
763.464	970.05
763.648	1035.59
763.831	1033.54
764.015	1068.36
764.198	965.96
764.381	927.05
764.564	1133.89
764.748	904.52
764.931	933.19
765.114	955.72
765.297	982.34
765.481	927.05
765.664	935.24
765.847	945.48
766.03	865.61
766.213	851.27
766.397	900.42
766.58	890.18
766.763	1080.64
766.946	814.41
767.129	937.29
767.312	875.85
767.495	920.9
767.678	949.57
767.861	910.66
768.044	908.62
768.227	845.13
768.41	783.69
768.593	871.75
768.776	927.05
768.959	859.46
769.142	947.53
769.324	947.53
769.507	890.18
769.69	869.7
769.873	871.75
770.056	865.61
770.239	918.86
770.421	898.38
770.604	783.69
770.787	871.75
770.97	884.04
771.152	773.45
771.335	802.12
771.518	802.12
771.7	857.42
771.883	810.31
772.066	843.08
772.248	822.6
772.431	763.21
772.613	800.07
772.796	777.55
772.978	759.11
773.161	781.64
773.343	806.22
773.526	785.74
773.708	802.12
773.891	724.3
774.073	830.79
774.256	759.11
774.438	744.78
774.621	798.03
774.803	734.54
774.985	701.77
775.168	697.67
775.35	705.87
775.532	779.59
775.715	640.33
775.897	699.72
776.079	687.43
776.261	673.1
776.444	673.1
776.626	619.85
776.808	683.34
776.99	699.72
777.173	712.01
777.355	744.78
777.537	591.18
777.719	644.43
777.901	626
778.083	560.46
778.265	552.27
778.447	695.63
778.629	564.56
778.811	628.04
778.993	597.32
779.175	560.46
779.357	568.65
779.539	587.08
779.721	644.43
779.903	597.32
780.085	558.41
780.267	570.7
780.449	658.76
780.631	568.65
780.812	494.93
780.994	595.28
781.176	533.84
781.358	499.02
781.54	515.41
781.721	556.36
781.903	580.94
782.085	501.07
782.267	599.37
782.448	494.93
782.63	527.69
782.812	499.02
782.993	464.21
783.175	564.56
783.357	462.16
783.538	474.45
783.72	501.07
783.901	513.36
784.083	470.35
784.264	464.21
784.446	462.16
784.627	413.01
784.809	445.77
784.99	476.49
785.172	468.3
785.353	494.93
785.535	484.69
785.716	380.24
785.897	433.49
786.079	413.01
786.26	470.35
786.441	415.06
786.623	398.67
786.804	425.29
786.985	419.15
787.167	441.68
787.348	433.49
787.529	402.77
787.71	423.25
787.891	390.48
788.073	431.44
788.254	429.39
788.435	462.16
788.616	437.58
788.797	370
788.978	441.68
789.159	333.14
789.34	386.38
789.522	314.7
789.703	318.8
789.884	326.99
790.065	415.06
790.246	386.38
790.427	384.34
790.607	322.9
790.788	314.7
790.969	408.91
791.15	353.62
791.331	320.85
791.512	370
791.693	228.69
791.874	347.47
792.054	361.81
792.235	337.23
792.416	386.38
792.597	322.9
792.778	298.32
792.958	392.53
793.139	269.65
793.32	333.14
793.5	263.51
793.681	290.13
793.862	302.42
794.042	236.88
794.223	255.31
794.404	324.94
794.584	382.29
794.765	240.98
794.945	302.42
795.126	300.37
795.306	329.04
795.487	329.04
795.667	292.18
795.848	251.22
796.028	329.04
796.209	329.04
796.389	292.18
796.57	281.94
796.75	179.54
796.93	300.37
797.111	204.11
797.291	279.89
797.471	271.7
797.652	234.83
797.832	206.16
798.012	269.65
798.192	197.97
798.373	245.07
798.553	212.31
798.733	218.45
798.913	318.8
799.093	265.55
799.274	202.07
799.454	218.45
799.634	265.55
799.814	257.36
799.994	298.32
800.174	154.96
800.354	261.46
800.534	177.49
800.714	243.03
800.894	222.55
801.074	245.07
801.254	292.18
801.434	261.46
801.614	222.55
801.794	179.54
801.974	638.28
802.154	212.31
802.334	243.03
802.514	245.07
802.693	202.07
802.873	103.76
803.053	314.7
803.233	275.79
803.413	89.43
803.592	134.48
803.772	197.97
803.952	200.02
804.131	271.7
804.311	200.02
804.491	189.78
804.67	206.16
804.85	202.07
805.03	171.35
805.209	228.69
805.389	204.11
805.568	193.87
805.748	189.78
805.928	163.15
806.107	132.44
806.287	259.41
806.466	165.2
806.646	177.49
806.825	202.07
807.004	222.55
807.184	187.73
807.363	152.92
807.543	202.07
807.722	210.26
807.901	120.15
808.081	290.13
808.26	130.39
808.439	130.39
808.619	132.44
808.798	216.4
808.977	157.01
809.156	216.4
809.336	191.83
809.515	138.58
809.694	173.39
809.873	167.25
810.052	232.79
810.231	200.02
810.411	128.34
810.59	208.21
810.769	144.72
810.948	191.83
811.127	193.87
811.306	169.3
811.485	150.87
811.664	202.07
811.843	111.96
812.022	150.87
812.201	181.59
812.38	105.81
812.559	136.53
812.737	148.82
812.916	144.72
813.095	79.19
813.274	154.96
813.453	148.82
813.632	99.67
813.811	183.63
813.989	150.87
814.168	189.78
814.347	142.68
814.526	183.63
814.704	161.11
814.883	193.87
815.062	91.48
815.24	148.82
815.419	62.8
815.598	150.87
815.776	175.44
815.955	114
816.133	128.34
816.312	189.78
816.49	163.15
816.669	134.48
816.847	157.01
817.026	66.9
817.204	71
817.383	193.87
817.561	97.62
817.74	220.5
817.918	103.76
818.097	75.09
818.275	44.37
818.453	152.92
818.632	126.29
818.81	75.09
818.988	142.68
819.167	95.57
819.345	132.44
819.523	212.31
819.701	89.43
819.879	130.39
820.058	118.1
820.236	109.91
820.414	161.11
820.592	79.19
820.77	103.76
820.948	122.2
821.127	71
821.305	109.91
821.483	126.29
821.661	66.9
821.839	175.44
822.017	75.09
822.195	142.68
822.373	71
822.551	144.72
822.729	120.15
822.907	95.57
823.085	177.49
823.262	142.68
823.44	30.04
823.618	126.29
823.796	109.91
823.974	62.8
824.152	109.91
824.329	30.04
824.507	103.76
824.685	79.19
824.863	165.2
825.04	77.14
825.218	42.32
825.396	95.57
825.574	99.67
825.751	68.95
825.929	130.39
826.107	44.37
826.284	126.29
826.462	140.63
826.639	85.33
826.817	77.14
826.994	83.28
827.172	79.19
827.349	181.59
827.527	132.44
827.704	85.33
827.882	193.87
828.059	126.29
828.237	101.72
828.414	142.68
828.591	134.48
828.769	95.57
828.946	71
829.124	183.63
829.301	107.86
829.478	30.04
829.655	79.19
829.833	136.53
830.01	64.85
830.187	124.24
830.364	52.56
830.542	87.38
830.719	83.28
830.896	134.48
831.073	111.96
831.25	91.48
831.427	101.72
831.604	71
831.782	32.08
831.959	89.43
832.136	83.28
832.313	107.86
832.49	68.95
832.667	97.62
832.844	87.38
833.021	64.85
833.198	58.71
833.374	56.66
833.551	64.85
833.728	38.23
833.905	128.34
834.082	3.41
834.259	44.37
834.436	97.62
834.612	95.57
834.789	25.94
834.966	34.13
835.143	77.14
835.319	54.61
835.496	146.77
835.673	50.52
835.85	77.14
836.026	50.52
836.203	68.95
836.38	48.47
836.556	71
836.733	64.85
836.909	175.44
837.086	-8.87
837.262	13.65
837.439	73.04
837.616	62.8
837.792	122.2
837.968	44.37
838.145	-37.55
838.321	34.13
838.498	46.42
838.674	66.9
838.851	83.28
839.027	-31.4
839.203	36.18
839.38	126.29
839.556	36.18
839.732	83.28
839.909	77.14
840.085	97.62
840.261	17.75
840.437	62.8
840.614	66.9
840.79	68.95
840.966	71
841.142	32.08
841.318	13.65
841.494	87.38
841.671	122.2
841.847	-31.4
842.023	-0.68
842.199	97.62
842.375	71
842.551	15.7
842.727	52.56
842.903	103.76
843.079	87.38
843.255	95.57
843.431	60.76
843.607	30.04
843.783	95.57
843.959	50.52
844.134	-10.92
844.31	85.33
844.486	118.1
844.662	68.95
844.838	64.85
845.013	-41.64
845.189	27.99
845.365	93.52
845.541	9.56
845.716	38.23
845.892	-39.59
846.068	124.24
846.244	81.24
846.419	40.28
846.595	89.43
846.77	40.28
846.946	58.71
847.122	83.28
847.297	-58.03
847.473	71
847.648	52.56
847.824	77.14
847.999	34.13
848.175	34.13
848.35	3.41
848.526	46.42
848.701	11.61
848.876	-15.02
849.052	68.95
849.227	1.37
849.403	19.8
849.578	50.52
849.753	30.04
849.929	126.29
850.104	58.71
850.279	56.66
850.454	48.47
850.63	75.09
850.805	73.04
850.98	27.99
851.155	42.32
851.33	62.8
851.505	62.8
851.681	116.05
851.856	62.8
852.031	95.57
852.206	1.37
852.381	50.52
852.556	-2.73
852.731	46.42
852.906	27.99
853.081	50.52
853.256	68.95
853.431	-51.88
853.606	134.48
853.781	-6.83
853.956	5.46
854.131	68.95
854.305	40.28
854.48	11.61
854.655	36.18
854.83	42.32
855.005	40.28
855.18	-62.12
855.354	-55.98
855.529	56.66
855.704	34.13
855.879	71
856.053	-4.78
856.228	30.04
856.403	-12.97
856.577	66.9
856.752	-45.74
856.926	68.95
857.101	-33.45
857.276	62.8
857.45	-4.78
857.625	36.18
857.799	-19.11
857.974	9.56
858.148	38.23
858.323	-10.92
858.497	19.8
858.672	-35.5
858.846	54.61
859.02	23.89
859.195	21.85
859.369	21.85
859.543	-21.16
859.718	42.32
859.892	-12.97
860.066	75.09
860.241	44.37
860.415	-15.02
860.589	3.41
860.763	13.65
860.938	54.61
861.112	62.8
861.286	25.94
861.46	44.37
861.634	-23.21
861.808	46.42
861.982	42.32
862.157	48.47
862.331	-10.92
862.505	-6.83
862.679	1.37
862.853	68.95
863.027	62.8
863.201	7.51
863.375	17.75
863.549	52.56
863.722	40.28
863.896	91.48
864.07	42.32
864.244	25.94
864.418	32.08
864.592	130.39
864.766	9.56
864.939	-27.31
865.113	3.41
865.287	23.89
865.461	50.52
865.634	27.99
865.808	13.65
865.982	56.66
866.156	15.7
866.329	-53.93
866.503	11.61
866.676	44.37
866.85	91.48
867.024	36.18
867.197	1.37
867.371	27.99
867.544	54.61
867.718	-39.59
867.891	27.99
868.065	9.56
868.238	71
868.412	9.56
868.585	38.23
868.759	38.23
868.932	66.9
869.105	107.86
869.279	-2.73
869.452	25.94
869.625	89.43
869.799	-58.03
869.972	13.65
870.145	42.32
870.319	1.37
870.492	58.71
870.665	-25.26
870.838	40.28
871.011	34.13
871.185	1.37
871.358	-23.21
871.531	7.51
871.704	71
871.877	30.04
872.05	-47.79
872.223	-17.07
872.396	52.56
872.569	-33.45
872.742	48.47
872.915	11.61
873.088	-35.5
873.261	-82.6
873.434	52.56
873.607	-35.5
873.78	17.75
873.953	7.51
874.126	-25.26
874.299	52.56
874.471	-0.68
874.644	81.24
874.817	68.95
874.99	85.33
875.163	-4.78
875.335	-10.92
875.508	34.13
875.681	36.18
875.853	-37.55
876.026	-2.73
876.199	32.08
876.371	1.37
876.544	3.41
876.717	83.28
876.889	11.61
877.062	58.71
877.234	19.8
877.407	-23.21
877.579	46.42
877.752	46.42
877.924	34.13
878.097	9.56
878.269	-6.83
878.442	9.56
878.614	-47.79
878.786	-31.4
878.959	1.37
879.131	32.08
879.303	-15.02
879.476	44.37
879.648	-10.92
879.82	-4.78
879.993	48.47
880.165	-2.73
880.337	1.37
880.509	5.46
880.681	-10.92
880.854	9.56
881.026	54.61
881.198	9.56
881.37	-6.83
881.542	-12.97
881.714	23.89
881.886	5.46
882.058	132.44
882.23	13.65
882.402	-76.46
882.574	-12.97
882.746	5.46
882.918	34.13
883.09	-17.07
883.262	1.37
883.434	11.61
883.606	17.75
883.778	17.75
883.95	46.42
884.122	17.75
884.293	21.85
884.465	77.14
884.637	27.99
884.809	-60.07
884.98	25.94
885.152	-35.5
885.324	3.41
885.496	-43.69
885.667	1.37
885.839	42.32
886.011	27.99
886.182	-6.83
886.354	52.56
886.525	-4.78
886.697	11.61
886.869	-33.45
887.04	17.75
887.212	-8.87
887.383	-45.74
887.555	71
887.726	62.8
887.897	-72.36
888.069	13.65
888.24	9.56
888.412	7.51
888.583	5.46
888.754	9.56
888.926	-27.31
889.097	-15.02
889.268	19.8
889.44	36.18
889.611	-8.87
889.782	-51.88
889.953	-60.07
890.125	56.66
890.296	-19.11
890.467	-19.11
890.638	-6.83
890.809	27.99
890.98	-25.26
891.151	23.89
891.323	46.42
891.494	3.41
891.665	-41.64
891.836	99.67
892.007	-19.11
892.178	-8.87
892.349	13.65
892.52	11.61
892.691	-27.31
892.862	62.8
893.032	-2.73
893.203	-15.02
893.374	101.72
893.545	-10.92
893.716	-55.98
893.887	21.85
894.057	-35.5
894.228	13.65
894.399	23.89
894.57	7.51
894.74	-10.92
894.911	58.71
895.082	109.91
895.253	-8.87
895.423	73.04
895.594	46.42
895.764	68.95
895.935	13.65
896.106	-2.73
896.276	38.23
896.447	-0.68
896.617	56.66
896.788	42.32
896.958	40.28
897.129	-45.74
897.299	40.28
897.47	40.28
897.64	19.8
897.81	11.61
897.981	-12.97
898.151	-76.46
898.322	3.41
898.492	52.56
898.662	-31.4
898.832	-41.64
899.003	27.99
899.173	-55.98
899.343	40.28
899.513	7.51
