Data from USB4F104151__17__12-00-26-994.txt Node

Date: Fri Mar 14 12:00:26 EDT 2025
User: louis
Spectrometer: USB4F10415
Trigger mode: 4
Integration Time (sec): 2.000000E-2
Scans to average: 1
Electric dark correction enabled: true
Nonlinearity correction enabled: false
Boxcar width: 0
XAxis mode: Wavelengths
Number of Pixels in Spectrum: 3648
>>>>>Begin Spectral Data<<<<<
178.204	-47.96
178.424	-47.96
178.644	-47.96
178.864	-136.02
179.084	-70.48
179.304	-50
179.524	38.06
179.744	-0.85
179.964	17.58
180.184	15.53
180.404	11.43
180.624	-29.52
180.844	-39.76
181.064	-0.85
181.283	1.19
181.503	-9.05
181.723	46.25
181.943	-2.9
182.163	83.11
182.383	-2.9
182.602	17.58
182.822	52.39
183.042	-2.9
183.262	23.72
183.482	-13.14
183.701	11.43
183.921	25.77
184.141	42.15
184.361	40.11
184.58	13.48
184.8	33.96
185.02	7.34
185.239	60.59
185.459	5.29
185.679	5.29
185.898	-19.29
186.118	-4.95
186.338	-19.29
186.557	3.24
186.777	64.68
186.997	46.25
187.216	58.54
187.436	38.06
187.655	31.91
187.875	36.01
188.095	3.24
188.314	-23.38
188.534	-54.1
188.753	-60.24
188.973	52.39
189.192	5.29
189.412	13.48
189.631	76.97
189.851	9.39
190.07	50.35
190.29	5.29
190.509	3.24
190.729	-21.33
190.948	-11.09
191.168	36.01
191.387	62.63
191.607	85.16
191.826	29.87
192.045	-31.57
192.265	-15.19
192.484	89.26
192.704	85.16
192.923	91.31
193.142	-4.95
193.362	-23.38
193.581	79.02
193.8	-15.19
194.02	58.54
194.239	9.39
194.458	21.67
194.678	-33.62
194.897	33.96
195.116	97.45
195.335	11.43
195.555	52.39
195.774	19.63
195.993	31.91
196.212	-43.86
196.432	17.58
196.651	33.96
196.87	-21.33
197.089	107.69
197.308	-21.33
197.528	50.35
197.747	68.78
197.966	33.96
198.185	44.2
198.404	-35.67
198.623	19.63
198.842	50.35
199.062	85.16
199.281	62.63
199.5	19.63
199.719	15.53
199.938	1.19
200.157	107.69
200.376	-76.63
200.595	105.64
200.814	50.35
201.033	48.3
201.252	83.11
201.471	11.43
201.69	-43.86
201.909	1.19
202.128	-0.85
202.347	56.49
202.566	91.31
202.785	89.26
203.004	-25.43
203.223	62.63
203.442	23.72
203.661	3.24
203.879	21.67
204.098	72.87
204.317	13.48
204.536	21.67
204.755	5.29
204.974	56.49
205.193	21.67
205.411	89.26
205.63	54.44
205.849	87.21
206.068	-39.76
206.287	19.63
206.505	25.77
206.724	-7
206.943	33.96
207.162	54.44
207.381	-43.86
207.599	72.87
207.818	38.06
208.037	54.44
208.255	-7
208.474	46.25
208.693	-7
208.911	-21.33
209.13	3.24
209.349	-13.14
209.567	-47.96
209.786	1.19
210.005	38.06
210.223	40.11
210.442	-27.48
210.661	-54.1
210.879	33.96
211.098	46.25
211.316	5.29
211.535	38.06
211.753	-17.24
211.972	60.59
212.191	25.77
212.409	7.34
212.628	29.87
212.846	9.39
213.065	42.15
213.283	-25.43
213.502	-50
213.72	31.91
213.938	-19.29
214.157	-35.67
214.375	87.21
214.594	-25.43
214.812	-37.72
215.031	83.11
215.249	27.82
215.467	21.67
215.686	23.72
215.904	21.67
216.122	1.19
216.341	58.54
216.559	25.77
216.778	60.59
216.996	70.83
217.214	7.34
217.432	5.29
217.651	3.24
217.869	15.53
218.087	23.72
218.306	-41.81
218.524	56.49
218.742	33.96
218.96	31.91
219.179	5.29
219.397	-7
219.615	138.41
219.833	54.44
220.051	1.19
220.27	72.87
220.488	1.19
220.706	-15.19
220.924	-11.09
221.142	-17.24
221.36	-9.05
221.578	74.92
221.796	48.3
222.015	76.97
222.233	-11.09
222.451	9.39
222.669	83.11
222.887	27.82
223.105	7.34
223.323	44.2
223.541	-47.96
223.759	29.87
223.977	-9.05
224.195	-58.2
224.413	-21.33
224.631	115.88
224.849	109.74
225.067	60.59
225.285	27.82
225.503	5.29
225.721	5.29
225.939	21.67
226.157	38.06
226.375	19.63
226.592	21.67
226.81	52.39
227.028	13.48
227.246	83.11
227.464	66.73
227.682	54.44
227.9	40.11
228.117	40.11
228.335	79.02
228.553	-11.09
228.771	50.35
228.989	15.53
229.206	3.24
229.424	17.58
229.642	33.96
229.86	-39.76
230.077	97.45
230.295	74.92
230.513	17.58
230.731	-31.57
230.948	66.73
231.166	103.59
231.384	-27.48
231.601	54.44
231.819	15.53
232.037	9.39
232.254	-2.9
232.472	81.07
232.689	-0.85
232.907	91.31
233.125	19.63
233.342	19.63
233.56	33.96
233.777	9.39
233.995	54.44
234.213	38.06
234.43	17.58
234.648	-31.57
234.865	58.54
235.083	52.39
235.3	33.96
235.518	54.44
235.735	70.83
235.953	46.25
236.17	87.21
236.388	-95.06
236.605	-56.15
236.822	13.48
237.04	87.21
237.257	38.06
237.475	79.02
237.692	62.63
237.909	11.43
238.127	66.73
238.344	60.59
238.562	40.11
238.779	-35.67
238.996	-58.2
239.214	7.34
239.431	-15.19
239.648	-54.1
239.865	-7
240.083	-0.85
240.3	42.15
240.517	5.29
240.735	-15.19
240.952	66.73
241.169	50.35
241.386	7.34
241.603	1.19
241.821	-0.85
242.038	64.68
242.255	27.82
242.472	25.77
242.689	-29.52
242.907	50.35
243.124	-4.95
243.341	21.67
243.558	-2.9
243.775	85.16
243.992	25.77
244.209	15.53
244.426	42.15
244.643	66.73
244.86	81.07
245.078	44.2
245.295	31.91
245.512	31.91
245.729	-9.05
245.946	42.15
246.163	-2.9
246.38	54.44
246.597	-17.24
246.814	-2.9
247.031	64.68
247.248	74.92
247.464	25.77
247.681	-13.14
247.898	99.5
248.115	-52.05
248.332	25.77
248.549	91.31
248.766	19.63
248.983	113.83
249.2	-17.24
249.417	36.01
249.633	81.07
249.85	58.54
250.067	5.29
250.284	-25.43
250.501	29.87
250.717	101.55
250.934	-33.62
251.151	50.35
251.368	42.15
251.585	54.44
251.801	21.67
252.018	15.53
252.235	33.96
252.451	13.48
252.668	19.63
252.885	60.59
253.102	44.2
253.318	-31.57
253.535	19.63
253.752	93.35
253.968	40.11
254.185	-45.91
254.401	11.43
254.618	64.68
254.835	21.67
255.051	85.16
255.268	9.39
255.484	13.48
255.701	27.82
255.917	85.16
256.134	17.58
256.351	9.39
256.567	36.01
256.784	19.63
257	-35.67
257.217	48.3
257.433	56.49
257.65	66.73
257.866	3.24
258.082	31.91
258.299	-11.09
258.515	60.59
258.732	-27.48
258.948	46.25
259.165	72.87
259.381	70.83
259.597	11.43
259.814	81.07
260.03	95.4
260.246	58.54
260.463	72.87
260.679	111.78
260.895	36.01
261.112	25.77
261.328	-7
261.544	-70.48
261.761	76.97
261.977	5.29
262.193	62.63
262.409	23.72
262.626	40.11
262.842	31.91
263.058	21.67
263.274	-9.05
263.49	60.59
263.707	56.49
263.923	48.3
264.139	-29.52
264.355	-35.67
264.571	-15.19
264.787	-25.43
265.004	21.67
265.22	42.15
265.436	-9.05
265.652	-9.05
265.868	15.53
266.084	-31.57
266.3	3.24
266.516	-17.24
266.732	56.49
266.948	3.24
267.164	60.59
267.38	11.43
267.596	27.82
267.812	13.48
268.028	17.58
268.244	5.29
268.46	44.2
268.676	-17.24
268.892	72.87
269.108	62.63
269.324	50.35
269.54	-23.38
269.756	81.07
269.972	-9.05
270.188	11.43
270.403	42.15
270.619	23.72
270.835	52.39
271.051	33.96
271.267	-17.24
271.483	33.96
271.698	-21.33
271.914	31.91
272.13	62.63
272.346	29.87
272.562	31.91
272.777	101.55
272.993	13.48
273.209	-17.24
273.425	130.22
273.64	56.49
273.856	36.01
274.072	-13.14
274.287	3.24
274.503	76.97
274.719	-17.24
274.934	-0.85
275.15	95.4
275.366	76.97
275.581	13.48
275.797	52.39
276.012	-37.72
276.228	19.63
276.444	25.77
276.659	62.63
276.875	52.39
277.09	40.11
277.306	-2.9
277.521	15.53
277.737	-64.34
277.952	101.55
278.168	11.43
278.383	-35.67
278.599	56.49
278.814	56.49
279.03	5.29
279.245	5.29
279.461	25.77
279.676	76.97
279.892	-9.05
280.107	42.15
280.322	-0.85
280.538	27.82
280.753	-25.43
280.969	-0.85
281.184	-0.85
281.399	11.43
281.615	40.11
281.83	-19.29
282.045	-9.05
282.26	9.39
282.476	27.82
282.691	107.69
282.906	1.19
283.122	42.15
283.337	36.01
283.552	128.17
283.767	13.48
283.983	-0.85
284.198	36.01
284.413	56.49
284.628	33.96
284.843	-15.19
285.058	48.3
285.274	62.63
285.489	-50
285.704	50.35
285.919	7.34
286.134	87.21
286.349	38.06
286.564	21.67
286.779	62.63
286.995	-7
287.21	89.26
287.425	1.19
287.64	60.59
287.855	81.07
288.07	52.39
288.285	56.49
288.5	7.34
288.715	74.92
288.93	9.39
289.145	-43.86
289.36	40.11
289.575	17.58
289.79	64.68
290.004	23.72
290.219	128.17
290.434	-4.95
290.649	60.59
290.864	29.87
291.079	33.96
291.294	33.96
291.509	25.77
291.724	-23.38
291.938	-17.24
292.153	56.49
292.368	56.49
292.583	46.25
292.798	52.39
293.012	1.19
293.227	-2.9
293.442	46.25
293.657	-11.09
293.871	-19.29
294.086	31.91
294.301	64.68
294.516	64.68
294.73	36.01
294.945	29.87
295.16	11.43
295.374	60.59
295.589	44.2
295.804	13.48
296.018	-21.33
296.233	95.4
296.447	-0.85
296.662	5.29
296.877	89.26
297.091	1.19
297.306	85.16
297.52	64.68
297.735	5.29
297.949	62.63
298.164	29.87
298.378	-9.05
298.593	7.34
298.807	-43.86
299.022	-19.29
299.236	64.68
299.451	-27.48
299.665	70.83
299.88	40.11
300.094	9.39
300.309	-4.95
300.523	25.77
300.737	19.63
300.952	46.25
301.166	60.59
301.381	36.01
301.595	21.67
301.809	-15.19
302.024	21.67
302.238	7.34
302.452	173.22
302.667	36.01
302.881	62.63
303.095	91.31
303.309	-33.62
303.524	48.3
303.738	68.78
303.952	-15.19
304.166	44.2
304.381	-13.14
304.595	85.16
304.809	66.73
305.023	31.91
305.237	27.82
305.452	46.25
305.666	29.87
305.88	52.39
306.094	38.06
306.308	62.63
306.522	-0.85
306.736	36.01
306.95	31.91
307.164	54.44
307.379	-11.09
307.593	33.96
307.807	68.78
308.021	60.59
308.235	54.44
308.449	38.06
308.663	25.77
308.877	89.26
309.091	5.29
309.305	64.68
309.519	23.72
309.733	52.39
309.947	-37.72
310.161	101.55
310.374	64.68
310.588	-4.95
310.802	38.06
311.016	40.11
311.23	11.43
311.444	42.15
311.658	21.67
311.872	60.59
312.085	19.63
312.299	13.48
312.513	52.39
312.727	31.91
312.941	23.72
313.154	46.25
313.368	70.83
313.582	5.29
313.796	-25.43
314.009	-58.2
314.223	83.11
314.437	38.06
314.651	23.72
314.864	93.35
315.078	60.59
315.292	-25.43
315.505	95.4
315.719	58.54
315.933	56.49
316.146	93.35
316.36	-54.1
316.573	42.15
316.787	25.77
317.001	9.39
317.214	44.2
317.428	44.2
317.641	7.34
317.855	21.67
318.068	46.25
318.282	11.43
318.495	25.77
318.709	91.31
318.922	-21.33
319.136	76.97
319.349	46.25
319.563	31.91
319.776	62.63
319.99	52.39
320.203	-0.85
320.417	40.11
320.63	48.3
320.843	54.44
321.057	42.15
321.27	7.34
321.483	29.87
321.697	29.87
321.91	38.06
322.124	38.06
322.337	1.19
322.55	29.87
322.763	11.43
322.977	21.67
323.19	42.15
323.403	60.59
323.617	29.87
323.83	76.97
324.043	-21.33
324.256	76.97
324.469	7.34
324.683	58.54
324.896	-29.52
325.109	9.39
325.322	85.16
325.535	72.87
325.748	31.91
325.962	17.58
326.175	79.02
326.388	27.82
326.601	60.59
326.814	44.2
327.027	1.19
327.24	89.26
327.453	-33.62
327.666	36.01
327.879	21.67
328.092	66.73
328.305	50.35
328.518	1.19
328.731	46.25
328.944	19.63
329.157	27.82
329.37	44.2
329.583	93.35
329.796	109.74
330.009	52.39
330.222	101.55
330.435	111.78
330.648	-31.57
330.861	56.49
331.073	85.16
331.286	40.11
331.499	46.25
331.712	-2.9
331.925	-54.1
332.138	70.83
332.35	23.72
332.563	21.67
332.776	54.44
332.989	31.91
333.202	50.35
333.414	-2.9
333.627	-31.57
333.84	33.96
334.053	33.96
334.265	79.02
334.478	29.87
334.691	25.77
334.903	76.97
335.116	3.24
335.329	21.67
335.541	29.87
335.754	89.26
335.966	-47.96
336.179	60.59
336.392	42.15
336.604	-54.1
336.817	70.83
337.029	48.3
337.242	36.01
337.454	72.87
337.667	-64.34
337.88	-19.29
338.092	33.96
338.305	-9.05
338.517	-2.9
338.729	44.2
338.942	58.54
339.154	117.93
339.367	7.34
339.579	66.73
339.792	-0.85
340.004	58.54
340.217	89.26
340.429	23.72
340.641	66.73
340.854	66.73
341.066	29.87
341.278	74.92
341.491	21.67
341.703	-11.09
341.915	54.44
342.128	40.11
342.34	23.72
342.552	48.3
342.764	44.2
342.977	48.3
343.189	36.01
343.401	31.91
343.613	-64.34
343.826	25.77
344.038	31.91
344.25	115.88
344.462	-17.24
344.674	56.49
344.886	-27.48
345.099	38.06
345.311	25.77
345.523	-2.9
345.735	70.83
345.947	13.48
346.159	19.63
346.371	81.07
346.583	99.5
346.795	89.26
347.007	5.29
347.219	38.06
347.431	23.72
347.643	48.3
347.855	52.39
348.067	62.63
348.279	-70.48
348.491	33.96
348.703	74.92
348.915	-0.85
349.127	33.96
349.339	91.31
349.551	13.48
349.763	130.22
349.975	-64.34
350.187	29.87
350.399	89.26
350.61	54.44
350.822	-52.05
351.034	7.34
351.246	27.82
351.458	15.53
351.669	97.45
351.881	79.02
352.093	11.43
352.305	54.44
352.517	87.21
352.728	-21.33
352.94	-2.9
353.152	99.5
353.363	38.06
353.575	15.53
353.787	38.06
353.999	-27.48
354.21	81.07
354.422	-9.05
354.633	89.26
354.845	5.29
355.057	15.53
355.268	74.92
355.48	23.72
355.692	66.73
355.903	72.87
356.115	36.01
356.326	70.83
356.538	38.06
356.749	21.67
356.961	42.15
357.172	-17.24
357.384	42.15
357.595	38.06
357.807	52.39
358.018	-45.91
358.23	60.59
358.441	19.63
358.653	19.63
358.864	5.29
359.075	29.87
359.287	74.92
359.498	27.82
359.709	11.43
359.921	58.54
360.132	79.02
360.344	70.83
360.555	50.35
360.766	-23.38
360.977	60.59
361.189	33.96
361.4	19.63
361.611	117.93
361.823	58.54
362.034	66.73
362.245	3.24
362.456	38.06
362.667	-25.43
362.879	9.39
363.09	91.31
363.301	113.83
363.512	33.96
363.723	27.82
363.935	66.73
364.146	115.88
364.357	44.2
364.568	62.63
364.779	44.2
364.99	87.21
365.201	36.01
365.412	76.97
365.623	15.53
365.834	36.01
366.045	-43.86
366.256	3.24
366.467	50.35
366.678	17.58
366.889	27.82
367.1	-43.86
367.311	-7
367.522	60.59
367.733	13.48
367.944	33.96
368.155	25.77
368.366	76.97
368.577	72.87
368.788	44.2
368.999	17.58
369.209	9.39
369.42	95.4
369.631	97.45
369.842	74.92
370.053	68.78
370.264	52.39
370.474	-0.85
370.685	33.96
370.896	91.31
371.107	33.96
371.317	52.39
371.528	29.87
371.739	89.26
371.95	89.26
372.16	25.77
372.371	-58.2
372.582	11.43
372.792	25.77
373.003	44.2
373.214	42.15
373.424	115.88
373.635	-2.9
373.846	58.54
374.056	46.25
374.267	60.59
374.477	-37.72
374.688	-43.86
374.898	89.26
375.109	40.11
375.319	62.63
375.53	150.7
375.74	93.35
375.951	-58.2
376.161	-4.95
376.372	21.67
376.582	33.96
376.793	99.5
377.003	62.63
377.214	23.72
377.424	38.06
377.635	23.72
377.845	9.39
378.055	91.31
378.266	42.15
378.476	17.58
378.686	23.72
378.897	40.11
379.107	89.26
379.317	52.39
379.528	31.91
379.738	13.48
379.948	-25.43
380.158	25.77
380.369	58.54
380.579	13.48
380.789	15.53
380.999	99.5
381.21	44.2
381.42	130.22
381.63	52.39
381.84	15.53
382.05	19.63
382.261	79.02
382.471	17.58
382.681	33.96
382.891	91.31
383.101	46.25
383.311	64.68
383.521	44.2
383.731	74.92
383.941	21.67
384.151	23.72
384.361	64.68
384.571	11.43
384.781	23.72
384.991	74.92
385.201	130.22
385.411	31.91
385.621	62.63
385.831	1.19
386.041	87.21
386.251	62.63
386.461	85.16
386.671	81.07
386.881	11.43
387.091	60.59
387.301	81.07
387.511	13.48
387.72	148.65
387.93	19.63
388.14	62.63
388.35	103.59
388.56	11.43
388.769	29.87
388.979	119.98
389.189	17.58
389.399	81.07
389.609	83.11
389.818	70.83
390.028	60.59
390.238	13.48
390.447	36.01
390.657	74.92
390.867	52.39
391.076	46.25
391.286	-0.85
391.496	85.16
391.705	36.01
391.915	70.83
392.125	-7
392.334	85.16
392.544	81.07
392.753	64.68
392.963	42.15
393.172	54.44
393.382	31.91
393.591	74.92
393.801	66.73
394.01	74.92
394.22	-19.29
394.429	70.83
394.639	52.39
394.848	66.73
395.058	93.35
395.267	66.73
395.477	17.58
395.686	56.49
395.895	93.35
396.105	87.21
396.314	132.26
396.524	23.72
396.733	-2.9
396.942	87.21
397.152	119.98
397.361	134.31
397.57	99.5
397.78	38.06
397.989	169.13
398.198	83.11
398.407	130.22
398.617	33.96
398.826	99.5
399.035	87.21
399.244	226.47
399.453	72.87
399.663	91.31
399.872	150.7
400.081	126.12
400.29	115.88
400.499	101.55
400.708	146.6
400.917	54.44
401.127	146.6
401.336	126.12
401.545	95.4
401.754	126.12
401.963	109.74
402.172	36.01
402.381	113.83
402.59	165.03
402.799	138.41
403.008	93.35
403.217	142.5
403.426	144.55
403.635	115.88
403.844	42.15
404.053	33.96
404.262	146.6
404.471	105.64
404.68	109.74
404.888	134.31
405.097	119.98
405.306	144.55
405.515	124.07
405.724	154.79
405.933	175.27
406.142	191.66
406.35	160.94
406.559	173.22
406.768	181.42
406.977	134.31
407.185	236.71
407.394	195.75
407.603	109.74
407.812	144.55
408.02	265.38
408.229	167.08
408.438	298.15
408.646	244.9
408.855	232.62
409.064	261.29
409.272	279.72
409.481	300.2
409.69	240.81
409.898	318.63
410.107	308.39
410.315	322.73
410.524	294.05
410.733	310.44
410.941	353.45
411.15	339.11
411.358	375.97
411.567	335.01
411.775	388.26
411.984	480.42
412.192	382.12
412.401	427.17
412.609	369.83
412.818	461.99
413.026	445.6
413.234	466.08
413.443	451.75
413.651	582.82
413.86	591.01
414.068	586.91
414.276	654.5
414.485	541.86
414.693	615.59
414.901	736.42
415.11	697.5
415.318	697.5
415.526	699.55
415.734	730.27
415.943	750.75
416.151	812.19
416.359	801.95
416.567	767.13
416.776	844.96
416.984	812.19
417.192	994.46
417.4	935.07
417.608	937.12
417.817	1041.56
418.025	1062.04
418.233	1215.64
418.441	1041.56
418.649	1166.49
418.857	1236.12
419.065	1293.46
419.273	1234.07
419.481	1272.98
419.689	1412.25
419.897	1410.2
420.105	1477.78
420.313	1494.16
420.521	1496.21
420.729	1518.74
420.937	1666.19
421.145	1735.82
421.353	1805.46
421.561	1836.17
421.769	1950.86
421.977	2002.06
422.185	1975.44
422.393	2055.31
422.601	2098.31
422.809	2188.43
423.017	2165.9
423.224	2323.59
423.432	2374.79
423.64	2366.6
423.848	2587.78
424.056	2550.92
424.263	2690.18
424.471	2798.72
424.679	2839.68
424.887	2987.13
425.094	3048.57
425.302	3024
425.51	3101.82
425.718	3320.95
425.925	3279.99
426.133	3396.73
426.341	3542.13
426.548	3699.83
426.756	3783.79
426.964	3910.77
427.171	4129.9
427.379	4123.76
427.586	4306.02
427.794	4316.26
428.001	4566.12
428.209	4729.95
428.417	4656.23
428.624	4990.05
428.832	5043.29
429.039	5037.15
429.247	5069.92
429.454	5383.26
429.662	5846.1
429.869	5510.23
430.076	5993.55
430.284	5745.75
430.491	5899.34
430.699	6282.31
430.906	6143.05
431.114	6306.89
431.321	6444.1
431.528	6806.59
431.736	7048.26
431.943	7734.32
432.15	7222.33
432.358	7416.89
432.565	7736.37
432.772	7711.8
432.979	8164.4
433.187	8252.46
433.394	8193.07
433.601	8932.39
433.808	8985.63
434.016	8887.33
434.223	9317.4
434.43	9954.32
434.637	9516.06
434.844	10265.61
435.052	10298.38
435.259	10359.82
435.466	10445.84
435.673	10335.24
435.88	11107.33
436.087	11676.66
436.294	11543.55
436.501	11478.01
436.708	11375.61
436.915	12002.29
437.122	12485.61
437.329	12776.42
437.537	13093.86
437.743	13042.66
437.95	13130.72
438.157	13841.37
438.364	14250.96
438.571	14099.41
438.778	14341.07
438.985	15567.81
439.192	14670.79
439.399	15406.02
439.606	14916.55
439.813	16075.7
440.02	16888.74
440.227	16751.53
440.433	16587.69
440.64	17128.36
440.847	16806.83
441.054	17300.39
441.261	18246.55
441.467	18090.9
441.674	18697.1
441.881	19307.4
442.088	19366.79
442.294	18883.47
442.501	19577.73
442.708	20280.18
442.914	20849.52
443.121	21547.87
443.328	21316.45
443.534	22690.64
443.741	22119.26
443.948	21660.51
444.154	23548.74
444.361	23044.94
444.568	23020.36
444.774	23075.66
444.981	23587.65
445.187	24138.55
445.394	25271.08
445.6	25187.11
445.807	27093.77
446.013	26039.07
446.22	26733.33
446.426	27558.66
446.633	27849.47
446.839	28996.34
447.046	27826.95
447.252	29383.4
447.459	29137.65
447.665	28922.61
447.871	30403.29
448.078	31824.58
448.284	30251.74
448.491	31163.09
448.697	32021.19
448.903	32877.24
449.11	32879.28
449.316	32328.38
449.522	32914.1
449.728	33598.12
449.935	33970.85
450.141	33616.55
450.347	34831
450.553	33512.11
450.76	34005.67
450.966	35377.81
451.172	34744.98
451.378	36070.02
451.584	34912.92
451.791	35863.18
451.997	35547.79
452.203	36276.87
452.409	35945.09
452.615	36162.18
452.821	34667.16
453.027	34294.43
453.233	36256.39
453.44	34822.81
453.646	35232.4
453.852	34951.83
454.058	35740.3
454.264	34484.89
454.47	35232.4
454.676	34400.93
454.882	35402.38
455.088	32398.01
455.294	32670.39
455.5	33145.52
455.705	33682.09
455.911	32215.74
456.117	31830.72
456.323	31087.31
456.529	29459.18
456.735	31013.59
456.941	29969.12
457.147	29500.14
457.352	28574.45
457.558	28371.71
457.764	28482.3
457.97	27837.19
458.176	27163.4
458.381	27224.84
458.587	25758.5
458.793	25756.45
458.999	24357.69
459.204	26039.07
459.41	24945.45
459.616	23690.05
459.821	23616.32
460.027	23415.62
460.233	23141.19
460.438	22096.73
460.644	22297.43
460.85	21322.6
461.055	20814.7
461.261	20841.32
461.466	19260.29
461.672	18668.43
461.878	20171.64
462.083	18783.12
462.289	18742.16
462.494	18279.32
462.7	17034.15
462.905	16989.1
463.111	17513.38
463.316	17617.82
463.522	17056.68
463.727	17152.93
463.932	17183.65
464.138	17081.25
464.343	16868.27
464.549	16536.49
464.754	16946.09
464.959	17056.68
465.165	16858.03
465.37	15991.73
465.575	15805.37
465.781	16616.37
465.986	16573.36
466.191	15895.48
466.397	15662.01
466.602	14871.5
466.807	15440.83
467.012	15449.02
467.218	14998.47
467.423	15025.09
467.628	15180.74
467.833	15858.62
468.038	15268.8
468.244	15002.57
468.449	15303.62
468.654	14922.69
468.859	14822.34
469.064	14810.06
469.269	14214.1
469.474	14189.52
469.679	14457.81
469.885	14107.6
470.09	14166.99
470.295	14007.25
470.5	13790.17
470.705	13900.76
470.91	13382.62
471.115	13415.39
471.32	13792.22
471.525	13450.21
471.73	13220.83
471.935	13081.57
472.139	12502
472.344	12946.41
472.549	12917.73
472.754	12780.52
472.959	12344.3
473.164	12028.92
473.369	12057.59
473.574	12346.35
473.778	12135.41
473.983	12174.32
474.188	12035.06
474.393	11545.59
474.598	11521.02
474.802	11650.04
475.007	11342.85
475.212	11287.55
475.417	11043.84
475.621	11047.94
475.826	11025.41
476.031	10957.83
476.235	10703.88
476.44	10877.96
476.645	10486.79
476.849	10576.91
477.054	10392.59
477.259	10224.65
477.463	10165.26
477.668	10220.56
477.872	10073.1
478.077	9884.69
478.282	9643.03
478.486	9718.81
478.691	9468.95
478.895	9528.35
479.1	9462.81
479.304	9458.71
479.509	9376.8
479.713	9415.71
479.918	9149.47
480.122	9083.94
480.326	9139.23
480.531	9143.33
480.735	8942.63
480.94	8834.08
481.144	9229.34
481.348	8911.91
481.553	9040.93
481.757	8678.44
481.961	8782.88
482.166	9051.17
482.37	8870.95
482.574	8596.52
482.778	8690.73
482.983	8983.59
483.187	8811.56
483.391	8899.62
483.595	8803.36
483.8	8567.85
484.004	8870.95
484.208	8940.58
484.412	8885.28
484.616	9055.26
484.821	8911.91
485.025	8647.72
485.229	8885.28
485.433	8573.99
485.637	8660.01
485.841	8627.24
486.045	8586.28
486.249	8758.31
486.453	8750.12
486.657	8784.93
486.861	8844.32
487.065	8694.82
487.269	8922.15
487.473	8645.67
487.677	8934.43
487.881	8997.92
488.085	8651.81
488.289	8875.04
488.493	8746.02
488.697	8950.82
488.901	8885.28
489.105	8815.65
489.309	8971.3
489.512	8752.17
489.716	8793.12
489.92	8963.11
490.124	8899.62
490.328	9124.9
490.531	8903.71
490.735	9090.08
490.939	8909.86
491.143	9004.07
491.346	9094.18
491.55	9137.18
491.754	9159.71
491.958	9184.29
492.161	9225.25
492.365	9251.87
492.569	9120.8
492.772	9247.77
492.976	9284.64
493.18	9374.75
493.383	9536.54
493.587	9546.78
493.79	9743.38
493.994	9495.58
494.197	9569.3
494.401	9716.76
494.605	9665.56
494.808	9987.09
495.012	9765.91
495.215	9980.95
495.419	9952.27
495.622	9825.3
495.825	10210.32
496.029	10214.41
496.232	10404.88
496.436	10316.81
496.639	10642.44
496.843	10652.68
497.046	10750.98
497.249	10722.31
497.453	10871.81
497.656	11070.47
497.859	11039.75
498.063	11035.65
498.266	11340.8
498.469	11539.45
498.673	11394.04
498.876	11705.34
499.079	11731.96
499.282	11576.31
499.485	12119.03
499.689	12151.79
499.892	12299.25
500.095	12291.06
500.298	12592.11
500.501	12332.01
500.705	12786.66
500.908	12970.98
501.111	12932.07
501.314	13145.06
501.517	13263.84
501.72	13452.25
501.923	13333.47
502.126	13583.32
502.329	13880.28
502.532	13788.12
502.735	13994.97
502.938	14205.91
503.141	14330.83
503.344	14502.86
503.547	14449.61
503.75	14877.64
503.953	15082.44
504.156	15285.19
504.359	15270.85
504.562	15381.44
504.765	15608.76
504.968	15797.18
505.17	15694.78
505.373	16032.69
505.576	16298.93
505.779	16360.37
505.982	16784.3
506.185	16864.17
506.387	16935.85
506.59	16997.29
506.793	17331.11
506.996	17249.19
507.198	17767.32
507.401	17574.81
507.604	18080.66
507.807	18215.83
508.009	18430.87
508.212	18600.85
508.415	18566.03
508.617	18953.1
508.82	18926.47
509.022	19213.19
509.225	19649.41
509.428	19719.04
509.63	19846.01
509.833	19751.81
510.035	20190.07
510.238	19989.37
510.44	20401.01
510.643	20902.76
510.845	20779.89
511.048	20716.4
511.25	21125.99
511.453	21203.82
511.655	22063.96
511.858	21607.26
512.06	21642.08
512.262	22061.91
512.465	21906.27
512.667	22772.56
512.87	22467.41
513.072	22690.64
513.274	23139.15
513.477	23542.6
513.679	23659.33
513.881	23522.12
514.084	23896.89
514.286	23819.07
514.488	23952.19
514.69	24644.4
514.893	24814.38
515.095	24654.64
515.297	25262.89
515.499	25232.17
515.701	25699.11
515.904	25830.18
516.106	25871.14
516.308	25776.93
516.51	26321.69
516.712	26252.06
516.914	26848.02
517.116	26958.61
517.318	27142.92
517.52	27263.75
517.722	27575.05
517.925	27900.67
518.127	28226.3
518.329	28302.07
518.531	27900.67
518.733	28470.01
518.935	28928.75
519.136	28801.78
519.338	29311.72
519.54	29663.97
519.742	29448.94
519.944	29514.47
520.146	30169.82
520.348	30241.5
520.55	30325.47
520.752	30419.67
520.954	31158.99
521.155	30726.87
521.357	31406.8
521.559	31230.67
521.761	31802.05
521.963	31591.11
522.164	32113.34
522.366	32127.68
522.568	32234.17
522.77	32467.64
522.971	32955.06
523.173	32819.89
523.375	32836.28
523.576	32834.23
523.778	33069.75
523.98	33604.27
524.181	33512.11
524.383	33727.14
524.584	34106.02
524.786	34273.95
524.988	33778.34
525.189	34480.8
525.391	34249.38
525.592	34814.62
525.794	34736.79
525.995	35043.99
526.197	34835.1
526.398	35099.28
526.6	35289.74
526.801	35068.56
527.003	35271.31
527.204	35486.35
527.406	35857.03
527.607	35660.43
527.808	36143.75
528.01	35486.35
528.211	35449.49
528.412	36563.58
528.614	36289.15
528.815	36256.39
529.016	36690.55
529.218	36563.58
529.419	36567.68
529.62	36334.21
529.822	36205.19
530.023	36579.96
530.224	36383.36
530.425	36397.7
530.626	36649.6
530.828	36698.75
531.029	37192.31
531.23	36518.53
531.431	36409.98
531.632	37263.99
531.833	37067.38
532.035	36665.98
532.236	37089.91
532.437	37526.13
532.638	36751.99
532.839	37419.63
533.04	37141.11
533.241	37044.85
533.442	37536.37
533.643	37085.81
533.844	37282.42
534.045	37548.65
534.246	36934.26
534.447	37296.75
534.648	37253.75
534.849	37722.73
535.05	37087.86
535.251	37225.07
535.451	37079.67
535.652	37476.97
535.853	37143.16
536.054	37304.95
536.255	37278.32
536.456	36969.08
536.657	37671.53
536.857	37204.59
537.058	37229.17
537.259	37319.28
537.46	37350
537.66	37536.37
537.861	37450.35
538.062	37163.64
538.263	37255.79
538.463	36977.27
538.664	36967.03
538.865	37427.82
539.065	37722.73
539.266	37132.92
539.466	37028.47
539.667	36958.84
539.868	37825.13
540.068	36993.65
540.269	36854.39
540.469	37317.23
540.67	36870.78
540.87	36911.74
541.071	36954.74
541.271	37495.41
541.472	36870.78
541.672	36917.88
541.873	36792.95
542.073	36700.79
542.274	37397.1
542.474	37216.88
542.675	36786.81
542.875	36971.13
543.075	37128.82
543.276	36381.31
543.476	37018.23
543.676	36784.76
543.877	36950.65
544.077	36989.56
544.277	36856.44
544.478	36833.91
544.678	36919.93
544.878	36944.5
545.078	36973.17
545.279	36467.33
545.479	36293.25
545.679	36981.37
545.879	36782.71
546.079	37057.14
546.28	36618.88
546.48	36266.63
546.68	36846.2
546.88	36731.51
547.08	36708.99
547.28	36633.21
547.48	36328.06
547.68	36921.98
547.88	36369.02
548.081	36436.61
548.281	36586.11
548.481	36360.83
548.681	37218.93
548.881	36618.88
549.081	36272.77
549.28	36436.61
549.48	36913.78
549.68	36305.54
549.88	36792.95
550.08	36074.12
550.28	36577.92
550.48	36299.39
550.68	36397.7
550.88	36395.65
551.08	36346.5
551.279	36608.64
551.479	36078.21
551.679	36254.34
551.879	36113.03
552.079	36477.57
552.278	36135.56
552.478	36317.82
552.678	36203.14
552.878	36264.58
553.077	36315.78
553.277	36289.15
553.477	36868.73
553.676	36051.59
553.876	36201.09
554.076	36156.03
554.275	35910.28
554.475	35674.76
554.674	35932.81
554.874	35949.19
555.074	35695.24
555.273	36135.56
555.473	35959.43
555.672	35412.62
555.872	35381.9
556.071	35764.87
556.271	36268.67
556.47	35631.75
556.67	35515.02
556.869	35687.05
557.068	35926.66
557.268	35508.88
557.467	35445.39
557.667	35326.61
557.866	35682.95
558.065	34947.73
558.265	35068.56
558.464	35218.07
558.663	35529.36
558.863	35117.71
559.062	35691.15
559.261	35185.3
559.461	35160.72
559.66	34910.87
559.859	35271.31
560.058	34974.36
560.258	35338.9
560.457	34892.44
560.656	34871.96
560.855	35039.89
561.054	35392.14
561.253	34595.48
561.453	34898.58
561.652	34874.01
561.851	35050.13
562.05	34554.52
562.249	34560.67
562.448	34902.68
562.647	34620.06
562.846	34677.4
563.045	34751.13
563.244	34343.58
563.443	34693.79
563.642	34046.63
563.841	34155.17
564.04	34249.38
564.239	34214.56
564.438	33757.86
564.637	33979.04
564.836	34253.47
565.035	33872.55
565.234	34020
565.432	33940.13
565.631	33907.37
565.83	33858.21
566.029	34013.86
566.228	33583.79
566.427	33516.2
566.625	33495.72
566.824	33325.74
567.023	33487.53
567.222	32903.86
567.42	33565.35
567.619	33276.59
567.818	33270.45
568.016	33202.86
568.215	33170.1
568.414	32625.34
568.612	33045.17
568.811	32877.24
569.01	32920.24
569.208	32721.59
569.407	32783.03
569.605	32479.93
569.804	32649.91
570.002	32578.23
570.201	32574.14
570.4	32201.41
570.598	32232.13
570.797	32109.25
570.995	32180.93
571.193	31875.78
571.392	32189.12
571.59	31992.51
571.789	31988.42
571.987	31750.85
572.186	31818.44
572.384	31597.26
572.582	31949.51
572.781	31855.3
572.979	31113.94
573.177	31353.55
573.376	31576.78
573.574	31083.22
573.772	31726.28
573.971	31013.59
574.169	31384.27
574.367	30816.98
574.565	31204.05
574.763	31105.74
574.962	30556.89
575.16	30464.73
575.358	30833.36
575.556	30272.22
575.754	30821.08
575.952	30315.23
576.151	30575.32
576.349	30366.43
576.547	30434.01
576.745	30444.25
576.943	30415.58
577.141	29919.97
577.339	30329.56
577.537	30034.66
577.735	29911.78
577.933	29809.38
578.131	29924.07
578.329	29440.75
578.527	29491.94
578.725	29954.79
578.923	29725.41
579.121	29244.14
579.319	29299.44
579.516	29358.83
579.714	29301.48
579.912	29092.59
580.11	29100.78
580.308	29192.94
580.506	29186.8
580.704	28453.62
580.901	28695.28
581.099	29227.76
581.297	28662.52
581.495	28703.48
581.692	28719.86
581.89	28396.28
582.088	28547.83
582.285	28310.27
582.483	28699.38
582.681	28560.12
582.878	28128
583.076	27874.05
583.274	27978.5
583.471	27607.81
583.669	27929.34
583.866	27603.72
584.064	28078.85
584.262	27368.2
584.459	27835.14
584.657	27460.36
584.854	27310.86
585.052	26790.67
585.249	27607.81
585.447	27990.78
585.644	27126.54
585.841	26962.7
586.039	27130.64
586.236	26888.98
586.434	26616.6
586.631	26600.21
586.828	26700.56
587.026	26626.84
587.223	26524.44
587.42	26596.12
587.618	26542.87
587.815	26479.38
588.012	26311.45
588.21	26129.18
588.407	26313.5
588.604	26262.3
588.801	25877.28
588.999	25977.63
589.196	26043.17
589.393	26094.36
589.59	25860.9
589.787	25738.02
589.984	25643.81
590.182	25596.71
590.379	25649.96
590.576	25246.51
590.773	25295.66
590.97	25019.18
591.167	25486.12
591.364	24804.14
591.561	25514.79
591.758	24980.27
591.955	25097
592.152	25117.48
592.349	24714.03
592.546	24761.14
592.743	24685.36
592.94	24079.16
593.137	24517.43
593.334	24365.88
593.531	24062.78
593.727	24455.99
593.924	24290.1
594.121	23966.52
594.318	24277.82
594.515	23581.51
594.712	24140.6
594.908	23700.29
595.105	23915.33
595.302	23810.88
595.499	23542.6
595.696	23296.84
595.892	23800.64
596.089	23604.03
596.286	23345.99
596.482	23403.33
596.679	23171.91
596.876	23264.07
597.072	23313.22
597.269	23128.91
597.466	23188.3
597.662	22958.92
597.859	22715.22
598.055	22645.59
598.252	22729.55
598.448	22887.25
598.645	22688.59
598.841	22311.77
599.038	22432.6
599.234	22582.1
599.431	22055.77
599.627	22412.12
599.824	22125.4
600.02	22176.6
600.217	22209.37
600.413	22004.57
600.609	22098.78
600.806	21824.35
601.002	21812.06
601.198	21734.24
601.395	21926.75
601.591	21736.29
601.787	21670.75
601.984	21330.79
602.18	21889.88
602.376	21519.2
602.572	21224.29
602.769	21441.38
602.965	20814.7
603.161	21113.7
603.357	20777.84
603.553	20958.06
603.75	20861.8
603.946	20761.45
604.142	20982.63
604.338	20489.07
604.534	20624.24
604.73	20595.57
604.926	20378.48
605.122	20800.37
605.318	20347.76
605.514	20292.47
605.71	20251.51
605.906	20114.3
606.102	20126.58
606.298	20302.71
606.494	20013.95
606.69	20239.22
606.886	20009.85
607.082	19858.3
607.278	19962.75
607.474	19719.04
607.67	19921.79
607.866	19524.48
608.062	19868.54
608.257	19751.81
608.453	19694.46
608.649	19667.84
608.845	19409.79
609.041	19563.39
609.236	19303.3
609.432	19118.98
609.628	19336.07
609.824	19235.72
610.019	19223.43
610.215	19266.44
610.411	19041.16
610.606	19149.7
610.802	19340.16
610.998	19045.26
611.193	19037.06
611.389	19006.34
611.584	18658.19
611.78	18721.68
611.976	18754.44
612.171	18844.56
612.367	18654.09
612.562	19039.11
612.758	18506.64
612.953	18449.3
613.149	18742.16
613.344	18451.35
613.539	18578.32
613.735	18600.85
613.93	18328.47
614.126	18326.42
614.321	18465.68
614.517	18320.28
614.712	18269.08
614.907	18226.07
615.103	18295.7
615.298	18158.49
615.493	18273.17
615.688	17914.78
615.884	18396.05
616.079	18011.03
616.274	18008.98
616.47	18072.47
616.665	18017.18
616.86	17980.31
617.055	17867.67
617.25	17898.39
617.445	17953.69
617.641	17632.16
617.836	17636.25
618.031	17556.38
618.226	17605.53
618.421	17595.29
618.616	17650.59
618.811	17195.94
619.006	17370.02
619.201	16884.65
619.396	17169.32
619.591	16960.42
619.786	17111.97
619.981	16815.02
620.176	17111.97
620.371	16540.59
620.566	17030.05
620.761	16847.79
620.956	16829.35
621.151	16260.02
621.346	16737.2
621.541	16317.36
621.735	16698.28
621.93	16014.26
622.125	15961.02
622.32	15932.34
622.515	16128.95
622.709	16001.97
622.904	15954.87
623.099	15547.33
623.294	15729.59
623.488	15457.21
623.683	15631.29
623.878	15580.09
624.072	15518.65
624.267	15461.31
624.462	15205.31
624.656	15082.44
624.851	14988.23
625.046	15121.35
625.24	15088.58
625.435	14758.86
625.629	14767.05
625.824	14486.48
626.018	14633.93
626.213	14345.17
626.407	14480.33
626.602	14375.89
626.796	14429.13
626.991	14433.23
627.185	14162.9
627.38	14302.16
627.574	13898.71
627.768	13765.59
627.963	13730.78
628.157	13745.11
628.352	13935.57
628.546	13702.11
628.74	13870.04
628.935	13339.62
629.129	13284.32
629.323	13198.31
629.517	13431.77
629.712	13175.78
629.906	13317.09
630.1	13038.56
630.294	12934.12
630.489	12803.05
630.683	12983.27
630.877	12782.57
631.071	12723.18
631.265	12659.69
631.459	12700.65
631.653	12508.14
631.848	12418.03
632.042	12411.89
632.236	12534.76
632.43	12241.9
632.624	12366.83
632.818	12157.94
633.012	11887.61
633.206	11947
633.4	12022.77
633.594	11789.3
633.788	11830.26
633.982	12030.96
634.176	11695.1
634.369	11647.99
634.563	11574.27
634.757	11514.87
634.951	11725.82
635.145	11590.65
635.339	11320.32
635.533	11443.2
635.726	11205.63
635.92	11029.51
636.114	11217.92
636.308	10898.44
636.501	11090.95
636.695	10892.29
636.889	10720.26
637.083	10685.45
637.276	10689.54
637.47	10619.91
637.664	10550.28
637.857	10550.28
638.051	10398.73
638.244	10230.8
638.438	10492.94
638.632	10228.75
638.825	10187.79
639.019	10355.72
639.212	10124.3
639.406	10251.28
639.599	10001.43
639.793	10089.49
639.986	10032.15
640.18	10026
640.373	9890.84
640.567	9800.73
640.76	9884.69
640.954	9839.64
641.147	9763.86
641.34	9413.66
641.534	9497.63
641.727	9548.82
641.92	9557.02
642.114	9239.58
642.307	9294.88
642.5	9450.52
642.694	9126.94
642.887	9065.5
643.08	9270.3
643.273	9061.41
643.467	9243.68
643.66	8916
643.853	8842.28
644.046	8850.47
644.239	8926.24
644.432	8608.81
644.626	8645.67
644.819	8633.38
645.012	8606.76
645.205	8772.64
645.398	8561.7
645.591	8404.01
645.784	8426.54
645.977	8371.24
646.17	8350.76
646.363	8356.91
646.556	8139.82
646.749	8287.28
646.942	8176.69
647.135	8184.88
647.328	8279.08
647.521	8057.9
647.714	7816.24
647.907	7801.91
648.099	7892.02
648.292	8010.8
648.485	7969.84
648.678	7734.32
648.871	7521.34
649.064	7814.2
649.256	7879.73
649.449	7642.17
649.642	7613.49
649.835	7642.17
650.027	7707.7
650.22	7662.65
650.413	7541.82
650.605	7547.96
650.798	7316.54
650.991	7214.14
651.183	7242.81
651.376	7418.94
651.568	7195.71
651.761	7234.62
651.954	7224.38
652.146	7181.37
652.339	7076.93
652.531	6937.66
652.724	7007.3
652.916	6706.24
653.109	6949.95
653.301	6874.18
653.494	7023.68
653.686	6702.15
653.879	6937.66
654.071	6796.35
654.263	6734.92
654.456	6626.37
654.648	6691.91
654.84	6653
655.033	6790.21
655.225	6419.53
655.417	6390.86
655.61	6511.69
655.802	6442.06
655.994	6401.1
656.186	6356.04
656.379	6274.12
656.571	6282.31
656.763	6126.67
656.955	6253.64
657.148	6276.17
657.34	6288.46
657.532	6065.23
657.724	5923.92
657.916	5983.31
658.108	6104.14
658.3	6003.79
658.492	5862.48
658.684	5938.26
658.876	5911.63
659.068	5829.71
659.26	5956.69
659.452	5796.95
659.644	5842
659.836	5672.02
660.028	5643.35
660.22	5710.93
660.412	5553.24
660.604	5590.1
660.796	5653.59
660.988	5620.82
661.18	5446.74
661.372	5575.77
661.563	5364.82
661.755	5270.62
661.947	5434.46
662.139	5385.3
662.331	5383.26
662.522	5289.05
662.714	5422.17
662.906	5153.88
663.097	5157.98
663.289	5305.43
663.481	5250.14
663.673	5186.65
663.864	5108.83
664.056	4973.66
664.247	5112.92
664.439	5006.43
664.631	5209.18
664.822	4906.08
665.014	5053.53
665.205	5086.3
665.397	4932.7
665.588	4928.61
665.78	4975.71
665.971	4895.84
666.163	4856.93
666.354	4582.5
666.546	4797.54
666.737	4752.48
666.929	4854.88
667.12	4740.19
667.311	4713.57
667.503	4709.47
667.694	4605.03
667.885	4699.23
668.077	4602.98
668.268	4449.38
668.459	4510.82
668.651	4727.91
668.842	4586.6
669.033	4447.33
669.224	4641.89
669.416	4613.22
669.607	4494.44
669.798	4430.95
669.989	4375.66
670.18	4433
670.371	4373.61
670.563	4265.07
670.754	4291.69
670.945	4269.16
671.136	4353.13
671.327	4252.78
671.518	4359.27
671.709	4293.74
671.9	4293.74
672.091	4211.82
672.282	4228.2
672.473	4144.24
672.664	4246.63
672.855	4047.98
673.046	4254.83
673.237	4232.3
673.428	4103.28
673.619	3949.68
673.809	4119.66
674	4070.51
674.191	4113.52
674.382	3859.57
674.573	4011.12
674.764	3955.82
674.954	4099.18
675.145	4043.88
675.336	3974.25
675.527	3980.4
675.717	3961.97
675.908	3945.58
676.099	3959.92
676.289	3949.68
676.48	3908.72
676.671	3912.81
676.861	3824.75
677.052	3869.81
677.243	3863.66
677.433	3851.38
677.624	3914.86
677.814	3814.51
678.005	3822.7
678.195	3716.21
678.386	3910.77
678.576	3798.13
678.767	3599.48
678.957	3816.56
679.148	3794.03
679.338	3691.63
679.529	3699.83
679.719	3654.77
679.909	3701.87
680.1	3642.48
680.29	3787.89
680.481	3535.99
680.671	3681.39
680.861	3712.11
681.052	3751.03
681.242	3699.83
681.432	3613.81
681.622	3617.91
681.813	3515.51
682.003	3540.08
682.193	3519.6
682.383	3603.57
682.573	3615.86
682.764	3511.41
682.954	3579
683.144	3558.52
683.334	3503.22
683.524	3505.27
683.714	3552.37
683.904	3501.17
684.094	3560.56
684.284	3441.78
684.474	3554.42
684.664	3421.3
684.854	3464.31
685.044	3390.58
685.234	3411.06
685.424	3320.95
685.614	3312.76
685.804	3488.89
685.994	3261.56
686.184	3396.73
686.374	3263.61
686.564	3339.38
686.753	3427.45
686.943	3159.16
687.133	3263.61
687.323	3335.29
687.513	3359.86
687.702	3323
687.892	3218.55
688.082	3374.2
688.272	3200.12
688.461	3218.55
688.651	3144.83
688.841	3204.22
689.03	3153.02
689.22	3232.89
689.41	3132.54
689.599	3021.95
689.789	3142.78
689.979	2886.78
690.168	3001.47
690.358	3089.53
690.547	3052.67
690.737	2960.51
690.926	3019.9
691.116	2937.98
691.305	2999.42
691.495	2864.25
691.684	3005.56
691.874	2976.89
692.063	2989.18
692.252	2884.73
692.442	2874.49
692.631	2823.3
692.82	2784.38
693.01	2815.1
693.199	2817.15
693.388	2927.74
693.578	2811.01
693.767	2917.5
693.956	2794.62
694.146	2815.1
694.335	2839.68
694.524	2718.85
694.713	2757.76
694.902	2821.25
695.092	2716.8
695.281	2786.43
695.47	2747.52
695.659	2745.47
695.848	2765.95
696.037	2735.23
696.226	2780.29
696.415	2559.11
696.604	2641.03
696.793	2634.88
696.982	2733.18
697.171	2651.27
697.36	2772.1
697.549	2675.84
697.738	2634.88
697.927	2665.6
698.116	2710.66
698.305	2712.71
698.494	2765.95
698.683	2729.09
698.872	2598.02
699.061	2792.58
699.25	2583.68
699.438	2698.37
699.627	2741.38
699.816	2774.14
700.005	2595.97
700.193	2573.44
700.382	2729.09
700.571	2563.2
700.76	2569.35
700.948	2727.04
701.137	2581.64
701.326	2720.9
701.514	2591.88
701.703	2643.07
701.892	2661.51
702.08	2702.47
702.269	2641.03
702.457	2638.98
702.646	2686.08
702.834	2669.7
703.023	2692.23
703.212	2731.14
703.4	2645.12
703.589	2579.59
703.777	2649.22
703.965	2671.75
704.154	2704.51
704.342	2626.69
704.531	2563.2
704.719	2520.2
704.907	2643.07
705.096	2634.88
705.284	2591.88
705.472	2612.35
705.661	2557.06
705.849	2632.83
706.037	2583.68
706.226	2679.94
706.414	2526.34
706.602	2618.5
706.79	2739.33
706.979	2630.79
707.167	2587.78
707.355	2626.69
707.543	2833.54
707.731	2688.13
707.919	2694.27
708.107	2593.92
708.296	2624.64
708.484	2573.44
708.672	2643.07
708.86	2671.75
709.048	2628.74
709.236	2688.13
709.424	2772.1
709.612	2622.59
709.8	2555.01
709.988	2696.32
710.176	2641.03
710.364	2774.14
710.551	2661.51
710.739	2606.21
710.927	2585.73
711.115	2557.06
711.303	2679.94
711.491	2653.31
711.679	2626.69
711.866	2751.62
712.054	2622.59
712.242	2583.68
712.43	2700.42
712.617	2600.07
712.805	2700.42
712.993	2600.07
713.181	2645.12
713.368	2608.26
713.556	2602.11
713.744	2649.22
713.931	2731.14
714.119	2616.45
714.306	2616.45
714.494	2552.96
714.682	2692.23
714.869	2638.98
715.057	2686.08
715.244	2763.9
715.432	2724.99
715.619	2743.42
715.807	2587.78
715.994	2583.68
716.182	2692.23
716.369	2667.65
716.556	2628.74
716.744	2735.23
716.931	2526.34
717.119	2655.36
717.306	2643.07
717.493	2620.55
717.681	2700.42
717.868	2743.42
718.055	2555.01
718.242	2620.55
718.43	2542.72
718.617	2565.25
718.804	2499.72
718.991	2595.97
719.179	2538.63
719.366	2606.21
719.553	2636.93
719.74	2628.74
719.927	2634.88
720.114	2653.31
720.301	2559.11
720.488	2483.33
720.676	2614.4
720.863	2612.35
721.05	2618.5
721.237	2602.11
721.424	2503.81
721.611	2602.11
721.798	2733.18
721.985	2704.51
722.172	2620.55
722.358	2528.39
722.545	2512
722.732	2587.78
722.919	2702.47
723.106	2555.01
723.293	2567.3
723.48	2489.48
723.667	2505.86
723.853	2593.92
724.04	2524.29
724.227	2636.93
724.414	2655.36
724.6	2530.44
724.787	2634.88
724.974	2583.68
725.161	2686.08
725.347	2589.83
725.534	2475.14
725.72	2608.26
725.907	2591.88
726.094	2544.77
726.28	2454.66
726.467	2528.39
726.653	2389.13
726.84	2530.44
727.027	2589.83
727.213	2573.44
727.4	2469
727.586	2548.87
727.773	2466.95
727.959	2493.57
728.145	2643.07
728.332	2399.37
728.518	2462.85
728.705	2608.26
728.891	2395.27
729.077	2514.05
729.264	2401.41
729.45	2520.2
729.636	2579.59
729.823	2569.35
730.009	2507.91
730.195	2528.39
730.382	2442.37
730.568	2458.76
730.754	2507.91
730.94	2471.04
731.126	2493.57
731.313	2481.28
731.499	2495.62
731.685	2491.52
731.871	2473.09
732.057	2493.57
732.243	2436.23
732.429	2518.15
732.615	2385.03
732.801	2497.67
732.987	2524.29
733.173	2417.8
733.359	2403.46
733.545	2401.41
733.731	2509.96
733.917	2473.09
734.103	2405.51
734.289	2397.32
734.475	2382.98
734.661	2362.5
734.847	2471.04
735.033	2317.45
735.219	2376.84
735.404	2335.88
735.59	2360.45
735.776	2360.45
735.962	2487.43
736.148	2358.41
736.333	2368.65
736.519	2327.69
736.705	2434.18
736.89	2219.14
737.076	2253.96
737.262	2319.5
737.447	2380.93
737.633	2329.74
737.819	2329.74
738.004	2243.72
738.19	2313.35
738.375	2264.2
738.561	2364.55
738.747	2219.14
738.932	2206.86
739.118	2385.03
739.303	2245.77
739.489	2323.59
739.674	2342.02
739.859	2292.87
740.045	2356.36
740.23	2294.92
740.416	2143.37
740.601	2180.23
740.786	2239.62
740.972	2124.94
741.157	2188.43
741.342	2090.12
741.528	2108.55
741.713	2133.13
741.898	2247.82
742.084	2141.32
742.269	2059.4
742.454	2075.79
742.639	2057.36
742.824	2200.71
743.01	2083.98
743.195	2251.91
743.38	2100.36
743.565	2137.23
743.75	2075.79
743.935	2217.1
744.12	2180.23
744.305	2016.4
744.49	2073.74
744.675	2073.74
744.86	1930.38
745.045	2014.35
745.23	2071.69
745.415	1948.81
745.6	1942.67
745.785	2038.92
745.97	1938.57
746.155	1928.33
746.34	1973.39
746.525	1928.33
746.71	1936.53
746.895	1873.04
747.079	1879.18
747.264	1899.66
747.449	2014.35
747.634	1809.55
747.819	1873.04
748.003	1754.26
748.188	1840.27
748.373	1799.31
748.557	1823.89
748.742	1803.41
748.927	1844.37
749.111	1844.37
749.296	1799.31
749.481	1723.54
749.665	1748.11
749.85	1766.54
750.034	1739.92
750.219	1688.72
750.404	1758.35
750.588	1653.91
750.773	1760.4
750.957	1692.82
751.141	1660.05
751.326	1672.34
751.51	1533.08
751.695	1528.98
751.879	1498.26
752.064	1619.09
752.248	1608.85
752.432	1672.34
752.617	1500.31
752.801	1578.13
752.985	1506.45
753.17	1483.92
753.354	1442.96
753.538	1506.45
753.722	1467.54
753.907	1500.31
754.091	1512.6
754.275	1449.11
754.459	1430.68
754.643	1516.69
754.828	1469.59
755.012	1361.05
755.196	1461.4
755.38	1391.77
755.564	1399.96
755.748	1432.72
755.932	1354.9
756.116	1402.01
756.3	1227.93
756.484	1346.71
756.668	1447.06
756.852	1334.42
757.036	1275.03
757.22	1250.46
757.404	1346.71
757.588	1293.46
757.772	1313.94
757.956	1232.02
758.14	1272.98
758.323	1285.27
758.507	1256.6
758.691	1189.02
758.875	1330.33
759.059	1234.07
759.242	1236.12
759.426	1250.46
759.61	1240.22
759.794	1025.18
759.977	1146.01
760.161	1227.93
760.345	1176.73
760.528	1174.68
760.712	1088.67
760.895	1080.47
761.079	1199.26
761.263	1158.3
761.446	1086.62
761.63	1107.1
761.813	1127.58
761.997	1072.28
762.18	1084.57
762.364	1072.28
762.547	1074.33
762.731	986.27
762.914	1090.71
763.098	1109.15
763.281	1049.75
763.464	1045.66
763.648	1004.7
763.831	1014.94
764.015	990.36
764.198	1059.99
764.381	1096.86
764.564	986.27
764.748	1109.15
764.931	1016.99
765.114	1035.42
765.297	1049.75
765.481	998.56
765.664	1035.42
765.847	1037.47
766.03	976.03
766.213	982.17
766.397	984.22
766.58	902.3
766.763	1041.56
766.946	920.73
767.129	967.84
767.312	947.36
767.495	906.4
767.678	1000.6
767.861	980.12
768.044	945.31
768.227	881.82
768.41	988.32
768.593	971.93
768.776	894.11
768.959	894.11
769.142	853.15
769.324	910.49
769.507	881.82
769.69	892.06
769.873	902.3
770.056	951.45
770.239	857.25
770.421	955.55
770.604	865.44
770.787	935.07
770.97	920.73
771.152	840.86
771.335	933.02
771.518	869.53
771.7	853.15
771.883	824.48
772.066	863.39
772.248	810.14
772.431	826.53
772.613	976.03
772.796	779.42
772.978	947.36
773.161	851.1
773.343	767.13
773.526	765.09
773.708	793.76
773.891	734.37
774.073	754.85
774.256	715.94
774.438	785.57
774.621	769.18
774.803	767.13
774.985	785.57
775.168	740.51
775.35	824.48
775.532	750.75
775.715	664.74
775.897	707.74
776.079	728.22
776.261	695.46
776.444	685.22
776.626	679.07
776.808	668.83
776.99	658.59
777.173	627.87
777.355	601.25
777.537	679.07
777.719	683.17
777.901	707.74
778.083	640.16
778.265	670.88
778.447	689.31
778.629	697.5
778.811	693.41
778.993	711.84
779.175	656.54
779.357	586.91
779.539	613.54
779.721	648.35
779.903	648.35
780.085	627.87
780.267	623.78
780.449	621.73
780.631	597.15
780.812	539.81
780.994	560.29
781.176	640.16
781.358	556.19
781.54	558.24
781.721	423.08
781.903	558.24
782.085	490.66
782.267	568.48
782.448	492.71
782.63	582.82
782.812	488.61
782.993	447.65
783.175	580.77
783.357	478.37
783.538	531.62
783.72	492.71
783.901	537.76
784.083	521.38
784.264	476.32
784.446	574.63
784.627	480.42
784.809	494.76
784.99	447.65
785.172	476.32
785.353	482.47
785.535	521.38
785.716	445.6
785.897	451.75
786.079	433.32
786.26	464.04
786.441	502.95
786.623	498.85
786.804	498.85
786.985	507.04
787.167	384.16
787.348	396.45
787.529	386.21
787.71	453.8
787.891	373.92
788.073	337.06
788.254	371.88
788.435	443.56
788.616	427.17
788.797	449.7
788.978	375.97
789.159	398.5
789.34	402.6
789.522	296.1
789.703	347.3
789.884	345.25
790.065	298.15
790.246	384.16
790.427	392.36
790.607	330.92
790.788	373.92
790.969	300.2
791.15	320.68
791.331	388.26
791.512	285.86
791.693	312.49
791.874	369.83
792.054	335.01
792.235	369.83
792.416	308.39
792.597	308.39
792.778	269.48
792.958	396.45
793.139	365.73
793.32	339.11
793.5	273.57
793.681	339.11
793.862	359.59
794.042	359.59
794.223	300.2
794.404	294.05
794.584	287.91
794.765	230.57
794.945	320.68
795.126	300.2
795.306	328.87
795.487	320.68
795.667	265.38
795.848	285.86
796.028	328.87
796.209	277.67
796.389	259.24
796.57	287.91
796.75	273.57
796.93	314.53
797.111	269.48
797.291	275.62
797.471	273.57
797.652	296.1
797.832	199.85
798.012	302.25
798.192	271.53
798.373	271.53
798.553	208.04
798.733	281.77
798.913	271.53
799.093	216.23
799.274	283.81
799.454	302.25
799.634	289.96
799.814	228.52
799.994	353.45
800.174	306.34
800.354	259.24
800.534	220.33
800.714	302.25
800.894	224.42
801.074	181.42
801.254	277.67
801.434	285.86
801.614	246.95
801.794	273.57
801.974	527.52
802.154	199.85
802.334	320.68
802.514	210.09
802.693	263.33
802.873	156.84
803.053	316.58
803.233	259.24
803.413	226.47
803.592	144.55
803.772	337.06
803.952	187.56
804.131	230.57
804.311	183.46
804.491	269.48
804.67	148.65
804.85	165.03
805.03	259.24
805.209	187.56
805.389	177.32
805.568	136.36
805.748	216.23
805.928	220.33
806.107	181.42
806.287	197.8
806.466	177.32
806.646	109.74
806.825	265.38
807.004	210.09
807.184	197.8
807.363	222.38
807.543	199.85
807.722	175.27
807.901	203.94
808.081	175.27
808.26	142.5
808.439	222.38
808.619	212.14
808.798	179.37
808.977	212.14
809.156	240.81
809.336	226.47
809.515	220.33
809.694	173.22
809.873	183.46
810.052	216.23
810.231	205.99
810.411	140.46
810.59	226.47
810.769	199.85
810.948	214.18
811.127	175.27
811.306	197.8
811.485	126.12
811.664	246.95
811.843	130.22
812.022	220.33
812.201	99.5
812.38	146.6
812.559	42.15
812.737	216.23
812.916	136.36
813.095	122.02
813.274	115.88
813.453	136.36
813.632	152.74
813.811	181.42
813.989	169.13
814.168	189.61
814.347	130.22
814.526	181.42
814.704	212.14
814.883	191.66
815.062	156.84
815.24	148.65
815.419	185.51
815.598	95.4
815.776	132.26
815.955	132.26
816.133	138.41
816.312	203.94
816.49	148.65
816.669	195.75
816.847	130.22
817.026	113.83
817.204	179.37
817.383	119.98
817.561	130.22
817.74	156.84
817.918	128.17
818.097	113.83
818.275	132.26
818.453	91.31
818.632	89.26
818.81	76.97
818.988	109.74
819.167	126.12
819.345	179.37
819.523	152.74
819.701	74.92
819.879	132.26
820.058	109.74
820.236	130.22
820.414	138.41
820.592	122.02
820.77	138.41
820.948	169.13
821.127	142.5
821.305	91.31
821.483	81.07
821.661	115.88
821.839	50.35
822.017	142.5
822.195	79.02
822.373	134.31
822.551	54.44
822.729	144.55
822.907	46.25
823.085	113.83
823.262	156.84
823.44	128.17
823.618	146.6
823.796	160.94
823.974	99.5
824.152	146.6
824.329	175.27
824.507	113.83
824.685	117.93
824.863	62.63
825.04	72.87
825.218	160.94
825.396	103.59
825.574	124.07
825.751	62.63
825.929	56.49
826.107	68.78
826.284	25.77
826.462	126.12
826.639	76.97
826.817	91.31
826.994	70.83
827.172	72.87
827.349	87.21
827.527	36.01
827.704	91.31
827.882	109.74
828.059	171.18
828.237	105.64
828.414	134.31
828.591	91.31
828.769	81.07
828.946	91.31
829.124	107.69
829.301	148.65
829.478	68.78
829.655	97.45
829.833	81.07
830.01	48.3
830.187	76.97
830.364	93.35
830.542	142.5
830.719	101.55
830.896	85.16
831.073	52.39
831.25	136.36
831.427	140.46
831.604	83.11
831.782	119.98
831.959	97.45
832.136	42.15
832.313	46.25
832.49	113.83
832.667	162.98
832.844	-23.38
833.021	89.26
833.198	117.93
833.374	33.96
833.551	119.98
833.728	150.7
833.905	25.77
834.082	93.35
834.259	81.07
834.436	70.83
834.612	109.74
834.789	36.01
834.966	31.91
835.143	103.59
835.319	33.96
835.496	142.5
835.673	25.77
835.85	89.26
836.026	68.78
836.203	89.26
836.38	27.82
836.556	48.3
836.733	31.91
836.909	124.07
837.086	17.58
837.262	60.59
837.439	44.2
837.616	40.11
837.792	93.35
837.968	128.17
838.145	21.67
838.321	64.68
838.498	48.3
838.674	87.21
838.851	101.55
839.027	46.25
839.203	-23.38
839.38	66.73
839.556	46.25
839.732	136.36
839.909	76.97
840.085	76.97
840.261	74.92
840.437	48.3
840.614	97.45
840.79	165.03
840.966	50.35
841.142	79.02
841.318	13.48
841.494	158.89
841.671	70.83
841.847	33.96
842.023	40.11
842.199	70.83
842.375	3.24
842.551	101.55
842.727	85.16
842.903	109.74
843.079	124.07
843.255	74.92
843.431	23.72
843.607	62.63
843.783	-29.52
843.959	74.92
844.134	13.48
844.31	72.87
844.486	33.96
844.662	68.78
844.838	33.96
845.013	111.78
845.189	31.91
845.365	-19.29
845.541	-15.19
845.716	91.31
845.892	38.06
846.068	21.67
846.244	66.73
846.419	66.73
846.595	81.07
846.77	-4.95
846.946	25.77
847.122	48.3
847.297	7.34
847.473	85.16
847.648	-19.29
847.824	9.39
847.999	3.24
848.175	7.34
848.35	36.01
848.526	29.87
848.701	76.97
848.876	-15.19
849.052	44.2
849.227	64.68
849.403	40.11
849.578	40.11
849.753	68.78
849.929	9.39
850.104	46.25
850.279	40.11
850.454	-13.14
850.63	68.78
850.805	38.06
850.98	70.83
851.155	36.01
851.33	48.3
851.505	-0.85
851.681	89.26
851.856	101.55
852.031	25.77
852.206	15.53
852.381	-0.85
852.556	19.63
852.731	64.68
852.906	46.25
853.081	60.59
853.256	-29.52
853.431	-66.39
853.606	17.58
853.781	-78.68
853.956	-33.62
854.131	27.82
854.305	7.34
854.48	5.29
854.655	13.48
854.83	89.26
855.005	93.35
855.18	93.35
855.354	-29.52
855.529	38.06
855.704	17.58
855.879	56.49
856.053	-11.09
856.228	68.78
856.403	40.11
856.577	70.83
856.752	-47.96
856.926	-11.09
857.101	64.68
857.276	3.24
857.45	-54.1
857.625	13.48
857.799	93.35
857.974	5.29
858.148	40.11
858.323	38.06
858.497	42.15
858.672	-68.44
858.846	46.25
859.02	29.87
859.195	33.96
859.369	56.49
859.543	-31.57
859.718	15.53
859.892	66.73
860.066	-21.33
860.241	-2.9
860.415	44.2
860.589	3.24
860.763	27.82
860.938	99.5
861.112	87.21
861.286	-15.19
861.46	40.11
861.634	38.06
861.808	17.58
861.982	-33.62
862.157	11.43
862.331	29.87
862.505	-2.9
862.679	5.29
862.853	60.59
863.027	-13.14
863.201	54.44
863.375	31.91
863.549	33.96
863.722	38.06
863.896	13.48
864.07	-31.57
864.244	38.06
864.418	-15.19
864.592	42.15
864.766	64.68
864.939	7.34
865.113	-19.29
865.287	19.63
865.461	-11.09
865.634	-25.43
865.808	50.35
865.982	9.39
866.156	27.82
866.329	-0.85
866.503	7.34
866.676	56.49
866.85	3.24
867.024	76.97
867.197	23.72
867.371	1.19
867.544	31.91
867.718	-19.29
867.891	-15.19
868.065	27.82
868.238	23.72
868.412	42.15
868.585	-2.9
868.759	3.24
868.932	-31.57
869.105	-25.43
869.279	1.19
869.452	-4.95
869.625	3.24
869.799	17.58
869.972	23.72
870.145	-54.1
870.319	40.11
870.492	58.54
870.665	17.58
870.838	64.68
871.011	29.87
871.185	19.63
871.358	15.53
871.531	25.77
871.704	-33.62
871.877	87.21
872.05	-25.43
872.223	-37.72
872.396	74.92
872.569	-11.09
872.742	-2.9
872.915	-4.95
873.088	-35.67
873.261	25.77
873.434	21.67
873.607	21.67
873.78	13.48
873.953	-2.9
874.126	36.01
874.299	33.96
874.471	21.67
874.644	-11.09
874.817	-25.43
874.99	27.82
875.163	-35.67
875.335	1.19
875.508	-7
875.681	17.58
875.853	-35.67
876.026	-76.63
876.199	21.67
876.371	-17.24
876.544	11.43
876.717	25.77
876.889	-27.48
877.062	42.15
877.234	62.63
877.407	40.11
877.579	7.34
877.752	29.87
877.924	60.59
878.097	5.29
878.269	38.06
878.442	27.82
878.614	-66.39
878.786	56.49
878.959	-50
879.131	-21.33
879.303	3.24
879.476	70.83
879.648	3.24
879.82	74.92
879.993	5.29
880.165	-37.72
880.337	-41.81
880.509	15.53
880.681	128.17
880.854	23.72
881.026	29.87
881.198	23.72
881.37	-0.85
881.542	42.15
881.714	-54.1
881.886	76.97
882.058	46.25
882.23	-0.85
882.402	17.58
882.574	33.96
882.746	21.67
882.918	79.02
883.09	-17.24
883.262	-25.43
883.434	-15.19
883.606	7.34
883.778	17.58
883.95	81.07
884.122	19.63
884.293	-13.14
884.465	13.48
884.637	9.39
884.809	17.58
884.98	-15.19
885.152	-39.76
885.324	29.87
885.496	21.67
885.667	-58.2
885.839	36.01
886.011	17.58
886.182	-41.81
886.354	33.96
886.525	25.77
886.697	-13.14
886.869	1.19
887.04	-9.05
887.212	-17.24
887.383	105.64
887.555	15.53
887.726	-0.85
887.897	-68.44
888.069	15.53
888.24	-19.29
888.412	50.35
888.583	9.39
888.754	-21.33
888.926	-2.9
889.097	27.82
889.268	-52.05
889.44	7.34
889.611	-15.19
889.782	13.48
889.953	-52.05
890.125	-7
890.296	-29.52
890.467	15.53
890.638	-9.05
890.809	36.01
890.98	-2.9
891.151	-41.81
891.323	-15.19
891.494	33.96
891.665	70.83
891.836	17.58
892.007	56.49
892.178	66.73
892.349	-64.34
892.52	19.63
892.691	60.59
892.862	40.11
893.032	-45.91
893.203	17.58
893.374	72.87
893.545	56.49
893.716	13.48
893.887	107.69
894.057	-31.57
894.228	48.3
894.399	-7
894.57	113.83
894.74	27.82
894.911	-45.91
895.082	-11.09
895.253	44.2
895.423	-4.95
895.594	29.87
895.764	-39.76
895.935	33.96
896.106	29.87
896.276	-52.05
896.447	29.87
896.617	91.31
896.788	-41.81
896.958	1.19
897.129	-9.05
897.299	-45.91
897.47	-13.14
897.64	-17.24
897.81	25.77
897.981	11.43
898.151	38.06
898.322	13.48
898.492	15.53
898.662	17.58
898.832	-0.85
899.003	1.19
899.173	-17.24
899.343	-47.96
899.513	38.06
