Data from USB4F104151__73__12-02-05-947.txt Node

Date: Fri Mar 14 12:02:05 EDT 2025
User: louis
Spectrometer: USB4F10415
Trigger mode: 4
Integration Time (sec): 2.000000E-2
Scans to average: 1
Electric dark correction enabled: true
Nonlinearity correction enabled: false
Boxcar width: 0
XAxis mode: Wavelengths
Number of Pixels in Spectrum: 3648
>>>>>Begin Spectral Data<<<<<
178.204	-123.05
178.424	-123.05
178.644	-123.05
178.864	-80.04
179.084	-94.38
179.304	-20.65
179.524	-16.55
179.744	8.02
179.964	-0.17
180.184	30.55
180.404	14.17
180.624	-26.79
180.844	53.08
181.064	-53.42
181.283	8.02
181.503	-4.27
181.723	8.02
181.943	-84.14
182.163	14.17
182.383	-14.51
182.602	59.22
182.822	63.32
183.042	59.22
183.262	-24.75
183.482	18.26
183.701	20.31
183.921	12.12
184.141	1.88
184.361	-59.56
184.58	40.79
184.8	57.17
185.02	8.02
185.239	18.26
185.459	-37.03
185.679	94.04
185.898	-49.32
186.118	-4.27
186.338	-8.36
186.557	1.88
186.777	-39.08
186.997	3.93
187.216	-12.46
187.436	53.08
187.655	67.41
187.875	8.02
188.095	12.12
188.314	36.69
188.534	1.88
188.753	-28.84
188.973	-51.37
189.192	83.8
189.412	89.94
189.631	34.64
189.851	53.08
190.07	-22.7
190.29	26.45
190.509	28.5
190.729	-47.27
190.948	-51.37
191.168	163.67
191.387	61.27
191.607	5.97
191.826	24.4
192.045	28.5
192.265	-8.36
192.484	3.93
192.704	57.17
192.923	-67.75
193.142	83.8
193.362	16.21
193.581	141.14
193.8	57.17
194.02	16.21
194.239	16.21
194.458	100.18
194.678	-18.6
194.897	-14.51
195.116	-14.51
195.335	-10.41
195.555	24.4
195.774	-18.6
195.993	-8.36
196.212	-4.27
196.432	-51.37
196.651	-12.46
196.87	79.7
197.089	77.65
197.308	75.6
197.528	51.03
197.747	22.36
197.966	-26.79
198.185	-14.51
198.404	26.45
198.623	10.07
198.842	61.27
199.062	53.08
199.281	24.4
199.5	-37.03
199.719	-28.84
199.938	-16.55
200.157	8.02
200.376	36.69
200.595	30.55
200.814	59.22
201.033	-61.61
201.252	48.98
201.471	8.02
201.69	28.5
201.909	-20.65
202.128	122.71
202.347	51.03
202.566	-10.41
202.785	8.02
203.004	-12.46
203.223	91.99
203.442	22.36
203.661	-45.23
203.879	38.74
204.098	18.26
204.317	1.88
204.536	87.89
204.755	51.03
204.974	8.02
205.193	32.6
205.411	81.75
205.63	48.98
205.849	10.07
206.068	104.28
206.287	16.21
206.505	12.12
206.724	42.84
206.943	8.02
207.162	26.45
207.381	-10.41
207.599	-71.85
207.818	10.07
208.037	1.88
208.255	71.51
208.474	55.12
208.693	-30.89
208.911	22.36
209.13	67.41
209.349	38.74
209.567	20.31
209.786	69.46
210.005	24.4
210.223	22.36
210.442	-20.65
210.661	38.74
210.879	1.88
211.098	-28.84
211.316	-12.46
211.535	1.88
211.753	-4.27
211.972	10.07
212.191	30.55
212.409	14.17
212.628	26.45
212.846	55.12
213.065	-28.84
213.283	120.66
213.502	-59.56
213.72	48.98
213.938	32.6
214.157	-67.75
214.375	53.08
214.594	18.26
214.812	10.07
215.031	-0.17
215.249	59.22
215.467	44.88
215.686	-34.99
215.904	65.36
216.122	8.02
216.341	24.4
216.559	32.6
216.778	16.21
216.996	5.97
217.214	-4.27
217.432	-18.6
217.651	-10.41
217.869	79.7
218.087	32.6
218.306	-55.47
218.524	-0.17
218.742	22.36
218.96	34.64
219.179	30.55
219.397	-51.37
219.615	42.84
219.833	20.31
220.051	71.51
220.27	89.94
220.488	16.21
220.706	59.22
220.924	51.03
221.142	22.36
221.36	16.21
221.578	-26.79
221.796	-10.41
222.015	-28.84
222.233	63.32
222.451	71.51
222.669	18.26
222.887	10.07
223.105	30.55
223.323	36.69
223.541	-20.65
223.759	38.74
223.977	38.74
224.195	32.6
224.413	24.4
224.631	63.32
224.849	12.12
225.067	63.32
225.285	-20.65
225.503	3.93
225.721	-88.23
225.939	5.97
226.157	34.64
226.375	65.36
226.592	-96.43
226.81	36.69
227.028	65.36
227.246	3.93
227.464	85.84
227.682	57.17
227.9	-14.51
228.117	5.97
228.335	-2.22
228.553	40.79
228.771	26.45
228.989	59.22
229.206	8.02
229.424	-8.36
229.642	16.21
229.86	-43.18
230.077	-24.75
230.295	63.32
230.513	12.12
230.731	79.7
230.948	22.36
231.166	22.36
231.384	-22.7
231.601	-4.27
231.819	81.75
232.037	44.88
232.254	-65.71
232.472	5.97
232.689	-12.46
232.907	18.26
233.125	26.45
233.342	-2.22
233.56	-12.46
233.777	28.5
233.995	-18.6
234.213	18.26
234.43	-26.79
234.648	-32.94
234.865	14.17
235.083	-28.84
235.3	3.93
235.518	85.84
235.735	83.8
235.953	65.36
236.17	34.64
236.388	5.97
236.605	59.22
236.822	12.12
237.04	12.12
237.257	-14.51
237.475	79.7
237.692	-41.13
237.909	40.79
238.127	1.88
238.344	-30.89
238.562	79.7
238.779	1.88
238.996	-49.32
239.214	-22.7
239.431	8.02
239.648	34.64
239.865	-34.99
240.083	102.23
240.3	57.17
240.517	-86.19
240.735	-26.79
240.952	61.27
241.169	94.04
241.386	40.79
241.603	40.79
241.821	18.26
242.038	98.13
242.255	12.12
242.472	-16.55
242.689	57.17
242.907	5.97
243.124	3.93
243.341	51.03
243.558	-24.75
243.775	-22.7
243.992	26.45
244.209	10.07
244.426	18.26
244.643	-51.37
244.86	36.69
245.078	79.7
245.295	-12.46
245.512	-110.76
245.729	10.07
245.946	40.79
246.163	96.08
246.38	14.17
246.597	42.84
246.814	143.19
247.031	-0.17
247.248	48.98
247.464	28.5
247.681	26.45
247.898	34.64
248.115	5.97
248.332	12.12
248.549	59.22
248.766	73.56
248.983	46.93
249.2	16.21
249.417	40.79
249.633	42.84
249.85	30.55
250.067	-45.23
250.284	18.26
250.501	1.88
250.717	24.4
250.934	12.12
251.151	-24.75
251.368	20.31
251.585	108.37
251.801	63.32
252.018	48.98
252.235	65.36
252.451	77.65
252.668	-43.18
252.885	61.27
253.102	-24.75
253.318	132.95
253.535	75.6
253.752	-14.51
253.968	-0.17
254.185	-57.51
254.401	-45.23
254.618	65.36
254.835	-41.13
255.051	61.27
255.268	32.6
255.484	-30.89
255.701	-6.31
255.917	53.08
256.134	53.08
256.351	-30.89
256.567	18.26
256.784	48.98
257	8.02
257.217	20.31
257.433	100.18
257.65	32.6
257.866	-0.17
258.082	42.84
258.299	16.21
258.515	108.37
258.732	14.17
258.948	26.45
259.165	3.93
259.381	26.45
259.597	28.5
259.814	-0.17
260.03	55.12
260.246	8.02
260.463	5.97
260.679	42.84
260.895	-2.22
261.112	20.31
261.328	34.64
261.544	48.98
261.761	81.75
261.977	20.31
262.193	-0.17
262.409	26.45
262.626	3.93
262.842	61.27
263.058	-24.75
263.274	34.64
263.49	18.26
263.707	-10.41
263.923	-22.7
264.139	-4.27
264.355	108.37
264.571	77.65
264.787	5.97
265.004	79.7
265.22	18.26
265.436	-16.55
265.652	106.32
265.868	-55.47
266.084	-112.81
266.3	30.55
266.516	-14.51
266.732	40.79
266.948	114.52
267.164	46.93
267.38	1.88
267.596	20.31
267.812	61.27
268.028	55.12
268.244	36.69
268.46	5.97
268.676	-14.51
268.892	20.31
269.108	22.36
269.324	-8.36
269.54	-16.55
269.756	-10.41
269.972	3.93
270.188	-12.46
270.403	-75.95
270.619	20.31
270.835	10.07
271.051	-12.46
271.267	-49.32
271.483	-6.31
271.698	75.6
271.914	30.55
272.13	46.93
272.346	-65.71
272.562	3.93
272.777	24.4
272.993	-4.27
273.209	-51.37
273.425	20.31
273.64	1.88
273.856	16.21
274.072	44.88
274.287	22.36
274.503	-24.75
274.719	20.31
274.934	-0.17
275.15	26.45
275.366	69.46
275.581	42.84
275.797	-14.51
276.012	14.17
276.228	16.21
276.444	12.12
276.659	53.08
276.875	1.88
277.09	-37.03
277.306	-100.52
277.521	-16.55
277.737	16.21
277.952	40.79
278.168	46.93
278.383	71.51
278.599	-14.51
278.814	75.6
279.03	14.17
279.245	79.7
279.461	18.26
279.676	18.26
279.892	10.07
280.107	8.02
280.322	44.88
280.538	-82.09
280.753	-37.03
280.969	40.79
281.184	-28.84
281.399	10.07
281.615	5.97
281.83	69.46
282.045	-32.94
282.26	63.32
282.476	34.64
282.691	18.26
282.906	-98.47
283.122	-88.23
283.337	-41.13
283.552	40.79
283.767	53.08
283.983	30.55
284.198	30.55
284.413	12.12
284.628	-22.7
284.843	-28.84
285.058	22.36
285.274	61.27
285.489	-8.36
285.704	40.79
285.919	22.36
286.134	44.88
286.349	34.64
286.564	46.93
286.779	24.4
286.995	59.22
287.21	-10.41
287.425	59.22
287.64	40.79
287.855	22.36
288.07	-18.6
288.285	40.79
288.5	30.55
288.715	38.74
288.93	85.84
289.145	-0.17
289.36	26.45
289.575	20.31
289.79	57.17
290.004	8.02
290.219	83.8
290.434	-10.41
290.649	-63.66
290.864	38.74
291.079	-0.17
291.294	30.55
291.509	-22.7
291.724	-18.6
291.938	67.41
292.153	69.46
292.368	3.93
292.583	-26.79
292.798	87.89
293.012	67.41
293.227	-16.55
293.442	16.21
293.657	63.32
293.871	55.12
294.086	36.69
294.301	32.6
294.516	20.31
294.73	10.07
294.945	16.21
295.16	12.12
295.374	5.97
295.589	81.75
295.804	-14.51
296.018	34.64
296.233	16.21
296.447	26.45
296.662	-61.61
296.877	24.4
297.091	18.26
297.306	-6.31
297.52	30.55
297.735	44.88
297.949	51.03
298.164	65.36
298.378	75.6
298.593	5.97
298.807	26.45
299.022	-45.23
299.236	26.45
299.451	-16.55
299.665	75.6
299.88	10.07
300.094	57.17
300.309	75.6
300.523	77.65
300.737	3.93
300.952	40.79
301.166	57.17
301.381	-12.46
301.595	10.07
301.809	12.12
302.024	-10.41
302.238	22.36
302.452	51.03
302.667	18.26
302.881	42.84
303.095	8.02
303.309	38.74
303.524	-10.41
303.738	98.13
303.952	63.32
304.166	-6.31
304.381	-45.23
304.595	38.74
304.809	-10.41
305.023	53.08
305.237	40.79
305.452	44.88
305.666	61.27
305.88	40.79
306.094	32.6
306.308	44.88
306.522	-0.17
306.736	16.21
306.95	65.36
307.164	-53.42
307.379	5.97
307.593	65.36
307.807	40.79
308.021	22.36
308.235	48.98
308.449	10.07
308.663	1.88
308.877	63.32
309.091	118.61
309.305	139.09
309.519	51.03
309.733	-10.41
309.947	42.84
310.161	65.36
310.374	38.74
310.588	79.7
310.802	24.4
311.016	65.36
311.23	-2.22
311.444	48.98
311.658	26.45
311.872	-6.31
312.085	40.79
312.299	77.65
312.513	3.93
312.727	10.07
312.941	28.5
313.154	112.47
313.368	32.6
313.582	40.79
313.796	-28.84
314.009	-0.17
314.223	98.13
314.437	42.84
314.651	10.07
314.864	48.98
315.078	16.21
315.292	61.27
315.505	-22.7
315.719	40.79
315.933	26.45
316.146	-57.51
316.36	8.02
316.573	26.45
316.787	12.12
317.001	-0.17
317.214	12.12
317.428	100.18
317.641	-8.36
317.855	42.84
318.068	-8.36
318.282	51.03
318.495	8.02
318.709	48.98
318.922	-0.17
319.136	38.74
319.349	51.03
319.563	44.88
319.776	44.88
319.99	5.97
320.203	-43.18
320.417	16.21
320.63	20.31
320.843	24.4
321.057	73.56
321.27	-4.27
321.483	61.27
321.697	63.32
321.91	12.12
322.124	10.07
322.337	46.93
322.55	-63.66
322.763	16.21
322.977	40.79
323.19	40.79
323.403	-4.27
323.617	-16.55
323.83	46.93
324.043	73.56
324.256	-24.75
324.469	-2.22
324.683	114.52
324.896	38.74
325.109	-28.84
325.322	16.21
325.535	75.6
325.748	22.36
325.962	12.12
326.175	-10.41
326.388	38.74
326.601	-22.7
326.814	59.22
327.027	59.22
327.24	61.27
327.453	-61.61
327.666	40.79
327.879	28.5
328.092	30.55
328.305	-24.75
328.518	-30.89
328.731	-28.84
328.944	114.52
329.157	20.31
329.37	-14.51
329.583	61.27
329.796	30.55
330.009	55.12
330.222	59.22
330.435	44.88
330.648	-28.84
330.861	98.13
331.073	1.88
331.286	48.98
331.499	69.46
331.712	18.26
331.925	69.46
332.138	30.55
332.35	87.89
332.563	59.22
332.776	34.64
332.989	38.74
333.202	10.07
333.414	61.27
333.627	30.55
333.84	38.74
334.053	-49.32
334.265	48.98
334.478	-26.79
334.691	63.32
334.903	26.45
335.116	16.21
335.329	83.8
335.541	53.08
335.754	71.51
335.966	-8.36
336.179	104.28
336.392	16.21
336.604	48.98
336.817	59.22
337.029	89.94
337.242	12.12
337.454	73.56
337.667	-82.09
337.88	-24.75
338.092	10.07
338.305	59.22
338.517	32.6
338.729	-32.94
338.942	77.65
339.154	18.26
339.367	-53.42
339.579	53.08
339.792	-20.65
340.004	55.12
340.217	-24.75
340.429	14.17
340.641	10.07
340.854	-63.66
341.066	-2.22
341.278	10.07
341.491	-2.22
341.703	-16.55
341.915	36.69
342.128	100.18
342.34	8.02
342.552	67.41
342.764	-61.61
342.977	-4.27
343.189	85.84
343.401	91.99
343.613	-2.22
343.826	14.17
344.038	-2.22
344.25	-8.36
344.462	26.45
344.674	83.8
344.886	85.84
345.099	-0.17
345.311	48.98
345.523	40.79
345.735	-12.46
345.947	46.93
346.159	75.6
346.371	46.93
346.583	34.64
346.795	75.6
347.007	-32.94
347.219	118.61
347.431	36.69
347.643	100.18
347.855	38.74
348.067	63.32
348.279	34.64
348.491	112.47
348.703	32.6
348.915	14.17
349.127	61.27
349.339	108.37
349.551	10.07
349.763	79.7
349.975	20.31
350.187	85.84
350.399	38.74
350.61	91.99
350.822	-4.27
351.034	30.55
351.246	-8.36
351.458	149.33
351.669	14.17
351.881	30.55
352.093	69.46
352.305	32.6
352.517	3.93
352.728	51.03
352.94	69.46
353.152	48.98
353.363	26.45
353.575	87.89
353.787	77.65
353.999	102.23
354.21	69.46
354.422	22.36
354.633	18.26
354.845	26.45
355.057	12.12
355.268	10.07
355.48	124.76
355.692	75.6
355.903	3.93
356.115	59.22
356.326	38.74
356.538	87.89
356.749	51.03
356.961	98.13
357.172	26.45
357.384	5.97
357.595	96.08
357.807	24.4
358.018	26.45
358.23	16.21
358.441	81.75
358.653	5.97
358.864	81.75
359.075	-30.89
359.287	67.41
359.498	94.04
359.709	104.28
359.921	81.75
360.132	26.45
360.344	-20.65
360.555	53.08
360.766	55.12
360.977	73.56
361.189	89.94
361.4	-6.31
361.611	110.42
361.823	67.41
362.034	65.36
362.245	55.12
362.456	-10.41
362.667	-24.75
362.879	3.93
363.09	-18.6
363.301	5.97
363.512	-18.6
363.723	5.97
363.935	-37.03
364.146	55.12
364.357	73.56
364.568	91.99
364.779	51.03
364.99	14.17
365.201	24.4
365.412	57.17
365.623	48.98
365.834	-10.41
366.045	-32.94
366.256	75.6
366.467	79.7
366.678	32.6
366.889	-45.23
367.1	-28.84
367.311	22.36
367.522	3.93
367.733	12.12
367.944	30.55
368.155	63.32
368.366	51.03
368.577	-16.55
368.788	87.89
368.999	18.26
369.209	48.98
369.42	65.36
369.631	110.42
369.842	20.31
370.053	22.36
370.264	10.07
370.474	-24.75
370.685	59.22
370.896	85.84
371.107	71.51
371.317	30.55
371.528	83.8
371.739	81.75
371.95	-30.89
372.16	42.84
372.371	24.4
372.582	-2.22
372.792	-43.18
373.003	48.98
373.214	53.08
373.424	-8.36
373.635	8.02
373.846	42.84
374.056	10.07
374.267	106.32
374.477	65.36
374.688	42.84
374.898	40.79
375.109	22.36
375.319	48.98
375.53	46.93
375.74	55.12
375.951	20.31
376.161	85.84
376.372	1.88
376.582	44.88
376.793	5.97
377.003	24.4
377.214	46.93
377.424	94.04
377.635	79.7
377.845	24.4
378.055	59.22
378.266	8.02
378.476	40.79
378.686	20.31
378.897	61.27
379.107	75.6
379.317	-55.47
379.528	20.31
379.738	102.23
379.948	10.07
380.158	46.93
380.369	51.03
380.579	75.6
380.789	55.12
380.999	10.07
381.21	48.98
381.42	20.31
381.63	81.75
381.84	34.64
382.05	69.46
382.261	75.6
382.471	128.85
382.681	77.65
382.891	42.84
383.101	100.18
383.311	22.36
383.521	-6.31
383.731	16.21
383.941	48.98
384.151	26.45
384.361	12.12
384.571	8.02
384.781	83.8
384.991	32.6
385.201	59.22
385.411	10.07
385.621	81.75
385.831	48.98
386.041	-47.27
386.251	3.93
386.461	5.97
386.671	63.32
386.881	104.28
387.091	-61.61
387.301	59.22
387.511	40.79
387.72	85.84
387.93	79.7
388.14	20.31
388.35	-16.55
388.56	18.26
388.769	14.17
388.979	32.6
389.189	24.4
389.399	42.84
389.609	1.88
389.818	110.42
390.028	38.74
390.238	69.46
390.447	34.64
390.657	102.23
390.867	42.84
391.076	5.97
391.286	22.36
391.496	24.4
391.705	18.26
391.915	120.66
392.125	10.07
392.334	36.69
392.544	51.03
392.753	77.65
392.963	16.21
393.172	65.36
393.382	48.98
393.591	137.04
393.801	24.4
394.01	104.28
394.22	26.45
394.429	18.26
394.639	36.69
394.848	147.28
395.058	24.4
395.267	102.23
395.477	91.99
395.686	38.74
395.895	83.8
396.105	89.94
396.314	100.18
396.524	108.37
396.733	96.08
396.942	104.28
397.152	126.8
397.361	69.46
397.57	81.75
397.78	106.32
397.989	44.88
398.198	108.37
398.407	81.75
398.617	63.32
398.826	65.36
399.035	26.45
399.244	106.32
399.453	141.14
399.663	32.6
399.872	135
400.081	120.66
400.29	178
400.499	48.98
400.708	135
400.917	108.37
401.127	143.19
401.336	116.56
401.545	120.66
401.754	124.76
401.963	124.76
402.172	94.04
402.381	61.27
402.59	77.65
402.799	128.85
403.008	102.23
403.217	63.32
403.426	118.61
403.635	126.8
403.844	102.23
404.053	57.17
404.262	186.19
404.471	178
404.68	122.71
404.888	83.8
405.097	87.89
405.306	114.52
405.515	145.24
405.724	173.91
405.933	155.47
406.142	96.08
406.35	175.95
406.559	194.39
406.768	126.8
406.977	272.21
407.185	155.47
407.394	165.71
407.603	216.91
407.812	159.57
408.02	245.59
408.229	169.81
408.438	178
408.646	196.43
408.855	161.62
409.064	223.06
409.272	202.58
409.481	241.49
409.69	208.72
409.898	237.39
410.107	221.01
410.315	374.61
410.524	239.44
410.733	343.89
410.941	325.46
411.15	407.38
411.358	374.61
411.567	403.28
411.775	354.13
411.984	364.37
412.192	425.81
412.401	415.57
412.609	468.81
412.818	483.15
413.026	444.24
413.234	530.25
413.443	520.01
413.651	464.72
413.86	497.49
414.068	515.92
414.276	532.3
414.485	552.78
414.693	575.31
414.901	640.84
415.11	665.42
415.318	624.46
415.526	706.38
415.734	638.8
415.943	728.91
416.151	823.11
416.359	730.95
416.567	786.25
416.776	872.26
416.984	874.31
417.192	931.66
417.4	855.88
417.608	937.8
417.817	931.66
418.025	964.42
418.233	1091.4
418.441	1115.97
418.649	1007.43
418.857	1187.65
419.065	1199.94
419.273	1156.93
419.481	1195.84
419.689	1367.87
419.897	1363.78
420.105	1443.65
420.313	1417.02
420.521	1531.71
420.729	1521.47
420.937	1515.33
421.145	1630.01
421.353	1699.64
421.561	1736.51
421.769	1752.89
421.977	1859.38
422.185	1769.27
422.393	2074.42
422.601	2058.04
422.809	2146.1
423.017	2154.29
423.224	2197.3
423.432	2258.74
423.64	2234.16
423.848	2430.77
424.056	2389.81
424.263	2553.65
424.471	2572.08
424.679	2758.44
424.887	2760.49
425.094	2860.84
425.302	2940.71
425.51	3122.98
425.718	3104.55
425.925	3200.8
426.133	3325.73
426.341	3411.75
426.548	3708.7
426.756	3516.19
426.964	3751.71
427.171	3936.03
427.379	3976.98
427.586	4007.7
427.794	4185.88
428.001	4327.19
428.209	4441.87
428.417	4448.02
428.624	4792.08
428.832	4634.38
429.039	4759.31
429.247	4765.45
429.454	5289.73
429.662	5562.11
429.869	5119.75
430.076	5680.89
430.284	5410.56
430.491	5771.01
430.699	5969.66
430.906	5961.47
431.114	6115.06
431.321	6283
431.528	6473.46
431.736	6760.17
431.943	7165.67
432.15	6881
432.358	6924.01
432.565	7286.5
432.772	7313.13
432.979	7677.66
433.187	7911.13
433.394	7896.8
433.601	8459.99
433.808	8406.74
434.016	8410.84
434.223	8636.11
434.43	9277.13
434.637	8957.64
434.844	9707.2
435.052	9873.09
435.259	9969.34
435.466	9928.38
435.673	9815.74
435.88	10278.58
436.087	11071.15
436.294	10997.42
436.501	10825.39
436.708	11196.07
436.915	11417.26
437.122	12064.41
437.329	11900.58
437.537	12170.91
437.743	12482.2
437.95	12424.86
438.157	12930.7
438.364	13565.57
438.571	13282.95
438.778	13551.24
438.985	14720.63
439.192	14280.32
439.399	14720.63
439.606	14448.25
439.813	15126.13
440.02	16082.53
440.227	15898.21
440.433	15806.05
440.64	15896.16
440.847	15961.7
441.054	16359
441.261	17628.74
441.467	17448.52
441.674	17841.73
441.881	18400.83
442.088	18318.91
442.294	18177.6
442.501	18626.11
442.708	18826.81
442.914	19891.75
443.121	20495.9
443.328	20037.16
443.534	21773.83
443.741	20829.72
443.948	20532.76
444.154	22154.76
444.361	22038.02
444.568	22515.2
444.774	21913.09
444.981	22453.76
445.187	22869.5
445.394	24038.89
445.6	23639.53
445.807	25888.2
446.013	24833.5
446.22	25232.85
446.426	26179.01
446.633	26512.83
446.839	27268.53
447.046	26262.98
447.252	27989.42
447.459	27927.98
447.665	27633.07
447.871	29109.66
448.078	30193.03
448.284	28806.56
448.491	29494.68
448.697	30754.18
448.903	31212.92
449.11	31315.32
449.316	30766.46
449.522	31190.39
449.728	32236.91
449.935	32267.62
450.141	32390.5
450.347	33113.44
450.553	31905.13
450.76	32257.39
450.966	33434.97
451.172	32798.05
451.378	33920.34
451.584	33563.99
451.791	34323.79
451.997	34176.33
452.203	34968.9
452.409	34704.71
452.615	34721.09
452.821	33119.58
453.027	33002.85
453.233	34655.56
453.44	33291.61
453.646	33389.91
453.852	33928.53
454.058	34469.19
454.264	33228.12
454.47	34241.87
454.676	33512.79
454.882	34370.89
455.088	31434.1
455.294	31483.25
455.5	32316.78
455.705	32621.92
455.911	31389.05
456.117	30702.98
456.323	30309.77
456.529	28667.3
456.735	29918.6
456.941	29089.18
457.147	28755.36
457.352	27770.29
457.558	27442.61
457.764	27508.15
457.97	26887.61
458.176	26127.81
458.381	26398.15
458.587	25069.01
458.793	25427.41
458.999	23825.9
459.204	25370.07
459.41	24997.34
459.616	23397.87
459.821	23027.19
460.027	23078.39
460.233	22613.5
460.438	21368.34
460.644	21751.31
460.85	20624.92
461.055	20375.07
461.261	20155.94
461.466	18941.49
461.672	18144.83
461.878	19523.12
462.083	18210.37
462.289	17860.16
462.494	17802.82
462.7	17165.9
462.905	16668.25
463.111	17028.69
463.316	17126.99
463.522	16928.34
463.727	17000.02
463.932	16635.48
464.138	16662.1
464.343	16520.79
464.549	16180.83
464.754	16574.04
464.959	16481.88
465.165	16406.11
465.37	15705.7
465.575	15521.38
465.781	15935.07
465.986	16242.27
466.191	15545.96
466.397	15167.09
466.602	14564.98
466.807	14859.89
467.012	14712.44
467.218	14763.64
467.423	14653.05
467.628	14696.05
467.833	15595.11
468.038	14734.96
468.244	14487.16
468.449	15101.55
468.654	14407.29
468.859	14257.79
469.064	14478.97
469.269	13721.22
469.474	13905.54
469.679	14210.68
469.885	13557.38
470.09	13758.08
470.295	13837.95
470.5	13483.66
470.705	13641.35
470.91	13078.16
471.115	13211.28
471.32	13475.46
471.525	13307.53
471.73	12983.95
471.935	12527.25
472.139	12406.42
472.344	12705.43
472.549	12721.81
472.754	12267.16
472.959	12125.85
473.164	11714.21
473.369	11589.28
473.574	11984.54
473.778	12019.36
473.983	11867.81
474.188	11994.78
474.393	11538.09
474.598	11714.21
474.802	11304.62
475.007	11069.1
475.212	11333.29
475.417	10569.4
475.621	10927.79
475.826	10802.86
476.031	10614.45
476.235	10438.33
476.44	10352.31
476.645	10395.32
476.849	10235.58
477.054	10098.36
477.259	9995.96
477.463	9811.65
477.668	9780.93
477.872	9887.42
478.077	9846.46
478.282	9461.44
478.486	9531.08
478.691	9408.2
478.895	9246.41
479.1	9311.94
479.304	9219.78
479.509	9025.23
479.713	9180.87
479.918	8988.36
480.122	8675.02
480.326	9172.68
480.531	9139.91
480.735	9184.97
480.94	8933.07
481.144	9150.15
481.348	8752.85
481.553	8838.86
481.757	8679.12
481.961	8842.96
482.166	8793.81
482.37	8783.57
482.574	8546
482.778	8748.75
482.983	8750.8
483.187	8752.85
483.391	8654.55
483.595	8595.15
483.8	8441.56
484.004	8586.96
484.208	8740.56
484.412	8668.88
484.616	8802
484.821	8533.72
485.025	8462.04
485.229	8603.35
485.433	8662.74
485.637	8466.13
485.841	8619.73
486.045	8494.8
486.249	8808.14
486.453	8406.74
486.657	8546
486.861	8758.99
487.065	8312.53
487.269	8507.09
487.473	8382.17
487.677	8668.88
487.881	8511.19
488.085	8646.35
488.289	8707.79
488.493	8640.21
488.697	8603.35
488.901	8746.7
489.105	8603.35
489.309	8658.64
489.512	8740.56
489.716	8806.09
489.92	8552.15
490.124	8586.96
490.328	8818.38
490.531	8728.27
490.735	8877.77
490.939	8644.31
491.143	8834.77
491.346	8978.12
491.55	8885.97
491.754	9008.84
491.958	9019.08
492.161	8996.56
492.365	9004.75
492.569	9006.8
492.772	9184.97
492.976	9021.13
493.18	8939.21
493.383	9311.94
493.587	9389.77
493.79	9565.89
493.994	9332.42
494.197	9369.29
494.401	9404.1
494.605	9463.49
494.808	9674.43
495.012	9625.28
495.215	9762.5
495.419	9821.89
495.622	9795.26
495.825	10010.3
496.029	9948.86
496.232	10256.06
496.436	10081.98
496.639	10350.26
496.843	10434.23
497.046	10604.21
497.249	10495.67
497.453	10618.55
497.656	10688.18
497.859	10802.86
498.063	11058.86
498.266	11218.6
498.469	11069.1
498.673	11329.19
498.876	11404.97
499.079	11384.49
499.282	11458.21
499.485	12023.45
499.689	11953.82
499.892	11966.11
500.095	11888.29
500.298	12207.77
500.501	11978.4
500.705	12410.52
500.908	12426.9
501.111	12730
501.314	12822.16
501.517	12639.89
501.72	13131.4
501.923	13029.01
502.126	13178.51
502.329	13647.49
502.532	13690.5
502.735	13821.57
502.938	13887.11
503.141	14014.08
503.344	14362.23
503.547	14466.68
503.75	14491.26
503.953	14683.77
504.156	14628.47
504.359	15105.65
504.562	15111.79
504.765	15384.17
504.968	15509.1
505.17	15562.34
505.373	15781.48
505.576	15777.38
505.779	16100.96
505.982	16234.08
506.185	16698.97
506.387	16541.27
506.59	16873.04
506.793	16950.87
506.996	16987.73
507.198	17497.67
507.401	17450.57
507.604	17608.26
507.807	17829.45
508.009	17825.35
508.212	18202.18
508.415	18228.8
508.617	18568.76
508.82	18456.12
509.022	18468.41
509.225	18957.88
509.428	18945.59
509.63	19340.85
509.833	19476.01
510.035	19822.12
510.238	19760.68
510.44	20018.72
510.643	20241.95
510.845	20422.17
511.048	20080.16
511.25	20479.52
511.453	20571.68
511.655	21528.08
511.858	21190.16
512.06	21372.43
512.262	21702.15
512.465	21644.81
512.667	21937.67
512.87	22068.74
513.072	22171.14
513.274	22820.35
513.477	22912.5
513.679	22611.45
513.881	23283.19
514.084	23297.52
514.286	23320.05
514.488	23471.6
514.69	24042.98
514.893	24251.88
515.095	24192.48
515.297	24753.63
515.499	24552.93
515.701	24839.64
515.904	24933.85
516.106	25408.98
516.308	25636.3
516.51	25679.31
516.712	26113.48
516.914	25927.11
517.116	26506.69
517.318	26340.8
517.52	26617.28
517.722	26813.88
517.925	27061.69
518.127	27143.61
518.329	27624.88
518.531	27071.93
518.733	27889.07
518.935	28325.29
519.136	28089.77
519.338	28437.92
519.54	28431.78
519.742	28876.19
519.944	28818.85
520.146	29351.32
520.348	29201.82
520.55	29332.89
520.752	29605.27
520.954	29941.13
521.155	30061.96
521.357	30338.44
521.559	30451.08
521.761	30997.88
521.963	30948.73
522.164	31196.54
522.366	31063.42
522.568	31161.72
522.77	31724.91
522.971	32021.87
523.173	31473.01
523.375	31841.65
523.576	31749.49
523.778	31995.25
523.98	32275.82
524.181	32318.82
524.383	32505.19
524.584	32947.55
524.786	32701.79
524.988	32675.17
525.189	33228.12
525.391	33297.75
525.592	33424.73
525.794	33246.55
525.995	33711.44
526.197	33733.97
526.398	33461.59
526.6	34098.51
526.801	33819.99
527.003	34221.39
527.204	34106.7
527.406	33996.11
527.607	34686.28
527.808	34647.36
528.01	33869.14
528.211	34417.99
528.412	34811.2
528.614	34608.45
528.815	34622.79
529.016	35061.05
529.218	34827.59
529.419	34936.13
529.62	35222.84
529.822	34954.56
530.023	34725.19
530.224	35409.21
530.425	35290.43
530.626	35292.47
530.828	35024.19
531.029	35663.16
531.23	35401.02
531.431	35425.59
531.632	35605.81
531.833	35646.77
532.035	35499.32
532.236	35110.21
532.437	35753.27
532.638	35134.78
532.839	35585.33
533.04	35491.13
533.241	35251.52
533.442	35919.15
533.643	35671.35
533.844	35736.88
534.045	35734.84
534.246	35194.17
534.447	35898.67
534.648	35353.91
534.849	35444.02
535.05	35042.62
535.251	35282.23
535.451	35577.14
535.652	36013.36
535.853	35585.33
536.054	35659.06
536.255	35499.32
536.456	35341.63
536.657	36238.64
536.857	35097.92
537.058	35317.05
537.259	35556.66
537.46	35814.71
537.66	35267.9
537.861	35620.15
538.062	35474.74
538.263	35931.44
538.463	35169.6
538.664	35235.13
538.865	35712.31
539.065	35777.84
539.266	35009.86
539.466	35405.11
539.667	35028.29
539.868	35663.16
540.068	35474.74
540.269	35308.86
540.469	35425.59
540.67	35235.13
540.87	35489.08
541.071	35077.44
541.271	35118.4
541.472	35181.88
541.672	35296.57
541.873	35208.51
542.073	35073.34
542.274	35380.54
542.474	35171.64
542.675	35466.55
542.875	35366.2
543.075	34962.75
543.276	34774.34
543.476	35454.26
543.676	35112.25
543.877	34987.33
544.077	34774.34
544.277	35179.84
544.478	35104.06
544.678	35300.67
544.878	34958.66
545.078	35032.38
545.279	34766.15
545.479	34526.53
545.679	35261.76
545.879	35026.24
546.079	34647.36
546.28	34960.7
546.48	34700.61
546.68	35409.21
546.88	35120.45
547.08	35165.5
547.28	34839.87
547.48	34843.97
547.68	34927.94
547.88	34446.66
548.081	35095.87
548.281	35038.53
548.481	34544.97
548.681	34938.18
548.881	34852.16
549.081	35087.68
549.28	34741.57
549.48	34989.38
549.68	34698.56
549.88	35192.12
550.08	34659.65
550.28	34852.16
550.48	34639.17
550.68	35073.34
550.88	34704.71
551.08	34745.67
551.279	34540.87
551.479	34438.47
551.679	34817.35
551.879	34530.63
552.079	34667.84
552.278	34561.35
552.478	34305.35
552.678	34444.62
552.878	34897.22
553.077	34745.67
553.277	34301.26
553.477	34927.94
553.676	34342.22
553.876	34800.96
554.076	34051.41
554.275	34035.02
554.475	34262.35
554.674	34491.72
554.874	34499.91
555.074	34481.48
555.273	34225.48
555.473	34790.72
555.672	33918.29
555.872	34196.81
556.071	34493.77
556.271	34610.5
556.47	33922.38
556.67	33914.19
556.869	33875.28
557.068	34182.48
557.268	33824.08
557.467	33832.27
557.667	34262.35
557.866	34305.35
558.065	34184.52
558.265	33690.96
558.464	33774.93
558.663	34268.49
558.863	33680.72
559.062	33996.11
559.261	33809.75
559.461	34137.42
559.66	33355.1
559.859	33570.13
560.058	33674.58
560.258	33873.23
560.457	33260.89
560.656	34108.75
560.855	33400.15
561.054	33783.12
561.253	33590.61
561.453	33717.59
561.652	33799.51
561.851	33617.24
562.05	33303.9
562.249	33078.62
562.448	33490.26
562.647	33496.41
562.846	33471.83
563.045	33162.59
563.244	32990.56
563.443	33275.23
563.642	33045.85
563.841	33039.71
564.04	33178.97
564.239	33473.88
564.438	32951.65
564.637	32716.13
564.836	32695.65
565.035	32824.67
565.234	32947.55
565.432	33006.94
565.631	32513.38
565.83	32882.02
566.029	32752.99
566.228	32783.71
566.427	32849.25
566.625	32378.22
566.824	32544.1
567.023	32677.22
567.222	32181.61
567.42	32595.3
567.619	32146.79
567.818	32271.72
568.016	32294.25
568.215	32322.92
568.414	32236.91
568.612	32408.93
568.811	32175.47
569.01	31923.57
569.208	31798.64
569.407	32099.69
569.605	31444.34
569.804	32099.69
570.002	31688.05
570.201	31972.72
570.4	31604.08
570.598	31307.13
570.797	31493.49
570.995	31505.78
571.193	31382.9
571.392	31671.67
571.59	31348.09
571.789	31479.16
571.987	31241.59
572.186	31358.33
572.384	30985.6
572.582	31348.09
572.781	31249.78
572.979	31094.14
573.177	30965.12
573.376	31006.08
573.574	30981.5
573.772	31112.57
573.971	30942.59
574.169	30768.51
574.367	30324.1
574.565	30397.83
574.763	30516.61
574.962	30651.78
575.16	30207.37
575.358	30766.46
575.556	30156.17
575.754	30860.67
575.952	30225.8
576.151	30543.24
576.349	29994.38
576.547	30213.51
576.745	30037.39
576.943	30061.96
577.141	30037.39
577.339	30104.97
577.537	29924.75
577.735	29783.44
577.933	29973.9
578.131	29861.26
578.329	29392.28
578.527	29334.93
578.725	29263.25
578.923	29613.46
579.121	29369.75
579.319	29519.25
579.516	29654.42
579.714	29486.48
579.912	29132.18
580.11	29009.31
580.308	28884.38
580.506	28972.44
580.704	28824.99
580.901	28988.83
581.099	28913.05
581.297	28687.78
581.495	28681.63
581.692	28689.82
581.89	28534.18
582.088	28628.38
582.285	28597.66
582.483	28650.91
582.681	28151.21
582.878	28081.58
583.076	27956.65
583.274	28048.81
583.471	27766.19
583.669	28069.29
583.866	27774.38
584.064	28171.69
584.262	27528.63
584.459	27739.57
584.657	27930.03
584.854	27749.81
585.052	27487.67
585.249	28057
585.447	27827.63
585.644	27309.49
585.841	27487.67
586.039	27461.04
586.236	26686.91
586.434	27088.31
586.631	27006.39
586.828	27155.89
587.026	26979.77
587.223	26686.91
587.42	26791.36
587.618	26568.13
587.815	26631.61
588.012	26510.78
588.21	26502.59
588.407	26615.23
588.604	26414.53
588.801	26039.75
588.999	26301.89
589.196	26168.77
589.393	26045.9
589.59	26164.68
589.787	26056.14
589.984	25765.32
590.182	25638.35
590.379	26049.99
590.576	25744.84
590.773	25914.83
590.97	25329.11
591.167	25474.51
591.364	25226.71
591.561	25488.85
591.758	25224.66
591.955	25222.61
592.152	25200.08
592.349	25169.37
592.546	25066.97
592.743	25296.34
592.94	24872.41
593.137	24624.61
593.334	24868.31
593.531	24466.91
593.727	24837.59
593.924	24509.92
594.121	24489.44
594.318	24176.1
594.515	24112.61
594.712	24442.34
594.908	24262.12
595.105	24331.75
595.302	24112.61
595.499	23864.81
595.696	23983.59
595.892	23942.63
596.089	24137.19
596.286	24104.42
596.482	23631.34
596.679	23840.23
596.876	24133.09
597.072	23574
597.269	23289.33
597.466	23539.18
597.662	23322.1
597.859	23395.82
598.055	23289.33
598.252	23053.81
598.448	23102.96
598.645	22957.56
598.841	23127.54
599.038	23002.61
599.234	23133.68
599.431	22537.73
599.627	22693.37
599.824	22857.21
600.02	22179.33
600.217	22492.67
600.413	22625.79
600.609	22355.46
600.806	22115.84
601.002	22418.94
601.198	22128.13
601.395	21986.82
601.591	22050.31
601.787	22072.84
601.984	21644.81
602.18	21954.05
602.376	21591.56
602.572	21562.89
602.769	21696.01
602.965	21575.18
603.161	21739.02
603.357	21374.48
603.553	21386.77
603.75	21218.83
603.946	21431.82
604.142	21712.39
604.338	20885.01
604.534	21349.9
604.73	20897.3
604.926	20948.5
605.122	21048.85
605.318	20676.12
605.514	20479.52
605.71	20698.65
605.906	20954.65
606.102	20581.92
606.298	20653.59
606.494	20749.85
606.69	20518.43
606.886	20624.92
607.082	20143.65
607.278	20483.61
607.474	20203.04
607.67	20284.96
607.866	20033.06
608.062	20104.74
608.257	19871.27
608.453	20014.63
608.649	20354.59
608.845	20166.18
609.041	20106.79
609.236	19912.23
609.432	19578.41
609.628	20248.1
609.824	19779.11
610.019	19772.97
610.215	19709.48
610.411	19709.48
610.606	19832.36
610.802	19738.15
610.998	19732.01
611.193	19531.31
611.389	19363.37
611.584	19385.9
611.78	19349.04
611.976	19521.07
612.171	19398.19
612.367	19236.4
612.562	19109.43
612.758	19113.52
612.953	18988.6
613.149	19217.97
613.344	19019.32
613.539	19342.89
613.735	19035.7
613.93	19127.86
614.126	18742.84
614.321	18978.36
614.517	18775.61
614.712	18667.06
614.907	18923.06
615.103	18824.76
615.298	18822.71
615.493	18972.21
615.688	18587.19
615.884	19097.14
616.079	18505.27
616.274	18583.1
616.47	18617.91
616.665	18511.42
616.86	18640.44
617.055	18654.78
617.25	18406.97
617.445	18548.28
617.641	18187.84
617.836	18392.64
618.031	18036.29
618.226	18136.64
618.421	18161.22
618.616	18357.82
618.811	17915.46
619.006	18058.82
619.201	17935.94
619.396	17868.36
619.591	17612.36
619.786	18026.05
619.981	17460.81
620.176	17739.33
620.371	17268.3
620.566	17352.27
620.761	17440.33
620.956	17419.85
621.151	17180.24
621.346	17276.49
621.541	17092.18
621.735	17221.2
621.93	16479.83
622.125	16930.39
622.32	16723.54
622.515	16604.76
622.709	16404.06
622.904	16334.43
623.099	16354.91
623.294	16324.19
623.488	16264.8
623.683	16062.05
623.878	16031.33
624.072	15804
624.267	16033.38
624.462	15810.15
624.656	15595.11
624.851	15717.99
625.046	15560.3
625.24	15492.71
625.435	15427.18
625.629	15267.44
625.824	15269.48
626.018	15210.09
626.213	14794.36
626.407	14913.14
626.602	14816.88
626.796	14837.36
626.991	14743.16
627.185	14661.24
627.38	14542.46
627.574	14401.15
627.768	14417.53
627.963	14300.8
628.157	14325.37
628.352	14257.79
628.546	14153.34
628.74	14308.99
628.935	13942.4
629.129	13958.78
629.323	13954.69
629.517	14007.94
629.712	13704.84
629.906	13567.62
630.1	13661.83
630.294	13604.49
630.489	13487.75
630.683	13381.26
630.877	13223.56
631.071	13045.39
631.265	13295.24
631.459	13090.45
631.653	13035.15
631.848	12936.85
632.042	12865.17
632.236	12684.95
632.43	12854.93
632.624	12822.16
632.818	12650.13
633.012	12646.04
633.206	12408.47
633.4	12635.8
633.594	12181.15
633.788	12279.45
633.982	12365.46
634.176	12205.72
634.369	11832.99
634.563	12115.61
634.757	12009.12
634.951	12127.9
635.145	11914.91
635.339	11974.3
635.533	11671.2
635.726	11710.11
635.92	11628.2
636.114	11570.85
636.308	11521.7
636.501	11452.07
636.695	11521.7
636.889	11464.36
637.083	11308.71
637.276	11042.48
637.47	11144.88
637.664	11210.41
637.857	11189.93
638.051	11001.52
638.244	10913.45
638.438	10917.55
638.632	10927.79
638.825	10581.68
639.019	10684.08
639.212	10589.88
639.406	10647.22
639.599	10567.35
639.793	10514.1
639.986	10450.61
640.18	10501.81
640.373	10417.85
640.567	10335.93
640.76	10231.48
640.954	10290.87
641.147	9998.01
641.34	9959.1
641.534	10055.36
641.727	9914.05
641.92	10002.11
642.114	9791.17
642.307	9785.02
642.5	9672.39
642.694	9510.6
642.887	9588.42
643.08	9565.89
643.273	9490.12
643.467	9463.49
643.66	9369.29
643.853	9371.33
644.046	9268.94
644.239	9277.13
644.432	9086.67
644.626	9166.54
644.819	9086.67
645.012	9068.23
645.205	9043.66
645.398	8890.06
645.591	8910.54
645.784	9006.8
645.977	8677.07
646.17	8808.14
646.363	8638.16
646.556	8384.21
646.749	8591.06
646.942	8521.43
647.135	8431.32
647.328	8361.69
647.521	8457.94
647.714	8343.25
647.907	8265.43
648.099	8103.64
648.292	8183.51
648.485	8185.56
648.678	7980.76
648.871	7952.09
649.064	8050.39
649.256	8197.85
649.449	8144.6
649.642	8158.94
649.835	7759.58
650.027	7900.89
650.22	8062.68
650.413	7861.98
650.605	7726.82
650.798	7671.52
650.991	7741.15
651.183	7519.97
651.376	7597.79
651.568	7495.39
651.761	7581.41
651.954	7479.01
652.146	7358.18
652.339	7429.86
652.531	7315.17
652.724	7397.09
652.916	7292.65
653.109	7177.96
653.301	7225.06
653.494	7067.37
653.686	7034.6
653.879	7202.54
654.071	7225.06
654.263	6915.82
654.456	6901.48
654.648	6835.95
654.84	6924.01
655.033	6801.13
655.225	6813.42
655.417	6788.85
655.61	6766.32
655.802	6838
655.994	6704.88
656.186	6506.23
656.379	6602.48
656.571	6559.47
656.763	6508.27
656.955	6518.51
657.148	6418.16
657.34	6428.4
657.532	6512.37
657.724	6500.08
657.916	6219.51
658.108	6268.66
658.3	6401.78
658.492	6268.66
658.684	6178.55
658.876	6233.85
659.068	6123.26
659.26	6014.71
659.452	6057.72
659.644	5955.32
659.836	6043.39
660.028	6088.44
660.22	5805.82
660.412	5852.92
660.604	5822.2
660.796	5877.5
660.988	5836.54
661.18	5885.69
661.372	5711.61
661.563	5695.23
661.755	5662.46
661.947	5766.91
662.139	5601.02
662.331	5545.73
662.522	5558.02
662.714	5615.36
662.906	5406.47
663.097	5512.96
663.289	5447.43
663.481	5457.67
663.673	5259.01
663.864	5576.45
664.056	5349.12
664.247	5289.73
664.439	5177.09
664.631	5261.06
664.822	5060.36
665.014	5322.5
665.205	5123.85
665.397	5199.62
665.588	5129.99
665.78	5218.05
665.971	5136.13
666.163	5162.76
666.354	5091.08
666.546	5054.22
666.737	4984.59
666.929	4929.29
667.12	5056.26
667.311	4873.99
667.503	4925.19
667.694	4871.95
667.885	4900.62
668.077	4998.92
668.268	4708.11
668.459	4830.99
668.651	4630.29
668.842	4820.75
669.033	4734.73
669.224	4620.05
669.416	4677.39
669.607	4570.9
669.798	4574.99
669.989	4474.64
670.18	4656.91
670.371	4501.26
670.563	4613.9
670.754	4673.29
670.945	4577.04
671.136	4540.18
671.327	4466.45
671.518	4343.57
671.709	4470.55
671.9	4460.31
672.091	4384.53
672.282	4407.06
672.473	4333.33
672.664	4263.7
672.855	4288.28
673.046	4486.93
673.237	4343.57
673.428	4339.48
673.619	4294.42
673.809	4196.12
674	4196.12
674.191	4214.55
674.382	4171.54
674.573	4185.88
674.764	4146.97
674.954	4140.82
675.145	4271.89
675.336	4024.09
675.527	4232.98
675.717	4019.99
675.908	4003.61
676.099	4017.94
676.289	4122.39
676.48	4001.56
676.671	3993.37
676.861	4099.86
677.052	3915.55
677.243	3727.13
677.433	3997.46
677.624	3880.73
677.814	3985.18
678.005	4040.47
678.195	3893.02
678.386	3864.35
678.576	3831.58
678.767	3915.55
678.957	3782.43
679.148	3919.64
679.338	3833.63
679.529	3970.84
679.719	3782.43
679.909	3749.66
680.1	3811.1
680.29	3858.2
680.481	3835.67
680.671	3761.95
680.861	3645.21
681.052	3770.14
681.242	3747.61
681.432	3751.71
681.622	3751.71
681.813	3647.26
682.003	3688.22
682.193	3749.66
682.383	3766.04
682.573	3669.79
682.764	3540.77
682.954	3641.12
683.144	3675.93
683.334	3575.58
683.524	3614.49
683.714	3626.78
683.904	3516.19
684.094	3563.29
684.284	3604.25
684.474	3594.01
684.664	3532.58
684.854	3530.53
685.044	3462.94
685.234	3372.83
685.424	3428.13
685.614	3477.28
685.804	3432.22
685.994	3634.97
686.184	3514.14
686.374	3413.79
686.564	3313.44
686.753	3319.59
686.943	3247.91
687.133	3274.53
687.323	3346.21
687.513	3268.39
687.702	3221.28
687.892	3188.52
688.082	3237.67
688.272	3151.65
688.461	3282.72
688.651	3270.44
688.841	3133.22
689.03	3180.32
689.22	3061.54
689.41	3258.15
689.599	3141.41
689.789	3196.71
689.979	3075.88
690.168	2998.06
690.358	3100.45
690.547	3022.63
690.737	3129.13
690.926	3026.73
691.116	3094.31
691.305	3036.97
691.495	2983.72
691.684	2918.18
691.874	2977.58
692.063	3014.44
692.252	2950.95
692.442	2926.38
692.631	2912.04
692.82	2772.78
693.01	2893.61
693.199	2938.66
693.388	2957.1
693.578	2772.78
693.767	2895.66
693.956	2953
694.146	2789.16
694.335	2799.4
694.524	2834.22
694.713	2805.55
694.902	2866.99
695.092	2805.55
695.281	2815.79
695.47	2674.48
695.659	2703.15
695.848	2733.87
696.037	2840.36
696.226	2842.41
696.415	2836.27
696.604	2766.64
696.793	2744.11
696.982	2686.76
697.171	2791.21
697.36	2737.96
697.549	2717.48
697.738	2707.24
697.927	2623.28
698.116	2662.19
698.305	2797.35
698.494	2885.42
698.683	2651.95
698.872	2676.52
699.061	2567.98
699.25	2674.48
699.438	2598.7
699.627	2656.04
699.816	2666.28
700.005	2604.85
700.193	2629.42
700.382	2662.19
700.571	2662.19
700.76	2678.57
700.948	2617.13
701.137	2643.76
701.326	2697
701.514	2608.94
701.703	2727.72
701.892	2705.2
702.08	2647.85
702.269	2629.42
702.457	2600.75
702.646	2613.04
702.834	2590.51
703.023	2539.31
703.212	2608.94
703.4	2676.52
703.589	2606.89
703.777	2598.7
703.965	2588.46
704.154	2719.53
704.342	2567.98
704.531	2617.13
704.719	2670.38
704.907	2629.42
705.096	2565.93
705.284	2549.55
705.472	2639.66
705.661	2559.79
705.849	2596.65
706.037	2610.99
706.226	2608.94
706.414	2623.28
706.602	2672.43
706.79	2567.98
706.979	2629.42
707.167	2703.15
707.355	2619.18
707.543	2559.79
707.731	2547.5
707.919	2524.97
708.107	2576.17
708.296	2586.41
708.484	2565.93
708.672	2582.32
708.86	2496.3
709.048	2502.45
709.236	2404.14
709.424	2484.02
709.612	2635.57
709.8	2594.61
709.988	2522.93
710.176	2576.17
710.364	2518.83
710.551	2584.37
710.739	2504.5
710.927	2578.22
711.115	2481.97
711.303	2430.77
711.491	2588.46
711.679	2506.54
711.866	2559.79
712.054	2572.08
712.242	2494.26
712.43	2481.97
712.617	2469.68
712.805	2504.5
712.993	2522.93
713.181	2524.97
713.368	2490.16
713.556	2608.94
713.744	2410.29
713.931	2627.37
714.119	2408.24
714.306	2473.78
714.494	2592.56
714.682	2461.49
714.869	2531.12
715.057	2486.06
715.244	2463.54
715.432	2322.23
715.619	2621.23
715.807	2471.73
715.994	2506.54
716.182	2582.32
716.369	2518.83
716.556	2471.73
716.744	2455.34
716.931	2504.5
717.119	2383.66
717.306	2389.81
717.493	2408.24
717.681	2475.82
717.868	2412.34
718.055	2555.69
718.242	2414.38
718.43	2387.76
718.617	2479.92
718.804	2414.38
718.991	2494.26
719.179	2373.43
719.366	2412.34
719.553	2404.14
719.74	2463.54
719.927	2434.86
720.114	2457.39
720.301	2473.78
720.488	2375.47
720.676	2359.09
720.863	2426.67
721.05	2334.51
721.237	2418.48
721.424	2510.64
721.611	2408.24
721.798	2586.41
721.985	2375.47
722.172	2406.19
722.358	2430.77
722.545	2252.59
722.732	2303.79
722.919	2326.32
723.106	2398
723.293	2305.84
723.48	2285.36
723.667	2344.75
723.853	2389.81
724.04	2365.23
724.227	2246.45
724.414	2430.77
724.6	2281.27
724.787	2295.6
724.974	2496.3
725.161	2271.03
725.347	2301.75
725.534	2406.19
725.72	2320.18
725.907	2279.22
726.094	2332.47
726.28	2338.61
726.467	2309.94
726.653	2146.1
726.84	2422.58
727.027	2367.28
727.213	2250.55
727.4	2342.71
727.586	2281.27
727.773	2232.12
727.959	2279.22
728.145	2375.47
728.332	2271.03
728.518	2311.99
728.705	2207.54
728.891	2234.16
729.077	2193.2
729.264	2195.25
729.45	2279.22
729.636	2354.99
729.823	2199.35
730.009	2254.64
730.195	2344.75
730.382	2195.25
730.568	2348.85
730.754	2268.98
730.94	2101.05
731.126	2285.36
731.313	2279.22
731.499	2211.64
731.685	2369.33
731.871	2207.54
732.057	2180.92
732.243	2146.1
732.429	2219.83
732.615	2283.31
732.801	2217.78
732.987	2129.72
733.173	2244.4
733.359	2146.1
733.545	2162.48
733.731	2166.58
733.917	2264.88
734.103	2125.62
734.289	2299.7
734.475	2115.38
734.661	2236.21
734.847	2199.35
735.033	2125.62
735.219	2195.25
735.404	2080.57
735.59	2203.44
735.776	2062.13
735.962	2203.44
736.148	2162.48
736.333	2189.11
736.519	2189.11
736.705	2109.24
736.89	2049.85
737.076	2002.74
737.262	2076.47
737.447	2064.18
737.633	2131.76
737.819	2082.61
738.004	1969.98
738.19	2035.51
738.375	2039.61
738.561	2090.81
738.747	1953.59
738.932	1972.02
739.118	2027.32
739.303	2139.96
739.489	2058.04
739.674	1900.34
739.859	1902.39
740.045	2012.98
740.23	1937.21
740.416	1900.34
740.601	1961.78
740.786	1959.74
740.972	1984.31
741.157	2047.8
741.342	1892.15
741.528	1890.1
741.713	1904.44
741.898	1857.34
742.084	1953.59
742.269	1943.35
742.454	1883.96
742.639	1933.11
742.824	1883.96
743.01	1947.45
743.195	1906.49
743.38	1922.87
743.565	1861.43
743.75	1742.65
743.935	1865.53
744.12	1890.1
744.305	1859.38
744.49	1677.12
744.675	1783.61
744.86	1787.71
745.045	1869.62
745.23	1781.56
745.415	1697.6
745.6	1752.89
745.785	1658.68
745.97	1675.07
746.155	1748.79
746.34	1709.88
746.525	1689.4
746.71	1648.44
746.895	1623.87
747.079	1720.12
747.264	1568.57
747.449	1609.53
747.634	1740.6
747.819	1738.55
748.003	1662.78
748.188	1558.33
748.373	1576.77
748.557	1521.47
748.742	1621.82
748.927	1619.77
749.111	1519.42
749.296	1451.84
749.481	1548.09
749.665	1521.47
749.85	1556.29
750.034	1462.08
750.219	1601.34
750.404	1457.98
750.588	1503.04
750.773	1476.41
750.957	1546.05
751.141	1369.92
751.326	1503.04
751.51	1371.97
751.695	1396.54
751.879	1412.93
752.064	1484.61
752.248	1306.43
752.432	1367.87
752.617	1376.06
752.801	1361.73
752.985	1361.73
753.17	1308.48
753.354	1365.82
753.538	1242.95
753.722	1277.76
753.907	1214.27
754.091	1333.06
754.275	1281.86
754.459	1195.84
754.643	1296.19
754.828	1300.29
755.012	1216.32
755.196	1257.28
755.38	1249.09
755.564	1232.71
755.748	1140.55
755.932	1265.47
756.116	1212.23
756.3	1242.95
756.484	1183.56
756.668	1263.43
756.852	1140.55
757.036	1134.4
757.22	1154.88
757.404	1068.87
757.588	1079.11
757.772	1144.64
757.956	1095.49
758.14	989
758.323	1068.87
758.507	1011.53
758.691	1058.63
758.875	999.24
759.059	1140.55
759.242	1103.68
759.426	1056.58
759.61	1181.51
759.794	1050.44
759.977	1025.86
760.161	1025.86
760.345	1003.33
760.528	978.76
760.712	1054.53
760.895	1017.67
761.079	950.09
761.263	960.33
761.446	915.27
761.63	917.32
761.813	964.42
761.997	925.51
762.18	911.18
762.364	941.89
762.547	868.17
762.731	960.33
762.914	937.8
763.098	923.46
763.281	902.98
763.464	943.94
763.648	896.84
763.831	849.74
764.015	835.4
764.198	890.7
764.381	855.88
764.564	923.46
764.748	862.02
764.931	859.98
765.114	905.03
765.297	939.85
765.481	892.74
765.664	827.21
765.847	859.98
766.03	845.64
766.213	773.96
766.397	868.17
766.58	876.36
766.763	880.46
766.946	884.55
767.129	835.4
767.312	841.54
767.495	845.64
767.678	747.34
767.861	868.17
768.044	819.02
768.227	784.2
768.41	784.2
768.593	796.49
768.776	810.82
768.959	755.53
769.142	859.98
769.324	769.87
769.507	763.72
769.69	859.98
769.873	757.58
770.056	800.59
770.239	786.25
770.421	790.35
770.604	747.34
770.787	763.72
770.97	751.43
771.152	722.76
771.335	743.24
771.518	730.95
771.7	798.54
771.883	776.01
772.066	710.47
772.248	747.34
772.431	753.48
772.613	769.87
772.796	657.23
772.978	733
773.161	685.9
773.343	659.28
773.526	745.29
773.708	610.12
773.891	583.5
774.073	618.32
774.256	683.85
774.438	698.19
774.621	685.9
774.803	665.42
774.985	601.93
775.168	587.6
775.35	733
775.532	657.23
775.715	706.38
775.897	618.32
776.079	642.89
776.261	636.75
776.444	573.26
776.626	522.06
776.808	640.84
776.99	632.65
777.173	565.07
777.355	659.28
777.537	569.16
777.719	628.56
777.901	530.25
778.083	601.93
778.265	573.26
778.447	601.93
778.629	528.21
778.811	591.69
778.993	622.41
779.175	520.01
779.357	524.11
779.539	534.35
779.721	567.12
779.903	515.92
780.085	548.68
780.267	501.58
780.449	427.85
780.631	485.2
780.812	517.97
780.994	556.88
781.176	517.97
781.358	501.58
781.54	427.85
781.721	554.83
781.903	468.81
782.085	458.57
782.267	530.25
782.448	481.1
782.63	458.57
782.812	405.33
782.993	472.91
783.175	442.19
783.357	431.95
783.538	495.44
783.72	452.43
783.901	374.61
784.083	532.3
784.264	395.09
784.446	405.33
784.627	464.72
784.809	489.29
784.99	425.81
785.172	386.9
785.353	366.42
785.535	474.96
785.716	403.28
785.897	317.26
786.079	429.9
786.26	390.99
786.441	444.24
786.623	358.22
786.804	339.79
786.985	335.7
787.167	466.77
787.348	276.31
787.529	307.02
787.71	423.76
787.891	393.04
788.073	366.42
788.254	358.22
788.435	431.95
788.616	384.85
788.797	343.89
788.978	380.75
789.159	290.64
789.34	317.26
789.522	444.24
789.703	300.88
789.884	309.07
790.065	290.64
790.246	313.17
790.427	337.74
790.607	384.85
790.788	335.7
790.969	257.87
791.15	274.26
791.331	321.36
791.512	311.12
791.693	302.93
791.874	395.09
792.054	327.5
792.235	274.26
792.416	317.26
792.597	190.29
792.778	276.31
792.958	272.21
793.139	362.32
793.32	331.6
793.5	335.7
793.681	227.15
793.862	300.88
794.042	223.06
794.223	264.02
794.404	198.48
794.584	257.87
794.765	223.06
794.945	212.82
795.126	266.07
795.306	249.68
795.487	235.35
795.667	175.95
795.848	214.87
796.028	268.11
796.209	255.83
796.389	247.63
796.57	313.17
796.75	223.06
796.93	223.06
797.111	249.68
797.291	243.54
797.471	237.39
797.652	186.19
797.832	251.73
798.012	280.4
798.192	264.02
798.373	169.81
798.553	253.78
798.733	202.58
798.913	241.49
799.093	225.11
799.274	204.63
799.454	270.16
799.634	235.35
799.814	216.91
799.994	206.67
800.174	206.67
800.354	225.11
800.534	149.33
800.714	188.24
800.894	184.15
801.074	237.39
801.254	196.43
801.434	200.53
801.614	165.71
801.794	167.76
801.974	603.98
802.154	167.76
802.334	157.52
802.514	196.43
802.693	210.77
802.873	169.81
803.053	206.67
803.233	157.52
803.413	233.3
803.592	233.3
803.772	188.24
803.952	175.95
804.131	178
804.311	165.71
804.491	178
804.67	120.66
804.85	190.29
805.03	204.63
805.209	114.52
805.389	167.76
805.568	206.67
805.748	169.81
805.928	184.15
806.107	137.04
806.287	204.63
806.466	266.07
806.646	157.52
806.825	91.99
807.004	167.76
807.184	83.8
807.363	143.19
807.543	192.34
807.722	135
807.901	188.24
808.081	225.11
808.26	145.24
808.439	155.47
808.619	173.91
808.798	110.42
808.977	120.66
809.156	143.19
809.336	173.91
809.515	182.1
809.694	157.52
809.873	178
810.052	124.76
810.231	139.09
810.411	132.95
810.59	157.52
810.769	175.95
810.948	221.01
811.127	77.65
811.306	96.08
811.485	135
811.664	190.29
811.843	141.14
812.022	102.23
812.201	135
812.38	143.19
812.559	59.22
812.737	145.24
812.916	87.89
813.095	155.47
813.274	122.71
813.453	200.53
813.632	169.81
813.811	165.71
813.989	104.28
814.168	75.6
814.347	110.42
814.526	153.43
814.704	124.76
814.883	112.47
815.062	143.19
815.24	143.19
815.419	46.93
815.598	120.66
815.776	126.8
815.955	106.32
816.133	46.93
816.312	120.66
816.49	153.43
816.669	135
816.847	126.8
817.026	143.19
817.204	137.04
817.383	182.1
817.561	81.75
817.74	110.42
817.918	153.43
818.097	116.56
818.275	110.42
818.453	79.7
818.632	96.08
818.81	85.84
818.988	139.09
819.167	53.08
819.345	100.18
819.523	79.7
819.701	128.85
819.879	151.38
820.058	75.6
820.236	91.99
820.414	77.65
820.592	122.71
820.77	28.5
820.948	81.75
821.127	77.65
821.305	-6.31
821.483	120.66
821.661	85.84
821.839	28.5
822.017	122.71
822.195	34.64
822.373	108.37
822.551	34.64
822.729	79.7
822.907	114.52
823.085	69.46
823.262	89.94
823.44	94.04
823.618	128.85
823.796	173.91
823.974	87.89
824.152	63.32
824.329	110.42
824.507	67.41
824.685	102.23
824.863	85.84
825.04	24.4
825.218	73.56
825.396	112.47
825.574	122.71
825.751	85.84
825.929	65.36
826.107	75.6
826.284	69.46
826.462	126.8
826.639	34.64
826.817	-49.32
826.994	89.94
827.172	108.37
827.349	171.86
827.527	67.41
827.704	143.19
827.882	65.36
828.059	102.23
828.237	83.8
828.414	87.89
828.591	104.28
828.769	178
828.946	79.7
829.124	30.55
829.301	79.7
829.478	-26.79
829.655	104.28
829.833	40.79
830.01	57.17
830.187	77.65
830.364	8.02
830.542	96.08
830.719	44.88
830.896	44.88
831.073	44.88
831.25	75.6
831.427	87.89
831.604	30.55
831.782	22.36
831.959	89.94
832.136	75.6
832.313	48.98
832.49	-32.94
832.667	108.37
832.844	48.98
833.021	26.45
833.198	12.12
833.374	87.89
833.551	26.45
833.728	132.95
833.905	42.84
834.082	79.7
834.259	48.98
834.436	69.46
834.612	1.88
834.789	63.32
834.966	-2.22
835.143	53.08
835.319	63.32
835.496	5.97
835.673	135
835.85	48.98
836.026	91.99
836.203	91.99
836.38	14.17
836.556	28.5
836.733	16.21
836.909	153.43
837.086	10.07
837.262	96.08
837.439	46.93
837.616	40.79
837.792	71.51
837.968	8.02
838.145	77.65
838.321	26.45
838.498	46.93
838.674	75.6
838.851	51.03
839.027	73.56
839.203	40.79
839.38	85.84
839.556	48.98
839.732	120.66
839.909	16.21
840.085	42.84
840.261	-16.55
840.437	98.13
840.614	83.8
840.79	44.88
840.966	81.75
841.142	1.88
841.318	10.07
841.494	55.12
841.671	-0.17
841.847	75.6
842.023	-20.65
842.199	51.03
842.375	67.41
842.551	59.22
842.727	-2.22
842.903	87.89
843.079	-26.79
843.255	59.22
843.431	42.84
843.607	16.21
843.783	67.41
843.959	36.69
844.134	16.21
844.31	118.61
844.486	-4.27
844.662	36.69
844.838	59.22
845.013	-2.22
845.189	24.4
845.365	-12.46
845.541	12.12
845.716	-22.7
845.892	173.91
846.068	36.69
846.244	55.12
846.419	5.97
846.595	-28.84
846.77	30.55
846.946	5.97
847.122	38.74
847.297	24.4
847.473	96.08
847.648	-10.41
847.824	-41.13
847.999	-41.13
848.175	38.74
848.35	124.76
848.526	100.18
848.701	81.75
848.876	85.84
849.052	44.88
849.227	-6.31
849.403	75.6
849.578	51.03
849.753	46.93
849.929	59.22
850.104	12.12
850.279	48.98
850.454	77.65
850.63	124.76
850.805	-16.55
850.98	3.93
851.155	73.56
851.33	26.45
851.505	75.6
851.681	20.31
851.856	1.88
852.031	57.17
852.206	30.55
852.381	22.36
852.556	-63.66
852.731	-12.46
852.906	1.88
853.081	32.6
853.256	55.12
853.431	69.46
853.606	-30.89
853.781	8.02
853.956	51.03
854.131	116.56
854.305	18.26
854.48	40.79
854.655	-80.04
854.83	10.07
855.005	36.69
855.18	22.36
855.354	79.7
855.529	-2.22
855.704	-37.03
855.879	42.84
856.053	61.27
856.228	65.36
856.403	32.6
856.577	22.36
856.752	10.07
856.926	-0.17
857.101	-41.13
857.276	34.64
857.45	-20.65
857.625	79.7
857.799	28.5
857.974	53.08
858.148	38.74
858.323	59.22
858.497	14.17
858.672	32.6
858.846	87.89
859.02	89.94
859.195	26.45
859.369	42.84
859.543	-30.89
859.718	-32.94
859.892	36.69
860.066	8.02
860.241	24.4
860.415	-30.89
860.589	3.93
860.763	-16.55
860.938	-45.23
861.112	-45.23
861.286	-49.32
861.46	1.88
861.634	-8.36
861.808	44.88
861.982	-6.31
862.157	-8.36
862.331	-41.13
862.505	16.21
862.679	14.17
862.853	44.88
863.027	30.55
863.201	32.6
863.375	22.36
863.549	-2.22
863.722	42.84
863.896	8.02
864.07	40.79
864.244	20.31
864.418	16.21
864.592	26.45
864.766	-28.84
864.939	-71.85
865.113	-6.31
865.287	44.88
865.461	24.4
865.634	28.5
865.808	-43.18
865.982	-6.31
866.156	-2.22
866.329	48.98
866.503	26.45
866.676	53.08
866.85	14.17
867.024	-28.84
867.197	61.27
867.371	30.55
867.544	3.93
867.718	-88.23
867.891	32.6
868.065	22.36
868.238	-4.27
868.412	67.41
868.585	-14.51
868.759	38.74
868.932	-0.17
869.105	-12.46
869.279	61.27
869.452	-61.61
869.625	-4.27
869.799	-41.13
869.972	-26.79
870.145	-2.22
870.319	61.27
870.492	18.26
870.665	61.27
870.838	3.93
871.011	16.21
871.185	12.12
871.358	-22.7
871.531	-0.17
871.704	38.74
871.877	-12.46
872.05	-18.6
872.223	34.64
872.396	10.07
872.569	16.21
872.742	-37.03
872.915	-18.6
873.088	48.98
873.261	-65.71
873.434	8.02
873.607	53.08
873.78	18.26
873.953	14.17
874.126	-18.6
874.299	28.5
874.471	-20.65
874.644	-6.31
874.817	-10.41
874.99	16.21
875.163	-10.41
875.335	38.74
875.508	-4.27
875.681	34.64
875.853	24.4
876.026	18.26
876.199	-28.84
876.371	34.64
876.544	-32.94
876.717	8.02
876.889	-37.03
877.062	59.22
877.234	-20.65
877.407	3.93
877.579	106.32
877.752	3.93
877.924	67.41
878.097	10.07
878.269	-59.56
878.442	28.5
878.614	-45.23
878.786	-30.89
878.959	22.36
879.131	48.98
879.303	-94.38
879.476	12.12
879.648	22.36
879.82	-2.22
879.993	-12.46
880.165	-6.31
880.337	-0.17
880.509	5.97
880.681	-6.31
880.854	-2.22
881.026	8.02
881.198	16.21
881.37	28.5
881.542	34.64
881.714	-22.7
881.886	51.03
882.058	8.02
882.23	-45.23
882.402	-14.51
882.574	8.02
882.746	44.88
882.918	-10.41
883.09	38.74
883.262	-2.22
883.434	18.26
883.606	102.23
883.778	-63.66
883.95	73.56
884.122	-6.31
884.293	48.98
884.465	-10.41
884.637	38.74
884.809	20.31
884.98	-14.51
885.152	-59.56
885.324	55.12
885.496	-37.03
885.667	77.65
885.839	65.36
886.011	75.6
886.182	40.79
886.354	-26.79
886.525	-61.61
886.697	-26.79
886.869	18.26
887.04	12.12
887.212	-10.41
887.383	114.52
887.555	30.55
887.726	24.4
887.897	-49.32
888.069	24.4
888.24	112.47
888.412	12.12
888.583	-63.66
888.754	3.93
888.926	-28.84
889.097	-0.17
889.268	-34.99
889.44	-22.7
889.611	-0.17
889.782	-22.7
889.953	-39.08
890.125	5.97
890.296	-30.89
890.467	38.74
890.638	-39.08
890.809	-26.79
890.98	-24.75
891.151	-65.71
891.323	-28.84
891.494	3.93
891.665	46.93
891.836	69.46
892.007	24.4
892.178	5.97
892.349	-86.19
892.52	42.84
892.691	51.03
892.862	-22.7
893.032	24.4
893.203	75.6
893.374	1.88
893.545	5.97
893.716	-32.94
893.887	-32.94
894.057	-10.41
894.228	24.4
894.399	46.93
894.57	-30.89
894.74	30.55
894.911	-0.17
895.082	65.36
895.253	-2.22
895.423	12.12
895.594	-4.27
895.764	32.6
895.935	3.93
896.106	53.08
896.276	26.45
896.447	-18.6
896.617	12.12
896.788	-34.99
896.958	-59.56
897.129	-24.75
897.299	-14.51
897.47	59.22
897.64	44.88
897.81	-16.55
897.981	16.21
898.151	-12.46
898.322	-28.84
898.492	-14.51
898.662	-26.79
898.832	5.97
899.003	32.6
899.173	-37.03
899.343	-43.18
899.513	-47.27
