Data from USB4F104151__37__12-00-49-490.txt Node

Date: Fri Mar 14 12:00:49 EDT 2025
User: louis
Spectrometer: USB4F10415
Trigger mode: 4
Integration Time (sec): 2.000000E-2
Scans to average: 1
Electric dark correction enabled: true
Nonlinearity correction enabled: false
Boxcar width: 0
XAxis mode: Wavelengths
Number of Pixels in Spectrum: 3648
>>>>>Begin Spectral Data<<<<<
178.204	-45.74
178.424	-45.74
178.644	-45.74
178.864	-74.41
179.084	-37.55
179.304	50.52
179.524	-43.69
179.744	-58.03
179.964	9.56
180.184	13.65
180.404	46.42
180.624	21.84
180.844	-12.97
181.064	-0.68
181.283	-27.31
181.503	-10.92
181.723	11.61
181.943	-33.45
182.163	58.71
182.383	101.72
182.602	13.65
182.822	-4.78
183.042	-8.87
183.262	73.04
183.482	-21.16
183.701	-45.74
183.921	-19.11
184.141	11.61
184.361	42.32
184.58	15.7
184.8	17.75
185.02	77.14
185.239	9.56
185.459	46.42
185.679	34.13
185.898	3.41
186.118	52.56
186.338	-15.02
186.557	30.04
186.777	5.46
186.997	13.65
187.216	9.56
187.436	93.52
187.655	-31.4
187.875	58.71
188.095	34.13
188.314	27.99
188.534	11.61
188.753	111.96
188.973	48.47
189.192	3.41
189.412	17.75
189.631	124.24
189.851	73.04
190.07	60.76
190.29	-15.02
190.509	52.56
190.729	17.75
190.948	-2.73
191.168	136.53
191.387	44.37
191.607	30.04
191.826	27.99
192.045	-60.07
192.265	-2.73
192.484	58.71
192.704	13.65
192.923	17.75
193.142	60.76
193.362	-2.73
193.581	46.42
193.8	42.32
194.02	21.84
194.239	62.8
194.458	99.67
194.678	-2.73
194.897	11.61
195.116	13.65
195.335	3.41
195.555	58.71
195.774	21.84
195.993	52.56
196.212	9.56
196.432	40.28
196.651	7.51
196.87	5.46
197.089	71
197.308	58.71
197.528	91.48
197.747	-23.21
197.966	64.85
198.185	58.71
198.404	83.28
198.623	66.9
198.842	27.99
199.062	52.56
199.281	87.38
199.5	-35.5
199.719	-10.92
199.938	27.99
200.157	34.13
200.376	-2.73
200.595	58.71
200.814	5.46
201.033	13.65
201.252	73.04
201.471	85.33
201.69	124.24
201.909	19.8
202.128	-19.11
202.347	83.28
202.566	21.84
202.785	-10.92
203.004	-25.26
203.223	73.04
203.442	-15.02
203.661	-43.69
203.879	99.67
204.098	40.28
204.317	46.42
204.536	66.9
204.755	-12.97
204.974	124.24
205.193	130.39
205.411	48.47
205.63	32.08
205.849	89.43
206.068	75.09
206.287	38.23
206.505	107.86
206.724	11.61
206.943	-17.07
207.162	46.42
207.381	5.46
207.599	-2.73
207.818	46.42
208.037	25.94
208.255	-58.03
208.474	48.47
208.693	38.23
208.911	-19.11
209.13	50.52
209.349	25.94
209.567	27.99
209.786	-31.4
210.005	32.08
210.223	13.65
210.442	-47.79
210.661	54.61
210.879	77.14
211.098	105.81
211.316	60.76
211.535	62.8
211.753	25.94
211.972	32.08
212.191	-17.07
212.409	-4.78
212.628	7.51
212.846	1.37
213.065	11.61
213.283	25.94
213.502	-19.11
213.72	-33.45
213.938	68.95
214.157	34.13
214.375	-8.87
214.594	-10.92
214.812	-2.73
215.031	13.65
215.249	34.13
215.467	52.56
215.686	54.61
215.904	122.2
216.122	11.61
216.341	66.9
216.559	19.8
216.778	40.28
216.996	56.66
217.214	68.95
217.432	38.23
217.651	-6.83
217.869	-2.73
218.087	9.56
218.306	15.7
218.524	-25.26
218.742	50.52
218.96	9.56
219.179	56.66
219.397	-62.12
219.615	48.47
219.833	-55.98
220.051	66.9
220.27	95.57
220.488	7.51
220.706	19.8
220.924	9.56
221.142	30.04
221.36	7.51
221.578	83.28
221.796	17.75
222.015	56.66
222.233	25.94
222.451	91.48
222.669	-4.78
222.887	27.99
223.105	-39.59
223.323	-15.02
223.541	-17.07
223.759	7.51
223.977	66.9
224.195	93.52
224.413	5.46
224.631	101.72
224.849	11.61
225.067	64.85
225.285	30.04
225.503	46.42
225.721	48.47
225.939	9.56
226.157	64.85
226.375	116.05
226.592	-19.11
226.81	-6.83
227.028	-33.45
227.246	56.66
227.464	42.32
227.682	3.41
227.9	46.42
228.117	75.09
228.335	30.04
228.553	46.42
228.771	9.56
228.989	62.8
229.206	17.75
229.424	-70.31
229.642	-23.21
229.86	46.42
230.077	3.41
230.295	64.85
230.513	48.47
230.731	3.41
230.948	66.9
231.166	44.37
231.384	-41.64
231.601	85.33
231.819	-23.21
232.037	5.46
232.254	-12.97
232.472	30.04
232.689	-12.97
232.907	66.9
233.125	-17.07
233.342	13.65
233.56	40.28
233.777	75.09
233.995	50.52
234.213	85.33
234.43	42.32
234.648	60.76
234.865	30.04
235.083	58.71
235.3	17.75
235.518	27.99
235.735	1.37
235.953	11.61
236.17	52.56
236.388	64.85
236.605	-8.87
236.822	75.09
237.04	99.67
237.257	52.56
237.475	30.04
237.692	48.47
237.909	64.85
238.127	60.76
238.344	54.61
238.562	-31.4
238.779	-21.16
238.996	-10.92
239.214	17.75
239.431	-23.21
239.648	21.84
239.865	-35.5
240.083	56.66
240.3	44.37
240.517	32.08
240.735	54.61
240.952	-0.68
241.169	64.85
241.386	83.28
241.603	52.56
241.821	38.23
242.038	64.85
242.255	7.51
242.472	62.8
242.689	3.41
242.907	52.56
243.124	56.66
243.341	-37.55
243.558	3.41
243.775	-35.5
243.992	9.56
244.209	40.28
244.426	79.19
244.643	32.08
244.86	-49.83
245.078	62.8
245.295	19.8
245.512	15.7
245.729	15.7
245.946	15.7
246.163	3.41
246.38	52.56
246.597	66.9
246.814	42.32
247.031	32.08
247.248	93.52
247.464	17.75
247.681	-31.4
247.898	118.1
248.115	79.19
248.332	30.04
248.549	15.7
248.766	54.61
248.983	101.72
249.2	44.37
249.417	52.56
249.633	140.63
249.85	44.37
250.067	-25.26
250.284	40.28
250.501	60.76
250.717	52.56
250.934	11.61
251.151	77.14
251.368	5.46
251.585	79.19
251.801	42.32
252.018	40.28
252.235	25.94
252.451	64.85
252.668	-0.68
252.885	58.71
253.102	52.56
253.318	81.24
253.535	9.56
253.752	42.32
253.968	34.13
254.185	-2.73
254.401	111.96
254.618	64.85
254.835	64.85
255.051	134.48
255.268	3.41
255.484	23.89
255.701	-41.64
255.917	-2.73
256.134	-4.78
256.351	38.23
256.567	52.56
256.784	34.13
257	23.89
257.217	13.65
257.433	56.66
257.65	50.52
257.866	23.89
258.082	48.47
258.299	62.8
258.515	54.61
258.732	21.84
258.948	64.85
259.165	62.8
259.381	103.76
259.597	64.85
259.814	-21.16
260.03	7.51
260.246	-29.35
260.463	58.71
260.679	56.66
260.895	40.28
261.112	44.37
261.328	34.13
261.544	-10.92
261.761	46.42
261.977	-2.73
262.193	-6.83
262.409	23.89
262.626	68.95
262.842	60.76
263.058	75.09
263.274	89.43
263.49	77.14
263.707	114
263.923	5.46
264.139	-2.73
264.355	-33.45
264.571	77.14
264.787	23.89
265.004	71
265.22	42.32
265.436	19.8
265.652	93.52
265.868	71
266.084	30.04
266.3	7.51
266.516	5.46
266.732	68.95
266.948	-23.21
267.164	25.94
267.38	-2.73
267.596	25.94
267.812	105.81
268.028	36.18
268.244	-78.51
268.46	66.9
268.676	3.41
268.892	89.43
269.108	27.99
269.324	97.62
269.54	46.42
269.756	75.09
269.972	17.75
270.188	38.23
270.403	3.41
270.619	36.18
270.835	17.75
271.051	-12.97
271.267	64.85
271.483	46.42
271.698	124.24
271.914	21.84
272.13	21.84
272.346	60.76
272.562	19.8
272.777	56.66
272.993	77.14
273.209	7.51
273.425	17.75
273.64	-2.73
273.856	44.37
274.072	71
274.287	1.37
274.503	23.89
274.719	-8.87
274.934	36.18
275.15	7.51
275.366	79.19
275.581	13.65
275.797	23.89
276.012	-45.74
276.228	58.71
276.444	73.04
276.659	36.18
276.875	-58.03
277.09	13.65
277.306	42.32
277.521	154.96
277.737	34.13
277.952	62.8
278.168	-8.87
278.383	11.61
278.599	54.61
278.814	23.89
279.03	38.23
279.245	30.04
279.461	3.41
279.676	-60.07
279.892	73.04
280.107	11.61
280.322	-4.78
280.538	-0.68
280.753	-17.07
280.969	44.37
281.184	62.8
281.399	64.85
281.615	56.66
281.83	19.8
282.045	64.85
282.26	56.66
282.476	15.7
282.691	23.89
282.906	64.85
283.122	25.94
283.337	23.89
283.552	87.38
283.767	1.37
283.983	19.8
284.198	-6.83
284.413	52.56
284.628	-43.69
284.843	54.61
285.058	60.76
285.274	34.13
285.489	-31.4
285.704	48.47
285.919	-10.92
286.134	-35.5
286.349	105.81
286.564	-8.87
286.779	66.9
286.995	66.9
287.21	-17.07
287.425	50.52
287.64	64.85
287.855	25.94
288.07	-17.07
288.285	124.24
288.5	99.67
288.715	79.19
288.93	9.56
289.145	44.37
289.36	83.28
289.575	79.19
289.79	30.04
290.004	17.75
290.219	44.37
290.434	42.32
290.649	44.37
290.864	34.13
291.079	21.84
291.294	38.23
291.509	-10.92
291.724	38.23
291.938	-41.64
292.153	81.24
292.368	48.47
292.583	25.94
292.798	15.7
293.012	44.37
293.227	40.28
293.442	-6.83
293.657	81.24
293.871	185.68
294.086	85.33
294.301	54.61
294.516	97.62
294.73	5.46
294.945	-51.88
295.16	46.42
295.374	40.28
295.589	83.28
295.804	-35.5
296.018	3.41
296.233	101.72
296.447	36.18
296.662	23.89
296.877	40.28
297.091	25.94
297.306	60.76
297.52	79.19
297.735	11.61
297.949	-35.5
298.164	23.89
298.378	1.37
298.593	77.14
298.807	21.84
299.022	-21.16
299.236	54.61
299.451	64.85
299.665	54.61
299.88	-0.68
300.094	44.37
300.309	27.99
300.523	34.13
300.737	25.94
300.952	38.23
301.166	54.61
301.381	15.7
301.595	9.56
301.809	40.28
302.024	79.19
302.238	56.66
302.452	-27.31
302.667	38.23
302.881	50.52
303.095	83.28
303.309	46.42
303.524	34.13
303.738	-2.73
303.952	21.84
304.166	75.09
304.381	9.56
304.595	85.33
304.809	81.24
305.023	7.51
305.237	79.19
305.452	-2.73
305.666	165.2
305.88	48.47
306.094	1.37
306.308	17.75
306.522	27.99
306.736	75.09
306.95	62.8
307.164	75.09
307.379	54.61
307.593	71
307.807	124.24
308.021	-23.21
308.235	-6.83
308.449	-37.55
308.663	-2.73
308.877	89.43
309.091	87.38
309.305	46.42
309.519	-27.31
309.733	58.71
309.947	62.8
310.161	19.8
310.374	77.14
310.588	54.61
310.802	5.46
311.016	68.95
311.23	50.52
311.444	50.52
311.658	83.28
311.872	32.08
312.085	36.18
312.299	83.28
312.513	27.99
312.727	30.04
312.941	13.65
313.154	17.75
313.368	25.94
313.582	38.23
313.796	32.08
314.009	-25.26
314.223	95.57
314.437	42.32
314.651	66.9
314.864	77.14
315.078	-25.26
315.292	85.33
315.505	54.61
315.719	44.37
315.933	60.76
316.146	46.42
316.36	19.8
316.573	148.82
316.787	44.37
317.001	79.19
317.214	-6.83
317.428	42.32
317.641	93.52
317.855	77.14
318.068	-0.68
318.282	30.04
318.495	114
318.709	-0.68
318.922	36.18
319.136	89.43
319.349	54.61
319.563	19.8
319.776	75.09
319.99	9.56
320.203	60.76
320.417	38.23
320.63	19.8
320.843	71
321.057	-6.83
321.27	36.18
321.483	-10.92
321.697	103.76
321.91	-23.21
322.124	48.47
322.337	64.85
322.55	75.09
322.763	73.04
322.977	-35.5
323.19	-17.07
323.403	-25.26
323.617	27.99
323.83	62.8
324.043	15.7
324.256	11.61
324.469	25.94
324.683	46.42
324.896	21.84
325.109	142.68
325.322	46.42
325.535	-53.93
325.748	34.13
325.962	-21.16
326.175	77.14
326.388	95.57
326.601	91.48
326.814	71
327.027	60.76
327.24	79.19
327.453	44.37
327.666	21.84
327.879	64.85
328.092	81.24
328.305	97.62
328.518	-19.11
328.731	40.28
328.944	83.28
329.157	27.99
329.37	25.94
329.583	83.28
329.796	93.52
330.009	25.94
330.222	79.19
330.435	-10.92
330.648	30.04
330.861	62.8
331.073	50.52
331.286	-8.87
331.499	122.2
331.712	122.2
331.925	54.61
332.138	103.76
332.35	114
332.563	44.37
332.776	85.33
332.989	-10.92
333.202	64.85
333.414	40.28
333.627	54.61
333.84	17.75
334.053	9.56
334.265	34.13
334.478	85.33
334.691	87.38
334.903	62.8
335.116	30.04
335.329	56.66
335.541	40.28
335.754	50.52
335.966	23.89
336.179	79.19
336.392	111.96
336.604	32.08
336.817	21.84
337.029	56.66
337.242	95.57
337.454	27.99
337.667	23.89
337.88	46.42
338.092	21.84
338.305	42.32
338.517	11.61
338.729	99.67
338.942	124.24
339.154	27.99
339.367	60.76
339.579	38.23
339.792	-10.92
340.004	36.18
340.217	11.61
340.429	128.34
340.641	36.18
340.854	30.04
341.066	60.76
341.278	60.76
341.491	17.75
341.703	-8.87
341.915	87.38
342.128	30.04
342.34	116.05
342.552	56.66
342.764	7.51
342.977	17.75
343.189	27.99
343.401	38.23
343.613	-17.07
343.826	48.47
344.038	-4.78
344.25	15.7
344.462	19.8
344.674	71
344.886	87.38
345.099	-49.83
345.311	13.65
345.523	42.32
345.735	25.94
345.947	13.65
346.159	60.76
346.371	32.08
346.583	118.1
346.795	60.76
347.007	-31.4
347.219	64.85
347.431	44.37
347.643	58.71
347.855	66.9
348.067	66.9
348.279	64.85
348.491	-53.93
348.703	11.61
348.915	17.75
349.127	3.41
349.339	52.56
349.551	46.42
349.763	71
349.975	-6.83
350.187	107.86
350.399	-12.97
350.61	66.9
350.822	40.28
351.034	68.95
351.246	48.47
351.458	52.56
351.669	50.52
351.881	5.46
352.093	71
352.305	79.19
352.517	-4.78
352.728	103.76
352.94	42.32
353.152	75.09
353.363	118.1
353.575	34.13
353.787	154.96
353.999	42.32
354.21	1.37
354.422	21.84
354.633	25.94
354.845	83.28
355.057	-27.31
355.268	9.56
355.48	34.13
355.692	-2.73
355.903	85.33
356.115	89.43
356.326	9.56
356.538	66.9
356.749	44.37
356.961	109.91
357.172	17.75
357.384	77.14
357.595	83.28
357.807	-4.78
358.018	32.08
358.23	83.28
358.441	89.43
358.653	77.14
358.864	-10.92
359.075	-0.68
359.287	75.09
359.498	58.71
359.709	48.47
359.921	56.66
360.132	30.04
360.344	-33.45
360.555	87.38
360.766	64.85
360.977	54.61
361.189	54.61
361.4	42.32
361.611	103.76
361.823	97.62
362.034	23.89
362.245	-17.07
362.456	3.41
362.667	34.13
362.879	52.56
363.09	36.18
363.301	87.38
363.512	36.18
363.723	66.9
363.935	-21.16
364.146	71
364.357	17.75
364.568	114
364.779	56.66
364.99	46.42
365.201	46.42
365.412	42.32
365.623	-19.11
365.834	73.04
366.045	19.8
366.256	36.18
366.467	79.19
366.678	42.32
366.889	7.51
367.1	50.52
367.311	25.94
367.522	27.99
367.733	-15.02
367.944	17.75
368.155	-29.35
368.366	105.81
368.577	15.7
368.788	105.81
368.999	58.71
369.209	25.94
369.42	93.52
369.631	60.76
369.842	64.85
370.053	60.76
370.264	15.7
370.474	44.37
370.685	40.28
370.896	7.51
371.107	3.41
371.317	79.19
371.528	11.61
371.739	38.23
371.95	93.52
372.16	48.47
372.371	-41.64
372.582	25.94
372.792	30.04
373.003	81.24
373.214	13.65
373.424	66.9
373.635	50.52
373.846	161.11
374.056	81.24
374.267	13.65
374.477	130.39
374.688	128.34
374.898	42.32
375.109	66.9
375.319	19.8
375.53	91.48
375.74	128.34
375.951	5.46
376.161	52.56
376.372	48.47
376.582	25.94
376.793	62.8
377.003	5.46
377.214	116.05
377.424	122.2
377.635	-12.97
377.845	66.9
378.055	75.09
378.266	-15.02
378.476	140.63
378.686	19.8
378.897	52.56
379.107	46.42
379.317	91.48
379.528	87.38
379.738	50.52
379.948	89.43
380.158	89.43
380.369	46.42
380.579	118.1
380.789	19.8
380.999	116.05
381.21	56.66
381.42	87.38
381.63	81.24
381.84	165.2
382.05	62.8
382.261	23.89
382.471	124.24
382.681	17.75
382.891	66.9
383.101	64.85
383.311	62.8
383.521	79.19
383.731	105.81
383.941	48.47
384.151	85.33
384.361	60.76
384.571	64.85
384.781	114
384.991	71
385.201	85.33
385.411	60.76
385.621	48.47
385.831	44.37
386.041	89.43
386.251	32.08
386.461	46.42
386.671	85.33
386.881	97.62
387.091	40.28
387.301	103.76
387.511	-23.21
387.72	3.41
387.93	111.96
388.14	62.8
388.35	17.75
388.56	109.91
388.769	68.95
388.979	9.56
389.189	32.08
389.399	-21.16
389.609	46.42
389.818	44.37
390.028	36.18
390.238	52.56
390.447	30.04
390.657	126.29
390.867	71
391.076	71
391.286	58.71
391.496	34.13
391.705	87.38
391.915	89.43
392.125	36.18
392.334	56.66
392.544	103.76
392.753	73.04
392.963	1.37
393.172	73.04
393.382	44.37
393.591	77.14
393.801	11.61
394.01	116.05
394.22	95.57
394.429	134.48
394.639	132.44
394.848	44.37
395.058	99.67
395.267	81.24
395.477	185.68
395.686	66.9
395.895	36.18
396.105	126.29
396.314	56.66
396.524	68.95
396.733	101.72
396.942	114
397.152	87.38
397.361	189.78
397.57	81.24
397.78	62.8
397.989	52.56
398.198	195.92
398.407	105.81
398.617	105.81
398.826	93.52
399.035	64.85
399.244	91.48
399.453	97.62
399.663	118.1
399.872	99.67
400.081	52.56
400.29	122.2
400.499	107.86
400.708	89.43
400.917	101.72
401.127	118.1
401.336	38.23
401.545	81.24
401.754	91.48
401.963	177.49
402.172	73.04
402.381	58.71
402.59	71
402.799	144.72
403.008	124.24
403.217	183.63
403.426	111.96
403.635	83.28
403.844	173.39
404.053	79.19
404.262	159.06
404.471	214.35
404.68	60.76
404.888	152.91
405.097	89.43
405.306	150.87
405.515	187.73
405.724	245.07
405.933	197.97
406.142	218.45
406.35	128.34
406.559	226.64
406.768	200.02
406.977	144.72
407.185	304.46
407.394	210.26
407.603	189.78
407.812	259.41
408.02	200.02
408.229	179.54
408.438	234.83
408.646	140.63
408.855	159.06
409.064	283.98
409.272	224.59
409.481	292.18
409.69	302.42
409.898	238.93
410.107	195.92
410.315	273.75
410.524	343.38
410.733	423.25
410.941	286.03
411.15	306.51
411.358	396.62
411.567	335.18
411.775	378.19
411.984	382.29
412.192	421.2
412.401	388.43
412.609	458.06
412.818	396.62
413.026	478.54
413.234	425.29
413.443	521.55
413.651	464.21
413.86	490.83
414.068	537.93
414.276	494.93
414.485	548.17
414.693	564.56
414.901	673.1
415.11	646.48
415.318	654.67
415.526	632.14
415.734	738.63
415.943	695.63
416.151	724.3
416.359	742.73
416.567	703.82
416.776	828.74
416.984	849.22
417.192	875.85
417.4	855.37
417.608	951.62
417.817	849.22
418.025	920.9
418.233	998.73
418.441	937.29
418.649	1158.47
418.857	1123.65
419.065	1152.32
419.273	1146.18
419.481	1099.08
419.689	1232.19
419.897	1242.43
420.105	1355.07
420.313	1445.18
420.521	1432.9
420.729	1539.39
420.937	1502.53
421.145	1600.83
421.353	1660.22
421.561	1713.47
421.769	1668.41
421.977	1660.22
422.185	1795.39
422.393	1987.89
422.601	1926.46
422.809	1895.74
423.017	2043.19
423.224	2213.17
423.432	2272.56
423.64	2139.44
423.848	2544.94
424.056	2356.53
424.263	2608.43
424.471	2563.37
424.679	2544.94
424.887	2751.79
425.094	2866.47
425.302	2731.31
425.51	2684.2
425.718	2845.99
425.925	3116.33
426.133	3173.67
426.341	3206.44
426.548	3409.19
426.756	3413.28
426.964	3460.38
427.171	3667.23
427.379	3822.87
427.586	3796.25
427.794	4070.68
428.001	4234.52
428.209	4259.09
428.417	4166.93
428.624	4572.43
428.832	4654.35
429.039	4564.24
429.247	4515.09
429.454	4941.07
429.662	5459.2
429.869	4969.74
430.076	5403.91
430.284	5010.7
430.491	5516.55
430.699	5707.01
430.906	5809.4
431.114	5758.21
431.321	6122.74
431.528	6112.5
431.736	6618.35
431.943	6900.97
432.15	6608.11
432.358	6642.93
432.565	7148.78
432.772	6917.36
432.979	7384.29
433.187	7640.29
433.394	7458.02
433.601	8223.96
433.808	8289.49
434.016	8031.45
434.223	8482
434.43	8858.83
434.637	8740.05
434.844	9196.75
435.052	9585.86
435.259	9583.81
435.466	9274.57
435.673	9381.06
435.88	10050.75
436.087	10517.68
436.294	10716.34
436.501	10394.81
436.708	10462.39
436.915	10890.42
437.122	11375.78
437.329	11359.4
437.537	11648.16
437.743	11877.54
437.95	11725.99
438.157	12428.44
438.364	12711.06
438.571	12543.13
438.778	12811.41
438.985	13798.53
439.192	13522.06
439.399	13888.64
439.606	13712.52
439.813	14425.21
440.02	15436.91
440.227	15160.43
440.433	14980.21
440.64	15449.19
440.847	15293.55
441.054	15725.67
441.261	16893.01
441.467	16669.78
441.674	16976.98
441.881	17658.95
442.088	17482.83
442.294	17202.25
442.501	17628.23
442.708	18105.41
442.914	18926.64
443.121	19500.08
443.328	19235.89
443.534	20503.58
443.741	19907.62
443.948	19725.35
444.154	21036.05
444.361	20872.21
444.568	21017.62
444.774	21445.65
444.981	21169.17
445.187	22078.47
445.394	23122.93
445.6	22526.97
445.807	24620
446.013	23587.82
446.22	24081.38
446.426	25203.67
446.633	25191.38
446.839	26047.43
447.046	25125.85
447.252	26512.32
447.459	26336.2
447.665	26454.98
447.871	27376.56
448.078	28787.61
448.284	27569.07
448.491	27909.04
448.697	28996.51
448.903	29475.73
449.11	29715.34
449.316	29180.82
449.522	29899.66
449.728	30804.86
449.935	31081.34
450.141	30669.7
450.347	31595.38
450.553	30796.67
450.76	30901.12
450.966	31880.05
451.172	31067
451.378	32369.51
451.584	31642.48
451.791	32404.33
451.997	32490.34
452.203	32844.64
452.409	32922.46
452.615	33053.53
452.821	31644.53
453.027	31425.4
453.233	32758.63
453.44	31435.64
453.646	31662.96
453.852	31624.05
454.058	32670.56
454.264	31150.97
454.47	31794.03
454.676	31712.11
454.882	32152.43
455.088	29508.5
455.294	29791.12
455.5	30274.44
455.705	30843.77
455.911	29340.57
456.117	28701.6
456.323	28408.74
456.529	26604.48
456.735	28119.98
456.941	27212.73
457.147	26891.19
457.352	25873.35
457.558	25777.1
457.764	25435.09
457.97	25230.29
458.176	24656.86
458.381	24841.18
458.587	23569.39
458.793	23774.19
458.999	22479.87
459.204	23622.64
459.41	23110.64
459.616	21683.21
459.821	21525.52
460.027	21666.83
460.233	21208.08
460.438	20171.81
460.644	20057.12
460.85	19598.38
461.055	18963.51
461.261	18852.92
461.466	17648.71
461.672	17015.89
461.878	18271.29
462.083	17085.52
462.289	16770.13
462.494	16682.07
462.7	15713.38
462.905	15492.2
463.111	15967.33
463.316	15967.33
463.522	15512.68
463.727	15866.98
463.932	15475.82
464.138	15412.33
464.343	15570.02
464.549	15094.89
464.754	15520.87
464.959	15393.9
465.165	15477.87
465.37	14615.67
465.575	14396.54
465.781	14734.45
465.986	14929.01
466.191	14417.02
466.397	14138.49
466.602	13468.81
466.807	14027.9
467.012	14099.58
467.218	13735.04
467.423	13638.79
467.628	13839.49
467.833	14414.97
468.038	13720.71
468.244	13216.91
468.449	13843.59
468.654	13427.85
468.859	13290.63
469.064	13249.68
469.269	12704.92
469.474	12971.15
469.679	13102.22
469.885	12688.53
470.09	12870.8
470.295	12784.79
470.5	12403.86
470.705	12649.62
470.91	12285.08
471.115	12194.97
471.32	12553.37
471.525	12129.44
471.73	12137.63
471.935	11719.84
472.139	11599.01
472.344	11650.21
472.549	11568.29
472.754	11525.29
472.959	11121.84
473.164	11084.97
473.369	10790.06
473.574	11293.86
473.778	10976.43
473.983	10962.09
474.188	11009.2
474.393	10296.5
474.598	10570.93
474.802	10478.77
475.007	10292.41
475.212	10443.96
475.417	10034.36
475.621	9964.73
475.826	9995.45
476.031	10003.64
476.235	9630.91
476.44	9782.46
476.645	9657.54
476.849	9536.71
477.054	9485.51
477.259	9376.97
477.463	9176.27
477.668	9114.83
477.872	9213.13
478.077	9088.2
478.282	8711.38
478.486	8623.31
478.691	8791.25
478.895	8553.68
479.1	8778.96
479.304	8834.25
479.509	8346.84
479.713	8545.49
479.918	8291.54
480.122	8002.78
480.326	8260.82
480.531	8328.41
480.735	8178.9
480.94	8027.35
481.144	8365.27
481.348	8152.28
481.553	8074.46
481.757	7855.33
481.961	8125.66
482.166	8086.75
482.37	8162.52
482.574	7902.43
482.778	7974.11
482.983	8027.35
483.187	7816.41
483.391	8156.38
483.595	7804.13
483.8	7947.48
484.004	7945.44
484.208	8072.41
484.412	7759.07
484.616	7933.15
484.821	7830.75
485.025	7685.34
485.229	7982.3
485.433	7920.86
485.637	8137.95
485.841	7765.21
486.045	7953.63
486.249	7824.61
486.453	7728.35
486.657	7795.93
486.861	8068.31
487.065	7761.12
487.269	7941.34
487.473	7556.32
487.677	7906.52
487.881	8027.35
488.085	7912.67
488.289	7992.54
488.493	7802.08
488.697	8031.45
488.901	8103.13
489.105	8041.69
489.309	8086.75
489.512	8006.88
489.716	8086.75
489.92	8025.31
490.124	8019.16
490.328	7972.06
490.531	7933.15
490.735	8105.18
490.939	8123.61
491.143	8099.03
491.346	8252.63
491.55	8285.4
491.754	8139.99
491.958	8340.69
492.161	8269.02
492.365	8226.01
492.569	8410.33
492.772	8367.32
492.976	8336.6
493.18	8385.75
493.383	8512.72
493.587	8506.58
493.79	8588.5
493.994	8611.03
494.197	8770.77
494.401	8766.67
494.605	8776.91
494.808	8881.36
495.012	8842.45
495.215	9024.72
495.419	8948.94
495.622	8922.32
495.825	9043.15
496.029	9037
496.232	9315.53
496.436	9360.58
496.639	9397.45
496.843	9485.51
497.046	9655.49
497.249	9612.48
497.453	9694.4
497.656	10065.08
497.859	9960.64
498.063	9948.35
498.266	10321.08
498.469	10259.64
498.673	10355.9
498.876	10536.12
499.079	10374.33
499.282	10509.49
499.485	10720.43
499.689	10654.9
499.892	10765.49
500.095	10962.09
500.298	11230.38
500.501	11148.46
500.705	11599.01
500.908	11662.5
501.111	11588.77
501.314	11752.61
501.517	11971.74
501.72	12072.09
501.923	11945.12
502.126	12373.14
502.329	12459.16
502.532	12516.5
502.735	12870.8
502.938	12733.59
503.141	12995.73
503.344	13167.76
503.547	13157.52
503.75	13573.25
503.953	13501.58
504.156	13788.29
504.359	13622.41
504.562	13962.37
504.765	13909.12
504.968	14175.36
505.17	14404.73
505.373	14390.39
505.576	14785.65
505.779	14693.49
505.982	14644.34
506.185	15238.25
506.387	15125.61
506.59	15381.61
506.793	15705.19
506.996	15512.68
507.198	15959.14
507.401	15658.09
507.604	16184.41
507.807	16391.26
508.009	16561.24
508.212	16555.1
508.415	16548.95
508.617	17069.14
508.82	17116.24
509.022	16790.61
509.225	17333.32
509.428	17388.62
509.63	17536.07
509.833	17720.39
510.035	18244.67
510.238	17962.05
510.44	18314.3
510.643	18527.29
510.845	18637.88
511.048	18859.06
511.25	19067.95
511.453	19143.73
511.655	19702.82
511.858	19446.83
512.06	19483.69
512.262	19536.94
512.465	19852.33
512.667	20132.9
512.87	20278.3
513.072	20182.05
513.274	20710.43
513.477	20753.43
513.679	21081.11
513.881	21226.51
514.084	21343.25
514.286	21672.97
514.488	21396.49
514.69	22307.84
514.893	22279.17
515.095	22152.2
515.297	22436.86
515.499	22475.77
515.701	22846.46
515.904	23073.78
516.106	23022.58
516.308	23495.66
516.51	23813.1
516.712	23718.89
516.914	23948.26
517.116	23983.08
517.318	24212.45
517.52	24222.69
517.722	24665.05
517.925	24789.98
518.127	25062.36
518.329	25123.8
518.531	25234.39
518.733	25490.38
518.935	25840.59
519.136	25697.23
519.338	26282.95
519.54	26401.73
519.742	26620.86
519.944	26428.35
520.146	26827.71
520.348	27059.13
520.55	27372.47
520.752	27395
520.954	27849.64
521.155	27513.78
521.357	27859.88
521.559	28171.18
521.761	28494.75
521.963	28162.98
522.164	28363.68
522.366	28537.76
522.568	28713.89
522.77	28984.22
522.971	29313.94
523.173	28853.15
523.375	29213.59
523.576	29131.67
523.778	29406.1
523.98	29625.23
524.181	29881.23
524.383	30213
524.584	30358.41
524.786	30122.89
524.988	30233.48
525.189	30385.03
525.391	30768
525.592	30993.28
525.794	30720.9
525.995	30690.18
526.197	30579.59
526.398	31157.11
526.6	31449.97
526.801	31275.9
527.003	31527.8
527.204	31482.74
527.406	31601.52
527.607	31603.57
527.808	31726.45
528.01	31304.57
528.211	31863.66
528.412	32398.18
528.614	32279.4
528.815	32166.76
529.016	32310.12
529.218	32189.29
529.419	32265.06
529.62	32314.22
529.822	32283.5
530.023	32203.63
530.224	32344.94
530.425	32297.83
530.626	32127.85
530.828	32017.26
531.029	32748.39
531.23	32478.05
531.431	32631.65
531.632	32627.56
531.833	32795.49
532.035	32658.27
532.236	32858.98
532.437	32996.19
532.638	32578.4
532.839	32897.89
533.04	32908.13
533.241	32332.65
533.442	33250.14
533.643	32959.33
533.844	32875.36
534.045	32703.33
534.246	32772.96
534.447	33039.2
534.648	33004.38
534.849	32916.32
535.05	32361.32
535.251	32869.22
535.451	33031.01
535.652	32801.63
535.853	32684.9
536.054	32838.5
536.255	32684.9
536.456	32729.95
536.657	33311.58
536.857	32326.5
537.058	32486.25
537.259	33039.2
537.46	32988
537.66	32783.2
537.861	32664.42
538.062	32365.42
538.263	32805.73
538.463	32328.55
538.664	32641.89
538.865	32490.34
539.065	32936.8
539.266	32267.11
539.466	33082.2
539.667	32299.88
539.868	32750.43
540.068	32746.34
540.269	32363.37
540.469	32557.92
540.67	32631.65
540.87	32400.23
541.071	32287.59
541.271	32447.33
541.472	32547.68
541.672	32486.25
541.873	32562.02
542.073	31804.27
542.274	32652.13
542.474	32236.39
542.675	32205.67
542.875	32482.15
543.075	32414.57
543.276	31910.77
543.476	32424.81
543.676	31841.14
543.877	32441.19
544.077	32271.21
544.277	32234.35
544.478	32287.59
544.678	32473.96
544.878	32471.91
545.078	32273.26
545.279	32076.65
545.479	31820.66
545.679	32138.09
545.879	32179.05
546.079	32168.81
546.28	31984.49
546.48	32105.32
546.68	32271.21
546.88	32506.73
547.08	32004.97
547.28	31947.63
547.48	31972.21
547.68	32050.03
547.88	32062.32
548.081	32498.53
548.281	32076.65
548.481	31990.64
548.681	31949.68
548.881	32103.28
549.081	32031.6
549.28	31691.63
549.48	32158.57
549.68	32144.23
549.88	32209.77
550.08	31736.69
550.28	32150.38
550.48	32015.21
550.68	32035.69
550.88	32136.04
551.08	31691.63
551.279	32146.28
551.479	31513.46
551.679	31808.37
551.879	31611.76
552.079	32271.21
552.278	31695.73
552.478	31724.4
552.678	31652.72
552.878	31710.07
553.077	32060.27
553.277	31308.66
553.477	31605.62
553.676	31742.83
553.876	31292.28
554.076	31396.73
554.275	31247.22
554.475	31363.96
554.674	31865.71
554.874	31667.06
555.074	31175.55
555.273	31689.59
555.473	31595.38
555.672	31105.91
555.872	31335.29
556.071	31144.83
556.271	31753.07
556.47	31130.49
556.67	30790.53
556.869	30737.28
557.068	31239.03
557.268	31208.31
557.467	31165.31
557.667	30731.14
557.866	30985.08
558.065	30806.91
558.265	30792.58
558.464	30509.96
558.663	31089.53
558.863	30901.12
559.062	31026.04
559.261	30641.03
559.461	31007.61
559.66	30542.72
559.859	30702.46
560.058	30997.37
560.258	30808.96
560.457	30274.44
560.656	31015.8
560.855	30380.93
561.054	30749.57
561.253	30464.9
561.453	30481.28
561.652	30342.02
561.851	30942.08
562.05	30202.76
562.249	30135.18
562.448	30200.71
562.647	30391.17
562.846	30532.48
563.045	30346.12
563.244	29811.6
563.443	30333.83
563.642	29952.91
563.841	30184.33
564.04	30110.6
564.239	30440.32
564.438	29293.46
564.637	29774.73
564.836	29799.31
565.035	29561.75
565.234	29604.75
565.432	29565.84
565.631	29662.1
565.83	29674.38
566.029	29467.54
566.228	29465.49
566.427	29383.57
566.625	29211.54
566.824	29080.47
567.023	29639.57
567.222	28922.78
567.42	29510.55
567.619	29195.16
567.818	29162.39
568.016	28705.7
568.215	29158.3
568.414	29184.92
568.612	29203.35
568.811	28730.27
569.01	28691.36
569.208	28541.86
569.407	28679.07
569.605	28197.8
569.804	28902.3
570.002	28283.81
570.201	28494.75
570.4	28175.27
570.598	28320.68
570.797	28173.22
570.995	28525.47
571.193	27984.81
571.392	28304.29
571.59	27655.09
571.789	28017.58
571.987	28160.94
572.186	27896.75
572.384	27597.74
572.582	27814.83
572.781	27933.61
572.979	27544.5
573.177	27642.8
573.376	27712.43
573.574	27431.86
573.772	27751.34
573.971	27313.08
574.169	27179.96
574.367	27095.99
574.565	27446.19
574.763	27071.42
574.962	27243.45
575.16	27085.75
575.358	27048.89
575.556	26852.28
575.754	26944.44
575.952	26659.77
576.151	26821.56
576.349	26745.79
576.547	26721.21
576.745	26758.08
576.943	26829.76
577.141	26532.8
577.339	26266.56
577.537	26622.91
577.735	26125.25
577.933	26528.7
578.131	26561.47
578.329	26059.72
578.527	25906.12
578.725	25916.36
578.923	26213.32
579.121	26098.63
579.319	25959.37
579.516	25885.64
579.714	25969.61
579.912	25592.78
580.11	25643.98
580.308	25592.78
580.506	25627.6
580.704	25379.79
580.901	25250.77
581.099	25744.33
581.297	25113.56
581.495	25068.5
581.692	25230.29
581.89	24828.89
582.088	25054.17
582.285	24806.36
582.483	25258.96
582.681	24939.48
582.878	25078.74
583.076	24613.85
583.274	24998.87
583.471	24503.26
583.669	24372.19
583.866	24486.88
584.064	24716.25
584.262	24286.18
584.459	24208.36
584.657	24357.86
584.854	24230.88
585.052	24065
585.249	24142.82
585.447	23952.36
585.644	23956.46
585.841	23905.26
586.039	24116.2
586.236	23741.42
586.434	23780.33
586.631	23559.15
586.828	23694.32
587.026	23596.01
587.223	23720.94
587.42	23520.24
587.618	23206.9
587.815	23170.04
588.012	23196.66
588.21	23194.61
588.407	23329.78
588.604	22926.33
588.801	22787.07
588.999	22930.42
589.196	23059.45
589.393	22952.95
589.59	22803.45
589.787	22391.81
589.984	22635.52
590.182	22389.76
590.379	22674.43
590.576	22320.13
590.773	22385.66
590.97	22348.8
591.167	22379.52
591.364	22160.39
591.561	22305.79
591.758	22017.03
591.955	22023.17
592.152	22184.96
592.349	21996.55
592.546	21890.06
592.743	21818.38
592.94	21511.18
593.137	21750.79
593.334	21986.31
593.531	21376.02
593.727	21445.65
593.924	21617.68
594.121	21390.35
594.318	21525.52
594.515	20857.88
594.712	21361.68
594.908	21036.05
595.105	21228.56
595.302	21031.96
595.499	21058.58
595.696	21074.96
595.892	20806.68
596.089	21058.58
596.286	20788.25
596.482	20790.3
596.679	20698.14
596.876	20589.6
597.072	20636.7
597.269	20302.88
597.466	20360.22
597.662	20110.37
597.859	20118.56
598.055	20229.15
598.252	19809.32
598.448	19981.35
598.645	20149.28
598.841	19604.52
599.038	19891.24
599.234	19602.47
599.431	19848.23
599.627	19641.39
599.824	19741.74
600.02	19682.34
600.217	19704.87
600.413	19508.27
600.609	19321.9
600.806	19495.98
601.002	19424.3
601.198	19319.85
601.395	19188.78
601.591	19182.64
601.787	19293.23
601.984	19176.5
602.18	19377.2
602.376	18889.78
602.572	18734.14
602.769	18719.8
602.965	18658.36
603.161	18885.69
603.357	18754.62
603.553	18451.52
603.75	18680.89
603.946	18646.07
604.142	18437.18
604.338	18285.63
604.534	18345.02
604.73	18365.5
604.926	18162.75
605.122	17953.86
605.318	18275.39
605.514	18031.68
605.71	18029.63
605.906	18076.74
606.102	17966.15
606.298	17701.96
606.494	17898.56
606.69	17867.84
606.886	17661
607.082	17435.72
607.278	17445.96
607.474	17521.74
607.67	17740.87
607.866	17505.35
608.062	17349.71
608.257	17505.35
608.453	17511.5
608.649	17726.53
608.845	17116.24
609.041	17286.22
609.236	17278.03
609.432	17314.89
609.628	17450.06
609.824	17011.79
610.019	17056.85
610.215	17052.75
610.411	17151.06
610.606	17052.75
610.802	17116.24
610.998	17044.56
611.193	16780.37
611.389	16782.42
611.584	17065.04
611.78	16772.18
611.976	16964.69
612.171	16852.05
612.367	16751.7
612.562	16630.87
612.758	16434.27
612.953	16616.54
613.149	16897.11
613.344	16450.65
613.539	16665.69
613.735	16612.44
613.93	16426.07
614.126	16585.82
614.321	16530.52
614.517	16516.19
614.712	16206.94
614.907	16143.45
615.103	16305.24
615.298	16196.7
615.493	16348.25
615.688	15991.91
615.884	16507.99
616.079	15854.69
616.274	16090.21
616.47	16094.3
616.665	15932.51
616.86	16006.24
617.055	15787.11
617.25	15940.71
617.445	15840.36
617.641	15957.09
617.836	16002.15
618.031	15600.74
618.226	15711.33
618.421	15469.67
618.616	15686.76
618.811	15223.92
619.006	15647.85
619.201	15363.18
619.396	15385.71
619.591	15115.37
619.786	15344.75
619.981	14877.81
620.176	15367.27
620.371	14976.11
620.566	15092.85
620.761	14947.44
620.956	14996.59
621.151	14802.04
621.346	14955.63
621.541	14636.15
621.735	14824.56
621.93	14378.11
622.125	14425.21
622.32	14406.78
622.515	14388.35
622.709	14365.82
622.904	14179.45
623.099	13900.93
623.294	14068.86
623.488	14011.52
623.683	14048.38
623.878	13683.84
624.072	13952.13
624.267	13806.72
624.462	13692.04
624.656	13712.52
624.851	13737.09
625.046	13352.07
625.24	13237.39
625.435	13380.75
625.629	13345.93
625.824	13208.72
626.018	13026.45
626.213	12938.38
626.407	13010.06
626.602	12862.61
626.796	12915.86
626.991	12737.68
627.185	12723.35
627.38	12694.68
627.574	12364.95
627.768	12469.4
627.963	12479.64
628.157	12207.26
628.352	12403.86
628.546	12002.46
628.74	12280.99
628.935	11967.65
629.129	11992.22
629.323	11764.9
629.517	11818.15
629.712	11846.82
629.906	11797.67
630.1	11662.5
630.294	11564.2
630.489	11642.02
630.683	11566.24
630.877	11435.17
631.071	11185.32
631.265	11402.41
631.459	11187.37
631.653	11259.05
631.848	10962.09
632.042	10894.51
632.236	10816.69
632.43	10820.78
632.624	11093.16
632.818	10857.65
633.012	10718.39
633.206	10683.57
633.4	10720.43
633.594	10607.8
633.788	10648.75
633.982	10640.56
634.176	10441.91
634.369	10433.72
634.563	10392.76
634.757	10224.83
634.951	10323.13
635.145	10257.59
635.339	10302.65
635.533	10122.43
635.726	10204.35
635.92	9954.49
636.114	9848
636.308	10040.51
636.501	10067.13
636.695	9852.09
636.889	9800.9
637.083	9678.02
637.276	9581.76
637.47	9616.58
637.664	9372.87
637.857	9712.83
638.051	9383.11
638.244	9235.66
638.438	9428.17
638.632	9243.85
638.825	9213.13
639.019	9315.53
639.212	9067.72
639.406	9186.51
639.599	9102.54
639.793	9112.78
639.986	8946.89
640.18	9032.91
640.373	8905.93
640.567	8625.36
640.76	8877.26
640.954	8625.36
641.147	8600.79
641.34	8651.99
641.534	8676.56
641.727	8545.49
641.92	8486.1
642.114	8400.09
642.307	8269.02
642.5	8436.95
642.694	8262.87
642.887	8314.07
643.08	8367.32
643.273	8207.58
643.467	8084.7
643.66	7961.82
643.853	8142.04
644.046	7826.65
644.239	8043.74
644.432	7890.14
644.626	7912.67
644.819	7591.14
645.012	7722.21
645.205	7810.27
645.398	7744.74
645.591	7701.73
645.784	7662.82
645.977	7523.55
646.17	7474.4
646.363	7423.2
646.556	7517.41
646.749	7427.3
646.942	7441.64
647.135	7300.33
647.328	7218.41
647.521	7255.27
647.714	7111.91
647.907	7120.1
648.099	7109.86
648.292	7232.74
648.485	7064.81
648.678	6933.74
648.871	6931.69
649.064	6925.55
649.256	7001.32
649.449	6894.83
649.642	6827.25
649.835	6860.01
650.027	6657.26
650.22	6780.14
650.413	6720.75
650.605	6745.33
650.798	6706.41
650.991	6518
651.183	6591.73
651.376	6417.65
651.568	6685.94
651.761	6573.3
651.954	6501.62
652.146	6425.84
652.339	6325.49
652.531	6337.78
652.724	6352.12
652.916	6259.96
653.109	6175.99
653.301	6165.75
653.494	6112.5
653.686	5977.34
653.879	6180.09
654.071	6132.98
654.263	6094.07
654.456	6010.11
654.648	6049.02
654.84	5993.72
655.033	5901.56
655.225	5909.76
655.417	5913.85
655.61	5629.18
655.802	5727.49
655.994	5864.7
656.186	5778.69
656.379	5596.42
656.571	5725.44
656.763	5557.5
656.955	5530.88
657.148	5633.28
657.34	5616.9
657.532	5330.18
657.724	5530.88
657.916	5612.8
658.108	5436.67
658.3	5367.04
658.492	5373.19
658.684	5317.89
658.876	5272.84
659.068	5297.41
659.26	5235.97
659.452	5217.54
659.644	5086.47
659.836	5188.87
660.028	5225.73
660.22	5172.49
660.412	5278.98
660.604	5088.52
660.796	5022.98
660.988	5149.96
661.18	5004.55
661.372	5037.32
661.563	5080.33
661.755	4910.35
661.947	4738.32
662.139	4810
662.331	4816.14
662.522	4617.49
662.714	4885.77
662.906	4844.81
663.097	4635.92
663.289	4597.01
663.481	4646.16
663.673	4664.59
663.864	4627.73
664.056	4586.77
664.247	4482.32
664.439	4678.93
664.631	4508.94
664.822	4572.43
665.014	4523.28
665.205	4510.99
665.397	4568.34
665.588	4449.55
665.78	4404.5
665.971	4457.75
666.163	4412.69
666.354	4437.27
666.546	4394.26
666.737	4211.99
666.929	4363.54
667.12	4281.62
667.311	4363.54
667.503	4332.82
667.694	4384.02
667.885	4158.74
668.077	4252.95
668.268	4058.39
668.459	4177.17
668.651	4242.71
668.842	4195.61
669.033	4054.3
669.224	4093.21
669.416	4164.89
669.607	4103.45
669.798	4027.67
669.989	4181.27
670.18	3982.62
670.371	4001.05
670.563	3894.55
670.754	3933.47
670.945	3845.4
671.136	3884.31
671.327	3953.94
671.518	3970.33
671.709	3980.57
671.9	3790.11
672.091	3888.41
672.282	3982.62
672.473	3765.53
672.664	3884.31
672.855	3781.92
673.046	3771.68
673.237	3779.87
673.428	3652.89
673.619	3812.64
673.809	3605.79
674	3646.75
674.191	3743
674.382	3685.66
674.573	3718.43
674.764	3644.7
674.954	3663.13
675.145	3607.84
675.336	3548.45
675.527	3603.74
675.717	3691.8
675.908	3609.89
676.099	3527.97
676.289	3525.92
676.48	3458.34
676.671	3591.45
676.861	3499.3
677.052	3493.15
677.243	3515.68
677.433	3577.12
677.624	3487.01
677.814	3462.43
678.005	3607.84
678.195	3456.29
678.386	3474.72
678.576	3446.05
678.767	3235.11
678.957	3341.6
679.148	3425.57
679.338	3384.61
679.529	3345.7
679.719	3384.61
679.909	3288.36
680.1	3548.45
680.29	3380.51
680.481	3298.59
680.671	3376.42
680.861	3392.8
681.052	3323.17
681.242	3333.41
681.432	3317.03
681.622	3372.32
681.813	3261.73
682.003	3351.84
682.193	3153.19
682.383	3251.49
682.573	3228.96
682.764	3280.16
682.954	3192.1
683.144	3274.02
683.334	3128.61
683.524	3175.72
683.714	3261.73
683.904	3149.09
684.094	3194.15
684.284	3020.07
684.474	3136.81
684.664	3085.61
684.854	3005.74
685.044	3226.92
685.234	3138.85
685.424	3079.46
685.614	3198.24
685.804	3114.28
685.994	3126.57
686.184	3015.98
686.374	3065.13
686.564	2999.59
686.753	2968.87
686.943	2903.34
687.133	2964.78
687.323	2950.44
687.513	3040.55
687.702	3030.31
687.892	2927.91
688.082	2999.59
688.272	3034.41
688.461	2956.58
688.651	2901.29
688.841	2831.66
689.03	2942.25
689.22	2817.32
689.41	2837.8
689.599	2835.75
689.789	2753.84
689.979	2737.45
690.168	2866.47
690.358	2764.08
690.547	2805.03
690.737	2745.64
690.926	2739.5
691.116	2684.2
691.305	2766.12
691.495	2698.54
691.684	2716.97
691.874	2665.77
692.063	2723.12
692.252	2594.09
692.442	2606.38
692.631	2567.47
692.82	2512.17
693.01	2563.37
693.199	2551.09
693.388	2495.79
693.578	2598.19
693.767	2659.63
693.956	2524.46
694.146	2553.13
694.335	2493.74
694.524	2561.33
694.713	2528.56
694.902	2460.98
695.092	2524.46
695.281	2546.99
695.47	2573.61
695.659	2436.4
695.848	2528.56
696.037	2481.46
696.226	2571.57
696.415	2442.54
696.604	2467.12
696.793	2411.82
696.982	2553.13
697.171	2544.94
697.36	2448.69
697.549	2460.98
697.738	2409.78
697.927	2493.74
698.116	2493.74
698.305	2503.98
698.494	2467.12
698.683	2438.45
698.872	2460.98
699.061	2274.61
699.25	2348.34
699.438	2516.27
699.627	2372.91
699.816	2405.68
700.005	2411.82
700.193	2460.98
700.382	2481.46
700.571	2438.45
700.76	2467.12
700.948	2383.15
701.137	2514.22
701.326	2444.59
701.514	2286.9
701.703	2508.08
701.892	2438.45
702.08	2417.97
702.269	2465.07
702.457	2301.23
702.646	2485.55
702.834	2477.36
703.023	2450.74
703.212	2491.7
703.4	2501.94
703.589	2426.16
703.777	2374.96
703.965	2397.49
704.154	2420.02
704.342	2473.26
704.531	2252.08
704.719	2346.29
704.907	2358.58
705.096	2321.71
705.284	2405.68
705.472	2293.04
705.661	2393.39
705.849	2342.19
706.037	2526.51
706.226	2385.2
706.414	2497.84
706.602	2403.63
706.79	2467.12
706.979	2389.3
707.167	2387.25
707.355	2471.22
707.543	2420.02
707.731	2460.98
707.919	2424.11
708.107	2415.92
708.296	2428.21
708.484	2366.77
708.672	2323.76
708.86	2327.86
709.048	2247.99
709.236	2475.31
709.424	2393.39
709.612	2389.3
709.8	2448.69
709.988	2479.41
710.176	2383.15
710.364	2444.59
710.551	2481.46
710.739	2450.74
710.927	2366.77
711.115	2460.98
711.303	2460.98
711.491	2460.98
711.679	2319.67
711.866	2432.3
712.054	2506.03
712.242	2481.46
712.43	2590
712.617	2385.2
712.805	2454.83
712.993	2477.36
713.181	2313.52
713.368	2491.7
713.556	2331.95
713.744	2368.82
713.931	2458.93
714.119	2334
714.306	2491.7
714.494	2374.96
714.682	2458.93
714.869	2510.13
715.057	2424.11
715.244	2383.15
715.432	2467.12
715.619	2399.54
715.807	2366.77
715.994	2374.96
716.182	2346.29
716.369	2432.3
716.556	2510.13
716.744	2499.89
716.931	2454.83
717.119	2366.77
717.306	2325.81
717.493	2368.82
717.681	2407.73
717.868	2497.84
718.055	2389.3
718.242	2465.07
718.43	2422.06
718.617	2463.02
718.804	2528.56
718.991	2399.54
719.179	2518.32
719.366	2444.59
719.553	2350.39
719.74	2420.02
719.927	2327.86
720.114	2463.02
720.301	2372.91
720.488	2485.55
720.676	2456.88
720.863	2348.34
721.05	2450.74
721.237	2323.76
721.424	2377.01
721.611	2420.02
721.798	2286.9
721.985	2354.48
722.172	2430.26
722.358	2446.64
722.545	2360.63
722.732	2442.54
722.919	2442.54
723.106	2374.96
723.293	2430.26
723.48	2399.54
723.667	2317.62
723.853	2444.59
724.04	2319.67
724.227	2401.58
724.414	2428.21
724.6	2463.02
724.787	2432.3
724.974	2526.51
725.161	2366.77
725.347	2321.71
725.534	2370.87
725.72	2395.44
725.907	2360.63
726.094	2334
726.28	2483.5
726.467	2303.28
726.653	2350.39
726.84	2352.43
727.027	2417.97
727.213	2274.61
727.4	2383.15
727.586	2358.58
727.773	2282.8
727.959	2395.44
728.145	2284.85
728.332	2354.48
728.518	2313.52
728.705	2329.91
728.891	2309.43
729.077	2348.34
729.264	2297.14
729.45	2374.96
729.636	2444.59
729.823	2329.91
730.009	2434.35
730.195	2415.92
730.382	2327.86
730.568	2358.58
730.754	2313.52
730.94	2297.14
731.126	2268.47
731.313	2415.92
731.499	2331.95
731.685	2282.8
731.871	2288.95
732.057	2303.28
732.243	2344.24
732.429	2448.69
732.615	2258.23
732.801	2307.38
732.987	2290.99
733.173	2274.61
733.359	2348.34
733.545	2268.47
733.731	2325.81
733.917	2247.99
734.103	2274.61
734.289	2229.56
734.475	2247.99
734.661	2321.71
734.847	2229.56
735.033	2311.47
735.219	2403.63
735.404	2377.01
735.59	2121.01
735.776	2264.37
735.962	2241.84
736.148	2233.65
736.333	2278.71
736.519	2252.08
736.705	2215.22
736.89	2227.51
737.076	2192.69
737.262	2164.02
737.447	2243.89
737.633	2200.88
737.819	2250.03
738.004	2149.68
738.19	2180.4
738.375	2219.32
738.561	2110.77
738.747	2262.32
738.932	2137.4
739.118	2221.36
739.303	2137.4
739.489	2200.88
739.674	2196.79
739.859	2133.3
740.045	1998.13
740.23	2133.3
740.416	2080.05
740.601	2121.01
740.786	2139.44
740.972	2008.37
741.157	2200.88
741.342	2022.71
741.528	2164.02
741.713	2145.59
741.898	2035
742.084	2075.96
742.269	2137.4
742.454	1994.04
742.639	2055.48
742.824	2131.25
743.01	2026.81
743.195	2116.92
743.38	2002.23
743.565	1985.85
743.75	1867.06
743.935	1989.94
744.12	2043.19
744.305	2024.76
744.49	1938.74
744.675	1905.98
744.86	1928.5
745.045	1994.04
745.23	1959.22
745.415	1887.54
745.6	1815.87
745.785	1889.59
745.97	1875.26
746.155	1930.55
746.34	1842.49
746.525	1865.02
746.71	1922.36
746.895	1838.39
747.079	1809.72
747.264	1783.1
747.449	1834.3
747.634	1819.96
747.819	1701.18
748.003	1758.52
748.188	1652.03
748.373	1795.39
748.557	1643.84
748.742	1664.32
748.927	1580.35
749.111	1758.52
749.296	1729.85
749.481	1711.42
749.665	1676.6
749.85	1647.93
750.034	1627.45
750.219	1684.8
750.404	1680.7
750.588	1721.66
750.773	1678.65
750.957	1615.16
751.141	1467.71
751.326	1602.88
751.51	1654.08
751.695	1559.87
751.879	1520.96
752.064	1543.49
752.248	1590.59
752.432	1506.62
752.617	1537.34
752.801	1506.62
752.985	1594.68
753.17	1475.9
753.354	1490.24
753.538	1410.37
753.722	1414.46
753.907	1350.98
754.091	1385.79
754.275	1365.31
754.459	1371.46
754.643	1316.16
754.828	1353.02
755.012	1279.3
755.196	1256.77
755.38	1271.11
755.564	1355.07
755.748	1373.5
755.932	1254.72
756.116	1240.39
756.3	1275.2
756.484	1240.39
756.668	1193.28
756.852	1213.76
757.036	1293.63
757.22	1312.07
757.404	1121.6
757.588	1160.52
757.772	1197.38
757.956	1170.76
758.14	1172.8
758.323	1201.47
758.507	1154.37
758.691	1097.03
758.875	1170.76
759.059	1203.52
759.242	1072.45
759.426	1219.91
759.61	1088.84
759.794	1150.28
759.977	1193.28
760.161	1103.17
760.345	1205.57
760.528	1088.84
760.712	1092.93
760.895	1152.32
761.079	1148.23
761.263	1135.94
761.446	1006.92
761.63	1066.31
761.813	1035.59
761.997	1054.02
762.18	1041.73
762.364	1037.64
762.547	1119.56
762.731	1090.88
762.914	978.25
763.098	998.73
763.281	1037.64
763.464	949.57
763.648	1039.69
763.831	978.25
764.015	986.44
764.198	1060.17
764.381	1017.16
764.564	1006.92
764.748	945.48
764.931	1041.73
765.114	943.43
765.297	955.72
765.481	963.91
765.664	902.47
765.847	908.62
766.03	918.86
766.213	961.86
766.397	959.81
766.58	914.76
766.763	828.74
766.946	957.77
767.129	873.8
767.312	871.75
767.495	892.23
767.678	914.76
767.861	951.62
768.044	918.86
768.227	886.09
768.41	881.99
768.593	945.48
768.776	888.14
768.959	879.94
769.142	906.57
769.324	861.51
769.507	857.42
769.69	822.6
769.873	879.94
770.056	867.66
770.239	841.03
770.421	826.7
770.604	881.99
770.787	775.5
770.97	847.18
771.152	734.54
771.335	841.03
771.518	798.03
771.7	834.89
771.883	879.94
772.066	824.65
772.248	716.11
772.431	802.12
772.613	798.03
772.796	836.94
772.978	783.69
773.161	712.01
773.343	849.22
773.526	736.59
773.708	757.07
773.891	712.01
774.073	714.06
774.256	724.3
774.438	824.65
774.621	705.87
774.803	716.11
774.985	709.96
775.168	714.06
775.35	685.39
775.532	683.34
775.715	675.15
775.897	724.3
776.079	718.15
776.261	683.34
776.444	677.19
776.626	632.14
776.808	787.79
776.99	648.52
777.173	572.75
777.355	630.09
777.537	701.77
777.719	664.91
777.901	587.08
778.083	609.61
778.265	611.66
778.447	673.1
778.629	564.56
778.811	626
778.993	595.28
779.175	562.51
779.357	591.18
779.539	650.57
779.721	544.08
779.903	591.18
780.085	550.22
780.267	580.94
780.449	580.94
780.631	566.6
780.812	562.51
780.994	537.93
781.176	531.79
781.358	580.94
781.54	552.27
781.721	517.45
781.903	554.32
782.085	556.36
782.267	544.08
782.448	468.3
782.63	478.54
782.812	531.79
782.993	548.17
783.175	496.97
783.357	435.53
783.538	535.89
783.72	421.2
783.901	591.18
784.083	447.82
784.264	476.49
784.446	372.05
784.627	382.29
784.809	507.21
784.99	478.54
785.172	406.86
785.353	476.49
785.535	499.02
785.716	490.83
785.897	456.01
786.079	374.1
786.26	435.53
786.441	460.11
786.623	357.71
786.804	339.28
786.985	400.72
787.167	431.44
787.348	413.01
787.529	314.7
787.71	490.83
787.891	488.78
788.073	320.85
788.254	357.71
788.435	427.34
788.616	396.62
788.797	290.13
788.978	390.48
789.159	320.85
789.34	474.45
789.522	435.53
789.703	380.24
789.884	437.58
790.065	316.75
790.246	345.42
790.427	337.23
790.607	306.51
790.788	353.62
790.969	222.55
791.15	347.47
791.331	234.83
791.512	394.58
791.693	281.94
791.874	308.56
792.054	361.81
792.235	355.66
792.416	267.6
792.597	273.75
792.778	357.71
792.958	404.82
793.139	343.38
793.32	326.99
793.5	296.27
793.681	331.09
793.862	324.94
794.042	232.79
794.223	273.75
794.404	378.19
794.584	333.14
794.765	245.07
794.945	324.94
795.126	363.86
795.306	259.41
795.487	341.33
795.667	275.79
795.848	220.5
796.028	343.38
796.209	318.8
796.389	345.42
796.57	302.42
796.75	335.18
796.93	267.6
797.111	216.4
797.291	224.59
797.471	312.66
797.652	253.27
797.832	279.89
798.012	240.98
798.192	177.49
798.373	253.27
798.553	230.74
798.733	324.94
798.913	218.45
799.093	165.2
799.274	277.84
799.454	286.03
799.634	177.49
799.814	281.94
799.994	238.93
800.174	226.64
800.354	228.69
800.534	210.26
800.714	335.18
800.894	197.97
801.074	257.36
801.254	189.78
801.434	216.4
801.614	337.23
801.794	277.84
801.974	539.98
802.154	259.41
802.334	292.18
802.514	298.32
802.693	259.41
802.873	230.74
803.053	253.27
803.233	245.07
803.413	236.88
803.592	212.31
803.772	218.45
803.952	202.07
804.131	228.69
804.311	222.55
804.491	183.63
804.67	200.02
804.85	183.63
805.03	161.11
805.209	206.16
805.389	204.11
805.568	144.72
805.748	245.07
805.928	222.55
806.107	243.03
806.287	286.03
806.466	253.27
806.646	179.54
806.825	267.6
807.004	183.63
807.184	232.79
807.363	177.49
807.543	232.79
807.722	54.61
807.901	195.92
808.081	220.5
808.26	134.48
808.439	181.59
808.619	171.35
808.798	165.2
808.977	212.31
809.156	228.69
809.336	171.35
809.515	189.78
809.694	181.59
809.873	206.16
810.052	97.62
810.231	175.44
810.411	161.11
810.59	138.58
810.769	116.05
810.948	142.68
811.127	197.97
811.306	130.39
811.485	228.69
811.664	154.96
811.843	165.2
812.022	142.68
812.201	140.63
812.38	191.83
812.559	148.82
812.737	157.01
812.916	169.3
813.095	152.91
813.274	140.63
813.453	111.96
813.632	159.06
813.811	232.79
813.989	99.67
814.168	167.25
814.347	122.2
814.526	195.92
814.704	138.58
814.883	193.87
815.062	111.96
815.24	177.49
815.419	68.95
815.598	87.38
815.776	122.2
815.955	132.44
816.133	64.85
816.312	79.19
816.49	109.91
816.669	103.76
816.847	138.58
817.026	60.76
817.204	120.15
817.383	173.39
817.561	144.72
817.74	87.38
817.918	83.28
818.097	197.97
818.275	148.82
818.453	148.82
818.632	144.72
818.81	138.58
818.988	111.96
819.167	42.32
819.345	134.48
819.523	132.44
819.701	99.67
819.879	146.77
820.058	95.57
820.236	214.35
820.414	142.68
820.592	116.05
820.77	175.44
820.948	93.52
821.127	103.76
821.305	105.81
821.483	128.34
821.661	165.2
821.839	83.28
822.017	177.49
822.195	157.01
822.373	130.39
822.551	107.86
822.729	157.01
822.907	132.44
823.085	62.8
823.262	165.2
823.44	91.48
823.618	81.24
823.796	167.25
823.974	148.82
824.152	27.99
824.329	99.67
824.507	68.95
824.685	34.13
824.863	111.96
825.04	85.33
825.218	154.96
825.396	105.81
825.574	99.67
825.751	93.52
825.929	140.63
826.107	46.42
826.284	163.15
826.462	126.29
826.639	89.43
826.817	68.95
826.994	154.96
827.172	36.18
827.349	150.87
827.527	169.3
827.704	120.15
827.882	126.29
828.059	146.77
828.237	64.85
828.414	111.96
828.591	87.38
828.769	83.28
828.946	52.56
829.124	83.28
829.301	120.15
829.478	91.48
829.655	144.72
829.833	93.52
830.01	132.44
830.187	118.1
830.364	32.08
830.542	144.72
830.719	138.58
830.896	89.43
831.073	-29.35
831.25	101.72
831.427	83.28
831.604	46.42
831.782	132.44
831.959	124.24
832.136	107.86
832.313	77.14
832.49	150.87
832.667	54.61
832.844	30.04
833.021	107.86
833.198	46.42
833.374	38.23
833.551	159.06
833.728	32.08
833.905	17.75
834.082	19.8
834.259	81.24
834.436	87.38
834.612	42.32
834.789	107.86
834.966	73.04
835.143	85.33
835.319	38.23
835.496	75.09
835.673	111.96
835.85	42.32
836.026	40.28
836.203	13.65
836.38	85.33
836.556	23.89
836.733	38.23
836.909	101.72
837.086	75.09
837.262	58.71
837.439	111.96
837.616	118.1
837.792	36.18
837.968	38.23
838.145	21.84
838.321	7.51
838.498	118.1
838.674	91.48
838.851	40.28
839.027	73.04
839.203	66.9
839.38	60.76
839.556	79.19
839.732	103.76
839.909	116.05
840.085	101.72
840.261	23.89
840.437	62.8
840.614	11.61
840.79	60.76
840.966	181.59
841.142	128.34
841.318	87.38
841.494	27.99
841.671	23.89
841.847	56.66
842.023	50.52
842.199	91.48
842.375	73.04
842.551	42.32
842.727	-37.55
842.903	58.71
843.079	111.96
843.255	46.42
843.431	54.61
843.607	114
843.783	52.56
843.959	89.43
844.134	44.37
844.31	87.38
844.486	40.28
844.662	-8.87
844.838	77.14
845.013	109.91
845.189	13.65
845.365	103.76
845.541	25.94
845.716	38.23
845.892	54.61
846.068	58.71
846.244	73.04
846.419	-60.07
846.595	7.51
846.77	-35.5
846.946	73.04
847.122	13.65
847.297	44.37
847.473	-6.83
847.648	36.18
847.824	15.7
847.999	89.43
848.175	79.19
848.35	107.86
848.526	91.48
848.701	83.28
848.876	97.62
849.052	73.04
849.227	46.42
849.403	38.23
849.578	9.56
849.753	89.43
849.929	32.08
850.104	21.84
850.279	19.8
850.454	132.44
850.63	126.29
850.805	68.95
850.98	46.42
851.155	-21.16
851.33	99.67
851.505	52.56
851.681	75.09
851.856	46.42
852.031	73.04
852.206	38.23
852.381	7.51
852.556	101.72
852.731	58.71
852.906	23.89
853.081	77.14
853.256	68.95
853.431	38.23
853.606	-39.59
853.781	42.32
853.956	60.76
854.131	50.52
854.305	68.95
854.48	19.8
854.655	32.08
854.83	36.18
855.005	-2.73
855.18	66.9
855.354	-4.78
855.529	105.81
855.704	9.56
855.879	58.71
856.053	-10.92
856.228	19.8
856.403	52.56
856.577	81.24
856.752	50.52
856.926	95.57
857.101	48.47
857.276	122.2
857.45	11.61
857.625	38.23
857.799	81.24
857.974	44.37
858.148	32.08
858.323	-33.45
858.497	-33.45
858.672	23.89
858.846	25.94
859.02	105.81
859.195	5.46
859.369	32.08
859.543	60.76
859.718	-27.31
859.892	107.86
860.066	77.14
860.241	25.94
860.415	-8.87
860.589	25.94
860.763	34.13
860.938	11.61
861.112	48.47
861.286	-10.92
861.46	44.37
861.634	99.67
861.808	87.38
861.982	116.05
862.157	64.85
862.331	3.41
862.505	34.13
862.679	32.08
862.853	-72.36
863.027	89.43
863.201	114
863.375	-6.83
863.549	38.23
863.722	68.95
863.896	60.76
864.07	-19.11
864.244	79.19
864.418	30.04
864.592	3.41
864.766	50.52
864.939	60.76
865.113	58.71
865.287	91.48
865.461	85.33
865.634	71
865.808	38.23
865.982	17.75
866.156	3.41
866.329	50.52
866.503	105.81
866.676	101.72
866.85	13.65
867.024	9.56
867.197	27.99
867.371	23.89
867.544	58.71
867.718	-0.68
867.891	40.28
868.065	48.47
868.238	13.65
868.412	48.47
868.585	7.51
868.759	1.37
868.932	42.32
869.105	-10.92
869.279	21.84
869.452	23.89
869.625	9.56
869.799	56.66
869.972	11.61
870.145	36.18
870.319	48.47
870.492	38.23
870.665	21.84
870.838	3.41
871.011	1.37
871.185	40.28
871.358	15.7
871.531	60.76
871.704	-41.64
871.877	23.89
872.05	9.56
872.223	19.8
872.396	21.84
872.569	99.67
872.742	54.61
872.915	15.7
873.088	38.23
873.261	-4.78
873.434	30.04
873.607	-4.78
873.78	68.95
873.953	-15.02
874.126	66.9
874.299	11.61
874.471	15.7
874.644	-0.68
874.817	-19.11
874.99	27.99
875.163	56.66
875.335	27.99
875.508	58.71
875.681	38.23
875.853	30.04
876.026	-4.78
876.199	-47.79
876.371	13.65
876.544	19.8
876.717	-12.97
876.889	46.42
877.062	40.28
877.234	5.46
877.407	101.72
877.579	58.71
877.752	83.28
877.924	46.42
878.097	21.84
878.269	27.99
878.442	36.18
878.614	-23.21
878.786	79.19
878.959	-4.78
879.131	-4.78
879.303	13.65
879.476	71
879.648	32.08
879.82	58.71
879.993	-72.36
880.165	36.18
880.337	34.13
880.509	32.08
880.681	-60.07
880.854	11.61
881.026	11.61
881.198	87.38
881.37	13.65
881.542	7.51
881.714	-23.21
881.886	9.56
882.058	9.56
882.23	-4.78
882.402	36.18
882.574	54.61
882.746	23.89
882.918	-35.5
883.09	38.23
883.262	52.56
883.434	-53.93
883.606	73.04
883.778	124.24
883.95	60.76
884.122	-6.83
884.293	38.23
884.465	27.99
884.637	48.47
884.809	5.46
884.98	13.65
885.152	56.66
885.324	17.75
885.496	15.7
885.667	44.37
885.839	-0.68
886.011	40.28
886.182	46.42
886.354	15.7
886.525	46.42
886.697	7.51
886.869	5.46
887.04	-21.16
887.212	32.08
887.383	5.46
887.555	81.24
887.726	-39.59
887.897	66.9
888.069	-25.26
888.24	30.04
888.412	21.84
888.583	17.75
888.754	58.71
888.926	3.41
889.097	58.71
889.268	5.46
889.44	-21.16
889.611	13.65
889.782	11.61
889.953	-12.97
890.125	1.37
890.296	-29.35
890.467	36.18
890.638	-8.87
890.809	60.76
890.98	-35.5
891.151	-35.5
891.323	36.18
891.494	66.9
891.665	-64.17
891.836	-39.59
892.007	87.38
892.178	81.24
892.349	23.89
892.52	5.46
892.691	23.89
892.862	1.37
893.032	-0.68
893.203	27.99
893.374	-10.92
893.545	89.43
893.716	-2.73
893.887	-84.65
894.057	13.65
894.228	7.51
894.399	-51.88
894.57	17.75
894.74	-17.07
894.911	-2.73
895.082	36.18
895.253	58.71
895.423	21.84
895.594	13.65
895.764	68.95
895.935	5.46
896.106	50.52
896.276	50.52
896.447	64.85
896.617	36.18
896.788	50.52
896.958	50.52
897.129	3.41
897.299	15.7
897.47	7.51
897.64	36.18
897.81	-33.45
897.981	-15.02
898.151	9.56
898.322	5.46
898.492	-33.45
898.662	50.52
898.832	13.65
899.003	-21.16
899.173	7.51
899.343	58.71
899.513	30.04
