Data from USB4F104151__19__12-00-27-894.txt Node

Date: Fri Mar 14 12:00:27 EDT 2025
User: louis
Spectrometer: USB4F10415
Trigger mode: 4
Integration Time (sec): 2.000000E-2
Scans to average: 1
Electric dark correction enabled: true
Nonlinearity correction enabled: false
Boxcar width: 0
XAxis mode: Wavelengths
Number of Pixels in Spectrum: 3648
>>>>>Begin Spectral Data<<<<<
178.204	-104.28
178.424	-104.28
178.644	-104.28
178.864	-46.93
179.084	-36.69
179.304	-28.5
179.524	-30.55
179.744	-18.26
179.964	34.99
180.184	49.32
180.404	4.27
180.624	-34.64
180.844	-5.97
181.064	24.75
181.283	32.94
181.503	-55.12
181.723	26.79
181.943	-89.94
182.163	149.67
182.383	-16.21
182.602	-8.02
182.822	45.23
183.042	8.36
183.262	61.61
183.482	51.37
183.701	51.37
183.921	45.23
184.141	16.55
184.361	0.17
184.58	30.89
184.8	-40.79
185.02	-3.93
185.239	-14.17
185.459	28.84
185.679	-10.07
185.898	71.85
186.118	37.03
186.338	-22.36
186.557	2.22
186.777	-12.12
186.997	6.31
187.216	65.71
187.436	24.75
187.655	8.36
187.875	135.34
188.095	-8.02
188.314	49.32
188.534	34.99
188.753	49.32
188.973	-59.22
189.192	96.43
189.412	-3.93
189.631	6.31
189.851	-91.99
190.07	12.46
190.29	-16.21
190.509	-12.12
190.729	-26.45
190.948	37.03
191.168	106.67
191.387	73.9
191.607	24.75
191.826	43.18
192.045	0.17
192.265	-38.74
192.484	94.38
192.704	102.57
192.923	18.6
193.142	-38.74
193.362	16.55
193.581	77.99
193.8	-14.17
194.02	114.86
194.239	6.31
194.458	30.89
194.678	-32.6
194.897	20.65
195.116	45.23
195.335	-51.03
195.555	16.55
195.774	24.75
195.993	39.08
196.212	-8.02
196.432	49.32
196.651	-22.36
196.87	12.46
197.089	51.37
197.308	73.9
197.528	77.99
197.747	28.84
197.966	24.75
198.185	-10.07
198.404	-5.97
198.623	32.94
198.842	37.03
199.062	-30.55
199.281	49.32
199.5	-26.45
199.719	-24.4
199.938	22.7
200.157	47.27
200.376	77.99
200.595	0.17
200.814	16.55
201.033	4.27
201.252	69.8
201.471	69.8
201.69	22.7
201.909	84.14
202.128	-46.93
202.347	28.84
202.566	-5.97
202.785	24.75
203.004	4.27
203.223	71.85
203.442	22.7
203.661	10.41
203.879	47.27
204.098	34.99
204.317	-8.02
204.536	-30.55
204.755	28.84
204.974	104.62
205.193	100.52
205.411	80.04
205.63	57.51
205.849	-40.79
206.068	30.89
206.287	108.71
206.505	80.04
206.724	14.51
206.943	43.18
207.162	88.23
207.381	-44.88
207.599	-18.26
207.818	12.46
208.037	28.84
208.255	-5.97
208.474	-14.17
208.693	-30.55
208.911	94.38
209.13	26.79
209.349	51.37
209.567	43.18
209.786	12.46
210.005	49.32
210.223	57.51
210.442	90.28
210.661	86.19
210.879	63.66
211.098	-30.55
211.316	-65.36
211.535	59.56
211.753	-32.6
211.972	53.42
212.191	67.75
212.409	75.95
212.628	-5.97
212.846	34.99
213.065	121
213.283	127.14
213.502	-42.84
213.72	-16.21
213.938	67.75
214.157	-12.12
214.375	18.6
214.594	2.22
214.812	39.08
215.031	6.31
215.249	-3.93
215.467	-20.31
215.686	-28.5
215.904	0.17
216.122	24.75
216.341	37.03
216.559	-57.17
216.778	-12.12
216.996	100.52
217.214	-57.17
217.432	4.27
217.651	10.41
217.869	49.32
218.087	37.03
218.306	2.22
218.524	65.71
218.742	37.03
218.96	80.04
219.179	-18.26
219.397	-14.17
219.615	34.99
219.833	53.42
220.051	41.13
220.27	57.51
220.488	14.51
220.706	123.05
220.924	28.84
221.142	22.7
221.36	-16.21
221.578	80.04
221.796	32.94
222.015	-28.5
222.233	-30.55
222.451	82.09
222.669	16.55
222.887	73.9
223.105	10.41
223.323	82.09
223.541	55.47
223.759	51.37
223.977	16.55
224.195	30.89
224.413	49.32
224.631	14.51
224.849	26.79
225.067	80.04
225.285	18.6
225.503	6.31
225.721	57.51
225.939	30.89
226.157	26.79
226.375	69.8
226.592	92.33
226.81	12.46
227.028	34.99
227.246	55.47
227.464	10.41
227.682	61.61
227.9	102.57
228.117	-5.97
228.335	16.55
228.553	-10.07
228.771	39.08
228.989	84.14
229.206	-55.12
229.424	14.51
229.642	26.79
229.86	-34.64
230.077	80.04
230.295	30.89
230.513	2.22
230.731	96.43
230.948	10.41
231.166	32.94
231.384	28.84
231.601	-1.88
231.819	26.79
232.037	8.36
232.254	20.65
232.472	32.94
232.689	-16.21
232.907	-18.26
233.125	61.61
233.342	88.23
233.56	20.65
233.777	116.9
233.995	16.55
234.213	47.27
234.43	-8.02
234.648	51.37
234.865	24.75
235.083	59.56
235.3	28.84
235.518	20.65
235.735	94.38
235.953	59.56
236.17	-30.55
236.388	30.89
236.605	75.95
236.822	59.56
237.04	41.13
237.257	37.03
237.475	-8.02
237.692	121
237.909	61.61
238.127	-24.4
238.344	39.08
238.562	0.17
238.779	18.6
238.996	32.94
239.214	-38.74
239.431	22.7
239.648	41.13
239.865	32.94
240.083	41.13
240.3	57.51
240.517	-5.97
240.735	41.13
240.952	63.66
241.169	-10.07
241.386	55.47
241.603	6.31
241.821	-28.5
242.038	41.13
242.255	63.66
242.472	4.27
242.689	30.89
242.907	-34.64
243.124	47.27
243.341	100.52
243.558	0.17
243.775	-75.6
243.992	43.18
244.209	69.8
244.426	86.19
244.643	82.09
244.86	-1.88
245.078	59.56
245.295	-12.12
245.512	39.08
245.729	-20.31
245.946	55.47
246.163	51.37
246.38	-10.07
246.597	34.99
246.814	4.27
247.031	80.04
247.248	-22.36
247.464	-1.88
247.681	22.7
247.898	10.41
248.115	-32.6
248.332	59.56
248.549	127.14
248.766	24.75
248.983	-14.17
249.2	18.6
249.417	88.23
249.633	-18.26
249.85	0.17
250.067	10.41
250.284	37.03
250.501	22.7
250.717	12.46
250.934	32.94
251.151	10.41
251.368	43.18
251.585	30.89
251.801	-14.17
252.018	-10.07
252.235	2.22
252.451	32.94
252.668	-22.36
252.885	88.23
253.102	14.51
253.318	53.42
253.535	6.31
253.752	4.27
253.968	18.6
254.185	10.41
254.401	10.41
254.618	53.42
254.835	-1.88
255.051	43.18
255.268	-55.12
255.484	80.04
255.701	108.71
255.917	47.27
256.134	10.41
256.351	65.71
256.567	59.56
256.784	92.33
257	22.7
257.217	51.37
257.433	32.94
257.65	2.22
257.866	71.85
258.082	-46.93
258.299	22.7
258.515	65.71
258.732	41.13
258.948	16.55
259.165	49.32
259.381	-24.4
259.597	-22.36
259.814	59.56
260.03	0.17
260.246	8.36
260.463	-38.74
260.679	86.19
260.895	80.04
261.112	71.85
261.328	14.51
261.544	34.99
261.761	73.9
261.977	26.79
262.193	0.17
262.409	6.31
262.626	45.23
262.842	0.17
263.058	39.08
263.274	22.7
263.49	43.18
263.707	14.51
263.923	-44.88
264.139	-14.17
264.355	53.42
264.571	69.8
264.787	57.51
265.004	-40.79
265.22	28.84
265.436	-42.84
265.652	80.04
265.868	6.31
266.084	32.94
266.3	39.08
266.516	-46.93
266.732	30.89
266.948	86.19
267.164	-12.12
267.38	-63.32
267.596	28.84
267.812	53.42
268.028	61.61
268.244	47.27
268.46	51.37
268.676	34.99
268.892	57.51
269.108	43.18
269.324	20.65
269.54	51.37
269.756	4.27
269.972	-34.64
270.188	16.55
270.403	-5.97
270.619	43.18
270.835	63.66
271.051	-1.88
271.267	12.46
271.483	-1.88
271.698	71.85
271.914	57.51
272.13	20.65
272.346	45.23
272.562	-14.17
272.777	32.94
272.993	-3.93
273.209	2.22
273.425	-20.31
273.64	53.42
273.856	26.79
274.072	43.18
274.287	47.27
274.503	30.89
274.719	77.99
274.934	6.31
275.15	20.65
275.366	-3.93
275.581	14.51
275.797	-1.88
276.012	-59.22
276.228	4.27
276.444	116.9
276.659	28.84
276.875	-10.07
277.09	-3.93
277.306	0.17
277.521	59.56
277.737	10.41
277.952	63.66
278.168	82.09
278.383	12.46
278.599	57.51
278.814	4.27
279.03	28.84
279.245	4.27
279.461	43.18
279.676	112.81
279.892	-16.21
280.107	34.99
280.322	-32.6
280.538	43.18
280.753	18.6
280.969	71.85
281.184	6.31
281.399	75.95
281.615	67.75
281.83	47.27
282.045	-8.02
282.26	53.42
282.476	6.31
282.691	12.46
282.906	20.65
283.122	24.75
283.337	88.23
283.552	2.22
283.767	39.08
283.983	88.23
284.198	39.08
284.413	18.6
284.628	22.7
284.843	-18.26
285.058	0.17
285.274	-8.02
285.489	-61.27
285.704	16.55
285.919	24.75
286.134	30.89
286.349	22.7
286.564	28.84
286.779	94.38
286.995	94.38
287.21	6.31
287.425	80.04
287.64	-18.26
287.855	104.62
288.07	-10.07
288.285	14.51
288.5	-8.02
288.715	28.84
288.93	32.94
289.145	10.41
289.36	59.56
289.575	28.84
289.79	-3.93
290.004	-30.55
290.219	69.8
290.434	71.85
290.649	-34.64
290.864	20.65
291.079	75.95
291.294	14.51
291.509	-28.5
291.724	20.65
291.938	59.56
292.153	61.61
292.368	28.84
292.583	-5.97
292.798	0.17
293.012	108.71
293.227	-55.12
293.442	-10.07
293.657	-8.02
293.871	-26.45
294.086	67.75
294.301	39.08
294.516	-24.4
294.73	77.99
294.945	-57.17
295.16	49.32
295.374	61.61
295.589	30.89
295.804	-75.6
296.018	4.27
296.233	32.94
296.447	6.31
296.662	32.94
296.877	69.8
297.091	-10.07
297.306	10.41
297.52	47.27
297.735	30.89
297.949	-5.97
298.164	-20.31
298.378	75.95
298.593	49.32
298.807	14.51
299.022	65.71
299.236	39.08
299.451	18.6
299.665	45.23
299.88	22.7
300.094	-8.02
300.309	-5.97
300.523	106.67
300.737	-8.02
300.952	53.42
301.166	80.04
301.381	20.65
301.595	37.03
301.809	-1.88
302.024	-14.17
302.238	94.38
302.452	43.18
302.667	20.65
302.881	24.75
303.095	43.18
303.309	-42.84
303.524	-8.02
303.738	-3.93
303.952	6.31
304.166	-5.97
304.381	-16.21
304.595	51.37
304.809	43.18
305.023	2.22
305.237	-36.69
305.452	37.03
305.666	6.31
305.88	63.66
306.094	71.85
306.308	-1.88
306.522	12.46
306.736	34.99
306.95	102.57
307.164	75.95
307.379	57.51
307.593	84.14
307.807	61.61
308.021	-16.21
308.235	16.55
308.449	-44.88
308.663	12.46
308.877	55.47
309.091	0.17
309.305	16.55
309.519	59.56
309.733	47.27
309.947	22.7
310.161	-10.07
310.374	8.36
310.588	30.89
310.802	-51.03
311.016	65.71
311.23	92.33
311.444	-10.07
311.658	-14.17
311.872	30.89
312.085	28.84
312.299	39.08
312.513	-30.55
312.727	16.55
312.941	16.55
313.154	-20.31
313.368	61.61
313.582	53.42
313.796	-44.88
314.009	16.55
314.223	45.23
314.437	30.89
314.651	-12.12
314.864	41.13
315.078	65.71
315.292	-51.03
315.505	30.89
315.719	12.46
315.933	-24.4
316.146	20.65
316.36	-14.17
316.573	28.84
316.787	16.55
317.001	16.55
317.214	14.51
317.428	53.42
317.641	4.27
317.855	18.6
318.068	37.03
318.282	28.84
318.495	45.23
318.709	49.32
318.922	47.27
319.136	131.24
319.349	37.03
319.563	-14.17
319.776	8.36
319.99	-16.21
320.203	84.14
320.417	34.99
320.63	12.46
320.843	141.48
321.057	67.75
321.27	55.47
321.483	77.99
321.697	96.43
321.91	-10.07
322.124	26.79
322.337	4.27
322.55	24.75
322.763	37.03
322.977	55.47
323.19	-1.88
323.403	41.13
323.617	28.84
323.83	71.85
324.043	6.31
324.256	14.51
324.469	-38.74
324.683	59.56
324.896	-20.31
325.109	39.08
325.322	-22.36
325.535	30.89
325.748	22.7
325.962	53.42
326.175	45.23
326.388	34.99
326.601	69.8
326.814	2.22
327.027	45.23
327.24	18.6
327.453	4.27
327.666	8.36
327.879	20.65
328.092	24.75
328.305	8.36
328.518	67.75
328.731	26.79
328.944	41.13
329.157	24.75
329.37	75.95
329.583	71.85
329.796	88.23
330.009	49.32
330.222	47.27
330.435	30.89
330.648	41.13
330.861	65.71
331.073	16.55
331.286	-16.21
331.499	16.55
331.712	20.65
331.925	-8.02
332.138	37.03
332.35	-32.6
332.563	-16.21
332.776	45.23
332.989	20.65
333.202	59.56
333.414	-34.64
333.627	73.9
333.84	-61.27
334.053	-5.97
334.265	96.43
334.478	88.23
334.691	45.23
334.903	34.99
335.116	28.84
335.329	59.56
335.541	10.41
335.754	75.95
335.966	-3.93
336.179	41.13
336.392	-1.88
336.604	41.13
336.817	53.42
337.029	63.66
337.242	-53.08
337.454	108.71
337.667	26.79
337.88	51.37
338.092	57.51
338.305	45.23
338.517	41.13
338.729	43.18
338.942	43.18
339.154	-10.07
339.367	-20.31
339.579	41.13
339.792	16.55
340.004	98.47
340.217	-36.69
340.429	49.32
340.641	12.46
340.854	12.46
341.066	6.31
341.278	53.42
341.491	30.89
341.703	82.09
341.915	47.27
342.128	59.56
342.34	49.32
342.552	14.51
342.764	65.71
342.977	4.27
343.189	-10.07
343.401	82.09
343.613	37.03
343.826	28.84
344.038	61.61
344.25	-10.07
344.462	49.32
344.674	75.95
344.886	61.61
345.099	114.86
345.311	57.51
345.523	98.47
345.735	20.65
345.947	6.31
346.159	24.75
346.371	30.89
346.583	88.23
346.795	18.6
347.007	-1.88
347.219	-18.26
347.431	18.6
347.643	22.7
347.855	-14.17
348.067	30.89
348.279	12.46
348.491	69.8
348.703	-18.26
348.915	20.65
349.127	43.18
349.339	41.13
349.551	86.19
349.763	73.9
349.975	77.99
350.187	49.32
350.399	0.17
350.61	26.79
350.822	22.7
351.034	16.55
351.246	41.13
351.458	14.51
351.669	28.84
351.881	77.99
352.093	47.27
352.305	53.42
352.517	145.58
352.728	57.51
352.94	55.47
353.152	34.99
353.363	24.75
353.575	28.84
353.787	92.33
353.999	77.99
354.21	-10.07
354.422	-3.93
354.633	80.04
354.845	57.51
355.057	45.23
355.268	69.8
355.48	63.66
355.692	8.36
355.903	55.47
356.115	-51.03
356.326	-22.36
356.538	108.71
356.749	28.84
356.961	67.75
357.172	16.55
357.384	90.28
357.595	37.03
357.807	43.18
358.018	-22.36
358.23	80.04
358.441	102.57
358.653	77.99
358.864	55.47
359.075	49.32
359.287	0.17
359.498	-18.26
359.709	69.8
359.921	43.18
360.132	37.03
360.344	86.19
360.555	108.71
360.766	34.99
360.977	16.55
361.189	43.18
361.4	67.75
361.611	14.51
361.823	18.6
362.034	61.61
362.245	69.8
362.456	8.36
362.667	18.6
362.879	6.31
363.09	30.89
363.301	24.75
363.512	104.62
363.723	22.7
363.935	34.99
364.146	41.13
364.357	2.22
364.568	116.9
364.779	16.55
364.99	37.03
365.201	-34.64
365.412	26.79
365.623	-55.12
365.834	75.95
366.045	-32.6
366.256	-10.07
366.467	2.22
366.678	61.61
366.889	4.27
367.1	61.61
367.311	34.99
367.522	2.22
367.733	90.28
367.944	86.19
368.155	61.61
368.366	-8.02
368.577	26.79
368.788	65.71
368.999	6.31
369.209	84.14
369.42	106.67
369.631	102.57
369.842	0.17
370.053	-22.36
370.264	47.27
370.474	41.13
370.685	43.18
370.896	28.84
371.107	100.52
371.317	8.36
371.528	59.56
371.739	75.95
371.95	47.27
372.16	45.23
372.371	39.08
372.582	-16.21
372.792	94.38
373.003	67.75
373.214	69.8
373.424	49.32
373.635	43.18
373.846	149.67
374.056	37.03
374.267	45.23
374.477	8.36
374.688	30.89
374.898	-46.93
375.109	37.03
375.319	69.8
375.53	69.8
375.74	73.9
375.951	55.47
376.161	41.13
376.372	96.43
376.582	10.41
376.793	59.56
377.003	77.99
377.214	-32.6
377.424	0.17
377.635	30.89
377.845	16.55
378.055	67.75
378.266	16.55
378.476	45.23
378.686	61.61
378.897	77.99
379.107	41.13
379.317	59.56
379.528	30.89
379.738	94.38
379.948	4.27
380.158	43.18
380.369	2.22
380.579	77.99
380.789	37.03
380.999	88.23
381.21	8.36
381.42	86.19
381.63	18.6
381.84	67.75
382.05	114.86
382.261	90.28
382.471	63.66
382.681	28.84
382.891	39.08
383.101	71.85
383.311	12.46
383.521	45.23
383.731	127.14
383.941	77.99
384.151	2.22
384.361	71.85
384.571	94.38
384.781	-12.12
384.991	39.08
385.201	98.47
385.411	102.57
385.621	77.99
385.831	30.89
386.041	20.65
386.251	12.46
386.461	71.85
386.671	96.43
386.881	59.56
387.091	90.28
387.301	98.47
387.511	90.28
387.72	104.62
387.93	24.75
388.14	65.71
388.35	-22.36
388.56	14.51
388.769	108.71
388.979	-36.69
389.189	59.56
389.399	96.43
389.609	47.27
389.818	71.85
390.028	41.13
390.238	59.56
390.447	86.19
390.657	102.57
390.867	24.75
391.076	22.7
391.286	37.03
391.496	2.22
391.705	137.38
391.915	114.86
392.125	45.23
392.334	69.8
392.544	94.38
392.753	77.99
392.963	4.27
393.172	90.28
393.382	94.38
393.591	143.53
393.801	61.61
394.01	61.61
394.22	16.55
394.429	104.62
394.639	77.99
394.848	90.28
395.058	77.99
395.267	71.85
395.477	164.01
395.686	28.84
395.895	116.9
396.105	112.81
396.314	71.85
396.524	100.52
396.733	57.51
396.942	84.14
397.152	121
397.361	65.71
397.57	94.38
397.78	133.29
397.989	84.14
398.198	196.78
398.407	110.76
398.617	104.62
398.826	141.48
399.035	112.81
399.244	184.49
399.453	145.58
399.663	104.62
399.872	135.34
400.081	100.52
400.29	71.85
400.499	184.49
400.708	110.76
400.917	129.19
401.127	143.53
401.336	94.38
401.545	73.9
401.754	135.34
401.963	51.37
402.172	28.84
402.381	47.27
402.59	118.95
402.799	139.43
403.008	133.29
403.217	135.34
403.426	77.99
403.635	112.81
403.844	176.3
404.053	92.33
404.262	121
404.471	182.44
404.68	127.14
404.888	92.33
405.097	147.62
405.306	213.16
405.515	118.95
405.724	88.23
405.933	188.58
406.142	100.52
406.35	194.73
406.559	166.06
406.768	170.15
406.977	147.62
407.185	215.21
407.394	260.26
407.603	139.43
407.812	188.58
408.02	174.25
408.229	204.97
408.438	200.87
408.646	129.19
408.855	245.93
409.064	184.49
409.272	219.3
409.481	274.6
409.69	209.06
409.898	305.32
410.107	284.84
410.315	356.52
410.524	264.36
410.733	331.94
410.941	401.57
411.15	364.71
411.358	270.5
411.567	438.44
411.775	413.86
411.984	377
412.192	422.05
412.401	387.24
412.609	426.15
412.818	487.59
413.026	493.73
413.234	501.92
413.443	440.48
413.651	526.5
413.86	481.44
414.068	522.4
414.276	583.84
414.485	524.45
414.693	649.38
414.901	716.96
415.11	643.23
415.318	739.49
415.526	770.21
415.734	772.25
415.943	663.71
416.151	772.25
416.359	764.06
416.567	790.69
416.776	915.61
416.984	854.17
417.192	991.39
417.4	872.61
417.608	923.8
417.817	942.24
418.025	1079.45
418.233	1114.27
418.441	1032.35
418.649	1128.6
418.857	1198.23
419.065	1228.95
419.273	1171.61
419.481	1411.22
419.689	1353.88
419.897	1390.74
420.105	1460.37
420.313	1425.56
420.521	1560.72
420.729	1579.15
420.937	1667.22
421.145	1667.22
421.353	1761.42
421.561	1781.9
421.769	1894.54
421.977	1962.12
422.185	1896.59
422.393	2103.43
422.601	2076.81
422.809	2244.74
423.017	2070.67
423.224	2238.6
423.432	2386.05
423.64	2373.77
423.848	2676.87
424.056	2566.28
424.263	2674.82
424.471	2799.74
424.679	2842.75
424.887	2977.92
425.094	3088.51
425.302	2977.92
425.51	3352.7
425.718	3342.46
425.925	3307.64
426.133	3479.67
426.341	3739.76
426.548	3747.95
426.756	3797.1
426.964	3881.07
427.171	4026.48
427.379	4204.65
427.586	4386.92
427.794	4380.78
428.001	4614.24
428.209	4749.41
428.417	4739.17
428.624	4913.25
428.832	5126.24
429.039	5046.37
429.247	5116
429.454	5449.82
429.662	5826.64
429.869	5591.13
430.076	5920.85
430.284	5705.81
430.491	5871.7
430.699	6314.06
430.906	6283.34
431.114	6254.67
431.321	6699.08
431.528	6830.15
431.736	7202.88
431.943	7606.33
432.15	7153.73
432.358	7272.51
432.565	7940.15
432.772	7802.93
432.979	8130.61
433.187	8329.26
433.394	8390.7
433.601	8857.64
433.808	9070.62
434.016	8775.72
434.223	9361.44
434.43	9904.15
434.637	9623.58
434.844	10309.65
435.052	10639.37
435.259	10520.59
435.466	10514.44
435.673	10444.81
435.88	11122.69
436.087	11667.45
436.294	11712.5
436.501	11409.4
436.708	11634.68
436.915	11997.17
437.122	12574.7
437.329	12689.39
437.537	12740.58
437.743	13082.6
437.95	12982.24
438.157	13680.6
438.364	13981.65
438.571	14270.42
438.778	14331.86
438.985	15640.51
439.192	15101.89
439.399	15499.2
439.606	15314.88
439.813	16013.24
440.02	16969.64
440.227	16644.01
440.433	16590.77
440.64	17065.89
440.847	16973.74
441.054	17444.77
441.261	18395.03
441.467	18352.02
441.674	18704.27
441.881	19376
442.088	19052.42
442.294	19046.28
442.501	19697.53
442.708	20113.27
442.914	20911.98
443.121	21520.23
443.328	21170.02
443.534	22669.14
443.741	22003.55
443.948	21802.85
444.154	23222.09
444.361	23217.99
444.568	23381.83
444.774	23566.15
444.981	23729.98
445.187	24389.43
445.394	25655.08
445.6	25143.08
445.807	27367.18
446.013	26406.68
446.22	26650.39
446.426	28004.1
446.633	27731.72
446.839	29322.99
447.046	27954.94
447.252	29290.22
447.459	29585.13
447.665	29058.8
447.871	30721.75
448.078	31844.04
448.284	30711.51
448.491	31151.82
448.697	32581.31
448.903	32978.61
449.11	33250.99
449.316	32487.1
449.522	33220.27
449.728	33642.15
449.935	34076.32
450.141	33885.86
450.347	34803.35
450.553	33930.92
450.76	34356.89
450.966	35307.15
451.172	35051.16
451.378	36007.56
451.584	35157.65
451.791	36165.25
451.997	35798.66
452.203	36445.82
452.409	36331.14
452.615	36253.31
452.821	34774.68
453.027	34641.56
453.233	36148.87
453.44	34948.76
453.646	35341.97
453.852	35393.17
454.058	35841.67
454.264	34576.03
454.47	35595.92
454.676	34309.79
454.882	35673.74
455.088	32573.11
455.294	33093.3
455.5	33574.57
455.705	33941.16
455.911	32161.47
456.117	31782.6
456.323	31389.39
456.529	29691.62
456.735	30951.12
456.941	30131.93
457.147	29914.85
457.352	28722.93
457.558	28522.23
457.764	28460.79
457.97	28176.12
458.176	27225.87
458.381	27356.94
458.587	25896.74
458.793	26009.37
458.999	24739.63
459.204	26363.67
459.41	25390.89
459.616	23861.05
459.821	23942.97
460.027	23785.28
460.233	23439.17
460.438	22132.57
460.644	22355.8
460.85	21139.3
461.055	20963.18
461.261	20957.03
461.466	19384.19
461.672	18857.87
461.878	20031.35
462.083	18833.29
462.289	18446.23
462.494	18214.8
462.7	17420.19
462.905	16943.02
463.111	17674.14
463.316	17553.31
463.522	17227.68
463.727	17463.2
463.932	17227.68
464.138	17254.31
464.343	17033.13
464.549	16777.13
464.754	17235.88
464.959	17149.86
465.165	16760.75
465.37	16107.44
465.575	15783.87
465.781	16035.77
465.986	16476.08
466.191	15884.22
466.397	15611.84
466.602	14829.51
466.807	15558.59
467.012	15433.66
467.218	15312.83
467.423	15228.87
467.628	15232.96
467.833	15802.3
468.038	15308.74
468.244	14878.66
468.449	15488.96
468.654	15095.75
468.859	15028.17
469.064	14774.22
469.269	14188.5
469.474	14624.72
469.679	14727.11
469.885	13946.84
470.09	14206.93
470.295	14311.38
470.5	13914.07
470.705	14067.67
470.91	13629.4
471.115	13742.04
471.32	13688.79
471.525	13438.94
471.73	13131.75
471.935	13189.09
472.139	12709.86
472.344	12816.36
472.549	12654.57
472.754	12732.39
472.959	12285.94
473.164	12210.16
473.369	11980.79
473.574	12543.98
473.778	12382.19
473.983	12150.77
474.188	12326.89
474.393	11499.52
474.598	11687.93
474.802	11595.77
475.007	11296.77
475.212	11380.73
475.417	10969.09
475.621	11237.38
475.826	11280.38
476.031	11059.2
476.235	10620.94
476.44	10874.88
476.645	10434.57
476.849	10678.28
477.054	10338.32
477.259	10422.28
477.463	10178.58
477.668	10033.17
477.872	10170.38
478.077	10076.18
478.282	9738.26
478.486	9826.32
478.691	9654.3
478.895	9693.21
479.1	9588.76
479.304	9590.81
479.509	9300
479.713	9549.85
479.918	9289.76
480.122	8974.37
480.326	9097.25
480.531	9351.2
480.735	8841.25
480.94	9019.43
481.144	9209.89
481.348	8804.39
481.553	8921.12
481.757	8628.26
481.961	9097.25
482.166	9052.19
482.37	9050.14
482.574	8763.43
482.778	8753.19
482.983	9011.23
483.187	8794.15
483.391	8845.35
483.595	8960.03
483.8	8720.42
484.004	9054.24
484.208	8986.66
484.412	8943.65
484.616	8740.9
484.821	8970.27
485.025	8699.94
485.229	9003.04
485.433	8777.76
485.637	8798.24
485.841	8810.53
486.045	8833.06
486.249	8687.65
486.453	8781.86
486.657	8982.56
486.861	9046.05
487.065	8505.38
487.269	8917.03
487.473	8570.92
487.677	8783.91
487.881	8788
488.085	8898.59
488.289	8882.21
488.493	8695.85
488.697	9046.05
488.901	8777.76
489.105	8863.78
489.309	8960.03
489.512	8853.54
489.716	8904.74
489.92	8859.68
490.124	8984.61
490.328	9037.86
490.531	8763.43
490.735	9130.02
490.939	9103.39
491.143	8966.18
491.346	9060.38
491.55	8947.75
491.754	9072.67
491.958	9125.92
492.161	9027.62
492.365	9357.34
492.569	9291.8
492.772	8982.56
492.976	9568.28
493.18	9555.99
493.383	9570.33
493.587	9605.14
493.79	9836.56
493.994	9457.69
494.197	9816.08
494.401	9893.91
494.605	9695.25
494.808	9912.34
495.012	9861.14
495.215	10006.55
495.419	10170.38
495.622	10151.95
495.825	10401.8
496.029	10266.64
496.232	10438.67
496.436	10416.14
496.639	10772.49
496.843	10731.53
497.046	10809.35
497.249	10864.64
497.453	10881.03
497.656	10983.43
497.859	11204.61
498.063	11321.34
498.266	11532.28
498.469	11378.69
498.673	11620.35
498.876	11749.37
499.079	11763.7
499.282	11771.9
499.485	11841.53
499.689	12441.58
499.892	12359.66
500.095	12138.48
500.298	12742.63
500.501	12783.59
500.705	12779.5
500.908	12867.56
501.111	13064.16
501.314	13219.81
501.517	13314.02
501.72	13465.57
501.923	13342.69
502.126	13688.79
502.329	14133.2
502.532	13961.17
502.735	14016.47
502.938	14372.82
503.141	14649.29
503.344	14481.36
503.547	14655.44
503.75	14729.16
503.953	15187.91
504.156	15226.82
504.359	15335.36
504.562	15251.39
504.765	15697.85
504.968	15716.28
505.17	15923.13
505.373	16177.08
505.576	16127.92
505.779	16525.23
505.982	16785.32
506.185	16918.44
506.387	16762.79
506.59	16957.35
506.793	17493.92
506.996	17336.23
507.198	17905.56
507.401	17985.43
507.604	17911.71
507.807	18380.69
508.009	18706.32
508.212	18708.37
508.415	18907.02
508.617	19253.12
508.82	19142.53
509.022	19199.88
509.225	19513.22
509.428	19576.7
509.63	19910.52
509.833	20064.12
510.035	20490.1
510.238	20150.14
510.44	20432.75
510.643	21071.72
510.845	20871.02
511.048	20836.2
511.25	21174.12
511.453	21544.8
511.655	21895
511.858	21600.1
512.06	22218.58
512.262	22200.15
512.465	22384.47
512.667	22480.72
512.87	22781.78
513.072	22720.34
513.274	23418.69
513.477	23248.71
513.679	23826.24
513.881	23646.02
514.084	24231.74
514.286	23906.11
514.488	24291.13
514.69	24919.85
514.893	24874.8
515.095	24905.52
515.297	25216.81
515.499	25124.65
515.701	25605.92
515.904	25876.26
516.106	25913.12
516.308	26349.34
516.51	26431.26
516.712	26543.89
516.914	26865.42
517.116	27508.49
517.318	27002.64
517.52	27549.45
517.722	27819.78
517.925	27842.31
518.127	28012.29
518.329	28122.88
518.531	28008.19
518.733	28958.45
518.935	29116.14
519.136	28921.59
519.338	29470.44
519.54	29841.12
519.742	29482.73
519.944	29900.51
520.146	30408.41
520.348	30004.96
520.55	30457.56
520.752	30449.37
520.954	30955.22
521.155	31231.69
521.357	31243.98
521.559	31389.39
521.761	31813.32
521.963	32274.11
522.164	32079.55
522.366	32077.51
522.568	32421.56
522.77	32632.5
522.971	33187.5
523.173	32937.65
523.375	33085.11
523.576	33570.47
523.778	33318.57
523.98	33541.8
524.181	33666.73
524.383	33631.91
524.584	34420.38
524.786	34117.28
524.988	34156.19
525.189	34588.31
525.391	34979.48
525.592	35055.25
525.794	34465.44
525.995	34786.97
526.197	35208.85
526.398	35264.14
526.6	35448.46
526.801	35767.94
527.003	35786.38
527.204	35853.96
527.406	36112
527.607	35987.08
527.808	36214.4
528.01	35939.97
528.211	36306.56
528.412	36738.68
528.614	36523.65
528.815	36408.96
529.016	36910.71
529.218	36546.17
529.419	36638.33
529.62	36705.91
529.822	36978.29
530.023	37011.06
530.224	36732.54
530.425	37013.11
530.626	36208.26
530.828	36503.17
531.029	37205.62
531.23	37119.6
531.431	37207.67
531.632	37160.56
531.833	37015.16
532.035	37348.98
532.236	37164.66
532.437	37496.43
532.638	36902.52
532.839	37258.87
533.04	37676.65
533.241	37183.09
533.442	37660.27
533.643	37226.1
533.844	37402.22
534.045	37678.7
534.246	37101.17
534.447	37527.15
534.648	37201.52
534.849	37516.91
535.05	37017.21
535.251	37398.13
535.451	36906.62
535.652	37951.08
535.853	37355.12
536.054	37711.47
536.255	37647.98
536.456	37187.19
536.657	37832.3
536.857	37496.43
537.058	37004.92
537.259	37711.47
537.46	37817.96
537.66	36982.39
537.861	37541.49
538.062	37234.29
538.263	37240.43
538.463	37342.83
538.664	37103.22
538.865	37463.66
539.065	37445.23
539.266	37142.13
539.466	37514.86
539.667	37021.3
539.868	37559.92
540.068	37092.98
540.269	37017.21
540.469	37213.81
540.67	37158.52
540.87	37013.11
541.071	36961.91
541.271	37547.63
541.472	37056.12
541.672	37037.69
541.873	37097.08
542.073	36679.29
542.274	37480.05
542.474	37111.41
542.675	36953.72
542.875	37242.48
543.075	37238.39
543.276	36675.2
543.476	37254.77
543.676	36793.98
543.877	37265.01
544.077	36927.1
544.277	37025.4
544.478	36888.18
544.678	37013.11
544.878	36603.52
545.078	37015.16
545.279	36425.34
545.479	36892.28
545.679	37152.37
545.879	37305.97
546.079	37033.59
546.28	37021.3
546.48	36566.65
546.68	37058.17
546.88	36986.49
547.08	36890.23
547.28	36980.34
547.48	36658.81
547.68	36650.62
547.88	36060.8
548.081	36834.94
548.281	36599.42
548.481	36454.01
548.681	36927.1
548.881	36537.98
549.081	36679.29
549.28	36388.48
549.48	36953.72
549.68	36482.69
549.88	37226.1
550.08	36234.88
550.28	37023.35
550.48	36251.27
550.68	37082.74
550.88	36402.82
551.08	36464.25
551.279	36554.36
551.479	36337.28
551.679	36580.99
551.879	36497.02
552.079	36337.28
552.278	35853.96
552.478	36554.36
552.678	36656.76
552.878	36503.17
553.077	36378.24
553.277	36001.41
553.477	36992.63
553.676	36109.96
553.876	36103.81
554.076	36245.12
554.275	35989.13
554.475	35720.84
554.674	36304.51
554.874	36165.25
555.074	36054.66
555.273	36353.66
555.473	36363.9
555.672	35915.4
555.872	36173.44
556.071	36167.3
556.271	36193.92
556.47	35921.54
556.67	35933.83
556.869	35733.13
557.068	35946.12
557.268	35767.94
557.467	35550.86
557.667	35769.99
557.866	35157.65
558.065	35665.55
558.265	35282.58
558.464	35360.4
558.663	35640.97
558.863	35131.03
559.062	35989.13
559.261	35317.39
559.461	35657.35
559.66	34967.19
559.859	35464.85
560.058	35282.58
560.258	35337.87
560.457	34959
560.656	35569.29
560.855	34772.63
561.054	35600.01
561.253	34915.99
561.453	34942.61
561.652	35409.55
561.851	35169.94
562.05	34817.69
562.249	34553.5
562.448	35071.64
562.647	34666.14
562.846	34553.5
563.045	34430.62
563.244	34510.49
563.443	34590.36
563.642	34430.62
563.841	34143.91
564.04	34336.41
564.239	34504.35
564.438	34254.5
564.637	34160.29
564.836	34494.11
565.035	33957.54
565.234	34092.71
565.432	33988.26
565.631	34051.75
565.83	34055.84
566.029	33674.92
566.228	33449.64
566.427	33681.06
566.625	33674.92
566.824	33365.68
567.023	33701.54
567.222	33083.06
567.42	33476.27
567.619	33439.4
567.818	33433.26
568.016	32958.13
568.215	33416.88
568.414	33044.15
568.612	33599.15
568.811	33091.25
569.01	33111.73
569.208	32589.5
569.407	33054.39
569.605	32917.17
569.804	33062.58
570.002	32650.94
570.201	32911.03
570.4	32626.36
570.598	32220.86
570.797	31983.3
570.995	32259.77
571.193	32054.98
571.392	32646.84
571.59	32122.56
571.789	31811.27
571.987	31770.31
572.186	31893.19
572.384	31561.42
572.582	31999.68
572.781	31776.45
572.979	31583.94
573.177	31397.58
573.376	31534.79
573.574	31395.53
573.772	31524.55
573.971	31256.27
574.169	31506.12
574.367	31037.14
574.565	31137.49
574.763	31098.58
574.962	31135.44
575.16	30463.71
575.358	30785.24
575.556	30619.35
575.754	30719.7
575.952	30658.26
576.151	30912.21
576.349	30484.19
576.547	30633.69
576.745	30533.34
576.943	30619.35
577.141	30342.88
577.339	30361.31
577.537	30123.74
577.735	30369.5
577.933	29880.03
578.131	29873.89
578.329	29607.65
578.527	29779.68
578.725	29701.86
578.923	29859.56
579.121	29644.52
579.319	29581.03
579.516	29562.6
579.714	29556.46
579.912	29060.85
580.11	29081.33
580.308	29058.8
580.506	29087.47
580.704	28749.56
580.901	29150.96
581.099	29363.95
581.297	28770.04
581.495	28665.59
581.692	28741.36
581.89	28569.33
582.088	28813.04
582.285	28339.96
582.483	28677.88
582.681	28415.74
582.878	28305.15
583.076	27827.97
583.274	28124.93
583.471	27811.59
583.669	28096.25
583.866	27815.68
584.064	27852.55
584.262	27909.89
584.459	27940.61
584.657	27395.85
584.854	27860.74
585.052	27205.39
585.249	27447.05
585.447	27459.34
585.644	27207.44
585.841	27160.33
586.039	27375.37
586.236	26937.1
586.434	26998.54
586.631	26906.38
586.828	27064.08
587.026	26664.72
587.223	26898.19
587.42	26683.16
587.618	26652.44
587.815	26431.26
588.012	26302.23
588.21	26347.29
588.407	26703.64
588.604	26146.59
588.801	25859.87
588.999	25937.69
589.196	25941.79
589.393	25992.99
589.59	25923.36
589.787	25454.37
589.984	25435.94
590.182	25579.3
590.379	26152.73
590.576	25268.01
590.773	25382.7
590.97	25136.94
591.167	25458.47
591.364	24944.43
591.561	25450.28
591.758	24876.85
591.955	24753.97
592.152	25298.73
592.349	24872.75
592.546	25225
592.743	25100.08
592.94	24493.88
593.137	24602.42
593.334	24600.37
593.531	24469.3
593.727	24569.65
593.924	24325.94
594.121	24053.56
594.318	24389.43
594.515	23922.49
594.712	24391.48
594.908	23859.01
595.105	24053.56
595.302	23502.66
595.499	23934.78
595.696	23707.46
595.892	23555.91
596.089	23648.07
596.286	23664.45
596.482	23455.56
596.679	23430.98
596.876	23177.03
597.072	23029.58
597.269	23168.84
597.466	22906.7
597.662	23199.56
597.859	23252.81
598.055	23232.33
598.252	23007.05
598.448	22636.37
598.645	22568.79
598.841	22531.92
599.038	22652.75
599.234	22665.04
599.431	22327.13
599.627	22230.87
599.824	22400.85
600.02	21999.45
600.217	22228.82
600.413	22058.84
600.609	21946.2
600.806	21897.05
601.002	21878.62
601.198	21923.68
601.395	21538.66
601.591	21505.89
601.787	21688.16
601.984	21604.19
602.18	21624.67
602.376	21469.03
602.572	21499.75
602.769	21221.22
602.965	21043.05
603.161	21186.41
603.357	21245.8
603.553	21049.19
603.75	20778.86
603.946	20787.05
604.142	20983.66
604.338	20535.15
604.534	20674.42
604.73	20727.66
604.926	20539.25
605.122	20785.01
605.318	20557.68
605.514	20234.1
605.71	20187
605.906	20379.51
606.102	20500.34
606.298	20045.69
606.494	20451.19
606.69	20217.72
606.886	20004.73
607.082	19738.49
607.278	19998.59
607.474	19572.61
607.67	19822.46
607.866	19576.7
608.062	19928.95
608.257	19519.36
608.453	19844.99
608.649	19683.2
608.845	19429.25
609.041	19556.22
609.236	19642.24
609.432	19353.48
609.628	19222.41
609.824	19490.69
610.019	19236.74
610.215	19343.24
610.411	19351.43
610.606	19365.76
610.802	19089.29
610.998	19134.34
611.193	19281.8
611.389	18939.79
611.584	18960.27
611.78	18773.9
611.976	18775.95
612.171	18982.79
612.367	18909.07
612.562	18515.86
612.758	18386.83
612.953	18689.93
613.149	18857.87
613.344	18714.51
613.539	18907.02
613.735	18677.65
613.93	18579.34
614.126	18421.65
614.321	18593.68
614.517	18296.72
614.712	18352.02
614.907	18425.75
615.103	18603.92
615.298	18311.06
615.493	18173.85
615.688	17887.13
615.884	18356.11
616.079	17872.79
616.274	18266
616.47	18268.05
616.665	17938.33
616.86	18032.54
617.055	17993.62
617.25	17958.81
617.445	17844.12
617.641	17762.2
617.836	17919.9
618.031	17565.6
618.226	17870.75
618.421	17500.06
618.616	17784.73
618.811	17459.1
619.006	17336.23
619.201	17088.42
619.396	17348.51
619.591	17014.7
619.786	17409.95
619.981	16791.47
620.176	17244.07
620.371	17069.99
620.566	16926.63
620.761	16926.63
620.956	16850.86
621.151	16709.55
621.346	16611.25
621.541	16334.77
621.735	16328.63
621.93	16070.58
622.125	16269.23
622.32	15986.61
622.515	16220.08
622.709	16072.63
622.904	15898.55
623.099	15577.02
623.294	15785.91
623.488	15640.51
623.683	15560.64
623.878	15398.85
624.072	15493.05
624.267	15431.62
624.462	15491.01
624.656	15204.29
624.851	15073.22
625.046	15001.54
625.24	14882.76
625.435	14669.77
625.629	15036.36
625.824	14653.39
626.018	14680.01
626.213	14301.14
626.407	14569.42
626.602	14180.31
626.796	14403.53
626.991	14342.1
627.185	14131.16
627.38	14151.63
627.574	13932.5
627.768	13774.81
627.963	13891.54
628.157	14012.37
628.352	13815.77
628.546	13793.24
628.74	13686.75
628.935	13424.61
629.129	13553.63
629.323	13305.82
629.517	13148.13
629.712	13176.8
629.906	13264.86
630.1	12916.71
630.294	12937.19
630.489	12986.34
630.683	13127.65
630.877	12736.49
631.071	12752.87
631.265	12879.85
631.459	12541.93
631.653	12601.32
631.848	12455.92
632.042	12414.96
632.236	12503.02
632.43	12261.36
632.624	12445.68
632.818	12249.07
633.012	11847.67
633.206	11952.12
633.4	12079.09
633.594	11702.26
633.788	12023.8
633.982	11984.88
634.176	11806.71
634.369	11464.7
634.563	11745.27
634.757	11487.23
634.951	11565.05
635.145	11397.12
635.339	11542.52
635.533	11253.76
635.726	11341.82
635.92	11169.79
636.114	11038.72
636.308	10917.89
636.501	11137.02
636.695	11065.35
636.889	10815.49
637.083	10903.56
637.276	10680.33
637.47	10760.2
637.664	10752.01
637.857	10614.79
638.051	10760.2
638.244	10569.74
638.438	10463.24
638.632	10274.83
638.825	10135.57
639.019	10174.48
639.212	10328.08
639.406	10176.53
639.599	10012.69
639.793	10014.74
639.986	9834.52
640.18	9920.53
640.373	9938.96
640.567	9719.83
640.76	9771.03
640.954	9545.75
641.147	9799.7
641.34	9574.42
641.534	9558.04
641.727	9521.18
641.92	9541.66
642.114	9431.07
642.307	9320.48
642.5	9291.8
642.694	9158.69
642.887	9156.64
643.08	9193.5
643.273	9144.35
643.467	8949.79
643.66	8941.6
643.853	9009.19
644.046	8826.92
644.239	8888.36
644.432	8669.22
644.626	8667.17
644.819	8679.46
645.012	8615.98
645.205	8515.62
645.398	8540.2
645.591	8583.21
645.784	8458.28
645.977	8359.98
646.17	8441.9
646.363	8398.89
646.556	8048.69
646.749	8194.09
646.942	8089.65
647.135	8228.91
647.328	8306.73
647.521	8101.94
647.714	8007.73
647.907	7923.76
648.099	8110.13
648.292	7868.47
648.485	7784.5
648.678	7823.41
648.871	7780.4
649.064	7655.48
649.256	7780.4
649.449	7743.54
649.642	7544.89
649.835	7452.73
650.027	7585.85
650.22	7555.13
650.413	7454.78
650.605	7505.98
650.798	7424.06
650.991	7415.87
651.183	7417.91
651.376	7223.36
651.568	7333.95
651.761	7237.69
651.954	7213.12
652.146	7163.97
652.339	7096.38
652.531	6991.94
652.724	7041.09
652.916	7016.51
653.109	6940.74
653.301	6934.59
653.494	6981.7
653.686	6631.49
653.879	6953.02
654.071	6809.67
654.263	6707.27
654.456	6766.66
654.648	6606.92
654.84	6584.39
655.033	6723.65
655.225	6545.48
655.417	6551.62
655.61	6645.83
655.802	6436.94
655.994	6264.91
656.186	6475.85
656.379	6240.33
656.571	6168.65
656.763	6281.29
656.955	6076.49
657.148	6279.24
657.34	6209.61
657.532	6031.44
657.724	6045.77
657.916	6090.83
658.108	6045.77
658.3	6099.02
658.492	5988.43
658.684	5828.69
658.876	5951.57
659.068	6072.4
659.26	5779.54
659.452	5836.88
659.644	5822.55
659.836	5869.65
660.028	5767.25
660.22	5797.97
660.412	5716.05
660.604	5671
660.796	5634.13
660.988	5597.27
661.18	5568.6
661.372	5574.74
661.563	5386.33
661.755	5435.48
661.947	5386.33
662.139	5470.3
662.331	5468.25
662.522	5308.51
662.714	5492.82
662.906	5224.54
663.097	5212.25
663.289	5314.65
663.481	5238.87
663.673	5236.83
663.864	5365.85
664.056	4986.97
664.247	5191.77
664.439	5134.43
664.631	5066.85
664.822	5163.1
665.014	5163.1
665.205	5036.13
665.397	4841.57
665.588	4825.19
665.78	4851.81
665.971	4995.17
666.163	5025.89
666.354	5027.93
666.546	4892.77
666.737	4829.28
666.929	4890.72
667.12	4755.55
667.311	4790.37
667.503	4647.01
667.694	4735.07
667.885	4630.63
668.077	4634.72
668.268	4520.04
668.459	4773.99
668.651	4548.71
668.842	4620.39
669.033	4626.53
669.224	4472.93
669.416	4567.14
669.607	4460.65
669.798	4382.82
669.989	4585.57
670.18	4444.26
670.371	4388.97
670.563	4450.41
670.754	4223.08
670.945	4237.42
671.136	4354.15
671.327	4345.96
671.518	4231.27
671.709	4272.23
671.9	4247.66
672.091	4311.14
672.282	4214.89
672.473	4300.91
672.664	4296.81
672.855	4147.31
673.046	4083.82
673.237	4218.99
673.428	4208.75
673.619	4038.77
673.809	4102.25
674	4122.73
674.191	4046.96
674.382	3993.71
674.573	4036.72
674.764	4014.19
674.954	3948.65
675.145	4022.38
675.336	4024.43
675.527	3975.28
675.717	3940.46
675.908	3915.89
676.099	3924.08
676.289	3913.84
676.48	3905.65
676.671	3934.32
676.861	4014.19
677.052	3756.15
677.243	3907.7
677.433	3915.89
677.624	3938.41
677.814	3817.58
678.005	3903.6
678.195	3801.2
678.386	3754.1
678.576	3860.59
678.767	3842.16
678.957	3846.26
679.148	3776.63
679.338	3813.49
679.529	3764.34
679.719	3698.8
679.909	3793.01
680.1	3725.43
680.29	3778.67
680.481	3700.85
680.671	3862.64
680.861	3604.6
681.052	3690.61
681.242	3629.17
681.432	3629.17
681.622	3543.16
681.813	3627.12
682.003	3469.43
682.193	3551.35
682.383	3487.86
682.573	3537.01
682.764	3625.08
682.954	3496.05
683.144	3575.92
683.334	3614.84
683.524	3494.01
683.714	3618.93
683.904	3663.99
684.094	3659.89
684.284	3502.2
684.474	3549.3
684.664	3444.85
684.854	3430.52
685.044	3463.29
685.234	3563.64
685.424	3375.22
685.614	3475.57
685.804	3569.78
685.994	3381.37
686.184	3389.56
686.374	3330.17
686.564	3463.29
686.753	3334.26
686.943	3139.71
687.133	3324.02
687.323	3442.81
687.513	3334.26
687.702	3291.26
687.892	3285.11
688.082	3274.87
688.272	3285.11
688.461	3217.53
688.651	3407.99
688.841	3160.19
689.03	3151.99
689.22	3156.09
689.41	3025.02
689.599	3197.05
689.789	3209.34
689.979	2947.2
690.168	3041.4
690.358	3049.6
690.547	3176.57
690.737	2994.3
690.926	3100.8
691.116	2979.97
691.305	2994.3
691.495	2947.2
691.684	3022.97
691.874	2990.21
692.063	2965.63
692.252	3031.16
692.442	3004.54
692.631	2879.61
692.82	2955.39
693.01	3016.83
693.199	2828.42
693.388	2900.09
693.578	3010.68
693.767	2840.7
693.956	2889.85
694.146	2791.55
694.335	2875.52
694.524	2844.8
694.713	2740.35
694.902	2820.22
695.092	2766.98
695.281	2736.26
695.47	2779.26
695.659	2803.84
695.848	2762.88
696.037	2736.26
696.226	2695.3
696.415	2783.36
696.604	2615.43
696.793	2691.2
696.982	2666.63
697.171	2719.87
697.36	2625.67
697.549	2785.41
697.738	2644.1
697.927	2676.87
698.116	2664.58
698.305	2627.71
698.494	2777.22
698.683	2758.78
698.872	2666.63
699.061	2701.44
699.25	2652.29
699.438	2662.53
699.627	2588.8
699.816	2758.78
700.005	2732.16
700.193	2584.71
700.382	2713.73
700.571	2697.35
700.76	2656.39
700.948	2707.59
701.137	2672.77
701.326	2785.41
701.514	2631.81
701.703	2658.43
701.892	2629.76
702.08	2734.21
702.269	2625.67
702.457	2609.28
702.646	2683.01
702.834	2631.81
703.023	2703.49
703.212	2775.17
703.4	2646.15
703.589	2672.77
703.777	2531.46
703.965	2685.06
704.154	2613.38
704.342	2539.65
704.531	2711.68
704.719	2644.1
704.907	2685.06
705.096	2666.63
705.284	2670.72
705.472	2631.81
705.661	2775.17
705.849	2658.43
706.037	2689.15
706.226	2658.43
706.414	2519.17
706.602	2623.62
706.79	2699.39
706.979	2674.82
707.167	2760.83
707.355	2805.89
707.543	2683.01
707.731	2650.24
707.919	2693.25
708.107	2599.04
708.296	2762.88
708.484	2736.26
708.672	2613.38
708.86	2752.64
709.048	2695.3
709.236	2676.87
709.424	2713.73
709.612	2762.88
709.8	2658.43
709.988	2650.24
710.176	2594.95
710.364	2609.28
710.551	2670.72
710.739	2629.76
710.927	2652.29
711.115	2717.83
711.303	2644.1
711.491	2715.78
711.679	2726.02
711.866	2644.1
712.054	2723.97
712.242	2586.76
712.43	2836.61
712.617	2738.3
712.805	2543.75
712.993	2678.91
713.181	2676.87
713.368	2660.48
713.556	2658.43
713.744	2662.53
713.931	2754.69
714.119	2672.77
714.306	2832.51
714.494	2617.47
714.682	2664.58
714.869	2625.67
715.057	2683.01
715.244	2699.39
715.432	2744.45
715.619	2680.96
715.807	2640
715.994	2586.76
716.182	2697.35
716.369	2635.91
716.556	2678.91
716.744	2623.62
716.931	2826.37
717.119	2691.2
717.306	2576.52
717.493	2703.49
717.681	2680.96
717.868	2613.38
718.055	2523.27
718.242	2603.14
718.43	2646.15
718.617	2582.66
718.804	2676.87
718.991	2738.3
719.179	2652.29
719.366	2656.39
719.553	2715.78
719.74	2605.19
719.927	2654.34
720.114	2590.85
720.301	2601.09
720.488	2590.85
720.676	2521.22
720.863	2623.62
721.05	2599.04
721.237	2654.34
721.424	2521.22
721.611	2683.01
721.798	2486.4
721.985	2594.95
722.172	2502.79
722.358	2603.14
722.545	2662.53
722.732	2642.05
722.919	2572.42
723.106	2590.85
723.293	2680.96
723.48	2629.76
723.667	2642.05
723.853	2648.19
724.04	2605.19
724.227	2578.56
724.414	2558.08
724.6	2605.19
724.787	2648.19
724.974	2728.07
725.161	2644.1
725.347	2603.14
725.534	2642.05
725.72	2613.38
725.907	2488.45
726.094	2631.81
726.28	2584.71
726.467	2504.84
726.653	2582.66
726.84	2439.3
727.027	2689.15
727.213	2529.41
727.4	2640
727.586	2510.98
727.773	2574.47
727.959	2529.41
728.145	2553.99
728.332	2543.75
728.518	2482.31
728.705	2527.36
728.891	2670.72
729.077	2504.84
729.264	2437.25
729.45	2562.18
729.636	2504.84
729.823	2429.06
730.009	2621.57
730.195	2539.65
730.382	2513.03
730.568	2560.13
730.754	2521.22
730.94	2478.21
731.126	2613.38
731.313	2478.21
731.499	2492.55
731.685	2517.12
731.871	2461.83
732.057	2513.03
732.243	2562.18
732.429	2521.22
732.615	2519.17
732.801	2517.12
732.987	2506.88
733.173	2535.56
733.359	2490.5
733.545	2515.08
733.731	2506.88
733.917	2513.03
734.103	2451.59
734.289	2455.69
734.475	2437.25
734.661	2363.53
734.847	2443.4
735.033	2502.79
735.219	2416.77
735.404	2492.55
735.59	2422.92
735.776	2375.81
735.962	2402.44
736.148	2355.33
736.333	2474.12
736.519	2470.02
736.705	2347.14
736.89	2353.29
737.076	2365.57
737.262	2371.72
737.447	2351.24
737.633	2412.68
737.819	2443.4
738.004	2332.81
738.19	2435.21
738.375	2394.25
738.561	2361.48
738.747	2281.61
738.932	2326.66
739.118	2310.28
739.303	2257.03
739.489	2424.97
739.674	2228.36
739.859	2300.04
740.045	2240.65
740.23	2214.02
740.416	2181.26
740.601	2408.58
740.786	2250.89
740.972	2113.67
741.157	2265.22
741.342	2195.59
741.528	2244.74
741.713	2259.08
741.898	2242.7
742.084	2054.28
742.269	2125.96
742.454	2185.35
742.639	2259.08
742.824	2152.59
743.01	2224.26
743.195	2209.93
743.38	2115.72
743.565	2121.87
743.75	2216.07
743.935	2091.15
744.12	2095.24
744.305	2005.13
744.49	1992.84
744.675	1998.99
744.86	1996.94
745.045	2130.06
745.23	2132.11
745.415	2125.96
745.6	2168.97
745.785	1876.11
745.97	2021.52
746.155	2054.28
746.34	2013.32
746.525	1839.25
746.71	1908.88
746.895	1988.75
747.079	2023.56
747.264	1865.87
747.449	1884.3
747.634	1849.49
747.819	1802.38
748.003	1910.93
748.188	1908.88
748.373	1843.34
748.557	1792.14
748.742	1820.81
748.927	1816.72
749.111	1781.9
749.296	1679.51
749.481	1804.43
749.665	1734.8
749.85	1626.26
750.034	1708.18
750.219	1642.64
750.404	1796.24
750.588	1745.04
750.773	1640.59
750.957	1689.74
751.141	1564.82
751.326	1620.11
751.51	1642.64
751.695	1613.97
751.879	1599.63
752.064	1642.64
752.248	1648.79
752.432	1642.64
752.617	1558.67
752.801	1556.63
752.985	1605.78
753.17	1616.02
753.354	1511.57
753.538	1523.86
753.722	1530
753.907	1560.72
754.091	1478.8
754.275	1566.87
754.459	1431.7
754.643	1415.32
754.828	1523.86
755.012	1437.84
755.196	1353.88
755.38	1343.64
755.564	1468.56
755.748	1470.61
755.932	1429.65
756.116	1403.03
756.3	1421.46
756.484	1413.27
756.668	1323.16
756.852	1360.02
757.036	1343.64
757.22	1200.28
757.404	1319.06
757.588	1360.02
757.772	1235.1
757.956	1319.06
758.14	1286.3
758.323	1251.48
758.507	1333.4
758.691	1233.05
758.875	1181.85
759.059	1267.86
759.242	1321.11
759.426	1155.23
759.61	1292.44
759.794	1142.94
759.977	1245.34
760.161	1210.52
760.345	1263.77
760.528	1144.99
760.712	1122.46
760.895	1138.84
761.079	1149.08
761.263	1161.37
761.446	1120.41
761.63	1136.79
761.813	1138.84
761.997	1134.75
762.18	1163.42
762.364	1138.84
762.547	1101.98
762.731	1050.78
762.914	1153.18
763.098	1130.65
763.281	1079.45
763.464	1140.89
763.648	999.58
763.831	1126.55
764.015	1036.44
764.198	1054.87
764.381	954.52
764.564	1042.59
764.748	1038.49
764.931	1022.11
765.114	1044.63
765.297	1067.16
765.481	1114.27
765.664	1056.92
765.847	1001.63
766.03	1040.54
766.213	991.39
766.397	975
766.58	934.04
766.763	993.44
766.946	948.38
767.129	909.47
767.312	1001.63
767.495	999.58
767.678	962.72
767.861	960.67
768.044	977.05
768.227	1069.21
768.41	1007.77
768.593	1001.63
768.776	915.61
768.959	866.46
769.142	932
769.324	862.37
769.507	848.03
769.69	899.23
769.873	948.38
770.056	952.48
770.239	858.27
770.421	1015.96
770.604	780.45
770.787	843.93
770.97	942.24
771.152	872.61
771.335	895.13
771.518	798.88
771.7	821.41
771.883	850.08
772.066	852.13
772.248	800.93
772.431	876.7
772.613	891.04
772.796	794.78
772.978	835.74
773.161	927.9
773.343	772.25
773.526	751.78
773.708	776.35
773.891	749.73
774.073	749.73
774.256	655.52
774.438	800.93
774.621	764.06
774.803	682.14
774.985	753.82
775.168	782.49
775.35	786.59
775.532	749.73
775.715	741.54
775.897	762.02
776.079	757.92
776.261	694.43
776.444	753.82
776.626	696.48
776.808	782.49
776.99	757.92
777.173	694.43
777.355	733.34
777.537	690.34
777.719	721.06
777.901	698.53
778.083	712.86
778.265	684.19
778.447	661.66
778.629	632.99
778.811	596.13
778.993	557.22
779.175	596.13
779.357	692.38
779.539	594.08
779.721	667.81
779.903	602.27
780.085	557.22
780.267	600.23
780.449	616.61
780.631	549.03
780.812	551.07
780.994	567.46
781.176	614.56
781.358	506.02
781.54	610.47
781.721	559.27
781.903	544.93
782.085	561.31
782.267	508.07
782.448	458.92
782.63	592.03
782.812	489.64
782.993	546.98
783.175	493.73
783.357	526.5
783.538	598.18
783.72	530.59
783.901	546.98
784.083	546.98
784.264	436.39
784.446	475.3
784.627	532.64
784.809	465.06
784.99	512.16
785.172	499.88
785.353	479.4
785.535	501.92
785.716	413.86
785.897	391.33
786.079	489.64
786.26	483.49
786.441	473.25
786.623	424.1
786.804	381.09
786.985	426.15
787.167	452.77
787.348	424.1
787.529	450.72
787.71	471.2
787.891	446.63
788.073	352.42
788.254	379.04
788.435	446.63
788.616	415.91
788.797	317.61
788.978	393.38
789.159	358.57
789.34	413.86
789.522	389.28
789.703	391.33
789.884	338.09
790.065	344.23
790.246	426.15
790.427	350.37
790.607	471.2
790.788	301.22
790.969	350.37
791.15	336.04
791.331	299.17
791.512	262.31
791.693	331.94
791.874	346.28
792.054	325.8
792.235	352.42
792.416	352.42
792.597	299.17
792.778	340.13
792.958	317.61
793.139	313.51
793.32	299.17
793.5	270.5
793.681	325.8
793.862	350.37
794.042	311.46
794.223	262.31
794.404	321.7
794.584	319.65
794.765	315.56
794.945	295.08
795.126	409.76
795.306	282.79
795.487	276.65
795.667	276.65
795.848	358.57
796.028	245.93
796.209	340.13
796.389	340.13
796.57	301.22
796.75	231.59
796.93	297.13
797.111	297.13
797.291	219.3
797.471	221.35
797.652	254.12
797.832	338.09
798.012	286.89
798.192	307.37
798.373	250.02
798.553	243.88
798.733	245.93
798.913	297.13
799.093	303.27
799.274	229.54
799.454	262.31
799.634	250.02
799.814	270.5
799.994	276.65
800.174	299.17
800.354	209.06
800.534	305.32
800.714	278.69
800.894	303.27
801.074	278.69
801.254	272.55
801.434	229.54
801.614	209.06
801.794	202.92
801.974	600.23
802.154	225.45
802.334	217.26
802.514	231.59
802.693	247.97
802.873	161.96
803.053	303.27
803.233	280.74
803.413	288.93
803.592	157.86
803.772	219.3
803.952	217.26
804.131	204.97
804.311	129.19
804.491	260.26
804.67	211.11
804.85	190.63
805.03	260.26
805.209	266.41
805.389	231.59
805.568	219.3
805.748	211.11
805.928	170.15
806.107	151.72
806.287	186.54
806.466	223.4
806.646	188.58
806.825	176.3
807.004	141.48
807.184	200.87
807.363	190.63
807.543	164.01
807.722	190.63
807.901	235.69
808.081	239.78
808.26	207.02
808.439	215.21
808.619	155.82
808.798	125.1
808.977	172.2
809.156	147.62
809.336	209.06
809.515	200.87
809.694	182.44
809.873	233.64
810.052	182.44
810.231	272.55
810.411	170.15
810.59	209.06
810.769	161.96
810.948	176.3
811.127	92.33
811.306	143.53
811.485	149.67
811.664	229.54
811.843	125.1
812.022	184.49
812.201	110.76
812.38	188.58
812.559	200.87
812.737	172.2
812.916	182.44
813.095	164.01
813.274	131.24
813.453	159.91
813.632	172.2
813.811	194.73
813.989	94.38
814.168	166.06
814.347	143.53
814.526	184.49
814.704	94.38
814.883	192.68
815.062	116.9
815.24	180.39
815.419	227.5
815.598	186.54
815.776	164.01
815.955	164.01
816.133	80.04
816.312	123.05
816.49	159.91
816.669	178.34
816.847	106.67
817.026	143.53
817.204	114.86
817.383	174.25
817.561	141.48
817.74	49.32
817.918	147.62
818.097	92.33
818.275	127.14
818.453	155.82
818.632	194.73
818.81	94.38
818.988	182.44
819.167	57.51
819.345	123.05
819.523	176.3
819.701	98.47
819.879	61.61
820.058	112.81
820.236	112.81
820.414	47.27
820.592	73.9
820.77	143.53
820.948	104.62
821.127	71.85
821.305	131.24
821.483	149.67
821.661	166.06
821.839	104.62
822.017	67.75
822.195	104.62
822.373	100.52
822.551	102.57
822.729	123.05
822.907	96.43
823.085	114.86
823.262	135.34
823.44	116.9
823.618	67.75
823.796	43.18
823.974	139.43
824.152	73.9
824.329	77.99
824.507	73.9
824.685	53.42
824.863	88.23
825.04	102.57
825.218	121
825.396	100.52
825.574	61.61
825.751	106.67
825.929	209.06
826.107	121
826.284	168.1
826.462	108.71
826.639	127.14
826.817	86.19
826.994	4.27
827.172	49.32
827.349	65.71
827.527	51.37
827.704	118.95
827.882	51.37
828.059	102.57
828.237	65.71
828.414	139.43
828.591	98.47
828.769	75.95
828.946	98.47
829.124	118.95
829.301	57.51
829.478	51.37
829.655	53.42
829.833	51.37
830.01	80.04
830.187	69.8
830.364	77.99
830.542	71.85
830.719	110.76
830.896	82.09
831.073	41.13
831.25	67.75
831.427	80.04
831.604	63.66
831.782	127.14
831.959	96.43
832.136	77.99
832.313	82.09
832.49	65.71
832.667	55.47
832.844	98.47
833.021	159.91
833.198	20.65
833.374	22.7
833.551	125.1
833.728	110.76
833.905	116.9
834.082	69.8
834.259	123.05
834.436	139.43
834.612	41.13
834.789	45.23
834.966	59.56
835.143	77.99
835.319	114.86
835.496	73.9
835.673	137.38
835.85	127.14
836.026	24.75
836.203	63.66
836.38	92.33
836.556	51.37
836.733	32.94
836.909	141.48
837.086	98.47
837.262	61.61
837.439	26.79
837.616	98.47
837.792	41.13
837.968	30.89
838.145	63.66
838.321	75.95
838.498	61.61
838.674	30.89
838.851	98.47
839.027	43.18
839.203	53.42
839.38	80.04
839.556	26.79
839.732	100.52
839.909	4.27
840.085	67.75
840.261	20.65
840.437	65.71
840.614	24.75
840.79	20.65
840.966	114.86
841.142	37.03
841.318	16.55
841.494	47.27
841.671	22.7
841.847	84.14
842.023	67.75
842.199	69.8
842.375	65.71
842.551	82.09
842.727	94.38
842.903	75.95
843.079	90.28
843.255	55.47
843.431	45.23
843.607	92.33
843.783	-26.45
843.959	123.05
844.134	6.31
844.31	43.18
844.486	14.51
844.662	73.9
844.838	49.32
845.013	37.03
845.189	118.95
845.365	53.42
845.541	0.17
845.716	20.65
845.892	20.65
846.068	43.18
846.244	39.08
846.419	45.23
846.595	39.08
846.77	-10.07
846.946	69.8
847.122	65.71
847.297	41.13
847.473	100.52
847.648	26.79
847.824	80.04
847.999	-61.27
848.175	86.19
848.35	20.65
848.526	37.03
848.701	49.32
848.876	86.19
849.052	75.95
849.227	75.95
849.403	69.8
849.578	133.29
849.753	12.46
849.929	90.28
850.104	-36.69
850.279	67.75
850.454	55.47
850.63	75.95
850.805	41.13
850.98	80.04
851.155	14.51
851.33	73.9
851.505	-14.17
851.681	30.89
851.856	8.36
852.031	2.22
852.206	80.04
852.381	6.31
852.556	30.89
852.731	75.95
852.906	-28.5
853.081	10.41
853.256	71.85
853.431	20.65
853.606	0.17
853.781	53.42
853.956	49.32
854.131	90.28
854.305	18.6
854.48	45.23
854.655	0.17
854.83	-102.23
855.005	139.43
855.18	-22.36
855.354	6.31
855.529	88.23
855.704	59.56
855.879	16.55
856.053	4.27
856.228	67.75
856.403	39.08
856.577	86.19
856.752	-32.6
856.926	12.46
857.101	92.33
857.276	63.66
857.45	32.94
857.625	32.94
857.799	43.18
857.974	55.47
858.148	18.6
858.323	32.94
858.497	-16.21
858.672	34.99
858.846	77.99
859.02	67.75
859.195	12.46
859.369	63.66
859.543	57.51
859.718	14.51
859.892	-30.55
860.066	24.75
860.241	51.37
860.415	-28.5
860.589	-14.17
860.763	30.89
860.938	16.55
861.112	43.18
861.286	73.9
861.46	12.46
861.634	45.23
861.808	43.18
861.982	26.79
862.157	69.8
862.331	0.17
862.505	20.65
862.679	-34.64
862.853	32.94
863.027	16.55
863.201	69.8
863.375	-3.93
863.549	53.42
863.722	80.04
863.896	69.8
864.07	-24.4
864.244	53.42
864.418	18.6
864.592	57.51
864.766	24.75
864.939	65.71
865.113	-38.74
865.287	16.55
865.461	10.41
865.634	-14.17
865.808	37.03
865.982	6.31
866.156	-28.5
866.329	51.37
866.503	-3.93
866.676	61.61
866.85	20.65
867.024	8.36
867.197	26.79
867.371	69.8
867.544	53.42
867.718	0.17
867.891	-53.08
868.065	-1.88
868.238	75.95
868.412	8.36
868.585	26.79
868.759	-61.27
868.932	-12.12
869.105	-55.12
869.279	39.08
869.452	6.31
869.625	-18.26
869.799	6.31
869.972	-22.36
870.145	28.84
870.319	2.22
870.492	-8.02
870.665	-12.12
870.838	16.55
871.011	0.17
871.185	2.22
871.358	18.6
871.531	41.13
871.704	-28.5
871.877	51.37
872.05	88.23
872.223	-63.32
872.396	34.99
872.569	12.46
872.742	-16.21
872.915	14.51
873.088	14.51
873.261	65.71
873.434	14.51
873.607	39.08
873.78	-5.97
873.953	-53.08
874.126	-34.64
874.299	67.75
874.471	-12.12
874.644	-5.97
874.817	18.6
874.99	65.71
875.163	-28.5
875.335	141.48
875.508	-26.45
875.681	24.75
875.853	30.89
876.026	-36.69
876.199	-30.55
876.371	-12.12
876.544	-24.4
876.717	96.43
876.889	22.7
877.062	14.51
877.234	2.22
877.407	-24.4
877.579	80.04
877.752	20.65
877.924	32.94
878.097	26.79
878.269	6.31
878.442	20.65
878.614	-5.97
878.786	-28.5
878.959	30.89
879.131	16.55
879.303	-40.79
879.476	10.41
879.648	32.94
879.82	63.66
879.993	-30.55
880.165	20.65
880.337	-36.69
880.509	0.17
880.681	-77.65
880.854	37.03
881.026	59.56
881.198	-20.31
881.37	-30.55
881.542	26.79
881.714	0.17
881.886	30.89
882.058	-67.41
882.23	6.31
882.402	-67.41
882.574	57.51
882.746	-40.79
882.918	16.55
883.09	-14.17
883.262	14.51
883.434	32.94
883.606	37.03
883.778	32.94
883.95	28.84
884.122	-1.88
884.293	61.61
884.465	-24.4
884.637	-18.26
884.809	39.08
884.98	30.89
885.152	10.41
885.324	10.41
885.496	51.37
885.667	-69.46
885.839	34.99
886.011	32.94
886.182	14.51
886.354	51.37
886.525	-44.88
886.697	26.79
886.869	32.94
887.04	51.37
887.212	90.28
887.383	67.75
887.555	16.55
887.726	18.6
887.897	30.89
888.069	55.47
888.24	-3.93
888.412	47.27
888.583	18.6
888.754	-24.4
888.926	-46.93
889.097	30.89
889.268	0.17
889.44	14.51
889.611	-24.4
889.782	-38.74
889.953	2.22
890.125	6.31
890.296	67.75
890.467	-10.07
890.638	-42.84
890.809	65.71
890.98	43.18
891.151	26.79
891.323	-5.97
891.494	51.37
891.665	67.75
891.836	14.51
892.007	61.61
892.178	28.84
892.349	-10.07
892.52	22.7
892.691	8.36
892.862	-32.6
893.032	-42.84
893.203	-20.31
893.374	-55.12
893.545	65.71
893.716	26.79
893.887	2.22
894.057	-53.08
894.228	4.27
894.399	-12.12
894.57	-26.45
894.74	-79.7
894.911	-1.88
895.082	71.85
895.253	-26.45
895.423	67.75
895.594	69.8
895.764	-14.17
895.935	10.41
896.106	32.94
896.276	-44.88
896.447	6.31
896.617	-36.69
896.788	-30.55
896.958	-40.79
897.129	-30.55
897.299	-32.6
897.47	30.89
897.64	6.31
897.81	16.55
897.981	18.6
898.151	18.6
898.322	24.75
898.492	-12.12
898.662	41.13
898.832	0.17
899.003	-48.98
899.173	8.36
899.343	-38.74
899.513	-32.6
