Data from USB4F104151__57__12-01-44-749.txt Node

Date: Fri Mar 14 12:01:44 EDT 2025
User: louis
Spectrometer: USB4F10415
Trigger mode: 4
Integration Time (sec): 2.000000E-2
Scans to average: 1
Electric dark correction enabled: true
Nonlinearity correction enabled: false
Boxcar width: 0
XAxis mode: Wavelengths
Number of Pixels in Spectrum: 3648
>>>>>Begin Spectral Data<<<<<
178.204	-105.98
178.424	-105.98
178.644	-105.98
178.864	-140.8
179.084	-114.17
179.304	-17.92
179.524	-3.58
179.744	-42.5
179.964	-15.87
180.184	27.14
180.404	25.09
180.624	-22.02
180.844	-42.5
181.064	-40.45
181.283	55.81
181.503	0.51
181.723	76.29
181.943	-40.45
182.163	10.75
182.383	43.52
182.602	35.33
182.822	12.8
183.042	-17.92
183.262	10.75
183.482	-3.58
183.701	-44.54
183.921	-32.26
184.141	-40.45
184.361	66.05
184.58	-26.11
184.8	-5.63
185.02	35.33
185.239	10.75
185.459	0.51
185.679	14.85
185.898	-69.12
186.118	-19.97
186.338	-24.06
186.557	35.33
186.777	-54.78
186.997	35.33
187.216	-62.98
187.436	86.53
187.655	-26.11
187.875	76.29
188.095	49.66
188.314	53.76
188.534	-15.87
188.753	-95.74
188.973	-97.79
189.192	66.05
189.412	23.04
189.631	-11.78
189.851	27.14
190.07	27.14
190.29	4.61
190.509	53.76
190.729	4.61
190.948	20.99
191.168	74.24
191.387	33.28
191.607	-48.64
191.826	-15.87
192.045	-3.58
192.265	8.7
192.484	12.8
192.704	-60.93
192.923	64
193.142	115.2
193.362	-11.78
193.581	2.56
193.8	25.09
194.02	-32.26
194.239	-17.92
194.458	14.85
194.678	-7.68
194.897	-50.69
195.116	35.33
195.335	43.52
195.555	49.66
195.774	16.9
195.993	55.81
196.212	-54.78
196.432	14.85
196.651	-24.06
196.87	-42.5
197.089	27.14
197.308	37.38
197.528	37.38
197.747	-1.54
197.966	-42.5
198.185	41.47
198.404	74.24
198.623	86.53
198.842	10.75
199.062	57.86
199.281	-38.4
199.5	18.94
199.719	29.18
199.938	-54.78
200.157	37.38
200.376	-7.68
200.595	51.71
200.814	23.04
201.033	-24.06
201.252	-1.54
201.471	39.42
201.69	35.33
201.909	10.75
202.128	39.42
202.347	51.71
202.566	-28.16
202.785	4.61
203.004	-60.93
203.223	68.09
203.442	31.23
203.661	-26.11
203.879	-30.21
204.098	43.52
204.317	-7.68
204.536	-19.97
204.755	23.04
204.974	29.18
205.193	41.47
205.411	-11.78
205.63	-7.68
205.849	51.71
206.068	-5.63
206.287	12.8
206.505	-32.26
206.724	-19.97
206.943	16.9
207.162	-36.35
207.381	-15.87
207.599	49.66
207.818	-30.21
208.037	33.28
208.255	10.75
208.474	2.56
208.693	2.56
208.911	-40.45
209.13	-32.26
209.349	23.04
209.567	0.51
209.786	55.81
210.005	45.57
210.223	29.18
210.442	-50.69
210.661	-95.74
210.879	-71.17
211.098	84.48
211.316	33.28
211.535	8.7
211.753	-38.4
211.972	16.9
212.191	31.23
212.409	64
212.628	23.04
212.846	-5.63
213.065	2.56
213.283	80.38
213.502	8.7
213.72	-9.73
213.938	-28.16
214.157	16.9
214.375	-69.12
214.594	20.99
214.812	2.56
215.031	-13.82
215.249	-1.54
215.467	23.04
215.686	-19.97
215.904	0.51
216.122	-11.78
216.341	-15.87
216.559	-28.16
216.778	51.71
216.996	98.81
217.214	0.51
217.432	-3.58
217.651	2.56
217.869	-3.58
218.087	18.94
218.306	49.66
218.524	2.56
218.742	74.24
218.96	-48.64
219.179	37.38
219.397	4.61
219.615	164.35
219.833	20.99
220.051	-15.87
220.27	33.28
220.488	20.99
220.706	-50.69
220.924	-28.16
221.142	14.85
221.36	-15.87
221.578	-7.68
221.796	27.14
222.015	-19.97
222.233	14.85
222.451	27.14
222.669	-13.82
222.887	-3.58
223.105	-65.02
223.323	20.99
223.541	96.77
223.759	37.38
223.977	-52.74
224.195	29.18
224.413	74.24
224.631	-65.02
224.849	18.94
225.067	35.33
225.285	6.66
225.503	33.28
225.721	-69.12
225.939	53.76
226.157	25.09
226.375	37.38
226.592	-9.73
226.81	-5.63
227.028	-36.35
227.246	74.24
227.464	-75.26
227.682	4.61
227.9	-44.54
228.117	59.9
228.335	-46.59
228.553	43.52
228.771	4.61
228.989	20.99
229.206	23.04
229.424	-40.45
229.642	45.57
229.86	39.42
230.077	-11.78
230.295	8.7
230.513	-28.16
230.731	-58.88
230.948	8.7
231.166	94.72
231.384	43.52
231.601	-3.58
231.819	8.7
232.037	18.94
232.254	-40.45
232.472	31.23
232.689	-38.4
232.907	18.94
233.125	-52.74
233.342	2.56
233.56	-1.54
233.777	-11.78
233.995	-7.68
234.213	14.85
234.43	-54.78
234.648	-19.97
234.865	20.99
235.083	51.71
235.3	43.52
235.518	-1.54
235.735	35.33
235.953	33.28
236.17	29.18
236.388	107.01
236.605	29.18
236.822	55.81
237.04	59.9
237.257	-11.78
237.475	-24.06
237.692	20.99
237.909	-1.54
238.127	-9.73
238.344	2.56
238.562	6.66
238.779	-9.73
238.996	23.04
239.214	-22.02
239.431	47.62
239.648	10.75
239.865	27.14
240.083	33.28
240.3	-19.97
240.517	-9.73
240.735	35.33
240.952	88.57
241.169	31.23
241.386	-7.68
241.603	-24.06
241.821	-65.02
242.038	43.52
242.255	86.53
242.472	10.75
242.689	29.18
242.907	33.28
243.124	-1.54
243.341	-30.21
243.558	-44.54
243.775	33.28
243.992	-46.59
244.209	12.8
244.426	14.85
244.643	61.95
244.86	20.99
245.078	109.05
245.295	74.24
245.512	29.18
245.729	14.85
245.946	14.85
246.163	8.7
246.38	27.14
246.597	-69.12
246.814	-9.73
247.031	16.9
247.248	43.52
247.464	6.66
247.681	-42.5
247.898	-30.21
248.115	37.38
248.332	-48.64
248.549	-5.63
248.766	-71.17
248.983	18.94
249.2	-1.54
249.417	20.99
249.633	-34.3
249.85	-3.58
250.067	-52.74
250.284	41.47
250.501	4.61
250.717	-65.02
250.934	43.52
251.151	51.71
251.368	-46.59
251.585	-38.4
251.801	23.04
252.018	-40.45
252.235	-28.16
252.451	-42.5
252.668	127.49
252.885	-3.58
253.102	76.29
253.318	84.48
253.535	-40.45
253.752	45.57
253.968	29.18
254.185	-36.35
254.401	-24.06
254.618	12.8
254.835	25.09
255.051	2.56
255.268	-15.87
255.484	66.05
255.701	37.38
255.917	80.38
256.134	45.57
256.351	-9.73
256.567	-52.74
256.784	18.94
257	-56.83
257.217	35.33
257.433	72.19
257.65	4.61
257.866	115.2
258.082	6.66
258.299	-26.11
258.515	72.19
258.732	-5.63
258.948	4.61
259.165	-32.26
259.381	-11.78
259.597	53.76
259.814	-7.68
260.03	47.62
260.246	-13.82
260.463	74.24
260.679	-3.58
260.895	27.14
261.112	47.62
261.328	47.62
261.544	41.47
261.761	20.99
261.977	37.38
262.193	8.7
262.409	43.52
262.626	53.76
262.842	61.95
263.058	-26.11
263.274	8.7
263.49	-30.21
263.707	14.85
263.923	43.52
264.139	-36.35
264.355	6.66
264.571	29.18
264.787	-58.88
265.004	90.62
265.22	-1.54
265.436	39.42
265.652	37.38
265.868	4.61
266.084	-44.54
266.3	-11.78
266.516	29.18
266.732	68.09
266.948	18.94
267.164	55.81
267.38	10.75
267.596	55.81
267.812	-15.87
268.028	-26.11
268.244	53.76
268.46	88.57
268.676	-3.58
268.892	6.66
269.108	78.33
269.324	-40.45
269.54	-7.68
269.756	45.57
269.972	-56.83
270.188	2.56
270.403	-1.54
270.619	-44.54
270.835	18.94
271.051	8.7
271.267	2.56
271.483	-32.26
271.698	-7.68
271.914	90.62
272.13	-58.88
272.346	35.33
272.562	-7.68
272.777	102.91
272.993	55.81
273.209	8.7
273.425	41.47
273.64	-24.06
273.856	66.05
274.072	-5.63
274.287	-11.78
274.503	12.8
274.719	-3.58
274.934	0.51
275.15	-13.82
275.366	45.57
275.581	4.61
275.797	16.9
276.012	-1.54
276.228	-77.31
276.444	20.99
276.659	-36.35
276.875	-34.3
277.09	41.47
277.306	82.43
277.521	-22.02
277.737	12.8
277.952	-40.45
278.168	59.9
278.383	-32.26
278.599	18.94
278.814	47.62
279.03	66.05
279.245	-52.74
279.461	-7.68
279.676	-19.97
279.892	14.85
280.107	-50.69
280.322	27.14
280.538	45.57
280.753	39.42
280.969	-7.68
281.184	45.57
281.399	35.33
281.615	45.57
281.83	39.42
282.045	29.18
282.26	-22.02
282.476	6.66
282.691	47.62
282.906	4.61
283.122	-5.63
283.337	-26.11
283.552	6.66
283.767	-67.07
283.983	49.66
284.198	-5.63
284.413	29.18
284.628	23.04
284.843	43.52
285.058	-22.02
285.274	8.7
285.489	25.09
285.704	-44.54
285.919	72.19
286.134	2.56
286.349	-22.02
286.564	6.66
286.779	70.14
286.995	12.8
287.21	-1.54
287.425	16.9
287.64	-19.97
287.855	-30.21
288.07	-69.12
288.285	133.63
288.5	6.66
288.715	-1.54
288.93	-13.82
289.145	33.28
289.36	18.94
289.575	43.52
289.79	39.42
290.004	4.61
290.219	33.28
290.434	-1.54
290.649	12.8
290.864	10.75
291.079	25.09
291.294	57.86
291.509	10.75
291.724	41.47
291.938	0.51
292.153	8.7
292.368	49.66
292.583	45.57
292.798	-42.5
293.012	39.42
293.227	-32.26
293.442	-26.11
293.657	43.52
293.871	45.57
294.086	2.56
294.301	59.9
294.516	33.28
294.73	23.04
294.945	12.8
295.16	-44.54
295.374	64
295.589	-5.63
295.804	-17.92
296.018	-36.35
296.233	8.7
296.447	0.51
296.662	-65.02
296.877	61.95
297.091	-32.26
297.306	6.66
297.52	-38.4
297.735	16.9
297.949	43.52
298.164	47.62
298.378	43.52
298.593	-11.78
298.807	-26.11
299.022	66.05
299.236	51.71
299.451	-75.26
299.665	16.9
299.88	25.09
300.094	41.47
300.309	-9.73
300.523	-13.82
300.737	0.51
300.952	2.56
301.166	92.67
301.381	18.94
301.595	59.9
301.809	16.9
302.024	72.19
302.238	27.14
302.452	12.8
302.667	-5.63
302.881	37.38
303.095	37.38
303.309	12.8
303.524	-3.58
303.738	-7.68
303.952	-11.78
304.166	6.66
304.381	-36.35
304.595	4.61
304.809	74.24
305.023	10.75
305.237	-28.16
305.452	-34.3
305.666	16.9
305.88	51.71
306.094	-7.68
306.308	8.7
306.522	-26.11
306.736	31.23
306.95	-15.87
307.164	57.86
307.379	70.14
307.593	80.38
307.807	-11.78
308.021	-36.35
308.235	78.33
308.449	-1.54
308.663	-46.59
308.877	39.42
309.091	25.09
309.305	18.94
309.519	64
309.733	-1.54
309.947	-108.03
310.161	55.81
310.374	64
310.588	-110.08
310.802	6.66
311.016	8.7
311.23	12.8
311.444	4.61
311.658	57.86
311.872	68.09
312.085	-54.78
312.299	6.66
312.513	102.91
312.727	0.51
312.941	84.48
313.154	70.14
313.368	0.51
313.582	25.09
313.796	14.85
314.009	-5.63
314.223	57.86
314.437	20.99
314.651	-40.45
314.864	39.42
315.078	55.81
315.292	-40.45
315.505	-13.82
315.719	-11.78
315.933	57.86
316.146	-34.3
316.36	-75.26
316.573	8.7
316.787	64
317.001	25.09
317.214	-15.87
317.428	-28.16
317.641	-73.21
317.855	23.04
318.068	-3.58
318.282	-32.26
318.495	10.75
318.709	33.28
318.922	-46.59
319.136	-36.35
319.349	43.52
319.563	72.19
319.776	33.28
319.99	-50.69
320.203	39.42
320.417	41.47
320.63	74.24
320.843	104.96
321.057	4.61
321.27	29.18
321.483	-28.16
321.697	88.57
321.91	43.52
322.124	100.86
322.337	27.14
322.55	23.04
322.763	-1.54
322.977	-5.63
323.19	41.47
323.403	6.66
323.617	70.14
323.83	25.09
324.043	0.51
324.256	82.43
324.469	37.38
324.683	-17.92
324.896	-5.63
325.109	35.33
325.322	-32.26
325.535	29.18
325.748	-3.58
325.962	14.85
326.175	74.24
326.388	74.24
326.601	-56.83
326.814	23.04
327.027	41.47
327.24	70.14
327.453	-75.26
327.666	8.7
327.879	47.62
328.092	43.52
328.305	33.28
328.518	82.43
328.731	18.94
328.944	16.9
329.157	-5.63
329.37	-40.45
329.583	14.85
329.796	66.05
330.009	-36.35
330.222	-36.35
330.435	-11.78
330.648	-26.11
330.861	76.29
331.073	70.14
331.286	8.7
331.499	-38.4
331.712	33.28
331.925	33.28
332.138	68.09
332.35	27.14
332.563	-3.58
332.776	74.24
332.989	-30.21
333.202	29.18
333.414	29.18
333.627	72.19
333.84	84.48
334.053	80.38
334.265	35.33
334.478	18.94
334.691	0.51
334.903	66.05
335.116	-1.54
335.329	78.33
335.541	49.66
335.754	68.09
335.966	-3.58
336.179	53.76
336.392	14.85
336.604	-36.35
336.817	115.2
337.029	-34.3
337.242	-15.87
337.454	43.52
337.667	-11.78
337.88	74.24
338.092	18.94
338.305	29.18
338.517	31.23
338.729	57.86
338.942	-32.26
339.154	18.94
339.367	-9.73
339.579	-42.5
339.792	94.72
340.004	55.81
340.217	10.75
340.429	47.62
340.641	-17.92
340.854	-13.82
341.066	-40.45
341.278	-32.26
341.491	27.14
341.703	39.42
341.915	45.57
342.128	59.9
342.34	43.52
342.552	-22.02
342.764	18.94
342.977	74.24
343.189	-15.87
343.401	47.62
343.613	-22.02
343.826	16.9
344.038	18.94
344.25	66.05
344.462	45.57
344.674	72.19
344.886	-36.35
345.099	10.75
345.311	-32.26
345.523	39.42
345.735	-22.02
345.947	49.66
346.159	66.05
346.371	0.51
346.583	43.52
346.795	6.66
347.007	78.33
347.219	80.38
347.431	12.8
347.643	14.85
347.855	-11.78
348.067	96.77
348.279	12.8
348.491	107.01
348.703	53.76
348.915	-26.11
349.127	37.38
349.339	33.28
349.551	43.52
349.763	57.86
349.975	-11.78
350.187	98.81
350.399	31.23
350.61	66.05
350.822	-7.68
351.034	147.97
351.246	57.86
351.458	29.18
351.669	66.05
351.881	84.48
352.093	20.99
352.305	29.18
352.517	16.9
352.728	55.81
352.94	23.04
353.152	-17.92
353.363	-52.74
353.575	25.09
353.787	-11.78
353.999	20.99
354.21	74.24
354.422	8.7
354.633	37.38
354.845	27.14
355.057	16.9
355.268	-28.16
355.48	43.52
355.692	-28.16
355.903	0.51
356.115	2.56
356.326	-9.73
356.538	-3.58
356.749	8.7
356.961	23.04
357.172	-13.82
357.384	41.47
357.595	84.48
357.807	55.81
358.018	-3.58
358.23	35.33
358.441	109.05
358.653	33.28
358.864	-17.92
359.075	-73.21
359.287	6.66
359.498	72.19
359.709	90.62
359.921	41.47
360.132	51.71
360.344	55.81
360.555	84.48
360.766	4.61
360.977	-9.73
361.189	33.28
361.4	12.8
361.611	8.7
361.823	117.25
362.034	55.81
362.245	-77.31
362.456	4.61
362.667	31.23
362.879	-7.68
363.09	16.9
363.301	6.66
363.512	49.66
363.723	43.52
363.935	-44.54
364.146	35.33
364.357	-5.63
364.568	-52.74
364.779	-7.68
364.99	23.04
365.201	31.23
365.412	29.18
365.623	27.14
365.834	25.09
366.045	27.14
366.256	-22.02
366.467	-42.5
366.678	31.23
366.889	20.99
367.1	25.09
367.311	31.23
367.522	23.04
367.733	16.9
367.944	72.19
368.155	41.47
368.366	29.18
368.577	61.95
368.788	98.81
368.999	47.62
369.209	61.95
369.42	98.81
369.631	49.66
369.842	18.94
370.053	82.43
370.264	72.19
370.474	-50.69
370.685	-32.26
370.896	27.14
371.107	113.15
371.317	35.33
371.528	-3.58
371.739	4.61
371.95	-9.73
372.16	102.91
372.371	6.66
372.582	49.66
372.792	10.75
373.003	90.62
373.214	-44.54
373.424	113.15
373.635	-50.69
373.846	98.81
374.056	-34.3
374.267	109.05
374.477	8.7
374.688	16.9
374.898	8.7
375.109	135.68
375.319	33.28
375.53	82.43
375.74	-1.54
375.951	31.23
376.161	31.23
376.372	104.96
376.582	-22.02
376.793	0.51
377.003	27.14
377.214	12.8
377.424	8.7
377.635	43.52
377.845	0.51
378.055	76.29
378.266	27.14
378.476	20.99
378.686	-24.06
378.897	27.14
379.107	88.57
379.317	78.33
379.528	-40.45
379.738	47.62
379.948	6.66
380.158	100.86
380.369	-3.58
380.579	68.09
380.789	6.66
380.999	2.56
381.21	92.67
381.42	27.14
381.63	33.28
381.84	51.71
382.05	-46.59
382.261	74.24
382.471	29.18
382.681	-5.63
382.891	96.77
383.101	-19.97
383.311	-48.64
383.521	18.94
383.731	4.61
383.941	61.95
384.151	39.42
384.361	57.86
384.571	25.09
384.781	8.7
384.991	111.1
385.201	64
385.411	25.09
385.621	64
385.831	-13.82
386.041	78.33
386.251	6.66
386.461	111.1
386.671	20.99
386.881	6.66
387.091	2.56
387.301	33.28
387.511	39.42
387.72	61.95
387.93	-42.5
388.14	-56.83
388.35	27.14
388.56	59.9
388.769	55.81
388.979	66.05
389.189	4.61
389.399	23.04
389.609	92.67
389.818	10.75
390.028	102.91
390.238	33.28
390.447	4.61
390.657	55.81
390.867	12.8
391.076	70.14
391.286	84.48
391.496	92.67
391.705	18.94
391.915	80.38
392.125	10.75
392.334	70.14
392.544	92.67
392.753	20.99
392.963	37.38
393.172	37.38
393.382	43.52
393.591	82.43
393.801	-26.11
394.01	76.29
394.22	57.86
394.429	6.66
394.639	33.28
394.848	115.2
395.058	109.05
395.267	43.52
395.477	90.62
395.686	45.57
395.895	104.96
396.105	55.81
396.314	57.86
396.524	14.85
396.733	119.29
396.942	80.38
397.152	104.96
397.361	39.42
397.57	57.86
397.78	31.23
397.989	96.77
398.198	129.53
398.407	18.94
398.617	82.43
398.826	109.05
399.035	80.38
399.244	57.86
399.453	23.04
399.663	115.2
399.872	53.76
400.081	107.01
400.29	90.62
400.499	2.56
400.708	107.01
400.917	20.99
401.127	135.68
401.336	31.23
401.545	137.73
401.754	57.86
401.963	80.38
402.172	88.57
402.381	102.91
402.59	115.2
402.799	107.01
403.008	84.48
403.217	90.62
403.426	117.25
403.635	121.34
403.844	45.57
404.053	53.76
404.262	129.53
404.471	117.25
404.68	125.44
404.888	119.29
405.097	90.62
405.306	139.77
405.515	147.97
405.724	129.53
405.933	158.21
406.142	150.01
406.35	121.34
406.559	72.19
406.768	225.79
406.977	174.59
407.185	188.93
407.394	150.01
407.603	180.73
407.812	111.1
408.02	301.56
408.229	248.32
408.438	180.73
408.646	262.65
408.855	197.12
409.064	231.93
409.272	221.69
409.481	264.7
409.69	238.08
409.898	244.22
410.107	324.09
410.315	309.76
410.524	254.46
410.733	338.43
410.941	340.47
411.15	356.86
411.358	352.76
411.567	416.25
411.775	313.85
411.984	416.25
412.192	416.25
412.401	332.28
412.609	403.96
412.818	571.9
413.026	453.11
413.234	481.78
413.443	498.17
413.651	479.74
413.86	571.9
414.068	598.52
414.276	623.09
414.485	610.81
414.693	592.37
414.901	674.29
415.11	709.11
415.318	608.76
415.526	754.16
415.734	805.36
415.943	692.73
416.151	795.12
416.359	819.7
416.567	807.41
416.776	831.99
416.984	860.66
417.192	915.95
417.4	987.63
417.608	981.49
417.817	991.73
418.025	993.78
418.233	1163.76
418.441	1130.99
418.649	1139.18
418.857	1286.64
419.065	1221.1
419.273	1325.55
419.481	1380.84
419.689	1423.85
419.897	1530.34
420.105	1536.49
420.313	1458.67
420.521	1683.94
420.729	1618.41
420.937	1630.7
421.145	1714.66
421.353	1747.43
421.561	1878.5
421.769	1905.12
421.977	2011.62
422.185	1954.27
422.393	2154.98
422.601	2224.61
422.809	2271.71
423.017	2306.52
423.224	2398.68
423.432	2472.41
423.64	2484.7
423.848	2779.61
424.056	2681.3
424.263	2851.28
424.471	2767.32
424.679	2804.18
424.887	3125.71
425.094	3131.86
425.302	3199.44
425.51	3246.54
425.718	3418.57
425.925	3428.81
426.133	3549.64
426.341	3705.29
426.548	3949
426.756	3875.27
426.964	3930.56
427.171	4278.72
427.379	4303.29
427.586	4411.84
427.794	4467.13
428.001	4811.19
428.209	4901.3
428.417	4757.94
428.624	5233.07
428.832	5239.22
429.039	5269.94
429.247	5122.48
429.454	5605.8
429.662	6150.56
429.869	5472.68
430.076	5980.58
430.284	5851.56
430.491	6130.08
430.699	6316.45
430.906	6537.63
431.114	6590.88
431.321	6873.5
431.528	6904.21
431.736	7350.67
431.943	7784.84
432.15	7319.95
432.358	7821.7
432.565	7995.78
432.772	8096.13
432.979	8501.63
433.187	8825.21
433.394	8683.9
433.601	9343.35
433.808	9468.27
434.016	9181.56
434.223	9699.69
434.43	10084.71
434.637	9888.11
434.844	10662.24
435.052	11000.15
435.259	10598.75
435.466	10770.78
435.673	10629.47
435.88	11450.71
436.087	12093.77
436.294	12093.77
436.501	11682.13
436.708	12130.63
436.915	12368.2
437.122	12972.35
437.329	13015.35
437.537	13371.7
437.743	13431.09
437.95	13535.54
438.157	14102.82
438.364	14696.74
438.571	14680.35
438.778	14762.27
438.985	15835.41
439.192	15440.15
439.399	15995.15
439.606	15767.82
439.813	16357.64
440.02	17424.63
440.227	17217.79
440.433	17088.76
440.64	17590.52
440.847	17490.17
441.054	17910
441.261	19067.1
441.467	18602.21
441.674	19409.11
441.881	19900.62
442.088	20181.2
442.294	19888.34
442.501	20377.8
442.708	20633.8
442.914	21436.6
443.121	22366.38
443.328	21706.93
443.534	23261.34
443.741	22810.79
443.948	22522.02
444.154	24006.8
444.361	23771.29
444.568	24242.32
444.774	24277.13
444.981	24342.67
445.187	25065.6
445.394	26134.64
445.6	25647.22
445.807	28395.6
446.013	26955.88
446.22	27424.86
446.426	28753.99
446.633	28903.49
446.839	29839.42
447.046	28571.72
447.252	30289.97
447.459	30064.69
447.665	30343.22
447.871	31418.4
448.078	32968.71
448.284	31475.74
448.491	31926.3
448.697	33587.2
448.903	33863.68
449.11	34332.66
449.316	33486.85
449.522	33990.65
449.728	34899.95
449.935	35063.78
450.141	35317.73
450.347	35784.67
450.553	35071.98
450.76	35284.97
450.966	36059.1
451.172	36059.1
451.378	37111.75
451.584	36290.52
451.791	37148.62
451.997	36855.76
452.203	37840.83
452.409	37658.56
452.615	37521.35
452.821	35854.3
453.027	35741.66
453.233	37502.92
453.44	35885.02
453.646	36327.38
453.852	36464.6
454.058	37291.97
454.264	36020.19
454.47	36870.09
454.676	35852.25
454.882	37224.39
455.088	33849.34
455.294	34146.29
455.5	34510.83
455.705	35135.46
455.911	33716.22
456.117	32686.09
456.323	32700.43
456.529	31014.95
456.735	32395.28
456.941	31639.58
457.147	30533.68
457.352	30023.73
457.558	29724.73
457.764	29687.87
457.97	29014.09
458.176	28536.91
458.381	28411.98
458.587	27369.57
458.793	26865.77
458.999	25473.15
459.204	27424.86
459.41	26615.91
459.616	24744.07
459.821	24821.89
460.027	25065.6
460.233	24064.14
460.438	23330.97
460.644	23472.28
460.85	22311.08
461.055	21866.67
461.261	21762.23
461.466	20338.89
461.672	19886.29
461.878	21207.23
462.083	19603.67
462.289	19177.69
462.494	19116.25
462.7	18245.87
462.905	17809.65
463.111	18491.62
463.316	18458.85
463.522	17811.7
463.727	18206.95
463.932	17901.81
464.138	18055.4
464.343	17860.85
464.549	17228.03
464.754	17938.67
464.959	17866.99
465.165	17768.69
465.37	16904.45
465.575	16679.17
465.781	17154.3
465.986	17027.32
466.191	16503.04
466.397	16380.17
466.602	15434
466.807	16191.75
467.012	15995.15
467.218	15808.78
467.423	15964.43
467.628	15825.17
467.833	16292.1
468.038	15931.66
468.244	15460.63
468.449	15970.57
468.654	15442.2
468.859	15202.58
469.064	15304.98
469.269	14706.98
469.474	15147.29
469.679	15227.16
469.885	14680.35
470.09	14979.36
470.295	14938.4
470.5	14577.95
470.705	14651.68
470.91	14201.13
471.115	14420.26
471.32	14356.77
471.525	14205.22
471.73	13947.18
471.935	13805.87
472.139	13412.66
472.344	13457.71
472.549	13453.62
472.754	13416.76
472.959	12933.43
473.164	12845.37
473.369	12503.36
473.574	13267.25
473.778	12822.84
473.983	12622.14
474.188	12597.57
474.393	12194.12
474.598	12007.75
474.802	11888.97
475.007	12032.33
475.212	11972.94
475.417	11608.4
475.621	11331.92
475.826	11616.59
476.031	11327.83
476.235	11262.29
476.44	11282.77
476.645	10854.75
476.849	11073.88
477.054	11123.03
477.259	10951
477.463	10907.99
477.668	10602.85
477.872	10555.74
478.077	10428.77
478.282	10201.44
478.486	10164.58
478.691	10154.34
478.895	10152.29
479.1	9906.54
479.304	10064.23
479.509	9703.79
479.713	10146.15
479.918	9740.65
480.122	9451.89
480.326	9597.29
480.531	9740.65
480.735	9707.88
480.94	9150.84
481.144	9763.18
481.348	9218.42
481.553	9380.21
481.757	9066.87
481.961	9537.9
482.166	9361.78
482.37	9443.7
482.574	9240.95
482.778	9310.58
482.983	9447.79
483.187	9290.1
483.391	9429.36
483.595	9167.22
483.8	9159.03
484.004	9210.23
484.208	9386.35
484.412	9093.49
484.616	9269.62
484.821	9128.31
485.025	9206.13
485.229	9177.46
485.433	9193.84
485.637	9210.23
485.841	9132.4
486.045	9267.57
486.249	9230.71
486.453	9197.94
486.657	9253.23
486.861	9167.22
487.065	8999.29
487.269	9294.19
487.473	8968.57
487.677	9161.08
487.881	9275.76
488.085	9222.52
488.289	9212.28
488.493	9079.16
488.697	9474.42
488.901	9386.35
489.105	9161.08
489.309	9144.69
489.512	9326.96
489.716	9415.02
489.92	9224.56
490.124	9347.44
490.328	9607.53
490.531	9259.38
490.735	9597.29
490.939	9410.93
491.143	9572.72
491.346	9382.26
491.55	9494.9
491.754	9585.01
491.958	9533.81
492.161	9478.51
492.365	10025.32
492.569	9793.9
492.772	9687.4
492.976	9757.04
493.18	9714.03
493.383	10162.53
493.587	10072.42
493.79	9974.12
493.994	9787.75
494.197	10125.67
494.401	10092.9
494.605	10266.98
494.808	10396
495.012	10334.56
495.215	10545.5
495.419	10568.03
495.622	10391.91
495.825	10860.89
496.029	10754.4
496.232	11006.3
496.436	10850.65
496.639	11317.59
496.843	11080.02
497.046	11231.57
497.249	11530.58
497.453	11362.64
497.656	11598.16
497.859	11657.55
498.063	11405.65
498.266	11968.84
498.469	11870.54
498.673	12187.97
498.876	12063.05
499.079	12228.93
499.282	12409.15
499.485	12572.99
499.689	12820.8
499.892	12609.86
500.095	12986.68
500.298	13254.97
500.501	13021.5
500.705	13498.67
500.908	13412.66
501.111	13668.66
501.314	13852.97
501.517	13891.88
501.72	13981.99
501.923	14020.91
502.126	14307.62
502.329	14637.34
502.532	14598.43
502.735	14586.15
502.938	15147.29
503.141	15190.3
503.344	15337.75
503.547	15272.21
503.75	15579.41
503.953	15649.04
504.156	15847.69
504.359	16023.82
504.562	16263.43
504.765	16357.64
504.968	16593.15
505.17	16713.98
505.373	16640.26
505.576	17096.96
505.779	17023.23
505.982	17275.13
506.185	17549.56
506.387	17617.14
506.59	17641.71
506.793	18258.15
506.996	18202.86
507.198	18882.78
507.401	18534.63
507.604	18809.06
507.807	19116.25
508.009	19179.74
508.212	19239.13
508.415	19495.13
508.617	19663.06
508.82	20021.45
509.022	19767.51
509.225	20455.62
509.428	20353.23
509.63	20697.28
509.833	20728
510.035	21430.46
510.238	21319.87
510.44	21510.33
510.643	21477.56
510.845	22012.08
511.048	22001.84
511.25	22132.91
511.453	22319.28
511.655	22921.38
511.858	22640.81
512.06	22919.33
512.262	23179.42
512.465	23081.12
512.667	23351.45
512.87	23994.51
513.072	23660.69
513.274	24307.85
513.477	24408.2
513.679	24619.14
513.881	24656.01
514.084	25096.32
514.286	25051.27
514.488	25124.99
514.69	25993.33
514.893	25991.28
515.095	26083.44
515.297	26493.04
515.499	26779.75
515.701	26683.5
515.904	27045.99
516.106	26947.68
516.308	27398.24
516.51	27727.96
516.712	27600.99
516.914	28043.35
517.116	28416.08
517.318	28309.58
517.52	28518.48
517.722	28635.21
517.925	28923.97
518.127	29298.75
518.329	29833.27
518.531	29478.97
518.733	29952.05
518.935	29794.36
519.136	29990.97
519.338	30507.05
519.54	30718
519.742	30832.68
519.944	30761
520.146	31647.77
520.348	31535.13
520.55	31625.25
520.752	31957.02
520.954	31948.82
521.155	32264.21
521.357	32360.47
521.559	32761.87
521.761	33339.4
521.963	33165.32
522.164	33097.73
522.366	33593.34
522.568	33945.59
522.77	33880.06
522.971	34398.2
523.173	33753.08
523.375	34402.29
523.576	34267.13
523.778	34586.61
523.98	35024.87
524.181	35188.71
524.383	35104.74
524.584	35387.36
524.786	35391.46
524.988	35350.5
525.189	35901.4
525.391	35993.56
525.592	36018.14
525.794	36237.27
525.995	36313.05
526.197	36581.33
526.398	36460.5
526.6	36919.24
526.801	36696.02
527.003	36925.39
527.204	36882.38
527.406	36995.02
527.607	36960.2
527.808	37361.61
528.01	36894.67
528.211	37216.2
528.412	38135.74
528.614	37924.8
528.815	37484.48
529.016	37967.8
529.218	37883.84
529.419	37695.42
529.62	37873.6
529.822	38164.41
530.023	37863.36
530.224	38498.23
530.425	38041.53
530.626	37705.66
530.828	37953.47
531.029	38709.17
531.23	38002.62
531.431	38365.11
531.632	38082.49
531.833	38074.3
532.035	38358.97
532.236	38664.11
532.437	38498.23
532.638	38492.08
532.839	38555.57
533.04	38836.14
533.241	38356.92
533.442	38825.9
533.643	38694.83
533.844	38487.99
534.045	38678.45
534.246	38182.84
534.447	38723.51
534.648	38393.78
534.849	38731.7
535.05	38291.38
535.251	38668.21
535.451	38342.58
535.652	38512.56
535.853	38612.91
536.054	39030.7
536.255	38447.03
536.456	38201.27
536.657	38952.88
536.857	38563.76
537.058	38475.7
537.259	38741.94
537.46	38799.28
537.66	38418.36
537.861	38657.97
538.062	38193.08
538.263	38590.39
538.463	38238.14
538.664	38485.94
538.865	38590.39
539.065	38506.42
539.266	38021.05
539.466	38870.96
539.667	37973.95
539.868	39120.81
540.068	37935.04
540.269	38240.18
540.469	38342.58
540.67	38094.78
540.87	38438.84
541.071	38143.93
541.271	38139.83
541.472	38363.06
541.672	38170.55
541.873	37935.04
542.073	38021.05
542.274	38561.72
542.474	38021.05
542.675	38076.35
542.875	38479.8
543.075	38225.85
543.276	37638.08
543.476	38207.42
543.676	37818.3
543.877	38420.41
544.077	38188.99
544.277	37896.13
544.478	37842.88
544.678	38416.31
544.878	38076.35
545.078	38074.3
545.279	37746.62
545.479	37978.04
545.679	37965.76
545.879	37808.06
546.079	37984.19
546.28	38330.3
546.48	37298.12
546.68	38092.73
546.88	37949.37
547.08	38152.12
547.28	37826.49
547.48	37263.3
547.68	38113.21
547.88	37529.54
548.081	38041.53
548.281	37801.92
548.481	37689.28
548.681	37879.74
548.881	38045.63
549.081	37883.84
549.28	37779.39
549.48	37484.48
549.68	37451.72
549.88	38111.16
550.08	37382.09
550.28	37320.65
550.48	37734.34
550.68	37836.73
550.88	37656.51
551.08	37582.79
551.279	37689.28
551.479	37185.48
551.679	37509.06
551.879	37545.92
552.079	37689.28
552.278	37310.41
552.478	37390.28
552.678	37359.56
552.878	37699.52
553.077	37203.91
553.277	36954.06
553.477	37664.71
553.676	37306.31
553.876	37554.11
554.076	37283.78
554.275	37277.64
554.475	37107.66
554.674	37697.47
554.874	37212.1
555.074	37074.89
555.273	37539.78
555.473	37113.8
555.672	36939.72
555.872	37203.91
556.071	36986.83
556.271	36886.48
556.47	37074.89
556.67	36495.32
556.869	36866
557.068	37058.51
557.268	36747.22
557.467	36911.05
557.667	37076.94
557.866	36818.89
558.065	36513.75
558.265	36562.9
558.464	36378.58
558.663	36591.57
558.863	36347.86
559.062	36822.99
559.261	36507.6
559.461	36800.46
559.66	36110.3
559.859	36718.54
560.058	36024.28
560.258	36161.5
560.457	36141.02
560.656	36351.96
560.855	36001.75
561.054	36136.92
561.253	35678.18
561.453	36071.39
561.652	36251.61
561.851	36227.03
562.05	36034.52
562.249	35631.07
562.448	36270.04
562.647	35743.71
562.846	35762.14
563.045	36075.48
563.244	35381.22
563.443	35788.77
563.642	35327.97
563.841	35360.74
564.04	35053.55
564.239	36091.87
564.438	34830.32
564.637	35215.33
564.836	35534.82
565.035	35022.83
565.234	35620.83
565.432	35428.32
565.631	34758.64
565.83	35217.38
566.029	34861.04
566.228	34881.52
566.427	34699.25
566.625	34785.26
566.824	34033.66
567.023	34908.14
567.222	34187.25
567.42	34899.95
567.619	34926.57
567.818	34494.45
568.016	34127.86
568.215	34541.55
568.414	34287.6
568.612	34426.87
568.811	33966.07
569.01	33970.17
569.208	33853.44
569.407	34535.41
569.605	33681.41
569.804	34138.1
570.002	33748.99
570.201	33886.2
570.4	33884.15
570.598	33685.5
570.797	33679.36
570.995	33282.05
571.193	33185.8
571.392	33818.62
571.59	33388.55
571.789	33441.79
571.987	33531.9
572.186	33204.23
572.384	33331.2
572.582	33617.92
572.781	33314.82
572.979	32835.59
573.177	33208.33
573.376	32899.08
573.574	32249.88
573.772	32720.91
573.971	32833.55
574.169	31975.45
574.367	32378.9
574.565	32636.94
574.763	32290.84
574.962	32210.96
575.16	32092.18
575.358	32157.72
575.556	31688.73
575.754	32194.58
575.952	31952.92
576.151	32225.3
576.349	31784.99
576.547	31561.76
576.745	31639.58
576.943	31627.29
577.141	31479.84
577.339	31944.73
577.537	31465.5
577.735	31277.09
577.933	31275.04
578.131	31254.56
578.329	30703.66
578.527	30865.45
578.725	30976.04
578.923	30767.15
579.121	30568.49
579.319	30877.74
579.516	30926.89
579.714	30926.89
579.912	30595.12
580.11	30644.27
580.308	30410.8
580.506	29907
580.704	29775.93
580.901	30449.71
581.099	30427.18
581.297	29651
581.495	30083.12
581.692	29947.96
581.89	29765.69
582.088	30105.65
582.285	29743.16
582.483	29956.15
582.681	29884.47
582.878	29620.28
583.076	29595.71
583.274	29673.53
583.471	29220.93
583.669	29284.42
583.866	29399.1
584.064	29175.87
584.262	28594.25
584.459	29147.2
584.657	28708.94
584.854	29274.18
585.052	28698.7
585.249	28692.55
585.447	28991.56
585.644	28368.98
585.841	28915.78
586.039	28600.4
586.236	27969.62
586.434	28153.94
586.631	28026.96
586.828	28198.99
587.026	27975.77
587.223	27781.21
587.42	27668.57
587.618	28035.16
587.815	27455.58
588.012	27496.54
588.21	27531.36
588.407	28110.93
588.604	27383.9
588.801	27353.18
588.999	27269.22
589.196	27156.58
589.393	27240.54
589.59	27185.25
589.787	26906.73
589.984	26929.25
590.182	26679.4
590.379	27082.85
590.576	26390.64
590.773	26677.35
590.97	26568.81
591.167	26593.39
591.364	26183.79
591.561	26732.65
591.758	26163.31
591.955	26148.98
592.152	26386.54
592.349	26079.35
592.546	26288.24
592.743	26050.67
592.94	25473.15
593.137	25950.32
593.334	26040.43
593.531	25368.7
593.727	25477.24
593.924	25677.94
594.121	25225.34
594.318	25354.37
594.515	25307.26
594.712	25458.81
594.908	25016.45
595.105	25411.71
595.302	24942.72
595.499	25221.25
595.696	24965.25
595.892	24875.14
596.089	24864.9
596.286	24795.27
596.482	24682.63
596.679	24778.89
596.876	24748.17
597.072	24559.75
597.269	24623.24
597.466	24062.1
597.662	24162.45
597.859	24045.71
598.055	24012.95
598.252	24043.67
598.448	24119.44
598.645	23720.09
598.841	23439.51
599.038	23904.4
599.234	23791.76
599.431	23271.58
599.627	23715.99
599.824	23724.18
600.02	23314.59
600.217	23306.4
600.413	23191.71
600.609	23269.53
600.806	22929.57
601.002	22956.19
601.198	23128.22
601.395	22812.84
601.591	22747.3
601.787	23009.44
601.984	22702.25
602.18	22925.47
602.376	22376.62
602.572	22524.07
602.769	22337.71
602.965	22286.51
603.161	22462.63
603.357	21954.74
603.553	22016.18
603.75	22036.66
603.946	22014.13
604.142	22235.31
604.338	21930.16
604.534	21901.49
604.73	21489.85
604.926	21809.33
605.122	21844.15
605.318	21635.25
605.514	21588.15
605.71	21479.61
605.906	21373.11
606.102	21487.8
606.298	21422.27
606.494	21321.91
606.69	21317.82
606.886	21356.73
607.082	20680.9
607.278	20895.94
607.474	20842.69
607.67	20799.68
607.866	20723.91
608.062	21041.34
608.257	21012.67
608.453	20828.35
608.649	20758.72
608.845	20682.95
609.041	20756.68
609.236	20654.28
609.432	20748.48
609.628	20521.16
609.824	20543.69
610.019	20521.16
610.215	20408.52
610.411	20469.96
610.606	20525.25
610.802	20351.18
610.998	20127.95
611.193	20312.27
611.389	20166.86
611.584	19859.66
611.78	19853.52
611.976	20123.85
612.171	20066.51
612.367	19710.16
612.562	19929.3
612.758	19538.13
612.953	19581.14
613.149	19843.28
613.344	19806.42
613.539	20082.89
613.735	19837.14
613.93	19808.47
614.126	19517.65
614.321	19783.89
614.517	19724.5
614.712	19468.5
614.907	19120.35
615.103	19339.48
615.298	19517.65
615.493	19798.23
615.688	19009.76
615.884	19448.02
616.079	19347.67
616.274	19353.82
616.47	19185.88
616.665	19151.07
616.86	18835.68
617.055	19165.4
617.25	19230.94
617.445	18999.52
617.641	18696.42
617.836	18940.13
618.031	18710.75
618.226	18874.59
618.421	18397.42
618.616	18753.76
618.811	18430.18
619.006	18647.27
619.201	18329.83
619.396	18479.33
619.591	17942.77
619.786	18274.54
619.981	18057.45
620.176	18211.05
620.371	17783.02
620.566	18045.16
620.761	17803.5
620.956	17985.77
621.151	17830.13
621.346	17991.92
621.541	17389.81
621.735	17604.85
621.93	17191.16
622.125	17303.8
622.32	17086.72
622.515	17119.48
622.709	17154.3
622.904	16943.36
623.099	16785.66
623.294	17006.84
623.488	16732.42
623.683	16529.67
623.878	16523.52
624.072	16253.19
624.267	16492.8
624.462	16441.61
624.656	15911.18
624.851	16142.6
625.046	16054.54
625.24	16056.59
625.435	15651.09
625.629	15835.41
625.824	15612.18
626.018	15589.65
626.213	15382.81
626.407	15556.88
626.602	15192.34
626.796	15276.31
626.991	15147.29
627.185	15171.86
627.38	14887.2
627.574	14885.15
627.768	14977.31
627.963	14557.47
628.157	14373.16
628.352	14598.43
628.546	14225.7
628.74	14696.74
628.935	14182.7
629.129	14446.88
629.323	14262.57
629.517	14254.37
629.712	14117.16
629.906	14170.41
630.1	13517.11
630.294	13981.99
630.489	13719.85
630.683	13949.23
630.877	13621.55
631.071	13572.4
631.265	13703.47
631.459	13596.98
631.653	13449.52
631.848	13173.05
632.042	13285.69
632.236	13216.05
632.43	13089.08
632.624	13052.22
632.818	12941.63
633.012	12607.81
633.206	12650.81
633.4	12837.18
633.594	12558.66
633.788	12742.97
633.982	12593.47
634.176	12532.03
634.369	12462.4
634.563	12462.4
634.757	12403.01
634.951	12464.45
635.145	12167.49
635.339	12329.28
635.533	12007.75
635.726	12200.26
635.92	11850.06
636.114	11944.27
636.308	11673.93
636.501	12028.23
636.695	11706.7
636.889	11526.48
637.083	11479.38
637.276	11438.42
637.47	11223.38
637.664	11489.62
637.857	11462.99
638.051	11235.67
638.244	11059.54
638.438	10826.07
638.632	11008.34
638.825	10899.8
639.019	10916.19
639.212	10903.9
639.406	10862.94
639.599	10795.36
639.793	11063.64
639.986	10709.34
640.18	10631.52
640.373	10541.41
640.567	10226.02
640.76	10410.34
640.954	10404.19
641.147	10457.44
641.34	10342.75
641.534	10344.8
641.727	10256.74
641.92	10391.91
642.114	10123.62
642.307	9941.35
642.5	10066.28
642.694	9830.76
642.887	9560.43
643.08	9830.76
643.273	9802.09
643.467	9617.77
643.66	9681.26
643.853	9542
644.046	9480.56
644.239	9449.84
644.432	9421.17
644.626	9351.54
644.819	9460.08
645.012	9351.54
645.205	9472.37
645.398	9310.58
645.591	9103.73
645.784	9132.4
645.977	8987
646.17	8968.57
646.363	8855.93
646.556	8767.87
646.749	9048.44
646.942	8868.22
647.135	8802.68
647.328	8620.41
647.521	8671.61
647.714	8612.22
647.907	8855.93
648.099	8460.67
648.292	8520.06
648.485	8511.87
648.678	8454.53
648.871	8432
649.064	8235.39
649.256	8432
649.449	8388.99
649.642	8149.38
649.835	8266.11
650.027	8186.24
650.22	7958.92
650.413	7995.78
650.605	7889.29
650.798	7809.42
650.991	7715.21
651.183	7942.53
651.376	7872.9
651.568	7924.1
651.761	7713.16
651.954	7680.39
652.146	7653.77
652.339	7666.06
652.531	7590.28
652.724	7518.61
652.916	7346.58
653.109	7541.13
653.301	7389.58
653.494	7383.44
653.686	7297.42
653.879	7174.55
654.071	7301.52
654.263	7311.76
654.456	7326.1
654.648	7145.87
654.84	7135.64
655.033	7010.71
655.225	7063.96
655.417	6994.33
655.61	6955.41
655.802	6943.13
655.994	6906.26
656.186	6865.3
656.379	6807.96
656.571	6846.87
656.763	6824.34
656.955	6666.65
657.148	6771.1
657.34	6893.97
657.532	6525.34
657.724	6527.39
657.916	6584.73
658.108	6433.18
658.3	6455.71
658.492	6386.08
658.684	6240.67
658.876	6287.78
659.068	6295.97
659.26	6316.45
659.452	6455.71
659.644	6334.88
659.836	6191.52
660.028	6082.98
660.22	6105.51
660.412	6144.42
660.604	6089.12
660.796	6089.12
660.988	6019.49
661.18	6095.27
661.372	5867.94
661.563	5958.05
661.755	5816.74
661.947	5835.17
662.139	5794.22
662.331	5919.14
662.522	5712.3
662.714	5749.16
662.906	5675.43
663.097	5669.29
663.289	5554.6
663.481	5476.78
663.673	5708.2
663.864	5474.73
664.056	5484.97
664.247	5628.33
664.439	5581.23
664.631	5476.78
664.822	5294.51
665.014	5304.75
665.205	5286.32
665.397	5366.19
665.588	5386.67
665.78	5435.82
665.971	5353.9
666.163	5321.13
666.354	5267.89
666.546	5212.59
666.737	5056.95
666.929	5075.38
667.12	5155.25
667.311	5005.75
667.503	5091.76
667.694	5153.2
667.885	4966.84
668.077	4985.27
668.268	5134.77
668.459	5054.9
668.651	4868.53
668.842	4866.49
669.033	4805.05
669.224	4839.86
669.416	4878.77
669.607	4874.68
669.798	4708.79
669.989	4745.66
670.18	4727.22
670.371	4745.66
670.563	4616.63
670.754	4862.39
670.945	4637.11
671.136	4696.5
671.327	4669.88
671.518	4673.98
671.709	4514.24
671.9	4759.99
672.091	4436.41
672.282	4493.76
672.473	4528.57
672.664	4542.91
672.855	4391.36
673.046	4352.45
673.237	4510.14
673.428	4403.64
673.619	4432.32
673.809	4493.76
674	4401.6
674.191	4397.5
674.382	4225.47
674.573	4245.95
674.764	4241.86
674.954	4448.7
675.145	4252.1
675.336	4258.24
675.527	4229.57
675.717	4159.94
675.908	4047.3
676.099	4270.53
676.289	4055.49
676.48	4141.5
676.671	4233.66
676.861	4229.57
677.052	4041.15
677.243	4196.8
677.433	4055.49
677.624	4047.3
677.814	4032.96
678.005	3985.86
678.195	4084.16
678.386	4022.72
678.576	3967.43
678.767	3905.99
678.957	3973.57
679.148	4063.68
679.338	4092.35
679.529	3944.9
679.719	3996.1
679.909	3838.41
680.1	3908.04
680.29	3961.28
680.481	3926.47
680.671	3785.16
680.861	3996.1
681.052	3807.69
681.242	3932.61
681.432	3971.52
681.622	3791.3
681.813	3910.08
682.003	3889.6
682.193	3752.39
682.383	3832.26
682.573	3783.11
682.764	3824.07
682.954	3905.99
683.144	3709.38
683.334	3602.89
683.524	3586.51
683.714	3809.73
683.904	3623.37
684.094	3815.88
684.284	3711.43
684.474	3693
684.664	3545.55
684.854	3789.25
685.044	3555.79
685.234	3617.22
685.424	3588.55
685.614	3594.7
685.804	3490.25
685.994	3572.17
686.184	3541.45
686.374	3477.96
686.564	3523.02
686.753	3471.82
686.943	3488.2
687.133	3383.76
687.323	3391.95
687.513	3553.74
687.702	3500.49
687.892	3475.91
688.082	3312.08
688.272	3465.68
688.461	3400.14
688.651	3279.31
688.841	3285.45
689.03	3353.04
689.22	3269.07
689.41	3285.45
689.599	3156.43
689.789	3252.69
689.979	3267.02
690.168	3117.52
690.358	3152.34
690.547	3109.33
690.737	3105.23
690.926	3043.79
691.116	3197.39
691.305	3117.52
691.495	3090.9
691.684	3041.75
691.874	3027.41
692.063	3049.94
692.252	2984.4
692.442	3097.04
692.631	2939.35
692.82	2998.74
693.01	3086.8
693.199	3019.22
693.388	2855.38
693.578	3047.89
693.767	2900.44
693.956	2839
694.146	2894.29
694.335	2875.86
694.524	2990.55
694.713	2925.01
694.902	2882
695.092	2865.62
695.281	2853.33
695.47	2816.47
695.659	2871.76
695.848	2841.04
696.037	2806.23
696.226	2798.04
696.415	2841.04
696.604	2896.34
696.793	2937.3
696.982	2759.13
697.171	2847.19
697.36	2841.04
697.549	2781.65
697.738	2757.08
697.927	2669.02
698.116	2750.93
698.305	2720.21
698.494	2609.62
698.683	2689.49
698.872	2736.6
699.061	2728.41
699.25	2808.28
699.438	2615.77
699.627	2628.06
699.816	2683.35
700.005	2613.72
700.193	2720.21
700.382	2572.76
700.571	2697.69
700.76	2609.62
700.948	2748.89
701.137	2744.79
701.326	2658.78
701.514	2759.13
701.703	2603.48
701.892	2568.66
702.08	2572.76
702.269	2697.69
702.457	2656.73
702.646	2609.62
702.834	2599.38
703.023	2699.73
703.212	2634.2
703.4	2593.24
703.589	2644.44
703.777	2697.69
703.965	2609.62
704.154	2699.73
704.342	2597.34
704.531	2570.71
704.719	2636.25
704.907	2603.48
705.096	2583
705.284	2623.96
705.472	2623.96
705.661	2583
705.849	2662.87
706.037	2687.45
706.226	2666.97
706.414	2564.57
706.602	2587.1
706.79	2699.73
706.979	2572.76
707.167	2560.47
707.355	2562.52
707.543	2593.24
707.731	2671.06
707.919	2562.52
708.107	2580.95
708.296	2552.28
708.484	2689.49
708.672	2632.15
708.86	2580.95
709.048	2691.54
709.236	2652.63
709.424	2644.44
709.612	2664.92
709.8	2585.05
709.988	2490.84
710.176	2666.97
710.364	2503.13
710.551	2578.9
710.739	2580.95
710.927	2529.75
711.115	2527.71
711.303	2583
711.491	2646.49
711.679	2570.71
711.866	2511.32
712.054	2652.63
712.242	2519.51
712.43	2613.72
712.617	2615.77
712.805	2609.62
712.993	2566.62
713.181	2597.34
713.368	2597.34
713.556	2564.57
713.744	2556.38
713.931	2605.53
714.119	2529.75
714.306	2509.27
714.494	2693.59
714.682	2550.23
714.869	2533.85
715.057	2482.65
715.244	2513.37
715.432	2630.1
715.619	2531.8
715.807	2554.33
715.994	2552.28
716.182	2464.22
716.369	2640.34
716.556	2589.14
716.744	2505.18
716.931	2513.37
717.119	2529.75
717.306	2392.54
717.493	2556.38
717.681	2681.3
717.868	2527.71
718.055	2613.72
718.242	2574.81
718.43	2566.62
718.617	2580.95
718.804	2429.4
718.991	2445.79
719.179	2539.99
719.366	2484.7
719.553	2556.38
719.74	2542.04
719.927	2486.75
720.114	2509.27
720.301	2501.08
720.488	2576.86
720.676	2470.36
720.863	2546.14
721.05	2505.18
721.237	2492.89
721.424	2539.99
721.611	2572.76
721.798	2300.38
721.985	2519.51
722.172	2390.49
722.358	2472.41
722.545	2447.83
722.732	2435.55
722.919	2474.46
723.106	2423.26
723.293	2486.75
723.48	2380.25
723.667	2429.4
723.853	2343.39
724.04	2396.64
724.227	2496.99
724.414	2406.88
724.6	2394.59
724.787	2531.8
724.974	2435.55
725.161	2384.35
725.347	2415.07
725.534	2525.66
725.72	2394.59
725.907	2327
726.094	2394.59
726.28	2341.34
726.467	2408.92
726.653	2382.3
726.84	2474.46
727.027	2507.23
727.213	2370.01
727.4	2439.64
727.586	2445.79
727.773	2423.26
727.959	2431.45
728.145	2372.06
728.332	2380.25
728.518	2374.11
728.705	2376.16
728.891	2302.43
729.077	2402.78
729.264	2378.2
729.45	2501.08
729.636	2359.77
729.823	2398.68
730.009	2343.39
730.195	2408.92
730.382	2331.1
730.568	2306.52
730.754	2415.07
730.94	2468.31
731.126	2382.3
731.313	2376.16
731.499	2359.77
731.685	2427.35
731.871	2300.38
732.057	2380.25
732.243	2275.81
732.429	2267.61
732.615	2300.38
732.801	2398.68
732.987	2298.33
733.173	2243.04
733.359	2257.37
733.545	2200.03
733.731	2339.29
733.917	2306.52
734.103	2376.16
734.289	2486.75
734.475	2247.13
734.661	2292.19
734.847	2380.25
735.033	2415.07
735.219	2322.91
735.404	2277.85
735.59	2232.8
735.776	2195.93
735.962	2400.73
736.148	2304.48
736.333	2243.04
736.519	2206.17
736.705	2210.27
736.89	2220.51
737.076	2144.74
737.262	2259.42
737.447	2238.94
737.633	2177.5
737.819	2193.89
738.004	2079.2
738.19	2376.16
738.375	2154.98
738.561	2271.71
738.747	2159.07
738.932	2181.6
739.118	2189.79
739.303	2093.54
739.489	2085.34
739.674	2097.63
739.859	2062.82
740.045	2114.02
740.23	2171.36
740.416	2179.55
740.601	2183.65
740.786	2042.34
740.972	2128.35
741.157	2073.06
741.342	2185.69
741.528	1980.9
741.713	2013.67
741.898	1939.94
742.084	1997.28
742.269	2021.86
742.454	2036.19
742.639	1862.12
742.824	2087.39
743.01	2073.06
743.195	1968.61
743.38	1931.75
743.565	1982.95
743.75	1989.09
743.935	1952.23
744.12	2023.91
744.305	1972.71
744.49	1851.88
744.675	1944.03
744.86	1874.4
745.045	1925.6
745.23	2062.82
745.415	1929.7
745.6	1989.09
745.785	1901.03
745.97	1847.78
746.155	1726.95
746.34	1806.82
746.525	1786.34
746.71	1880.55
746.895	1800.68
747.079	1825.25
747.264	1733.09
747.449	1772
747.634	1745.38
747.819	1774.05
748.003	1726.95
748.188	1714.66
748.373	1802.72
748.557	1747.43
748.742	1569.26
748.927	1649.13
749.111	1718.76
749.296	1700.33
749.481	1655.27
749.665	1642.98
749.85	1649.13
750.034	1675.75
750.219	1569.26
750.404	1604.07
750.588	1513.96
750.773	1546.73
750.957	1550.82
751.141	1571.3
751.326	1597.93
751.51	1538.54
751.695	1548.78
751.879	1540.58
752.064	1466.86
752.248	1522.15
752.432	1503.72
752.617	1532.39
752.801	1565.16
752.985	1491.43
753.17	1468.91
753.354	1423.85
753.538	1458.67
753.722	1376.75
753.907	1309.16
754.091	1413.61
754.275	1323.5
754.459	1286.64
754.643	1298.92
754.828	1374.7
755.012	1382.89
755.196	1417.71
755.38	1294.83
755.564	1247.72
755.748	1260.01
755.932	1305.07
756.116	1276.4
756.3	1317.36
756.484	1274.35
756.668	1241.58
756.852	1210.86
757.036	1247.72
757.22	1237.49
757.404	1206.77
757.588	1229.29
757.772	1178.09
757.956	1229.29
758.14	1190.38
758.323	1198.57
758.507	1171.95
758.691	1167.85
758.875	1143.28
759.059	1163.76
759.242	1077.74
759.426	1049.07
759.61	1016.3
759.794	1137.13
759.977	1065.46
760.161	1090.03
760.345	1090.03
760.528	1102.32
760.712	1108.46
760.895	1098.22
761.079	1012.21
761.263	1075.7
761.446	999.92
761.63	1079.79
761.813	1073.65
761.997	1049.07
762.18	1004.02
762.364	1087.98
762.547	971.25
762.731	954.87
762.914	1004.02
763.098	1042.93
763.281	979.44
763.464	909.81
763.648	985.58
763.831	969.2
764.015	915.95
764.198	926.19
764.381	801.27
764.564	979.44
764.748	952.82
764.931	1057.26
765.114	991.73
765.297	967.15
765.481	913.91
765.664	958.96
765.847	954.87
766.03	866.8
766.213	967.15
766.397	918
766.58	999.92
766.763	899.57
766.946	842.23
767.129	821.75
767.312	903.67
767.495	952.82
767.678	905.71
767.861	866.8
768.044	827.89
768.227	938.48
768.41	887.28
768.593	815.6
768.776	874.99
768.959	854.51
769.142	791.03
769.324	793.08
769.507	803.32
769.69	831.99
769.873	856.56
770.056	891.38
770.239	823.8
770.421	823.8
770.604	920.05
770.787	893.43
770.97	856.56
771.152	760.31
771.335	735.73
771.518	803.32
771.7	877.04
771.883	842.23
772.066	874.99
772.248	727.54
772.431	807.41
772.613	807.41
772.796	735.73
772.978	846.32
773.161	725.49
773.343	766.45
773.526	668.15
773.708	653.81
773.891	784.88
774.073	684.53
774.256	750.07
774.438	860.66
774.621	717.3
774.803	823.8
774.985	594.42
775.168	709.11
775.35	690.68
775.532	715.25
775.715	678.39
775.897	575.99
776.079	678.39
776.261	719.35
776.444	598.52
776.626	643.57
776.808	680.44
776.99	688.63
777.173	616.95
777.355	729.59
777.537	694.77
777.719	672.25
777.901	619
778.083	563.7
778.265	643.57
778.447	698.87
778.629	672.25
778.811	559.61
778.993	657.91
779.175	578.04
779.357	594.42
779.539	623.09
779.721	446.97
779.903	539.13
780.085	590.33
780.267	563.7
780.449	514.55
780.631	502.26
780.812	524.79
780.994	590.33
781.176	526.84
781.358	528.89
781.54	555.51
781.721	535.03
781.903	471.54
782.085	516.6
782.267	487.93
782.448	469.5
782.63	559.61
782.812	438.78
782.993	520.7
783.175	535.03
783.357	483.83
783.538	492.02
783.72	438.78
783.901	487.93
784.083	508.41
784.264	428.54
784.446	459.26
784.627	436.73
784.809	461.3
784.99	465.4
785.172	498.17
785.353	424.44
785.535	397.82
785.716	477.69
785.897	424.44
786.079	375.29
786.26	502.26
786.441	463.35
786.623	428.54
786.804	459.26
786.985	354.81
787.167	358.91
787.348	416.25
787.529	377.34
787.71	375.29
787.891	403.96
788.073	377.34
788.254	326.14
788.435	358.91
788.616	412.15
788.797	363
788.978	295.42
789.159	338.43
789.34	363
789.522	403.96
789.703	336.38
789.884	348.67
790.065	371.19
790.246	324.09
790.427	367.1
790.607	377.34
790.788	360.95
790.969	248.32
791.15	358.91
791.331	289.28
791.512	309.76
791.693	350.71
791.874	354.81
792.054	252.41
792.235	289.28
792.416	242.17
792.597	287.23
792.778	274.94
792.958	369.15
793.139	320
793.32	324.09
793.5	309.76
793.681	336.38
793.862	322.04
794.042	340.47
794.223	322.04
794.404	188.93
794.584	287.23
794.765	262.65
794.945	315.9
795.126	332.28
795.306	252.41
795.487	332.28
795.667	264.7
795.848	279.04
796.028	311.8
796.209	252.41
796.389	354.81
796.57	240.12
796.75	258.56
796.93	242.17
797.111	266.75
797.291	227.84
797.471	213.5
797.652	291.32
797.832	209.4
798.012	246.27
798.192	268.8
798.373	193.02
798.553	293.37
798.733	295.42
798.913	158.21
799.093	168.45
799.274	184.83
799.454	248.32
799.634	266.75
799.814	186.88
799.994	184.83
800.174	219.64
800.354	207.36
800.534	213.5
800.714	178.69
800.894	256.51
801.074	260.6
801.254	219.64
801.434	217.6
801.614	285.18
801.794	107.01
801.974	647.67
802.154	207.36
802.334	162.3
802.514	193.02
802.693	264.7
802.873	229.88
803.053	215.55
803.233	203.26
803.413	193.02
803.592	166.4
803.772	139.77
803.952	160.25
804.131	178.69
804.311	186.88
804.491	221.69
804.67	252.41
804.85	145.92
805.03	190.97
805.209	197.12
805.389	184.83
805.568	174.59
805.748	207.36
805.928	152.06
806.107	127.49
806.287	172.54
806.466	166.4
806.646	109.05
806.825	188.93
807.004	240.12
807.184	238.08
807.363	180.73
807.543	176.64
807.722	193.02
807.901	188.93
808.081	139.77
808.26	156.16
808.439	215.55
808.619	233.98
808.798	176.64
808.977	160.25
809.156	209.4
809.336	184.83
809.515	199.16
809.694	197.12
809.873	207.36
810.052	143.87
810.231	193.02
810.411	174.59
810.59	166.4
810.769	160.25
810.948	137.73
811.127	174.59
811.306	160.25
811.485	172.54
811.664	141.82
811.843	188.93
812.022	172.54
812.201	174.59
812.38	98.81
812.559	111.1
812.737	217.6
812.916	109.05
813.095	76.29
813.274	111.1
813.453	182.78
813.632	109.05
813.811	164.35
813.989	102.91
814.168	121.34
814.347	94.72
814.526	82.43
814.704	166.4
814.883	113.15
815.062	107.01
815.24	127.49
815.419	102.91
815.598	104.96
815.776	113.15
815.955	107.01
816.133	45.57
816.312	193.02
816.49	172.54
816.669	119.29
816.847	123.39
817.026	94.72
817.204	156.16
817.383	129.53
817.561	-19.97
817.74	188.93
817.918	72.19
818.097	203.26
818.275	186.88
818.453	145.92
818.632	78.33
818.81	45.57
818.988	57.86
819.167	166.4
819.345	82.43
819.523	115.2
819.701	115.2
819.879	57.86
820.058	133.63
820.236	78.33
820.414	115.2
820.592	59.9
820.77	57.86
820.948	115.2
821.127	55.81
821.305	72.19
821.483	14.85
821.661	172.54
821.839	57.86
822.017	76.29
822.195	92.67
822.373	111.1
822.551	72.19
822.729	145.92
822.907	25.09
823.085	123.39
823.262	84.48
823.44	90.62
823.618	86.53
823.796	111.1
823.974	133.63
824.152	131.58
824.329	123.39
824.507	88.57
824.685	80.38
824.863	98.81
825.04	25.09
825.218	100.86
825.396	25.09
825.574	76.29
825.751	-28.16
825.929	92.67
826.107	90.62
826.284	102.91
826.462	74.24
826.639	90.62
826.817	8.7
826.994	88.57
827.172	27.14
827.349	109.05
827.527	102.91
827.704	94.72
827.882	68.09
828.059	129.53
828.237	96.77
828.414	170.49
828.591	37.38
828.769	94.72
828.946	53.76
829.124	139.77
829.301	139.77
829.478	25.09
829.655	25.09
829.833	39.42
830.01	31.23
830.187	6.66
830.364	49.66
830.542	137.73
830.719	84.48
830.896	96.77
831.073	27.14
831.25	61.95
831.427	102.91
831.604	47.62
831.782	-19.97
831.959	78.33
832.136	35.33
832.313	80.38
832.49	14.85
832.667	131.58
832.844	64
833.021	45.57
833.198	4.61
833.374	39.42
833.551	43.52
833.728	25.09
833.905	135.68
834.082	-3.58
834.259	35.33
834.436	107.01
834.612	43.52
834.789	55.81
834.966	8.7
835.143	98.81
835.319	49.66
835.496	31.23
835.673	64
835.85	84.48
836.026	4.61
836.203	31.23
836.38	10.75
836.556	31.23
836.733	47.62
836.909	76.29
837.086	14.85
837.262	57.86
837.439	-17.92
837.616	41.47
837.792	70.14
837.968	70.14
838.145	18.94
838.321	57.86
838.498	39.42
838.674	47.62
838.851	78.33
839.027	12.8
839.203	29.18
839.38	-15.87
839.556	90.62
839.732	-24.06
839.909	49.66
840.085	98.81
840.261	29.18
840.437	94.72
840.614	0.51
840.79	-5.63
840.966	27.14
841.142	-48.64
841.318	51.71
841.494	37.38
841.671	41.47
841.847	8.7
842.023	-5.63
842.199	29.18
842.375	78.33
842.551	0.51
842.727	76.29
842.903	57.86
843.079	-5.63
843.255	10.75
843.431	-36.35
843.607	27.14
843.783	20.99
843.959	55.81
844.134	47.62
844.31	8.7
844.486	-56.83
844.662	-19.97
844.838	-7.68
845.013	53.76
845.189	-3.58
845.365	16.9
845.541	12.8
845.716	74.24
845.892	57.86
846.068	55.81
846.244	57.86
846.419	41.47
846.595	14.85
846.77	-40.45
846.946	-58.88
847.122	-1.54
847.297	10.75
847.473	88.57
847.648	20.99
847.824	51.71
847.999	-87.55
848.175	53.76
848.35	-11.78
848.526	27.14
848.701	-1.54
848.876	8.7
849.052	43.52
849.227	-75.26
849.403	92.67
849.578	25.09
849.753	43.52
849.929	12.8
850.104	37.38
850.279	39.42
850.454	39.42
850.63	-3.58
850.805	53.76
850.98	-7.68
851.155	37.38
851.33	-32.26
851.505	16.9
851.681	-36.35
851.856	-5.63
852.031	68.09
852.206	-13.82
852.381	-15.87
852.556	49.66
852.731	-48.64
852.906	43.52
853.081	78.33
853.256	8.7
853.431	45.57
853.606	-26.11
853.781	74.24
853.956	-24.06
854.131	55.81
854.305	-114.17
854.48	-52.74
854.655	-40.45
854.83	-30.21
855.005	33.28
855.18	45.57
855.354	-32.26
855.529	2.56
855.704	20.99
855.879	53.76
856.053	-3.58
856.228	27.14
856.403	51.71
856.577	29.18
856.752	-40.45
856.926	-15.87
857.101	-11.78
857.276	-13.82
857.45	14.85
857.625	16.9
857.799	-1.54
857.974	70.14
858.148	29.18
858.323	82.43
858.497	4.61
858.672	18.94
858.846	25.09
859.02	14.85
859.195	-11.78
859.369	-30.21
859.543	-105.98
859.718	41.47
859.892	-28.16
860.066	47.62
860.241	39.42
860.415	43.52
860.589	-1.54
860.763	41.47
860.938	-34.3
861.112	53.76
861.286	-32.26
861.46	-28.16
861.634	-26.11
861.808	41.47
861.982	-3.58
862.157	-54.78
862.331	-9.73
862.505	-11.78
862.679	16.9
862.853	-26.11
863.027	-1.54
863.201	-5.63
863.375	-7.68
863.549	35.33
863.722	-13.82
863.896	20.99
864.07	-30.21
864.244	61.95
864.418	45.57
864.592	-17.92
864.766	-30.21
864.939	-9.73
865.113	53.76
865.287	-19.97
865.461	-22.02
865.634	51.71
865.808	-32.26
865.982	53.76
866.156	-22.02
866.329	68.09
866.503	61.95
866.676	-32.26
866.85	-5.63
867.024	-56.83
867.197	16.9
867.371	29.18
867.544	-30.21
867.718	-24.06
867.891	51.71
868.065	-65.02
868.238	-17.92
868.412	64
868.585	-7.68
868.759	16.9
868.932	-40.45
869.105	-5.63
869.279	-89.6
869.452	-26.11
869.625	-69.12
869.799	35.33
869.972	53.76
870.145	84.48
870.319	-9.73
870.492	-28.16
870.665	-36.35
870.838	-36.35
871.011	-36.35
871.185	16.9
871.358	-24.06
871.531	27.14
871.704	25.09
871.877	-34.3
872.05	-7.68
872.223	-5.63
872.396	41.47
872.569	-22.02
872.742	-9.73
872.915	41.47
873.088	-7.68
873.261	-32.26
873.434	-11.78
873.607	10.75
873.78	-17.92
873.953	25.09
874.126	-3.58
874.299	-3.58
874.471	43.52
874.644	23.04
874.817	-73.21
874.99	-50.69
875.163	2.56
875.335	-40.45
875.508	25.09
875.681	31.23
875.853	-1.54
876.026	-36.35
876.199	-34.3
876.371	-30.21
876.544	2.56
876.717	16.9
876.889	-13.82
877.062	8.7
877.234	-26.11
877.407	-28.16
877.579	61.95
877.752	64
877.924	35.33
878.097	20.99
878.269	-38.4
878.442	-97.79
878.614	10.75
878.786	37.38
878.959	6.66
879.131	70.14
879.303	-24.06
879.476	25.09
879.648	33.28
879.82	25.09
879.993	-50.69
880.165	-32.26
880.337	-73.21
880.509	57.86
880.681	-87.55
880.854	-15.87
881.026	33.28
881.198	94.72
881.37	-24.06
881.542	-44.54
881.714	-22.02
881.886	-85.5
882.058	64
882.23	-42.5
882.402	25.09
882.574	6.66
882.746	-7.68
882.918	31.23
883.09	6.66
883.262	6.66
883.434	57.86
883.606	53.76
883.778	-34.3
883.95	68.09
884.122	-52.74
884.293	-24.06
884.465	29.18
884.637	-40.45
884.809	-93.69
884.98	-22.02
885.152	-58.88
885.324	12.8
885.496	-5.63
885.667	-13.82
885.839	-26.11
886.011	-5.63
886.182	29.18
886.354	-15.87
886.525	0.51
886.697	35.33
886.869	-1.54
887.04	51.71
887.212	-11.78
887.383	23.04
887.555	-56.83
887.726	23.04
887.897	-11.78
888.069	-28.16
888.24	31.23
888.412	8.7
888.583	-11.78
888.754	-56.83
888.926	-3.58
889.097	35.33
889.268	-52.74
889.44	-7.68
889.611	-7.68
889.782	4.61
889.953	12.8
890.125	27.14
890.296	16.9
890.467	-5.63
890.638	18.94
890.809	-30.21
890.98	-30.21
891.151	4.61
891.323	-62.98
891.494	-15.87
891.665	-17.92
891.836	-44.54
892.007	-52.74
892.178	-36.35
892.349	14.85
892.52	-36.35
892.691	-3.58
892.862	-54.78
893.032	-69.12
893.203	-62.98
893.374	-9.73
893.545	61.95
893.716	-75.26
893.887	8.7
894.057	-32.26
894.228	-22.02
894.399	-71.17
894.57	4.61
894.74	4.61
894.911	94.72
895.082	-7.68
895.253	-105.98
895.423	8.7
895.594	55.81
895.764	-1.54
895.935	-58.88
896.106	29.18
896.276	-38.4
896.447	-5.63
896.617	-1.54
896.788	66.05
896.958	-50.69
897.129	33.28
897.299	25.09
897.47	0.51
897.64	-40.45
897.81	-65.02
897.981	18.94
898.151	4.61
898.322	8.7
898.492	-7.68
898.662	-40.45
898.832	2.56
899.003	-28.16
899.173	23.04
899.343	-1.54
899.513	-60.93
