Data from USB4F104151__10__12-00-23-245.txt Node

Date: Fri Mar 14 12:00:23 EDT 2025
User: louis
Spectrometer: USB4F10415
Trigger mode: 4
Integration Time (sec): 2.000000E-2
Scans to average: 1
Electric dark correction enabled: true
Nonlinearity correction enabled: false
Boxcar width: 0
XAxis mode: Wavelengths
Number of Pixels in Spectrum: 3648
>>>>>Begin Spectral Data<<<<<
178.204	-33.28
178.424	-33.28
178.644	-33.28
178.864	-66.05
179.084	-107.01
179.304	-16.9
179.524	19.97
179.744	-18.94
179.964	83.45
180.184	7.68
180.404	-37.38
180.624	9.73
180.844	-18.94
181.064	5.63
181.283	38.4
181.503	-55.81
181.723	-16.9
181.943	17.92
182.163	19.97
182.383	-57.86
182.602	56.83
182.822	-0.51
183.042	36.35
183.262	24.06
183.482	52.74
183.701	40.45
183.921	71.17
184.141	-51.71
184.361	91.65
184.58	42.5
184.8	65.02
185.02	54.78
185.239	58.88
185.459	15.87
185.679	36.35
185.898	-0.51
186.118	52.74
186.338	-0.51
186.557	69.12
186.777	52.74
186.997	40.45
187.216	128.51
187.436	50.69
187.655	58.88
187.875	77.31
188.095	-2.56
188.314	69.12
188.534	83.45
188.753	-23.04
188.973	17.92
189.192	85.5
189.412	30.21
189.631	89.6
189.851	22.02
190.07	52.74
190.29	-37.38
190.509	-6.66
190.729	17.92
190.948	58.88
191.168	36.35
191.387	65.02
191.607	5.63
191.826	36.35
192.045	38.4
192.265	-45.57
192.484	24.06
192.704	60.93
192.923	1.54
193.142	62.98
193.362	81.41
193.581	40.45
193.8	-4.61
194.02	77.31
194.239	32.26
194.458	15.87
194.678	44.54
194.897	58.88
195.116	-8.7
195.335	85.5
195.555	75.26
195.774	34.3
195.993	7.68
196.212	40.45
196.432	101.89
196.651	44.54
196.87	34.3
197.089	58.88
197.308	105.98
197.528	101.89
197.747	5.63
197.966	56.83
198.185	44.54
198.404	52.74
198.623	54.78
198.842	-0.51
199.062	101.89
199.281	71.17
199.5	-8.7
199.719	95.74
199.938	5.63
200.157	87.55
200.376	69.12
200.595	-45.57
200.814	-2.56
201.033	65.02
201.252	93.69
201.471	44.54
201.69	79.36
201.909	93.69
202.128	26.11
202.347	44.54
202.566	-14.85
202.785	85.5
203.004	-4.61
203.223	79.36
203.442	83.45
203.661	62.98
203.879	108.03
204.098	-4.61
204.317	112.13
204.536	13.82
204.755	-10.75
204.974	48.64
205.193	44.54
205.411	85.5
205.63	81.41
205.849	54.78
206.068	38.4
206.287	52.74
206.505	56.83
206.724	46.59
206.943	48.64
207.162	-25.09
207.381	1.54
207.599	56.83
207.818	1.54
208.037	-2.56
208.255	-31.23
208.474	73.21
208.693	36.35
208.911	-2.56
209.13	1.54
209.349	71.17
209.567	77.31
209.786	52.74
210.005	30.21
210.223	97.79
210.442	95.74
210.661	79.36
210.879	22.02
211.098	-6.66
211.316	5.63
211.535	108.03
211.753	11.78
211.972	62.98
212.191	-14.85
212.409	36.35
212.628	26.11
212.846	13.82
213.065	87.55
213.283	54.78
213.502	71.17
213.72	3.58
213.938	1.54
214.157	32.26
214.375	-2.56
214.594	-2.56
214.812	34.3
215.031	52.74
215.249	15.87
215.467	46.59
215.686	-10.75
215.904	60.93
216.122	60.93
216.341	75.26
216.559	-2.56
216.778	40.45
216.996	48.64
217.214	65.02
217.432	48.64
217.651	-31.23
217.869	13.82
218.087	-0.51
218.306	50.69
218.524	114.17
218.742	-33.28
218.96	89.6
219.179	5.63
219.397	36.35
219.615	85.5
219.833	5.63
220.051	3.58
220.27	114.17
220.488	38.4
220.706	3.58
220.924	22.02
221.142	-33.28
221.36	-33.28
221.578	30.21
221.796	-0.51
222.015	-27.14
222.233	-2.56
222.451	46.59
222.669	28.16
222.887	50.69
223.105	5.63
223.323	26.11
223.541	9.73
223.759	67.07
223.977	-4.61
224.195	73.21
224.413	44.54
224.631	-33.28
224.849	1.54
225.067	71.17
225.285	69.12
225.503	112.13
225.721	75.26
225.939	-16.9
226.157	85.5
226.375	97.79
226.592	54.78
226.81	60.93
227.028	38.4
227.246	89.6
227.464	134.65
227.682	91.65
227.9	-4.61
228.117	44.54
228.335	-16.9
228.553	40.45
228.771	54.78
228.989	99.84
229.206	144.89
229.424	58.88
229.642	15.87
229.86	24.06
230.077	48.64
230.295	44.54
230.513	-61.95
230.731	38.4
230.948	38.4
231.166	42.5
231.384	1.54
231.601	40.45
231.819	87.55
232.037	32.26
232.254	118.27
232.472	46.59
232.689	46.59
232.907	40.45
233.125	48.64
233.342	46.59
233.56	54.78
233.777	7.68
233.995	81.41
234.213	136.7
234.43	-25.09
234.648	54.78
234.865	91.65
235.083	44.54
235.3	9.73
235.518	130.56
235.735	95.74
235.953	73.21
236.17	-2.56
236.388	34.3
236.605	85.5
236.822	26.11
237.04	54.78
237.257	5.63
237.475	9.73
237.692	15.87
237.909	-23.04
238.127	-0.51
238.344	50.69
238.562	71.17
238.779	9.73
238.996	73.21
239.214	15.87
239.431	-0.51
239.648	13.82
239.865	30.21
240.083	22.02
240.3	93.69
240.517	44.54
240.735	38.4
240.952	60.93
241.169	9.73
241.386	-25.09
241.603	50.69
241.821	30.21
242.038	77.31
242.255	-8.7
242.472	-45.57
242.689	42.5
242.907	-6.66
243.124	19.97
243.341	69.12
243.558	52.74
243.775	71.17
243.992	15.87
244.209	-10.75
244.426	91.65
244.643	-27.14
244.86	34.3
245.078	75.26
245.295	17.92
245.512	87.55
245.729	-2.56
245.946	5.63
246.163	13.82
246.38	-14.85
246.597	50.69
246.814	65.02
247.031	97.79
247.248	7.68
247.464	30.21
247.681	40.45
247.898	36.35
248.115	58.88
248.332	-41.47
248.549	11.78
248.766	46.59
248.983	65.02
249.2	44.54
249.417	75.26
249.633	19.97
249.85	42.5
250.067	-6.66
250.284	24.06
250.501	3.58
250.717	26.11
250.934	32.26
251.151	85.5
251.368	36.35
251.585	1.54
251.801	7.68
252.018	87.55
252.235	71.17
252.451	54.78
252.668	54.78
252.885	79.36
253.102	52.74
253.318	62.98
253.535	-27.14
253.752	-18.94
253.968	81.41
254.185	-57.86
254.401	58.88
254.618	99.84
254.835	42.5
255.051	101.89
255.268	1.54
255.484	34.3
255.701	36.35
255.917	42.5
256.134	-47.62
256.351	17.92
256.567	22.02
256.784	34.3
257	42.5
257.217	52.74
257.433	48.64
257.65	58.88
257.866	73.21
258.082	-14.85
258.299	44.54
258.515	101.89
258.732	-33.28
258.948	13.82
259.165	58.88
259.381	83.45
259.597	3.58
259.814	19.97
260.03	79.36
260.246	44.54
260.463	34.3
260.679	89.6
260.895	69.12
261.112	13.82
261.328	87.55
261.544	44.54
261.761	34.3
261.977	19.97
262.193	69.12
262.409	-8.7
262.626	46.59
262.842	87.55
263.058	26.11
263.274	50.69
263.49	19.97
263.707	116.22
263.923	-18.94
264.139	9.73
264.355	44.54
264.571	40.45
264.787	5.63
265.004	5.63
265.22	-0.51
265.436	-20.99
265.652	34.3
265.868	7.68
266.084	1.54
266.3	112.13
266.516	32.26
266.732	54.78
266.948	38.4
267.164	44.54
267.38	67.07
267.596	65.02
267.812	103.93
268.028	-8.7
268.244	13.82
268.46	34.3
268.676	56.83
268.892	11.78
269.108	1.54
269.324	62.98
269.54	38.4
269.756	13.82
269.972	9.73
270.188	-16.9
270.403	19.97
270.619	19.97
270.835	69.12
271.051	77.31
271.267	97.79
271.483	19.97
271.698	46.59
271.914	58.88
272.13	91.65
272.346	44.54
272.562	38.4
272.777	26.11
272.993	1.54
273.209	93.69
273.425	15.87
273.64	60.93
273.856	56.83
274.072	30.21
274.287	36.35
274.503	11.78
274.719	124.41
274.934	85.5
275.15	-31.23
275.366	42.5
275.581	-49.66
275.797	1.54
276.012	-16.9
276.228	56.83
276.444	38.4
276.659	93.69
276.875	50.69
277.09	22.02
277.306	24.06
277.521	87.55
277.737	50.69
277.952	30.21
278.168	77.31
278.383	73.21
278.599	17.92
278.814	36.35
279.03	46.59
279.245	118.27
279.461	-4.61
279.676	69.12
279.892	-20.99
280.107	-39.42
280.322	52.74
280.538	44.54
280.753	75.26
280.969	19.97
281.184	3.58
281.399	42.5
281.615	62.98
281.83	71.17
282.045	36.35
282.26	3.58
282.476	62.98
282.691	-29.18
282.906	81.41
283.122	62.98
283.337	52.74
283.552	38.4
283.767	91.65
283.983	87.55
284.198	77.31
284.413	32.26
284.628	30.21
284.843	126.46
285.058	71.17
285.274	75.26
285.489	5.63
285.704	93.69
285.919	85.5
286.134	19.97
286.349	81.41
286.564	11.78
286.779	60.93
286.995	-0.51
287.21	15.87
287.425	73.21
287.64	67.07
287.855	97.79
288.07	-31.23
288.285	13.82
288.5	-8.7
288.715	77.31
288.93	-10.75
289.145	73.21
289.36	105.98
289.575	65.02
289.79	46.59
290.004	28.16
290.219	15.87
290.434	22.02
290.649	62.98
290.864	62.98
291.079	52.74
291.294	114.17
291.509	75.26
291.724	17.92
291.938	30.21
292.153	65.02
292.368	120.32
292.583	44.54
292.798	42.5
293.012	83.45
293.227	46.59
293.442	65.02
293.657	19.97
293.871	71.17
294.086	50.69
294.301	46.59
294.516	36.35
294.73	-20.99
294.945	32.26
295.16	28.16
295.374	3.58
295.589	1.54
295.804	62.98
296.018	11.78
296.233	124.41
296.447	32.26
296.662	42.5
296.877	136.7
297.091	52.74
297.306	71.17
297.52	58.88
297.735	30.21
297.949	44.54
298.164	159.23
298.378	3.58
298.593	83.45
298.807	28.16
299.022	58.88
299.236	7.68
299.451	54.78
299.665	73.21
299.88	-2.56
300.094	112.13
300.309	91.65
300.523	97.79
300.737	32.26
300.952	-23.04
301.166	32.26
301.381	17.92
301.595	54.78
301.809	71.17
302.024	83.45
302.238	15.87
302.452	124.41
302.667	-18.94
302.881	75.26
303.095	42.5
303.309	7.68
303.524	118.27
303.738	-23.04
303.952	30.21
304.166	32.26
304.381	1.54
304.595	40.45
304.809	15.87
305.023	112.13
305.237	58.88
305.452	65.02
305.666	38.4
305.88	73.21
306.094	48.64
306.308	-6.66
306.522	54.78
306.736	85.5
306.95	-41.47
307.164	11.78
307.379	91.65
307.593	122.37
307.807	87.55
308.021	42.5
308.235	103.93
308.449	9.73
308.663	83.45
308.877	75.26
309.091	13.82
309.305	26.11
309.519	26.11
309.733	65.02
309.947	-6.66
310.161	28.16
310.374	120.32
310.588	36.35
310.802	15.87
311.016	142.85
311.23	38.4
311.444	17.92
311.658	69.12
311.872	-4.61
312.085	-25.09
312.299	77.31
312.513	44.54
312.727	17.92
312.941	62.98
313.154	83.45
313.368	11.78
313.582	54.78
313.796	7.68
314.009	-10.75
314.223	54.78
314.437	91.65
314.651	36.35
314.864	79.36
315.078	46.59
315.292	19.97
315.505	36.35
315.719	1.54
315.933	9.73
316.146	42.5
316.36	91.65
316.573	85.5
316.787	24.06
317.001	101.89
317.214	-10.75
317.428	56.83
317.641	89.6
317.855	112.13
318.068	71.17
318.282	40.45
318.495	132.61
318.709	105.98
318.922	13.82
319.136	155.13
319.349	40.45
319.563	3.58
319.776	22.02
319.99	34.3
320.203	67.07
320.417	36.35
320.63	144.89
320.843	83.45
321.057	52.74
321.27	26.11
321.483	75.26
321.697	185.85
321.91	62.98
322.124	3.58
322.337	77.31
322.55	62.98
322.763	73.21
322.977	5.63
323.19	17.92
323.403	114.17
323.617	15.87
323.83	13.82
324.043	42.5
324.256	73.21
324.469	-10.75
324.683	50.69
324.896	-6.66
325.109	83.45
325.322	24.06
325.535	32.26
325.748	26.11
325.962	60.93
326.175	95.74
326.388	13.82
326.601	15.87
326.814	75.26
327.027	44.54
327.24	62.98
327.453	-0.51
327.666	3.58
327.879	38.4
328.092	40.45
328.305	48.64
328.518	24.06
328.731	19.97
328.944	-27.14
329.157	15.87
329.37	40.45
329.583	87.55
329.796	56.83
330.009	34.3
330.222	42.5
330.435	38.4
330.648	114.17
330.861	40.45
331.073	71.17
331.286	97.79
331.499	-8.7
331.712	38.4
331.925	15.87
332.138	56.83
332.35	73.21
332.563	13.82
332.776	60.93
332.989	52.74
333.202	75.26
333.414	-2.56
333.627	69.12
333.84	52.74
334.053	3.58
334.265	28.16
334.478	52.74
334.691	48.64
334.903	69.12
335.116	36.35
335.329	75.26
335.541	105.98
335.754	44.54
335.966	22.02
336.179	42.5
336.392	85.5
336.604	44.54
336.817	26.11
337.029	77.31
337.242	-18.94
337.454	-12.8
337.667	69.12
337.88	5.63
338.092	62.98
338.305	15.87
338.517	11.78
338.729	32.26
338.942	52.74
339.154	7.68
339.367	40.45
339.579	95.74
339.792	-6.66
340.004	99.84
340.217	112.13
340.429	13.82
340.641	11.78
340.854	54.78
341.066	-27.14
341.278	67.07
341.491	71.17
341.703	65.02
341.915	-16.9
342.128	67.07
342.34	38.4
342.552	-35.33
342.764	24.06
342.977	32.26
343.189	58.88
343.401	34.3
343.613	36.35
343.826	30.21
344.038	42.5
344.25	15.87
344.462	32.26
344.674	148.99
344.886	1.54
345.099	38.4
345.311	34.3
345.523	101.89
345.735	38.4
345.947	99.84
346.159	32.26
346.371	19.97
346.583	77.31
346.795	101.89
347.007	118.27
347.219	120.32
347.431	15.87
347.643	128.51
347.855	-0.51
348.067	11.78
348.279	83.45
348.491	15.87
348.703	30.21
348.915	58.88
349.127	9.73
349.339	52.74
349.551	91.65
349.763	44.54
349.975	89.6
350.187	56.83
350.399	-61.95
350.61	65.02
350.822	13.82
351.034	73.21
351.246	52.74
351.458	124.41
351.669	58.88
351.881	89.6
352.093	83.45
352.305	77.31
352.517	-0.51
352.728	89.6
352.94	28.16
353.152	148.99
353.363	75.26
353.575	24.06
353.787	95.74
353.999	65.02
354.21	126.46
354.422	28.16
354.633	85.5
354.845	79.36
355.057	1.54
355.268	42.5
355.48	140.8
355.692	46.59
355.903	52.74
356.115	75.26
356.326	-45.57
356.538	77.31
356.749	38.4
356.961	65.02
357.172	56.83
357.384	69.12
357.595	112.13
357.807	1.54
358.018	62.98
358.23	91.65
358.441	67.07
358.653	60.93
358.864	50.69
359.075	85.5
359.287	118.27
359.498	71.17
359.709	83.45
359.921	-2.56
360.132	73.21
360.344	7.68
360.555	44.54
360.766	28.16
360.977	15.87
361.189	-18.94
361.4	-23.04
361.611	22.02
361.823	83.45
362.034	81.41
362.245	65.02
362.456	22.02
362.667	50.69
362.879	38.4
363.09	-33.28
363.301	-31.23
363.512	93.69
363.723	85.5
363.935	77.31
364.146	89.6
364.357	87.55
364.568	58.88
364.779	11.78
364.99	48.64
365.201	-12.8
365.412	50.69
365.623	56.83
365.834	77.31
366.045	9.73
366.256	87.55
366.467	108.03
366.678	-53.76
366.889	46.59
367.1	7.68
367.311	5.63
367.522	32.26
367.733	50.69
367.944	56.83
368.155	54.78
368.366	28.16
368.577	48.64
368.788	36.35
368.999	46.59
369.209	36.35
369.42	148.99
369.631	105.98
369.842	67.07
370.053	-27.14
370.264	52.74
370.474	73.21
370.685	40.45
370.896	32.26
371.107	77.31
371.317	52.74
371.528	71.17
371.739	42.5
371.95	30.21
372.16	97.79
372.371	83.45
372.582	1.54
372.792	34.3
373.003	62.98
373.214	56.83
373.424	95.74
373.635	77.31
373.846	36.35
374.056	-35.33
374.267	32.26
374.477	108.03
374.688	38.4
374.898	38.4
375.109	81.41
375.319	50.69
375.53	134.65
375.74	13.82
375.951	19.97
376.161	73.21
376.372	69.12
376.582	60.93
376.793	58.88
377.003	65.02
377.214	79.36
377.424	91.65
377.635	-12.8
377.845	105.98
378.055	112.13
378.266	97.79
378.476	46.59
378.686	73.21
378.897	85.5
379.107	105.98
379.317	103.93
379.528	105.98
379.738	46.59
379.948	-0.51
380.158	105.98
380.369	71.17
380.579	67.07
380.789	65.02
380.999	87.55
381.21	116.22
381.42	112.13
381.63	54.78
381.84	42.5
382.05	65.02
382.261	30.21
382.471	87.55
382.681	65.02
382.891	67.07
383.101	99.84
383.311	77.31
383.521	81.41
383.731	134.65
383.941	24.06
384.151	95.74
384.361	73.21
384.571	-4.61
384.781	5.63
384.991	151.04
385.201	118.27
385.411	71.17
385.621	58.88
385.831	15.87
386.041	67.07
386.251	83.45
386.461	124.41
386.671	22.02
386.881	38.4
387.091	71.17
387.301	75.26
387.511	22.02
387.72	54.78
387.93	17.92
388.14	77.31
388.35	26.11
388.56	87.55
388.769	118.27
388.979	79.36
389.189	71.17
389.399	42.5
389.609	128.51
389.818	118.27
390.028	81.41
390.238	108.03
390.447	142.85
390.657	58.88
390.867	69.12
391.076	83.45
391.286	138.75
391.496	54.78
391.705	105.98
391.915	122.37
392.125	79.36
392.334	56.83
392.544	79.36
392.753	38.4
392.963	30.21
393.172	124.41
393.382	69.12
393.591	140.8
393.801	52.74
394.01	198.14
394.22	128.51
394.429	93.69
394.639	153.09
394.848	91.65
395.058	103.93
395.267	62.98
395.477	9.73
395.686	128.51
395.895	132.61
396.105	108.03
396.314	50.69
396.524	136.7
396.733	110.08
396.942	210.43
397.152	103.93
397.361	112.13
397.57	120.32
397.78	159.23
397.989	62.98
398.198	56.83
398.407	142.85
398.617	85.5
398.826	146.94
399.035	148.99
399.244	128.51
399.453	99.84
399.663	110.08
399.872	185.85
400.081	60.93
400.29	179.71
400.499	120.32
400.708	105.98
400.917	44.54
401.127	67.07
401.336	159.23
401.545	163.33
401.754	130.56
401.963	132.61
402.172	216.57
402.381	177.66
402.59	175.61
402.799	146.94
403.008	140.8
403.217	192
403.426	153.09
403.635	167.42
403.844	163.33
404.053	192
404.262	169.47
404.471	212.48
404.68	140.8
404.888	169.47
405.097	192
405.306	144.89
405.515	218.62
405.724	189.95
405.933	177.66
406.142	230.91
406.35	232.96
406.559	204.28
406.768	214.52
406.977	241.15
407.185	214.52
407.394	216.57
407.603	218.62
407.812	247.29
408.02	220.67
408.229	214.52
408.438	251.39
408.646	239.1
408.855	259.58
409.064	312.83
409.272	312.83
409.481	306.68
409.69	294.4
409.898	323.07
410.107	335.35
410.315	390.65
410.524	337.4
410.733	339.45
410.941	437.75
411.15	476.66
411.358	411.13
411.567	460.28
411.775	431.61
411.984	495.1
412.192	622.07
412.401	503.29
412.609	525.82
412.818	546.3
413.026	544.25
413.234	585.21
413.443	572.92
413.651	667.13
413.86	660.98
414.068	679.41
414.276	679.41
414.485	685.56
414.693	773.62
414.901	701.94
415.11	722.42
415.318	769.52
415.526	781.81
415.734	873.97
415.943	904.69
416.151	947.7
416.359	904.69
416.567	941.55
416.776	945.65
416.984	1029.62
417.192	1043.95
417.4	1046
417.608	1129.97
417.817	1074.67
418.025	1191.41
418.233	1392.11
418.441	1273.32
418.649	1426.92
418.857	1400.3
419.065	1426.92
419.273	1420.78
419.481	1469.93
419.689	1576.42
419.897	1574.38
420.105	1596.9
420.313	1691.11
420.521	1736.17
420.729	1877.48
420.937	1906.15
421.145	2016.74
421.353	2123.23
421.561	2078.18
421.769	2254.3
421.977	2264.54
422.185	2203.1
422.393	2356.7
422.601	2581.98
422.809	2536.92
423.017	2614.74
423.224	2717.14
423.432	2790.87
423.64	2743.77
423.848	3116.5
424.056	2977.23
424.263	3182.03
424.471	3282.38
424.679	3302.86
424.887	3450.32
425.094	3638.73
425.302	3579.34
425.51	3663.3
425.718	3845.57
425.925	3894.72
426.133	4134.34
426.341	4115.91
426.548	4505.02
426.756	4474.3
426.964	4554.17
427.171	4715.96
427.379	4740.54
427.586	4890.04
427.794	5131.7
428.001	5219.76
428.209	5547.44
428.417	5326.25
428.624	5778.86
428.832	5815.72
429.039	5856.68
429.247	5862.82
429.454	6419.87
429.662	6858.14
429.869	6460.83
430.076	6923.67
430.284	6655.39
430.491	6813.08
430.699	7376.27
430.906	7357.84
431.114	7566.73
431.321	7779.72
431.528	7900.55
431.736	8422.78
431.943	8750.46
432.15	8510.85
432.358	8584.57
432.565	9039.22
432.772	8942.97
432.979	9516.4
433.187	9543.02
433.394	9624.94
433.601	10386.79
433.808	10417.51
434.016	10265.96
434.223	10925.4
434.43	11310.42
434.637	11140.44
434.844	11965.77
435.052	12381.51
435.259	12199.24
435.466	12358.98
435.673	12039.5
435.88	12752.19
436.087	13671.73
436.294	13313.33
436.501	13137.21
436.708	13544.75
436.915	13948.2
437.122	14769.44
437.329	14550.31
437.537	15023.39
437.743	15367.45
437.95	15007
438.157	16020.75
438.364	16305.42
438.571	16622.85
438.778	16477.44
438.985	18334.95
439.192	17476.85
439.399	17794.29
439.606	17628.4
439.813	18652.39
440.02	19610.84
440.227	19274.97
440.433	19256.54
440.64	19893.46
440.847	20083.92
441.054	19633.36
441.261	21705.91
441.467	21040.32
441.674	21994.67
441.881	22492.33
442.088	22666.41
442.294	22027.44
442.501	22809.76
442.708	23481.5
442.914	24120.46
443.121	25312.38
443.328	24777.86
443.534	26213.49
443.741	25904.24
443.948	25113.73
444.154	27419.74
444.361	26752.1
444.568	27159.65
444.774	27135.07
444.981	27518.04
445.187	28791.88
445.394	29457.47
445.6	29152.32
445.807	31765.53
446.013	30366.77
446.22	31163.43
446.426	32144.41
446.633	32713.74
446.839	33854.46
447.046	32011.29
447.252	34110.46
447.459	33987.58
447.665	33518.59
447.871	35527.65
448.078	37186.5
448.284	35146.73
448.491	36162.52
448.697	37731.26
448.903	38200.25
449.11	38331.32
449.316	37870.53
449.522	38192.06
449.728	39091.12
449.935	39752.61
450.141	39390.12
450.347	40338.33
450.553	38808.5
450.76	39664.55
450.966	40786.83
451.172	40416.15
451.378	41360.26
451.584	40536.98
451.791	41366.41
451.997	41663.36
452.203	41882.5
452.409	41993.09
452.615	41909.12
452.821	39924.64
453.027	39762.85
453.233	41718.66
453.44	40164.25
453.646	40289.18
453.852	40967.05
454.058	41388.94
454.264	39973.79
454.47	40846.22
454.676	39586.72
454.882	40905.62
455.088	37346.25
455.294	37827.52
455.5	38466.49
455.705	39082.92
455.911	37483.46
456.117	36500.44
456.323	36330.45
456.529	34288.63
456.735	35877.85
456.941	34747.37
457.147	34235.38
457.352	32994.31
457.558	32508.94
457.764	32658.45
457.97	31761.44
458.176	31341.6
458.381	31427.62
458.587	29731.9
458.793	29746.23
458.999	28283.98
459.204	30549.04
459.41	29258.82
459.616	27276.38
459.821	27614.3
460.027	27493.47
460.233	27032.68
460.438	25498.75
460.644	25769.08
460.85	24605.83
461.055	24018.07
461.261	24151.18
461.466	22344.88
461.672	21755.06
461.878	23051.42
462.083	21623.99
462.289	21056.7
462.494	21007.55
462.7	20047.05
462.905	19430.62
463.111	19987.66
463.316	20278.47
463.522	19754.19
463.727	19766.48
463.932	19780.82
464.138	19703
464.343	20073.68
464.549	18904.29
464.754	19721.43
464.959	19723.48
465.165	19930.32
465.37	18744.55
465.575	18017.52
465.781	18932.96
465.986	19135.71
466.191	18312.42
466.397	18072.81
466.602	17267.96
466.807	18019.57
467.012	17747.19
467.218	17552.63
467.423	17786.1
467.628	17499.38
467.833	18205.93
468.038	17372.41
468.244	17253.62
468.449	17386.74
468.654	17227
468.859	16968.96
469.064	17042.68
469.269	16096.52
469.474	16516.36
469.679	16807.17
469.885	16092.43
470.09	16721.15
470.295	16569.6
470.5	15904.01
470.705	16137.48
470.91	15551.76
471.115	15676.69
471.32	16082.19
471.525	15899.92
471.73	15205.66
471.935	15090.97
472.139	14796.06
472.344	15045.91
472.549	14677.28
472.754	14669.09
472.959	14146.86
473.164	13976.87
473.369	13970.73
473.574	14361.89
473.778	14034.22
473.983	13956.4
474.188	13880.62
474.393	13303.09
474.598	13241.65
474.802	13413.68
475.007	13157.69
475.212	13122.87
475.417	12488
475.621	12502.34
475.826	12315.97
476.031	12526.91
476.235	12180.81
476.44	12223.81
476.645	12080.46
476.849	12242.25
477.054	11894.09
477.259	11740.49
477.463	11640.14
477.668	11287.89
477.872	11621.71
478.077	11445.59
478.282	11220.31
478.486	11005.27
478.691	11128.15
478.895	10995.03
479.1	10847.58
479.304	10937.69
479.509	10569.05
479.713	10771.8
479.918	10743.13
480.122	10356.07
480.326	10698.08
480.531	10603.87
480.735	10415.46
480.94	10257.76
481.144	10679.65
481.348	10032.49
481.553	10202.47
481.757	10077.54
481.961	10243.43
482.166	10444.13
482.37	10282.34
482.574	10100.07
482.778	10161.51
482.983	10360.16
483.187	10409.31
483.391	10227.04
483.595	10067.3
483.8	10075.49
484.004	10241.38
484.208	10130.79
484.412	10149.22
484.616	10235.24
484.821	9989.48
485.025	10001.77
485.229	10470.75
485.433	10153.32
485.637	10032.49
485.841	9788.78
486.045	10222.95
486.249	10202.47
486.453	10085.73
486.657	10208.61
486.861	10302.82
487.065	9973.1
487.269	10128.74
487.473	9622.89
487.677	10153.32
487.881	10143.08
488.085	10102.12
488.289	10059.11
488.493	10126.69
488.697	10106.21
488.901	10263.91
489.105	10333.54
489.309	10055.01
489.512	10325.35
489.716	10313.06
489.92	10007.91
490.124	10225
490.328	10323.3
490.531	10452.32
490.735	10294.63
490.939	10364.26
491.143	10431.84
491.346	10331.49
491.55	10556.77
491.754	10497.38
491.958	10446.18
492.161	10536.29
492.365	10757.47
492.569	10708.32
492.772	10718.56
492.976	10583.39
493.18	10665.31
493.383	10861.91
493.587	11033.94
493.79	11134.29
493.994	10952.02
494.197	11052.38
494.401	11357.52
494.605	11248.98
494.808	11173.21
495.012	11619.66
495.215	11603.28
495.419	11687.25
495.622	11588.94
495.825	11681.1
496.029	11564.37
496.232	11914.57
496.436	11896.14
496.639	12313.92
496.843	12293.44
497.046	12459.33
497.249	12369.22
497.453	12453.19
497.656	12602.69
497.859	12694.85
498.063	12905.79
498.266	13088.06
498.469	13075.77
498.673	13032.76
498.876	13434.16
499.079	13550.9
499.282	13563.19
499.485	13991.21
499.689	13806.89
499.892	14224.68
500.095	14148.9
500.298	14572.83
500.501	14396.71
500.705	14855.45
500.908	14716.19
501.111	14902.56
501.314	14994.72
501.517	15236.38
501.72	15457.56
501.923	15486.23
502.126	15830.29
502.329	15793.42
502.532	16002.32
502.735	16317.7
502.938	16395.53
503.141	16493.83
503.344	16852.22
503.547	16811.26
503.75	17282.3
503.953	17669.36
504.156	17423.61
504.359	17671.41
504.562	17599.73
504.765	18081
504.968	18234.6
505.17	18640.1
505.373	18461.93
505.576	19027.17
505.779	18865.38
505.982	19313.88
506.185	19504.34
506.387	19455.19
506.59	19805.39
506.793	20002
506.996	20171.98
507.198	20796.61
507.401	20624.58
507.604	20669.64
507.807	21036.22
508.009	21462.2
508.212	21316.79
508.415	21707.96
508.617	21613.75
508.82	22105.26
509.022	21990.58
509.225	22375.59
509.428	22580.39
509.63	22824.1
509.833	22574.25
510.035	23319.71
510.238	23307.42
510.44	23571.61
510.643	23678.1
510.845	24325.26
511.048	23985.3
511.25	24562.83
511.453	24249.49
511.655	25320.57
511.858	24980.61
512.06	25283.71
512.262	25537.66
512.465	25447.55
512.667	25945.2
512.87	26328.17
513.072	26127.47
513.274	26661.99
513.477	26936.42
513.679	27354.21
513.881	27507.8
514.084	27819.1
514.286	27692.12
514.488	28111.96
514.69	28722.25
514.893	28656.71
515.095	28560.46
515.297	29111.36
515.499	28802.12
515.701	29387.84
515.904	29914.17
516.106	30088.24
516.308	30434.35
516.51	30649.39
516.712	30688.3
516.914	30596.14
517.116	31329.31
517.318	31466.53
517.52	31640.61
517.722	31740.96
517.925	32326.67
518.127	32470.03
518.329	32687.12
518.531	32525.33
518.733	33219.59
518.935	33502.21
519.136	33342.47
519.338	33987.58
519.54	34014.2
519.742	34491.38
519.944	34434.03
520.146	35116.01
520.348	35474.4
520.55	35062.76
520.752	35435.49
520.954	36240.34
521.155	35961.82
521.357	36469.72
521.559	36742.1
521.761	36678.61
521.963	37178.31
522.164	37045.19
522.366	37120.97
522.568	37426.12
522.77	37841.85
522.971	38128.57
523.173	37768.13
523.375	38382.52
523.576	38583.22
523.778	38343.61
523.98	38876.08
524.181	38871.98
524.383	39414.69
524.584	39746.47
524.786	39762.85
524.988	39363.5
525.189	40371.1
525.391	40364.95
525.592	40170.4
525.794	39973.79
525.995	40369.05
526.197	40749.97
526.398	40786.83
526.6	40975.25
526.801	41235.34
527.003	41216.91
527.204	40997.77
527.406	41845.63
527.607	41495.43
527.808	42302.33
528.01	41071.5
528.211	41331.59
528.412	42240.89
528.614	42294.14
528.815	42627.96
529.016	42840.95
529.218	42300.28
529.419	42879.86
529.62	42359.67
529.822	42675.06
530.023	42832.75
530.224	42619.77
530.425	42505.08
530.626	42470.26
530.828	42470.26
531.029	43326.31
531.23	42814.32
531.431	42752.88
531.632	42949.49
531.833	43490.15
532.035	43049.84
532.236	43166.57
532.437	43535.21
532.638	43185.01
532.839	43252.59
533.04	43441
533.241	42924.91
533.442	43842.4
533.643	43297.64
533.844	43463.53
534.045	43512.68
534.246	43045.74
534.447	43664.23
534.648	43518.82
534.849	43254.64
535.05	43031.41
535.251	43301.74
535.451	43666.28
535.652	43328.36
535.853	43334.51
536.054	43303.79
536.255	43199.34
536.456	43248.49
536.657	43742.05
536.857	43076.46
537.058	43209.58
537.259	44086.11
537.46	43293.55
537.66	43420.52
537.861	43576.17
538.062	43283.31
538.263	43621.22
538.463	43021.17
538.664	43131.76
538.865	43430.76
539.065	43828.07
539.266	43092.85
539.466	43959.14
539.667	42675.06
539.868	43541.35
540.068	43142
540.269	43303.79
540.469	43342.7
540.67	42937.2
540.87	43025.26
541.071	43209.58
541.271	43322.22
541.472	43236.2
541.672	43281.26
541.873	42929.01
542.073	42810.23
542.274	43174.77
542.474	43156.33
542.675	42853.23
542.875	43297.64
543.075	42967.92
543.276	42699.64
543.476	43318.12
543.676	42754.93
543.877	43080.56
544.077	43070.32
544.277	42777.46
544.478	43207.53
544.678	42886
544.878	42789.75
545.078	42789.75
545.279	42306.43
545.479	42810.23
545.679	42830.71
545.879	42566.52
546.079	42584.95
546.28	42728.31
546.48	42623.86
546.68	42853.23
546.88	42679.16
547.08	42785.65
547.28	42218.36
547.48	42310.52
547.68	42933.1
547.88	42326.91
548.081	42664.82
548.281	42849.14
548.481	42232.7
548.681	43017.07
548.881	42093.44
549.081	42836.85
549.28	42171.26
549.48	42830.71
549.68	42570.61
549.88	43146.09
550.08	42482.55
550.28	42222.46
550.48	42505.08
550.68	42808.18
550.88	42216.32
551.08	42478.46
551.279	42740.6
551.479	42171.26
551.679	42756.98
551.879	42230.65
552.079	42365.82
552.278	42040.19
552.478	42019.71
552.678	42357.63
552.878	42410.87
553.077	42234.75
553.277	41800.58
553.477	42412.92
553.676	42316.67
553.876	42128.25
554.076	41862.02
554.275	41790.34
554.475	41739.14
554.674	42206.08
554.874	42132.35
555.074	41769.86
555.273	41841.54
555.473	42371.96
555.672	41534.34
555.872	41728.9
556.071	42136.45
556.271	41925.5
556.47	41350.03
556.67	41178
556.869	41376.65
557.068	41425.8
557.268	41298.83
557.467	41161.61
557.667	41536.39
557.866	41423.75
558.065	41134.99
558.265	41018.25
558.464	40995.73
558.663	41776
558.863	40819.6
559.062	41479.05
559.261	40711.06
559.461	41059.21
559.66	40194.97
559.859	40725.39
560.058	40602.52
560.258	40942.48
560.457	40250.27
560.656	40817.55
560.855	40332.18
561.054	41063.31
561.253	40553.37
561.453	40446.87
561.652	40440.73
561.851	40541.08
562.05	40516.5
562.249	39912.35
562.448	40229.79
562.647	40213.4
562.846	39957.41
563.045	40203.16
563.244	39822.24
563.443	40168.35
563.642	39324.58
563.841	39406.5
564.04	39545.76
564.239	40176.54
564.438	39248.81
564.637	39986.08
564.836	39852.96
565.035	39103.4
565.234	39371.69
565.432	39017.39
565.631	39127.98
565.83	39439.27
566.029	38980.53
566.228	39105.45
566.427	38628.27
566.625	39005.1
566.824	38554.55
567.023	39078.83
567.222	38245.3
567.42	38489.01
567.619	38591.41
567.818	38169.53
568.016	38103.99
568.215	38439.86
568.414	38108.09
568.612	38386.61
568.811	38103.99
569.01	38015.93
569.208	37690.3
569.407	38558.64
569.605	37768.13
569.804	37938.11
570.002	37600.19
570.201	37575.62
570.4	37245.9
570.598	37221.32
570.797	37057.48
570.995	37512.13
571.193	36645.84
571.392	37276.62
571.59	36649.94
571.789	36717.52
571.987	36873.17
572.186	36711.38
572.384	36432.85
572.582	36957.13
572.781	36801.49
572.979	35943.39
573.177	36570.07
573.376	36496.34
573.574	35812.32
573.772	36420.56
573.971	36082.65
574.169	35644.38
574.367	35767.26
574.565	35881.95
574.763	35634.14
574.962	35953.63
575.16	35451.88
575.358	35269.61
575.556	35036.14
575.754	35535.84
575.952	35177.45
576.151	35343.33
576.349	34749.42
576.547	34769.9
576.745	35331.04
576.943	34941.93
577.141	34894.83
577.339	34491.38
577.537	34577.39
577.735	34487.28
577.933	34128.89
578.131	34137.08
578.329	34219
578.527	33960.95
578.725	34292.72
578.923	33922.04
579.121	33620.99
579.319	34141.18
579.516	33584.13
579.714	33510.4
579.912	33678.33
580.11	33459.2
580.308	33178.63
580.506	33434.63
580.704	32812.04
580.901	33471.49
581.099	32943.11
581.297	32930.83
581.495	33115.14
581.692	33070.09
581.89	32259.09
582.088	33068.04
582.285	32494.61
582.483	32730.12
582.681	32564.24
582.878	32365.59
583.076	32007.19
583.274	32046.1
583.471	31896.6
583.669	32220.18
583.866	31822.87
584.064	32039.96
584.262	31546.4
584.459	31697.95
584.657	31790.11
584.854	31804.44
585.052	30647.34
585.249	31271.97
585.447	31650.85
585.644	30821.42
585.841	31278.11
586.039	31177.76
586.236	31120.42
586.434	30694.44
586.631	30762.03
586.828	30891.05
587.026	30690.35
587.223	30641.2
587.42	30608.43
587.618	30845.99
587.815	30159.92
588.012	30127.16
588.21	30266.42
588.407	30444.59
588.604	29957.17
588.801	29944.89
588.999	29895.74
589.196	29547.58
589.393	29779
589.59	29889.59
589.787	29500.48
589.984	29498.43
590.182	28886.09
590.379	29137.99
590.576	29197.38
590.773	28791.88
590.97	28820.55
591.167	29045.83
591.364	28474.45
591.561	29056.07
591.758	28415.05
591.955	28779.59
592.152	28662.86
592.349	28365.9
592.546	28519.5
592.743	28494.93
592.94	28009.56
593.137	28185.68
593.334	28566.6
593.531	27722.84
593.727	28079.19
593.924	27874.39
594.121	27761.75
594.318	27847.77
594.515	27296.86
594.712	27739.22
594.908	27706.46
595.105	27536.48
595.302	27061.35
595.499	27157.6
595.696	26983.52
595.892	26827.88
596.089	26938.47
596.286	26907.75
596.482	26809.45
596.679	26705
596.876	26825.83
597.072	26561.64
597.269	26688.62
597.466	26119.28
597.662	26266.74
597.859	26246.26
598.055	25732.22
598.252	25873.53
598.448	26088.56
598.645	25945.2
598.841	25494.65
599.038	25648.25
599.234	25556.09
599.431	25640.06
599.627	25597.05
599.824	25566.33
600.02	25566.33
600.217	25234.56
600.413	25230.46
600.609	25289.85
600.806	25074.82
601.002	25130.11
601.198	24966.28
601.395	24691.85
601.591	24497.29
601.787	24757.38
601.984	24581.26
602.18	25060.48
602.376	24599.69
602.572	24321.16
602.769	24167.57
602.965	24095.89
603.161	24425.61
603.357	24179.86
603.553	24032.4
603.75	24016.02
603.946	23825.56
604.142	24026.26
604.338	23768.21
604.534	23624.86
604.73	23475.35
604.926	23473.31
605.122	23524.51
605.318	23315.61
605.514	23100.58
605.71	23284.89
605.906	23166.11
606.102	23100.58
606.298	22953.12
606.494	22967.46
606.69	22850.72
606.886	22987.94
607.082	22367.4
607.278	22953.12
607.474	22357.16
607.67	22854.82
607.866	22482.09
608.062	22856.87
608.257	22613.16
608.453	22377.64
608.649	22418.6
608.845	22185.13
609.041	22320.3
609.236	22516.9
609.432	21992.62
609.628	22308.01
609.824	21929.14
610.019	21902.51
610.215	22078.64
610.411	22308.01
610.606	21662.9
610.802	21900.47
610.998	21718.2
611.193	21875.89
611.389	21634.23
611.584	21613.75
611.78	21597.37
611.976	21335.23
612.171	21853.36
612.367	21542.07
612.562	21466.3
612.758	21175.48
612.953	21050.56
613.149	21519.54
613.344	21054.65
613.539	21466.3
613.735	21261.5
613.93	21243.07
614.126	21220.54
614.321	21380.28
614.517	20853.95
614.712	20880.58
614.907	20706.5
615.103	20937.92
615.298	21030.08
615.493	21134.53
615.688	20554.95
615.884	21128.38
616.079	20526.28
616.274	20978.88
616.47	20647.11
616.665	20907.2
616.86	20563.14
617.055	20518.09
617.25	20501.7
617.445	20554.95
617.641	20165.84
617.836	20671.68
618.031	20024.53
618.226	20106.45
618.421	20079.82
618.616	20528.33
618.811	19688.66
619.006	20171.98
619.201	19520.73
619.396	19918.03
619.591	19453.14
619.786	19774.67
619.981	19350.74
620.176	19588.31
620.371	19363.03
620.566	19614.93
620.761	19287.26
620.956	19506.39
621.151	18779.36
621.346	18851.04
621.541	18642.15
621.735	18801.89
621.93	18642.15
622.125	18707.68
622.32	18361.58
622.515	18627.81
622.709	18328.81
622.904	18162.92
623.099	18214.12
623.294	18236.65
623.488	17628.4
623.683	17845.49
623.878	17702.13
624.072	17534.2
624.267	17710.32
624.462	17517.81
624.656	17353.98
624.851	17157.37
625.046	17413.37
625.24	17087.74
625.435	17018.11
625.629	16932.09
625.824	16995.58
626.018	16819.46
626.213	16719.1
626.407	16647.43
626.602	16436.49
626.796	16332.04
626.991	16485.64
627.185	16194.82
627.38	16385.29
627.574	15811.85
627.768	16020.75
627.963	15807.76
628.157	15813.9
628.352	15770.9
628.546	15555.86
628.74	15598.87
628.935	15422.74
629.129	15445.27
629.323	14857.5
629.517	15170.84
629.712	15242.52
629.906	14824.73
630.1	14863.65
630.294	14955.8
630.489	14859.55
630.683	14742.82
630.877	14525.73
631.071	14572.83
631.265	14376.23
631.459	14396.71
631.653	14495.01
631.848	14429.48
632.042	14083.37
632.236	14069.03
632.43	14118.18
632.624	14116.14
632.818	13976.87
633.012	13833.52
633.206	13468.98
633.4	13806.89
633.594	13466.93
633.788	13690.16
633.982	13501.75
634.176	13593.9
634.369	13516.08
634.563	13180.21
634.757	13229.37
634.951	13315.38
635.145	13149.5
635.339	12903.74
635.533	13114.68
635.726	12873.02
635.92	12934.46
636.114	12539.2
636.308	12768.57
636.501	12561.73
636.695	12705.09
636.889	12459.33
637.083	12414.27
637.276	12227.91
637.47	12109.13
637.664	12164.42
637.857	12262.72
638.051	12012.87
638.244	11937.1
638.438	11904.33
638.632	12094.79
638.825	11685.2
639.019	11582.8
639.212	11595.09
639.406	11529.55
639.599	11543.89
639.793	11644.24
639.986	11320.66
640.18	11359.57
640.373	11416.91
640.567	11232.6
640.76	11162.97
640.954	11162.97
641.147	11169.11
641.34	10917.21
641.534	11052.38
641.727	10943.83
641.92	10820.95
642.114	10591.58
642.307	10663.26
642.5	10597.73
642.694	10644.83
642.887	10413.41
643.08	10700.12
643.273	10646.88
643.467	10458.46
643.66	10151.27
643.853	10399.07
644.046	10147.17
644.239	10208.61
644.432	10007.91
644.626	10005.86
644.819	10095.97
645.012	10046.82
645.205	9794.92
645.398	9938.28
645.591	9788.78
645.784	9674.09
645.977	9657.71
646.17	9616.75
646.363	9375.09
646.556	9526.64
646.749	9438.58
646.942	9534.83
647.135	9256.31
647.328	9414
647.521	9336.18
647.714	9188.72
647.907	9346.42
648.099	9186.68
648.292	9227.64
648.485	9162.1
648.678	9057.65
648.871	9131.38
649.064	8828.28
649.256	8914.3
649.449	8785.27
649.642	8699.26
649.835	8375.68
650.027	8738.17
650.22	8727.93
650.413	8516.99
650.605	8480.13
650.798	8512.89
650.991	8361.34
651.183	8553.85
651.376	8322.43
651.568	8453.5
651.761	8396.16
651.954	8244.61
652.146	8177.03
652.339	8166.79
652.531	8101.25
652.724	8054.15
652.916	7910.79
653.109	7914.89
653.301	7943.56
653.494	7869.83
653.686	7916.94
653.879	7902.6
654.071	7802.25
654.263	7728.52
654.456	7796.11
654.648	7693.71
654.84	7634.32
655.033	7595.4
655.225	7769.48
655.417	7517.58
655.61	7484.81
655.802	7239.06
655.994	7331.22
656.186	7239.06
656.379	7349.65
656.571	7214.48
656.763	7165.33
656.955	7073.17
657.148	7175.57
657.34	7107.99
657.532	7146.9
657.724	7101.84
657.916	6927.77
658.108	6882.71
658.3	6837.66
658.492	6718.87
658.684	6919.57
658.876	6634.91
659.068	6985.11
659.26	6725.02
659.452	6829.46
659.644	6833.56
659.836	6585.76
660.028	6645.15
660.22	6440.35
660.412	6555.04
660.604	6446.49
660.796	6483.36
660.988	6512.03
661.18	6411.68
661.372	6368.67
661.563	6452.64
661.755	6260.13
661.947	6346.14
662.139	6235.55
662.331	6223.27
662.522	6106.53
662.714	6229.41
662.906	6008.23
663.097	6088.1
663.289	6061.48
663.481	5959.08
663.673	5793.19
663.864	5899.69
664.056	5805.48
664.247	5926.31
664.439	5860.77
664.631	5828.01
664.822	5772.71
665.014	5864.87
665.205	5696.94
665.397	5655.98
665.588	5625.26
665.78	5791.14
665.971	5490.09
666.163	5741.99
666.354	5533.1
666.546	5426.61
666.737	5574.06
666.929	5569.96
667.12	5479.85
667.311	5492.14
667.503	5393.84
667.694	5524.91
667.885	5379.5
668.077	5223.86
668.268	5293.49
668.459	5184.94
668.651	5346.73
668.842	5191.09
669.033	5141.94
669.224	5211.57
669.416	5170.61
669.607	5289.39
669.798	5100.98
669.989	5150.13
670.18	5115.31
670.371	4949.43
670.563	4965.81
670.754	4980.15
670.945	4881.85
671.136	4920.76
671.327	4933.04
671.518	4857.27
671.709	4920.76
671.9	5074.35
672.091	4683.19
672.282	4908.47
672.473	4861.37
672.664	4761.02
672.855	4801.97
673.046	4750.78
673.237	4863.41
673.428	4804.02
673.619	4668.86
673.809	4847.03
674	4746.68
674.191	4658.62
674.382	4668.86
674.573	4490.68
674.764	4662.71
674.954	4507.07
675.145	4457.92
675.336	4533.69
675.527	4541.88
675.717	4513.21
675.908	4437.44
676.099	4500.92
676.289	4410.81
676.48	4492.73
676.671	4287.93
676.861	4631.99
677.052	4406.72
677.243	4388.29
677.433	4384.19
677.624	4439.48
677.814	4406.72
678.005	4226.5
678.195	4367.81
678.386	4390.33
678.576	4234.69
678.767	4206.02
678.957	4242.88
679.148	4218.3
679.338	4249.02
679.529	4345.28
679.719	4244.93
679.909	4308.41
680.1	4355.52
680.29	4179.39
680.481	4167.1
680.671	4101.57
680.861	4042.18
681.052	4189.63
681.242	4152.77
681.432	4003.27
681.622	3995.08
681.813	4027.84
682.003	4044.23
682.193	4081.09
682.383	4003.27
682.573	4025.79
682.764	3966.4
682.954	3982.79
683.144	4095.43
683.334	3937.73
683.524	3861.96
683.714	3861.96
683.904	3810.76
684.094	3941.83
684.284	3904.96
684.474	3911.11
684.664	3870.15
684.854	3859.91
685.044	3814.85
685.234	3892.68
685.424	3745.22
685.614	3755.46
685.804	3827.14
685.994	3724.74
686.184	3866.05
686.374	3831.24
686.564	3636.68
686.753	3612.1
686.943	3595.72
687.133	3730.89
687.323	3616.2
687.513	3689.93
687.702	3634.63
687.892	3511.75
688.082	3565
688.272	3675.59
688.461	3487.18
688.651	3483.08
688.841	3495.37
689.03	3452.36
689.22	3478.99
689.41	3532.23
689.599	3513.8
689.789	3444.17
689.979	3462.6
690.168	3474.89
690.358	3395.02
690.547	3413.45
690.737	3454.41
690.926	3425.74
691.116	3349.96
691.305	3405.26
691.495	3245.52
691.684	3276.24
691.874	3259.85
692.063	3222.99
692.252	3208.66
692.442	3227.09
692.631	3220.94
692.82	3198.42
693.01	3184.08
693.199	3212.75
693.388	3157.46
693.578	3145.17
693.767	3173.84
693.956	3192.27
694.146	3059.15
694.335	3124.69
694.524	3073.49
694.713	3118.54
694.902	3071.44
695.092	3050.96
695.281	3130.83
695.47	3114.45
695.659	3100.11
695.848	2915.8
696.037	3167.7
696.226	3108.3
696.415	3044.82
696.604	3083.73
696.793	2962.9
696.982	3061.2
697.171	2987.47
697.36	3081.68
697.549	2948.56
697.738	2971.09
697.927	2897.36
698.116	3028.43
698.305	2981.33
698.494	2880.98
698.683	2897.36
698.872	2981.33
699.061	2995.67
699.25	2942.42
699.438	2977.23
699.627	2885.08
699.816	2958.8
700.005	2864.6
700.193	2946.52
700.382	3044.82
700.571	3018.19
700.76	2969.04
700.948	3071.44
701.137	3071.44
701.326	2977.23
701.514	2909.65
701.703	2971.09
701.892	2944.47
702.08	3003.86
702.269	2899.41
702.457	2905.56
702.646	2946.52
702.834	2938.32
703.023	3012.05
703.212	2942.42
703.4	2966.99
703.589	2858.45
703.777	2915.8
703.965	2915.8
704.154	2907.6
704.342	2938.32
704.531	2930.13
704.719	3010
704.907	2854.36
705.096	2827.73
705.284	2874.84
705.472	2981.33
705.661	2991.57
705.849	2936.28
706.037	2891.22
706.226	2807.25
706.414	2858.45
706.602	2887.12
706.79	2956.75
706.979	2962.9
707.167	2874.84
707.355	2837.97
707.543	2895.32
707.731	2991.57
707.919	2923.99
708.107	2758.1
708.296	2889.17
708.484	2862.55
708.672	2911.7
708.86	2897.36
709.048	2852.31
709.236	2878.93
709.424	2921.94
709.612	2926.04
709.8	2966.99
709.988	2960.85
710.176	2960.85
710.364	2997.71
710.551	2930.13
710.739	2975.19
710.927	2983.38
711.115	2930.13
711.303	2901.46
711.491	2909.65
711.679	2889.17
711.866	2848.21
712.054	2930.13
712.242	2842.07
712.43	2921.94
712.617	2817.49
712.805	2811.35
712.993	2936.28
713.181	2854.36
713.368	2864.6
713.556	2993.62
713.744	2848.21
713.931	3005.91
714.119	2887.12
714.306	2876.88
714.494	2895.32
714.682	2876.88
714.869	2997.71
715.057	2733.53
715.244	2690.52
715.432	2794.97
715.619	2821.59
715.807	2846.16
715.994	2811.35
716.182	2921.94
716.369	2805.21
716.556	2930.13
716.744	2751.96
716.931	2878.93
717.119	2893.27
717.306	2901.46
717.493	2858.45
717.681	2901.46
717.868	2870.74
718.055	2852.31
718.242	2944.47
718.43	2870.74
718.617	2926.04
718.804	2756.05
718.991	2831.83
719.179	2780.63
719.366	2825.68
719.553	2837.97
719.74	2829.78
719.927	2887.12
720.114	2893.27
720.301	2819.54
720.488	2700.76
720.676	2856.4
720.863	2776.53
721.05	2803.16
721.237	2917.84
721.424	2815.45
721.611	2754.01
721.798	2790.87
721.985	2768.34
722.172	2696.66
722.358	2725.33
722.545	2805.21
722.732	2766.29
722.919	2780.63
723.106	2747.86
723.293	2811.35
723.48	2782.68
723.667	2758.1
723.853	2837.97
724.04	2848.21
724.227	2807.25
724.414	2784.73
724.6	2713.05
724.787	2825.68
724.974	2803.16
725.161	2733.53
725.347	2645.46
725.534	2698.71
725.72	2780.63
725.907	2686.42
726.094	2680.28
726.28	2692.57
726.467	2678.23
726.653	2821.59
726.84	2727.38
727.027	2825.68
727.213	2801.11
727.4	2833.88
727.586	2622.94
727.773	2702.81
727.959	2559.45
728.145	2758.1
728.332	2760.15
728.518	2674.14
728.705	2616.79
728.891	2756.05
729.077	2729.43
729.264	2690.52
729.45	2665.94
729.636	2725.33
729.823	2688.47
730.009	2747.86
730.195	2647.51
730.382	2627.03
730.568	2741.72
730.754	2811.35
730.94	2711
731.126	2684.38
731.313	2651.61
731.499	2717.14
731.685	2549.21
731.871	2729.43
732.057	2637.27
732.243	2790.87
732.429	2684.38
732.615	2565.59
732.801	2653.66
732.987	2655.7
733.173	2590.17
733.359	2606.55
733.545	2586.07
733.731	2620.89
733.917	2516.44
734.103	2522.59
734.289	2698.71
734.475	2616.79
734.661	2508.25
734.847	2579.93
735.033	2592.22
735.219	2618.84
735.404	2700.76
735.59	2594.26
735.776	2549.21
735.962	2618.84
736.148	2573.78
736.333	2717.14
736.519	2465.24
736.705	2627.03
736.89	2608.6
737.076	2577.88
737.262	2600.41
737.447	2559.45
737.633	2592.22
737.819	2553.31
738.004	2547.16
738.19	2510.3
738.375	2397.66
738.561	2534.87
738.747	2489.82
738.932	2522.59
739.118	2530.78
739.303	2450.91
739.489	2446.81
739.674	2342.36
739.859	2532.83
740.045	2514.39
740.23	2403.8
740.416	2467.29
740.601	2352.6
740.786	2471.39
740.972	2362.84
741.157	2383.32
741.342	2291.17
741.528	2309.6
741.713	2471.39
741.898	2309.6
742.084	2407.9
742.269	2446.81
742.454	2254.3
742.639	2309.6
742.824	2340.32
743.01	2256.35
743.195	2209.25
743.38	2246.11
743.565	2311.64
743.75	2246.11
743.935	2342.36
744.12	2229.73
744.305	2164.19
744.49	2239.97
744.675	2199.01
744.86	2090.46
745.045	2196.96
745.23	2221.53
745.415	2221.53
745.6	2199.01
745.785	2076.13
745.97	2192.86
746.155	2047.46
746.34	2102.75
746.525	2026.98
746.71	1973.73
746.895	2045.41
747.079	2018.79
747.264	2061.79
747.449	1979.87
747.634	2106.85
747.819	2037.22
748.003	2051.55
748.188	1996.26
748.373	2022.88
748.557	2026.98
748.742	1916.39
748.927	1871.33
749.111	1830.37
749.296	1957.35
749.481	1906.15
749.665	1918.43
749.85	1934.82
750.034	1873.38
750.219	1885.67
750.404	1852.9
750.588	1877.48
750.773	1797.6
750.957	1758.69
751.141	1813.99
751.326	1799.65
751.51	1713.64
751.695	1799.65
751.879	1736.17
752.064	1766.89
752.248	1824.23
752.432	1682.92
752.617	1662.44
752.801	1658.34
752.985	1695.21
753.17	1662.44
753.354	1662.44
753.538	1637.86
753.722	1598.95
753.907	1553.9
754.091	1545.7
754.275	1580.52
754.459	1537.51
754.643	1601
754.828	1560.04
755.012	1553.9
755.196	1557.99
755.38	1480.17
755.564	1367.53
755.748	1437.16
755.932	1381.87
756.116	1484.27
756.3	1449.45
756.484	1523.18
756.668	1433.07
756.852	1394.15
757.036	1420.78
757.22	1420.78
757.404	1398.25
757.588	1492.46
757.772	1416.68
757.956	1420.78
758.14	1484.27
758.323	1474.03
758.507	1459.69
758.691	1289.71
758.875	1240.56
759.059	1340.91
759.242	1304.04
759.426	1398.25
759.61	1273.32
759.794	1383.91
759.977	1332.72
760.161	1330.67
760.345	1275.37
760.528	1349.1
760.712	1211.89
760.895	1220.08
761.079	1193.45
761.263	1125.87
761.446	1189.36
761.63	1291.76
761.813	1181.17
761.997	1263.08
762.18	1271.28
762.364	1111.54
762.547	1140.21
762.731	1215.98
762.914	1046
763.098	1109.49
763.281	1084.91
763.464	1150.45
763.648	1119.73
763.831	1101.3
764.015	1172.97
764.198	1172.97
764.381	1119.73
764.564	1146.35
764.748	1101.3
764.931	1125.87
765.114	1099.25
765.297	1107.44
765.481	1111.54
765.664	1105.39
765.847	1093.1
766.03	1119.73
766.213	1132.01
766.397	1189.36
766.58	1039.86
766.763	1136.11
766.946	947.7
767.129	1002.99
767.312	1060.34
767.495	1021.42
767.678	953.84
767.861	1093.1
768.044	962.03
768.227	1019.38
768.41	953.84
768.593	1037.81
768.776	1039.86
768.959	996.85
769.142	1013.23
769.324	1062.38
769.507	955.89
769.69	933.36
769.873	964.08
770.056	1019.38
770.239	1048.05
770.421	1058.29
770.604	884.21
770.787	933.36
770.97	939.51
771.152	878.07
771.335	996.85
771.518	937.46
771.7	990.7
771.883	964.08
772.066	914.93
772.248	843.25
772.431	992.75
772.613	923.12
772.796	767.48
772.978	861.68
773.161	962.03
773.343	835.06
773.526	857.59
773.708	865.78
773.891	808.44
774.073	787.96
774.256	839.16
774.438	931.31
774.621	896.5
774.803	859.63
774.985	775.67
775.168	747
775.35	773.62
775.532	796.15
775.715	826.87
775.897	869.87
776.079	736.76
776.261	761.33
776.444	798.2
776.626	810.48
776.808	777.72
776.99	703.99
777.173	761.33
777.355	794.1
777.537	769.52
777.719	720.37
777.901	863.73
778.083	677.37
778.265	634.36
778.447	683.51
778.629	738.8
778.811	712.18
778.993	724.47
779.175	710.13
779.357	652.79
779.539	677.37
779.721	572.92
779.903	716.28
780.085	581.11
780.267	734.71
780.449	671.22
780.631	712.18
780.812	660.98
780.994	628.21
781.176	615.93
781.358	656.89
781.54	583.16
781.721	648.69
781.903	673.27
782.085	491
782.267	521.72
782.448	652.79
782.63	652.79
782.812	540.15
782.993	613.88
783.175	556.54
783.357	456.19
783.538	620.02
783.72	593.4
783.901	515.58
784.083	562.68
784.264	529.91
784.446	527.86
784.627	540.15
784.809	601.59
784.99	515.58
785.172	493.05
785.353	460.28
785.535	515.58
785.716	501.24
785.897	484.86
786.079	531.96
786.26	474.62
786.441	540.15
786.623	529.91
786.804	470.52
786.985	478.71
787.167	417.27
787.348	515.58
787.529	425.47
787.71	521.72
787.891	505.34
788.073	470.52
788.254	378.36
788.435	505.34
788.616	439.8
788.797	515.58
788.978	441.85
789.159	423.42
789.34	421.37
789.522	398.84
789.703	439.8
789.884	452.09
790.065	423.42
790.246	419.32
790.427	425.47
790.607	509.43
790.788	437.75
790.969	361.98
791.15	447.99
791.331	380.41
791.512	327.16
791.693	359.93
791.874	441.85
792.054	337.4
792.235	384.51
792.416	392.7
792.597	321.02
792.778	361.98
792.958	374.27
793.139	355.83
793.32	378.36
793.5	374.27
793.681	355.83
793.862	341.5
794.042	347.64
794.223	257.53
794.404	327.16
794.584	314.88
794.765	259.58
794.945	329.21
795.126	384.51
795.306	347.64
795.487	302.59
795.667	345.59
795.848	392.7
796.028	357.88
796.209	298.49
796.389	286.2
796.57	288.25
796.75	308.73
796.93	284.16
797.111	349.69
797.291	306.68
797.471	271.87
797.652	294.4
797.832	218.62
798.012	333.31
798.192	269.82
798.373	292.35
798.553	290.3
798.733	310.78
798.913	323.07
799.093	361.98
799.274	275.96
799.454	310.78
799.634	243.2
799.814	331.26
799.994	323.07
800.174	185.85
800.354	400.89
800.534	232.96
800.714	294.4
800.894	228.86
801.074	185.85
801.254	267.77
801.434	298.49
801.614	321.02
801.794	335.35
801.974	687.61
802.154	257.53
802.334	304.64
802.514	278.01
802.693	216.57
802.873	196.09
803.053	327.16
803.233	192
803.413	306.68
803.592	235
803.772	259.58
803.952	249.34
804.131	194.05
804.311	296.44
804.491	239.1
804.67	290.3
804.85	249.34
805.03	239.1
805.209	259.58
805.389	204.28
805.568	241.15
805.748	161.28
805.928	232.96
806.107	237.05
806.287	196.09
806.466	210.43
806.646	208.38
806.825	278.01
807.004	179.71
807.184	230.91
807.363	194.05
807.543	226.81
807.722	228.86
807.901	189.95
808.081	212.48
808.26	169.47
808.439	192
808.619	163.33
808.798	226.81
808.977	169.47
809.156	251.39
809.336	194.05
809.515	177.66
809.694	130.56
809.873	265.72
810.052	185.85
810.231	126.46
810.411	189.95
810.59	189.95
810.769	167.42
810.948	208.38
811.127	83.45
811.306	284.16
811.485	253.44
811.664	192
811.843	265.72
812.022	146.94
812.201	185.85
812.38	185.85
812.559	198.14
812.737	169.47
812.916	146.94
813.095	194.05
813.274	255.48
813.453	214.52
813.632	212.48
813.811	224.76
813.989	105.98
814.168	153.09
814.347	173.57
814.526	189.95
814.704	232.96
814.883	210.43
815.062	165.37
815.24	194.05
815.419	114.17
815.598	110.08
815.776	118.27
815.955	214.52
816.133	148.99
816.312	196.09
816.49	155.13
816.669	220.67
816.847	89.6
817.026	103.93
817.204	163.33
817.383	146.94
817.561	202.24
817.74	194.05
817.918	108.03
818.097	146.94
818.275	114.17
818.453	136.7
818.632	196.09
818.81	120.32
818.988	165.37
819.167	179.71
819.345	153.09
819.523	58.88
819.701	120.32
819.879	249.34
820.058	189.95
820.236	105.98
820.414	93.69
820.592	105.98
820.77	151.04
820.948	128.51
821.127	173.57
821.305	140.8
821.483	142.85
821.661	89.6
821.839	91.65
822.017	151.04
822.195	173.57
822.373	91.65
822.551	91.65
822.729	181.76
822.907	132.61
823.085	165.37
823.262	161.28
823.44	118.27
823.618	95.74
823.796	118.27
823.974	99.84
824.152	146.94
824.329	163.33
824.507	136.7
824.685	110.08
824.863	169.47
825.04	155.13
825.218	161.28
825.396	105.98
825.574	93.69
825.751	81.41
825.929	140.8
826.107	108.03
826.284	95.74
826.462	32.26
826.639	26.11
826.817	144.89
826.994	177.66
827.172	118.27
827.349	159.23
827.527	136.7
827.704	124.41
827.882	177.66
828.059	110.08
828.237	151.04
828.414	108.03
828.591	42.5
828.769	65.02
828.946	40.45
829.124	87.55
829.301	128.51
829.478	58.88
829.655	73.21
829.833	118.27
830.01	22.02
830.187	95.74
830.364	112.13
830.542	122.37
830.719	177.66
830.896	103.93
831.073	122.37
831.25	116.22
831.427	83.45
831.604	52.74
831.782	126.46
831.959	50.69
832.136	83.45
832.313	93.69
832.49	38.4
832.667	91.65
832.844	128.51
833.021	173.57
833.198	62.98
833.374	28.16
833.551	89.6
833.728	91.65
833.905	75.26
834.082	79.36
834.259	71.17
834.436	122.37
834.612	30.21
834.789	73.21
834.966	5.63
835.143	50.69
835.319	69.12
835.496	32.26
835.673	97.79
835.85	71.17
836.026	118.27
836.203	112.13
836.38	26.11
836.556	44.54
836.733	67.07
836.909	73.21
837.086	99.84
837.262	50.69
837.439	91.65
837.616	85.5
837.792	44.54
837.968	85.5
838.145	112.13
838.321	89.6
838.498	54.78
838.674	126.46
838.851	46.59
839.027	83.45
839.203	65.02
839.38	85.5
839.556	65.02
839.732	110.08
839.909	56.83
840.085	11.78
840.261	73.21
840.437	85.5
840.614	112.13
840.79	103.93
840.966	91.65
841.142	58.88
841.318	93.69
841.494	52.74
841.671	73.21
841.847	19.97
842.023	101.89
842.199	38.4
842.375	91.65
842.551	99.84
842.727	46.59
842.903	24.06
843.079	83.45
843.255	112.13
843.431	65.02
843.607	118.27
843.783	52.74
843.959	56.83
844.134	36.35
844.31	71.17
844.486	62.98
844.662	-0.51
844.838	48.64
845.013	62.98
845.189	161.28
845.365	93.69
845.541	95.74
845.716	116.22
845.892	62.98
846.068	30.21
846.244	-2.56
846.419	122.37
846.595	101.89
846.77	30.21
846.946	89.6
847.122	17.92
847.297	187.9
847.473	151.04
847.648	-23.04
847.824	73.21
847.999	46.59
848.175	54.78
848.35	105.98
848.526	77.31
848.701	46.59
848.876	77.31
849.052	65.02
849.227	89.6
849.403	83.45
849.578	30.21
849.753	77.31
849.929	32.26
850.104	19.97
850.279	56.83
850.454	75.26
850.63	50.69
850.805	103.93
850.98	36.35
851.155	54.78
851.33	28.16
851.505	60.93
851.681	93.69
851.856	26.11
852.031	42.5
852.206	22.02
852.381	19.97
852.556	75.26
852.731	85.5
852.906	46.59
853.081	108.03
853.256	46.59
853.431	50.69
853.606	-6.66
853.781	-4.61
853.956	7.68
854.131	67.07
854.305	69.12
854.48	36.35
854.655	44.54
854.83	26.11
855.005	85.5
855.18	91.65
855.354	69.12
855.529	44.54
855.704	38.4
855.879	60.93
856.053	9.73
856.228	87.55
856.403	73.21
856.577	118.27
856.752	11.78
856.926	24.06
857.101	28.16
857.276	-0.51
857.45	58.88
857.625	28.16
857.799	32.26
857.974	22.02
858.148	34.3
858.323	75.26
858.497	17.92
858.672	-8.7
858.846	60.93
859.02	-4.61
859.195	-51.71
859.369	19.97
859.543	58.88
859.718	44.54
859.892	85.5
860.066	95.74
860.241	71.17
860.415	73.21
860.589	50.69
860.763	30.21
860.938	9.73
861.112	62.98
861.286	42.5
861.46	85.5
861.634	32.26
861.808	87.55
861.982	28.16
862.157	13.82
862.331	22.02
862.505	-80.38
862.679	38.4
862.853	-12.8
863.027	56.83
863.201	36.35
863.375	58.88
863.549	48.64
863.722	28.16
863.896	52.74
864.07	48.64
864.244	-12.8
864.418	3.58
864.592	5.63
864.766	58.88
864.939	-84.48
865.113	38.4
865.287	77.31
865.461	-16.9
865.634	26.11
865.808	-0.51
865.982	42.5
866.156	71.17
866.329	-4.61
866.503	-23.04
866.676	122.37
866.85	-61.95
867.024	99.84
867.197	-2.56
867.371	-20.99
867.544	17.92
867.718	36.35
867.891	13.82
868.065	67.07
868.238	28.16
868.412	67.07
868.585	-18.94
868.759	71.17
868.932	9.73
869.105	79.36
869.279	3.58
869.452	11.78
869.625	91.65
869.799	93.69
869.972	48.64
870.145	-6.66
870.319	110.08
870.492	1.54
870.665	77.31
870.838	7.68
871.011	-0.51
871.185	54.78
871.358	13.82
871.531	34.3
871.704	19.97
871.877	79.36
872.05	38.4
872.223	1.54
872.396	22.02
872.569	19.97
872.742	3.58
872.915	75.26
873.088	19.97
873.261	-23.04
873.434	-20.99
873.607	26.11
873.78	44.54
873.953	69.12
874.126	54.78
874.299	28.16
874.471	46.59
874.644	71.17
874.817	28.16
874.99	79.36
875.163	9.73
875.335	65.02
875.508	28.16
875.681	75.26
875.853	1.54
876.026	22.02
876.199	50.69
876.371	42.5
876.544	5.63
876.717	50.69
876.889	24.06
877.062	5.63
877.234	46.59
877.407	32.26
877.579	-29.18
877.752	32.26
877.924	34.3
878.097	19.97
878.269	56.83
878.442	-16.9
878.614	-0.51
878.786	56.83
878.959	26.11
879.131	87.55
879.303	40.45
879.476	50.69
879.648	17.92
879.82	30.21
879.993	46.59
880.165	65.02
880.337	-33.28
880.509	15.87
880.681	56.83
880.854	15.87
881.026	110.08
881.198	71.17
881.37	-10.75
881.542	1.54
881.714	9.73
881.886	34.3
882.058	-20.99
882.23	44.54
882.402	13.82
882.574	19.97
882.746	22.02
882.918	19.97
883.09	36.35
883.262	24.06
883.434	-12.8
883.606	-47.62
883.778	19.97
883.95	50.69
884.122	-39.42
884.293	50.69
884.465	-0.51
884.637	1.54
884.809	-0.51
884.98	60.93
885.152	50.69
885.324	52.74
885.496	-8.7
885.667	30.21
885.839	19.97
886.011	15.87
886.182	11.78
886.354	-57.86
886.525	54.78
886.697	48.64
886.869	-0.51
887.04	73.21
887.212	7.68
887.383	93.69
887.555	-0.51
887.726	15.87
887.897	-37.38
888.069	34.3
888.24	30.21
888.412	-8.7
888.583	-16.9
888.754	3.58
888.926	-18.94
889.097	34.3
889.268	19.97
889.44	-4.61
889.611	-47.62
889.782	-8.7
889.953	-45.57
890.125	30.21
890.296	22.02
890.467	-10.75
890.638	-14.85
890.809	124.41
890.98	-37.38
891.151	17.92
891.323	87.55
891.494	36.35
891.665	46.59
891.836	30.21
892.007	-6.66
892.178	11.78
892.349	9.73
892.52	-12.8
892.691	26.11
892.862	-6.66
893.032	11.78
893.203	60.93
893.374	-8.7
893.545	1.54
893.716	69.12
893.887	17.92
894.057	3.58
894.228	9.73
894.399	1.54
894.57	9.73
894.74	5.63
894.911	-16.9
895.082	17.92
895.253	-12.8
895.423	-20.99
895.594	17.92
895.764	26.11
895.935	-35.33
896.106	36.35
896.276	-29.18
896.447	3.58
896.617	-16.9
896.788	-29.18
896.958	-10.75
897.129	26.11
897.299	46.59
897.47	36.35
897.64	108.03
897.81	-6.66
897.981	52.74
898.151	-84.48
898.322	75.26
898.492	-10.75
898.662	19.97
898.832	-10.75
899.003	11.78
899.173	19.97
899.343	19.97
899.513	13.82
