Data from USB4F104151__86__12-02-30-684.txt Node

Date: Fri Mar 14 12:02:30 EDT 2025
User: louis
Spectrometer: USB4F10415
Trigger mode: 4
Integration Time (sec): 2.000000E-2
Scans to average: 1
Electric dark correction enabled: true
Nonlinearity correction enabled: false
Boxcar width: 0
XAxis mode: Wavelengths
Number of Pixels in Spectrum: 3648
>>>>>Begin Spectral Data<<<<<
178.204	-34.13
178.424	-34.13
178.644	-34.13
178.864	-146.77
179.084	-27.99
179.304	-50.52
179.524	-19.8
179.744	19.11
179.964	51.88
180.184	-3.41
180.404	78.51
180.624	10.92
180.844	-30.04
181.064	31.4
181.283	-9.56
181.503	-38.23
181.723	-40.28
181.943	-50.52
182.163	62.12
182.383	76.46
182.602	39.59
182.822	62.12
183.042	70.31
183.262	49.83
183.482	115.37
183.701	41.64
183.921	-5.46
184.141	-23.89
184.361	15.02
184.58	-21.85
184.8	96.94
185.02	10.92
185.239	25.26
185.459	12.97
185.679	98.99
185.898	-32.08
186.118	58.03
186.338	58.03
186.557	53.93
186.777	-13.65
186.997	-19.8
187.216	-7.51
187.436	133.8
187.655	8.87
187.875	123.56
188.095	-5.46
188.314	-44.37
188.534	35.5
188.753	-9.56
188.973	27.31
189.192	66.22
189.412	17.07
189.631	51.88
189.851	33.45
190.07	64.17
190.29	-23.89
190.509	-15.7
190.729	17.07
190.948	12.97
191.168	86.7
191.387	98.99
191.607	55.98
191.826	41.64
192.045	8.87
192.265	-17.75
192.484	2.73
192.704	-17.75
192.923	-15.7
193.142	70.31
193.362	33.45
193.581	88.75
193.8	29.35
194.02	55.98
194.239	23.21
194.458	-13.65
194.678	-9.56
194.897	39.59
195.116	21.16
195.335	53.93
195.555	55.98
195.774	-3.41
195.993	25.26
196.212	27.31
196.432	39.59
196.651	19.11
196.87	41.64
197.089	96.94
197.308	72.36
197.528	51.88
197.747	19.11
197.966	51.88
198.185	53.93
198.404	39.59
198.623	64.17
198.842	25.26
199.062	62.12
199.281	139.94
199.5	82.6
199.719	55.98
199.938	68.27
200.157	113.32
200.376	88.75
200.595	25.26
200.814	66.22
201.033	10.92
201.252	51.88
201.471	70.31
201.69	68.27
201.909	51.88
202.128	33.45
202.347	55.98
202.566	-11.61
202.785	-52.56
203.004	0.68
203.223	84.65
203.442	-5.46
203.661	-30.04
203.879	15.02
204.098	35.5
204.317	21.16
204.536	43.69
204.755	6.83
204.974	43.69
205.193	66.22
205.411	43.69
205.63	33.45
205.849	-27.99
206.068	-3.41
206.287	-1.37
206.505	10.92
206.724	88.75
206.943	31.4
207.162	17.07
207.381	-11.61
207.599	-62.8
207.818	62.12
208.037	55.98
208.255	96.94
208.474	123.56
208.693	64.17
208.911	78.51
209.13	60.07
209.349	17.07
209.567	15.02
209.786	74.41
210.005	17.07
210.223	53.93
210.442	35.5
210.661	21.16
210.879	27.31
211.098	117.42
211.316	-27.99
211.535	62.12
211.753	2.73
211.972	92.84
212.191	4.78
212.409	39.59
212.628	-23.89
212.846	29.35
213.065	41.64
213.283	35.5
213.502	74.41
213.72	-25.94
213.938	55.98
214.157	29.35
214.375	31.4
214.594	-25.94
214.812	98.99
215.031	86.7
215.249	55.98
215.467	33.45
215.686	31.4
215.904	6.83
216.122	4.78
216.341	37.55
216.559	6.83
216.778	25.26
216.996	37.55
217.214	23.21
217.432	-11.61
217.651	-3.41
217.869	51.88
218.087	43.69
218.306	27.31
218.524	82.6
218.742	-17.75
218.96	78.51
219.179	55.98
219.397	21.16
219.615	41.64
219.833	86.7
220.051	19.11
220.27	23.21
220.488	62.12
220.706	41.64
220.924	19.11
221.142	-9.56
221.36	23.21
221.578	39.59
221.796	21.16
222.015	39.59
222.233	70.31
222.451	51.88
222.669	15.02
222.887	53.93
223.105	-19.8
223.323	55.98
223.541	-9.56
223.759	4.78
223.977	10.92
224.195	37.55
224.413	74.41
224.631	23.21
224.849	25.26
225.067	76.46
225.285	21.16
225.503	6.83
225.721	-13.65
225.939	27.31
226.157	55.98
226.375	29.35
226.592	66.22
226.81	17.07
227.028	64.17
227.246	96.94
227.464	41.64
227.682	51.88
227.9	27.31
228.117	58.03
228.335	2.73
228.553	0.68
228.771	4.78
228.989	21.16
229.206	70.31
229.424	15.02
229.642	12.97
229.86	6.83
230.077	88.75
230.295	103.08
230.513	-19.8
230.731	68.27
230.948	17.07
231.166	0.68
231.384	0.68
231.601	43.69
231.819	62.12
232.037	35.5
232.254	19.11
232.472	17.07
232.689	29.35
232.907	137.9
233.125	15.02
233.342	74.41
233.56	88.75
233.777	31.4
233.995	51.88
234.213	55.98
234.43	-3.41
234.648	60.07
234.865	45.74
235.083	37.55
235.3	66.22
235.518	-34.13
235.735	96.94
235.953	90.79
236.17	27.31
236.388	23.21
236.605	-30.04
236.822	96.94
237.04	66.22
237.257	92.84
237.475	-19.8
237.692	53.93
237.909	39.59
238.127	66.22
238.344	45.74
238.562	55.98
238.779	-17.75
238.996	47.79
239.214	17.07
239.431	45.74
239.648	49.83
239.865	64.17
240.083	-25.94
240.3	156.33
240.517	-58.71
240.735	33.45
240.952	-5.46
241.169	33.45
241.386	-15.7
241.603	109.23
241.821	-36.18
242.038	68.27
242.255	47.79
242.472	78.51
242.689	27.31
242.907	4.78
243.124	17.07
243.341	-54.61
243.558	19.11
243.775	0.68
243.992	-17.75
244.209	53.93
244.426	98.99
244.643	113.32
244.86	-11.61
245.078	41.64
245.295	29.35
245.512	62.12
245.729	-3.41
245.946	113.32
246.163	45.74
246.38	49.83
246.597	39.59
246.814	17.07
247.031	53.93
247.248	35.5
247.464	-38.23
247.681	-34.13
247.898	12.97
248.115	45.74
248.332	2.73
248.549	53.93
248.766	37.55
248.983	68.27
249.2	12.97
249.417	80.55
249.633	-44.37
249.85	115.37
250.067	84.65
250.284	82.6
250.501	39.59
250.717	78.51
250.934	27.31
251.151	62.12
251.368	55.98
251.585	8.87
251.801	29.35
252.018	47.79
252.235	8.87
252.451	29.35
252.668	-7.51
252.885	47.79
253.102	21.16
253.318	19.11
253.535	-60.76
253.752	-30.04
253.968	0.68
254.185	47.79
254.401	43.69
254.618	43.69
254.835	55.98
255.051	109.23
255.268	80.55
255.484	17.07
255.701	15.02
255.917	2.73
256.134	53.93
256.351	39.59
256.567	19.11
256.784	6.83
257	-89.43
257.217	53.93
257.433	41.64
257.65	31.4
257.866	84.65
258.082	94.89
258.299	60.07
258.515	66.22
258.732	15.02
258.948	33.45
259.165	-21.85
259.381	37.55
259.597	66.22
259.814	49.83
260.03	-21.85
260.246	31.4
260.463	-23.89
260.679	55.98
260.895	78.51
261.112	84.65
261.328	8.87
261.544	-15.7
261.761	101.03
261.977	62.12
262.193	6.83
262.409	92.84
262.626	51.88
262.842	41.64
263.058	43.69
263.274	62.12
263.49	27.31
263.707	82.6
263.923	111.27
264.139	-1.37
264.355	33.45
264.571	4.78
264.787	27.31
265.004	64.17
265.22	49.83
265.436	92.84
265.652	49.83
265.868	62.12
266.084	-40.28
266.3	6.83
266.516	41.64
266.732	60.07
266.948	41.64
267.164	17.07
267.38	86.7
267.596	58.03
267.812	39.59
268.028	45.74
268.244	66.22
268.46	72.36
268.676	-3.41
268.892	66.22
269.108	86.7
269.324	66.22
269.54	-5.46
269.756	47.79
269.972	-7.51
270.188	31.4
270.403	-66.9
270.619	80.55
270.835	-64.85
271.051	19.11
271.267	33.45
271.483	-36.18
271.698	23.21
271.914	90.79
272.13	17.07
272.346	47.79
272.562	60.07
272.777	82.6
272.993	35.5
273.209	10.92
273.425	15.02
273.64	62.12
273.856	53.93
274.072	33.45
274.287	2.73
274.503	117.42
274.719	-30.04
274.934	70.31
275.15	-46.42
275.366	23.21
275.581	-5.46
275.797	62.12
276.012	60.07
276.228	6.83
276.444	8.87
276.659	49.83
276.875	8.87
277.09	94.89
277.306	39.59
277.521	72.36
277.737	23.21
277.952	53.93
278.168	-11.61
278.383	115.37
278.599	39.59
278.814	-32.08
279.03	25.26
279.245	115.37
279.461	86.7
279.676	29.35
279.892	74.41
280.107	33.45
280.322	15.02
280.538	51.88
280.753	29.35
280.969	72.36
281.184	-15.7
281.399	94.89
281.615	29.35
281.83	80.55
282.045	62.12
282.26	90.79
282.476	90.79
282.691	55.98
282.906	10.92
283.122	33.45
283.337	-17.75
283.552	66.22
283.767	-15.7
283.983	55.98
284.198	49.83
284.413	-3.41
284.628	15.02
284.843	53.93
285.058	68.27
285.274	-21.85
285.489	0.68
285.704	66.22
285.919	37.55
286.134	43.69
286.349	-25.94
286.564	25.26
286.779	31.4
286.995	10.92
287.21	-19.8
287.425	41.64
287.64	-3.41
287.855	17.07
288.07	-9.56
288.285	4.78
288.5	49.83
288.715	-5.46
288.93	78.51
289.145	80.55
289.36	123.56
289.575	113.32
289.79	80.55
290.004	72.36
290.219	92.84
290.434	31.4
290.649	-36.18
290.864	-5.46
291.079	78.51
291.294	-3.41
291.509	90.79
291.724	64.17
291.938	17.07
292.153	23.21
292.368	35.5
292.583	45.74
292.798	-17.75
293.012	113.32
293.227	62.12
293.442	74.41
293.657	10.92
293.871	66.22
294.086	82.6
294.301	103.08
294.516	103.08
294.73	-3.41
294.945	8.87
295.16	29.35
295.374	127.66
295.589	103.08
295.804	51.88
296.018	-48.47
296.233	55.98
296.447	64.17
296.662	58.03
296.877	105.13
297.091	105.13
297.306	98.99
297.52	27.31
297.735	162.47
297.949	58.03
298.164	131.75
298.378	47.79
298.593	41.64
298.807	55.98
299.022	-5.46
299.236	107.18
299.451	64.17
299.665	41.64
299.88	47.79
300.094	23.21
300.309	53.93
300.523	39.59
300.737	19.11
300.952	84.65
301.166	68.27
301.381	4.78
301.595	21.16
301.809	101.03
302.024	12.97
302.238	19.11
302.452	72.36
302.667	60.07
302.881	146.09
303.095	6.83
303.309	35.5
303.524	2.73
303.738	-11.61
303.952	0.68
304.166	55.98
304.381	51.88
304.595	139.94
304.809	-11.61
305.023	19.11
305.237	68.27
305.452	66.22
305.666	60.07
305.88	92.84
306.094	39.59
306.308	51.88
306.522	37.55
306.736	2.73
306.95	62.12
307.164	88.75
307.379	68.27
307.593	10.92
307.807	115.37
308.021	80.55
308.235	121.51
308.449	-11.61
308.663	-32.08
308.877	70.31
309.091	51.88
309.305	60.07
309.519	17.07
309.733	84.65
309.947	39.59
310.161	66.22
310.374	23.21
310.588	8.87
310.802	90.79
311.016	43.69
311.23	109.23
311.444	78.51
311.658	29.35
311.872	70.31
312.085	45.74
312.299	39.59
312.513	41.64
312.727	35.5
312.941	12.97
313.154	41.64
313.368	96.94
313.582	17.07
313.796	74.41
314.009	43.69
314.223	90.79
314.437	41.64
314.651	78.51
314.864	39.59
315.078	17.07
315.292	96.94
315.505	-9.56
315.719	43.69
315.933	74.41
316.146	64.17
316.36	82.6
316.573	27.31
316.787	131.75
317.001	94.89
317.214	49.83
317.428	49.83
317.641	55.98
317.855	78.51
318.068	72.36
318.282	21.16
318.495	78.51
318.709	39.59
318.922	-13.65
319.136	66.22
319.349	15.02
319.563	-30.04
319.776	72.36
319.99	12.97
320.203	27.31
320.417	23.21
320.63	-19.8
320.843	53.93
321.057	10.92
321.27	64.17
321.483	49.83
321.697	107.18
321.91	8.87
322.124	74.41
322.337	31.4
322.55	133.8
322.763	96.94
322.977	78.51
323.19	12.97
323.403	88.75
323.617	64.17
323.83	43.69
324.043	39.59
324.256	25.26
324.469	21.16
324.683	31.4
324.896	10.92
325.109	-23.89
325.322	41.64
325.535	148.14
325.748	135.85
325.962	78.51
326.175	78.51
326.388	60.07
326.601	68.27
326.814	35.5
327.027	58.03
327.24	109.23
327.453	35.5
327.666	96.94
327.879	103.08
328.092	115.37
328.305	31.4
328.518	109.23
328.731	25.26
328.944	41.64
329.157	39.59
329.37	51.88
329.583	76.46
329.796	113.32
330.009	74.41
330.222	33.45
330.435	41.64
330.648	105.13
330.861	51.88
331.073	72.36
331.286	109.23
331.499	31.4
331.712	66.22
331.925	41.64
332.138	-44.37
332.35	94.89
332.563	-7.51
332.776	0.68
332.989	-15.7
333.202	72.36
333.414	55.98
333.627	84.65
333.84	94.89
334.053	21.16
334.265	43.69
334.478	-52.56
334.691	80.55
334.903	64.17
335.116	4.78
335.329	-5.46
335.541	53.93
335.754	92.84
335.966	10.92
336.179	33.45
336.392	-23.89
336.604	109.23
336.817	64.17
337.029	150.18
337.242	47.79
337.454	90.79
337.667	-17.75
337.88	127.66
338.092	55.98
338.305	15.02
338.517	33.45
338.729	107.18
338.942	51.88
339.154	-7.51
339.367	53.93
339.579	41.64
339.792	2.73
340.004	47.79
340.217	43.69
340.429	66.22
340.641	47.79
340.854	2.73
341.066	27.31
341.278	80.55
341.491	70.31
341.703	68.27
341.915	76.46
342.128	68.27
342.34	12.97
342.552	23.21
342.764	29.35
342.977	33.45
343.189	35.5
343.401	58.03
343.613	43.69
343.826	74.41
344.038	25.26
344.25	78.51
344.462	80.55
344.674	68.27
344.886	103.08
345.099	29.35
345.311	64.17
345.523	68.27
345.735	88.75
345.947	103.08
346.159	62.12
346.371	125.61
346.583	41.64
346.795	29.35
347.007	35.5
347.219	-15.7
347.431	37.55
347.643	123.56
347.855	39.59
348.067	37.55
348.279	72.36
348.491	-32.08
348.703	53.93
348.915	-15.7
349.127	41.64
349.339	92.84
349.551	29.35
349.763	47.79
349.975	109.23
350.187	123.56
350.399	111.27
350.61	74.41
350.822	92.84
351.034	43.69
351.246	47.79
351.458	66.22
351.669	8.87
351.881	19.11
352.093	19.11
352.305	35.5
352.517	76.46
352.728	72.36
352.94	98.99
353.152	31.4
353.363	160.42
353.575	92.84
353.787	88.75
353.999	84.65
354.21	33.45
354.422	125.61
354.633	88.75
354.845	47.79
355.057	64.17
355.268	68.27
355.48	2.73
355.692	25.26
355.903	53.93
356.115	105.13
356.326	76.46
356.538	31.4
356.749	129.7
356.961	10.92
357.172	125.61
357.384	82.6
357.595	17.07
357.807	43.69
358.018	41.64
358.23	84.65
358.441	117.42
358.653	88.75
358.864	41.64
359.075	66.22
359.287	64.17
359.498	64.17
359.709	68.27
359.921	82.6
360.132	10.92
360.344	-27.99
360.555	15.02
360.766	31.4
360.977	72.36
361.189	45.74
361.4	15.02
361.611	94.89
361.823	117.42
362.034	90.79
362.245	27.31
362.456	60.07
362.667	74.41
362.879	82.6
363.09	43.69
363.301	49.83
363.512	80.55
363.723	53.93
363.935	45.74
364.146	148.14
364.357	-36.18
364.568	107.18
364.779	55.98
364.99	78.51
365.201	43.69
365.412	84.65
365.623	17.07
365.834	27.31
366.045	72.36
366.256	125.61
366.467	94.89
366.678	-11.61
366.889	51.88
367.1	39.59
367.311	107.18
367.522	72.36
367.733	49.83
367.944	41.64
368.155	90.79
368.366	39.59
368.577	12.97
368.788	127.66
368.999	66.22
369.209	84.65
369.42	127.66
369.631	162.47
369.842	82.6
370.053	86.7
370.264	72.36
370.474	60.07
370.685	101.03
370.896	82.6
371.107	76.46
371.317	55.98
371.528	-32.08
371.739	78.51
371.95	53.93
372.16	66.22
372.371	35.5
372.582	109.23
372.792	133.8
373.003	58.03
373.214	51.88
373.424	88.75
373.635	23.21
373.846	144.04
374.056	17.07
374.267	82.6
374.477	25.26
374.688	80.55
374.898	58.03
375.109	66.22
375.319	33.45
375.53	103.08
375.74	162.47
375.951	78.51
376.161	107.18
376.372	84.65
376.582	6.83
376.793	74.41
377.003	78.51
377.214	101.03
377.424	109.23
377.635	-7.51
377.845	58.03
378.055	55.98
378.266	49.83
378.476	23.21
378.686	45.74
378.897	82.6
379.107	158.38
379.317	64.17
379.528	88.75
379.738	113.32
379.948	23.21
380.158	150.18
380.369	49.83
380.579	94.89
380.789	53.93
380.999	94.89
381.21	31.4
381.42	123.56
381.63	90.79
381.84	51.88
382.05	10.92
382.261	111.27
382.471	33.45
382.681	101.03
382.891	68.27
383.101	78.51
383.311	31.4
383.521	129.7
383.731	119.46
383.941	82.6
384.151	90.79
384.361	74.41
384.571	141.99
384.781	109.23
384.991	98.99
385.201	86.7
385.411	8.87
385.621	98.99
385.831	103.08
386.041	90.79
386.251	129.7
386.461	82.6
386.671	58.03
386.881	88.75
387.091	29.35
387.301	103.08
387.511	33.45
387.72	141.99
387.93	113.32
388.14	41.64
388.35	82.6
388.56	96.94
388.769	96.94
388.979	109.23
389.189	45.74
389.399	146.09
389.609	58.03
389.818	58.03
390.028	94.89
390.238	139.94
390.447	60.07
390.657	19.11
390.867	107.18
391.076	45.74
391.286	43.69
391.496	101.03
391.705	90.79
391.915	158.38
392.125	62.12
392.334	129.7
392.544	64.17
392.753	162.47
392.963	55.98
393.172	117.42
393.382	86.7
393.591	135.85
393.801	74.41
394.01	45.74
394.22	144.04
394.429	141.99
394.639	72.36
394.848	86.7
395.058	141.99
395.267	107.18
395.477	103.08
395.686	43.69
395.895	137.9
396.105	168.62
396.314	129.7
396.524	129.7
396.733	98.99
396.942	275.11
397.152	160.42
397.361	154.28
397.57	162.47
397.78	164.52
397.989	164.52
398.198	162.47
398.407	135.85
398.617	162.47
398.826	113.32
399.035	96.94
399.244	88.75
399.453	203.43
399.663	170.66
399.872	180.9
400.081	144.04
400.29	148.14
400.499	195.24
400.708	170.66
400.917	139.94
401.127	137.9
401.336	98.99
401.545	158.38
401.754	164.52
401.963	156.33
402.172	174.76
402.381	139.94
402.59	133.8
402.799	180.9
403.008	182.95
403.217	135.85
403.426	176.81
403.635	162.47
403.844	185
404.053	221.86
404.262	150.18
404.471	195.24
404.68	168.62
404.888	178.86
405.097	207.53
405.306	182.95
405.515	242.34
405.724	262.82
405.933	232.1
406.142	232.1
406.35	197.29
406.559	254.63
406.768	275.11
406.977	213.67
407.185	244.39
407.394	264.87
407.603	309.93
407.812	340.65
408.02	285.35
408.229	365.22
408.438	373.41
408.646	268.97
408.855	348.84
409.064	318.12
409.272	342.69
409.481	416.42
409.69	326.31
409.898	383.65
410.107	350.89
410.315	414.37
410.524	400.04
410.733	481.96
410.941	481.96
411.15	420.52
411.358	492.2
411.567	608.93
411.775	543.39
411.984	535.2
412.192	492.2
412.401	625.31
412.609	610.98
412.818	664.22
413.026	651.94
413.234	711.33
413.443	735.9
413.651	701.09
413.86	793.25
414.068	787.1
414.276	821.92
414.485	828.06
414.693	887.45
414.901	948.89
415.11	856.73
415.318	1018.52
415.526	936.6
415.734	1045.15
415.943	1059.48
416.151	1127.07
416.359	1116.83
416.567	1182.36
416.776	1137.31
416.984	1208.98
417.192	1237.66
417.4	1295
417.608	1258.14
417.817	1462.93
418.025	1411.73
418.233	1559.19
418.441	1469.08
418.649	1647.25
418.857	1675.92
419.065	1684.11
419.273	1684.11
419.481	1792.66
419.689	1931.92
419.897	2101.9
420.105	2155.15
420.313	2083.47
420.521	2046.6
420.729	2177.67
420.937	2321.03
421.145	2378.37
421.353	2429.57
421.561	2536.07
421.769	2556.55
421.977	2785.92
422.185	2632.32
422.393	2908.8
422.601	3058.3
422.809	2902.65
423.017	3215.99
423.224	3164.79
423.432	3381.88
423.64	3261.05
423.848	3646.07
424.056	3547.76
424.263	3889.78
424.471	3910.26
424.679	3951.21
424.887	3996.27
425.094	4262.51
425.302	4364.9
425.51	4553.32
425.718	4389.48
425.925	4723.3
426.133	4823.65
426.341	5020.25
426.548	5272.15
426.756	5405.27
426.964	5354.07
427.171	5712.47
427.379	5728.85
427.586	5704.28
427.794	6128.21
428.001	6333
428.209	6609.48
428.417	6599.24
428.624	6892.1
428.832	7103.04
429.039	7096.89
429.247	7037.5
429.454	7655.99
429.662	8061.49
429.869	7465.53
430.076	8075.82
430.284	8053.3
430.491	8307.24
430.699	8852
430.906	8890.91
431.114	8989.22
431.321	9130.53
431.528	9445.91
431.736	10109.46
431.943	10320.4
432.15	10209.81
432.358	10289.68
432.565	10932.74
432.772	10816.01
432.979	11119.1
433.187	11284.99
433.394	11524.6
433.601	12421.61
433.808	12450.28
434.016	12341.74
434.223	12831.21
434.43	13494.75
434.637	13382.11
434.844	14062.04
435.052	14576.08
435.259	14371.28
435.466	14418.38
435.673	14301.65
435.88	15206.85
436.087	15946.17
436.294	16200.12
436.501	15798.71
436.708	15937.98
436.915	16484.78
437.122	17248.68
437.329	17236.39
437.537	17809.82
437.743	18108.82
437.95	17914.27
438.157	19011.98
438.364	19566.98
438.571	19331.46
438.778	19659.13
438.985	21231.97
439.192	20666.74
439.399	21301.61
439.606	20814.19
439.813	21680.48
440.02	23243.08
440.227	22546.77
440.433	22577.49
440.64	23210.31
440.847	22942.03
441.054	23810.37
441.261	25407.78
441.467	24994.09
441.674	25680.16
441.881	26638.61
442.088	26435.86
442.294	26198.3
442.501	26974.48
442.708	27492.62
442.914	28152.06
443.121	29597.93
443.328	28999.92
443.534	31015.12
443.741	29753.57
443.948	29305.07
444.154	31887.56
444.361	31774.92
444.568	31742.15
444.774	31936.71
444.981	32309.44
445.187	33482.92
445.394	34021.54
445.6	34134.18
445.807	36839.54
446.013	35745.93
446.22	36055.17
446.426	37558.38
446.633	38000.74
446.839	38848.6
447.046	37544.05
447.252	39211.09
447.459	39835.72
447.665	39116.89
447.871	41123.9
448.078	42926.11
448.284	40923.19
448.491	41869.36
448.697	43470.87
448.903	44357.64
449.11	44406.79
449.316	43694.1
449.522	44386.31
449.728	45264.89
449.935	45764.59
450.141	45811.7
450.347	46829.54
450.553	45105.15
450.76	45791.22
450.966	47597.52
451.172	46571.49
451.378	48048.08
451.584	47177.69
451.791	47882.19
451.997	47921.1
452.203	48465.86
452.409	48904.13
452.615	48476.1
452.821	46931.93
453.027	46149.61
453.233	48545.73
453.44	46159.85
453.646	47142.88
453.852	47134.68
454.058	47787.99
454.264	46202.86
454.47	47562.71
454.676	46237.67
454.882	47579.09
455.088	43591.7
455.294	44177.42
455.5	45191.16
455.705	45359.09
455.911	43804.69
456.117	42721.31
456.323	41760.81
456.529	39698.51
456.735	41615.41
456.941	40517.7
457.147	39991.37
457.352	38641.76
457.558	38266.98
457.764	38250.6
457.97	37359.73
458.176	36452.48
458.381	36597.88
458.587	34814.1
458.793	34984.08
458.999	33011.89
459.204	35049.62
459.41	34484.38
459.616	32200.9
459.821	32266.43
460.027	32129.22
460.233	31447.24
460.438	29608.17
460.644	29956.32
460.85	28883.19
461.055	28428.54
461.261	28250.36
461.466	25987.36
461.672	25450.79
461.878	27230.48
462.083	25465.13
462.289	24799.54
462.494	25012.52
462.7	23511.36
462.905	22845.77
463.111	23570.75
463.316	23796.03
463.522	23132.49
463.727	23447.88
463.932	23042.38
464.138	22798.67
464.343	22968.65
464.549	22108.51
464.754	23294.28
464.959	22894.93
465.165	22833.49
465.37	22174.04
465.575	21524.83
465.781	21881.18
465.986	22468.95
466.191	21614.94
466.397	21145.96
466.602	19960.19
466.807	20818.28
467.012	20988.27
467.218	20502.9
467.423	20287.86
467.628	20664.69
467.833	21352.8
468.038	20722.03
468.244	19814.78
468.449	20889.96
468.654	19708.29
468.859	19954.04
469.064	19794.3
469.269	19130.76
469.474	19200.39
469.679	19689.85
469.885	18993.54
470.09	19169.67
470.295	19177.86
470.5	18821.52
470.705	18688.4
470.91	18426.26
471.115	18248.08
471.32	18571.66
471.525	18051.48
471.73	17713.56
471.935	17772.96
472.139	17256.87
472.344	17457.57
472.549	17334.69
472.754	16675.24
472.959	16589.23
473.164	16322.99
473.369	16181.68
473.574	16689.58
473.778	16630.19
473.983	16222.64
474.188	16284.08
474.393	15571.39
474.598	15804.86
474.802	15155.65
475.007	15462.85
475.212	15227.33
475.417	14827.98
475.621	14862.79
475.826	14934.47
476.031	14451.15
476.235	14377.42
476.44	14541.26
476.645	14109.14
476.849	14244.31
477.054	13916.63
477.259	13586.91
477.463	13767.13
477.668	13498.84
477.872	13461.98
478.077	13189.6
478.282	13072.87
478.486	13044.2
478.691	12808.68
478.895	12880.36
479.1	13013.48
479.304	12825.06
479.509	12392.94
479.713	12515.82
479.918	12394.99
480.122	12007.92
480.326	12198.38
480.531	12470.76
480.735	12126.71
480.94	12028.4
481.144	12538.35
481.348	11848.18
481.553	11901.43
481.757	11934.2
481.961	12071.41
482.166	12052.98
482.37	12095.99
482.574	11715.06
482.778	11969.01
482.983	11954.68
483.187	11948.53
483.391	12108.27
483.595	11708.92
483.8	11745.78
484.004	11809.27
484.208	11735.54
484.412	11571.71
484.616	11733.5
484.821	11713.02
485.025	11725.3
485.229	11743.74
485.433	11592.19
485.637	11819.51
485.841	11612.67
486.045	11563.51
486.249	11833.85
486.453	11844.09
486.657	11878.9
486.861	11905.52
487.065	11616.76
487.269	11864.57
487.473	11596.28
487.677	11852.28
487.881	11721.21
488.085	11706.87
488.289	11815.41
488.493	12007.92
488.697	12024.31
488.901	11891.19
489.105	11674.1
489.309	11612.67
489.512	11926
489.716	11938.29
489.92	11899.38
490.124	11743.74
490.328	12124.66
490.531	11919.86
490.735	12005.88
490.939	12302.83
491.143	11993.59
491.346	11993.59
491.55	12278.26
491.754	12030.45
491.958	12356.08
492.161	12351.98
492.365	12362.22
492.569	12448.24
492.772	12108.27
492.976	12364.27
493.18	12655.08
493.383	12710.38
493.587	12743.14
493.79	12876.26
493.994	12562.92
494.197	12945.89
494.401	12980.71
494.605	12913.13
494.808	13173.22
495.012	13230.56
495.215	13248.99
495.419	13507.04
495.622	13210.08
495.825	13742.55
496.029	13480.41
496.232	13666.78
496.436	13939.16
496.639	14361.04
496.843	14148.05
497.046	14553.55
497.249	14485.97
497.453	14655.95
497.656	14744.01
497.859	14752.2
498.063	15063.49
498.266	15243.71
498.469	15241.67
498.673	15528.38
498.876	15473.09
499.079	15546.81
499.282	15507.9
499.485	16110
499.689	16329.14
499.892	16286.13
500.095	16363.95
500.298	16990.63
500.501	16722.35
500.705	17021.35
500.908	17303.97
501.111	17490.34
501.314	17672.6
501.517	17899.93
501.72	17959.32
501.923	18061.72
502.126	18411.92
502.329	18727.31
502.532	18782.6
502.735	18794.89
502.938	19175.81
503.141	19372.42
503.344	19616.13
503.547	19530.11
503.75	20085.11
503.953	20259.19
504.156	20357.49
504.359	20709.74
504.562	20429.17
504.765	20922.73
504.968	21496.16
505.17	21479.78
505.373	21711.2
505.576	21504.35
505.779	22188.38
505.982	22315.35
506.185	22557.01
506.387	22741.33
506.59	22901.07
506.793	23380.29
506.996	23566.66
507.198	23845.18
507.401	23779.65
507.604	24105.27
507.807	24656.18
508.009	24465.72
508.212	24955.18
508.415	25041.2
508.617	25106.73
508.82	25647.4
509.022	25704.74
509.225	25944.35
509.428	26611.99
509.63	26204.44
509.833	26573.08
510.035	27226.38
510.238	26949.9
510.44	27463.94
510.643	27797.76
510.845	27937.02
511.048	27683.08
511.25	28571.89
511.453	28446.97
511.655	29642.98
511.858	29174
512.06	29411.56
512.262	29671.65
512.465	29565.16
512.667	30163.17
512.87	30232.8
513.072	30204.13
513.274	31115.47
513.477	31123.66
513.679	31887.56
513.881	32135.36
514.084	32571.58
514.286	32362.68
514.488	32723.13
514.69	33620.14
514.893	33271.98
515.095	33050.8
515.297	33706.15
515.499	33734.82
515.701	34504.86
515.904	34787.48
516.106	34957.46
516.308	35307.66
516.51	35700.87
516.712	35459.21
516.914	36049.03
517.116	36421.76
517.318	35909.77
517.52	36671.61
517.722	36544.64
517.925	37314.67
518.127	37783.66
518.329	38123.62
518.531	37869.67
518.733	38649.95
518.935	38660.19
519.136	38875.23
519.338	39635.02
519.54	39372.88
519.742	40165.45
519.944	40022.09
520.146	40693.82
520.348	40529.98
520.55	40777.79
520.752	41226.29
520.954	42010.67
521.155	41539.63
521.357	41992.23
521.559	42213.41
521.761	42733.6
521.963	42530.85
522.164	42637.34
522.366	43106.33
522.568	43489.3
522.77	43821.07
522.971	44232.71
523.173	43986.96
523.375	44341.25
523.576	44072.97
523.778	44544
523.98	44867.58
524.181	45475.83
524.383	45051.9
524.584	45903.85
524.786	45545.46
524.988	45309.94
525.189	46432.23
525.391	46368.74
525.592	46534.63
525.794	46254.06
525.995	46436.33
526.197	46761.95
526.398	46876.64
526.6	47232.99
526.801	47396.82
527.003	47720.4
527.204	47523.8
527.406	47886.29
527.607	47931.34
527.808	47978.45
528.01	47179.74
528.211	47906.77
528.412	48984
528.614	48572.36
528.815	48478.15
529.016	48992.19
529.218	48164.81
529.419	48660.42
529.62	48668.61
529.822	48762.82
530.023	49002.43
530.224	48955.33
530.425	48900.03
530.626	48672.71
530.828	48232.39
531.029	49825.71
531.23	48752.58
531.431	48992.19
531.632	49575.86
531.833	49682.36
532.035	49291.19
532.236	49622.97
532.437	49694.64
532.638	49321.91
532.839	49627.06
533.04	49571.77
533.241	49346.49
533.442	49756.08
533.643	49553.33
533.844	49848.24
534.045	49303.48
534.246	49141.69
534.447	49704.88
534.648	49555.38
534.849	49676.21
535.05	49323.96
535.251	49450.94
535.451	49137.6
535.652	49436.6
535.853	49373.11
536.054	49405.88
536.255	49381.31
536.456	49422.26
536.657	50194.35
536.857	49153.98
537.058	49002.43
537.259	49637.3
537.46	49422.26
537.66	49465.27
537.861	49588.15
538.062	49100.73
538.263	49170.36
538.463	49483.7
538.664	48830.4
538.865	49299.39
539.065	48967.62
539.266	48705.48
539.466	49244.09
539.667	48717.76
539.868	49637.3
540.068	48959.42
540.269	49180.6
540.469	49250.24
540.67	48728
540.87	49031.1
541.071	48988.1
541.271	49416.12
541.472	48932.8
541.672	48963.52
541.873	48846.79
542.073	48265.16
542.274	49375.16
542.474	48818.11
542.675	49027.01
542.875	49145.79
543.075	48725.96
543.276	48379.85
543.476	49100.73
543.676	48633.8
543.877	48711.62
544.077	48811.97
544.277	48545.73
544.478	48285.64
544.678	48459.72
544.878	48672.71
545.078	48560.07
545.279	47984.59
545.479	48320.46
545.679	48281.55
545.879	48578.5
546.079	48543.69
546.28	47992.78
546.48	47826.9
546.68	48349.13
546.88	48525.25
547.08	47910.86
547.28	48068.56
547.48	47562.71
547.68	47947.73
547.88	47783.89
548.081	48287.69
548.281	48041.93
548.481	47732.69
548.681	48326.6
548.881	48043.98
549.081	48130
549.28	47765.46
549.48	48377.8
549.68	47902.67
549.88	48746.43
550.08	47472.6
550.28	47984.59
550.48	47757.27
550.68	48140.24
550.88	47685.59
551.08	47917.01
551.279	47548.37
551.479	47218.65
551.679	47781.84
551.879	47374.3
552.079	47917.01
552.278	47486.93
552.478	47724.5
552.678	47538.13
552.878	47820.75
553.077	47390.68
553.277	47206.36
553.477	47878.1
553.676	47433.69
553.876	47755.22
554.076	47460.31
554.275	47161.31
554.475	46825.44
554.674	47474.65
554.874	47290.33
555.074	46960.61
555.273	47013.85
555.473	47355.86
555.672	46764
555.872	46970.85
556.071	47155.16
556.271	47474.65
556.47	46768.1
556.67	46632.93
556.869	46139.37
557.068	46825.44
557.268	46417.89
557.467	46688.23
557.667	46733.28
557.866	46743.52
558.065	46569.44
558.265	46563.3
558.464	45977.58
558.663	46712.8
558.863	45776.88
559.062	46704.61
559.261	45760.5
559.461	46903.26
559.66	45465.59
559.859	46051.31
560.058	45961.2
560.258	46094.32
560.457	45815.79
560.656	45838.32
560.855	45789.17
561.054	45703.15
561.253	45195.26
561.453	45699.06
561.652	45944.81
561.851	45633.52
562.05	45551.6
562.249	45461.49
562.448	45418.49
562.647	45277.18
562.846	45109.24
563.045	45449.21
563.244	44939.26
563.443	45047.8
563.642	44855.29
563.841	44689.41
564.04	45219.83
564.239	45254.65
564.438	44294.15
564.637	44544
564.836	44658.69
565.035	43859.98
565.234	44664.83
565.432	43958.28
565.631	44077.07
565.83	44363.78
566.029	43966.48
566.228	44013.58
566.427	44279.82
566.625	43941.9
566.824	43186.2
567.023	44115.98
567.222	43094.04
567.42	43857.93
567.619	43452.44
567.818	43757.58
568.016	43059.23
568.215	43575.31
568.414	42928.16
568.612	43577.36
568.811	43005.98
569.01	43204.63
569.208	42784.8
569.407	42958.88
569.605	42295.33
569.804	42922.01
570.002	42627.1
570.201	42608.67
570.4	42053.67
570.598	41924.65
570.797	42176.55
570.995	42448.93
571.193	41709.61
571.392	41836.59
571.59	41791.53
571.789	41998.38
571.987	41676.85
572.186	41926.7
572.384	41697.33
572.582	41545.78
572.781	41345.08
572.979	40915
573.177	41607.22
573.376	41308.21
573.574	40894.52
573.772	41279.54
573.971	40628.29
574.169	40405.06
574.367	40728.64
574.565	40845.37
574.763	40665.15
574.962	40441.92
575.16	39866.44
575.358	40491.07
575.556	39882.83
575.754	40665.15
575.952	39555.15
576.151	40155.21
576.349	39471.18
576.547	39657.55
576.745	40034.38
576.943	39565.39
577.141	39503.95
577.339	39716.94
577.537	39065.69
577.735	39295.06
577.933	38764.64
578.131	39118.93
578.329	38948.95
578.527	38299.75
578.725	38688.86
578.923	38879.32
579.121	38359.14
579.319	38506.59
579.516	38482.02
579.714	38410.34
579.912	37967.98
580.11	38430.82
580.308	38203.49
580.506	38164.58
580.704	37634.16
580.901	37924.97
581.099	37867.62
581.297	37908.58
581.495	37269.62
581.692	37761.13
581.89	37187.7
582.088	37570.67
582.285	37199.99
582.483	37234.8
582.681	37136.5
582.878	36786.3
583.076	36272.26
583.274	36573.31
583.471	36270.21
583.669	36796.54
583.866	36259.97
584.064	36493.44
584.262	36108.42
584.459	36034.69
584.657	35723.4
584.854	36616.32
585.052	34963.61
585.249	35623.05
585.447	35958.92
585.644	34979.99
585.841	35389.58
586.039	35633.29
586.236	35252.37
586.434	35137.68
586.631	34947.22
586.828	35115.15
587.026	34656.41
587.223	34951.32
587.42	34756.76
587.618	34826.39
587.815	34418.85
588.012	34728.09
588.21	34670.75
588.407	34693.27
588.604	34255.01
588.801	34128.03
588.999	34203.81
589.196	33820.84
589.393	33913
589.59	33624.23
589.787	33583.27
589.984	33396.91
590.182	32968.88
590.379	33630.38
590.576	32975.03
590.773	33003.7
590.97	32831.67
591.167	33312.94
591.364	32927.92
591.561	33046.71
591.758	32547
591.955	32661.69
592.152	32422.08
592.349	32751.8
592.546	32399.55
592.743	32458.94
592.94	31981.76
593.137	32241.85
593.334	32065.73
593.531	31955.14
593.727	31789.25
593.924	31727.81
594.121	31584.46
594.318	31699.14
594.515	31543.5
594.712	31291.6
594.908	31314.12
595.105	31062.22
595.302	30677.21
595.499	31144.14
595.696	31199.44
595.892	30802.13
596.089	31047.89
596.286	30984.4
596.482	30542.04
596.679	30431.45
596.876	30468.31
597.072	30021.86
597.269	30286.04
597.466	29765.86
597.662	29980.9
597.859	29872.35
598.055	30085.34
598.252	29632.74
598.448	29804.77
598.645	29393.13
598.841	29165.81
599.038	29593.83
599.234	29368.55
599.431	29575.4
599.627	29067.5
599.824	29370.6
600.02	29075.69
600.217	29010.16
600.413	28670.2
600.609	28649.72
600.806	28780.79
601.002	28750.07
601.198	28553.46
601.395	28471.54
601.591	28348.67
601.787	28086.53
601.984	28209.4
602.18	28219.64
602.376	28074.24
602.572	27695.36
602.769	27965.7
602.965	27584.77
603.161	27898.11
603.357	27429.13
603.553	27439.37
603.75	27496.71
603.946	27136.27
604.142	27255.05
604.338	27056.4
604.534	26884.37
604.73	26917.14
604.926	26997.01
605.122	26892.56
605.318	26585.36
605.514	26218.78
605.71	26454.29
605.906	26583.32
606.102	26241.31
606.298	26259.74
606.494	26384.66
606.69	26364.18
606.886	26409.24
607.082	25968.93
607.278	26523.93
607.474	25952.54
607.67	26265.88
607.866	25637.16
608.062	26231.07
608.257	25542.95
608.453	25913.63
608.649	25907.49
608.845	25686.31
609.041	25626.92
609.236	25624.87
609.432	25569.57
609.628	25475.37
609.824	25194.79
610.019	25260.33
610.215	25155.88
610.411	25162.03
610.606	25014.57
610.802	25088.3
610.998	25233.71
611.193	25030.96
611.389	24617.27
611.584	24791.34
611.78	24748.34
611.976	24746.29
612.171	24809.78
612.367	24758.58
612.562	24621.36
612.758	24394.04
612.953	24246.58
613.149	24654.13
613.344	24414.52
613.539	24688.95
613.735	24559.92
613.93	24826.16
614.126	23968.06
614.321	24578.36
614.517	24224.06
614.712	24240.44
614.907	23992.64
615.103	23941.44
615.298	23963.97
615.493	24379.7
615.688	23855.42
615.884	24062.27
616.079	23703.87
616.274	23871.81
616.47	23728.45
616.665	23705.92
616.86	23587.14
617.055	23540.04
617.25	23372.1
617.445	23693.63
617.641	22995.28
617.836	23513.41
618.031	23071.05
618.226	23482.69
618.421	22884.69
618.616	23294.28
618.811	22980.94
619.006	23173.45
619.201	22497.62
619.396	22913.36
619.591	22409.56
619.786	22640.98
619.981	22401.36
620.176	22657.36
620.371	22071.64
620.566	22161.75
620.761	22276.44
620.956	22202.71
621.151	21772.64
621.346	21985.63
621.541	21406.05
621.735	21616.99
621.93	21164.39
622.125	21492.07
622.32	21221.73
622.515	21039.47
622.709	21043.56
622.904	21029.23
623.099	20855.15
623.294	20865.39
623.488	20318.58
623.683	20513.14
623.878	20226.42
624.072	20367.73
624.267	20107.64
624.462	20031.86
624.656	19976.57
624.851	20117.88
625.046	19689.85
625.24	19579.26
625.435	19429.76
625.629	19374.47
625.824	19376.51
626.018	19216.77
626.213	18968.97
626.407	19386.75
626.602	18798.99
626.796	18860.43
626.991	18813.32
627.185	18655.63
627.38	18514.32
627.574	18485.65
627.768	18117.01
627.963	18278.8
628.157	17914.27
628.352	18065.81
628.546	18016.66
628.74	18114.97
628.935	17666.46
629.129	17697.18
629.323	17338.79
629.517	17453.47
629.712	17430.94
629.906	17508.77
630.1	17093.03
630.294	17179.04
630.489	16935.34
630.683	17252.77
630.877	16871.85
631.071	16597.42
631.265	17013.16
631.459	16456.11
631.653	16433.58
631.848	16374.19
632.042	16331.19
632.236	16353.71
632.43	16146.87
632.624	16064.95
632.818	16058.81
633.012	15700.41
633.206	15763.9
633.4	15858.1
633.594	15667.64
633.788	15483.33
633.982	15581.63
634.176	15479.23
634.369	15294.91
634.563	15110.6
634.757	15153.6
634.951	15344.06
635.145	15192.51
635.339	15090.12
635.533	14985.67
635.726	15083.97
635.92	14596.56
636.114	14588.36
636.308	14422.48
636.501	14551.5
636.695	14385.62
636.889	14123.48
637.083	14213.59
637.276	13994.45
637.47	14135.76
637.664	14043.6
637.857	13787.61
638.051	13808.09
638.244	13873.62
638.438	13644.25
638.632	13789.66
638.825	13605.34
639.019	13529.56
639.212	13308.38
639.406	13292
639.599	13148.64
639.793	13316.58
639.986	12960.23
640.18	12974.56
640.373	12954.08
640.567	12818.92
640.76	12958.18
640.954	12800.49
641.147	12726.76
641.34	12716.52
641.534	12491.24
641.727	12558.83
641.92	12462.57
642.114	12173.81
642.307	12263.92
642.5	12399.09
642.694	12243.44
642.887	11940.34
643.08	12048.88
643.273	12089.84
643.467	11897.33
643.66	11854.33
643.853	11735.54
644.046	11667.96
644.239	11479.55
644.432	11667.96
644.626	11567.61
644.819	11506.17
645.012	11676.15
645.205	11416.06
645.398	11297.28
645.591	11219.46
645.784	11051.52
645.977	10959.36
646.17	11162.11
646.363	10715.66
646.556	10773
646.749	10742.28
646.942	10922.5
647.135	10721.8
647.328	10680.84
647.521	10795.53
647.714	10578.44
647.907	10238.48
648.099	10482.19
648.292	10482.19
648.485	10344.97
648.678	10279.44
648.871	10318.35
649.064	10285.58
649.256	10045.97
649.449	10244.62
649.642	10125.84
649.835	9902.61
650.027	9849.36
650.22	9904.66
650.413	9914.9
650.605	9820.69
650.798	9843.22
650.991	9724.44
651.183	9710.1
651.376	9544.22
651.568	9396.76
651.761	9421.34
651.954	9351.71
652.146	9341.47
652.339	9318.94
652.531	9339.42
652.724	9364
652.916	8983.07
653.109	9036.32
653.301	9120.29
653.494	9228.83
653.686	8905.25
653.879	9114.14
654.071	8919.59
654.263	8835.62
654.456	8946.21
654.648	8802.85
654.84	8778.28
655.033	8499.75
655.225	8696.36
655.417	8456.75
655.61	8628.77
655.802	8602.15
655.994	8438.31
656.186	8272.43
656.379	8157.74
656.571	8450.6
656.763	8309.29
656.955	8167.98
657.148	8065.58
657.34	7952.95
657.532	8028.72
657.724	7975.47
657.916	7952.95
658.108	8073.78
658.3	7846.45
658.492	7864.88
658.684	7922.23
658.876	7905.84
659.068	7856.69
659.26	7684.66
659.452	7805.49
659.644	7711.28
659.836	7555.64
660.028	7617.08
660.22	7555.64
660.412	7447.1
660.604	7328.31
660.796	7440.95
660.988	7279.16
661.18	7449.15
661.372	7346.75
661.563	7383.61
661.755	7379.51
661.947	7191.1
662.139	7139.9
662.331	7195.2
662.522	6922.82
662.714	7012.93
662.906	7008.83
663.097	6959.68
663.289	6902.34
663.481	6832.71
663.673	6838.85
663.864	6756.93
664.056	6754.88
664.247	6761.03
664.439	6619.72
664.631	6548.04
664.822	6615.62
665.014	6568.52
665.205	6748.74
665.397	6519.37
665.588	6459.98
665.78	6484.55
665.971	6423.11
666.163	6550.09
666.354	6388.3
666.546	6421.06
666.737	6296.14
666.929	6259.28
667.12	6312.52
667.311	6218.32
667.503	6371.91
667.694	6238.8
667.885	6060.62
668.077	6158.92
668.268	6187.6
668.459	6130.25
668.651	6142.54
668.842	5925.46
669.033	6005.33
669.224	5849.68
669.416	5915.22
669.607	5878.35
669.798	5667.41
669.989	6054.48
670.18	5868.11
670.371	5759.57
670.563	5884.5
670.754	5816.91
670.945	5601.88
671.136	5702.23
671.327	5599.83
671.518	5526.1
671.709	5562.97
671.9	5556.82
672.091	5730.9
672.282	5487.19
672.473	5556.82
672.664	5589.59
672.855	5483.09
673.046	5380.7
673.237	5460.57
673.428	5337.69
673.619	5415.51
673.809	5335.64
674	5366.36
674.191	5304.92
674.382	5286.49
674.573	5309.02
674.764	5253.72
674.954	5214.81
675.145	5204.57
675.336	5223
675.527	5091.93
675.717	5329.5
675.908	5134.94
676.099	5093.98
676.289	5190.24
676.48	5106.27
676.671	5034.59
676.861	5059.17
677.052	4870.75
677.243	4899.42
677.433	4993.63
677.624	4987.49
677.814	5100.12
678.005	4862.56
678.195	4797.03
678.386	4815.46
678.576	4883.04
678.767	4924
678.957	4774.5
679.148	4751.97
679.338	4815.46
679.529	4880.99
679.719	4708.96
679.909	4930.14
680.1	4604.52
680.29	4616.8
680.481	4639.33
680.671	4684.39
680.861	4674.15
681.052	4749.92
681.242	4518.5
681.432	4493.93
681.622	4627.04
681.813	4581.99
682.003	4627.04
682.193	4551.27
682.383	4575.84
682.573	4575.84
682.764	4567.65
682.954	4491.88
683.144	4563.56
683.334	4676.2
683.524	4579.94
683.714	4536.93
683.904	4385.38
684.094	4440.68
684.284	4659.81
684.474	4465.25
684.664	4311.66
684.854	4354.66
685.044	4356.71
685.234	4280.94
685.424	4223.59
685.614	4237.93
685.804	4362.86
685.994	4399.72
686.184	4323.94
686.374	4194.92
686.564	4231.79
686.753	4246.12
686.943	4113
687.133	4156.01
687.323	4043.37
687.513	4182.63
687.702	4094.57
687.892	4033.13
688.082	4051.56
688.272	4078.19
688.461	4147.82
688.651	3936.88
688.841	3994.22
689.03	4061.8
689.22	3957.36
689.41	4002.41
689.599	3998.32
689.789	3871.34
689.979	4031.09
690.168	3873.39
690.358	3840.62
690.547	3758.71
690.737	3816.05
690.926	3975.79
691.116	3725.94
691.305	3983.98
691.495	3705.46
691.684	3867.25
691.874	3627.64
692.063	3783.28
692.252	3766.9
692.442	3762.8
692.631	3605.11
692.82	3775.09
693.01	3674.74
693.199	3662.45
693.388	3568.24
693.578	3576.44
693.767	3719.79
693.956	3510.9
694.146	3588.72
694.335	3551.86
694.524	3629.68
694.713	3697.27
694.902	3517.05
695.092	3549.81
695.281	3539.57
695.47	3553.91
695.659	3545.72
695.848	3431.03
696.037	3474.04
696.226	3445.37
696.415	3428.98
696.604	3373.69
696.793	3564.15
696.982	3410.55
697.171	3500.66
697.36	3502.71
697.549	3426.93
697.738	3398.26
697.927	3408.5
698.116	3408.5
698.305	3365.5
698.494	3310.2
698.683	3404.41
698.872	3445.37
699.061	3232.38
699.25	3340.92
699.438	3250.81
699.627	3351.16
699.816	3390.07
700.005	3449.46
700.193	3299.96
700.382	3422.84
700.571	3250.81
700.76	3326.58
700.948	3367.54
701.137	3304.06
701.326	3326.58
701.514	3275.38
701.703	3349.11
701.892	3353.21
702.08	3295.86
702.269	3375.74
702.457	3345.02
702.646	3277.43
702.834	3193.47
703.023	3230.33
703.212	3320.44
703.4	3336.82
703.589	3353.21
703.777	3326.58
703.965	3111.55
704.154	3291.77
704.342	3357.3
704.531	3148.41
704.719	3267.19
704.907	3281.53
705.096	3179.13
705.284	3170.94
705.472	3183.23
705.661	3164.79
705.849	3365.5
706.037	3105.4
706.226	3129.98
706.414	3230.33
706.602	3215.99
706.79	3117.69
706.979	3136.12
707.167	3091.07
707.355	3107.45
707.543	3175.03
707.731	3252.86
707.919	3248.76
708.107	3142.27
708.296	3093.12
708.484	3236.47
708.672	3215.99
708.86	3191.42
709.048	3107.45
709.236	3052.16
709.424	3142.27
709.612	3142.27
709.8	3056.25
709.988	3109.5
710.176	3199.61
710.364	3068.54
710.551	3136.12
710.739	3166.84
710.927	3050.11
711.115	3082.88
711.303	3148.41
711.491	3011.2
711.679	3048.06
711.866	3046.01
712.054	2972.29
712.242	2974.33
712.43	3084.92
712.617	2898.56
712.805	2984.57
712.993	3031.68
713.181	3052.16
713.368	3060.35
713.556	2921.09
713.744	2939.52
713.931	3109.5
714.119	2996.86
714.306	3031.68
714.494	2957.95
714.682	3027.58
714.869	3039.87
715.057	3005.05
715.244	3025.53
715.432	3039.87
715.619	3025.53
715.807	2925.18
715.994	2914.94
716.182	3031.68
716.369	2931.33
716.556	3031.68
716.744	2931.33
716.931	2896.51
717.119	3019.39
717.306	2929.28
717.493	2980.48
717.681	2900.61
717.868	2830.98
718.055	2898.56
718.242	2892.41
718.43	2873.98
718.617	2857.6
718.804	2998.91
718.991	2845.31
719.179	2951.81
719.366	2761.34
719.553	2894.46
719.74	2861.69
719.927	2845.31
720.114	2933.37
720.301	2779.78
720.488	2785.92
720.676	2974.33
720.863	2865.79
721.05	3007.1
721.237	2873.98
721.424	2859.65
721.611	2835.07
721.798	2699.91
721.985	2822.78
722.172	2710.15
722.358	2781.82
722.545	2845.31
722.732	2740.86
722.919	2769.54
723.106	2724.48
723.293	2751.1
723.48	2747.01
723.667	2603.65
723.853	2665.09
724.04	2740.86
724.227	2736.77
724.414	2730.62
724.6	2796.16
724.787	2738.82
724.974	2894.46
725.161	2751.1
725.347	2638.47
725.534	2777.73
725.72	2658.95
725.907	2628.23
726.094	2654.85
726.28	2706.05
726.467	2613.89
726.653	2732.67
726.84	2699.91
727.027	2677.38
727.213	2519.68
727.4	2613.89
727.586	2628.23
727.773	2534.02
727.959	2669.19
728.145	2599.55
728.332	2648.71
728.518	2484.87
728.705	2587.27
728.891	2646.66
729.077	2640.51
729.264	2622.08
729.45	2536.07
729.636	2679.43
729.823	2572.93
730.009	2663.04
730.195	2497.16
730.382	2593.41
730.568	2462.34
730.754	2564.74
730.94	2527.88
731.126	2554.5
731.313	2460.29
731.499	2501.25
731.685	2544.26
731.871	2439.81
732.057	2617.99
732.243	2433.67
732.429	2611.84
732.615	2527.88
732.801	2570.88
732.987	2517.64
733.173	2480.77
733.359	2511.49
733.545	2374.28
733.731	2445.96
733.917	2421.38
734.103	2544.26
734.289	2452.1
734.475	2443.91
734.661	2476.68
734.847	2402.95
735.033	2415.24
735.219	2556.55
735.404	2355.85
735.59	2361.99
735.776	2380.42
735.962	2341.51
736.148	2316.94
736.333	2370.18
736.519	2417.29
736.705	2400.9
736.89	2243.21
737.076	2323.08
737.262	2323.08
737.447	2437.77
737.633	2439.81
737.819	2310.79
738.004	2376.33
738.19	2302.6
738.375	2249.35
738.561	2282.12
738.747	2265.74
738.932	2275.98
739.118	2402.95
739.303	2200.2
739.489	2284.17
739.674	2280.07
739.859	2161.29
740.045	2218.63
740.23	2173.58
740.416	2183.82
740.601	2247.3
740.786	2101.9
740.972	2216.58
741.157	2237.06
741.342	2128.52
741.528	2183.82
741.713	2165.39
741.898	2149
742.084	2235.02
742.269	2153.1
742.454	2067.08
742.639	2073.23
742.824	2036.36
743.01	2155.15
743.195	2085.51
743.38	2110.09
743.565	2046.6
743.75	1999.5
743.935	2011.79
744.12	2022.03
744.305	2040.46
744.49	1921.68
744.675	1901.2
744.86	1903.25
745.045	2005.64
745.23	1905.29
745.415	2022.03
745.6	2001.55
745.785	1933.97
745.97	1917.58
746.155	1993.36
746.34	1931.92
746.525	1880.72
746.71	1927.82
746.895	1890.96
747.079	1813.13
747.264	1825.42
747.449	1950.35
747.634	1876.62
747.819	1839.76
748.003	1909.39
748.188	1817.23
748.373	1749.65
748.557	1723.02
748.742	1825.42
748.927	1723.02
749.111	1770.13
749.296	1616.53
749.481	1688.21
749.665	1669.78
749.85	1714.83
750.034	1682.07
750.219	1761.94
750.404	1669.78
750.588	1696.4
750.773	1606.29
750.957	1634.96
751.141	1622.67
751.326	1553.04
751.51	1612.43
751.695	1567.38
751.879	1579.67
752.064	1532.56
752.248	1608.34
752.432	1569.43
752.617	1446.55
752.801	1479.32
752.985	1489.56
753.17	1485.46
753.354	1573.52
753.538	1528.47
753.722	1391.25
753.907	1448.6
754.091	1493.65
754.275	1442.45
754.459	1440.4
754.643	1505.94
754.828	1434.26
755.012	1327.77
755.196	1372.82
755.38	1401.49
755.564	1280.66
755.748	1344.15
755.932	1260.18
756.116	1389.21
756.3	1182.36
756.484	1313.43
756.668	1340.05
756.852	1254.04
757.036	1288.86
757.22	1225.37
757.404	1198.74
757.588	1276.57
757.772	1270.42
757.956	1235.61
758.14	1178.26
758.323	1225.37
758.507	1174.17
758.691	1192.6
758.875	1288.86
759.059	1172.12
759.242	1180.31
759.426	1104.54
759.61	1120.92
759.794	1178.26
759.977	1172.12
760.161	1331.86
760.345	1129.11
760.528	1141.4
760.712	1155.74
760.895	1131.16
761.079	1251.99
761.263	1127.07
761.446	1114.78
761.63	1110.68
761.813	1165.98
761.997	1028.76
762.18	1096.35
762.364	1108.63
762.547	1055.39
762.731	1032.86
762.914	1036.95
763.098	1018.52
763.281	1082.01
763.464	1006.24
763.648	1110.68
763.831	965.28
764.015	1067.67
764.198	1106.59
764.381	1112.73
764.564	1004.19
764.748	993.95
764.931	1049.24
765.114	885.41
765.297	1000.09
765.481	961.18
765.664	946.84
765.847	938.65
766.03	938.65
766.213	993.95
766.397	971.42
766.58	920.22
766.763	1004.19
766.946	959.13
767.129	991.9
767.312	918.17
767.495	973.47
767.678	957.08
767.861	936.6
768.044	924.32
768.227	852.64
768.41	946.84
768.593	895.64
768.776	869.02
768.959	834.21
769.142	922.27
769.324	832.16
769.507	977.56
769.69	893.6
769.873	957.08
770.056	899.74
770.239	873.12
770.421	938.65
770.604	996
770.787	793.25
770.97	858.78
771.152	803.49
771.335	819.87
771.518	766.62
771.7	795.29
771.883	838.3
772.066	813.73
772.248	778.91
772.431	823.97
772.613	842.4
772.796	774.81
772.978	803.49
773.161	879.26
773.343	795.29
773.526	854.69
773.708	819.87
773.891	684.7
774.073	668.32
774.256	731.81
774.438	828.06
774.621	688.8
774.803	737.95
774.985	748.19
775.168	762.53
775.35	731.81
775.532	735.9
775.715	731.81
775.897	625.31
776.079	576.16
776.261	674.46
776.444	778.91
776.626	682.66
776.808	643.74
776.99	563.87
777.173	639.65
777.355	729.76
777.537	641.7
777.719	672.42
777.901	606.88
778.083	629.41
778.265	633.51
778.447	635.55
778.629	674.46
778.811	584.35
778.993	676.51
779.175	567.97
779.357	645.79
779.539	535.2
779.721	649.89
779.903	580.26
780.085	608.93
780.267	561.83
780.449	533.15
780.631	635.55
780.812	600.74
780.994	615.07
781.176	527.01
781.358	565.92
781.54	498.34
781.721	557.73
781.903	553.63
782.085	572.07
782.267	504.48
782.448	488.1
782.63	527.01
782.812	555.68
782.993	502.43
783.175	567.97
783.357	539.3
783.538	496.29
783.72	539.3
783.901	547.49
784.083	422.56
784.264	584.35
784.446	481.96
784.627	457.38
784.809	430.76
784.99	365.22
785.172	479.91
785.353	484
785.535	524.96
785.716	516.77
785.897	488.1
786.079	426.66
786.26	381.6
786.441	512.67
786.623	453.28
786.804	447.14
786.985	432.8
787.167	447.14
787.348	424.61
787.529	406.18
787.71	467.62
787.891	432.8
788.073	424.61
788.254	391.84
788.435	428.71
788.616	408.23
788.797	316.07
788.978	406.18
789.159	373.41
789.34	387.75
789.522	320.17
789.703	379.56
789.884	369.32
790.065	430.76
790.246	416.42
790.427	389.8
790.607	373.41
790.788	416.42
790.969	330.41
791.15	363.17
791.331	320.17
791.512	277.16
791.693	375.46
791.874	381.6
792.054	344.74
792.235	311.97
792.416	379.56
792.597	314.02
792.778	314.02
792.958	369.32
793.139	367.27
793.32	348.84
793.5	254.63
793.681	379.56
793.862	248.49
794.042	338.6
794.223	334.5
794.404	350.89
794.584	305.83
794.765	322.21
794.945	309.93
795.126	289.45
795.306	359.08
795.487	299.69
795.667	262.82
795.848	314.02
796.028	240.3
796.209	320.17
796.389	281.25
796.57	291.49
796.75	258.73
796.93	236.2
797.111	285.35
797.291	271.01
797.471	293.54
797.652	238.25
797.832	225.96
798.012	326.31
798.192	264.87
798.373	238.25
798.553	213.67
798.733	314.02
798.913	268.97
799.093	246.44
799.274	250.53
799.454	311.97
799.634	311.97
799.814	277.16
799.994	242.34
800.174	246.44
800.354	209.58
800.534	289.45
800.714	289.45
800.894	258.73
801.074	217.77
801.254	268.97
801.434	314.02
801.614	230.06
801.794	219.82
801.974	608.93
802.154	236.2
802.334	236.2
802.514	225.96
802.693	164.52
802.873	195.24
803.053	264.87
803.233	211.62
803.413	262.82
803.592	172.71
803.772	264.87
803.952	203.43
804.131	182.95
804.311	240.3
804.491	234.15
804.67	174.76
804.85	178.86
805.03	207.53
805.209	191.14
805.389	168.62
805.568	189.1
805.748	129.7
805.928	195.24
806.107	172.71
806.287	203.43
806.466	258.73
806.646	236.2
806.825	154.28
807.004	236.2
807.184	131.75
807.363	324.26
807.543	207.53
807.722	207.53
807.901	207.53
808.081	211.62
808.26	172.71
808.439	238.25
808.619	230.06
808.798	148.14
808.977	201.38
809.156	246.44
809.336	187.05
809.515	195.24
809.694	96.94
809.873	166.57
810.052	133.8
810.231	223.91
810.411	154.28
810.59	209.58
810.769	174.76
810.948	164.52
811.127	176.81
811.306	74.41
811.485	162.47
811.664	168.62
811.843	178.86
812.022	170.66
812.201	178.86
812.38	189.1
812.559	172.71
812.737	103.08
812.916	221.86
813.095	162.47
813.274	223.91
813.453	146.09
813.632	234.15
813.811	176.81
813.989	109.23
814.168	168.62
814.347	168.62
814.526	129.7
814.704	146.09
814.883	172.71
815.062	158.38
815.24	158.38
815.419	178.86
815.598	131.75
815.776	172.71
815.955	96.94
816.133	109.23
816.312	92.84
816.49	180.9
816.669	127.66
816.847	144.04
817.026	166.57
817.204	144.04
817.383	162.47
817.561	182.95
817.74	164.52
817.918	170.66
818.097	113.32
818.275	144.04
818.453	76.46
818.632	133.8
818.81	101.03
818.988	66.22
819.167	164.52
819.345	123.56
819.523	119.46
819.701	164.52
819.879	137.9
820.058	117.42
820.236	131.75
820.414	174.76
820.592	107.18
820.77	133.8
820.948	148.14
821.127	76.46
821.305	139.94
821.483	156.33
821.661	109.23
821.839	148.14
822.017	103.08
822.195	123.56
822.373	199.34
822.551	101.03
822.729	176.81
822.907	84.65
823.085	123.56
823.262	94.89
823.44	111.27
823.618	72.36
823.796	139.94
823.974	139.94
824.152	174.76
824.329	111.27
824.507	94.89
824.685	111.27
824.863	82.6
825.04	148.14
825.218	117.42
825.396	58.03
825.574	135.85
825.751	125.61
825.929	125.61
826.107	98.99
826.284	180.9
826.462	105.13
826.639	105.13
826.817	117.42
826.994	129.7
827.172	86.7
827.349	111.27
827.527	135.85
827.704	125.61
827.882	55.98
828.059	101.03
828.237	78.51
828.414	109.23
828.591	62.12
828.769	133.8
828.946	107.18
829.124	174.76
829.301	82.6
829.478	64.17
829.655	98.99
829.833	78.51
830.01	111.27
830.187	109.23
830.364	41.64
830.542	135.85
830.719	166.57
830.896	47.79
831.073	170.66
831.25	82.6
831.427	47.79
831.604	43.69
831.782	123.56
831.959	78.51
832.136	90.79
832.313	127.66
832.49	66.22
832.667	66.22
832.844	55.98
833.021	92.84
833.198	113.32
833.374	64.17
833.551	107.18
833.728	131.75
833.905	94.89
834.082	64.17
834.259	137.9
834.436	62.12
834.612	88.75
834.789	101.03
834.966	62.12
835.143	101.03
835.319	84.65
835.496	139.94
835.673	49.83
835.85	105.13
836.026	92.84
836.203	176.81
836.38	86.7
836.556	92.84
836.733	39.59
836.909	60.07
837.086	33.45
837.262	45.74
837.439	55.98
837.616	39.59
837.792	53.93
837.968	94.89
838.145	-7.51
838.321	58.03
838.498	96.94
838.674	109.23
838.851	39.59
839.027	8.87
839.203	78.51
839.38	88.75
839.556	51.88
839.732	115.37
839.909	107.18
840.085	137.9
840.261	31.4
840.437	66.22
840.614	53.93
840.79	49.83
840.966	68.27
841.142	49.83
841.318	10.92
841.494	-13.65
841.671	60.07
841.847	76.46
842.023	49.83
842.199	148.14
842.375	25.26
842.551	74.41
842.727	64.17
842.903	135.85
843.079	17.07
843.255	150.18
843.431	49.83
843.607	33.45
843.783	55.98
843.959	84.65
844.134	117.42
844.31	39.59
844.486	51.88
844.662	39.59
844.838	41.64
845.013	31.4
845.189	60.07
845.365	51.88
845.541	47.79
845.716	33.45
845.892	133.8
846.068	96.94
846.244	43.69
846.419	-3.41
846.595	60.07
846.77	23.21
846.946	12.97
847.122	33.45
847.297	72.36
847.473	80.55
847.648	66.22
847.824	70.31
847.999	60.07
848.175	105.13
848.35	90.79
848.526	2.73
848.701	49.83
848.876	119.46
849.052	58.03
849.227	39.59
849.403	8.87
849.578	72.36
849.753	8.87
849.929	72.36
850.104	25.26
850.279	49.83
850.454	62.12
850.63	98.99
850.805	78.51
850.98	21.16
851.155	-19.8
851.33	88.75
851.505	82.6
851.681	105.13
851.856	39.59
852.031	70.31
852.206	45.74
852.381	4.78
852.556	-66.9
852.731	66.22
852.906	21.16
853.081	15.02
853.256	86.7
853.431	70.31
853.606	-5.46
853.781	62.12
853.956	-46.42
854.131	60.07
854.305	37.55
854.48	8.87
854.655	37.55
854.83	72.36
855.005	39.59
855.18	35.5
855.354	2.73
855.529	55.98
855.704	45.74
855.879	43.69
856.053	43.69
856.228	101.03
856.403	49.83
856.577	55.98
856.752	-44.37
856.926	86.7
857.101	49.83
857.276	47.79
857.45	76.46
857.625	84.65
857.799	17.07
857.974	2.73
858.148	80.55
858.323	49.83
858.497	39.59
858.672	-42.32
858.846	6.83
859.02	66.22
859.195	-62.8
859.369	0.68
859.543	10.92
859.718	-48.47
859.892	156.33
860.066	72.36
860.241	72.36
860.415	-15.7
860.589	0.68
860.763	0.68
860.938	-3.41
861.112	84.65
861.286	41.64
861.46	84.65
861.634	10.92
861.808	84.65
861.982	94.89
862.157	6.83
862.331	35.5
862.505	72.36
862.679	37.55
862.853	55.98
863.027	43.69
863.201	31.4
863.375	23.21
863.549	-17.75
863.722	8.87
863.896	72.36
864.07	-13.65
864.244	64.17
864.418	25.26
864.592	-1.37
864.766	12.97
864.939	68.27
865.113	125.61
865.287	64.17
865.461	-3.41
865.634	41.64
865.808	43.69
865.982	-7.51
866.156	62.12
866.329	45.74
866.503	-3.41
866.676	51.88
866.85	53.93
867.024	62.12
867.197	72.36
867.371	70.31
867.544	86.7
867.718	-23.89
867.891	-3.41
868.065	-27.99
868.238	-83.28
868.412	119.46
868.585	72.36
868.759	39.59
868.932	68.27
869.105	43.69
869.279	6.83
869.452	64.17
869.625	-5.46
869.799	6.83
869.972	10.92
870.145	37.55
870.319	92.84
870.492	8.87
870.665	19.11
870.838	-1.37
871.011	6.83
871.185	60.07
871.358	15.02
871.531	41.64
871.704	60.07
871.877	31.4
872.05	51.88
872.223	37.55
872.396	15.02
872.569	55.98
872.742	-50.52
872.915	23.21
873.088	103.08
873.261	-11.61
873.434	33.45
873.607	70.31
873.78	49.83
873.953	-48.47
874.126	0.68
874.299	33.45
874.471	6.83
874.644	6.83
874.817	-71
874.99	51.88
875.163	35.5
875.335	64.17
875.508	8.87
875.681	47.79
875.853	-25.94
876.026	92.84
876.199	-40.28
876.371	23.21
876.544	41.64
876.717	94.89
876.889	-77.14
877.062	33.45
877.234	12.97
877.407	55.98
877.579	53.93
877.752	60.07
877.924	12.97
878.097	62.12
878.269	37.55
878.442	66.22
878.614	55.98
878.786	-52.56
878.959	29.35
879.131	64.17
879.303	35.5
879.476	-32.08
879.648	53.93
879.82	33.45
879.993	2.73
880.165	37.55
880.337	-13.65
880.509	17.07
880.681	-79.19
880.854	-17.75
881.026	-15.7
881.198	115.37
881.37	10.92
881.542	51.88
881.714	-42.32
881.886	-60.76
882.058	29.35
882.23	-11.61
882.402	62.12
882.574	62.12
882.746	27.31
882.918	37.55
883.09	68.27
883.262	-5.46
883.434	8.87
883.606	-30.04
883.778	43.69
883.95	-19.8
884.122	2.73
884.293	-19.8
884.465	-7.51
884.637	4.78
884.809	25.26
884.98	33.45
885.152	0.68
885.324	-3.41
885.496	-19.8
885.667	33.45
885.839	-19.8
886.011	49.83
886.182	-50.52
886.354	17.07
886.525	-19.8
886.697	21.16
886.869	-17.75
887.04	-25.94
887.212	80.55
887.383	33.45
887.555	45.74
887.726	23.21
887.897	-38.23
888.069	49.83
888.24	49.83
888.412	37.55
888.583	-73.04
888.754	68.27
888.926	-27.99
889.097	-25.94
889.268	12.97
889.44	80.55
889.611	6.83
889.782	29.35
889.953	-7.51
890.125	49.83
890.296	-19.8
890.467	-36.18
890.638	-30.04
890.809	35.5
890.98	27.31
891.151	64.17
891.323	51.88
891.494	78.51
891.665	21.16
891.836	-40.28
892.007	-30.04
892.178	21.16
892.349	-11.61
892.52	10.92
892.691	10.92
892.862	49.83
893.032	-91.48
893.203	-42.32
893.374	41.64
893.545	78.51
893.716	39.59
893.887	29.35
894.057	-13.65
894.228	-13.65
894.399	2.73
894.57	43.69
894.74	74.41
894.911	-3.41
895.082	-13.65
895.253	19.11
895.423	37.55
895.594	29.35
895.764	17.07
895.935	43.69
896.106	2.73
896.276	-15.7
896.447	6.83
896.617	-62.8
896.788	2.73
896.958	-42.32
897.129	4.78
897.299	35.5
897.47	0.68
897.64	-5.46
897.81	15.02
897.981	84.65
898.151	19.11
898.322	123.56
898.492	-38.23
898.662	88.75
898.832	8.87
899.003	27.31
899.173	43.69
899.343	12.97
899.513	-25.94
