Data from USB4F104151__71__12-02-04-907.txt Node

Date: Fri Mar 14 12:02:04 EDT 2025
User: louis
Spectrometer: USB4F10415
Trigger mode: 4
Integration Time (sec): 2.000000E-2
Scans to average: 1
Electric dark correction enabled: true
Nonlinearity correction enabled: false
Boxcar width: 0
XAxis mode: Wavelengths
Number of Pixels in Spectrum: 3648
>>>>>Begin Spectral Data<<<<<
178.204	-114.17
178.424	-114.17
178.644	-114.17
178.864	-73.21
179.084	-71.17
179.304	-62.98
179.524	37.38
179.744	23.04
179.964	-15.87
180.184	-13.82
180.404	-13.82
180.624	-5.63
180.844	-9.73
181.064	-46.59
181.283	37.38
181.503	20.99
181.723	49.66
181.943	-15.87
182.163	23.04
182.383	-1.54
182.602	8.7
182.822	59.9
183.042	-46.59
183.262	14.85
183.482	27.14
183.701	2.56
183.921	57.86
184.141	-75.26
184.361	90.62
184.58	20.99
184.8	96.77
185.02	-3.58
185.239	66.05
185.459	23.04
185.679	80.38
185.898	8.7
186.118	49.66
186.338	-1.54
186.557	64
186.777	-46.59
186.997	2.56
187.216	-11.78
187.436	25.09
187.655	14.85
187.875	41.47
188.095	-11.78
188.314	-9.73
188.534	59.9
188.753	-3.58
188.973	12.8
189.192	10.75
189.412	121.34
189.631	25.09
189.851	-44.54
190.07	12.8
190.29	-9.73
190.509	47.62
190.729	33.28
190.948	33.28
191.168	160.25
191.387	39.42
191.607	-11.78
191.826	68.09
192.045	37.38
192.265	39.42
192.484	-40.45
192.704	27.14
192.923	49.66
193.142	47.62
193.362	-38.4
193.581	86.53
193.8	53.76
194.02	23.04
194.239	14.85
194.458	45.57
194.678	6.66
194.897	37.38
195.116	-75.26
195.335	31.23
195.555	35.33
195.774	107.01
195.993	131.58
196.212	102.91
196.432	-7.68
196.651	51.71
196.87	27.14
197.089	41.47
197.308	45.57
197.528	49.66
197.747	39.42
197.966	33.28
198.185	72.19
198.404	68.09
198.623	102.91
198.842	-22.02
199.062	2.56
199.281	88.57
199.5	-3.58
199.719	33.28
199.938	-24.06
200.157	-40.45
200.376	51.71
200.595	10.75
200.814	25.09
201.033	96.77
201.252	68.09
201.471	37.38
201.69	16.9
201.909	59.9
202.128	29.18
202.347	12.8
202.566	29.18
202.785	16.9
203.004	39.42
203.223	20.99
203.442	33.28
203.661	20.99
203.879	8.7
204.098	12.8
204.317	45.57
204.536	-28.16
204.755	-28.16
204.974	14.85
205.193	20.99
205.411	49.66
205.63	70.14
205.849	86.53
206.068	10.75
206.287	47.62
206.505	18.94
206.724	45.57
206.943	10.75
207.162	39.42
207.381	39.42
207.599	-9.73
207.818	33.28
208.037	-26.11
208.255	-79.36
208.474	64
208.693	82.43
208.911	4.61
209.13	8.7
209.349	102.91
209.567	68.09
209.786	61.95
210.005	-26.11
210.223	20.99
210.442	111.1
210.661	51.71
210.879	53.76
211.098	47.62
211.316	8.7
211.535	45.57
211.753	-7.68
211.972	57.86
212.191	-40.45
212.409	31.23
212.628	-95.74
212.846	20.99
213.065	31.23
213.283	29.18
213.502	18.94
213.72	55.81
213.938	23.04
214.157	66.05
214.375	4.61
214.594	51.71
214.812	31.23
215.031	-48.64
215.249	0.51
215.467	-17.92
215.686	102.91
215.904	53.76
216.122	29.18
216.341	27.14
216.559	29.18
216.778	113.15
216.996	117.25
217.214	-13.82
217.432	18.94
217.651	14.85
217.869	-3.58
218.087	29.18
218.306	43.52
218.524	39.42
218.742	-13.82
218.96	47.62
219.179	45.57
219.397	43.52
219.615	4.61
219.833	20.99
220.051	70.14
220.27	-48.64
220.488	10.75
220.706	12.8
220.924	4.61
221.142	66.05
221.36	23.04
221.578	0.51
221.796	14.85
222.015	66.05
222.233	51.71
222.451	86.53
222.669	23.04
222.887	16.9
223.105	49.66
223.323	47.62
223.541	-9.73
223.759	33.28
223.977	-30.21
224.195	70.14
224.413	25.09
224.631	-7.68
224.849	70.14
225.067	8.7
225.285	29.18
225.503	41.47
225.721	-3.58
225.939	0.51
226.157	35.33
226.375	182.78
226.592	2.56
226.81	64
227.028	86.53
227.246	76.29
227.464	61.95
227.682	-7.68
227.9	0.51
228.117	55.81
228.335	61.95
228.553	39.42
228.771	18.94
228.989	-13.82
229.206	78.33
229.424	27.14
229.642	41.47
229.86	66.05
230.077	2.56
230.295	2.56
230.513	70.14
230.731	64
230.948	84.48
231.166	2.56
231.384	-38.4
231.601	23.04
231.819	80.38
232.037	53.76
232.254	104.96
232.472	-34.3
232.689	-38.4
232.907	29.18
233.125	18.94
233.342	39.42
233.56	39.42
233.777	31.23
233.995	35.33
234.213	76.29
234.43	72.19
234.648	53.76
234.865	31.23
235.083	37.38
235.3	35.33
235.518	10.75
235.735	102.91
235.953	57.86
236.17	33.28
236.388	76.29
236.605	45.57
236.822	29.18
237.04	37.38
237.257	-3.58
237.475	37.38
237.692	33.28
237.909	27.14
238.127	90.62
238.344	-3.58
238.562	29.18
238.779	78.33
238.996	-13.82
239.214	-15.87
239.431	107.01
239.648	-24.06
239.865	76.29
240.083	41.47
240.3	-5.63
240.517	-9.73
240.735	82.43
240.952	16.9
241.169	27.14
241.386	72.19
241.603	4.61
241.821	-56.83
242.038	59.9
242.255	86.53
242.472	-38.4
242.689	72.19
242.907	41.47
243.124	4.61
243.341	-7.68
243.558	66.05
243.775	45.57
243.992	0.51
244.209	55.81
244.426	123.39
244.643	53.76
244.86	35.33
245.078	31.23
245.295	94.72
245.512	39.42
245.729	25.09
245.946	41.47
246.163	-15.87
246.38	41.47
246.597	29.18
246.814	10.75
247.031	-5.63
247.248	49.66
247.464	98.81
247.681	49.66
247.898	59.9
248.115	31.23
248.332	20.99
248.549	14.85
248.766	49.66
248.983	-3.58
249.2	33.28
249.417	64
249.633	37.38
249.85	-36.35
250.067	-5.63
250.284	49.66
250.501	29.18
250.717	-7.68
250.934	57.86
251.151	33.28
251.368	49.66
251.585	-30.21
251.801	4.61
252.018	-1.54
252.235	53.76
252.451	-1.54
252.668	39.42
252.885	16.9
253.102	88.57
253.318	18.94
253.535	12.8
253.752	12.8
253.968	18.94
254.185	4.61
254.401	20.99
254.618	57.86
254.835	16.9
255.051	125.44
255.268	-26.11
255.484	20.99
255.701	68.09
255.917	29.18
256.134	16.9
256.351	10.75
256.567	-1.54
256.784	20.99
257	51.71
257.217	64
257.433	-11.78
257.65	29.18
257.866	45.57
258.082	-50.69
258.299	-9.73
258.515	-26.11
258.732	-73.21
258.948	37.38
259.165	29.18
259.381	68.09
259.597	25.09
259.814	4.61
260.03	20.99
260.246	-28.16
260.463	84.48
260.679	51.71
260.895	12.8
261.112	27.14
261.328	8.7
261.544	37.38
261.761	74.24
261.977	-7.68
262.193	35.33
262.409	66.05
262.626	27.14
262.842	6.66
263.058	14.85
263.274	90.62
263.49	16.9
263.707	35.33
263.923	0.51
264.139	49.66
264.355	6.66
264.571	23.04
264.787	29.18
265.004	90.62
265.22	10.75
265.436	23.04
265.652	70.14
265.868	-1.54
266.084	27.14
266.3	16.9
266.516	-32.26
266.732	51.71
266.948	37.38
267.164	25.09
267.38	-7.68
267.596	70.14
267.812	115.2
268.028	57.86
268.244	76.29
268.46	4.61
268.676	-30.21
268.892	0.51
269.108	-36.35
269.324	10.75
269.54	-9.73
269.756	37.38
269.972	25.09
270.188	72.19
270.403	4.61
270.619	80.38
270.835	61.95
271.051	-7.68
271.267	107.01
271.483	31.23
271.698	-11.78
271.914	39.42
272.13	29.18
272.346	8.7
272.562	25.09
272.777	88.57
272.993	8.7
273.209	14.85
273.425	68.09
273.64	55.81
273.856	18.94
274.072	57.86
274.287	8.7
274.503	37.38
274.719	-15.87
274.934	61.95
275.15	-30.21
275.366	86.53
275.581	-48.64
275.797	6.66
276.012	80.38
276.228	92.67
276.444	61.95
276.659	23.04
276.875	41.47
277.09	8.7
277.306	0.51
277.521	14.85
277.737	59.9
277.952	37.38
278.168	72.19
278.383	-17.92
278.599	12.8
278.814	72.19
279.03	43.52
279.245	4.61
279.461	64
279.676	-22.02
279.892	6.66
280.107	64
280.322	-11.78
280.538	37.38
280.753	-22.02
280.969	-17.92
281.184	-32.26
281.399	16.9
281.615	35.33
281.83	61.95
282.045	66.05
282.26	61.95
282.476	119.29
282.691	-34.3
282.906	31.23
283.122	8.7
283.337	57.86
283.552	33.28
283.767	31.23
283.983	49.66
284.198	33.28
284.413	51.71
284.628	51.71
284.843	82.43
285.058	78.33
285.274	33.28
285.489	35.33
285.704	37.38
285.919	16.9
286.134	80.38
286.349	29.18
286.564	-15.87
286.779	27.14
286.995	72.19
287.21	31.23
287.425	64
287.64	74.24
287.855	29.18
288.07	2.56
288.285	107.01
288.5	53.76
288.715	-15.87
288.93	12.8
289.145	84.48
289.36	16.9
289.575	8.7
289.79	2.56
290.004	68.09
290.219	-1.54
290.434	-17.92
290.649	23.04
290.864	29.18
291.079	4.61
291.294	16.9
291.509	98.81
291.724	61.95
291.938	31.23
292.153	35.33
292.368	25.09
292.583	78.33
292.798	31.23
293.012	82.43
293.227	10.75
293.442	51.71
293.657	-5.63
293.871	82.43
294.086	51.71
294.301	78.33
294.516	100.86
294.73	29.18
294.945	45.57
295.16	10.75
295.374	72.19
295.589	-19.97
295.804	35.33
296.018	55.81
296.233	45.57
296.447	27.14
296.662	2.56
296.877	12.8
297.091	66.05
297.306	72.19
297.52	37.38
297.735	86.53
297.949	39.42
298.164	102.91
298.378	-24.06
298.593	25.09
298.807	94.72
299.022	84.48
299.236	27.14
299.451	6.66
299.665	70.14
299.88	51.71
300.094	57.86
300.309	45.57
300.523	51.71
300.737	18.94
300.952	2.56
301.166	74.24
301.381	-17.92
301.595	90.62
301.809	-3.58
302.024	53.76
302.238	51.71
302.452	29.18
302.667	23.04
302.881	53.76
303.095	117.25
303.309	33.28
303.524	-9.73
303.738	-1.54
303.952	27.14
304.166	64
304.381	-32.26
304.595	107.01
304.809	8.7
305.023	43.52
305.237	86.53
305.452	41.47
305.666	-22.02
305.88	90.62
306.094	55.81
306.308	10.75
306.522	27.14
306.736	29.18
306.95	74.24
307.164	10.75
307.379	-48.64
307.593	61.95
307.807	49.66
308.021	8.7
308.235	27.14
308.449	37.38
308.663	25.09
308.877	10.75
309.091	20.99
309.305	64
309.519	-26.11
309.733	94.72
309.947	-11.78
310.161	100.86
310.374	59.9
310.588	68.09
310.802	61.95
311.016	72.19
311.23	18.94
311.444	33.28
311.658	68.09
311.872	111.1
312.085	-42.5
312.299	119.29
312.513	88.57
312.727	4.61
312.941	47.62
313.154	-32.26
313.368	57.86
313.582	84.48
313.796	49.66
314.009	111.1
314.223	68.09
314.437	-36.35
314.651	61.95
314.864	-34.3
315.078	70.14
315.292	25.09
315.505	107.01
315.719	96.77
315.933	68.09
316.146	51.71
316.36	25.09
316.573	53.76
316.787	-26.11
317.001	-7.68
317.214	-9.73
317.428	-34.3
317.641	33.28
317.855	-1.54
318.068	47.62
318.282	47.62
318.495	107.01
318.709	39.42
318.922	-5.63
319.136	94.72
319.349	61.95
319.563	57.86
319.776	31.23
319.99	41.47
320.203	12.8
320.417	47.62
320.63	51.71
320.843	111.1
321.057	-3.58
321.27	-19.97
321.483	10.75
321.697	49.66
321.91	33.28
322.124	35.33
322.337	45.57
322.55	41.47
322.763	16.9
322.977	8.7
323.19	59.9
323.403	29.18
323.617	82.43
323.83	66.05
324.043	49.66
324.256	41.47
324.469	12.8
324.683	23.04
324.896	-17.92
325.109	115.2
325.322	-79.36
325.535	-17.92
325.748	76.29
325.962	123.39
326.175	23.04
326.388	43.52
326.601	88.57
326.814	84.48
327.027	90.62
327.24	20.99
327.453	14.85
327.666	80.38
327.879	82.43
328.092	111.1
328.305	49.66
328.518	61.95
328.731	29.18
328.944	107.01
329.157	14.85
329.37	-5.63
329.583	143.87
329.796	0.51
330.009	4.61
330.222	61.95
330.435	66.05
330.648	104.96
330.861	6.66
331.073	4.61
331.286	53.76
331.499	37.38
331.712	8.7
331.925	35.33
332.138	-77.31
332.35	8.7
332.563	59.9
332.776	59.9
332.989	-13.82
333.202	20.99
333.414	74.24
333.627	41.47
333.84	2.56
334.053	31.23
334.265	23.04
334.478	-42.5
334.691	104.96
334.903	57.86
335.116	37.38
335.329	23.04
335.541	16.9
335.754	74.24
335.966	102.91
336.179	29.18
336.392	43.52
336.604	76.29
336.817	90.62
337.029	72.19
337.242	76.29
337.454	14.85
337.667	35.33
337.88	82.43
338.092	51.71
338.305	78.33
338.517	0.51
338.729	68.09
338.942	90.62
339.154	72.19
339.367	-15.87
339.579	84.48
339.792	43.52
340.004	20.99
340.217	57.86
340.429	18.94
340.641	18.94
340.854	55.81
341.066	43.52
341.278	82.43
341.491	66.05
341.703	86.53
341.915	66.05
342.128	4.61
342.34	-19.97
342.552	20.99
342.764	59.9
342.977	98.81
343.189	4.61
343.401	2.56
343.613	8.7
343.826	10.75
344.038	41.47
344.25	64
344.462	6.66
344.674	53.76
344.886	51.71
345.099	70.14
345.311	41.47
345.523	-15.87
345.735	35.33
345.947	14.85
346.159	53.76
346.371	25.09
346.583	45.57
346.795	109.05
347.007	12.8
347.219	4.61
347.431	37.38
347.643	31.23
347.855	94.72
348.067	68.09
348.279	4.61
348.491	2.56
348.703	57.86
348.915	-30.21
349.127	8.7
349.339	127.49
349.551	2.56
349.763	55.81
349.975	80.38
350.187	53.76
350.399	18.94
350.61	133.63
350.822	-19.97
351.034	0.51
351.246	57.86
351.458	-19.97
351.669	37.38
351.881	74.24
352.093	10.75
352.305	135.68
352.517	39.42
352.728	51.71
352.94	35.33
353.152	72.19
353.363	82.43
353.575	80.38
353.787	92.67
353.999	41.47
354.21	82.43
354.422	16.9
354.633	-9.73
354.845	29.18
355.057	72.19
355.268	55.81
355.48	-26.11
355.692	-17.92
355.903	-3.58
356.115	8.7
356.326	0.51
356.538	94.72
356.749	96.77
356.961	102.91
357.172	16.9
357.384	0.51
357.595	16.9
357.807	90.62
358.018	35.33
358.23	29.18
358.441	43.52
358.653	18.94
358.864	66.05
359.075	49.66
359.287	-19.97
359.498	45.57
359.709	90.62
359.921	4.61
360.132	29.18
360.344	68.09
360.555	6.66
360.766	35.33
360.977	152.06
361.189	39.42
361.4	-7.68
361.611	66.05
361.823	94.72
362.034	-58.88
362.245	6.66
362.456	72.19
362.667	39.42
362.879	49.66
363.09	41.47
363.301	47.62
363.512	111.1
363.723	27.14
363.935	47.62
364.146	84.48
364.357	76.29
364.568	-13.82
364.779	6.66
364.99	37.38
365.201	27.14
365.412	111.1
365.623	25.09
365.834	4.61
366.045	47.62
366.256	12.8
366.467	64
366.678	70.14
366.889	145.92
367.1	43.52
367.311	-5.63
367.522	94.72
367.733	88.57
367.944	-7.68
368.155	-3.58
368.366	121.34
368.577	37.38
368.788	35.33
368.999	57.86
369.209	113.15
369.42	107.01
369.631	137.73
369.842	45.57
370.053	20.99
370.264	98.81
370.474	31.23
370.685	53.76
370.896	96.77
371.107	47.62
371.317	14.85
371.528	115.2
371.739	45.57
371.95	86.53
372.16	102.91
372.371	49.66
372.582	53.76
372.792	37.38
373.003	29.18
373.214	47.62
373.424	135.68
373.635	82.43
373.846	45.57
374.056	80.38
374.267	66.05
374.477	74.24
374.688	98.81
374.898	119.29
375.109	57.86
375.319	2.56
375.53	107.01
375.74	8.7
375.951	102.91
376.161	2.56
376.372	92.67
376.582	29.18
376.793	92.67
377.003	-1.54
377.214	6.66
377.424	119.29
377.635	59.9
377.845	78.33
378.055	113.15
378.266	-13.82
378.476	31.23
378.686	20.99
378.897	37.38
379.107	61.95
379.317	84.48
379.528	53.76
379.738	119.29
379.948	2.56
380.158	64
380.369	29.18
380.579	84.48
380.789	20.99
380.999	96.77
381.21	59.9
381.42	78.33
381.63	102.91
381.84	76.29
382.05	92.67
382.261	117.25
382.471	31.23
382.681	14.85
382.891	78.33
383.101	33.28
383.311	16.9
383.521	57.86
383.731	92.67
383.941	152.06
384.151	39.42
384.361	-24.06
384.571	4.61
384.781	61.95
384.991	37.38
385.201	127.49
385.411	53.76
385.621	129.53
385.831	35.33
386.041	80.38
386.251	61.95
386.461	150.01
386.671	70.14
386.881	18.94
387.091	70.14
387.301	92.67
387.511	25.09
387.72	25.09
387.93	59.9
388.14	53.76
388.35	37.38
388.56	-7.68
388.769	64
388.979	76.29
389.189	51.71
389.399	53.76
389.609	84.48
389.818	72.19
390.028	113.15
390.238	37.38
390.447	14.85
390.657	86.53
390.867	59.9
391.076	6.66
391.286	86.53
391.496	74.24
391.705	72.19
391.915	86.53
392.125	100.86
392.334	72.19
392.544	80.38
392.753	76.29
392.963	2.56
393.172	61.95
393.382	4.61
393.591	53.76
393.801	37.38
394.01	68.09
394.22	78.33
394.429	111.1
394.639	78.33
394.848	90.62
395.058	53.76
395.267	49.66
395.477	70.14
395.686	96.77
395.895	109.05
396.105	41.47
396.314	86.53
396.524	0.51
396.733	-17.92
396.942	125.44
397.152	117.25
397.361	86.53
397.57	74.24
397.78	119.29
397.989	76.29
398.198	168.45
398.407	102.91
398.617	104.96
398.826	20.99
399.035	147.97
399.244	55.81
399.453	92.67
399.663	115.2
399.872	152.06
400.081	135.68
400.29	121.34
400.499	45.57
400.708	123.39
400.917	61.95
401.127	43.52
401.336	78.33
401.545	104.96
401.754	184.83
401.963	51.71
402.172	98.81
402.381	145.92
402.59	84.48
402.799	86.53
403.008	117.25
403.217	184.83
403.426	145.92
403.635	49.66
403.844	86.53
404.053	131.58
404.262	166.4
404.471	150.01
404.68	166.4
404.888	156.16
405.097	82.43
405.306	154.11
405.515	199.16
405.724	70.14
405.933	164.35
406.142	172.54
406.35	211.45
406.559	158.21
406.768	176.64
406.977	178.69
407.185	139.77
407.394	215.55
407.603	123.39
407.812	242.17
408.02	240.12
408.229	205.31
408.438	221.69
408.646	242.17
408.855	203.26
409.064	285.18
409.272	225.79
409.481	307.71
409.69	309.76
409.898	262.65
410.107	240.12
410.315	336.38
410.524	252.41
410.733	371.19
410.941	315.9
411.15	373.24
411.358	432.63
411.567	348.67
411.775	238.08
411.984	375.29
412.192	401.91
412.401	440.83
412.609	434.68
412.818	442.87
413.026	383.48
413.234	426.49
413.443	479.74
413.651	469.5
413.86	479.74
414.068	586.23
414.276	565.75
414.485	547.32
414.693	639.48
414.901	666.1
415.11	725.49
415.318	670.2
415.526	725.49
415.734	733.68
415.943	758.26
416.151	782.84
416.359	791.03
416.567	840.18
416.776	793.08
416.984	811.51
417.192	911.86
417.4	889.33
417.608	895.47
417.817	938.48
418.025	924.15
418.233	1038.83
418.441	999.92
418.649	1137.13
418.857	1126.89
419.065	1225.2
419.273	1272.3
419.481	1327.6
419.689	1268.2
419.897	1343.98
420.105	1370.6
420.313	1454.57
420.521	1436.14
420.729	1436.14
420.937	1481.19
421.145	1532.39
421.353	1624.55
421.561	1739.24
421.769	1905.12
421.977	1958.37
422.185	1796.58
422.393	2007.52
422.601	2148.83
422.809	2144.74
423.017	2118.11
423.224	2306.52
423.432	2175.45
423.64	2300.38
423.848	2486.75
424.056	2404.83
424.263	2615.77
424.471	2562.52
424.679	2781.65
424.887	2970.07
425.094	2814.42
425.302	2896.34
425.51	3027.41
425.718	3148.24
425.925	3103.18
426.133	3236.3
426.341	3529.16
426.548	3561.93
426.756	3625.42
426.964	3555.79
427.171	3805.64
427.379	4016.58
427.586	4057.54
427.794	4045.25
428.001	4260.29
428.209	4475.32
428.417	4374.97
428.624	4843.96
428.832	4868.53
429.039	4778.42
429.247	4712.89
429.454	5253.55
429.662	5478.83
429.869	5267.89
430.076	5511.6
430.284	5407.15
430.491	5697.96
430.699	5796.26
430.906	5917.09
431.114	5986.72
431.321	6291.87
431.528	6373.79
431.736	6775.19
431.943	7188.88
432.15	6830.49
432.358	7102.87
432.565	7479.69
432.772	7459.21
432.979	7647.63
433.187	7805.32
433.394	7809.42
433.601	8391.04
433.808	8505.73
434.016	8450.43
434.223	8790.39
434.43	9458.03
434.637	9148.79
434.844	9812.33
435.052	9791.85
435.259	9533.81
435.466	10002.79
435.673	9795.95
435.88	10545.5
436.087	10920.28
436.294	11209.04
436.501	10729.82
436.708	10887.51
436.915	11338.07
437.122	11831.63
437.329	11925.83
437.537	12142.92
437.743	12339.52
437.95	12257.6
438.157	12802.36
438.364	13584.69
438.571	13422.9
438.778	13599.02
438.985	14694.69
439.192	14162.22
439.399	14674.21
439.606	14434.6
439.813	15096.09
440.02	16091.4
440.227	15812.88
440.433	15403.28
440.64	16333.06
440.847	15968.52
441.054	16494.85
441.261	17318.14
441.467	17301.75
441.674	17539.32
441.881	18313.45
442.088	18088.17
442.294	17991.92
442.501	18788.58
442.708	18911.46
442.914	19941.58
443.121	20572.36
443.328	20050.13
443.534	21532.86
443.741	20809.92
443.948	20510.92
444.154	22085.81
444.361	21706.93
444.568	21954.74
444.774	22204.59
444.981	22272.17
445.187	22876.32
445.394	24004.75
445.6	23857.3
445.807	26273.9
446.013	24787.08
446.22	25346.17
446.426	26540.14
446.633	26802.28
446.839	27203.68
447.046	26493.04
447.252	27826.26
447.459	27961.43
447.665	27893.85
447.871	28960.84
448.078	30269.49
448.284	29030.47
448.491	29648.96
448.697	30449.71
448.903	31275.04
449.11	31465.5
449.316	30674.99
449.522	31320.1
449.728	32372.75
449.935	32350.23
450.141	32284.69
450.347	33187.85
450.553	32118.81
450.76	32966.66
450.966	33335.3
451.172	32952.33
451.378	34021.37
451.584	33441.79
451.791	34035.7
451.997	34023.42
452.203	34729.97
452.409	34723.82
452.615	34588.66
452.821	33417.22
453.027	32663.57
453.233	34893.8
453.44	33128.45
453.646	33624.06
453.852	33855.48
454.058	34361.33
454.264	33077.26
454.47	33859.58
454.676	32981
454.882	34297.84
455.088	31387.68
455.294	31543.33
455.5	31770.65
455.705	32757.77
455.911	31189.03
456.117	30627.88
456.323	30019.64
456.529	28526.67
456.735	29771.83
456.941	29112.39
457.147	28493.9
457.352	27664.47
457.558	27609.18
457.764	27418.72
457.97	26855.53
458.176	26683.5
458.381	26564.71
458.587	25426.04
458.793	25270.4
458.999	23746.71
459.204	25380.99
459.41	25043.07
459.616	23296.16
459.821	23191.71
460.027	22952.1
460.233	22524.07
460.438	21334.2
460.644	21956.78
460.85	20814.02
461.055	20676.8
461.261	20494.54
461.466	18856.16
461.672	17897.71
461.878	19663.06
462.083	18055.4
462.289	17965.29
462.494	17637.62
462.7	17178.87
462.905	16449.8
463.111	17090.81
463.316	17197.31
463.522	16656.64
463.727	16670.98
463.932	16828.67
464.138	16369.93
464.343	16566.53
464.549	16027.92
464.754	16523.52
464.959	16462.08
465.165	16464.13
465.37	15800.59
465.575	15388.95
465.781	15972.62
465.986	15878.41
466.191	15575.31
466.397	15055.13
466.602	14123.3
466.807	14952.73
467.012	14989.6
467.218	14981.4
467.423	14639.39
467.628	14932.25
467.833	15659.28
468.038	14891.29
468.244	14440.74
468.449	15026.46
468.654	14661.92
468.859	14217.51
469.064	14344.49
469.269	13932.84
469.474	13871.4
469.679	14407.97
469.885	13717.81
470.09	13883.69
470.295	13850.92
470.5	13377.84
470.705	13662.51
470.91	13257.01
471.115	13162.81
471.32	13250.87
471.525	13285.69
471.73	13033.79
471.935	12935.48
472.139	12577.09
472.344	12519.74
472.549	12349.76
472.754	12347.72
472.959	11942.22
473.164	11903.31
473.369	11852.11
473.574	12222.79
473.778	11942.22
473.983	12044.62
474.188	11696.46
474.393	11405.65
474.598	11321.68
474.802	11256.15
475.007	11276.63
475.212	11192.66
475.417	10795.36
475.621	10774.88
475.826	10778.97
476.031	10473.82
476.235	10582.37
476.44	10623.33
476.645	10266.98
476.849	10340.71
477.054	10219.88
477.259	9951.59
477.463	10338.66
477.668	9939.3
477.872	10107.24
478.077	9838.95
478.282	9376.11
478.486	9412.98
478.691	9216.37
478.895	9259.38
479.1	9484.66
479.304	9468.27
479.509	9009.53
479.713	9130.36
479.918	8958.33
480.122	8763.77
480.326	9025.91
480.531	8995.19
480.735	8843.64
480.94	8960.38
481.144	8976.76
481.348	8747.39
481.553	8741.24
481.757	8761.72
481.961	8790.39
482.166	8882.55
482.37	8800.63
482.574	8585.6
482.778	8636.8
482.983	8925.56
483.187	8749.43
483.391	8739.19
483.595	8470.91
483.8	8651.13
484.004	8636.8
484.208	8964.47
484.412	8857.98
484.616	8653.18
484.821	8561.02
485.025	8294.79
485.229	8831.35
485.433	8671.61
485.637	8569.21
485.841	8479.1
486.045	8778.11
486.249	8726.91
486.453	8501.63
486.657	8624.51
486.861	8642.94
487.065	8444.29
487.269	8604.03
487.473	8606.08
487.677	8542.59
487.881	8749.43
488.085	8581.5
488.289	8550.78
488.493	8638.84
488.697	8673.66
488.901	8843.64
489.105	8579.45
489.309	8702.33
489.512	8698.24
489.716	8778.11
489.92	8683.9
490.124	8841.59
490.328	8829.31
490.531	8683.9
490.735	8933.75
490.939	8999.29
491.143	8976.76
491.346	8780.15
491.55	8962.42
491.754	9070.97
491.958	8995.19
492.161	8913.27
492.365	8970.62
492.569	9331.06
492.772	8980.85
492.976	9263.47
493.18	9197.94
493.383	9298.29
493.587	9204.08
493.79	9484.66
493.994	9359.73
494.197	9404.78
494.401	9560.43
494.605	9466.22
494.808	9585.01
495.012	9738.6
495.215	9797.99
495.419	9783.66
495.622	9865.58
495.825	10037.61
496.029	10064.23
496.232	10262.88
496.436	10162.53
496.639	10187.11
496.843	10359.14
497.046	10758.49
497.249	10680.67
497.453	10471.78
497.656	10658.14
497.859	11014.49
498.063	10973.53
498.266	10989.91
498.469	11137.37
498.673	11084.12
498.876	11270.48
499.079	11528.53
499.282	11405.65
499.485	11651.41
499.689	11702.61
499.892	12005.7
500.095	12116.3
500.298	12179.78
500.501	12112.2
500.705	12521.79
500.908	12745.02
501.111	12581.18
501.314	12802.36
501.517	13019.45
501.72	13136.18
501.923	13103.42
502.126	13480.24
502.329	13607.22
502.532	13457.71
502.735	13642.03
502.938	14084.39
503.141	14147.88
503.344	14332.2
503.547	14133.54
503.75	14487.84
503.953	14754.08
504.156	14919.96
504.359	14840.09
504.562	15231.26
504.765	15366.42
504.968	15479.06
505.17	15483.16
505.373	15503.64
505.576	16075.02
505.779	15980.81
505.982	15993.1
506.185	16613.63
506.387	16591.11
506.59	16656.64
506.793	16959.74
506.996	16691.46
507.198	17330.42
507.401	17221.88
507.604	17426.68
507.807	18004.21
508.009	17828.08
508.212	18010.35
508.415	18180.33
508.617	18286.82
508.82	18512.1
509.022	18610.4
509.225	18823.39
509.428	18866.4
509.63	19220.7
509.833	19335.38
510.035	19914.96
510.238	19978.45
510.44	19882.19
510.643	20310.22
510.845	20355.27
511.048	20068.56
511.25	20635.85
511.453	20566.21
511.655	21539
511.858	21207.23
512.06	21377.21
512.262	21698.74
512.465	21618.87
512.667	21997.74
512.87	22528.17
513.072	22284.46
513.274	22763.68
513.477	22843.56
513.679	22794.4
513.881	23265.44
514.084	23492.76
514.286	23304.35
514.488	23601.3
514.69	24119.44
514.893	24039.57
515.095	24217.74
515.297	24625.29
515.499	24301.71
515.701	24793.22
515.904	25094.27
516.106	25258.11
516.308	25626.74
516.51	25524.35
516.712	25679.99
516.914	26445.93
517.116	26325.1
517.318	26587.24
517.52	26466.41
517.722	26726.5
517.925	27140.19
518.127	27428.96
518.329	27080.8
518.531	27338.85
518.733	27988.05
518.935	28162.13
519.136	27975.77
519.338	28538.96
519.54	28581.96
519.742	28844.1
519.944	28661.83
520.146	29087.81
520.348	29599.8
520.55	29483.07
520.752	29724.73
520.954	30195.76
521.155	30033.97
521.357	30222.39
521.559	30496.81
521.761	30607.4
521.963	30748.71
522.164	31031.33
522.366	31127.59
522.568	31455.26
522.77	31279.14
522.971	31842.33
523.173	31385.63
523.375	31860.76
523.576	32116.76
523.778	32022.55
523.98	32591.89
524.181	32219.16
524.383	32600.08
524.584	32731.15
524.786	33058.82
524.988	32469.01
525.189	33044.49
525.391	33464.32
525.592	33873.92
525.794	33468.42
525.995	33447.94
526.197	33812.48
526.398	33570.82
526.6	33974.27
526.801	33824.76
527.003	34052.09
527.204	33824.76
527.406	34625.52
527.607	34187.25
527.808	34713.58
528.01	33845.24
528.211	34611.18
528.412	34897.9
528.614	34836.46
528.815	34979.82
529.016	35145.7
529.218	34891.76
529.419	34844.65
529.62	35041.26
529.822	35055.59
530.023	34846.7
530.224	35356.64
530.425	35254.25
530.626	34678.77
530.828	34856.94
531.029	35485.67
531.23	35082.22
531.431	35237.86
531.632	35315.69
531.833	35215.33
532.035	35420.13
532.236	35491.81
532.437	35448.8
532.638	35121.13
532.839	35581.92
533.04	35528.67
533.241	35008.49
533.442	35973.08
533.643	35344.36
533.844	35631.07
534.045	35729.37
534.246	35391.46
534.447	35741.66
534.648	35389.41
534.849	35598.3
535.05	35125.22
535.251	35581.92
535.451	35323.88
535.652	35239.91
535.853	35545.06
536.054	35807.2
536.255	35901.4
536.456	35452.9
536.657	36075.48
536.857	35346.4
537.058	35149.8
537.259	35780.57
537.46	35575.78
537.66	35497.95
537.861	35737.57
538.062	35444.71
538.263	35416.04
538.463	35643.36
538.664	35764.19
538.865	35919.84
539.065	36024.28
539.266	35336.16
539.466	35436.52
539.667	35323.88
539.868	35602.4
540.068	35581.92
540.269	35117.03
540.469	35479.52
540.67	35456.99
540.87	35297.25
541.071	35456.99
541.271	35377.12
541.472	34940.91
541.672	35123.18
541.873	35147.75
542.073	34889.71
542.274	35221.48
542.474	35084.26
542.675	34791.41
542.875	35319.78
543.075	35282.92
543.276	34697.2
543.476	35422.18
543.676	34695.15
543.877	35117.03
544.077	35180.52
544.277	34809.84
544.478	34562.03
544.678	35112.94
544.878	35162.09
545.078	35139.56
545.279	34979.82
545.479	35000.3
545.679	34865.13
545.879	35143.66
546.079	34936.81
546.28	34768.88
546.48	34715.63
546.68	35047.4
546.88	34902
547.08	35049.45
547.28	35125.22
547.48	34537.46
547.68	34846.7
547.88	34709.49
548.081	34922.48
548.281	34936.81
548.481	34875.37
548.681	35045.35
548.881	34697.2
549.081	34822.12
549.28	34764.78
549.48	34725.87
549.68	34400.24
549.88	34875.37
550.08	34496.5
550.28	34764.78
550.48	34748.4
550.68	34693.1
550.88	34611.18
551.08	34701.29
551.279	34844.65
551.479	34580.46
551.679	34815.98
551.879	34564.08
552.079	34512.88
552.278	34318.32
552.478	34473.97
552.678	34588.66
552.878	34598.9
553.077	34555.89
553.277	34162.68
553.477	34705.39
553.676	34508.79
553.876	34508.79
554.076	34220.02
554.275	34248.69
554.475	34170.87
554.674	34727.92
554.874	34459.63
555.074	33972.22
555.273	34682.86
555.473	34621.42
555.672	34172.92
555.872	34301.94
556.071	34177.01
556.271	34613.23
556.47	34160.63
556.67	33720.32
556.869	34179.06
557.068	34390
557.268	33966.07
557.467	34002.94
557.667	33802.24
557.866	34299.89
558.065	33818.62
558.265	34125.82
558.464	34076.66
558.663	34168.82
558.863	33224.71
559.062	34191.35
559.261	33515.52
559.461	34144.25
559.66	33570.82
559.859	33896.44
560.058	33507.33
560.258	33671.17
560.457	33282.05
560.656	33509.38
560.855	33431.55
561.054	33916.92
561.253	33476.61
561.453	33679.36
561.652	33703.93
561.851	33728.51
562.05	33210.37
562.249	33314.82
562.448	33333.25
562.647	33310.72
562.846	33439.75
563.045	33435.65
563.244	32976.9
563.443	33601.54
563.642	32817.16
563.841	33155.08
564.04	32759.82
564.239	33097.73
564.438	32991.24
564.637	33048.58
564.836	33028.1
565.035	32989.19
565.234	33163.27
565.432	32710.67
565.631	32790.54
565.83	32780.3
566.029	32772.11
566.228	32720.91
566.427	32430.1
566.625	32417.81
566.824	32516.11
567.023	32720.91
567.222	32411.67
567.42	32679.95
567.619	32184.34
567.818	32348.18
568.016	32423.95
568.215	32583.69
568.414	32299.03
568.612	32221.2
568.811	31727.64
569.01	32204.82
569.208	31739.93
569.407	32108.57
569.605	31848.47
569.804	32221.2
570.002	31336.48
570.201	31846.43
570.4	31664.16
570.598	31821.85
570.797	31735.84
570.995	31952.92
571.193	31375.39
571.392	31805.47
571.59	31096.87
571.789	31062.05
571.987	31391.78
572.186	31262.75
572.384	31191.08
572.582	31537.18
572.781	31514.66
572.979	30988.33
573.177	31213.6
573.376	31039.53
573.574	30556.21
573.772	31025.19
573.971	30791.72
574.169	30853.16
574.367	30656.56
574.565	30625.84
574.763	30427.18
574.962	30777.39
575.16	30244.91
575.358	30973.99
575.556	29927.48
575.754	30392.37
575.952	30398.51
576.151	30378.03
576.349	29874.23
576.547	29710.39
576.745	30240.82
576.943	29784.12
577.141	30007.35
577.339	29700.15
577.537	29427.77
577.735	29564.99
577.933	29530.17
578.131	29317.18
578.329	29556.8
578.527	29450.3
578.725	29550.65
578.923	29329.47
579.121	29040.71
579.319	29302.85
579.516	29587.52
579.714	29165.63
579.912	29059.14
580.11	28969.03
580.308	29046.85
580.506	28692.55
580.704	28653.64
580.901	28749.9
581.099	29022.28
581.297	28485.71
581.495	28424.27
581.692	28493.9
581.89	28684.36
582.088	28647.5
582.285	28305.49
582.483	28751.95
582.681	28371.02
582.878	28043.35
583.076	27693.15
583.274	28090.45
583.471	28235.86
583.669	27889.75
583.866	27687
584.064	28057.68
584.262	27551.84
584.459	28014.68
584.657	27920.47
584.854	27838.55
585.052	27207.78
585.249	27609.18
585.447	27621.47
585.644	27183.2
585.841	27338.85
586.039	27619.42
586.236	27160.67
586.434	27293.79
586.631	26959.97
586.828	26902.63
587.026	27140.19
587.223	26878.05
587.42	26697.83
587.618	26568.81
587.815	26359.92
588.012	26437.74
588.21	26552.43
588.407	26695.78
588.604	26157.17
588.801	25827.45
588.999	26198.13
589.196	26122.35
589.393	26411.12
589.59	26077.3
589.787	25817.21
589.984	25997.43
590.182	25641.08
590.379	25636.98
590.576	25540.73
590.773	25657.46
590.97	25542.78
591.167	25618.55
591.364	25290.88
591.561	25546.87
591.758	25415.8
591.955	25208.96
592.152	25550.97
592.349	24772.74
592.546	25028.74
592.743	25104.51
592.94	24895.62
593.137	24766.6
593.334	24971.39
593.531	24572.04
593.727	24930.44
593.924	24471.69
594.121	24322.19
594.318	24858.76
594.515	24242.32
594.712	24539.27
594.908	23943.31
595.105	24162.45
595.302	23986.32
595.499	23957.65
595.696	24154.26
595.892	23845.01
596.089	24017.04
596.286	23799.96
596.482	23689.37
596.679	23793.81
596.876	23550.1
597.072	23568.54
597.269	23576.73
597.466	23173.28
597.662	23218.33
597.859	23275.68
598.055	23214.24
598.252	23240.86
598.448	23117.98
598.645	22945.95
598.841	22833.32
599.038	22573.22
599.234	22765.73
599.431	22612.13
599.627	22528.17
599.824	22888.61
600.02	22374.57
600.217	22558.89
600.413	22423.72
600.609	22210.73
600.806	22134.96
601.002	22243.5
601.198	22186.16
601.395	22059.18
601.591	21876.91
601.787	21928.11
601.984	21680.31
602.18	22212.78
602.376	21706.93
602.572	21665.97
602.769	21629.11
602.965	21498.04
603.161	21545.14
603.357	21348.54
603.553	21477.56
603.75	21319.87
603.946	21289.15
604.142	21125.31
604.338	20979.9
604.534	21199.04
604.73	20689.09
604.926	20742.34
605.122	20996.29
605.318	20947.14
605.514	20641.99
605.71	20795.59
605.906	20553.93
606.102	20736.2
606.298	20897.99
606.494	20760.77
606.69	20586.69
606.886	20476.1
607.082	20168.91
607.278	20367.56
607.474	20041.93
607.67	20199.63
607.866	20127.95
608.062	20400.33
608.257	20168.91
608.453	20046.03
608.649	20095.18
608.845	19867.86
609.041	19888.34
609.236	20062.41
609.432	19800.27
609.628	19986.64
609.824	19640.53
610.019	19646.68
610.215	19671.25
610.411	19755.22
610.606	19523.8
610.802	19644.63
610.998	19448.02
611.193	19560.66
611.389	19249.37
611.584	19409.11
611.78	19372.25
611.976	19599.57
612.171	19488.98
612.367	19376.34
612.562	19192.03
612.758	19132.64
612.953	19026.14
613.149	19124.44
613.344	19011.81
613.539	19435.74
613.735	19046.62
613.93	18993.37
614.126	19079.39
614.321	18950.37
614.517	18774.24
614.712	18893.02
614.907	18976.99
615.103	19026.14
615.298	18645.22
615.493	18827.49
615.688	18411.75
615.884	18759.91
616.079	18571.49
616.274	18665.7
616.47	18389.22
616.665	18708.71
616.86	18297.06
617.055	18360.55
617.25	18587.88
617.445	18671.84
617.641	18196.71
617.836	18589.92
618.031	18106.6
618.226	18338.02
618.421	17957.1
618.616	18245.87
618.811	17770.74
619.006	18147.56
619.201	17688.82
619.396	17961.2
619.591	17330.42
619.786	17692.91
619.981	17449.21
620.176	17619.19
620.371	17506.55
620.566	17631.47
620.761	17019.13
620.956	17455.35
621.151	17152.25
621.346	17094.91
621.541	16756.99
621.735	17111.29
621.93	16744.7
622.125	16855.29
622.32	16429.32
622.515	16861.44
622.709	16218.38
622.904	16595.2
623.099	16285.96
623.294	16378.12
623.488	16206.09
623.683	16017.68
623.878	15790.35
624.072	15847.69
624.267	15722.77
624.462	15900.94
624.656	15511.83
624.851	15925.52
625.046	15452.44
625.24	15642.9
625.435	15542.55
625.629	15440.15
625.824	15304.98
626.018	15212.82
626.213	14803.23
626.407	14893.34
626.602	14805.28
626.796	14940.44
626.991	14936.35
627.185	14893.34
627.38	14561.57
627.574	14395.68
627.768	14262.57
627.963	14377.25
628.157	14268.71
628.352	14278.95
628.546	14223.65
628.74	14326.05
628.935	14018.86
629.129	13779.25
629.323	13836.59
629.517	13623.6
629.712	13955.37
629.906	13560.11
630.1	13678.9
630.294	13721.9
630.489	13214.01
630.683	13470
630.877	13336.88
631.071	13134.14
631.265	13205.81
631.459	13078.84
631.653	12781.88
631.848	13007.16
632.042	12886.33
632.236	12804.41
632.43	12396.87
632.624	12562.75
632.818	12677.44
633.012	12501.31
633.206	12392.77
633.4	12415.3
633.594	12362.05
633.788	12419.39
633.982	12360
634.176	12276.04
634.369	12048.71
634.563	12081.48
634.757	11882.83
634.951	11825.48
635.145	11897.16
635.339	11845.96
635.533	11764.04
635.726	11712.85
635.92	11491.66
636.114	11817.29
636.308	11540.82
636.501	11385.17
636.695	11434.32
636.889	11483.47
637.083	11204.95
637.276	11032.92
637.47	11256.15
637.664	11116.89
637.857	10948.95
638.051	11022.68
638.244	10969.43
638.438	10881.37
638.632	10850.65
638.825	10832.22
639.019	10719.58
639.212	10506.59
639.406	10531.17
639.599	10672.48
639.793	10670.43
639.986	10322.27
640.18	10324.32
640.373	10195.3
640.567	10162.53
640.76	10119.53
640.954	10080.61
641.147	9933.16
641.34	9867.63
641.534	9904.49
641.727	9955.69
641.92	9765.23
642.114	9691.5
642.307	9658.73
642.5	9607.53
642.694	9484.66
642.887	9646.44
643.08	9593.2
643.273	9298.29
643.467	9417.07
643.66	9347.44
643.853	9263.47
644.046	9232.76
644.239	9142.64
644.432	9269.62
644.626	9173.36
644.819	9058.68
645.012	9173.36
645.205	8925.56
645.398	8804.73
645.591	9013.62
645.784	8784.25
645.977	8659.32
646.17	8817.02
646.363	8673.66
646.556	8644.99
646.749	8763.77
646.942	8685.95
647.135	8509.82
647.328	8333.7
647.521	8497.53
647.714	8399.23
647.907	8470.91
648.099	8339.84
648.292	8243.59
648.485	8194.43
648.678	8001.93
648.871	7928.2
649.064	7987.59
649.256	7940.49
649.449	7960.97
649.642	7977.35
649.835	7979.4
650.027	7911.82
650.22	7827.85
650.413	7885.19
650.605	7741.83
650.798	7782.79
650.991	7795.08
651.183	7676.3
651.376	7580.04
651.568	7479.69
651.761	7522.7
651.954	7317.9
652.146	7471.5
652.339	7186.83
652.531	7330.19
652.724	7092.63
652.916	7401.87
653.109	7256.47
653.301	7152.02
653.494	7278.99
653.686	7049.62
653.879	7066
654.071	7061.91
654.263	7041.43
654.456	6920.6
654.648	7205.27
654.84	6674.84
655.033	6723.99
655.225	6836.63
655.417	6767
655.61	6721.95
655.802	6443.42
655.994	6685.08
656.186	6545.82
656.379	6582.68
656.571	6646.17
656.763	6472.09
656.955	6482.33
657.148	6590.88
657.34	6457.76
657.532	6257.06
657.724	6400.41
657.916	6291.87
658.108	6461.85
658.3	6250.91
658.492	6193.57
658.684	6138.27
658.876	6289.82
659.068	6166.95
659.26	6144.42
659.452	6046.12
659.644	6029.73
659.836	6019.49
660.028	6093.22
660.22	5945.77
660.412	6003.11
660.604	5810.6
660.796	5857.7
660.988	5753.26
661.18	5747.11
661.372	5677.48
661.563	5802.41
661.755	5763.5
661.947	5685.67
662.139	5700.01
662.331	5558.7
662.522	5554.6
662.714	5587.37
662.906	5482.92
663.097	5634.47
663.289	5290.42
663.481	5347.76
663.673	5558.7
663.864	5482.92
664.056	5482.92
664.247	5366.19
664.439	5312.94
664.631	5446.06
664.822	5196.21
665.014	5306.8
665.205	5282.22
665.397	5196.21
665.588	5224.88
665.78	5157.3
665.971	5120.43
666.163	5042.61
666.354	5056.95
666.546	5102
666.737	4975.03
666.929	4948.4
667.12	4946.36
667.311	4997.56
667.503	4944.31
667.694	4903.35
667.885	4743.61
668.077	4981.17
668.268	4749.75
668.459	4759.99
668.651	4776.38
668.842	4856.25
669.033	4731.32
669.224	4737.46
669.416	4669.88
669.607	4673.98
669.798	4526.52
669.989	4663.74
670.18	4706.74
670.371	4551.1
670.563	4598.2
670.754	4563.39
670.945	4557.24
671.136	4514.24
671.327	4415.93
671.518	4452.8
671.709	4403.64
671.9	4364.73
672.091	4442.56
672.282	4483.52
672.473	4299.2
672.664	4518.33
672.855	4313.53
673.046	4338.11
673.237	4356.54
673.428	4268.48
673.619	4354.49
673.809	4231.62
674	4194.75
674.191	4297.15
674.382	4262.33
674.573	4215.23
674.764	4202.94
674.954	3963.33
675.145	4233.66
675.336	4164.03
675.527	4032.96
675.717	4094.4
675.908	4106.69
676.099	4000.19
676.289	4051.39
676.48	4047.3
676.671	4080.07
676.861	4073.92
677.052	3883.46
677.243	4127.17
677.433	4045.25
677.624	4090.31
677.814	3953.09
678.005	3926.47
678.195	4022.72
678.386	3799.49
678.576	3998.15
678.767	3875.27
678.957	3877.32
679.148	3865.03
679.338	3819.97
679.529	3862.98
679.719	3772.87
679.909	3824.07
680.1	3680.71
680.29	3903.94
680.481	3748.29
680.671	3961.28
680.861	3693
681.052	3682.76
681.242	3858.89
681.432	3621.32
681.622	3731.91
681.813	3582.41
682.003	3748.29
682.193	3592.65
682.383	3783.11
682.573	3703.24
682.764	3674.57
682.954	3492.3
683.144	3596.75
683.334	3664.33
683.524	3584.46
683.714	3701.19
683.904	3430.86
684.094	3666.38
684.284	3486.15
684.474	3688.9
684.664	3574.22
684.854	3584.46
685.044	3461.58
685.234	3402.19
685.424	3451.34
685.614	3459.53
685.804	3545.55
685.994	3412.43
686.184	3447.24
686.374	3480.01
686.564	3432.91
686.753	3406.28
686.943	3193.3
687.133	3406.28
687.323	3211.73
687.513	3348.94
687.702	3195.34
687.892	3410.38
688.082	3281.36
688.272	3314.13
688.461	3312.08
688.651	3330.51
688.841	3209.68
689.03	3146.19
689.22	3191.25
689.41	3146.19
689.599	3219.92
689.789	3183.06
689.979	3230.16
690.168	3125.71
690.358	3105.23
690.547	3070.42
690.737	3121.62
690.926	3111.38
691.116	3084.75
691.305	3072.47
691.495	2929.11
691.684	3051.99
691.874	2900.44
692.063	3015.12
692.252	3041.75
692.442	3049.94
692.631	2879.96
692.82	3068.37
693.01	2750.93
693.199	2922.96
693.388	2941.4
693.578	2865.62
693.767	2800.09
693.956	2857.43
694.146	2884.05
694.335	2937.3
694.524	2898.39
694.713	2927.06
694.902	2841.04
695.092	2816.47
695.281	2703.83
695.47	2824.66
695.659	2826.71
695.848	2845.14
696.037	2705.88
696.226	2851.28
696.415	2814.42
696.604	2752.98
696.793	2658.78
696.982	2701.78
697.171	2812.37
697.36	2726.36
697.549	2693.59
697.738	2746.84
697.927	2716.12
698.116	2806.23
698.305	2632.15
698.494	2601.43
698.683	2623.96
698.872	2740.69
699.061	2785.75
699.25	2662.87
699.438	2742.74
699.627	2628.06
699.816	2671.06
700.005	2640.34
700.193	2652.63
700.382	2748.89
700.571	2705.88
700.76	2699.73
700.948	2677.21
701.137	2632.15
701.326	2595.29
701.514	2560.47
701.703	2609.62
701.892	2728.41
702.08	2623.96
702.269	2613.72
702.457	2646.49
702.646	2728.41
702.834	2693.59
703.023	2628.06
703.212	2613.72
703.4	2552.28
703.589	2562.52
703.777	2701.78
703.965	2576.86
704.154	2638.3
704.342	2685.4
704.531	2740.69
704.719	2691.54
704.907	2728.41
705.096	2613.72
705.284	2699.73
705.472	2587.1
705.661	2648.54
705.849	2632.15
706.037	2613.72
706.226	2593.24
706.414	2652.63
706.602	2519.51
706.79	2591.19
706.979	2648.54
707.167	2533.85
707.355	2572.76
707.543	2585.05
707.731	2570.71
707.919	2613.72
708.107	2484.7
708.296	2527.71
708.484	2632.15
708.672	2615.77
708.86	2591.19
709.048	2587.1
709.236	2496.99
709.424	2646.49
709.612	2587.1
709.8	2609.62
709.988	2605.53
710.176	2572.76
710.364	2474.46
710.551	2621.91
710.739	2517.47
710.927	2542.04
711.115	2585.05
711.303	2572.76
711.491	2453.98
711.679	2521.56
711.866	2671.06
712.054	2439.64
712.242	2542.04
712.43	2548.19
712.617	2517.47
712.805	2458.07
712.993	2505.18
713.181	2468.31
713.368	2572.76
713.556	2671.06
713.744	2505.18
713.931	2695.64
714.119	2449.88
714.306	2542.04
714.494	2539.99
714.682	2513.37
714.869	2566.62
715.057	2496.99
715.244	2464.22
715.432	2431.45
715.619	2544.09
715.807	2431.45
715.994	2529.75
716.182	2380.25
716.369	2451.93
716.556	2464.22
716.744	2410.97
716.931	2496.99
717.119	2482.65
717.306	2468.31
717.493	2537.95
717.681	2499.03
717.868	2447.83
718.055	2601.43
718.242	2537.95
718.43	2494.94
718.617	2441.69
718.804	2527.71
718.991	2382.3
719.179	2544.09
719.366	2486.75
719.553	2429.4
719.74	2419.16
719.927	2564.57
720.114	2419.16
720.301	2505.18
720.488	2443.74
720.676	2382.3
720.863	2312.67
721.05	2529.75
721.237	2363.87
721.424	2402.78
721.611	2302.43
721.798	2419.16
721.985	2351.58
722.172	2335.2
722.358	2320.86
722.545	2351.58
722.732	2312.67
722.919	2388.44
723.106	2355.68
723.293	2298.33
723.48	2419.16
723.667	2355.68
723.853	2329.05
724.04	2322.91
724.227	2417.12
724.414	2400.73
724.6	2228.7
724.787	2437.59
724.974	2263.52
725.161	2382.3
725.347	2232.8
725.534	2269.66
725.72	2329.05
725.907	2331.1
726.094	2423.26
726.28	2292.19
726.467	2320.86
726.653	2286.05
726.84	2269.66
727.027	2300.38
727.213	2320.86
727.4	2263.52
727.586	2329.05
727.773	2292.19
727.959	2288.09
728.145	2243.04
728.332	2175.45
728.518	2310.62
728.705	2331.1
728.891	2163.17
729.077	2148.83
729.264	2359.77
729.45	2357.72
729.636	2329.05
729.823	2351.58
730.009	2304.48
730.195	2269.66
730.382	2329.05
730.568	2240.99
730.754	2220.51
730.94	2226.65
731.126	2318.81
731.313	2292.19
731.499	2159.07
731.685	2279.9
731.871	2259.42
732.057	2193.89
732.243	2159.07
732.429	2232.8
732.615	2240.99
732.801	2286.05
732.987	2134.5
733.173	2181.6
733.359	2314.72
733.545	2236.89
733.731	2193.89
733.917	2204.13
734.103	2177.5
734.289	2251.23
734.475	2247.13
734.661	2208.22
734.847	2187.74
735.033	2171.36
735.219	2197.98
735.404	2222.56
735.59	2159.07
735.776	2300.38
735.962	2169.31
736.148	2089.44
736.333	2165.21
736.519	2046.43
736.705	2130.4
736.89	2083.3
737.076	2157.02
737.262	2028
737.447	2101.73
737.633	1962.47
737.819	2187.74
738.004	2062.82
738.19	2109.92
738.375	2066.91
738.561	2171.36
738.747	2060.77
738.932	2021.86
739.118	2048.48
739.303	2015.71
739.489	2064.86
739.674	2109.92
739.859	2042.34
740.045	2048.48
740.23	2071.01
740.416	1968.61
740.601	1933.79
740.786	1802.72
740.972	1933.79
741.157	2005.47
741.342	1790.44
741.528	1843.68
741.713	1898.98
741.898	1937.89
742.084	1872.36
742.269	1997.28
742.454	1960.42
742.639	1884.64
742.824	2058.72
743.01	1890.79
743.195	1907.17
743.38	1892.84
743.565	1874.4
743.75	1860.07
743.935	1903.07
744.12	1872.36
744.305	1669.61
744.49	1786.34
744.675	1802.72
744.86	1780.2
745.045	1901.03
745.23	1800.68
745.415	1788.39
745.6	1821.16
745.785	1661.41
745.97	1720.81
746.155	1622.5
746.34	1659.37
746.525	1692.13
746.71	1700.33
746.895	1696.23
747.079	1630.7
747.264	1604.07
747.449	1706.47
747.634	1712.61
747.819	1542.63
748.003	1622.5
748.188	1620.46
748.373	1669.61
748.557	1638.89
748.742	1565.16
748.927	1497.58
749.111	1538.54
749.296	1518.06
749.481	1573.35
749.665	1548.78
749.85	1542.63
750.034	1477.1
750.219	1454.57
750.404	1489.39
750.588	1497.58
750.773	1452.52
750.957	1358.32
751.141	1378.79
751.326	1497.58
751.51	1389.03
751.695	1429.99
751.879	1362.41
752.064	1473
752.248	1397.23
752.432	1460.71
752.617	1311.21
752.801	1354.22
752.985	1368.56
753.17	1335.79
753.354	1429.99
753.538	1264.11
753.722	1292.78
753.907	1257.96
754.091	1272.3
754.275	1331.69
754.459	1257.96
754.643	1208.81
754.828	1210.86
755.012	1337.84
755.196	1235.44
755.38	1309.16
755.564	1294.83
755.748	1286.64
755.932	1288.68
756.116	1225.2
756.3	1145.33
756.484	1266.16
756.668	1239.53
756.852	1055.22
757.036	1206.77
757.22	1126.89
757.404	1042.93
757.588	1198.57
757.772	1047.02
757.956	1124.85
758.14	1147.37
758.323	1083.89
758.507	1126.89
758.691	1122.8
758.875	1038.83
759.059	1161.71
759.242	1065.46
759.426	1071.6
759.61	1102.32
759.794	1065.46
759.977	1044.98
760.161	1133.04
760.345	1051.12
760.528	995.82
760.712	958.96
760.895	1047.02
761.079	963.06
761.263	952.82
761.446	1034.74
761.63	1090.03
761.813	977.39
761.997	985.58
762.18	940.53
762.364	952.82
762.547	920.05
762.731	1032.69
762.914	993.78
763.098	1016.3
763.281	932.34
763.464	989.68
763.648	961.01
763.831	928.24
764.015	1016.3
764.198	895.47
764.381	874.99
764.564	879.09
764.748	915.95
764.931	946.67
765.114	895.47
765.297	987.63
765.481	840.18
765.664	795.12
765.847	823.8
766.03	811.51
766.213	866.8
766.397	926.19
766.58	893.43
766.763	848.37
766.946	856.56
767.129	813.56
767.312	860.66
767.495	858.61
767.678	705.01
767.861	909.81
768.044	836.08
768.227	860.66
768.41	793.08
768.593	825.84
768.776	827.89
768.959	788.98
769.142	778.74
769.324	809.46
769.507	727.54
769.69	819.7
769.873	821.75
770.056	815.6
770.239	795.12
770.421	848.37
770.604	786.93
770.787	715.25
770.97	823.8
771.152	723.44
771.335	756.21
771.518	758.26
771.7	750.07
771.883	705.01
772.066	725.49
772.248	754.16
772.431	760.31
772.613	756.21
772.796	686.58
772.978	729.59
773.161	797.17
773.343	737.78
773.526	674.29
773.708	680.44
773.891	606.71
774.073	616.95
774.256	610.81
774.438	690.68
774.621	674.29
774.803	633.33
774.985	584.18
775.168	662.01
775.35	659.96
775.532	647.67
775.715	702.97
775.897	635.38
776.079	625.14
776.261	670.2
776.444	610.81
776.626	616.95
776.808	651.77
776.99	565.75
777.173	662.01
777.355	524.79
777.537	582.14
777.719	649.72
777.901	598.52
778.083	520.7
778.265	547.32
778.447	551.42
778.629	635.38
778.811	537.08
778.993	494.07
779.175	500.22
779.357	582.14
779.539	619
779.721	586.23
779.903	502.26
780.085	565.75
780.267	586.23
780.449	426.49
780.631	504.31
780.812	555.51
780.994	508.41
781.176	489.98
781.358	455.16
781.54	449.02
781.721	469.5
781.903	516.6
782.085	487.93
782.267	510.46
782.448	451.07
782.63	512.5
782.812	514.55
782.993	514.55
783.175	424.44
783.357	459.26
783.538	403.96
783.72	465.4
783.901	475.64
784.083	522.74
784.264	418.3
784.446	428.54
784.627	434.68
784.809	428.54
784.99	426.49
785.172	498.17
785.353	403.96
785.535	412.15
785.716	367.1
785.897	354.81
786.079	432.63
786.26	420.35
786.441	363
786.623	395.77
786.804	416.25
786.985	297.47
787.167	461.3
787.348	367.1
787.529	397.82
787.71	471.54
787.891	356.86
788.073	252.41
788.254	381.43
788.435	367.1
788.616	317.95
788.797	334.33
788.978	342.52
789.159	315.9
789.34	406.01
789.522	279.04
789.703	311.8
789.884	367.1
790.065	334.33
790.246	375.29
790.427	283.13
790.607	326.14
790.788	303.61
790.969	295.42
791.15	299.52
791.331	360.95
791.512	352.76
791.693	311.8
791.874	317.95
792.054	385.53
792.235	369.15
792.416	285.18
792.597	289.28
792.778	297.47
792.958	283.13
793.139	401.91
793.32	264.7
793.5	256.51
793.681	338.43
793.862	338.43
794.042	297.47
794.223	262.65
794.404	238.08
794.584	244.22
794.765	246.27
794.945	279.04
795.126	268.8
795.306	238.08
795.487	307.71
795.667	274.94
795.848	219.64
796.028	246.27
796.209	201.21
796.389	287.23
796.57	307.71
796.75	303.61
796.93	227.84
797.111	279.04
797.291	285.18
797.471	315.9
797.652	270.84
797.832	184.83
798.012	252.41
798.192	240.12
798.373	193.02
798.553	246.27
798.733	268.8
798.913	231.93
799.093	236.03
799.274	252.41
799.454	244.22
799.634	215.55
799.814	254.46
799.994	184.83
800.174	250.36
800.354	248.32
800.534	219.64
800.714	236.03
800.894	156.16
801.074	217.6
801.254	254.46
801.434	223.74
801.614	172.54
801.794	240.12
801.974	616.95
802.154	291.32
802.334	281.08
802.514	209.4
802.693	240.12
802.873	98.81
803.053	203.26
803.233	240.12
803.413	215.55
803.592	240.12
803.772	188.93
803.952	225.79
804.131	242.17
804.311	211.45
804.491	201.21
804.67	143.87
804.85	207.36
805.03	156.16
805.209	217.6
805.389	123.39
805.568	184.83
805.748	195.07
805.928	195.07
806.107	225.79
806.287	176.64
806.466	135.68
806.646	164.35
806.825	188.93
807.004	213.5
807.184	215.55
807.363	178.69
807.543	143.87
807.722	188.93
807.901	233.98
808.081	172.54
808.26	102.91
808.439	174.59
808.619	166.4
808.798	129.53
808.977	229.88
809.156	121.34
809.336	135.68
809.515	109.05
809.694	160.25
809.873	199.16
810.052	158.21
810.231	195.07
810.411	240.12
810.59	172.54
810.769	211.45
810.948	186.88
811.127	158.21
811.306	182.78
811.485	184.83
811.664	190.97
811.843	147.97
812.022	178.69
812.201	123.39
812.38	188.93
812.559	145.92
812.737	137.73
812.916	113.15
813.095	94.72
813.274	145.92
813.453	145.92
813.632	57.86
813.811	227.84
813.989	109.05
814.168	145.92
814.347	156.16
814.526	117.25
814.704	209.4
814.883	168.45
815.062	154.11
815.24	152.06
815.419	119.29
815.598	170.49
815.776	90.62
815.955	197.12
816.133	131.58
816.312	133.63
816.49	45.57
816.669	129.53
816.847	90.62
817.026	80.38
817.204	94.72
817.383	154.11
817.561	119.29
817.74	102.91
817.918	96.77
818.097	70.14
818.275	78.33
818.453	74.24
818.632	147.97
818.81	170.49
818.988	90.62
819.167	107.01
819.345	96.77
819.523	68.09
819.701	94.72
819.879	152.06
820.058	162.3
820.236	68.09
820.414	47.62
820.592	92.67
820.77	84.48
820.948	41.47
821.127	121.34
821.305	86.53
821.483	127.49
821.661	176.64
821.839	61.95
822.017	119.29
822.195	43.52
822.373	201.21
822.551	133.63
822.729	123.39
822.907	147.97
823.085	107.01
823.262	57.86
823.44	82.43
823.618	55.81
823.796	133.63
823.974	111.1
824.152	145.92
824.329	92.67
824.507	166.4
824.685	41.47
824.863	121.34
825.04	72.19
825.218	94.72
825.396	145.92
825.574	121.34
825.751	162.3
825.929	43.52
826.107	102.91
826.284	107.01
826.462	96.77
826.639	115.2
826.817	-7.68
826.994	29.18
827.172	29.18
827.349	117.25
827.527	121.34
827.704	74.24
827.882	92.67
828.059	100.86
828.237	109.05
828.414	90.62
828.591	-3.58
828.769	59.9
828.946	94.72
829.124	107.01
829.301	74.24
829.478	59.9
829.655	117.25
829.833	111.1
830.01	64
830.187	90.62
830.364	133.63
830.542	70.14
830.719	78.33
830.896	111.1
831.073	23.04
831.25	88.57
831.427	94.72
831.604	61.95
831.782	66.05
831.959	115.2
832.136	143.87
832.313	41.47
832.49	53.76
832.667	35.33
832.844	115.2
833.021	31.23
833.198	49.66
833.374	94.72
833.551	47.62
833.728	92.67
833.905	-38.4
834.082	92.67
834.259	94.72
834.436	123.39
834.612	45.57
834.789	70.14
834.966	39.42
835.143	90.62
835.319	33.28
835.496	57.86
835.673	31.23
835.85	104.96
836.026	57.86
836.203	88.57
836.38	39.42
836.556	29.18
836.733	-7.68
836.909	88.57
837.086	43.52
837.262	-9.73
837.439	84.48
837.616	51.71
837.792	27.14
837.968	98.81
838.145	4.61
838.321	119.29
838.498	53.76
838.674	92.67
838.851	90.62
839.027	31.23
839.203	45.57
839.38	45.57
839.556	23.04
839.732	111.1
839.909	53.76
840.085	88.57
840.261	70.14
840.437	76.29
840.614	92.67
840.79	70.14
840.966	68.09
841.142	66.05
841.318	18.94
841.494	64
841.671	18.94
841.847	16.9
842.023	16.9
842.199	-11.78
842.375	33.28
842.551	25.09
842.727	37.38
842.903	70.14
843.079	39.42
843.255	-13.82
843.431	107.01
843.607	78.33
843.783	-48.64
843.959	70.14
844.134	14.85
844.31	94.72
844.486	68.09
844.662	55.81
844.838	35.33
845.013	70.14
845.189	33.28
845.365	55.81
845.541	-9.73
845.716	86.53
845.892	61.95
846.068	8.7
846.244	102.91
846.419	49.66
846.595	20.99
846.77	-36.35
846.946	51.71
847.122	76.29
847.297	113.15
847.473	82.43
847.648	45.57
847.824	68.09
847.999	-7.68
848.175	23.04
848.35	-9.73
848.526	49.66
848.701	39.42
848.876	43.52
849.052	59.9
849.227	61.95
849.403	66.05
849.578	-36.35
849.753	39.42
849.929	70.14
850.104	-62.98
850.279	33.28
850.454	57.86
850.63	37.38
850.805	29.18
850.98	43.52
851.155	-32.26
851.33	74.24
851.505	57.86
851.681	104.96
851.856	51.71
852.031	12.8
852.206	27.14
852.381	-44.54
852.556	51.71
852.731	57.86
852.906	35.33
853.081	4.61
853.256	55.81
853.431	-71.17
853.606	59.9
853.781	10.75
853.956	-13.82
854.131	45.57
854.305	29.18
854.48	121.34
854.655	10.75
854.83	-103.93
855.005	45.57
855.18	76.29
855.354	57.86
855.529	80.38
855.704	45.57
855.879	27.14
856.053	6.66
856.228	-7.68
856.403	-3.58
856.577	-5.63
856.752	-17.92
856.926	51.71
857.101	14.85
857.276	23.04
857.45	88.57
857.625	20.99
857.799	49.66
857.974	98.81
858.148	55.81
858.323	111.1
858.497	4.61
858.672	76.29
858.846	31.23
859.02	39.42
859.195	27.14
859.369	29.18
859.543	72.19
859.718	20.99
859.892	53.76
860.066	66.05
860.241	-30.21
860.415	12.8
860.589	-3.58
860.763	25.09
860.938	70.14
861.112	-17.92
861.286	-17.92
861.46	33.28
861.634	29.18
861.808	25.09
861.982	27.14
862.157	10.75
862.331	41.47
862.505	23.04
862.679	-5.63
862.853	41.47
863.027	-71.17
863.201	111.1
863.375	43.52
863.549	41.47
863.722	82.43
863.896	47.62
864.07	35.33
864.244	10.75
864.418	55.81
864.592	70.14
864.766	14.85
864.939	39.42
865.113	12.8
865.287	59.9
865.461	12.8
865.634	-30.21
865.808	115.2
865.982	41.47
866.156	-65.02
866.329	-19.97
866.503	-15.87
866.676	55.81
866.85	-1.54
867.024	47.62
867.197	53.76
867.371	98.81
867.544	-44.54
867.718	68.09
867.891	16.9
868.065	-26.11
868.238	-1.54
868.412	-15.87
868.585	31.23
868.759	-1.54
868.932	45.57
869.105	-22.02
869.279	35.33
869.452	51.71
869.625	23.04
869.799	10.75
869.972	23.04
870.145	41.47
870.319	10.75
870.492	4.61
870.665	-42.5
870.838	23.04
871.011	-30.21
871.185	31.23
871.358	31.23
871.531	16.9
871.704	-24.06
871.877	-19.97
872.05	-22.02
872.223	55.81
872.396	23.04
872.569	72.19
872.742	4.61
872.915	25.09
873.088	-28.16
873.261	57.86
873.434	0.51
873.607	51.71
873.78	25.09
873.953	23.04
874.126	61.95
874.299	61.95
874.471	6.66
874.644	27.14
874.817	-13.82
874.99	10.75
875.163	39.42
875.335	66.05
875.508	35.33
875.681	29.18
875.853	18.94
876.026	-22.02
876.199	82.43
876.371	47.62
876.544	-32.26
876.717	18.94
876.889	-26.11
877.062	57.86
877.234	31.23
877.407	-34.3
877.579	31.23
877.752	-13.82
877.924	-24.06
878.097	57.86
878.269	-56.83
878.442	49.66
878.614	2.56
878.786	-28.16
878.959	-9.73
879.131	18.94
879.303	-26.11
879.476	20.99
879.648	35.33
879.82	12.8
879.993	20.99
880.165	0.51
880.337	20.99
880.509	-46.59
880.681	0.51
880.854	-60.93
881.026	6.66
881.198	45.57
881.37	-15.87
881.542	18.94
881.714	-15.87
881.886	-15.87
882.058	29.18
882.23	80.38
882.402	-40.45
882.574	-1.54
882.746	-46.59
882.918	47.62
883.09	47.62
883.262	2.56
883.434	8.7
883.606	49.66
883.778	66.05
883.95	10.75
884.122	51.71
884.293	31.23
884.465	4.61
884.637	20.99
884.809	25.09
884.98	-34.3
885.152	-30.21
885.324	-32.26
885.496	49.66
885.667	78.33
885.839	-17.92
886.011	47.62
886.182	37.38
886.354	74.24
886.525	-11.78
886.697	41.47
886.869	0.51
887.04	12.8
887.212	-42.5
887.383	86.53
887.555	-24.06
887.726	23.04
887.897	39.42
888.069	-1.54
888.24	53.76
888.412	25.09
888.583	-38.4
888.754	23.04
888.926	-15.87
889.097	0.51
889.268	-3.58
889.44	-32.26
889.611	53.76
889.782	25.09
889.953	102.91
890.125	12.8
890.296	-22.02
890.467	-44.54
890.638	37.38
890.809	61.95
890.98	66.05
891.151	-26.11
891.323	82.43
891.494	82.43
891.665	0.51
891.836	-19.97
892.007	-13.82
892.178	49.66
892.349	-15.87
892.52	-28.16
892.691	18.94
892.862	-1.54
893.032	2.56
893.203	35.33
893.374	76.29
893.545	53.76
893.716	-42.5
893.887	39.42
894.057	61.95
894.228	0.51
894.399	39.42
894.57	16.9
894.74	-38.4
894.911	-34.3
895.082	12.8
895.253	35.33
895.423	37.38
895.594	37.38
895.764	68.09
895.935	35.33
896.106	-3.58
896.276	-5.63
896.447	-3.58
896.617	8.7
896.788	6.66
896.958	86.53
897.129	4.61
897.299	20.99
897.47	23.04
897.64	55.81
897.81	45.57
897.981	14.85
898.151	-5.63
898.322	68.09
898.492	70.14
898.662	80.38
898.832	10.75
899.003	12.8
899.173	59.9
899.343	76.29
899.513	43.52
