Data from USB4F104151__38__12-00-49-992.txt Node

Date: Fri Mar 14 12:00:49 EDT 2025
User: louis
Spectrometer: USB4F10415
Trigger mode: 4
Integration Time (sec): 2.000000E-2
Scans to average: 1
Electric dark correction enabled: true
Nonlinearity correction enabled: false
Boxcar width: 0
XAxis mode: Wavelengths
Number of Pixels in Spectrum: 3648
>>>>>Begin Spectral Data<<<<<
178.204	-79.7
178.424	-79.7
178.644	-79.7
178.864	-167.76
179.084	-81.75
179.304	2.22
179.524	12.46
179.744	-20.31
179.964	53.42
180.184	-65.36
180.404	26.79
180.624	-30.55
180.844	20.65
181.064	-69.46
181.283	-8.02
181.503	8.36
181.723	69.8
181.943	-26.45
182.163	47.27
182.383	47.27
182.602	14.51
182.822	82.09
183.042	96.43
183.262	-18.26
183.482	20.65
183.701	10.41
183.921	14.51
184.141	-14.17
184.361	45.23
184.58	49.32
184.8	2.22
185.02	20.65
185.239	-18.26
185.459	51.37
185.679	-16.21
185.898	20.65
186.118	6.31
186.338	-36.69
186.557	98.47
186.777	10.41
186.997	30.89
187.216	30.89
187.436	73.9
187.655	71.85
187.875	22.7
188.095	82.09
188.314	59.56
188.534	10.41
188.753	71.85
188.973	53.42
189.192	53.42
189.412	32.94
189.631	73.9
189.851	0.17
190.07	57.51
190.29	-48.98
190.509	49.32
190.729	-3.93
190.948	121
191.168	100.52
191.387	59.56
191.607	-28.5
191.826	57.51
192.045	37.03
192.265	-18.26
192.484	69.8
192.704	34.99
192.923	8.36
193.142	125.1
193.362	28.84
193.581	18.6
193.8	32.94
194.02	57.51
194.239	41.13
194.458	-14.17
194.678	39.08
194.897	47.27
195.116	10.41
195.335	-32.6
195.555	14.51
195.774	39.08
195.993	41.13
196.212	8.36
196.432	-24.4
196.651	26.79
196.87	43.18
197.089	18.6
197.308	80.04
197.528	18.6
197.747	37.03
197.966	39.08
198.185	80.04
198.404	59.56
198.623	45.23
198.842	-12.12
199.062	-16.21
199.281	49.32
199.5	-16.21
199.719	22.7
199.938	-20.31
200.157	37.03
200.376	32.94
200.595	34.99
200.814	69.8
201.033	55.47
201.252	-42.84
201.471	28.84
201.69	32.94
201.909	80.04
202.128	12.46
202.347	-24.4
202.566	53.42
202.785	-28.5
203.004	-22.36
203.223	153.77
203.442	20.65
203.661	28.84
203.879	-46.93
204.098	37.03
204.317	8.36
204.536	32.94
204.755	71.85
204.974	49.32
205.193	18.6
205.411	108.71
205.63	47.27
205.849	30.89
206.068	-42.84
206.287	-46.93
206.505	-42.84
206.724	39.08
206.943	-26.45
207.162	20.65
207.381	71.85
207.599	-42.84
207.818	6.31
208.037	37.03
208.255	37.03
208.474	49.32
208.693	69.8
208.911	18.6
209.13	57.51
209.349	37.03
209.567	49.32
209.786	16.55
210.005	6.31
210.223	-32.6
210.442	14.51
210.661	73.9
210.879	41.13
211.098	108.71
211.316	41.13
211.535	39.08
211.753	20.65
211.972	-16.21
212.191	63.66
212.409	55.47
212.628	-8.02
212.846	10.41
213.065	14.51
213.283	20.65
213.502	28.84
213.72	55.47
213.938	10.41
214.157	47.27
214.375	28.84
214.594	49.32
214.812	-34.64
215.031	114.86
215.249	39.08
215.467	63.66
215.686	32.94
215.904	6.31
216.122	14.51
216.341	71.85
216.559	26.79
216.778	49.32
216.996	61.61
217.214	10.41
217.432	22.7
217.651	14.51
217.869	14.51
218.087	57.51
218.306	51.37
218.524	24.75
218.742	24.75
218.96	-5.97
219.179	67.75
219.397	6.31
219.615	102.57
219.833	-8.02
220.051	-26.45
220.27	39.08
220.488	45.23
220.706	18.6
220.924	-3.93
221.142	-18.26
221.36	67.75
221.578	37.03
221.796	26.79
222.015	28.84
222.233	20.65
222.451	49.32
222.669	-8.02
222.887	43.18
223.105	-67.41
223.323	55.47
223.541	-14.17
223.759	10.41
223.977	55.47
224.195	61.61
224.413	63.66
224.631	-8.02
224.849	71.85
225.067	0.17
225.285	-5.97
225.503	26.79
225.721	4.27
225.939	-8.02
226.157	30.89
226.375	51.37
226.592	45.23
226.81	67.75
227.028	141.48
227.246	106.67
227.464	34.99
227.682	24.75
227.9	90.28
228.117	2.22
228.335	84.14
228.553	8.36
228.771	63.66
228.989	32.94
229.206	80.04
229.424	0.17
229.642	39.08
229.86	-12.12
230.077	86.19
230.295	106.67
230.513	-10.07
230.731	84.14
230.948	65.71
231.166	77.99
231.384	24.75
231.601	-24.4
231.819	82.09
232.037	-24.4
232.254	18.6
232.472	24.75
232.689	20.65
232.907	84.14
233.125	39.08
233.342	20.65
233.56	55.47
233.777	10.41
233.995	-26.45
234.213	63.66
234.43	84.14
234.648	2.22
234.865	47.27
235.083	-1.88
235.3	71.85
235.518	73.9
235.735	16.55
235.953	67.75
236.17	45.23
236.388	30.89
236.605	2.22
236.822	77.99
237.04	4.27
237.257	-18.26
237.475	-5.97
237.692	61.61
237.909	-1.88
238.127	-10.07
238.344	12.46
238.562	77.99
238.779	32.94
238.996	49.32
239.214	34.99
239.431	26.79
239.648	65.71
239.865	84.14
240.083	-1.88
240.3	43.18
240.517	41.13
240.735	-14.17
240.952	71.85
241.169	67.75
241.386	-12.12
241.603	10.41
241.821	-5.97
242.038	55.47
242.255	108.71
242.472	39.08
242.689	0.17
242.907	110.76
243.124	-48.98
243.341	96.43
243.558	-5.97
243.775	-32.6
243.992	65.71
244.209	8.36
244.426	55.47
244.643	45.23
244.86	84.14
245.078	127.14
245.295	28.84
245.512	86.19
245.729	41.13
245.946	73.9
246.163	24.75
246.38	51.37
246.597	12.46
246.814	63.66
247.031	41.13
247.248	71.85
247.464	-34.64
247.681	45.23
247.898	-30.55
248.115	84.14
248.332	-34.64
248.549	57.51
248.766	127.14
248.983	57.51
249.2	0.17
249.417	47.27
249.633	67.75
249.85	73.9
250.067	67.75
250.284	8.36
250.501	32.94
250.717	65.71
250.934	2.22
251.151	20.65
251.368	-24.4
251.585	24.75
251.801	-16.21
252.018	22.7
252.235	53.42
252.451	8.36
252.668	4.27
252.885	24.75
253.102	39.08
253.318	10.41
253.535	-5.97
253.752	51.37
253.968	65.71
254.185	2.22
254.401	37.03
254.618	22.7
254.835	-22.36
255.051	90.28
255.268	49.32
255.484	-5.97
255.701	106.67
255.917	8.36
256.134	12.46
256.351	41.13
256.567	55.47
256.784	26.79
257	2.22
257.217	96.43
257.433	59.56
257.65	18.6
257.866	57.51
258.082	47.27
258.299	24.75
258.515	114.86
258.732	10.41
258.948	-71.51
259.165	51.37
259.381	28.84
259.597	-20.31
259.814	4.27
260.03	49.32
260.246	41.13
260.463	51.37
260.679	63.66
260.895	34.99
261.112	37.03
261.328	-1.88
261.544	127.14
261.761	47.27
261.977	-30.55
262.193	-40.79
262.409	26.79
262.626	55.47
262.842	80.04
263.058	8.36
263.274	98.47
263.49	43.18
263.707	43.18
263.923	24.75
264.139	14.51
264.355	-34.64
264.571	18.6
264.787	37.03
265.004	-16.21
265.22	10.41
265.436	39.08
265.652	-12.12
265.868	-14.17
266.084	-18.26
266.3	47.27
266.516	12.46
266.732	-14.17
266.948	-12.12
267.164	-28.5
267.38	92.33
267.596	37.03
267.812	141.48
268.028	65.71
268.244	-1.88
268.46	20.65
268.676	-48.98
268.892	88.23
269.108	-5.97
269.324	-14.17
269.54	45.23
269.756	45.23
269.972	-5.97
270.188	0.17
270.403	34.99
270.619	-51.03
270.835	53.42
271.051	84.14
271.267	49.32
271.483	116.9
271.698	86.19
271.914	49.32
272.13	18.6
272.346	71.85
272.562	-3.93
272.777	69.8
272.993	34.99
273.209	24.75
273.425	82.09
273.64	-83.8
273.856	-40.79
274.072	28.84
274.287	51.37
274.503	65.71
274.719	16.55
274.934	92.33
275.15	51.37
275.366	53.42
275.581	-18.26
275.797	104.62
276.012	-22.36
276.228	49.32
276.444	14.51
276.659	65.71
276.875	53.42
277.09	8.36
277.306	8.36
277.521	63.66
277.737	-10.07
277.952	45.23
278.168	28.84
278.383	14.51
278.599	8.36
278.814	39.08
279.03	8.36
279.245	61.61
279.461	-1.88
279.676	45.23
279.892	20.65
280.107	20.65
280.322	6.31
280.538	77.99
280.753	-10.07
280.969	75.95
281.184	84.14
281.399	32.94
281.615	135.34
281.83	20.65
282.045	55.47
282.26	61.61
282.476	65.71
282.691	77.99
282.906	102.57
283.122	104.62
283.337	43.18
283.552	30.89
283.767	37.03
283.983	69.8
284.198	0.17
284.413	71.85
284.628	73.9
284.843	100.52
285.058	4.27
285.274	34.99
285.489	-3.93
285.704	39.08
285.919	-14.17
286.134	-16.21
286.349	0.17
286.564	22.7
286.779	10.41
286.995	43.18
287.21	-5.97
287.425	24.75
287.64	34.99
287.855	92.33
288.07	-44.88
288.285	10.41
288.5	57.51
288.715	14.51
288.93	125.1
289.145	-44.88
289.36	61.61
289.575	63.66
289.79	41.13
290.004	-12.12
290.219	39.08
290.434	-75.6
290.649	14.51
290.864	32.94
291.079	-12.12
291.294	6.31
291.509	131.24
291.724	43.18
291.938	73.9
292.153	57.51
292.368	55.47
292.583	32.94
292.798	26.79
293.012	61.61
293.227	34.99
293.442	26.79
293.657	26.79
293.871	24.75
294.086	80.04
294.301	49.32
294.516	55.47
294.73	45.23
294.945	-8.02
295.16	8.36
295.374	61.61
295.589	98.47
295.804	82.09
296.018	75.95
296.233	12.46
296.447	43.18
296.662	14.51
296.877	104.62
297.091	8.36
297.306	-8.02
297.52	-36.69
297.735	67.75
297.949	-48.98
298.164	67.75
298.378	0.17
298.593	30.89
298.807	-3.93
299.022	14.51
299.236	94.38
299.451	22.7
299.665	53.42
299.88	84.14
300.094	2.22
300.309	-5.97
300.523	14.51
300.737	51.37
300.952	63.66
301.166	-18.26
301.381	10.41
301.595	0.17
301.809	14.51
302.024	73.9
302.238	37.03
302.452	96.43
302.667	45.23
302.881	57.51
303.095	96.43
303.309	45.23
303.524	37.03
303.738	43.18
303.952	16.55
304.166	82.09
304.381	37.03
304.595	34.99
304.809	-28.5
305.023	75.95
305.237	82.09
305.452	2.22
305.666	-24.4
305.88	-8.02
306.094	45.23
306.308	-46.93
306.522	8.36
306.736	16.55
306.95	0.17
307.164	24.75
307.379	55.47
307.593	110.76
307.807	61.61
308.021	22.7
308.235	43.18
308.449	-14.17
308.663	-14.17
308.877	77.99
309.091	-22.36
309.305	14.51
309.519	-16.21
309.733	77.99
309.947	-55.12
310.161	22.7
310.374	47.27
310.588	18.6
310.802	-12.12
311.016	39.08
311.23	53.42
311.444	-14.17
311.658	84.14
311.872	4.27
312.085	20.65
312.299	71.85
312.513	82.09
312.727	-34.64
312.941	55.47
313.154	77.99
313.368	20.65
313.582	43.18
313.796	96.43
314.009	84.14
314.223	96.43
314.437	14.51
314.651	22.7
314.864	39.08
315.078	37.03
315.292	-22.36
315.505	73.9
315.719	104.62
315.933	26.79
316.146	-10.07
316.36	6.31
316.573	88.23
316.787	59.56
317.001	10.41
317.214	12.46
317.428	43.18
317.641	10.41
317.855	16.55
318.068	45.23
318.282	37.03
318.495	65.71
318.709	106.67
318.922	43.18
319.136	65.71
319.349	-22.36
319.563	57.51
319.776	57.51
319.99	34.99
320.203	59.56
320.417	65.71
320.63	20.65
320.843	59.56
321.057	-3.93
321.27	18.6
321.483	37.03
321.697	90.28
321.91	127.14
322.124	18.6
322.337	-8.02
322.55	88.23
322.763	-55.12
322.977	84.14
323.19	51.37
323.403	-16.21
323.617	-36.69
323.83	41.13
324.043	26.79
324.256	57.51
324.469	45.23
324.683	118.95
324.896	43.18
325.109	32.94
325.322	55.47
325.535	80.04
325.748	73.9
325.962	55.47
326.175	88.23
326.388	20.65
326.601	59.56
326.814	37.03
327.027	-22.36
327.24	86.19
327.453	-26.45
327.666	92.33
327.879	65.71
328.092	73.9
328.305	18.6
328.518	45.23
328.731	69.8
328.944	59.56
329.157	-18.26
329.37	18.6
329.583	43.18
329.796	20.65
330.009	88.23
330.222	51.37
330.435	45.23
330.648	45.23
330.861	49.32
331.073	-3.93
331.286	-55.12
331.499	28.84
331.712	61.61
331.925	94.38
332.138	39.08
332.35	84.14
332.563	0.17
332.776	34.99
332.989	-8.02
333.202	-1.88
333.414	59.56
333.627	16.55
333.84	67.75
334.053	4.27
334.265	6.31
334.478	-14.17
334.691	53.42
334.903	32.94
335.116	32.94
335.329	75.95
335.541	8.36
335.754	-5.97
335.966	22.7
336.179	-18.26
336.392	4.27
336.604	100.52
336.817	28.84
337.029	57.51
337.242	45.23
337.454	-3.93
337.667	43.18
337.88	4.27
338.092	-14.17
338.305	18.6
338.517	10.41
338.729	10.41
338.942	82.09
339.154	61.61
339.367	-5.97
339.579	16.55
339.792	-3.93
340.004	100.52
340.217	65.71
340.429	53.42
340.641	16.55
340.854	43.18
341.066	4.27
341.278	24.75
341.491	57.51
341.703	41.13
341.915	-46.93
342.128	59.56
342.34	26.79
342.552	26.79
342.764	51.37
342.977	18.6
343.189	-22.36
343.401	71.85
343.613	-26.45
343.826	67.75
344.038	37.03
344.25	22.7
344.462	34.99
344.674	8.36
344.886	30.89
345.099	-16.21
345.311	-14.17
345.523	73.9
345.735	-53.08
345.947	2.22
346.159	133.29
346.371	71.85
346.583	-8.02
346.795	131.24
347.007	-26.45
347.219	80.04
347.431	51.37
347.643	84.14
347.855	55.47
348.067	34.99
348.279	-10.07
348.491	-3.93
348.703	49.32
348.915	59.56
349.127	4.27
349.339	26.79
349.551	10.41
349.763	14.51
349.975	41.13
350.187	127.14
350.399	90.28
350.61	41.13
350.822	51.37
351.034	6.31
351.246	77.99
351.458	53.42
351.669	41.13
351.881	39.08
352.093	43.18
352.305	77.99
352.517	24.75
352.728	100.52
352.94	10.41
353.152	69.8
353.363	-3.93
353.575	59.56
353.787	39.08
353.999	82.09
354.21	65.71
354.422	-44.88
354.633	-14.17
354.845	102.57
355.057	43.18
355.268	63.66
355.48	39.08
355.692	57.51
355.903	82.09
356.115	80.04
356.326	22.7
356.538	110.76
356.749	30.89
356.961	51.37
357.172	53.42
357.384	-26.45
357.595	57.51
357.807	41.13
358.018	20.65
358.23	51.37
358.441	96.43
358.653	10.41
358.864	59.56
359.075	71.85
359.287	63.66
359.498	37.03
359.709	43.18
359.921	-5.97
360.132	-1.88
360.344	2.22
360.555	45.23
360.766	75.95
360.977	30.89
361.189	51.37
361.4	14.51
361.611	86.19
361.823	77.99
362.034	4.27
362.245	16.55
362.456	10.41
362.667	51.37
362.879	43.18
363.09	94.38
363.301	172.2
363.512	12.46
363.723	26.79
363.935	22.7
364.146	69.8
364.357	57.51
364.568	37.03
364.779	-8.02
364.99	82.09
365.201	49.32
365.412	67.75
365.623	28.84
365.834	63.66
366.045	53.42
366.256	57.51
366.467	20.65
366.678	22.7
366.889	24.75
367.1	118.95
367.311	16.55
367.522	-22.36
367.733	94.38
367.944	118.95
368.155	98.47
368.366	37.03
368.577	82.09
368.788	51.37
368.999	45.23
369.209	80.04
369.42	168.1
369.631	45.23
369.842	28.84
370.053	26.79
370.264	26.79
370.474	-14.17
370.685	71.85
370.896	43.18
371.107	53.42
371.317	55.47
371.528	-20.31
371.739	155.82
371.95	43.18
372.16	39.08
372.371	47.27
372.582	34.99
372.792	67.75
373.003	69.8
373.214	47.27
373.424	80.04
373.635	2.22
373.846	106.67
374.056	4.27
374.267	77.99
374.477	10.41
374.688	100.52
374.898	51.37
375.109	69.8
375.319	67.75
375.53	82.09
375.74	14.51
375.951	123.05
376.161	2.22
376.372	86.19
376.582	75.95
376.793	43.18
377.003	90.28
377.214	-14.17
377.424	8.36
377.635	112.81
377.845	26.79
378.055	59.56
378.266	67.75
378.476	47.27
378.686	45.23
378.897	51.37
379.107	112.81
379.317	39.08
379.528	6.31
379.738	82.09
379.948	10.41
380.158	8.36
380.369	80.04
380.579	39.08
380.789	43.18
380.999	108.71
381.21	47.27
381.42	118.95
381.63	100.52
381.84	41.13
382.05	-38.74
382.261	129.19
382.471	92.33
382.681	75.95
382.891	63.66
383.101	161.96
383.311	37.03
383.521	22.7
383.731	98.47
383.941	82.09
384.151	67.75
384.361	14.51
384.571	61.61
384.781	61.61
384.991	114.86
385.201	75.95
385.411	137.38
385.621	2.22
385.831	53.42
386.041	100.52
386.251	-1.88
386.461	-16.21
386.671	73.9
386.881	51.37
387.091	88.23
387.301	88.23
387.511	75.95
387.72	75.95
387.93	26.79
388.14	-16.21
388.35	-5.97
388.56	84.14
388.769	104.62
388.979	16.55
389.189	37.03
389.399	125.1
389.609	41.13
389.818	96.43
390.028	43.18
390.238	137.38
390.447	6.31
390.657	6.31
390.867	94.38
391.076	51.37
391.286	69.8
391.496	71.85
391.705	47.27
391.915	90.28
392.125	69.8
392.334	37.03
392.544	108.71
392.753	49.32
392.963	73.9
393.172	69.8
393.382	57.51
393.591	67.75
393.801	100.52
394.01	82.09
394.22	34.99
394.429	145.58
394.639	168.1
394.848	49.32
395.058	84.14
395.267	77.99
395.477	112.81
395.686	47.27
395.895	94.38
396.105	141.48
396.314	104.62
396.524	47.27
396.733	49.32
396.942	14.51
397.152	92.33
397.361	145.58
397.57	69.8
397.78	-14.17
397.989	127.14
398.198	133.29
398.407	82.09
398.617	94.38
398.826	80.04
399.035	41.13
399.244	121
399.453	127.14
399.663	100.52
399.872	96.43
400.081	88.23
400.29	116.9
400.499	0.17
400.708	135.34
400.917	84.14
401.127	73.9
401.336	77.99
401.545	145.58
401.754	127.14
401.963	166.06
402.172	59.56
402.381	116.9
402.59	55.47
402.799	92.33
403.008	104.62
403.217	125.1
403.426	159.91
403.635	73.9
403.844	92.33
404.053	164.01
404.262	129.19
404.471	133.29
404.68	198.82
404.888	155.82
405.097	112.81
405.306	196.78
405.515	176.3
405.724	49.32
405.933	190.63
406.142	172.2
406.35	170.15
406.559	213.16
406.768	241.83
406.977	182.44
407.185	161.96
407.394	241.83
407.603	135.34
407.812	280.74
408.02	219.3
408.229	235.69
408.438	258.21
408.646	147.62
408.855	237.74
409.064	270.5
409.272	235.69
409.481	264.36
409.69	317.61
409.898	221.35
410.107	268.45
410.315	247.97
410.524	241.83
410.733	239.78
410.941	225.45
411.15	350.37
411.358	333.99
411.567	346.28
411.775	323.75
411.984	327.85
412.192	403.62
412.401	348.33
412.609	405.67
412.818	397.48
413.026	438.44
413.234	485.54
413.443	510.11
413.651	469.16
413.86	512.16
414.068	592.03
414.276	522.4
414.485	460.96
414.693	516.26
414.901	589.99
415.11	686.24
415.318	647.33
415.526	676
415.734	581.79
415.943	692.38
416.151	755.87
416.359	716.96
416.567	817.31
416.776	852.13
416.984	907.42
417.192	899.23
417.4	893.09
417.608	895.13
417.817	856.22
418.025	923.8
418.233	1118.36
418.441	1089.69
418.649	1048.73
418.857	1128.6
419.065	1144.99
419.273	1231
419.481	1249.43
419.689	1294.49
419.897	1335.45
420.105	1370.26
420.313	1333.4
420.521	1429.65
420.729	1431.7
420.937	1443.99
421.145	1710.22
421.353	1691.79
421.561	1718.42
421.769	1702.03
421.977	1820.81
422.185	1814.67
422.393	1910.93
422.601	2123.91
422.809	1958.03
423.017	2048.14
423.224	2076.81
423.432	2238.6
423.64	2199.69
423.848	2437.25
424.056	2369.67
424.263	2533.51
424.471	2566.28
424.679	2605.19
424.887	2742.4
425.094	2818.18
425.302	2803.84
425.51	2928.77
425.718	2973.82
425.925	3121.28
426.133	3221.63
426.341	3254.39
426.548	3375.22
426.756	3389.56
426.964	3467.38
427.171	3817.58
427.379	3911.79
427.586	4012.14
427.794	3969.13
428.001	4120.68
428.209	4399.21
428.417	4345.96
428.624	4505.7
428.832	4724.83
429.039	4530.28
429.247	4573.28
429.454	5138.52
429.662	5179.48
429.869	4894.82
430.076	5466.2
430.284	5218.4
430.491	5515.35
430.699	5740.63
430.906	5843.03
431.114	5892.18
431.321	6228.04
431.528	6074.45
431.736	6545.48
431.943	6914.11
432.15	6725.7
432.358	6817.86
432.565	7067.71
432.772	7077.95
432.979	7370.81
433.187	7632.95
433.394	7614.52
433.601	8253.48
433.808	8101.94
434.016	8087.6
434.223	8290.35
434.43	9033.76
434.637	8853.54
434.844	9357.34
435.052	9721.88
435.259	9525.27
435.466	9578.52
435.673	9535.51
435.88	10154
436.087	10586.12
436.294	10756.1
436.501	10504.2
436.708	10653.7
436.915	10921.99
437.122	11612.15
437.329	11606.01
437.537	11673.59
437.743	11972.6
437.95	11986.93
438.157	12627.95
438.364	12828.65
438.571	13078.5
438.778	13180.9
438.985	14340.05
439.192	13768.66
439.399	13907.93
439.606	13826.01
439.813	14890.95
440.02	15595.45
440.227	15208.39
440.433	15116.23
440.64	15368.13
440.847	15585.21
441.054	15970.23
441.261	16668.59
441.467	16676.78
441.674	17100.71
441.881	17866.65
442.088	17680.28
442.294	17547.17
442.501	17917.85
442.708	18253.72
442.914	19148.68
443.121	19744.64
443.328	19285.89
443.534	20782.96
443.741	19992.44
443.948	19844.99
444.154	21600.1
444.361	21067.63
444.568	21348.2
444.774	21423.97
444.981	21587.81
445.187	22243.16
445.394	23103.31
445.6	22947.66
445.807	25120.56
446.013	24000.32
446.22	24346.42
446.426	25474.85
446.633	25784.1
446.839	26445.59
447.046	25300.78
447.252	26812.18
447.459	26656.53
447.665	26713.88
447.871	28129.02
448.078	29341.42
448.284	27680.52
448.491	28319.48
448.697	29515.5
448.903	29646.57
449.11	30224.09
449.316	29744.87
449.522	29994.72
449.728	31309.52
449.935	30996.18
450.141	31133.39
450.347	31876.8
450.553	30342.88
450.76	31334.09
450.966	32181.95
451.172	31985.35
451.378	32595.64
451.584	32177.86
451.791	32814.77
451.997	32638.65
452.203	33296.05
452.409	33300.14
452.615	33076.91
452.821	31663.82
453.027	31555.27
453.233	33023.67
453.44	31966.91
453.646	31891.14
453.852	32315.07
454.058	32790.2
454.264	31629
454.47	32589.5
454.676	31968.96
454.882	32915.12
455.088	29861.6
455.294	30277.34
455.5	30650.07
455.705	30832.34
455.911	29740.77
456.117	29110
456.323	28415.74
456.529	26877.71
456.735	28456.7
456.941	27535.11
457.147	26670.87
457.352	26341.14
457.558	25855.78
457.764	25990.94
457.97	25669.41
458.176	25251.63
458.381	24893.23
458.587	23459.65
458.793	23676.74
458.999	22660.94
459.204	24115
459.41	23461.7
459.616	21821.28
459.821	21821.28
460.027	21544.8
460.233	21217.13
460.438	20234.1
460.644	20399.99
460.85	19500.93
461.055	19261.32
461.261	19025.8
461.466	17807.26
461.672	17387.43
461.878	18511.76
462.083	17141.67
462.289	16967.59
462.494	16752.56
462.7	15951.8
462.905	15556.54
463.111	16086.97
463.316	15869.88
463.522	15820.73
463.727	15902.65
463.932	15452.09
464.138	15294.4
464.343	15744.95
464.549	15175.62
464.754	15699.9
464.959	15544.25
465.165	15241.15
465.37	14739.4
465.575	14444.49
465.781	15155.14
465.986	14864.33
466.191	14258.13
466.397	14051.28
466.602	13397.98
466.807	14055.38
467.012	13977.56
467.218	14082
467.423	13766.62
467.628	13701.08
467.833	14200.79
468.038	14008.28
468.244	13643.74
468.449	14067.67
468.654	13672.41
468.859	13727.71
469.064	13551.58
469.269	13015.01
469.474	13182.95
469.679	13344.74
469.885	12885.99
470.09	12822.5
470.295	12947.43
470.5	12640.23
470.705	12834.79
470.91	12488.68
471.115	11988.98
471.32	12349.42
471.525	12433.39
471.73	12019.7
471.935	11913.2
472.139	11714.55
472.344	11751.42
472.549	11669.5
472.754	11702.26
472.959	11196.42
473.164	11075.59
473.369	10887.17
473.574	11266.05
473.778	11159.55
473.983	10938.37
474.188	11014.15
474.393	10530.83
474.598	10625.03
474.802	10526.73
475.007	10416.14
475.212	10526.73
475.417	10057.75
475.621	9955.35
475.826	10031.12
476.031	9758.74
476.235	9674.78
476.44	9699.35
476.645	9586.71
476.849	9762.84
477.054	9551.9
477.259	9412.64
477.463	9392.16
477.668	9220.13
477.872	9271.33
478.077	9187.36
478.282	8904.74
478.486	8785.96
478.691	8716.33
478.895	8917.03
479.1	8767.52
479.304	8695.85
479.509	8405.03
479.713	8626.22
479.918	8351.79
480.122	8149.04
480.326	8329.26
480.531	8448.04
480.735	8097.84
480.94	8273.96
481.144	8525.86
481.348	8177.71
481.553	8208.43
481.757	8042.54
481.961	8106.03
482.166	8411.18
482.37	8157.23
482.574	8112.17
482.778	7825.46
482.983	8060.98
483.187	8099.89
483.391	8241.2
483.595	7870.51
483.8	7833.65
484.004	8056.88
484.208	7979.06
484.412	8155.18
484.616	7944.24
484.821	8187.95
485.025	7766.07
485.229	7919.67
485.433	7897.14
485.637	8007.73
485.841	7893.04
486.045	7880.75
486.249	8157.23
486.453	7852.08
486.657	7958.58
486.861	8136.75
487.065	7784.5
487.269	7950.39
487.473	7864.37
487.677	7997.49
487.881	8155.18
488.085	7923.76
488.289	7921.71
488.493	8017.97
488.697	8001.58
488.901	8138.8
489.105	7948.34
489.309	7979.06
489.512	8198.19
489.716	8243.24
489.92	8005.68
490.124	8022.06
490.328	8128.56
490.531	7934
490.735	8175.66
490.939	8226.86
491.143	7966.77
491.346	8288.3
491.55	8380.46
491.754	8263.72
491.958	8478.76
492.161	8345.64
492.365	8536.1
492.569	8445.99
492.772	8351.79
492.976	8484.91
493.18	8476.71
493.383	8626.22
493.587	8489
493.79	8765.48
493.994	8716.33
494.197	8861.73
494.401	8620.07
494.605	8847.4
494.808	8833.06
495.012	9013.28
495.215	8996.9
495.419	9158.69
495.622	9166.88
495.825	9134.11
496.029	9265.18
496.232	9547.8
496.436	9336.86
496.639	9685.01
496.843	9607.19
497.046	9678.87
497.249	9840.66
497.453	9877.52
497.656	10215.44
497.859	9891.86
498.063	10000.4
498.266	10440.72
498.469	10604.55
498.673	10295.31
498.876	10446.86
499.079	10764.29
499.282	10680.33
499.485	10723.34
499.689	11010.05
499.892	11044.87
500.095	11161.6
500.298	11255.81
500.501	11153.41
500.705	11343.87
500.908	11665.4
501.111	11683.83
501.314	11876.34
501.517	12052.47
501.72	12171.25
501.923	12128.24
502.126	12367.85
502.329	12818.41
502.532	12568.55
502.735	12959.72
502.938	12765.16
503.141	12976.1
503.344	13256.67
503.547	13133.79
503.75	13481.95
503.953	13449.18
504.156	13723.61
504.359	13764.57
504.562	13969.37
504.765	14254.03
504.968	14127.06
505.17	14413.77
505.373	14538.7
505.576	14835.66
505.779	14895.05
505.982	14895.05
506.185	15462.33
506.387	15120.32
506.59	15310.79
506.793	16140.21
506.996	15454.14
507.198	16070.58
507.401	16058.29
507.604	16240.56
507.807	16394.16
508.009	16535.47
508.212	16570.29
508.415	16932.78
508.617	17149.86
508.82	17203.11
509.022	17203.11
509.225	17737.63
509.428	17559.45
509.63	17784.73
509.833	17846.17
510.035	18337.68
510.238	18188.18
510.44	18382.74
510.643	18597.77
510.845	18950.03
511.048	18857.87
511.25	19072.9
511.453	19451.78
511.655	19963.77
511.858	19548.03
512.06	19720.06
512.262	20201.33
512.465	19672.96
512.667	20180.85
512.87	20373.36
513.072	20514.67
513.274	20971.37
513.477	21026.67
513.679	21124.97
513.881	21636.96
514.084	21981.02
514.286	22001.5
514.488	21600.1
514.69	22499.16
514.893	22073.18
515.095	22288.21
515.297	22658.9
515.499	22456.15
515.701	23240.52
515.904	23334.73
516.106	23207.75
516.308	23738.18
516.51	23729.98
516.712	23904.06
516.914	24190.78
517.116	24414.01
517.318	24360.76
517.52	24616.76
517.722	24819.5
517.925	25153.32
518.127	25188.14
518.329	25411.37
518.531	25073.45
518.733	25802.53
518.935	26248.99
519.136	26111.77
519.338	26269.47
519.54	26146.59
519.742	26730.26
519.944	26748.69
520.146	27272.97
520.348	27275.02
520.55	27680.52
520.752	27619.08
520.954	28196.6
521.155	28051.2
521.357	28208.89
521.559	28448.5
521.761	28540.66
521.963	28657.4
522.164	28815.09
522.366	28868.34
522.568	29310.7
522.77	29232.88
522.971	29621.99
523.173	29413.1
523.375	29474.54
523.576	29355.75
523.778	29695.72
523.98	30439.13
524.181	30529.24
524.383	30381.79
524.584	30521.05
524.786	30768.85
524.988	30596.82
525.189	30918.35
525.391	31311.56
525.592	30897.88
525.794	31303.37
525.995	31129.3
526.197	31043.28
526.398	31215.31
526.6	31889.09
526.801	31659.72
527.003	31481.55
527.204	31997.63
527.406	32063.17
527.607	31641.29
527.808	32204.48
528.01	31663.82
528.211	31903.43
528.412	32638.65
528.614	32440
528.815	32906.93
529.016	32923.32
529.218	32306.88
529.419	32677.56
529.62	32632.5
529.822	32847.54
530.023	32792.25
530.224	32706.23
530.425	32523.96
530.626	32591.55
530.828	32474.81
531.029	33386.16
531.23	32927.41
531.431	32978.61
531.632	32837.3
531.833	33294
532.035	33015.47
532.236	32976.56
532.437	33232.56
532.638	33021.62
532.839	33386.16
533.04	33412.78
533.241	33277.61
533.442	33509.04
533.643	32786.1
533.844	33021.62
534.045	33148.59
534.246	32618.17
534.447	33500.84
534.648	32937.65
534.849	33322.67
535.05	32728.76
535.251	32896.69
535.451	33029.81
535.652	33617.58
535.853	32990.9
536.054	33177.26
536.255	33658.54
536.456	32763.57
536.657	33402.54
536.857	33101.49
537.058	32747.19
537.259	32886.45
537.46	33222.32
537.66	33070.77
537.861	33250.99
538.062	32935.6
538.263	33085.11
538.463	32906.93
538.664	32857.78
538.865	33177.26
539.065	33183.41
539.266	32673.46
539.466	33324.72
539.667	32595.64
539.868	33386.16
540.068	32630.46
540.269	32960.18
540.469	32958.13
540.67	32972.47
540.87	32343.74
541.071	32571.07
541.271	33066.67
541.472	32851.64
541.672	32640.7
541.873	32675.51
542.073	32333.5
542.274	32966.32
542.474	32796.34
542.675	32495.29
542.875	32990.9
543.075	32493.24
543.276	32562.87
543.476	32939.7
543.676	32599.74
543.877	32831.16
544.077	32634.55
544.277	32249.53
544.478	32534.2
544.678	32329.41
544.878	32515.77
545.078	32566.97
545.279	32245.44
545.479	32448.19
545.679	32538.3
545.879	32394.94
546.079	32444.09
546.28	32378.56
546.48	32577.21
546.68	32425.66
546.88	32325.31
547.08	32755.38
547.28	32532.15
547.48	32435.9
547.68	32333.5
547.88	31899.33
548.081	32487.1
548.281	32286.4
548.481	32126.66
548.681	32407.23
548.881	32247.49
549.081	32122.56
549.28	32151.23
549.48	32188.1
549.68	32034.5
549.88	32433.85
550.08	32341.69
550.28	32100.03
550.48	32188.1
550.68	32237.25
550.88	31860.42
551.08	32302.78
551.279	32011.97
551.479	31989.44
551.679	32069.31
551.879	31811.27
552.079	32138.94
552.278	31864.52
552.478	32020.16
552.678	31934.15
552.878	32421.56
553.077	31715.01
553.277	31506.12
553.477	32374.46
553.676	31715.01
553.876	31755.97
554.076	31907.52
554.275	31610.57
554.475	31223.5
554.674	31692.49
554.874	31911.62
555.074	31588.04
555.273	31792.84
555.473	32038.59
555.672	31532.75
555.872	31434.44
556.071	31688.39
556.271	31891.14
556.47	31309.52
556.67	31342.28
556.869	31698.63
557.068	31735.49
557.268	31248.08
557.467	31379.15
557.667	31366.86
557.866	31358.67
558.065	31530.7
558.265	31071.95
558.464	31094.48
558.663	31667.91
558.863	30723.8
559.062	31633.1
559.261	30963.41
559.461	31551.18
559.66	30631.64
559.859	31231.69
560.058	30920.4
560.258	30981.84
560.457	30885.59
560.656	30885.59
560.855	30865.11
561.054	30838.48
561.253	30744.28
561.453	30901.97
561.652	30637.78
561.851	30662.36
562.05	30582.49
562.249	30621.4
562.448	30813.91
562.647	30392.03
562.846	30846.68
563.045	30637.78
563.244	30203.61
563.443	30641.88
563.642	30179.04
563.841	30613.21
564.04	30349.02
564.239	30709.46
564.438	30279.39
564.637	29933.28
564.836	30324.44
565.035	30041.82
565.234	29861.6
565.432	29920.99
565.631	29816.55
565.83	29779.68
566.029	29722.34
566.228	29593.32
566.427	29662.95
566.625	29492.97
566.824	29193.97
567.023	29634.28
567.222	29349.61
567.42	29595.37
567.619	29505.26
567.818	29290.22
568.016	29263.6
568.215	29294.32
568.414	29249.26
568.612	29609.7
568.811	28796.66
569.01	29040.37
569.208	28933.87
569.407	29196.01
569.605	28712.69
569.804	28825.33
570.002	28557.05
570.201	28811
570.4	28827.38
570.598	28380.92
570.797	28495.61
570.995	28565.24
571.193	27946.75
571.392	28731.12
571.59	28665.59
571.789	28540.66
571.987	28092.16
572.186	28081.92
572.384	28079.87
572.582	28212.99
572.781	28155.65
572.979	27559.69
573.177	27862.79
573.376	27977.47
573.574	27735.81
573.772	28024.58
573.971	27821.83
574.169	27528.97
574.367	27229.96
574.565	27721.48
574.763	27434.76
574.962	27571.97
575.16	26976.02
575.358	27270.92
575.556	27084.56
575.754	27295.5
575.952	26900.24
576.151	27221.77
576.349	26883.86
576.547	26869.52
576.745	26984.21
576.943	26820.37
577.141	26701.59
577.339	26810.13
577.537	26769.17
577.735	26593.04
577.933	26615.57
578.131	26736.4
578.329	26373.91
578.527	26267.42
578.725	26265.37
578.923	26470.17
579.121	26214.17
579.319	25911.07
579.516	26291.99
579.714	26246.94
579.912	25753.38
580.11	25935.65
580.308	25988.89
580.506	25665.32
580.704	25460.52
580.901	25521.96
581.099	25683.75
581.297	25294.63
581.495	25339.69
581.692	25624.36
581.89	25132.84
582.088	25671.46
582.285	25253.67
582.483	25288.49
582.681	25063.21
582.878	24985.39
583.076	24733.49
583.274	25167.66
583.471	24516.4
583.669	25022.25
583.866	24428.34
584.064	24934.19
584.262	24327.99
584.459	24772.4
584.657	24690.48
584.854	24602.42
585.052	24112.95
585.249	24686.39
585.447	24414.01
585.644	24016.7
585.841	24278.84
586.039	24325.94
586.236	23996.22
586.434	23875.39
586.631	23746.37
586.828	23877.44
587.026	23945.02
587.223	23697.22
587.42	24049.47
587.618	23801.66
587.815	23273.29
588.012	23406.41
588.21	23455.56
588.407	23420.74
588.604	23283.53
588.801	23117.64
588.999	23197.51
589.196	23088.97
589.393	23154.51
589.59	22927.18
589.787	22841.17
589.984	22992.72
590.182	22599.51
590.379	22558.55
590.576	22632.27
590.773	22785.87
590.97	22503.25
591.167	22622.03
591.364	22157.14
591.561	22259.54
591.758	22136.66
591.955	22105.95
592.152	22349.65
592.349	22167.38
592.546	22124.38
592.743	22241.11
592.94	21768.03
593.137	21700.45
593.334	21870.43
593.531	21667.68
593.727	21604.19
593.924	21868.38
594.121	21692.26
594.318	21700.45
594.515	21165.93
594.712	21641.06
594.908	20995.95
595.105	21364.58
595.302	21206.89
595.499	21104.49
595.696	21120.87
595.892	20901.74
596.089	21149.54
596.286	21198.7
596.482	21020.52
596.679	20653.94
596.876	20678.51
597.072	20844.4
597.269	20555.63
597.466	20701.04
597.662	20436.85
597.859	20293.49
598.055	20621.17
598.252	20189.05
598.448	20354.93
598.645	20328.31
598.841	20150.14
599.038	20238.2
599.234	20174.71
599.431	19953.53
599.627	19822.46
599.824	20019.07
600.02	19271.56
600.217	19660.67
600.413	19777.4
600.609	19675.01
600.806	19474.31
601.002	19539.84
601.198	19234.69
601.395	19507.07
601.591	19146.63
601.787	19246.98
601.984	19038.09
602.18	19437.44
602.376	18835.34
602.572	19300.23
602.769	19117.96
602.965	18935.69
603.161	18861.96
603.357	19021.7
603.553	18880.39
603.75	18597.77
603.946	18522
604.142	18814.86
604.338	18562.96
604.534	18691.98
604.73	18145.17
604.926	18309.01
605.122	18372.5
605.318	18249.62
605.514	18073.49
605.71	18034.58
605.906	18112.41
606.102	18130.84
606.298	18081.69
606.494	18089.88
606.69	17792.92
606.886	18139.03
607.082	17569.69
607.278	17948.57
607.474	17508.26
607.67	17764.25
607.866	17409.95
608.062	17649.57
608.257	17827.74
608.453	17487.78
608.649	17817.5
608.845	17373.09
609.041	17401.76
609.236	17473.44
609.432	17293.22
609.628	17416.1
609.824	17416.1
610.019	17162.15
610.215	17227.68
610.411	17004.46
610.606	17055.65
610.802	17262.5
610.998	17143.72
611.193	16943.02
611.389	16787.37
611.584	17153.96
611.78	16803.75
611.976	16740.27
612.171	16873.39
612.367	16746.41
612.562	16793.51
612.758	16680.88
612.953	16623.53
613.149	16775.08
613.344	16574.38
613.539	16689.07
613.735	16863.15
613.93	16496.56
614.126	16758.7
614.321	16869.29
614.517	16533.42
614.712	16523.18
614.907	16267.19
615.103	16398.26
615.298	16306.1
615.493	16428.98
615.688	16330.67
615.884	16424.88
616.079	15996.85
616.274	16414.64
616.47	16211.89
616.665	16205.75
616.86	15951.8
617.055	15906.74
617.25	16043.96
617.445	16170.93
617.641	15828.92
617.836	16187.32
618.031	15704
618.226	15747
618.421	15501.25
618.616	15951.8
618.811	15628.22
619.006	15736.76
619.201	15341.5
619.396	15730.62
619.591	15122.37
619.786	15349.7
619.981	15038.41
620.176	15400.9
620.371	15198.15
620.566	15351.74
620.761	15149
620.956	15218.63
621.151	14866.38
621.346	15237.06
621.541	14829.51
621.735	14845.9
621.93	14557.13
622.125	14583.76
622.32	14419.92
622.515	14487.5
622.709	14241.75
622.904	14335.95
623.099	14292.94
623.294	14436.3
623.488	13952.98
623.683	14069.72
623.878	13938.65
624.072	14340.05
624.267	13909.97
624.462	13780.95
624.656	13656.03
624.851	13709.27
625.046	13588.44
625.24	13586.4
625.435	13512.67
625.629	13354.97
625.824	13402.08
626.018	13174.75
626.213	13002.72
626.407	13223.9
626.602	12892.13
626.796	12871.65
626.991	12724.2
627.185	12820.46
627.38	12808.17
627.574	12619.75
627.768	12478.44
627.963	12460.01
628.157	12417.01
628.352	12529.64
628.546	12142.58
628.74	12001.27
628.935	12015.6
629.129	12087.28
629.323	12173.3
629.517	11917.3
629.712	12187.63
629.906	12138.48
630.1	11802.61
630.294	11829.24
630.489	11829.24
630.683	11632.63
630.877	11565.05
631.071	11517.95
631.265	11554.81
631.459	11390.97
631.653	11204.61
631.848	11304.96
632.042	11059.2
632.236	11360.25
632.43	11077.63
632.624	11018.24
632.818	10924.04
633.012	10852.36
633.206	10790.92
633.4	10825.73
633.594	10713.1
633.788	10713.1
633.982	10635.27
634.176	10502.15
634.369	10387.47
634.563	10369.04
634.757	10371.08
634.951	10438.67
635.145	10164.24
635.339	10211.34
635.533	10262.54
635.726	10125.33
635.92	10096.66
636.114	9748.5
636.308	9979.92
636.501	9873.43
636.695	9926.68
636.889	9883.67
637.083	9703.45
637.276	9760.79
637.47	9734.17
637.664	9746.45
637.857	9648.15
638.051	9541.66
638.244	9418.78
638.438	9357.34
638.632	9283.61
638.825	9250.85
639.019	9087.01
639.212	8955.94
639.406	9138.21
639.599	9074.72
639.793	9189.41
639.986	9013.28
640.18	8949.79
640.373	8783.91
640.567	8656.93
640.76	8820.77
640.954	8706.09
641.147	8759.33
641.34	8489
641.534	8753.19
641.727	8603.69
641.92	8765.48
642.114	8468.52
642.307	8255.53
642.5	8343.6
642.694	8337.45
642.887	8276.01
643.08	8480.81
643.273	8400.94
643.467	8312.88
643.66	8259.63
643.853	8091.7
644.046	7905.33
644.239	7870.51
644.432	7938.1
644.626	7821.36
644.819	7800.88
645.012	7847.99
645.205	7874.61
645.398	7880.75
645.591	7735.35
645.784	7540.79
645.977	7643.19
646.17	7538.74
646.363	7514.17
646.556	7510.07
646.749	7405.63
646.942	7565.37
647.135	7309.37
647.328	7405.63
647.521	7440.44
647.714	7125.05
647.907	7376.95
648.099	7266.36
648.292	7280.7
648.485	7200.83
648.678	7170.11
648.871	7071.81
649.064	6920.26
649.256	7110.72
649.449	6885.44
649.642	6912.07
649.835	6869.06
650.027	6783.04
650.22	7008.32
650.413	6772.8
650.605	6754.37
650.798	6639.69
650.991	6694.98
651.183	6639.69
651.376	6621.25
651.568	6664.26
651.761	6467.66
651.954	6461.51
652.146	6477.9
652.339	6379.59
652.531	6404.17
652.724	6182.99
652.916	6223.95
653.109	6228.04
653.301	6330.44
653.494	6320.2
653.686	6174.8
653.879	6137.93
654.071	6189.13
654.263	6008.91
654.456	6238.28
654.648	6074.45
654.84	6021.2
655.033	5978.19
655.225	6021.2
655.417	5869.65
655.61	5953.62
655.802	5965.9
655.994	5777.49
656.186	5863.51
656.379	5681.24
656.571	5591.13
656.763	5666.9
656.955	5685.33
657.148	5638.23
657.34	5576.79
657.532	5582.93
657.724	5453.91
657.916	5515.35
658.108	5326.94
658.3	5517.4
658.492	5498.97
658.684	5511.25
658.876	5380.18
659.068	5421.14
659.26	5374.04
659.452	5269.59
659.644	5222.49
659.836	5017.69
660.028	5083.23
660.22	5060.7
660.412	5310.55
660.604	5161.05
660.796	5042.27
660.988	5005.41
661.18	4993.12
661.372	4989.02
661.563	4927.58
661.755	5081.18
661.947	4956.26
662.139	4958.3
662.331	4878.43
662.522	4806.75
662.714	4857.95
662.906	4780.13
663.097	4819.04
663.289	4604
663.481	4624.48
663.673	4708.45
663.864	4753.51
664.056	4483.17
664.247	4702.31
664.439	4466.79
664.631	4591.72
664.822	4696.16
665.014	4552.81
665.205	4577.38
665.397	4515.94
665.588	4356.2
665.78	4327.53
665.971	4491.37
666.163	4438.12
666.354	4618.34
666.546	4288.62
666.737	4417.64
666.929	4393.06
667.12	4315.24
667.311	4274.28
667.503	4315.24
667.694	4339.82
667.885	4122.73
668.077	4296.81
668.268	4274.28
668.459	4225.13
668.651	4028.53
668.842	4163.69
669.033	4128.88
669.224	4026.48
669.416	4192.36
669.607	4089.96
669.798	4016.24
669.989	4049
670.18	3942.51
670.371	3983.47
670.563	4106.35
670.754	3969.13
670.945	3866.74
671.136	4008.05
671.327	3831.92
671.518	3926.13
671.709	3881.07
671.9	3926.13
672.091	3889.26
672.282	3942.51
672.473	3811.44
672.664	3819.63
672.855	3795.06
673.046	3881.07
673.237	3741.81
673.428	3817.58
673.619	3774.58
673.809	3694.71
674	3799.15
674.191	3694.71
674.382	3627.12
674.573	3762.29
674.764	3631.22
674.954	3653.75
675.145	3637.36
675.336	3711.09
675.527	3651.7
675.717	3688.56
675.908	3678.32
676.099	3543.16
676.289	3633.27
676.48	3539.06
676.671	3627.12
676.861	3539.06
677.052	3379.32
677.243	3440.76
677.433	3399.8
677.624	3545.2
677.814	3526.77
678.005	3485.81
678.195	3467.38
678.386	3545.2
678.576	3526.77
678.767	3389.56
678.957	3471.48
679.148	3463.29
679.338	3461.24
679.529	3530.87
679.719	3467.38
679.909	3487.86
680.1	3448.95
680.29	3319.93
680.481	3446.9
680.671	3362.94
680.861	3362.94
681.052	3448.95
681.242	3274.87
681.432	3393.65
681.622	3364.98
681.813	3270.78
682.003	3340.41
682.193	3158.14
682.383	3338.36
682.573	3256.44
682.764	3238.01
682.954	3324.02
683.144	3274.87
683.334	3289.21
683.524	3268.73
683.714	3162.23
683.904	3178.62
684.094	3293.3
684.284	3123.32
684.474	3158.14
684.664	3326.07
684.854	3319.93
685.044	3133.56
685.234	3121.28
685.424	3076.22
685.614	3004.54
685.804	3055.74
685.994	3190.91
686.184	3264.63
686.374	3072.12
686.564	3000.44
686.753	3014.78
686.943	3000.44
687.133	3037.31
687.323	3035.26
687.513	3068.03
687.702	3051.64
687.892	2826.37
688.082	2908.29
688.272	2900.09
688.461	2959.49
688.651	2992.25
688.841	2994.3
689.03	2824.32
689.22	2846.85
689.41	2869.37
689.599	2807.94
689.789	2969.73
689.979	2818.18
690.168	2850.94
690.358	2721.92
690.547	2762.88
690.737	2820.22
690.926	2691.2
691.116	2715.78
691.305	2844.8
691.495	2812.03
691.684	2771.07
691.874	2828.42
692.063	2607.23
692.252	2670.72
692.442	2662.53
692.631	2631.81
692.82	2627.71
693.01	2582.66
693.199	2646.15
693.388	2488.45
693.578	2607.23
693.767	2574.47
693.956	2582.66
694.146	2564.23
694.335	2572.42
694.524	2412.68
694.713	2539.65
694.902	2500.74
695.092	2492.55
695.281	2453.64
695.47	2592.9
695.659	2500.74
695.848	2496.64
696.037	2582.66
696.226	2556.04
696.415	2402.44
696.604	2429.06
696.793	2517.12
696.982	2611.33
697.171	2535.56
697.36	2545.8
697.549	2457.73
697.738	2515.08
697.927	2470.02
698.116	2414.73
698.305	2388.1
698.494	2459.78
698.683	2406.53
698.872	2537.6
699.061	2484.36
699.25	2388.1
699.438	2506.88
699.627	2510.98
699.816	2439.3
700.005	2521.22
700.193	2373.77
700.382	2408.58
700.571	2361.48
700.76	2513.03
700.948	2295.94
701.137	2478.21
701.326	2517.12
701.514	2414.73
701.703	2562.18
701.892	2392.2
702.08	2369.67
702.269	2410.63
702.457	2451.59
702.646	2398.34
702.834	2451.59
703.023	2384.01
703.212	2472.07
703.4	2490.5
703.589	2398.34
703.777	2373.77
703.965	2451.59
704.154	2457.73
704.342	2388.1
704.531	2334.86
704.719	2433.16
704.907	2564.23
705.096	2449.54
705.284	2486.4
705.472	2355.33
705.661	2394.25
705.849	2490.5
706.037	2343.05
706.226	2361.48
706.414	2525.32
706.602	2400.39
706.79	2408.58
706.979	2392.2
707.167	2420.87
707.355	2394.25
707.543	2482.31
707.731	2414.73
707.919	2470.02
708.107	2373.77
708.296	2408.58
708.484	2416.77
708.672	2420.87
708.86	2435.21
709.048	2343.05
709.236	2470.02
709.424	2476.16
709.612	2578.56
709.8	2517.12
709.988	2498.69
710.176	2488.45
710.364	2541.7
710.551	2308.23
710.739	2326.66
710.927	2463.88
711.115	2506.88
711.303	2517.12
711.491	2418.82
711.679	2416.77
711.866	2441.35
712.054	2535.56
712.242	2510.98
712.43	2336.9
712.617	2297.99
712.805	2359.43
712.993	2394.25
713.181	2414.73
713.368	2451.59
713.556	2482.31
713.744	2427.01
713.931	2533.51
714.119	2465.93
714.306	2500.74
714.494	2515.08
714.682	2441.35
714.869	2394.25
715.057	2498.69
715.244	2580.61
715.432	2560.13
715.619	2435.21
715.807	2375.81
715.994	2449.54
716.182	2492.55
716.369	2494.6
716.556	2607.23
716.744	2441.35
716.931	2414.73
717.119	2500.74
717.306	2431.11
717.493	2410.63
717.681	2431.11
717.868	2474.12
718.055	2414.73
718.242	2404.49
718.43	2371.72
718.617	2486.4
718.804	2447.49
718.991	2474.12
719.179	2410.63
719.366	2345.09
719.553	2388.1
719.74	2482.31
719.927	2590.85
720.114	2365.57
720.301	2381.96
720.488	2420.87
720.676	2527.36
720.863	2478.21
721.05	2537.6
721.237	2457.73
721.424	2394.25
721.611	2623.62
721.798	2386.05
721.985	2357.38
722.172	2502.79
722.358	2396.29
722.545	2453.64
722.732	2424.97
722.919	2474.12
723.106	2429.06
723.293	2412.68
723.48	2357.38
723.667	2365.57
723.853	2285.7
724.04	2429.06
724.227	2494.6
724.414	2478.21
724.6	2384.01
724.787	2457.73
724.974	2347.14
725.161	2406.53
725.347	2394.25
725.534	2273.42
725.72	2402.44
725.907	2381.96
726.094	2336.9
726.28	2263.18
726.467	2386.05
726.653	2357.38
726.84	2379.91
727.027	2463.88
727.213	2457.73
727.4	2351.24
727.586	2470.02
727.773	2463.88
727.959	2322.57
728.145	2463.88
728.332	2259.08
728.518	2259.08
728.705	2357.38
728.891	2320.52
729.077	2320.52
729.264	2293.9
729.45	2394.25
729.636	2369.67
729.823	2343.05
730.009	2457.73
730.195	2361.48
730.382	2310.28
730.568	2336.9
730.754	2320.52
730.94	2359.43
731.126	2357.38
731.313	2359.43
731.499	2371.72
731.685	2332.81
731.871	2353.29
732.057	2379.91
732.243	2322.57
732.429	2467.97
732.615	2402.44
732.801	2304.14
732.987	2355.33
733.173	2351.24
733.359	2257.03
733.545	2244.74
733.731	2193.55
733.917	2369.67
734.103	2324.62
734.289	2230.41
734.475	2201.74
734.661	2384.01
734.847	2324.62
735.033	2328.71
735.219	2334.86
735.404	2228.36
735.59	2287.75
735.776	2291.85
735.962	2197.64
736.148	2209.93
736.333	2238.6
736.519	2189.45
736.705	2345.09
736.89	2168.97
737.076	2216.07
737.262	2119.82
737.447	2279.56
737.633	2230.41
737.819	2285.7
738.004	2144.39
738.19	2195.59
738.375	2183.31
738.561	2214.02
738.747	2222.22
738.932	2072.72
739.118	2248.84
739.303	2144.39
739.489	2295.94
739.674	2068.62
739.859	2144.39
740.045	2267.27
740.23	2214.02
740.416	2062.48
740.601	2168.97
740.786	2132.11
740.972	2171.02
741.157	2179.21
741.342	1998.99
741.528	2136.2
741.713	2074.76
741.898	2019.47
742.084	2056.33
742.269	2021.52
742.454	2162.83
742.639	2089.1
742.824	1955.98
743.01	2076.81
743.195	2025.61
743.38	1964.17
743.565	1964.17
743.75	2025.61
743.935	2013.32
744.12	2109.58
744.305	1978.51
744.49	2009.23
744.675	1939.6
744.86	1976.46
745.045	1937.55
745.23	1935.5
745.415	1939.6
745.6	1923.21
745.785	1902.73
745.97	1894.54
746.155	1908.88
746.34	1800.34
746.525	1786
746.71	1945.74
746.895	1761.42
747.079	1835.15
747.264	1738.9
747.449	1751.18
747.634	1771.66
747.819	1685.65
748.003	1728.66
748.188	1755.28
748.373	1681.55
748.557	1831.05
748.742	1804.43
748.927	1759.38
749.111	1728.66
749.296	1583.25
749.481	1661.07
749.665	1681.55
749.85	1579.15
750.034	1691.79
750.219	1622.16
750.404	1683.6
750.588	1558.67
750.773	1487
750.957	1489.04
751.141	1591.44
751.326	1618.07
751.51	1536.15
751.695	1513.62
751.879	1474.71
752.064	1550.48
752.248	1431.7
752.432	1466.52
752.617	1474.71
752.801	1433.75
752.985	1532.05
753.17	1499.28
753.354	1495.19
753.538	1530
753.722	1368.21
753.907	1376.41
754.091	1443.99
754.275	1446.04
754.459	1400.98
754.643	1415.32
754.828	1435.8
755.012	1382.55
755.196	1308.82
755.38	1403.03
755.564	1366.17
755.748	1360.02
755.932	1302.68
756.116	1304.73
756.3	1298.58
756.484	1255.58
756.668	1321.11
756.852	1308.82
757.036	1190.04
757.22	1163.42
757.404	1208.47
757.588	1200.28
757.772	1255.58
757.956	1210.52
758.14	1228.95
758.323	1192.09
758.507	1241.24
758.691	1294.49
758.875	1183.9
759.059	1147.03
759.242	1118.36
759.426	1142.94
759.61	1138.84
759.794	1052.83
759.977	1138.84
760.161	1138.84
760.345	1196.18
760.528	1187.99
760.712	1190.04
760.895	1069.21
761.079	1179.8
761.263	1101.98
761.446	1183.9
761.63	1048.73
761.813	1058.97
761.997	1095.83
762.18	987.29
762.364	1091.74
762.547	1024.16
762.731	993.44
762.914	1058.97
763.098	968.86
763.281	989.34
763.464	1032.35
763.648	1036.44
763.831	1050.78
764.015	1013.92
764.198	938.14
764.381	970.91
764.564	966.81
764.748	954.52
764.931	942.24
765.114	921.76
765.297	932
765.481	1018.01
765.664	1020.06
765.847	944.28
766.03	911.52
766.213	882.85
766.397	944.28
766.58	964.76
766.763	975
766.946	954.52
767.129	1011.87
767.312	897.18
767.495	917.66
767.678	780.45
767.861	958.62
768.044	852.13
768.227	872.61
768.41	829.6
768.593	911.52
768.776	850.08
768.959	819.36
769.142	878.75
769.324	800.93
769.507	845.98
769.69	833.69
769.873	901.28
770.056	880.8
770.239	907.42
770.421	903.32
770.604	837.79
770.787	805.02
770.97	757.92
771.152	817.31
771.335	802.97
771.518	815.26
771.7	862.37
771.883	895.13
772.066	766.11
772.248	778.4
772.431	774.3
772.613	831.65
772.796	821.41
772.978	784.54
773.161	780.45
773.343	745.63
773.526	757.92
773.708	770.21
773.891	686.24
774.073	710.82
774.256	811.17
774.438	776.35
774.621	686.24
774.803	739.49
774.985	649.38
775.168	807.07
775.35	655.52
775.532	610.47
775.715	604.32
775.897	749.73
776.079	626.85
776.261	762.02
776.444	700.58
776.626	622.75
776.808	667.81
776.99	696.48
777.173	612.51
777.355	667.81
777.537	645.28
777.719	706.72
777.901	561.31
778.083	673.95
778.265	645.28
778.447	616.61
778.629	655.52
778.811	624.8
778.993	540.83
779.175	561.31
779.357	598.18
779.539	626.85
779.721	596.13
779.903	614.56
780.085	563.36
780.267	577.7
780.449	618.66
780.631	579.75
780.812	553.12
780.994	577.7
781.176	542.88
781.358	571.55
781.54	616.61
781.721	534.69
781.903	669.86
782.085	501.92
782.267	557.22
782.448	518.31
782.63	528.55
782.812	598.18
782.993	442.53
783.175	551.07
783.357	409.76
783.538	546.98
783.72	508.07
783.901	430.24
784.083	581.79
784.264	532.64
784.446	532.64
784.627	493.73
784.809	528.55
784.99	432.29
785.172	413.86
785.353	512.16
785.535	426.15
785.716	370.85
785.897	438.44
786.079	397.48
786.26	446.63
786.441	434.34
786.623	393.38
786.804	385.19
786.985	403.62
787.167	420
787.348	415.91
787.529	426.15
787.71	438.44
787.891	397.48
788.073	413.86
788.254	377
788.435	385.19
788.616	368.81
788.797	278.69
788.978	329.89
789.159	323.75
789.34	397.48
789.522	385.19
789.703	366.76
789.884	350.37
790.065	381.09
790.246	403.62
790.427	374.95
790.607	405.67
790.788	370.85
790.969	329.89
791.15	323.75
791.331	327.85
791.512	346.28
791.693	311.46
791.874	284.84
792.054	295.08
792.235	282.79
792.416	381.09
792.597	284.84
792.778	303.27
792.958	313.51
793.139	395.43
793.32	299.17
793.5	331.94
793.681	229.54
793.862	297.13
794.042	354.47
794.223	217.26
794.404	315.56
794.584	182.44
794.765	319.65
794.945	346.28
795.126	266.41
795.306	315.56
795.487	348.33
795.667	282.79
795.848	258.21
796.028	336.04
796.209	327.85
796.389	247.97
796.57	317.61
796.75	323.75
796.93	270.5
797.111	223.4
797.291	200.87
797.471	250.02
797.652	262.31
797.832	266.41
798.012	364.71
798.192	262.31
798.373	256.17
798.553	252.07
798.733	252.07
798.913	307.37
799.093	239.78
799.274	254.12
799.454	276.65
799.634	317.61
799.814	245.93
799.994	299.17
800.174	192.68
800.354	260.26
800.534	258.21
800.714	207.02
800.894	239.78
801.074	211.11
801.254	176.3
801.434	284.84
801.614	262.31
801.794	178.34
801.974	600.23
802.154	161.96
802.334	182.44
802.514	213.16
802.693	194.73
802.873	116.9
803.053	219.3
803.233	166.06
803.413	178.34
803.592	258.21
803.772	137.38
803.952	252.07
804.131	135.34
804.311	229.54
804.491	200.87
804.67	219.3
804.85	180.39
805.03	176.3
805.209	196.78
805.389	174.25
805.568	227.5
805.748	143.53
805.928	209.06
806.107	172.2
806.287	133.29
806.466	170.15
806.646	198.82
806.825	231.59
807.004	198.82
807.184	141.48
807.363	184.49
807.543	174.25
807.722	184.49
807.901	200.87
808.081	188.58
808.26	149.67
808.439	237.74
808.619	186.54
808.798	149.67
808.977	125.1
809.156	174.25
809.336	211.11
809.515	229.54
809.694	151.72
809.873	202.92
810.052	20.65
810.231	176.3
810.411	192.68
810.59	209.06
810.769	96.43
810.948	157.86
811.127	127.14
811.306	200.87
811.485	143.53
811.664	174.25
811.843	135.34
812.022	209.06
812.201	174.25
812.38	178.34
812.559	155.82
812.737	180.39
812.916	125.1
813.095	127.14
813.274	174.25
813.453	153.77
813.632	77.99
813.811	121
813.989	170.15
814.168	157.86
814.347	77.99
814.526	94.38
814.704	188.58
814.883	135.34
815.062	172.2
815.24	129.19
815.419	118.95
815.598	149.67
815.776	123.05
815.955	207.02
816.133	157.86
816.312	129.19
816.49	139.43
816.669	147.62
816.847	184.49
817.026	182.44
817.204	139.43
817.383	129.19
817.561	34.99
817.74	155.82
817.918	121
818.097	145.58
818.275	131.24
818.453	164.01
818.632	88.23
818.81	180.39
818.988	59.56
819.167	106.67
819.345	168.1
819.523	155.82
819.701	137.38
819.879	157.86
820.058	61.61
820.236	106.67
820.414	114.86
820.592	102.57
820.77	118.95
820.948	57.51
821.127	143.53
821.305	139.43
821.483	90.28
821.661	73.9
821.839	104.62
822.017	71.85
822.195	141.48
822.373	123.05
822.551	67.75
822.729	110.76
822.907	96.43
823.085	77.99
823.262	116.9
823.44	102.57
823.618	143.53
823.796	118.95
823.974	88.23
824.152	176.3
824.329	121
824.507	172.2
824.685	184.49
824.863	235.69
825.04	204.97
825.218	94.38
825.396	39.08
825.574	61.61
825.751	59.56
825.929	149.67
826.107	12.46
826.284	125.1
826.462	90.28
826.639	166.06
826.817	65.71
826.994	71.85
827.172	182.44
827.349	143.53
827.527	73.9
827.704	22.7
827.882	100.52
828.059	49.32
828.237	73.9
828.414	121
828.591	4.27
828.769	176.3
828.946	67.75
829.124	106.67
829.301	127.14
829.478	147.62
829.655	53.42
829.833	49.32
830.01	43.18
830.187	114.86
830.364	116.9
830.542	106.67
830.719	67.75
830.896	121
831.073	26.79
831.25	135.34
831.427	55.47
831.604	143.53
831.782	102.57
831.959	45.23
832.136	71.85
832.313	137.38
832.49	141.48
832.667	67.75
832.844	51.37
833.021	69.8
833.198	69.8
833.374	123.05
833.551	80.04
833.728	131.24
833.905	39.08
834.082	39.08
834.259	65.71
834.436	80.04
834.612	143.53
834.789	63.66
834.966	57.51
835.143	118.95
835.319	110.76
835.496	125.1
835.673	84.14
835.85	116.9
836.026	75.95
836.203	84.14
836.38	-8.02
836.556	34.99
836.733	73.9
836.909	102.57
837.086	67.75
837.262	98.47
837.439	100.52
837.616	116.9
837.792	47.27
837.968	59.56
838.145	92.33
838.321	92.33
838.498	96.43
838.674	102.57
838.851	10.41
839.027	10.41
839.203	77.99
839.38	139.43
839.556	43.18
839.732	88.23
839.909	73.9
840.085	141.48
840.261	47.27
840.437	67.75
840.614	39.08
840.79	59.56
840.966	49.32
841.142	84.14
841.318	73.9
841.494	108.71
841.671	104.62
841.847	45.23
842.023	6.31
842.199	84.14
842.375	59.56
842.551	43.18
842.727	45.23
842.903	80.04
843.079	41.13
843.255	125.1
843.431	28.84
843.607	77.99
843.783	8.36
843.959	43.18
844.134	43.18
844.31	94.38
844.486	18.6
844.662	73.9
844.838	121
845.013	59.56
845.189	73.9
845.365	-5.97
845.541	30.89
845.716	16.55
845.892	137.38
846.068	6.31
846.244	61.61
846.419	43.18
846.595	28.84
846.77	20.65
846.946	69.8
847.122	80.04
847.297	8.36
847.473	49.32
847.648	63.66
847.824	16.55
847.999	-42.84
848.175	49.32
848.35	12.46
848.526	55.47
848.701	22.7
848.876	71.85
849.052	67.75
849.227	98.47
849.403	-14.17
849.578	43.18
849.753	51.37
849.929	63.66
850.104	65.71
850.279	94.38
850.454	116.9
850.63	-3.93
850.805	-5.97
850.98	20.65
851.155	30.89
851.33	26.79
851.505	6.31
851.681	84.14
851.856	92.33
852.031	80.04
852.206	34.99
852.381	57.51
852.556	51.37
852.731	94.38
852.906	75.95
853.081	-20.31
853.256	73.9
853.431	37.03
853.606	51.37
853.781	22.7
853.956	-1.88
854.131	26.79
854.305	14.51
854.48	-53.08
854.655	18.6
854.83	41.13
855.005	-30.55
855.18	65.71
855.354	90.28
855.529	55.47
855.704	88.23
855.879	67.75
856.053	2.22
856.228	26.79
856.403	43.18
856.577	28.84
856.752	39.08
856.926	82.09
857.101	8.36
857.276	-10.07
857.45	26.79
857.625	47.27
857.799	51.37
857.974	10.41
858.148	-40.79
858.323	34.99
858.497	28.84
858.672	47.27
858.846	-14.17
859.02	55.47
859.195	39.08
859.369	-24.4
859.543	34.99
859.718	51.37
859.892	12.46
860.066	84.14
860.241	88.23
860.415	65.71
860.589	-10.07
860.763	104.62
860.938	43.18
861.112	55.47
861.286	77.99
861.46	-42.84
861.634	-10.07
861.808	61.61
861.982	-14.17
862.157	77.99
862.331	24.75
862.505	94.38
862.679	49.32
862.853	6.31
863.027	-46.93
863.201	67.75
863.375	-34.64
863.549	26.79
863.722	49.32
863.896	57.51
864.07	6.31
864.244	-28.5
864.418	6.31
864.592	69.8
864.766	69.8
864.939	104.62
865.113	24.75
865.287	47.27
865.461	12.46
865.634	49.32
865.808	-42.84
865.982	10.41
866.156	4.27
866.329	-3.93
866.503	16.55
866.676	139.43
866.85	22.7
867.024	41.13
867.197	16.55
867.371	55.47
867.544	-22.36
867.718	59.56
867.891	39.08
868.065	51.37
868.238	-28.5
868.412	65.71
868.585	26.79
868.759	8.36
868.932	-46.93
869.105	-22.36
869.279	30.89
869.452	-22.36
869.625	12.46
869.799	4.27
869.972	41.13
870.145	41.13
870.319	49.32
870.492	6.31
870.665	-28.5
870.838	6.31
871.011	-48.98
871.185	-59.22
871.358	32.94
871.531	77.99
871.704	10.41
871.877	20.65
872.05	18.6
872.223	-22.36
872.396	94.38
872.569	-16.21
872.742	-5.97
872.915	49.32
873.088	-14.17
873.261	12.46
873.434	-8.02
873.607	118.95
873.78	59.56
873.953	32.94
874.126	28.84
874.299	20.65
874.471	88.23
874.644	104.62
874.817	82.09
874.99	6.31
875.163	14.51
875.335	-8.02
875.508	59.56
875.681	16.55
875.853	-44.88
876.026	2.22
876.199	63.66
876.371	-36.69
876.544	18.6
876.717	0.17
876.889	14.51
877.062	-28.5
877.234	77.99
877.407	-57.17
877.579	12.46
877.752	2.22
877.924	0.17
878.097	2.22
878.269	-8.02
878.442	-34.64
878.614	-65.36
878.786	47.27
878.959	-5.97
879.131	2.22
879.303	-44.88
879.476	26.79
879.648	37.03
879.82	61.61
879.993	57.51
880.165	84.14
880.337	6.31
880.509	-30.55
880.681	12.46
880.854	-16.21
881.026	-40.79
881.198	30.89
881.37	43.18
881.542	26.79
881.714	2.22
881.886	-28.5
882.058	49.32
882.23	-22.36
882.402	-8.02
882.574	2.22
882.746	71.85
882.918	65.71
883.09	26.79
883.262	43.18
883.434	-28.5
883.606	-10.07
883.778	10.41
883.95	22.7
884.122	16.55
884.293	26.79
884.465	-5.97
884.637	0.17
884.809	67.75
884.98	22.7
885.152	-22.36
885.324	10.41
885.496	16.55
885.667	6.31
885.839	51.37
886.011	12.46
886.182	37.03
886.354	32.94
886.525	47.27
886.697	22.7
886.869	55.47
887.04	75.95
887.212	22.7
887.383	6.31
887.555	34.99
887.726	-34.64
887.897	-22.36
888.069	14.51
888.24	53.42
888.412	73.9
888.583	-8.02
888.754	28.84
888.926	-28.5
889.097	-10.07
889.268	80.04
889.44	-1.88
889.611	-16.21
889.782	-48.98
889.953	47.27
890.125	-1.88
890.296	-1.88
890.467	102.57
890.638	-30.55
890.809	45.23
890.98	-14.17
891.151	34.99
891.323	92.33
891.494	4.27
891.665	10.41
891.836	26.79
892.007	65.71
892.178	41.13
892.349	102.57
892.52	55.47
892.691	12.46
892.862	49.32
893.032	80.04
893.203	-55.12
893.374	-59.22
893.545	-10.07
893.716	-12.12
893.887	-18.26
894.057	92.33
894.228	-20.31
894.399	-8.02
894.57	131.24
894.74	43.18
894.911	43.18
895.082	-26.45
895.253	77.99
895.423	-22.36
895.594	16.55
895.764	-28.5
895.935	26.79
896.106	65.71
896.276	63.66
896.447	26.79
896.617	-5.97
896.788	-22.36
896.958	80.04
897.129	14.51
897.299	-20.31
897.47	-3.93
897.64	37.03
897.81	-10.07
897.981	47.27
898.151	-8.02
898.322	-34.64
898.492	-26.45
898.662	20.65
898.832	10.41
899.003	41.13
899.173	49.32
899.343	12.46
899.513	26.79
