Data from USB4F104151__67__12-01-56-447.txt Node

Date: Fri Mar 14 12:01:56 EDT 2025
User: louis
Spectrometer: USB4F10415
Trigger mode: 4
Integration Time (sec): 2.000000E-2
Scans to average: 1
Electric dark correction enabled: true
Nonlinearity correction enabled: false
Boxcar width: 0
XAxis mode: Wavelengths
Number of Pixels in Spectrum: 3648
>>>>>Begin Spectral Data<<<<<
178.204	-65.36
178.424	-65.36
178.644	-65.36
178.864	-55.12
179.084	-104.28
179.304	-14.17
179.524	-20.31
179.744	6.31
179.964	28.84
180.184	20.65
180.404	24.75
180.624	24.75
180.844	20.65
181.064	6.31
181.283	-3.93
181.503	-112.47
181.723	18.6
181.943	55.47
182.163	61.61
182.383	-10.07
182.602	67.75
182.822	30.89
183.042	16.55
183.262	12.46
183.482	37.03
183.701	82.09
183.921	30.89
184.141	20.65
184.361	4.27
184.58	14.51
184.8	-1.88
185.02	-8.02
185.239	-10.07
185.459	30.89
185.679	43.18
185.898	-96.08
186.118	43.18
186.338	45.23
186.557	55.47
186.777	-14.17
186.997	39.08
187.216	59.56
187.436	57.51
187.655	118.95
187.875	43.18
188.095	18.6
188.314	32.94
188.534	47.27
188.753	55.47
188.973	57.51
189.192	24.75
189.412	67.75
189.631	110.76
189.851	30.89
190.07	-16.21
190.29	-26.45
190.509	82.09
190.729	22.7
190.948	80.04
191.168	18.6
191.387	77.99
191.607	6.31
191.826	6.31
192.045	-1.88
192.265	0.17
192.484	10.41
192.704	14.51
192.923	12.46
193.142	37.03
193.362	96.43
193.581	94.38
193.8	-8.02
194.02	67.75
194.239	98.47
194.458	77.99
194.678	71.85
194.897	28.84
195.116	39.08
195.335	-5.97
195.555	30.89
195.774	90.28
195.993	43.18
196.212	49.32
196.432	90.28
196.651	18.6
196.87	90.28
197.089	32.94
197.308	30.89
197.528	143.53
197.747	47.27
197.966	18.6
198.185	43.18
198.404	51.37
198.623	2.22
198.842	82.09
199.062	37.03
199.281	110.76
199.5	88.23
199.719	10.41
199.938	43.18
200.157	80.04
200.376	41.13
200.595	135.34
200.814	69.8
201.033	55.47
201.252	18.6
201.471	-20.31
201.69	37.03
201.909	-22.36
202.128	-1.88
202.347	75.95
202.566	39.08
202.785	123.05
203.004	0.17
203.223	69.8
203.442	90.28
203.661	18.6
203.879	24.75
204.098	129.19
204.317	24.75
204.536	34.99
204.755	43.18
204.974	34.99
205.193	55.47
205.411	51.37
205.63	37.03
205.849	45.23
206.068	71.85
206.287	92.33
206.505	37.03
206.724	98.47
206.943	-5.97
207.162	45.23
207.381	20.65
207.599	61.61
207.818	43.18
208.037	77.99
208.255	32.94
208.474	12.46
208.693	14.51
208.911	69.8
209.13	67.75
209.349	94.38
209.567	88.23
209.786	96.43
210.005	2.22
210.223	18.6
210.442	-38.74
210.661	34.99
210.879	24.75
211.098	43.18
211.316	-34.64
211.535	141.48
211.753	-10.07
211.972	-5.97
212.191	0.17
212.409	59.56
212.628	61.61
212.846	18.6
213.065	57.51
213.283	45.23
213.502	43.18
213.72	86.19
213.938	71.85
214.157	45.23
214.375	41.13
214.594	-1.88
214.812	4.27
215.031	34.99
215.249	43.18
215.467	63.66
215.686	6.31
215.904	67.75
216.122	20.65
216.341	84.14
216.559	32.94
216.778	-20.31
216.996	94.38
217.214	65.71
217.432	39.08
217.651	37.03
217.869	16.55
218.087	59.56
218.306	71.85
218.524	104.62
218.742	16.55
218.96	39.08
219.179	41.13
219.397	39.08
219.615	2.22
219.833	57.51
220.051	73.9
220.27	63.66
220.488	-24.4
220.706	12.46
220.924	57.51
221.142	49.32
221.36	-3.93
221.578	-10.07
221.796	30.89
222.015	34.99
222.233	84.14
222.451	30.89
222.669	37.03
222.887	16.55
223.105	-12.12
223.323	-24.4
223.541	-16.21
223.759	28.84
223.977	69.8
224.195	28.84
224.413	90.28
224.631	39.08
224.849	-3.93
225.067	84.14
225.285	20.65
225.503	55.47
225.721	26.79
225.939	39.08
226.157	75.95
226.375	43.18
226.592	75.95
226.81	32.94
227.028	59.56
227.246	51.37
227.464	61.61
227.682	75.95
227.9	75.95
228.117	96.43
228.335	30.89
228.553	28.84
228.771	6.31
228.989	55.47
229.206	43.18
229.424	20.65
229.642	69.8
229.86	10.41
230.077	43.18
230.295	24.75
230.513	71.85
230.731	73.9
230.948	55.47
231.166	10.41
231.384	41.13
231.601	51.37
231.819	-30.55
232.037	-5.97
232.254	47.27
232.472	63.66
232.689	-46.93
232.907	86.19
233.125	57.51
233.342	69.8
233.56	37.03
233.777	4.27
233.995	-16.21
234.213	59.56
234.43	8.36
234.648	49.32
234.865	65.71
235.083	8.36
235.3	-32.6
235.518	57.51
235.735	61.61
235.953	90.28
236.17	37.03
236.388	24.75
236.605	20.65
236.822	129.19
237.04	8.36
237.257	39.08
237.475	-5.97
237.692	-14.17
237.909	12.46
238.127	32.94
238.344	-5.97
238.562	45.23
238.779	-1.88
238.996	49.32
239.214	-53.08
239.431	118.95
239.648	75.95
239.865	71.85
240.083	32.94
240.3	57.51
240.517	86.19
240.735	47.27
240.952	24.75
241.169	37.03
241.386	22.7
241.603	43.18
241.821	63.66
242.038	-14.17
242.255	116.9
242.472	22.7
242.689	-8.02
242.907	73.9
243.124	2.22
243.341	61.61
243.558	49.32
243.775	57.51
243.992	24.75
244.209	69.8
244.426	133.29
244.643	41.13
244.86	26.79
245.078	32.94
245.295	43.18
245.512	92.33
245.729	16.55
245.946	-5.97
246.163	34.99
246.38	69.8
246.597	67.75
246.814	53.42
247.031	-16.21
247.248	41.13
247.464	-14.17
247.681	22.7
247.898	20.65
248.115	77.99
248.332	88.23
248.549	84.14
248.766	84.14
248.983	104.62
249.2	0.17
249.417	110.76
249.633	-67.41
249.85	61.61
250.067	-3.93
250.284	39.08
250.501	16.55
250.717	45.23
250.934	-53.08
251.151	100.52
251.368	43.18
251.585	75.95
251.801	34.99
252.018	63.66
252.235	10.41
252.451	32.94
252.668	26.79
252.885	41.13
253.102	57.51
253.318	96.43
253.535	53.42
253.752	12.46
253.968	88.23
254.185	41.13
254.401	8.36
254.618	43.18
254.835	45.23
255.051	22.7
255.268	57.51
255.484	57.51
255.701	30.89
255.917	34.99
256.134	8.36
256.351	67.75
256.567	-24.4
256.784	6.31
257	30.89
257.217	18.6
257.433	139.43
257.65	53.42
257.866	6.31
258.082	75.95
258.299	92.33
258.515	-16.21
258.732	-1.88
258.948	20.65
259.165	26.79
259.381	22.7
259.597	73.9
259.814	24.75
260.03	98.47
260.246	82.09
260.463	55.47
260.679	88.23
260.895	108.71
261.112	137.38
261.328	131.24
261.544	8.36
261.761	102.57
261.977	18.6
262.193	0.17
262.409	24.75
262.626	121
262.842	92.33
263.058	-5.97
263.274	63.66
263.49	18.6
263.707	28.84
263.923	22.7
264.139	32.94
264.355	82.09
264.571	53.42
264.787	108.71
265.004	104.62
265.22	65.71
265.436	94.38
265.652	73.9
265.868	90.28
266.084	43.18
266.3	53.42
266.516	43.18
266.732	49.32
266.948	57.51
267.164	98.47
267.38	88.23
267.596	43.18
267.812	86.19
268.028	100.52
268.244	82.09
268.46	43.18
268.676	4.27
268.892	22.7
269.108	16.55
269.324	75.95
269.54	6.31
269.756	92.33
269.972	37.03
270.188	22.7
270.403	22.7
270.619	8.36
270.835	82.09
271.051	-5.97
271.267	-1.88
271.483	41.13
271.698	2.22
271.914	67.75
272.13	51.37
272.346	106.67
272.562	30.89
272.777	80.04
272.993	-1.88
273.209	94.38
273.425	49.32
273.64	110.76
273.856	-30.55
274.072	20.65
274.287	8.36
274.503	116.9
274.719	43.18
274.934	61.61
275.15	47.27
275.366	67.75
275.581	6.31
275.797	39.08
276.012	63.66
276.228	-12.12
276.444	18.6
276.659	57.51
276.875	18.6
277.09	30.89
277.306	53.42
277.521	8.36
277.737	-20.31
277.952	-1.88
278.168	0.17
278.383	59.56
278.599	37.03
278.814	43.18
279.03	4.27
279.245	73.9
279.461	39.08
279.676	104.62
279.892	-8.02
280.107	28.84
280.322	55.47
280.538	86.19
280.753	0.17
280.969	45.23
281.184	24.75
281.399	65.71
281.615	-30.55
281.83	110.76
282.045	24.75
282.26	41.13
282.476	16.55
282.691	41.13
282.906	47.27
283.122	55.47
283.337	32.94
283.552	73.9
283.767	47.27
283.983	-10.07
284.198	69.8
284.413	71.85
284.628	24.75
284.843	77.99
285.058	41.13
285.274	8.36
285.489	28.84
285.704	47.27
285.919	65.71
286.134	80.04
286.349	16.55
286.564	32.94
286.779	26.79
286.995	32.94
287.21	-18.26
287.425	30.89
287.64	47.27
287.855	84.14
288.07	39.08
288.285	77.99
288.5	6.31
288.715	67.75
288.93	-10.07
289.145	84.14
289.36	61.61
289.575	98.47
289.79	14.51
290.004	159.91
290.219	0.17
290.434	77.99
290.649	28.84
290.864	4.27
291.079	14.51
291.294	86.19
291.509	32.94
291.724	43.18
291.938	-20.31
292.153	20.65
292.368	-16.21
292.583	61.61
292.798	43.18
293.012	102.57
293.227	43.18
293.442	75.95
293.657	104.62
293.871	47.27
294.086	53.42
294.301	65.71
294.516	53.42
294.73	84.14
294.945	57.51
295.16	8.36
295.374	63.66
295.589	110.76
295.804	24.75
296.018	14.51
296.233	53.42
296.447	82.09
296.662	4.27
296.877	71.85
297.091	69.8
297.306	135.34
297.52	-3.93
297.735	6.31
297.949	63.66
298.164	112.81
298.378	24.75
298.593	53.42
298.807	80.04
299.022	59.56
299.236	47.27
299.451	104.62
299.665	57.51
299.88	-18.26
300.094	-10.07
300.309	12.46
300.523	28.84
300.737	-12.12
300.952	75.95
301.166	18.6
301.381	131.24
301.595	39.08
301.809	4.27
302.024	49.32
302.238	34.99
302.452	8.36
302.667	26.79
302.881	80.04
303.095	47.27
303.309	43.18
303.524	-26.45
303.738	-26.45
303.952	12.46
304.166	108.71
304.381	2.22
304.595	22.7
304.809	4.27
305.023	77.99
305.237	80.04
305.452	43.18
305.666	2.22
305.88	28.84
306.094	43.18
306.308	55.47
306.522	88.23
306.736	43.18
306.95	24.75
307.164	14.51
307.379	71.85
307.593	32.94
307.807	47.27
308.021	24.75
308.235	75.95
308.449	10.41
308.663	80.04
308.877	86.19
309.091	53.42
309.305	14.51
309.519	-30.55
309.733	45.23
309.947	69.8
310.161	37.03
310.374	69.8
310.588	145.58
310.802	49.32
311.016	6.31
311.23	112.81
311.444	45.23
311.658	-24.4
311.872	-5.97
312.085	55.47
312.299	145.58
312.513	55.47
312.727	24.75
312.941	45.23
313.154	53.42
313.368	45.23
313.582	63.66
313.796	12.46
314.009	47.27
314.223	137.38
314.437	45.23
314.651	57.51
314.864	51.37
315.078	12.46
315.292	47.27
315.505	24.75
315.719	39.08
315.933	69.8
316.146	71.85
316.36	-8.02
316.573	8.36
316.787	47.27
317.001	73.9
317.214	16.55
317.428	28.84
317.641	77.99
317.855	57.51
318.068	-20.31
318.282	53.42
318.495	86.19
318.709	45.23
318.922	41.13
319.136	30.89
319.349	14.51
319.563	34.99
319.776	37.03
319.99	-3.93
320.203	34.99
320.417	84.14
320.63	84.14
320.843	73.9
321.057	30.89
321.27	37.03
321.483	39.08
321.697	73.9
321.91	37.03
322.124	61.61
322.337	86.19
322.55	43.18
322.763	-30.55
322.977	12.46
323.19	47.27
323.403	53.42
323.617	47.27
323.83	6.31
324.043	47.27
324.256	22.7
324.469	-8.02
324.683	65.71
324.896	65.71
325.109	59.56
325.322	53.42
325.535	65.71
325.748	34.99
325.962	41.13
326.175	75.95
326.388	104.62
326.601	53.42
326.814	49.32
327.027	22.7
327.24	114.86
327.453	-5.97
327.666	10.41
327.879	39.08
328.092	0.17
328.305	-26.45
328.518	-18.26
328.731	18.6
328.944	55.47
329.157	24.75
329.37	41.13
329.583	63.66
329.796	61.61
330.009	12.46
330.222	28.84
330.435	-3.93
330.648	71.85
330.861	4.27
331.073	2.22
331.286	43.18
331.499	49.32
331.712	104.62
331.925	37.03
332.138	26.79
332.35	61.61
332.563	26.79
332.776	121
332.989	10.41
333.202	-24.4
333.414	116.9
333.627	28.84
333.84	90.28
334.053	57.51
334.265	32.94
334.478	30.89
334.691	30.89
334.903	92.33
335.116	-36.69
335.329	0.17
335.541	16.55
335.754	82.09
335.966	63.66
336.179	49.32
336.392	114.86
336.604	104.62
336.817	86.19
337.029	96.43
337.242	34.99
337.454	2.22
337.667	57.51
337.88	20.65
338.092	77.99
338.305	20.65
338.517	20.65
338.729	41.13
338.942	37.03
339.154	88.23
339.367	65.71
339.579	57.51
339.792	16.55
340.004	137.38
340.217	24.75
340.429	59.56
340.641	18.6
340.854	139.43
341.066	-57.17
341.278	63.66
341.491	135.34
341.703	6.31
341.915	59.56
342.128	57.51
342.34	51.37
342.552	-32.6
342.764	-8.02
342.977	-5.97
343.189	8.36
343.401	135.34
343.613	10.41
343.826	45.23
344.038	12.46
344.25	108.71
344.462	-42.84
344.674	118.95
344.886	26.79
345.099	41.13
345.311	108.71
345.523	37.03
345.735	61.61
345.947	39.08
346.159	43.18
346.371	26.79
346.583	-1.88
346.795	22.7
347.007	63.66
347.219	67.75
347.431	22.7
347.643	32.94
347.855	96.43
348.067	26.79
348.279	-32.6
348.491	22.7
348.703	51.37
348.915	24.75
349.127	-8.02
349.339	8.36
349.551	34.99
349.763	24.75
349.975	8.36
350.187	47.27
350.399	-14.17
350.61	125.1
350.822	43.18
351.034	47.27
351.246	47.27
351.458	30.89
351.669	34.99
351.881	98.47
352.093	26.79
352.305	112.81
352.517	55.47
352.728	96.43
352.94	2.22
353.152	28.84
353.363	16.55
353.575	92.33
353.787	32.94
353.999	32.94
354.21	145.58
354.422	28.84
354.633	-18.26
354.845	55.47
355.057	75.95
355.268	53.42
355.48	82.09
355.692	37.03
355.903	39.08
356.115	-16.21
356.326	51.37
356.538	77.99
356.749	82.09
356.961	69.8
357.172	39.08
357.384	47.27
357.595	125.1
357.807	0.17
358.018	143.53
358.23	51.37
358.441	69.8
358.653	63.66
358.864	34.99
359.075	4.27
359.287	57.51
359.498	102.57
359.709	84.14
359.921	28.84
360.132	34.99
360.344	67.75
360.555	90.28
360.766	88.23
360.977	98.47
361.189	141.48
361.4	112.81
361.611	61.61
361.823	110.76
362.034	51.37
362.245	2.22
362.456	106.67
362.667	92.33
362.879	84.14
363.09	155.82
363.301	67.75
363.512	51.37
363.723	53.42
363.935	51.37
364.146	96.43
364.357	-26.45
364.568	69.8
364.779	4.27
364.99	127.14
365.201	118.95
365.412	98.47
365.623	47.27
365.834	-1.88
366.045	114.86
366.256	108.71
366.467	65.71
366.678	2.22
366.889	20.65
367.1	8.36
367.311	100.52
367.522	88.23
367.733	34.99
367.944	121
368.155	118.95
368.366	77.99
368.577	61.61
368.788	28.84
368.999	77.99
369.209	71.85
369.42	77.99
369.631	131.24
369.842	20.65
370.053	51.37
370.264	102.57
370.474	88.23
370.685	28.84
370.896	22.7
371.107	108.71
371.317	125.1
371.528	16.55
371.739	116.9
371.95	141.48
372.16	6.31
372.371	67.75
372.582	45.23
372.792	30.89
373.003	80.04
373.214	45.23
373.424	67.75
373.635	77.99
373.846	104.62
374.056	80.04
374.267	16.55
374.477	106.67
374.688	137.38
374.898	4.27
375.109	-3.93
375.319	6.31
375.53	86.19
375.74	92.33
375.951	43.18
376.161	26.79
376.372	63.66
376.582	77.99
376.793	61.61
377.003	16.55
377.214	24.75
377.424	16.55
377.635	155.82
377.845	16.55
378.055	98.47
378.266	37.03
378.476	41.13
378.686	112.81
378.897	47.27
379.107	63.66
379.317	90.28
379.528	75.95
379.738	53.42
379.948	53.42
380.158	108.71
380.369	77.99
380.579	80.04
380.789	41.13
380.999	41.13
381.21	67.75
381.42	84.14
381.63	88.23
381.84	32.94
382.05	82.09
382.261	24.75
382.471	84.14
382.681	45.23
382.891	106.67
383.101	67.75
383.311	8.36
383.521	41.13
383.731	94.38
383.941	84.14
384.151	102.57
384.361	43.18
384.571	86.19
384.781	-12.12
384.991	153.77
385.201	39.08
385.411	55.47
385.621	125.1
385.831	73.9
386.041	49.32
386.251	112.81
386.461	75.95
386.671	28.84
386.881	-30.55
387.091	65.71
387.301	32.94
387.511	84.14
387.72	86.19
387.93	32.94
388.14	18.6
388.35	77.99
388.56	96.43
388.769	57.51
388.979	75.95
389.189	121
389.399	100.52
389.609	57.51
389.818	41.13
390.028	26.79
390.238	88.23
390.447	-1.88
390.657	59.56
390.867	57.51
391.076	39.08
391.286	43.18
391.496	49.32
391.705	108.71
391.915	4.27
392.125	178.34
392.334	49.32
392.544	67.75
392.753	90.28
392.963	77.99
393.172	149.67
393.382	94.38
393.591	67.75
393.801	69.8
394.01	118.95
394.22	71.85
394.429	69.8
394.639	73.9
394.848	129.19
395.058	100.52
395.267	121
395.477	118.95
395.686	141.48
395.895	114.86
396.105	194.73
396.314	57.51
396.524	65.71
396.733	102.57
396.942	55.47
397.152	86.19
397.361	182.44
397.57	67.75
397.78	69.8
397.989	159.91
398.198	123.05
398.407	100.52
398.617	149.67
398.826	77.99
399.035	143.53
399.244	96.43
399.453	135.34
399.663	164.01
399.872	178.34
400.081	129.19
400.29	141.48
400.499	71.85
400.708	96.43
400.917	112.81
401.127	102.57
401.336	121
401.545	141.48
401.754	174.25
401.963	141.48
402.172	55.47
402.381	170.15
402.59	139.43
402.799	102.57
403.008	157.86
403.217	131.24
403.426	174.25
403.635	73.9
403.844	168.1
404.053	159.91
404.262	149.67
404.471	96.43
404.68	190.63
404.888	151.72
405.097	153.77
405.306	264.36
405.515	188.58
405.724	137.38
405.933	147.62
406.142	266.41
406.35	168.1
406.559	168.1
406.768	231.59
406.977	317.61
407.185	290.98
407.394	235.69
407.603	161.96
407.812	209.06
408.02	288.93
408.229	250.02
408.438	290.98
408.646	309.41
408.855	258.21
409.064	266.41
409.272	315.56
409.481	348.33
409.69	348.33
409.898	276.65
410.107	333.99
410.315	409.76
410.524	374.95
410.733	370.85
410.941	372.9
411.15	422.05
411.358	403.62
411.567	389.28
411.775	417.96
411.984	381.09
412.192	520.35
412.401	495.78
412.609	512.16
412.818	549.03
413.026	540.83
413.234	514.21
413.443	544.93
413.651	559.27
413.86	608.42
414.068	676
414.276	708.77
414.485	700.58
414.693	669.86
414.901	786.59
415.11	753.82
415.318	895.13
415.526	778.4
415.734	944.28
415.943	866.46
416.151	932
416.359	923.8
416.567	923.8
416.776	999.58
416.984	1075.35
417.192	1042.59
417.4	1101.98
417.608	1056.92
417.817	1163.42
418.025	1190.04
418.233	1304.73
418.441	1243.29
418.649	1290.39
418.857	1456.28
419.065	1487
419.273	1388.69
419.481	1493.14
419.689	1656.98
419.897	1503.38
420.105	1669.27
420.313	1747.09
420.521	1695.89
420.729	1898.64
420.937	1915.02
421.145	1898.64
421.353	2046.09
421.561	2140.3
421.769	2115.72
421.977	2224.26
422.185	2238.6
422.393	2328.71
422.601	2648.19
422.809	2556.04
423.017	2631.81
423.224	2723.97
423.432	2728.07
423.64	2687.11
423.848	2992.25
424.056	2904.19
424.263	3166.33
424.471	3121.28
424.679	3219.58
424.887	3350.65
425.094	3477.62
425.302	3545.2
425.51	3582.07
425.718	3725.43
425.925	3776.63
426.133	3977.33
426.341	4239.47
426.548	4413.54
426.756	4421.74
426.964	4382.82
427.171	4628.58
427.379	4792.42
427.586	4767.84
427.794	5046.37
428.001	5249.11
428.209	5474.39
428.417	5392.47
428.624	5599.32
428.832	5668.95
429.039	5546.07
429.247	5769.3
429.454	6432.84
429.662	6762.56
429.869	6170.7
430.076	6690.88
430.284	6479.94
430.491	6905.92
430.699	7041.09
430.906	7196.73
431.114	7249.98
431.321	7540.79
431.528	7958.58
431.736	8065.07
431.943	8419.37
432.15	8280.11
432.358	8220.72
432.565	8845.35
432.772	8865.83
432.979	9412.64
433.187	9396.25
433.394	9459.74
433.601	10250.25
433.808	10084.37
434.016	9881.62
434.223	10446.86
434.43	11048.96
434.637	10897.41
434.844	11692.02
435.052	11710.46
435.259	11710.46
435.466	11849.72
435.673	11759.61
435.88	12640.23
436.087	13191.14
436.294	13107.17
436.501	12937.19
436.708	13228
436.915	13643.74
437.122	14233.55
437.329	14208.98
437.537	14741.45
437.743	14839.75
437.95	14749.64
438.157	15251.39
438.364	15939.51
438.571	15919.03
438.778	15912.89
438.985	17575.84
439.192	17010.6
439.399	17268.64
439.606	17014.7
439.813	17923.99
440.02	19201.93
440.227	18923.4
440.433	18497.42
440.64	19160.97
440.847	19066.76
441.054	19773.31
441.261	20797.29
441.467	20490.1
441.674	21174.12
441.881	21987.16
442.088	21606.24
442.294	21387.11
442.501	21972.83
442.708	22433.62
442.914	23336.77
443.121	24332.09
443.328	23748.42
443.534	25489.19
443.741	24823.6
443.948	24317.75
444.154	26253.08
444.361	25888.54
444.568	26091.29
444.774	26193.69
444.981	26496.79
445.187	26953.49
445.394	28448.5
445.6	28167.93
445.807	30650.07
446.013	29392.62
446.22	29839.08
446.426	31264.46
446.633	31282.89
446.839	32104.13
447.046	30772.95
447.252	32829.11
447.459	32788.15
447.665	32569.02
447.871	33975.97
448.078	35200.66
448.284	33904.29
448.491	34915.99
448.697	36198.02
448.903	36552.32
449.11	36705.91
449.316	36085.38
449.522	37033.59
449.728	37848.68
449.935	37875.3
450.141	37803.63
450.347	38864.47
450.553	37637.74
450.76	38258.27
450.966	39435.86
451.172	38985.3
451.378	39933.51
451.584	38610.53
451.791	40068.68
451.997	39786.06
452.203	40332.87
452.409	40623.68
452.615	40056.39
452.821	38473.31
453.027	38487.65
453.233	40253
453.44	38671.96
453.646	38887
453.852	38973.02
454.058	40121.93
454.264	38706.78
454.47	39231.06
454.676	38162.02
454.882	39712.33
455.088	36277.89
455.294	36847.22
455.5	37099.12
455.705	37772.91
455.911	36136.58
456.117	35468.94
456.323	34606.75
456.529	33273.52
456.735	34590.36
456.941	33697.45
457.147	33150.64
457.352	31948.48
457.558	31639.24
457.764	31798.98
457.97	31297.23
458.176	30584.54
458.381	30600.92
458.587	29050.61
458.793	28917.49
458.999	27113.23
459.204	29345.51
459.41	28186.36
459.616	26515.22
459.821	26566.42
460.027	26611.48
460.233	26066.72
460.438	24977.2
460.644	25202.47
460.85	23748.42
461.055	23390.02
461.261	23232.33
461.466	21557.09
461.672	21176.17
461.878	22544.21
462.083	20983.66
462.289	20760.43
462.494	20426.61
462.7	19632
462.905	18876.3
463.111	19822.46
463.316	19795.84
463.522	19197.83
463.727	19177.35
463.932	19464.07
464.138	18954.12
464.343	19201.93
464.549	18470.8
464.754	19318.66
464.959	18925.45
465.165	19019.66
465.37	17991.58
465.575	17612.7
465.781	18311.06
465.986	18710.41
466.191	17661.85
466.397	17479.58
466.602	16678.83
466.807	17309.6
467.012	17182.63
467.218	17260.45
467.423	16969.64
467.628	16928.68
467.833	17602.46
468.038	17002.41
468.244	16607.15
468.449	17098.66
468.654	16818.09
468.859	16537.52
469.064	16328.63
469.269	15798.2
469.474	16043.96
469.679	16265.14
469.885	15683.52
470.09	16003
470.295	15704
470.5	15392.7
470.705	15445.95
470.91	15155.14
471.115	15138.76
471.32	15417.28
471.525	15122.37
471.73	14839.75
471.935	14882.76
472.139	14340.05
472.344	14381.01
472.549	14399.44
472.754	14088.15
472.959	13799.38
473.164	13524.96
473.369	13428.7
473.574	13877.21
473.778	13748.18
473.983	13567.96
474.188	13502.43
474.393	12969.96
474.598	12853.22
474.802	12978.15
475.007	12752.87
475.212	12699.62
475.417	12386.29
475.621	12285.94
475.826	12410.86
476.031	12103.67
476.235	11974.64
476.44	11907.06
476.645	11679.74
476.849	11823.09
477.054	11601.91
477.259	11313.15
477.463	11579.39
477.668	11018.24
477.872	11337.73
478.077	11038.72
478.282	10811.4
478.486	10604.55
478.691	10600.46
478.895	10682.38
479.1	10784.77
479.304	10706.95
479.509	10174.48
479.713	10655.75
479.918	10323.98
480.122	10055.7
480.326	10371.08
480.531	10268.69
480.735	10211.34
480.94	10080.27
481.144	10532.87
481.348	9758.74
481.553	10045.46
481.757	9793.56
481.961	9955.35
482.166	10055.7
482.37	10043.41
482.574	9748.5
482.778	9889.81
482.983	10004.5
483.187	9811.99
483.391	9924.63
483.595	9697.3
483.8	9709.59
484.004	9975.83
484.208	10125.33
484.412	9869.33
484.616	9867.28
484.821	9740.31
485.025	9793.56
485.229	9953.3
485.433	9715.73
485.637	9852.95
485.841	9762.84
486.045	9496.6
486.249	9908.24
486.453	9725.97
486.657	9654.3
486.861	10010.64
487.065	9599
487.269	9537.56
487.473	9771.03
487.677	9920.53
487.881	9957.39
488.085	9801.75
488.289	9984.02
488.493	9660.44
488.697	9805.85
488.901	9926.68
489.105	9926.68
489.309	9787.41
489.512	9889.81
489.716	9826.32
489.92	9975.83
490.124	9801.75
490.328	10252.3
490.531	9936.92
490.735	10082.32
490.939	9996.31
491.143	10039.31
491.346	9902.1
491.55	10278.93
491.754	10084.37
491.958	10276.88
492.161	10254.35
492.365	10113.04
492.569	10080.27
492.772	10283.02
492.976	10360.84
493.18	10461.2
493.383	10436.62
493.587	10696.71
493.79	10366.99
493.994	10577.93
494.197	10782.73
494.401	10711.05
494.605	10901.51
494.808	10930.18
495.012	11018.24
495.215	11169.79
495.419	11137.02
495.622	11137.02
495.825	11182.08
496.029	11153.41
496.232	11634.68
496.436	11429.88
496.639	11778.04
496.843	11571.19
497.046	11997.17
497.249	11982.84
497.453	12042.23
497.656	12322.8
497.859	12201.97
498.063	12427.25
498.266	12562.41
498.469	12683.24
498.673	12840.93
498.876	12763.11
499.079	13107.17
499.282	12709.86
499.485	13273.06
499.689	13332.45
499.892	13559.77
500.095	13486.04
500.298	14098.39
500.501	13529.05
500.705	14090.2
500.908	14170.07
501.111	14251.99
501.314	14561.23
501.517	14411.73
501.72	14931.91
501.923	14725.07
502.126	15255.49
502.329	15237.06
502.532	15400.9
502.735	15572.93
502.938	15919.03
503.141	15968.18
503.344	16267.19
503.547	16328.63
503.75	16295.86
503.953	16750.51
504.156	16889.77
504.359	16717.74
504.562	17102.76
504.765	17569.69
504.968	17344.42
505.17	17840.03
505.373	17708.96
505.576	18225.04
505.779	17993.62
505.982	18476.94
506.185	18722.7
506.387	18546.58
506.59	18861.96
506.793	19384.19
506.996	19275.65
507.198	19709.82
507.401	19634.05
507.604	19783.55
507.807	20322.16
508.009	20176.76
508.212	20590.45
508.415	20688.75
508.617	21258.09
508.82	21178.22
509.022	20807.53
509.225	21571.43
509.428	21663.58
509.63	21788.51
509.833	21739.36
510.035	22280.02
510.238	22411.09
510.44	22626.13
510.643	22744.91
510.845	23213.9
511.048	23023.44
511.25	23328.58
511.453	23572.29
511.655	24313.66
511.858	23955.26
512.06	24614.71
512.262	24332.09
512.465	24366.9
512.667	25179.95
512.87	25192.23
513.072	25083.69
513.274	25519.91
513.477	25816.86
513.679	26113.82
513.881	26191.64
514.084	26658.58
514.286	26216.22
514.488	26838.8
514.69	27533.06
514.893	27473.67
515.095	27528.97
515.297	27930.37
515.499	27713.28
515.701	28503.8
515.904	28550.9
516.106	28735.22
516.308	29114.09
516.51	29337.32
516.712	29310.7
516.914	29540.07
517.116	30332.64
517.318	30021.34
517.52	30244.57
517.722	30656.21
517.925	30979.79
518.127	31475.4
518.329	31090.38
518.531	31231.69
518.733	31803.08
518.935	32032.45
519.136	31921.86
519.338	32460.48
519.54	32894.64
519.742	32892.6
519.944	32876.21
520.146	33453.74
520.348	33672.87
520.55	33785.51
520.752	33840.81
520.954	34404
521.155	33877.67
521.357	34823.83
521.559	34954.9
521.761	35323.54
521.963	35718.79
522.164	35393.17
522.366	35505.8
522.568	35860.1
522.77	35982.98
522.971	36738.68
523.173	36066.95
523.375	36611.71
523.576	36417.15
523.778	36423.29
523.98	37154.42
524.181	37219.95
524.383	37813.87
524.584	37647.98
524.786	38065.77
524.988	37854.83
525.189	37938.79
525.391	38434.4
525.592	38350.43
525.794	38344.29
525.995	38952.54
526.197	39163.48
526.398	38936.15
526.6	38977.11
526.801	39198.29
527.003	39620.17
527.204	39151.19
527.406	39724.62
527.607	39790.16
527.808	39988.81
528.01	39614.03
528.211	39855.69
528.412	40736.32
528.614	40230.47
528.815	40240.71
529.016	40678.97
529.218	40234.56
529.419	40384.07
529.62	40549.95
529.822	40617.53
530.023	40396.35
530.224	40429.12
530.425	40615.49
530.626	40592.96
530.828	40584.77
531.029	41440.82
531.23	40773.18
531.431	40771.13
531.632	40959.55
531.833	41539.12
532.035	40822.33
532.236	40908.35
532.437	41297.46
532.638	41197.11
532.839	41571.89
533.04	41281.08
533.241	40740.41
533.442	41651.76
533.643	41020.98
533.844	41678.38
534.045	41315.89
534.246	41033.27
534.447	41592.37
534.648	40994.36
534.849	41125.43
535.05	40990.27
535.251	41182.77
535.451	41170.49
535.652	41608.75
535.853	41389.62
536.054	41150.01
536.255	41459.25
536.456	41016.89
536.657	41567.79
536.857	41293.36
537.058	41029.18
537.259	41367.09
537.46	41393.72
537.66	41145.91
537.861	41291.32
538.062	41197.11
538.263	41150.01
538.463	40900.15
538.664	41061.94
538.865	41238.07
539.065	41336.37
539.266	40873.53
539.466	41537.07
539.667	40339.01
539.868	41184.82
540.068	40814.14
540.269	41207.35
540.469	41240.12
540.67	40648.25
540.87	40939.07
541.071	40980.03
541.271	41117.24
541.472	41041.46
541.672	40803.9
541.873	40437.31
542.073	40332.87
542.274	41313.84
542.474	40777.28
542.675	40574.53
542.875	41113.14
543.075	40975.93
543.276	40353.35
543.476	41158.2
543.676	40801.85
543.877	40867.39
544.077	40963.64
544.277	40121.93
544.478	40515.14
544.678	40918.59
544.878	40588.86
545.078	40629.82
545.279	40349.25
545.479	40633.92
545.679	40670.78
545.879	40486.46
546.079	40388.16
546.28	40650.3
546.48	40197.7
546.68	40644.16
546.88	40572.48
547.08	40392.26
547.28	40441.41
547.48	40214.09
547.68	40470.08
547.88	40150.6
548.081	40465.99
548.281	40494.66
548.481	40033.86
548.681	40150.6
548.881	40420.93
549.081	39958.09
549.28	40281.67
549.48	40670.78
549.68	40158.79
549.88	40472.13
550.08	39771.72
550.28	40195.65
550.48	40177.22
550.68	40113.73
550.88	40121.93
551.08	39984.71
551.279	40072.78
551.479	40093.25
551.679	39892.55
551.879	40244.8
552.079	40238.66
552.278	39872.07
552.478	39835.21
552.678	40015.43
552.878	40142.41
553.077	39982.66
553.277	39759.44
553.477	40150.6
553.676	39419.47
553.876	39997
554.076	39751.24
554.275	39450.19
554.475	39296.6
554.674	40267.33
554.874	39824.97
555.074	39491.15
555.273	39566.93
555.473	39620.17
555.672	39079.51
555.872	39323.22
556.071	39431.76
556.271	39290.45
556.47	39341.65
556.67	39171.67
556.869	39257.68
557.068	39818.83
557.268	39177.81
557.467	39220.82
557.667	39173.72
557.866	39255.64
558.065	39159.38
558.265	38745.69
558.464	38674.01
558.663	39136.85
558.863	38766.17
559.062	39204.44
559.261	38727.26
559.461	39110.23
559.66	38641.25
559.859	38975.06
560.058	38549.09
560.258	38782.55
560.457	38401.63
560.656	38977.11
560.855	38645.34
561.054	38497.89
561.253	38026.85
561.453	38833.75
561.652	38219.36
561.851	38524.51
562.05	37836.39
562.249	37903.98
562.448	38936.15
562.647	37733.99
562.846	37869.16
563.045	37985.9
563.244	37742.19
563.443	38487.65
563.642	37619.31
563.841	37727.85
564.04	37424.75
564.239	37738.09
564.438	37428.85
564.637	37781.1
564.836	37664.36
565.035	37029.49
565.234	37398.13
565.432	37097.08
565.631	37226.1
565.83	37281.39
566.029	37074.55
566.228	36734.59
566.427	36886.14
566.625	36667
566.824	36474.49
567.023	36839.03
567.222	36234.88
567.42	36697.72
567.619	36486.78
567.818	36664.96
568.016	36216.45
568.215	36497.02
568.414	36304.51
568.612	36413.06
568.811	35968.65
569.01	35907.21
569.208	35645.07
569.407	36318.85
569.605	35700.36
569.804	36423.29
570.002	35477.13
570.201	35554.96
570.4	35704.46
570.598	35233.43
570.797	35219.09
570.995	35407.5
571.193	35032.72
571.392	35389.07
571.59	34993.81
571.789	35200.66
571.987	35194.51
572.186	34662.04
572.384	34932.37
572.582	34551.45
572.781	34961.05
572.979	34438.81
573.177	34858.65
573.376	34760.34
573.574	34240.16
573.772	34461.34
573.971	34213.54
574.169	33810.09
574.367	33969.83
574.565	34031.27
574.763	34287.26
574.962	33654.44
575.16	33398.45
575.358	34104.99
575.556	33486.51
575.754	33652.39
575.952	33130.16
576.151	33478.32
576.349	33289.9
576.547	33244.85
576.745	33353.39
576.943	33547.95
577.141	33203.89
577.339	33234.61
577.537	32929.46
577.735	32657.08
577.933	32249.53
578.131	32632.5
578.329	32487.1
578.527	32573.11
578.725	32308.93
578.923	31987.39
579.121	32192.19
579.319	32184
579.516	32474.81
579.714	31954.63
579.912	31794.89
580.11	31940.29
580.308	31889.09
580.506	32151.23
580.704	31342.28
580.901	31831.75
581.099	31479.5
581.297	30951.12
581.495	31426.25
581.692	31551.18
581.89	31080.14
582.088	31631.05
582.285	30695.13
582.483	31295.18
582.681	31049.42
582.878	31026.9
583.076	30041.82
583.274	30791.38
583.471	30426.84
583.669	30912.21
583.866	30226.14
584.064	30516.95
584.262	30142.17
584.459	30498.52
584.657	29896.42
584.854	30160.61
585.052	29624.04
585.249	30052.06
585.447	29935.33
585.644	29382.38
585.841	29853.41
586.039	29652.71
586.236	29144.81
586.434	29490.92
586.631	29310.7
586.828	29136.62
587.026	29525.74
587.223	29210.35
587.42	29015.79
587.618	28997.36
587.815	28602.1
588.012	28411.64
588.21	28526.33
588.407	28600.05
588.604	28278.52
588.801	28251.9
588.999	28219.13
589.196	28206.84
589.393	28325.63
589.59	27903.74
589.787	27858.69
589.984	27930.37
590.182	27592.45
590.379	28245.76
590.576	27793.15
590.773	27840.26
590.97	27719.43
591.167	27733.76
591.364	27148.04
591.561	27287.31
591.758	27381.51
591.955	27184.91
592.152	27334.41
592.349	26775.31
592.546	27166.48
592.743	27012.88
592.94	26363.67
593.137	26914.58
593.334	27084.56
593.531	26302.23
593.727	26699.54
593.924	26531.61
594.121	26205.98
594.318	26242.84
594.515	25863.97
594.712	26425.11
594.908	25984.8
595.105	26005.28
595.302	25599.78
595.499	25976.61
595.696	25458.47
595.892	25806.62
596.089	25272.11
596.286	25567.01
596.482	25181.99
596.679	25179.95
596.876	25259.82
597.072	25487.14
597.269	25257.77
597.466	24540.98
597.662	24766.26
597.859	24932.14
598.055	25167.66
598.252	24581.94
598.448	24809.26
598.645	24753.97
598.841	24510.26
599.038	24260.41
599.234	24583.99
599.431	24327.99
599.627	24147.77
599.824	23936.83
600.02	24188.73
600.217	24260.41
600.413	23961.41
600.609	24002.36
600.806	23600.96
601.002	24252.22
601.198	23590.72
601.395	23721.79
601.591	23244.62
601.787	23629.63
601.984	23261
602.18	23658.31
602.376	23082.83
602.572	23035.72
602.769	22812.49
602.965	22964.04
603.161	22898.51
603.357	22746.96
603.553	22884.17
603.75	22959.95
603.946	22794.06
604.142	22495.06
604.338	22554.45
604.534	22239.06
604.73	22568.79
604.926	22347.61
605.122	22558.55
605.318	22218.58
605.514	22255.45
605.71	22177.62
605.906	22230.87
606.102	22151
606.298	22077.27
606.494	21747.55
606.69	21858.14
606.886	21641.06
607.082	21737.31
607.278	21745.5
607.474	21153.64
607.67	21604.19
607.866	21247.85
608.062	21727.07
608.257	21192.55
608.453	21165.93
608.649	21210.98
608.845	21069.67
609.041	20881.26
609.236	20842.35
609.432	21176.17
609.628	21020.52
609.824	20825.96
610.019	20871.02
610.215	20737.9
610.411	20916.08
610.606	20670.32
610.802	20895.6
610.998	20678.51
611.193	20705.13
611.389	20469.62
611.584	20078.46
611.78	20479.86
611.976	20361.08
612.171	20494.19
612.367	20211.57
612.562	20244.34
612.758	19963.77
612.953	20283.25
613.149	20424.56
613.344	19853.18
613.539	20330.36
613.735	20066.17
613.93	20092.79
614.126	19998.59
614.321	20111.22
614.517	19877.76
614.712	19892.09
614.907	19629.95
615.103	20062.07
615.298	19767.17
615.493	19953.53
615.688	19523.46
615.884	19812.22
616.079	19421.06
616.274	19582.85
616.47	19505.03
616.665	19310.47
616.86	19648.38
617.055	19572.61
617.25	19347.33
617.445	19513.22
617.641	19060.62
617.836	19195.78
618.031	19154.82
618.226	19087.24
618.421	19142.53
618.616	19089.29
618.811	18743.18
619.006	18909.07
619.201	18278.29
619.396	18763.66
619.591	18352.02
619.786	18560.91
619.981	18167.7
620.176	18667.41
620.371	18171.8
620.566	18261.91
620.761	18046.87
620.956	18065.3
621.151	17854.36
621.346	18016.15
621.541	17604.51
621.735	17989.53
621.93	17500.06
622.125	17661.85
622.32	17215.4
622.515	17725.34
622.709	17295.27
622.904	17221.54
623.099	17203.11
623.294	17252.26
623.488	16906.15
623.683	17100.71
623.878	16662.44
624.072	16650.16
624.267	16785.32
624.462	16416.69
624.656	16412.59
624.851	16310.19
625.046	16086.97
625.24	16345.01
625.435	15976.37
625.629	15898.55
625.824	15853.5
626.018	15859.64
626.213	15478.72
626.407	15519.68
626.602	15284.16
626.796	15282.11
626.991	15327.17
627.185	15290.31
627.38	15288.26
627.574	14886.86
627.768	14933.96
627.963	14870.47
628.157	14911.43
628.352	14964.68
628.546	14723.02
628.74	14688.2
628.935	14641.1
629.129	14473.17
629.323	14430.16
629.517	14157.78
629.712	14366.67
629.906	14120.92
630.1	13823.96
630.294	14213.07
630.489	13887.45
630.683	13981.65
630.877	13758.42
631.071	13989.85
631.265	13649.88
631.459	13610.97
631.653	13299.68
631.848	13547.48
632.042	13307.87
632.236	13449.18
632.43	13033.44
632.624	13125.6
632.818	12935.14
633.012	13023.2
633.206	12986.34
633.4	12920.81
633.594	12705.77
633.788	12795.88
633.982	12611.56
634.176	12597.23
634.369	12586.99
634.563	12298.22
634.757	12369.9
634.951	12228.59
635.145	12175.34
635.339	12384.24
635.533	12265.46
635.726	12036.08
635.92	11995.12
636.114	11970.55
636.308	12029.94
636.501	11792.37
636.695	11696.12
636.889	11431.93
637.083	11816.95
637.276	11515.9
637.47	11579.39
637.664	11325.44
637.857	11251.71
638.051	11294.72
638.244	11368.45
638.438	11116.55
638.632	10981.38
638.825	11210.75
639.019	11028.48
639.212	10952.71
639.406	11155.46
639.599	10944.52
639.793	10911.75
639.986	10846.21
640.18	10760.2
640.373	10747.91
640.567	10510.35
640.76	10475.53
640.954	10250.25
641.147	10266.64
641.34	10229.77
641.534	10297.36
641.727	10217.49
641.92	10246.16
642.114	10100.75
642.307	10186.77
642.5	10188.82
642.694	10065.94
642.887	9791.51
643.08	9807.89
643.273	9752.6
643.467	9959.44
643.66	9652.25
643.853	9807.89
644.046	9386.01
644.239	9400.35
644.432	9404.44
644.626	9326.62
644.819	9472.03
645.012	9300
645.205	9416.73
645.398	9365.53
645.591	9158.69
645.784	9256.99
645.977	9056.29
646.17	8947.75
646.363	8865.83
646.556	8835.11
646.749	8990.75
646.942	8861.73
647.135	8798.24
647.328	8800.29
647.521	8808.48
647.714	8468.52
647.907	8554.54
648.099	8720.42
648.292	8532.01
648.485	8417.32
648.678	8382.51
648.871	8568.87
649.064	8271.92
649.256	8306.73
649.449	8308.78
649.642	8216.62
649.835	8036.4
650.027	8093.74
650.22	8128.56
650.413	8050.74
650.605	7901.23
650.798	7997.49
650.991	7856.18
651.183	7886.9
651.376	7774.26
651.568	7641.14
651.761	7735.35
651.954	7639.09
652.146	7751.73
652.339	7610.42
652.531	7630.9
652.724	7528.5
652.916	7319.61
653.109	7520.31
653.301	7372.86
653.494	7340.09
653.686	7329.85
653.879	7170.11
654.071	7129.15
654.263	7241.79
654.456	7297.08
654.648	7239.74
654.84	6959.17
655.033	7086.14
655.225	7055.42
655.417	7041.09
655.61	6926.4
655.802	7000.13
655.994	6694.98
656.186	6932.54
656.379	6801.47
656.571	6746.18
656.763	6781
656.955	6684.74
657.148	6525
657.34	6703.17
657.532	6559.81
657.724	6529.1
657.916	6639.69
658.108	6463.56
658.3	6565.96
658.492	6520.9
658.684	6457.42
658.876	6574.15
659.068	6348.87
659.26	6363.21
659.452	6363.21
659.644	6228.04
659.836	6176.84
660.028	6160.46
660.22	5998.67
660.412	6006.86
660.604	6096.97
660.796	6146.12
660.988	5967.95
661.18	6105.17
661.372	5922.9
661.563	5963.86
661.755	5908.56
661.947	5986.38
662.139	5939.28
662.331	5871.7
662.522	5896.27
662.714	5769.3
662.906	5759.06
663.097	5740.63
663.289	5675.09
663.481	5587.03
663.673	5662.8
663.864	5474.39
664.056	5406.81
664.247	5525.59
664.439	5449.82
664.631	5613.65
664.822	5560.41
665.014	5388.38
665.205	5451.86
665.397	5306.46
665.588	5376.09
665.78	5392.47
665.971	5353.56
666.163	5378.14
666.354	5214.3
666.546	5249.11
666.737	5212.25
666.929	5183.58
667.12	5044.32
667.311	5052.51
667.503	4984.93
667.694	5173.34
667.885	5062.75
668.077	5181.53
668.268	4929.63
668.459	5046.37
668.651	4913.25
668.842	4900.96
669.033	4878.43
669.224	4829.28
669.416	4790.37
669.607	4903.01
669.798	4845.66
669.989	4808.8
670.18	4685.92
670.371	4604
670.563	4782.18
670.754	4638.82
670.945	4708.45
671.136	4782.18
671.327	4718.69
671.518	4671.59
671.709	4636.77
671.9	4663.4
672.091	4589.67
672.282	4530.28
672.473	4507.75
672.664	4477.03
672.855	4462.69
673.046	4550.76
673.237	4403.3
673.428	4391.02
673.619	4403.3
673.809	4534.37
674	4491.37
674.191	4483.17
674.382	4290.67
674.573	4305
674.764	4337.77
674.954	4384.87
675.145	4065.39
675.336	4239.47
675.527	4204.65
675.717	4233.32
675.908	4159.6
676.099	4173.93
676.289	4122.73
676.48	4159.6
676.671	4130.92
676.861	4157.55
677.052	4114.54
677.243	4139.12
677.433	4149.36
677.624	4114.54
677.814	4081.77
678.005	4065.39
678.195	4053.1
678.386	4073.58
678.576	4046.96
678.767	4018.29
678.957	4059.24
679.148	4063.34
679.338	4028.53
679.529	4032.62
679.719	3956.85
679.909	3954.8
680.1	3836.02
680.29	3881.07
680.481	3928.17
680.671	3938.41
680.861	3952.75
681.052	3784.82
681.242	3895.41
681.432	3960.94
681.622	3893.36
681.813	3831.92
682.003	3793.01
682.193	3676.27
682.383	3793.01
682.573	3741.81
682.764	3797.1
682.954	3760.24
683.144	3741.81
683.334	3741.81
683.524	3643.51
683.714	3795.06
683.904	3739.76
684.094	3803.25
684.284	3692.66
684.474	3772.53
684.664	3663.99
684.854	3719.28
685.044	3586.16
685.234	3563.64
685.424	3551.35
685.614	3537.01
685.804	3657.84
685.994	3502.2
686.184	3635.32
686.374	3489.91
686.564	3598.45
686.753	3557.49
686.943	3518.58
687.133	3436.66
687.323	3418.23
687.513	3432.57
687.702	3500.15
687.892	3424.37
688.082	3446.9
688.272	3479.67
688.461	3389.56
688.651	3387.51
688.841	3399.8
689.03	3383.42
689.22	3448.95
689.41	3346.55
689.599	3199.1
689.789	3256.44
689.979	3268.73
690.168	3184.76
690.358	3332.22
690.547	3315.83
690.737	3254.39
690.926	3221.63
691.116	3223.67
691.305	3332.22
691.495	3240.06
691.684	3242.11
691.874	3137.66
692.063	3147.9
692.252	3151.99
692.442	3076.22
692.631	3160.19
692.82	3151.99
693.01	3027.07
693.199	3027.07
693.388	3145.85
693.578	2971.77
693.767	3045.5
693.956	2875.52
694.146	2975.87
694.335	2965.63
694.524	3033.21
694.713	2963.58
694.902	3125.37
695.092	3000.44
695.281	2994.3
695.47	2945.15
695.659	2955.39
695.848	2816.13
696.037	2969.73
696.226	2922.62
696.415	2961.53
696.604	2912.38
696.793	2967.68
696.982	2881.66
697.171	2971.77
697.36	2885.76
697.549	3084.41
697.738	2828.42
697.927	2916.48
698.116	2842.75
698.305	2865.28
698.494	2838.66
698.683	2826.37
698.872	2943.1
699.061	2807.94
699.25	2941.05
699.438	2887.81
699.627	2865.28
699.816	2824.32
700.005	2801.79
700.193	2791.55
700.382	2873.47
700.571	2973.82
700.76	2848.9
700.948	2857.09
701.137	2906.24
701.326	2689.15
701.514	2805.89
701.703	2996.35
701.892	2863.23
702.08	2900.09
702.269	2875.52
702.457	2752.64
702.646	2834.56
702.834	2805.89
703.023	2793.6
703.212	2838.66
703.4	2908.29
703.589	2777.22
703.777	2801.79
703.965	2826.37
704.154	2943.1
704.342	2848.9
704.531	2701.44
704.719	2787.46
704.907	2746.5
705.096	2750.59
705.284	2754.69
705.472	2867.33
705.661	2928.77
705.849	2760.83
706.037	2736.26
706.226	2830.46
706.414	2697.35
706.602	2715.78
706.79	2748.54
706.979	2709.63
707.167	2797.7
707.355	2701.44
707.543	2803.84
707.731	2877.57
707.919	2744.45
708.107	2803.84
708.296	2842.75
708.484	2838.66
708.672	2805.89
708.86	2826.37
709.048	2728.07
709.236	2705.54
709.424	2850.94
709.612	2717.83
709.8	2670.72
709.988	2773.12
710.176	2744.45
710.364	2762.88
710.551	2775.17
710.739	2867.33
710.927	2824.32
711.115	2760.83
711.303	2658.43
711.491	2830.46
711.679	2730.11
711.866	2783.36
712.054	2799.74
712.242	2719.87
712.43	2746.5
712.617	2701.44
712.805	2736.26
712.993	2785.41
713.181	2732.16
713.368	2668.67
713.556	2838.66
713.744	2742.4
713.931	2687.11
714.119	2674.82
714.306	2814.08
714.494	2711.68
714.682	2869.37
714.869	2693.25
715.057	2875.52
715.244	2805.89
715.432	2760.83
715.619	2748.54
715.807	2723.97
715.994	2713.73
716.182	2726.02
716.369	2812.03
716.556	2840.7
716.744	2695.3
716.931	2879.61
717.119	2791.55
717.306	2752.64
717.493	2723.97
717.681	2642.05
717.868	2691.2
718.055	2723.97
718.242	2670.72
718.43	2807.94
718.617	2715.78
718.804	2726.02
718.991	2726.02
719.179	2824.32
719.366	2750.59
719.553	2748.54
719.74	2746.5
719.927	2660.48
720.114	2756.74
720.301	2734.21
720.488	2660.48
720.676	2730.11
720.863	2736.26
721.05	2889.85
721.237	2646.15
721.424	2730.11
721.611	2728.07
721.798	2742.4
721.985	2807.94
722.172	2660.48
722.358	2855.04
722.545	2574.47
722.732	2644.1
722.919	2644.1
723.106	2719.87
723.293	2605.19
723.48	2629.76
723.667	2502.79
723.853	2545.8
724.04	2640
724.227	2699.39
724.414	2736.26
724.6	2650.24
724.787	2683.01
724.974	2748.54
725.161	2640
725.347	2508.93
725.534	2734.21
725.72	2648.19
725.907	2549.89
726.094	2658.43
726.28	2541.7
726.467	2523.27
726.653	2832.51
726.84	2658.43
727.027	2728.07
727.213	2461.83
727.4	2674.82
727.586	2488.45
727.773	2576.52
727.959	2597
728.145	2613.38
728.332	2508.93
728.518	2713.73
728.705	2601.09
728.891	2607.23
729.077	2566.28
729.264	2566.28
729.45	2644.1
729.636	2537.6
729.823	2541.7
730.009	2631.81
730.195	2586.76
730.382	2660.48
730.568	2492.55
730.754	2562.18
730.94	2527.36
731.126	2597
731.313	2545.8
731.499	2553.99
731.685	2545.8
731.871	2683.01
732.057	2480.26
732.243	2531.46
732.429	2535.56
732.615	2568.32
732.801	2529.41
732.987	2431.11
733.173	2504.84
733.359	2521.22
733.545	2560.13
733.731	2492.55
733.917	2513.03
734.103	2523.27
734.289	2541.7
734.475	2547.84
734.661	2619.52
734.847	2478.21
735.033	2549.89
735.219	2398.34
735.404	2439.3
735.59	2492.55
735.776	2472.07
735.962	2537.6
736.148	2494.6
736.333	2455.69
736.519	2398.34
736.705	2496.64
736.89	2461.83
737.076	2459.78
737.262	2574.47
737.447	2318.47
737.633	2441.35
737.819	2291.85
738.004	2529.41
738.19	2451.59
738.375	2369.67
738.561	2474.12
738.747	2332.81
738.932	2361.48
739.118	2406.53
739.303	2322.57
739.489	2418.82
739.674	2300.04
739.859	2318.47
740.045	2244.74
740.23	2371.72
740.416	2164.87
740.601	2269.32
740.786	2168.97
740.972	2246.79
741.157	2341
741.342	2166.92
741.528	2297.99
741.713	2300.04
741.898	2257.03
742.084	2123.91
742.269	2289.8
742.454	2195.59
742.639	2193.55
742.824	2308.23
743.01	2242.7
743.195	2222.22
743.38	2111.63
743.565	2232.46
743.75	2242.7
743.935	2181.26
744.12	2214.02
744.305	2029.71
744.49	2005.13
744.675	2152.59
744.86	2209.93
745.045	2199.69
745.23	2130.06
745.415	2119.82
745.6	2054.28
745.785	2005.13
745.97	1976.46
746.155	2068.62
746.34	2181.26
746.525	1978.51
746.71	2003.08
746.895	1890.45
747.079	2039.95
747.264	2058.38
747.449	1976.46
747.634	1953.93
747.819	1994.89
748.003	1806.48
748.188	1915.02
748.373	1951.88
748.557	1943.69
748.742	1888.4
748.927	1751.18
749.111	1872.01
749.296	1843.34
749.481	1822.86
749.665	1773.71
749.85	1687.7
750.034	1755.28
750.219	1777.81
750.404	1650.83
750.588	1732.75
750.773	1683.6
750.957	1730.7
751.141	1742.99
751.326	1640.59
751.51	1718.42
751.695	1689.74
751.879	1630.35
752.064	1697.94
752.248	1667.22
752.432	1587.35
752.617	1628.31
752.801	1566.87
752.985	1671.31
753.17	1509.52
753.354	1665.17
753.538	1611.92
753.722	1552.53
753.907	1480.85
754.091	1493.14
754.275	1552.53
754.459	1491.09
754.643	1376.41
754.828	1400.98
755.012	1390.74
755.196	1425.56
755.38	1443.99
755.564	1443.99
755.748	1396.89
755.932	1452.18
756.116	1419.41
756.3	1509.52
756.484	1347.73
756.668	1435.8
756.852	1368.21
757.036	1409.17
757.22	1380.5
757.404	1296.53
757.588	1347.73
757.772	1372.31
757.956	1319.06
758.14	1360.02
758.323	1274.01
758.507	1280.15
758.691	1327.25
758.875	1308.82
759.059	1249.43
759.242	1214.62
759.426	1224.86
759.61	1214.62
759.794	1265.82
759.977	1249.43
760.161	1271.96
760.345	1206.42
760.528	1224.86
760.712	1175.7
760.895	1216.66
761.079	1185.94
761.263	1075.35
761.446	1218.71
761.63	1120.41
761.813	1263.77
761.997	1165.46
762.18	1083.55
762.364	1151.13
762.547	1089.69
762.731	1157.27
762.914	1165.46
763.098	1169.56
763.281	1083.55
763.464	1069.21
763.648	1097.88
763.831	991.39
764.015	1022.11
764.198	1075.35
764.381	1020.06
764.564	1071.26
764.748	1138.84
764.931	1077.4
765.114	1007.77
765.297	991.39
765.481	975
765.664	1044.63
765.847	1005.72
766.03	932
766.213	1073.31
766.397	895.13
766.58	929.95
766.763	1007.77
766.946	1024.16
767.129	999.58
767.312	1003.68
767.495	970.91
767.678	895.13
767.861	999.58
768.044	917.66
768.227	981.15
768.41	936.09
768.593	989.34
768.776	999.58
768.959	839.84
769.142	923.8
769.324	989.34
769.507	964.76
769.69	921.76
769.873	895.13
770.056	1056.92
770.239	968.86
770.421	938.14
770.604	907.42
770.787	901.28
770.97	897.18
771.152	913.56
771.335	886.94
771.518	874.65
771.7	854.17
771.883	888.99
772.066	905.37
772.248	876.7
772.431	880.8
772.613	950.43
772.796	809.12
772.978	870.56
773.161	854.17
773.343	743.58
773.526	829.6
773.708	807.07
773.891	682.14
774.073	888.99
774.256	837.79
774.438	778.4
774.621	805.02
774.803	784.54
774.985	684.19
775.168	774.3
775.35	819.36
775.532	790.69
775.715	682.14
775.897	753.82
776.079	753.82
776.261	719.01
776.444	780.45
776.626	747.68
776.808	766.11
776.99	733.34
777.173	694.43
777.355	610.47
777.537	694.43
777.719	714.91
777.901	788.64
778.083	692.38
778.265	585.89
778.447	665.76
778.629	649.38
778.811	741.54
778.993	614.56
779.175	669.86
779.357	594.08
779.539	641.18
779.721	657.57
779.903	643.23
780.085	565.41
780.267	618.66
780.449	583.84
780.631	635.04
780.812	598.18
780.994	495.78
781.176	569.51
781.358	596.13
781.54	604.32
781.721	561.31
781.903	710.82
782.085	618.66
782.267	575.65
782.448	587.94
782.63	579.75
782.812	542.88
782.993	544.93
783.175	571.55
783.357	575.65
783.538	530.59
783.72	549.03
783.901	585.89
784.083	514.21
784.264	561.31
784.446	587.94
784.627	426.15
784.809	524.45
784.99	491.68
785.172	538.79
785.353	475.3
785.535	417.96
785.716	450.72
785.897	422.05
786.079	506.02
786.26	493.73
786.441	487.59
786.623	454.82
786.804	534.69
786.985	399.52
787.167	440.48
787.348	403.62
787.529	436.39
787.71	542.88
787.891	501.92
788.073	415.91
788.254	446.63
788.435	489.64
788.616	448.68
788.797	467.11
788.978	417.96
789.159	430.24
789.34	467.11
789.522	420
789.703	438.44
789.884	442.53
790.065	422.05
790.246	426.15
790.427	356.52
790.607	336.04
790.788	391.33
790.969	333.99
791.15	424.1
791.331	372.9
791.512	426.15
791.693	387.24
791.874	319.65
792.054	391.33
792.235	403.62
792.416	395.43
792.597	313.51
792.778	370.85
792.958	333.99
793.139	358.57
793.32	346.28
793.5	276.65
793.681	379.04
793.862	354.47
794.042	360.61
794.223	379.04
794.404	319.65
794.584	297.13
794.765	323.75
794.945	295.08
795.126	321.7
795.306	348.33
795.487	342.18
795.667	313.51
795.848	305.32
796.028	307.37
796.209	315.56
796.389	323.75
796.57	303.27
796.75	295.08
796.93	272.55
797.111	241.83
797.291	260.26
797.471	274.6
797.652	233.64
797.832	290.98
798.012	282.79
798.192	247.97
798.373	245.93
798.553	407.72
798.733	221.35
798.913	290.98
799.093	284.84
799.274	258.21
799.454	327.85
799.634	284.84
799.814	260.26
799.994	247.97
800.174	333.99
800.354	305.32
800.534	229.54
800.714	204.97
800.894	282.79
801.074	268.45
801.254	217.26
801.434	336.04
801.614	231.59
801.794	299.17
801.974	626.85
802.154	266.41
802.334	247.97
802.514	241.83
802.693	221.35
802.873	282.79
803.053	305.32
803.233	235.69
803.413	227.5
803.592	280.74
803.772	143.53
803.952	250.02
804.131	194.73
804.311	239.78
804.491	149.67
804.67	278.69
804.85	247.97
805.03	194.73
805.209	329.89
805.389	207.02
805.568	227.5
805.748	178.34
805.928	239.78
806.107	241.83
806.287	270.5
806.466	252.07
806.646	143.53
806.825	139.43
807.004	233.64
807.184	223.4
807.363	196.78
807.543	155.82
807.722	198.82
807.901	286.89
808.081	211.11
808.26	131.24
808.439	252.07
808.619	157.86
808.798	180.39
808.977	229.54
809.156	303.27
809.336	227.5
809.515	250.02
809.694	186.54
809.873	221.35
810.052	221.35
810.231	286.89
810.411	159.91
810.59	194.73
810.769	155.82
810.948	196.78
811.127	207.02
811.306	200.87
811.485	186.54
811.664	247.97
811.843	176.3
812.022	104.62
812.201	131.24
812.38	149.67
812.559	194.73
812.737	182.44
812.916	157.86
813.095	174.25
813.274	110.76
813.453	143.53
813.632	121
813.811	209.06
813.989	88.23
814.168	198.82
814.347	94.38
814.526	196.78
814.704	166.06
814.883	184.49
815.062	65.71
815.24	202.92
815.419	110.76
815.598	106.67
815.776	139.43
815.955	151.72
816.133	149.67
816.312	82.09
816.49	164.01
816.669	131.24
816.847	149.67
817.026	149.67
817.204	118.95
817.383	178.34
817.561	102.57
817.74	141.48
817.918	127.14
818.097	114.86
818.275	98.47
818.453	172.2
818.632	118.95
818.81	125.1
818.988	147.62
819.167	153.77
819.345	157.86
819.523	145.58
819.701	176.3
819.879	159.91
820.058	149.67
820.236	86.19
820.414	102.57
820.592	159.91
820.77	133.29
820.948	104.62
821.127	123.05
821.305	166.06
821.483	118.95
821.661	112.81
821.839	65.71
822.017	149.67
822.195	114.86
822.373	147.62
822.551	178.34
822.729	192.68
822.907	161.96
823.085	121
823.262	170.15
823.44	118.95
823.618	121
823.796	108.71
823.974	106.67
824.152	75.95
824.329	86.19
824.507	118.95
824.685	155.82
824.863	108.71
825.04	63.66
825.218	84.14
825.396	129.19
825.574	110.76
825.751	90.28
825.929	168.1
826.107	149.67
826.284	94.38
826.462	116.9
826.639	75.95
826.817	88.23
826.994	96.43
827.172	141.48
827.349	147.62
827.527	110.76
827.704	94.38
827.882	88.23
828.059	61.61
828.237	67.75
828.414	65.71
828.591	55.47
828.769	71.85
828.946	110.76
829.124	159.91
829.301	161.96
829.478	86.19
829.655	84.14
829.833	131.24
830.01	75.95
830.187	198.82
830.364	125.1
830.542	37.03
830.719	114.86
830.896	123.05
831.073	225.45
831.25	116.9
831.427	32.94
831.604	118.95
831.782	30.89
831.959	110.76
832.136	114.86
832.313	145.58
832.49	135.34
832.667	84.14
832.844	90.28
833.021	77.99
833.198	92.33
833.374	110.76
833.551	104.62
833.728	186.54
833.905	135.34
834.082	20.65
834.259	30.89
834.436	82.09
834.612	41.13
834.789	104.62
834.966	157.86
835.143	102.57
835.319	80.04
835.496	116.9
835.673	135.34
835.85	123.05
836.026	69.8
836.203	98.47
836.38	51.37
836.556	98.47
836.733	61.61
836.909	153.77
837.086	90.28
837.262	39.08
837.439	28.84
837.616	59.56
837.792	4.27
837.968	37.03
838.145	80.04
838.321	98.47
838.498	45.23
838.674	61.61
838.851	65.71
839.027	92.33
839.203	98.47
839.38	71.85
839.556	45.23
839.732	118.95
839.909	51.37
840.085	94.38
840.261	10.41
840.437	28.84
840.614	106.67
840.79	73.9
840.966	104.62
841.142	133.29
841.318	98.47
841.494	172.2
841.671	123.05
841.847	129.19
842.023	67.75
842.199	82.09
842.375	100.52
842.551	32.94
842.727	26.79
842.903	55.47
843.079	73.9
843.255	100.52
843.431	90.28
843.607	90.28
843.783	14.51
843.959	61.61
844.134	129.19
844.31	82.09
844.486	96.43
844.662	94.38
844.838	12.46
845.013	125.1
845.189	65.71
845.365	30.89
845.541	82.09
845.716	92.33
845.892	41.13
846.068	51.37
846.244	16.55
846.419	92.33
846.595	75.95
846.77	53.42
846.946	69.8
847.122	102.57
847.297	47.27
847.473	18.6
847.648	20.65
847.824	73.9
847.999	104.62
848.175	2.22
848.35	116.9
848.526	63.66
848.701	102.57
848.876	4.27
849.052	45.23
849.227	45.23
849.403	39.08
849.578	135.34
849.753	55.47
849.929	49.32
850.104	-26.45
850.279	37.03
850.454	69.8
850.63	84.14
850.805	92.33
850.98	57.51
851.155	43.18
851.33	18.6
851.505	-18.26
851.681	77.99
851.856	-51.03
852.031	47.27
852.206	47.27
852.381	0.17
852.556	75.95
852.731	47.27
852.906	49.32
853.081	4.27
853.256	96.43
853.431	75.95
853.606	16.55
853.781	0.17
853.956	-10.07
854.131	110.76
854.305	39.08
854.48	94.38
854.655	57.51
854.83	61.61
855.005	20.65
855.18	43.18
855.354	26.79
855.529	10.41
855.704	-24.4
855.879	108.71
856.053	63.66
856.228	71.85
856.403	22.7
856.577	22.7
856.752	-46.93
856.926	-53.08
857.101	-10.07
857.276	-8.02
857.45	20.65
857.625	67.75
857.799	18.6
857.974	45.23
858.148	39.08
858.323	77.99
858.497	6.31
858.672	67.75
858.846	26.79
859.02	73.9
859.195	-14.17
859.369	28.84
859.543	30.89
859.718	34.99
859.892	-26.45
860.066	94.38
860.241	67.75
860.415	34.99
860.589	45.23
860.763	28.84
860.938	-42.84
861.112	43.18
861.286	67.75
861.46	47.27
861.634	37.03
861.808	104.62
861.982	24.75
862.157	84.14
862.331	57.51
862.505	-3.93
862.679	73.9
862.853	34.99
863.027	82.09
863.201	80.04
863.375	61.61
863.549	49.32
863.722	88.23
863.896	104.62
864.07	-12.12
864.244	-24.4
864.418	2.22
864.592	102.57
864.766	57.51
864.939	30.89
865.113	49.32
865.287	39.08
865.461	-40.79
865.634	-22.36
865.808	90.28
865.982	10.41
866.156	59.56
866.329	28.84
866.503	80.04
866.676	47.27
866.85	8.36
867.024	92.33
867.197	39.08
867.371	47.27
867.544	94.38
867.718	65.71
867.891	63.66
868.065	28.84
868.238	63.66
868.412	32.94
868.585	26.79
868.759	26.79
868.932	37.03
869.105	61.61
869.279	22.7
869.452	73.9
869.625	2.22
869.799	32.94
869.972	16.55
870.145	-28.5
870.319	16.55
870.492	49.32
870.665	-16.21
870.838	37.03
871.011	-32.6
871.185	49.32
871.358	41.13
871.531	59.56
871.704	-69.46
871.877	-53.08
872.05	4.27
872.223	-3.93
872.396	24.75
872.569	10.41
872.742	2.22
872.915	47.27
873.088	-28.5
873.261	8.36
873.434	39.08
873.607	-53.08
873.78	6.31
873.953	59.56
874.126	-48.98
874.299	39.08
874.471	22.7
874.644	77.99
874.817	69.8
874.99	67.75
875.163	26.79
875.335	39.08
875.508	-12.12
875.681	-16.21
875.853	49.32
876.026	-22.36
876.199	-10.07
876.371	57.51
876.544	65.71
876.717	4.27
876.889	20.65
877.062	71.85
877.234	-61.27
877.407	-12.12
877.579	-22.36
877.752	98.47
877.924	20.65
878.097	51.37
878.269	57.51
878.442	-3.93
878.614	18.6
878.786	75.95
878.959	57.51
879.131	73.9
879.303	30.89
879.476	55.47
879.648	47.27
879.82	41.13
879.993	12.46
880.165	-34.64
880.337	-20.31
880.509	30.89
880.681	14.51
880.854	28.84
881.026	41.13
881.198	22.7
881.37	30.89
881.542	67.75
881.714	92.33
881.886	6.31
882.058	30.89
882.23	37.03
882.402	14.51
882.574	106.67
882.746	16.55
882.918	39.08
883.09	-18.26
883.262	30.89
883.434	51.37
883.606	-30.55
883.778	24.75
883.95	51.37
884.122	-48.98
884.293	28.84
884.465	24.75
884.637	41.13
884.809	51.37
884.98	34.99
885.152	63.66
885.324	26.79
885.496	22.7
885.667	-14.17
885.839	-3.93
886.011	86.19
886.182	8.36
886.354	69.8
886.525	0.17
886.697	22.7
886.869	-32.6
887.04	-3.93
887.212	57.51
887.383	20.65
887.555	-28.5
887.726	73.9
887.897	43.18
888.069	8.36
888.24	28.84
888.412	0.17
888.583	20.65
888.754	-26.45
888.926	-44.88
889.097	-3.93
889.268	0.17
889.44	-10.07
889.611	41.13
889.782	-12.12
889.953	39.08
890.125	84.14
890.296	-16.21
890.467	22.7
890.638	0.17
890.809	-26.45
890.98	-14.17
891.151	24.75
891.323	92.33
891.494	12.46
891.665	4.27
891.836	20.65
892.007	30.89
892.178	22.7
892.349	32.94
892.52	-75.6
892.691	16.55
892.862	6.31
893.032	0.17
893.203	-22.36
893.374	77.99
893.545	71.85
893.716	-38.74
893.887	57.51
894.057	32.94
894.228	-16.21
894.399	-8.02
894.57	28.84
894.74	0.17
894.911	41.13
895.082	-36.69
895.253	49.32
895.423	53.42
895.594	24.75
895.764	-40.79
895.935	-3.93
896.106	-61.27
896.276	12.46
896.447	12.46
896.617	12.46
896.788	65.71
896.958	41.13
897.129	57.51
897.299	80.04
897.47	12.46
897.64	61.61
897.81	-106.32
897.981	-36.69
898.151	10.41
898.322	55.47
898.492	-22.36
898.662	-28.5
898.832	-40.79
899.003	49.32
899.173	-67.41
899.343	-5.97
899.513	45.23
