Data from USB4F104151__50__12-01-33-410.txt Node

Date: Fri Mar 14 12:01:33 EDT 2025
User: louis
Spectrometer: USB4F10415
Trigger mode: 4
Integration Time (sec): 2.000000E-2
Scans to average: 1
Electric dark correction enabled: true
Nonlinearity correction enabled: false
Boxcar width: 0
XAxis mode: Wavelengths
Number of Pixels in Spectrum: 3648
>>>>>Begin Spectral Data<<<<<
178.204	-44.2
178.424	-44.2
178.644	-44.2
178.864	-58.54
179.084	-72.87
179.304	2.9
179.524	-1.19
179.744	52.05
179.964	21.33
180.184	13.14
180.404	62.29
180.624	-19.63
180.844	-56.49
181.064	-44.2
181.283	15.19
181.503	-17.58
181.723	-27.82
181.943	0.85
182.163	54.1
182.383	11.09
182.602	68.44
182.822	68.44
183.042	29.52
183.262	-38.06
183.482	25.43
183.701	50
183.921	54.1
184.141	-3.24
184.361	109.4
184.58	19.29
184.8	80.72
185.02	25.43
185.239	84.82
185.459	93.01
185.679	31.57
185.898	95.06
186.118	101.2
186.338	23.38
186.557	58.2
186.777	72.53
186.997	31.57
187.216	111.44
187.436	54.1
187.655	31.57
187.875	74.58
188.095	-36.01
188.314	99.16
188.534	115.54
188.753	90.96
188.973	66.39
189.192	15.19
189.412	68.44
189.631	64.34
189.851	-7.34
190.07	138.07
190.29	23.38
190.509	86.87
190.729	37.72
190.948	121.68
191.168	93.01
191.387	29.52
191.607	54.1
191.826	50
192.045	72.53
192.265	84.82
192.484	74.58
192.704	101.2
192.923	11.09
193.142	50
193.362	-9.39
193.581	86.87
193.8	74.58
194.02	31.57
194.239	60.24
194.458	37.72
194.678	86.87
194.897	15.19
195.116	-1.19
195.335	43.86
195.555	133.97
195.774	58.2
195.993	117.59
196.212	31.57
196.432	105.3
196.651	23.38
196.87	-17.58
197.089	123.73
197.308	64.34
197.528	45.91
197.747	31.57
197.966	93.01
198.185	45.91
198.404	43.86
198.623	95.06
198.842	107.35
199.062	101.2
199.281	111.44
199.5	9.05
199.719	56.15
199.938	15.19
200.157	45.91
200.376	17.24
200.595	60.24
200.814	60.24
201.033	15.19
201.252	45.91
201.471	45.91
201.69	90.96
201.909	93.01
202.128	54.1
202.347	33.62
202.566	101.2
202.785	93.01
203.004	35.67
203.223	60.24
203.442	60.24
203.661	74.58
203.879	99.16
204.098	13.14
204.317	84.82
204.536	95.06
204.755	29.52
204.974	-13.48
205.193	70.48
205.411	133.97
205.63	80.72
205.849	29.52
206.068	72.53
206.287	35.67
206.505	50
206.724	95.06
206.943	105.3
207.162	-42.15
207.381	52.05
207.599	60.24
207.818	11.09
208.037	21.33
208.255	35.67
208.474	60.24
208.693	64.34
208.911	54.1
209.13	117.59
209.349	62.29
209.567	56.15
209.786	54.1
210.005	17.24
210.223	58.2
210.442	66.39
210.661	0.85
210.879	113.49
211.098	82.77
211.316	60.24
211.535	142.16
211.753	-38.06
211.972	109.4
212.191	4.95
212.409	58.2
212.628	74.58
212.846	78.68
213.065	82.77
213.283	86.87
213.502	-7.34
213.72	70.48
213.938	31.57
214.157	17.24
214.375	45.91
214.594	66.39
214.812	62.29
215.031	-15.53
215.249	72.53
215.467	41.81
215.686	78.68
215.904	97.11
216.122	52.05
216.341	39.76
216.559	80.72
216.778	-1.19
216.996	41.81
217.214	19.29
217.432	80.72
217.651	50
217.869	82.77
218.087	58.2
218.306	-40.11
218.524	88.92
218.742	117.59
218.96	4.95
219.179	25.43
219.397	84.82
219.615	66.39
219.833	70.48
220.051	60.24
220.27	45.91
220.488	119.64
220.706	19.29
220.924	80.72
221.142	23.38
221.36	86.87
221.578	76.63
221.796	80.72
222.015	76.63
222.233	43.86
222.451	152.4
222.669	-5.29
222.887	47.96
223.105	95.06
223.323	15.19
223.541	113.49
223.759	17.24
223.977	7
224.195	95.06
224.413	70.48
224.631	154.45
224.849	84.82
225.067	93.01
225.285	78.68
225.503	97.11
225.721	9.05
225.939	68.44
226.157	125.78
226.375	64.34
226.592	52.05
226.81	58.2
227.028	131.92
227.246	78.68
227.464	37.72
227.682	-3.24
227.9	47.96
228.117	72.53
228.335	80.72
228.553	64.34
228.771	54.1
228.989	45.91
229.206	50
229.424	95.06
229.642	76.63
229.86	27.48
230.077	47.96
230.295	113.49
230.513	125.78
230.731	72.53
230.948	17.24
231.166	27.48
231.384	31.57
231.601	74.58
231.819	29.52
232.037	74.58
232.254	15.19
232.472	17.24
232.689	43.86
232.907	72.53
233.125	123.73
233.342	93.01
233.56	82.77
233.777	41.81
233.995	37.72
234.213	13.14
234.43	111.44
234.648	-19.63
234.865	45.91
235.083	-13.48
235.3	64.34
235.518	58.2
235.735	99.16
235.953	107.35
236.17	64.34
236.388	103.25
236.605	58.2
236.822	127.83
237.04	93.01
237.257	117.59
237.475	27.48
237.692	50
237.909	56.15
238.127	113.49
238.344	68.44
238.562	9.05
238.779	103.25
238.996	31.57
239.214	82.77
239.431	39.76
239.648	27.48
239.865	60.24
240.083	41.81
240.3	50
240.517	146.26
240.735	41.81
240.952	70.48
241.169	111.44
241.386	60.24
241.603	119.64
241.821	7
242.038	70.48
242.255	101.2
242.472	9.05
242.689	13.14
242.907	86.87
243.124	174.93
243.341	99.16
243.558	101.2
243.775	113.49
243.992	17.24
244.209	41.81
244.426	99.16
244.643	95.06
244.86	35.67
245.078	54.1
245.295	37.72
245.512	76.63
245.729	52.05
245.946	97.11
246.163	58.2
246.38	101.2
246.597	35.67
246.814	105.3
247.031	93.01
247.248	19.29
247.464	39.76
247.681	37.72
247.898	72.53
248.115	68.44
248.332	76.63
248.549	50
248.766	115.54
248.983	39.76
249.2	93.01
249.417	74.58
249.633	66.39
249.85	50
250.067	64.34
250.284	58.2
250.501	70.48
250.717	101.2
250.934	76.63
251.151	21.33
251.368	47.96
251.585	123.73
251.801	43.86
252.018	33.62
252.235	129.88
252.451	11.09
252.668	31.57
252.885	133.97
253.102	58.2
253.318	82.77
253.535	17.24
253.752	86.87
253.968	-5.29
254.185	-9.39
254.401	78.68
254.618	56.15
254.835	43.86
255.051	84.82
255.268	62.29
255.484	45.91
255.701	21.33
255.917	52.05
256.134	107.35
256.351	0.85
256.567	-21.67
256.784	17.24
257	39.76
257.217	31.57
257.433	25.43
257.65	54.1
257.866	97.11
258.082	11.09
258.299	37.72
258.515	164.69
258.732	99.16
258.948	39.76
259.165	78.68
259.381	82.77
259.597	33.62
259.814	-33.96
260.03	93.01
260.246	54.1
260.463	60.24
260.679	64.34
260.895	88.92
261.112	45.91
261.328	13.14
261.544	68.44
261.761	90.96
261.977	62.29
262.193	19.29
262.409	111.44
262.626	37.72
262.842	99.16
263.058	109.4
263.274	152.4
263.49	111.44
263.707	4.95
263.923	78.68
264.139	21.33
264.355	0.85
264.571	131.92
264.787	21.33
265.004	113.49
265.22	50
265.436	70.48
265.652	86.87
265.868	72.53
266.084	-1.19
266.3	97.11
266.516	-3.24
266.732	76.63
266.948	60.24
267.164	70.48
267.38	58.2
267.596	56.15
267.812	97.11
268.028	146.26
268.244	93.01
268.46	97.11
268.676	123.73
268.892	17.24
269.108	23.38
269.324	60.24
269.54	17.24
269.756	17.24
269.972	66.39
270.188	52.05
270.403	43.86
270.619	101.2
270.835	54.1
271.051	82.77
271.267	86.87
271.483	80.72
271.698	90.96
271.914	13.14
272.13	93.01
272.346	29.52
272.562	39.76
272.777	99.16
272.993	66.39
273.209	17.24
273.425	72.53
273.64	43.86
273.856	41.81
274.072	50
274.287	15.19
274.503	119.64
274.719	72.53
274.934	29.52
275.15	-11.43
275.366	101.2
275.581	2.9
275.797	101.2
276.012	62.29
276.228	37.72
276.444	80.72
276.659	129.88
276.875	47.96
277.09	45.91
277.306	123.73
277.521	107.35
277.737	82.77
277.952	99.16
278.168	90.96
278.383	93.01
278.599	78.68
278.814	62.29
279.03	129.88
279.245	97.11
279.461	27.48
279.676	29.52
279.892	23.38
280.107	15.19
280.322	9.05
280.538	68.44
280.753	45.91
280.969	113.49
281.184	-7.34
281.399	80.72
281.615	107.35
281.83	54.1
282.045	62.29
282.26	35.67
282.476	41.81
282.691	9.05
282.906	29.52
283.122	86.87
283.337	72.53
283.552	88.92
283.767	13.14
283.983	113.49
284.198	33.62
284.413	115.54
284.628	105.3
284.843	88.92
285.058	43.86
285.274	70.48
285.489	66.39
285.704	121.68
285.919	76.63
286.134	166.74
286.349	101.2
286.564	76.63
286.779	66.39
286.995	47.96
287.21	-1.19
287.425	105.3
287.64	146.26
287.855	-9.39
288.07	66.39
288.285	84.82
288.5	58.2
288.715	50
288.93	82.77
289.145	142.16
289.36	82.77
289.575	27.48
289.79	109.4
290.004	54.1
290.219	56.15
290.434	31.57
290.649	23.38
290.864	27.48
291.079	47.96
291.294	86.87
291.509	64.34
291.724	47.96
291.938	72.53
292.153	43.86
292.368	101.2
292.583	76.63
292.798	68.44
293.012	70.48
293.227	52.05
293.442	64.34
293.657	56.15
293.871	64.34
294.086	82.77
294.301	64.34
294.516	111.44
294.73	-15.53
294.945	35.67
295.16	29.52
295.374	82.77
295.589	70.48
295.804	13.14
296.018	117.59
296.233	82.77
296.447	93.01
296.662	99.16
296.877	140.12
297.091	93.01
297.306	80.72
297.52	33.62
297.735	43.86
297.949	39.76
298.164	131.92
298.378	90.96
298.593	52.05
298.807	80.72
299.022	70.48
299.236	78.68
299.451	93.01
299.665	60.24
299.88	70.48
300.094	80.72
300.309	76.63
300.523	82.77
300.737	70.48
300.952	-5.29
301.166	76.63
301.381	19.29
301.595	43.86
301.809	15.19
302.024	84.82
302.238	23.38
302.452	164.69
302.667	35.67
302.881	21.33
303.095	125.78
303.309	52.05
303.524	23.38
303.738	37.72
303.952	97.11
304.166	43.86
304.381	19.29
304.595	117.59
304.809	21.33
305.023	41.81
305.237	174.93
305.452	60.24
305.666	119.64
305.88	148.31
306.094	56.15
306.308	84.82
306.522	33.62
306.736	66.39
306.95	74.58
307.164	93.01
307.379	88.92
307.593	136.02
307.807	88.92
308.021	68.44
308.235	90.96
308.449	37.72
308.663	99.16
308.877	168.79
309.091	148.31
309.305	109.4
309.519	-19.63
309.733	123.73
309.947	19.29
310.161	72.53
310.374	19.29
310.588	95.06
310.802	119.64
311.016	95.06
311.23	37.72
311.444	45.91
311.658	138.07
311.872	29.52
312.085	105.3
312.299	80.72
312.513	82.77
312.727	103.25
312.941	43.86
313.154	72.53
313.368	58.2
313.582	54.1
313.796	78.68
314.009	45.91
314.223	84.82
314.437	90.96
314.651	129.88
314.864	43.86
315.078	43.86
315.292	37.72
315.505	58.2
315.719	15.19
315.933	29.52
316.146	101.2
316.36	68.44
316.573	80.72
316.787	172.88
317.001	45.91
317.214	43.86
317.428	144.21
317.641	93.01
317.855	64.34
318.068	39.76
318.282	136.02
318.495	105.3
318.709	90.96
318.922	58.2
319.136	123.73
319.349	78.68
319.563	80.72
319.776	39.76
319.99	121.68
320.203	35.67
320.417	97.11
320.63	7
320.843	56.15
321.057	95.06
321.27	21.33
321.483	17.24
321.697	97.11
321.91	31.57
322.124	105.3
322.337	95.06
322.55	29.52
322.763	35.67
322.977	125.78
323.19	56.15
323.403	47.96
323.617	56.15
323.83	121.68
324.043	127.83
324.256	129.88
324.469	-19.63
324.683	101.2
324.896	80.72
325.109	88.92
325.322	93.01
325.535	56.15
325.748	123.73
325.962	78.68
326.175	72.53
326.388	129.88
326.601	64.34
326.814	43.86
327.027	117.59
327.24	125.78
327.453	-79.02
327.666	-13.48
327.879	93.01
328.092	181.07
328.305	86.87
328.518	7
328.731	84.82
328.944	125.78
329.157	82.77
329.37	88.92
329.583	60.24
329.796	70.48
330.009	25.43
330.222	35.67
330.435	72.53
330.648	47.96
330.861	66.39
331.073	111.44
331.286	113.49
331.499	109.4
331.712	119.64
331.925	76.63
332.138	35.67
332.35	127.83
332.563	168.79
332.776	131.92
332.989	13.14
333.202	27.48
333.414	52.05
333.627	86.87
333.84	74.58
334.053	84.82
334.265	23.38
334.478	80.72
334.691	70.48
334.903	162.64
335.116	84.82
335.329	43.86
335.541	80.72
335.754	-5.29
335.966	103.25
336.179	88.92
336.392	4.95
336.604	4.95
336.817	146.26
337.029	105.3
337.242	109.4
337.454	93.01
337.667	66.39
337.88	74.58
338.092	86.87
338.305	107.35
338.517	56.15
338.729	82.77
338.942	80.72
339.154	82.77
339.367	121.68
339.579	121.68
339.792	19.29
340.004	50
340.217	-25.77
340.429	117.59
340.641	25.43
340.854	76.63
341.066	84.82
341.278	97.11
341.491	158.55
341.703	66.39
341.915	76.63
342.128	125.78
342.34	47.96
342.552	31.57
342.764	90.96
342.977	86.87
343.189	76.63
343.401	80.72
343.613	86.87
343.826	107.35
344.038	9.05
344.25	146.26
344.462	62.29
344.674	146.26
344.886	39.76
345.099	25.43
345.311	76.63
345.523	133.97
345.735	7
345.947	144.21
346.159	119.64
346.371	56.15
346.583	86.87
346.795	90.96
347.007	72.53
347.219	123.73
347.431	133.97
347.643	138.07
347.855	84.82
348.067	23.38
348.279	93.01
348.491	7
348.703	76.63
348.915	90.96
349.127	54.1
349.339	152.4
349.551	97.11
349.763	78.68
349.975	105.3
350.187	103.25
350.399	117.59
350.61	29.52
350.822	86.87
351.034	60.24
351.246	133.97
351.458	60.24
351.669	93.01
351.881	97.11
352.093	95.06
352.305	72.53
352.517	33.62
352.728	109.4
352.94	60.24
353.152	101.2
353.363	84.82
353.575	58.2
353.787	131.92
353.999	109.4
354.21	111.44
354.422	84.82
354.633	84.82
354.845	99.16
355.057	107.35
355.268	115.54
355.48	78.68
355.692	33.62
355.903	111.44
356.115	47.96
356.326	70.48
356.538	127.83
356.749	97.11
356.961	64.34
357.172	54.1
357.384	74.58
357.595	68.44
357.807	97.11
358.018	80.72
358.23	113.49
358.441	144.21
358.653	176.98
358.864	-23.72
359.075	52.05
359.287	115.54
359.498	111.44
359.709	72.53
359.921	125.78
360.132	15.19
360.344	52.05
360.555	144.21
360.766	64.34
360.977	109.4
361.189	127.83
361.4	93.01
361.611	90.96
361.823	146.26
362.034	39.76
362.245	76.63
362.456	58.2
362.667	72.53
362.879	76.63
363.09	105.3
363.301	142.16
363.512	78.68
363.723	66.39
363.935	119.64
364.146	62.29
364.357	56.15
364.568	101.2
364.779	23.38
364.99	123.73
365.201	72.53
365.412	93.01
365.623	21.33
365.834	125.78
366.045	17.24
366.256	52.05
366.467	95.06
366.678	4.95
366.889	31.57
367.1	86.87
367.311	105.3
367.522	117.59
367.733	66.39
367.944	164.69
368.155	35.67
368.366	103.25
368.577	70.48
368.788	105.3
368.999	31.57
369.209	39.76
369.42	103.25
369.631	144.21
369.842	119.64
370.053	138.07
370.264	109.4
370.474	152.4
370.685	68.44
370.896	84.82
371.107	76.63
371.317	127.83
371.528	119.64
371.739	74.58
371.95	86.87
372.16	121.68
372.371	-15.53
372.582	19.29
372.792	64.34
373.003	13.14
373.214	99.16
373.424	127.83
373.635	90.96
373.846	115.54
374.056	97.11
374.267	121.68
374.477	115.54
374.688	170.83
374.898	52.05
375.109	131.92
375.319	138.07
375.53	86.87
375.74	58.2
375.951	131.92
376.161	84.82
376.372	39.76
376.582	70.48
376.793	148.31
377.003	82.77
377.214	21.33
377.424	146.26
377.635	113.49
377.845	125.78
378.055	168.79
378.266	21.33
378.476	125.78
378.686	58.2
378.897	113.49
379.107	113.49
379.317	90.96
379.528	50
379.738	136.02
379.948	119.64
380.158	35.67
380.369	107.35
380.579	78.68
380.789	117.59
380.999	105.3
381.21	140.12
381.42	45.91
381.63	164.69
381.84	47.96
382.05	68.44
382.261	74.58
382.471	105.3
382.681	84.82
382.891	84.82
383.101	105.3
383.311	45.91
383.521	183.12
383.731	150.36
383.941	136.02
384.151	95.06
384.361	103.25
384.571	121.68
384.781	72.53
384.991	121.68
385.201	136.02
385.411	86.87
385.621	99.16
385.831	90.96
386.041	76.63
386.251	131.92
386.461	101.2
386.671	60.24
386.881	121.68
387.091	158.55
387.301	86.87
387.511	54.1
387.72	121.68
387.93	86.87
388.14	29.52
388.35	47.96
388.56	146.26
388.769	47.96
388.979	168.79
389.189	109.4
389.399	160.59
389.609	109.4
389.818	162.64
390.028	125.78
390.238	189.27
390.447	84.82
390.657	121.68
390.867	88.92
391.076	50
391.286	95.06
391.496	105.3
391.705	103.25
391.915	133.97
392.125	213.84
392.334	123.73
392.544	136.02
392.753	119.64
392.963	97.11
393.172	88.92
393.382	86.87
393.591	150.36
393.801	140.12
394.01	129.88
394.22	80.72
394.429	158.55
394.639	82.77
394.848	187.22
395.058	150.36
395.267	56.15
395.477	121.68
395.686	162.64
395.895	164.69
396.105	142.16
396.314	195.41
396.524	174.93
396.733	136.02
396.942	160.59
397.152	144.21
397.361	168.79
397.57	146.26
397.78	121.68
397.989	127.83
398.198	140.12
398.407	109.4
398.617	144.21
398.826	107.35
399.035	150.36
399.244	131.92
399.453	140.12
399.663	113.49
399.872	183.12
400.081	103.25
400.29	207.7
400.499	156.5
400.708	197.46
400.917	162.64
401.127	125.78
401.336	164.69
401.545	133.97
401.754	119.64
401.963	246.61
402.172	125.78
402.381	162.64
402.59	119.64
402.799	117.59
403.008	252.75
403.217	162.64
403.426	191.31
403.635	142.16
403.844	197.46
404.053	351.06
404.262	168.79
404.471	258.9
404.68	207.7
404.888	170.83
405.097	164.69
405.306	252.75
405.515	267.09
405.724	234.32
405.933	262.99
406.142	279.38
406.35	279.38
406.559	265.04
406.768	187.22
406.977	283.47
407.185	250.71
407.394	338.77
407.603	252.75
407.812	246.61
408.02	334.67
408.229	277.33
408.438	326.48
408.646	326.48
408.855	295.76
409.064	314.19
409.272	371.54
409.481	392.02
409.69	416.59
409.898	400.21
410.107	451.41
410.315	453.45
410.524	426.83
410.733	387.92
410.941	494.41
411.15	514.89
411.358	514.89
411.567	584.52
411.775	535.37
411.984	590.67
412.192	598.86
412.401	588.62
412.609	666.44
412.818	680.78
413.026	596.81
413.234	637.77
413.443	772.94
413.651	725.83
413.86	719.69
414.068	762.7
414.276	863.05
414.485	828.23
414.693	805.71
414.901	887.62
415.11	967.49
415.318	955.21
415.526	992.07
415.734	1080.13
415.943	1157.96
416.151	1147.72
416.359	1088.32
416.567	1237.83
416.776	1190.72
416.984	1389.38
417.192	1323.84
417.4	1266.5
417.608	1385.28
417.817	1473.34
418.025	1512.25
418.233	1520.45
418.441	1551.17
418.649	1651.52
418.857	1782.59
419.065	1651.52
419.273	1721.15
419.481	1837.88
419.689	1956.66
419.897	1966.9
420.105	2087.73
420.313	2224.95
420.521	2222.9
420.729	2253.62
420.937	2327.35
421.145	2493.23
421.353	2448.18
421.561	2642.73
421.769	2724.65
421.977	2888.49
422.185	2818.86
422.393	2986.79
422.601	3099.43
422.809	3068.71
423.017	3226.4
423.224	3242.79
423.432	3494.69
423.64	3468.06
423.848	3719.96
424.056	3578.65
424.263	3928.86
424.471	3971.86
424.679	4047.64
424.887	4201.24
425.094	4373.27
425.302	4334.36
425.51	4516.62
425.718	4707.09
425.925	4520.72
426.133	4926.22
426.341	5090.06
426.548	5366.53
426.756	5475.07
426.964	5487.36
427.171	5667.58
427.379	5909.24
427.586	6028.03
427.794	6105.85
428.001	6439.67
428.209	6806.25
428.417	6542.07
428.624	7207.66
428.832	7178.98
429.039	7060.2
429.247	7088.87
429.454	7811.81
429.662	8254.17
429.869	7832.29
430.076	8252.12
430.284	8125.15
430.491	8563.41
430.699	8989.39
430.906	9071.31
431.114	8964.81
431.321	9497.28
431.528	9552.58
431.736	10222.27
431.943	10572.47
432.15	10269.37
432.358	10523.32
432.565	10910.38
432.772	10885.81
432.979	11772.58
433.187	11823.78
433.394	11834.02
433.601	12769.94
433.808	12954.26
434.016	12526.23
434.223	13161.1
434.43	14094.97
434.637	13763.2
434.844	14338.68
435.052	14842.48
435.259	14711.41
435.466	14924.4
435.673	14684.79
435.88	15549.03
436.087	16284.25
436.294	16597.59
436.501	16194.14
436.708	16284.25
436.915	17044.05
437.122	17547.85
437.329	17734.21
437.537	18342.46
437.743	18577.98
437.95	18545.21
438.157	19565.1
438.364	19728.94
438.571	20326.94
438.778	20054.56
438.985	21623.31
439.192	21099.03
439.399	22065.67
439.606	21283.34
439.813	22600.19
440.02	23902.7
440.227	23392.75
440.433	23245.3
440.64	24213.99
440.847	23988.71
441.054	24594.91
441.261	26247.62
441.467	25637.33
441.674	26018.25
441.881	27535.79
442.088	27138.49
442.294	26937.79
442.501	27814.32
442.708	28072.36
442.914	29448.6
443.121	30738.82
443.328	29737.36
443.534	31859.06
443.741	30929.28
443.948	30380.42
444.154	32565.6
444.361	32903.52
444.568	32723.3
444.774	33120.6
444.981	33392.98
445.187	33964.37
445.394	35449.14
445.6	35289.4
445.807	38357.26
446.013	36743.46
446.22	37615.9
446.426	39119.1
446.633	39270.65
446.839	40390.89
447.046	38703.37
447.252	40943.84
447.459	40982.76
447.665	40866.02
447.871	42852.55
448.078	44447.92
448.284	42387.66
448.491	43286.72
448.697	44964.01
448.903	45768.86
449.11	45840.54
449.316	44941.48
449.522	46297.23
449.728	47349.89
449.935	47595.65
450.141	47523.97
450.347	48388.21
450.553	46860.43
450.76	47515.78
450.966	48984.17
451.172	48580.72
451.378	49553.51
451.584	48451.7
451.791	49803.36
451.997	49500.26
452.203	50202.71
452.409	50358.36
452.615	50108.5
452.821	48230.52
453.027	47771.77
453.233	50227.29
453.44	48201.85
453.646	48377.97
453.852	48627.82
454.058	49473.63
454.264	48124.02
454.47	49033.32
454.676	47804.54
454.882	49262.69
455.088	45248.67
455.294	45858.97
455.5	46180.5
455.705	46880.91
455.911	45205.67
456.117	44343.47
456.323	43577.53
456.529	41199.84
456.735	42805.45
456.941	42064.08
457.147	41361.63
457.352	39926
457.558	39434.49
457.764	39303.42
457.97	38619.4
458.176	38025.49
458.381	38195.47
458.587	36051.25
458.793	36483.37
458.999	34365.77
459.204	36645.16
459.41	35289.4
459.616	33149.28
459.821	33358.17
460.027	32807.26
460.233	32694.63
460.438	30701.95
460.644	31021.44
460.85	29886.86
461.055	29364.63
461.261	28979.61
461.466	26776
461.672	25745.87
461.878	27840.94
462.083	26243.52
462.289	25643.47
462.494	25309.65
462.7	24308.19
462.905	23661.04
463.111	24601.05
463.316	24644.06
463.522	23802.35
463.727	24066.53
463.932	24457.7
464.138	23679.47
464.343	23783.91
464.549	23204.34
464.754	24115.69
464.959	23523.82
465.165	23507.44
465.37	22495.74
465.575	21850.63
465.781	22872.57
465.986	22977.01
466.191	22110.72
466.397	21873.16
466.602	20697.63
466.807	21447.18
467.012	21455.37
467.218	21355.02
467.423	21139.99
467.628	21336.59
467.833	22108.68
468.038	21412.37
468.244	20914.71
468.449	21586.44
468.654	20771.35
468.859	20752.92
469.064	20675.1
469.269	19925.54
469.474	19837.48
469.679	20265.5
469.885	19489.32
470.09	19952.16
470.295	19595.82
470.5	19157.55
470.705	19561
470.91	18965.04
471.115	18901.56
471.32	19253.81
471.525	19010.1
471.73	18694.71
471.935	18381.37
472.139	17633.86
472.344	18201.15
472.549	17857.09
472.754	17402.44
472.959	17287.76
473.164	16839.25
473.369	16761.43
473.574	17357.39
473.778	16884.31
473.983	16972.37
474.188	16839.25
474.393	15796.84
474.598	16015.97
474.802	15927.91
475.007	15870.56
475.212	16034.4
475.417	15135.34
475.621	15235.69
475.826	15508.07
476.031	15008.37
476.235	15127.15
476.44	14838.39
476.645	14588.53
476.849	14766.71
477.054	14609.01
477.259	14105.21
477.463	14350.97
477.668	13929.09
477.872	13965.95
478.077	13738.63
478.282	13550.21
478.486	13484.68
478.691	13157
478.895	13466.25
479.1	13269.64
479.304	13230.73
479.509	12757.65
479.713	12796.56
479.918	12704.4
480.122	12741.27
480.326	12655.25
480.531	12880.53
480.735	12634.77
480.94	12509.85
481.144	12864.15
481.348	12143.26
481.553	12456.6
481.757	12096.16
481.961	12532.37
482.166	12511.89
482.37	12356.25
482.574	12243.61
482.778	12188.32
482.983	12403.35
483.187	12565.14
483.391	12436.12
483.595	12137.12
483.8	12350.1
484.004	12151.45
484.208	12192.41
484.412	12178.08
484.616	12122.78
484.821	12128.92
485.025	11987.61
485.229	12012.19
485.433	12268.19
485.637	12397.21
485.841	12102.3
486.045	12104.35
486.249	12051.1
486.453	12090.01
486.657	12137.12
486.861	12186.27
487.065	11950.75
487.269	12165.79
487.473	11954.85
487.677	12221.08
487.881	12348.06
488.085	11891.36
488.289	12384.92
488.493	12188.32
488.697	12028.57
488.901	12360.34
489.105	12163.74
489.309	12300.95
489.512	12307.1
489.716	12223.13
489.92	12339.87
490.124	12178.08
490.328	12386.97
490.531	12362.39
490.735	12464.79
490.939	12636.82
491.143	12462.74
491.346	12343.96
491.55	12710.55
491.754	12366.49
491.958	12894.86
492.161	12653.2
492.365	12610.2
492.569	12638.87
492.772	12364.44
492.976	12651.16
493.18	12892.82
493.383	13091.47
493.587	12886.67
493.79	13437.58
493.994	13144.72
494.197	13212.3
494.401	13343.37
494.605	13449.86
494.808	13695.62
495.012	13632.13
495.215	13566.6
495.419	13982.34
495.622	13752.96
495.825	13976.19
496.029	14318.2
496.232	14275.2
496.436	13800.07
496.639	14535.29
496.843	14475.9
497.046	14740.08
497.249	14856.82
497.453	15170.16
497.656	15219.31
497.859	15014.51
498.063	15286.89
498.266	15506.02
498.469	15676.01
498.673	15755.88
498.876	16063.07
499.079	16175.71
499.282	16171.61
499.485	16575.06
499.689	16452.19
499.892	16781.91
500.095	16980.56
500.298	17404.49
500.501	17050.19
500.705	17408.59
500.908	17834.57
501.111	17891.91
501.314	17662.54
501.517	18152
501.72	18268.73
501.923	18350.65
502.126	18831.93
502.329	19114.55
502.532	19008.05
502.735	19360.3
502.938	19534.38
503.141	19704.36
503.344	19892.77
503.547	19935.78
503.75	20124.19
503.953	20595.23
504.156	21056.02
504.359	20916.76
504.562	21193.23
504.765	21387.79
504.968	21572.11
505.17	21846.54
505.373	22020.61
505.576	22217.22
505.779	22290.95
505.982	22385.15
506.185	23120.37
506.387	23190
506.59	23278.07
506.793	23646.7
506.996	23624.17
507.198	24345.06
507.401	23949.8
507.604	24140.26
507.807	24654.3
508.009	24961.5
508.212	25029.08
508.415	25444.82
508.617	26022.34
508.82	26020.3
509.022	25782.73
509.225	26583.49
509.428	26644.93
509.63	26747.33
509.833	27091.38
510.035	27750.83
510.238	27423.15
510.44	28015.02
510.643	28260.77
510.845	28402.08
511.048	28473.76
511.25	28875.16
511.453	29092.25
511.655	29704.59
511.858	29243.8
512.06	29731.22
512.262	29882.77
512.465	30142.86
512.667	30136.71
512.87	30605.7
513.072	30816.64
513.274	31365.49
513.477	31734.13
513.679	32045.42
513.881	32338.28
514.084	32625
514.286	32702.82
514.488	32792.93
514.69	33472.85
514.893	33698.13
515.095	33839.44
515.297	34347.34
515.499	34431.3
515.701	34832.71
515.904	35393.85
516.106	34910.53
516.308	35193.15
516.51	36202.8
516.712	35821.87
516.914	36229.42
517.116	36944.16
517.318	36688.17
517.52	36993.31
517.722	37376.28
517.925	38058.26
518.127	38164.75
518.329	38154.51
518.531	37970.19
518.733	39108.86
518.935	39098.62
519.136	39315.71
519.338	39631.1
519.54	40003.83
519.742	40392.94
519.944	40274.16
520.146	40925.41
520.348	41177.31
520.55	41109.73
520.752	41427.17
520.954	42555.6
521.155	41677.02
521.357	42545.36
521.559	42455.25
521.761	43055.3
521.963	42782.92
522.164	43378.88
522.366	43589.82
522.568	43755.71
522.77	43825.34
522.971	44503.21
523.173	44005.56
523.375	44744.87
523.576	44734.63
523.778	44875.94
523.98	45279.39
524.181	45590.69
524.383	45764.76
524.584	46139.54
524.786	45944.98
524.988	46137.49
525.189	46418.07
525.391	46465.17
525.592	46827.66
525.794	46981.26
525.995	47057.03
526.197	47452.29
526.398	47085.7
526.6	47390.85
526.801	47825.02
527.003	47943.8
527.204	47892.6
527.406	48435.31
527.607	48126.07
527.808	48533.62
528.01	47468.67
528.211	48619.63
528.412	48892.01
528.614	48633.97
528.815	48836.72
529.016	48945.26
529.218	48693.36
529.419	49438.82
529.62	49234.02
529.822	49305.7
530.023	49221.73
530.224	49254.5
530.425	49453.15
530.626	49168.49
530.828	48955.5
531.029	50518.1
531.23	49537.12
531.431	49487.97
531.632	49551.46
531.833	49614.94
532.035	49635.42
532.236	49696.86
532.437	49711.2
532.638	49600.61
532.839	50038.87
533.04	50575.44
533.241	49580.13
533.442	50479.19
533.643	49926.24
533.844	49918.04
534.045	50192.47
534.246	49713.25
534.447	50272.34
534.648	49666.14
534.849	50100.31
535.05	49234.02
535.251	50260.05
535.451	50284.63
535.652	50413.65
535.853	50002.01
536.054	50509.91
536.255	50235.48
536.456	49846.36
536.657	50630.74
536.857	49846.36
537.058	49948.76
537.259	50018.39
537.46	49991.77
537.66	49739.87
537.861	50126.94
538.062	49879.13
538.263	50020.44
538.463	49606.75
538.664	49926.24
538.865	50313.3
539.065	50131.03
539.266	49651.81
539.466	50161.75
539.667	49342.56
539.868	49729.63
540.068	49905.76
540.269	49950.81
540.469	49498.21
540.67	49447.01
540.87	49569.89
541.071	50042.97
541.271	49877.08
541.472	49410.15
541.672	49784.93
541.873	49510.5
542.073	48961.64
542.274	50010.2
542.474	49485.92
542.675	48937.07
542.875	49565.79
543.075	49594.46
543.276	49221.73
543.476	49985.63
543.676	48861.29
543.877	49651.81
544.077	49573.98
544.277	49152.1
544.478	48935.02
544.678	49598.56
544.878	49244.26
545.078	49272.93
545.279	48699.5
545.479	49109.1
545.679	49156.2
545.879	49256.55
546.079	49293.41
546.28	48715.89
546.48	48816.24
546.68	49537.12
546.88	49170.54
547.08	49117.29
547.28	48975.98
547.48	48836.72
547.68	49006.7
547.88	48279.67
548.081	49471.59
548.281	48707.69
548.481	48762.99
548.681	49231.97
548.881	48644.21
549.081	48506.99
549.28	48627.82
549.48	49336.42
549.68	48640.11
549.88	49029.23
550.08	48306.29
550.28	49045.61
550.48	48654.45
550.68	49148.01
550.88	48566.38
551.08	48603.25
551.279	48541.81
551.479	48517.23
551.679	48435.31
551.879	48660.59
552.079	48234.61
552.278	48369.78
552.478	48261.24
552.678	48187.51
552.878	48894.06
553.077	48439.41
553.277	48144.5
553.477	49127.53
553.676	48521.33
553.876	48236.66
554.076	48226.42
554.275	48169.08
554.475	47526.02
554.674	48728.17
554.874	48562.29
555.074	47853.69
555.273	48693.36
555.473	48588.91
555.672	48181.37
555.872	48109.69
556.071	47980.67
556.271	48242.81
556.47	47741.05
556.67	47693.95
556.869	47644.8
557.068	47966.33
557.268	47259.78
557.467	47874.17
557.667	47802.49
557.866	47618.17
558.065	47521.92
558.265	47093.89
558.464	47304.84
558.663	47698.05
558.863	46743.69
559.062	47872.12
559.261	47212.68
559.461	47902.84
559.66	47038.6
559.859	47356.03
560.058	46956.68
560.258	46928.01
560.457	47188.1
560.656	47050.89
560.855	46379.15
561.054	46768.27
561.253	46125.21
561.453	47310.98
561.652	46979.21
561.851	46780.56
562.05	46921.87
562.249	46360.72
562.448	46762.12
562.647	46188.69
562.846	46411.92
563.045	46213.27
563.244	45830.3
563.443	46588.05
563.642	45621.41
563.841	46418.07
564.04	45801.63
564.239	46129.3
564.438	45924.5
564.637	45719.71
564.836	45926.55
565.035	45195.43
565.234	45662.36
565.432	45117.6
565.631	44972.2
565.83	45691.04
566.029	45234.34
566.228	45097.13
566.427	45035.69
566.625	44701.87
566.824	44695.72
567.023	45144.23
567.222	44269.75
567.42	45469.86
567.619	44527.79
567.818	44644.52
568.016	44755.11
568.215	44742.83
568.414	44523.69
568.612	44953.77
568.811	43913.4
569.01	44390.58
569.208	43880.63
569.407	44423.34
569.605	43641.02
569.804	44378.29
570.002	43929.78
570.201	43837.62
570.4	43419.84
570.598	43204.8
570.797	43634.88
570.995	43663.55
571.193	42819.78
571.392	43540.67
571.59	42510.54
571.789	42934.47
571.987	43282.62
572.186	42827.98
572.384	42950.85
572.582	43030.72
572.781	42784.97
572.979	42420.43
573.177	42295.5
573.376	42586.32
573.574	42250.45
573.772	42377.42
573.971	42041.56
574.169	41898.2
574.367	41722.07
574.565	42234.06
574.763	41959.64
574.962	41771.22
575.16	41144.55
575.358	41715.93
575.556	40980.71
575.754	41410.78
575.952	40784.1
576.151	41533.66
576.349	40863.97
576.547	41093.35
576.745	41136.35
576.943	40966.37
577.141	40693.99
577.339	40589.55
577.537	40612.07
577.735	40427.76
577.933	40171.76
578.131	40644.84
578.329	40147.18
578.527	39948.53
578.725	40083.7
578.923	39876.85
579.121	40093.94
579.319	39549.18
579.516	40222.96
579.714	39657.72
579.912	39549.18
580.11	39313.66
580.308	39420.16
580.506	39041.28
580.704	38666.5
580.901	39217.41
581.099	39098.62
581.297	38887.68
581.495	38811.91
581.692	39039.23
581.89	38605.06
582.088	38748.42
582.285	37830.93
582.483	38678.79
582.681	38304.01
582.878	37796.12
583.076	37880.08
583.274	38478.09
583.471	37490.97
583.669	37908.75
583.866	37361.95
584.064	37994.77
584.262	37466.39
584.459	37589.27
584.657	37105.95
584.854	37482.78
585.052	36831.52
585.249	37331.23
585.447	37191.97
585.644	36344.11
585.841	36987.17
586.039	36874.53
586.236	36442.41
586.434	36309.29
586.631	36167.98
586.828	36759.84
587.026	36239.66
587.223	36147.5
587.42	36233.52
587.618	35860.79
587.815	35299.64
588.012	35610.93
588.21	35191.1
588.407	35768.63
588.604	35443
588.801	35412.28
588.999	35201.34
589.196	35191.1
589.393	35168.57
589.59	35123.52
589.787	34675.01
589.984	34652.48
590.182	34240.84
590.379	34779.46
590.576	34511.17
590.773	34552.13
590.97	34224.46
591.167	34498.89
591.364	33833.3
591.561	33788.24
591.758	33241.43
591.955	33679.7
592.152	34152.78
592.349	33210.71
592.546	33872.21
592.743	33630.55
592.94	32973.15
593.137	33626.45
593.334	33212.76
593.531	32768.35
593.727	33175.9
593.924	33010.01
594.121	32534.88
594.318	32711.01
594.515	32508.26
594.712	32483.69
594.908	32358.76
595.105	32407.91
595.302	32319.85
595.499	32043.37
595.696	31994.22
595.892	31621.49
596.089	31746.42
596.286	31760.75
596.482	31641.97
596.679	31891.82
596.876	31256.95
597.072	31121.79
597.269	31533.43
597.466	30974.33
597.662	30962.04
597.859	30941.57
598.055	30953.85
598.252	30796.16
598.448	30857.6
598.645	30421.38
598.841	30421.38
599.038	30306.69
599.234	30544.26
599.431	29979.02
599.627	29850
599.824	30462.34
600.02	29829.52
600.217	30173.58
600.413	29847.95
600.609	29518.23
600.806	29645.2
601.002	29610.39
601.198	29368.73
601.395	29122.97
601.591	29442.45
601.787	29143.45
601.984	28684.7
602.18	29426.07
602.376	28754.33
602.572	28801.44
602.769	28586.4
602.965	28066.22
603.161	28598.69
603.357	28180.9
603.553	28441
603.75	28471.71
603.946	28084.65
604.142	28072.36
604.338	27787.69
604.534	28004.78
604.73	27662.77
604.926	27730.35
605.122	27677.1
605.318	27111.86
605.514	27621.81
605.71	27484.59
605.906	27306.42
606.102	27480.5
606.298	27097.53
606.494	27056.57
606.69	26849.72
606.886	27644.34
607.082	26849.72
607.278	27158.97
607.474	26061.26
607.67	26808.76
607.866	26472.9
608.062	26708.41
608.257	26352.07
608.453	26536.38
608.649	26636.73
608.845	26452.42
609.041	26286.53
609.236	26200.52
609.432	26374.59
609.628	25989.58
609.824	25930.19
610.019	25868.75
610.215	25719.24
610.411	25690.57
610.606	26018.25
610.802	26325.44
610.998	25666
611.193	25772.49
611.389	25436.63
611.584	25551.31
611.78	25252.31
611.976	25350.61
612.171	25377.23
612.367	25227.73
612.562	24865.24
612.758	24664.54
612.953	24752.6
613.149	25387.47
613.344	24799.71
613.539	25375.19
613.735	25035.22
613.93	24936.92
614.126	24811.99
614.321	25072.09
614.517	24705.5
614.712	24685.02
614.907	24750.56
615.103	25033.18
615.298	24492.51
615.493	24760.8
615.688	24373.73
615.884	24832.47
616.079	23957.99
616.274	24349.15
616.47	23978.47
616.665	24248.8
616.86	23892.46
617.055	23804.39
617.25	24269.28
617.445	23953.9
617.641	23833.07
617.836	23976.42
618.031	23454.19
618.226	23781.87
618.421	23654.89
618.616	23605.74
618.811	23337.46
619.006	23788.01
619.201	23056.89
619.396	23228.91
619.591	22643.2
619.786	23400.94
619.981	22841.85
620.176	23011.83
620.371	22594.04
620.566	22675.96
620.761	22239.75
620.956	22536.7
621.151	22241.79
621.346	22354.43
621.541	22088.2
621.735	22381.06
621.93	21553.68
622.125	21805.58
622.32	21395.98
622.515	21729.8
622.709	21516.81
622.904	21336.59
623.099	21111.32
623.294	21056.02
623.488	20771.35
623.683	21178.9
623.878	20617.75
624.072	20554.27
624.267	20396.57
624.462	20484.64
624.656	20265.5
624.851	20218.4
625.046	20064.8
625.24	19950.12
625.435	19700.26
625.629	20060.71
625.824	19771.94
626.018	19683.88
626.213	19200.56
626.407	19358.25
626.602	19051.06
626.796	19556.91
626.991	19378.73
627.185	18690.62
627.38	19186.22
627.574	18762.3
627.768	18713.14
627.963	18692.66
628.157	18229.82
628.352	18082.37
628.546	17998.4
628.74	18491.96
628.935	18127.42
629.129	18086.47
629.323	17857.09
629.517	17769.03
629.712	17463.88
629.906	17459.79
630.1	17336.91
630.294	17326.67
630.489	17175.12
630.683	17525.32
630.877	16853.59
631.071	16570.97
631.265	17125.97
631.459	16736.85
631.653	16763.48
631.848	16634.46
632.042	16667.22
632.236	16687.7
632.43	16362.08
632.624	16167.52
632.818	16243.29
633.012	16040.54
633.206	16001.63
633.4	15968.87
633.594	15784.55
633.788	15383.15
633.982	15987.3
634.176	15643.24
634.369	15477.35
634.563	15454.83
634.757	15045.23
634.951	15348.33
635.145	15026.8
635.339	15155.82
635.533	15110.77
635.726	14989.94
635.92	14746.23
636.114	14711.41
636.308	14512.76
636.501	14598.77
636.695	14776.95
636.889	14613.11
637.083	14176.89
637.276	14291.58
637.47	14217.85
637.664	14240.38
637.857	14277.24
638.051	14221.95
638.244	13834.88
638.438	13970.05
638.632	13757.06
638.825	13621.89
639.019	13496.97
639.212	13503.11
639.406	13490.82
639.599	13386.38
639.793	13449.86
639.986	13132.43
640.18	13236.88
640.373	13230.73
640.567	12999.31
640.76	12903.06
640.954	12866.19
641.147	12835.47
641.34	12688.02
641.534	12776.08
641.727	12728.98
641.92	12403.35
642.114	12567.19
642.307	12475.03
642.5	12511.89
642.694	12182.17
642.887	12237.47
643.08	12339.87
643.273	12059.29
643.467	12135.07
643.66	12042.91
643.853	11750.05
644.046	11807.39
644.239	11690.66
644.432	11408.04
644.626	11801.25
644.819	11598.5
645.012	11616.93
645.205	11625.12
645.398	11391.66
645.591	11389.61
645.784	11266.73
645.977	11303.59
646.17	11254.44
646.363	11154.09
646.556	10803.89
646.749	11039.4
646.942	11049.64
647.135	10574.52
647.328	10889.9
647.521	10871.47
647.714	10678.96
647.907	10611.38
648.099	10502.84
648.292	10554.04
648.485	10607.28
648.678	10508.98
648.871	10300.09
649.064	10259.13
649.256	10402.49
649.449	10220.22
649.642	9933.5
649.835	9988.8
650.027	10169.02
650.22	9697.99
650.413	9927.36
650.605	9835.2
650.798	9614.02
650.991	9749.18
651.183	9753.28
651.376	9417.41
651.568	9577.16
651.761	9560.77
651.954	9478.85
652.146	9296.58
652.339	9507.52
652.531	9452.23
652.724	9280.2
652.916	9075.4
653.109	9048.78
653.301	9265.86
653.494	9077.45
653.686	9169.61
653.879	9128.65
654.071	9016.01
654.263	8944.33
654.456	8938.19
654.648	8850.13
654.84	8542.93
655.033	8577.75
655.225	8733.39
655.417	8792.78
655.61	8501.97
655.802	8596.18
655.994	8614.61
656.186	8575.7
656.379	8366.81
656.571	8342.23
656.763	8377.05
656.955	8252.12
657.148	8307.41
657.34	8198.87
657.532	8325.85
657.724	8092.38
657.916	8016.6
658.108	7828.19
658.3	7875.29
658.492	7938.78
658.684	7817.95
658.876	7733.98
659.068	7869.15
659.26	7764.7
659.452	7817.95
659.644	7568.1
659.836	7674.59
660.028	7584.48
660.22	7512.8
660.412	7461.6
660.604	7516.9
660.796	7228.14
660.988	7293.67
661.18	7348.97
661.372	7348.97
661.563	7285.48
661.755	7326.44
661.947	7047.91
662.139	7103.21
662.331	7183.08
662.522	7219.94
662.714	7025.39
662.906	6927.08
663.097	6900.46
663.289	7035.63
663.481	6748.91
663.673	6863.6
663.864	6716.14
664.056	6816.49
664.247	6763.25
664.439	6648.56
664.631	6597.36
664.822	6732.53
665.014	6757.1
665.205	6609.65
665.397	6533.87
665.588	6568.69
665.78	6556.4
665.971	6511.35
666.163	6421.24
666.354	6398.71
666.546	6449.91
666.737	6292.21
666.929	6277.88
667.12	6302.45
667.311	6300.41
667.503	6163.19
667.694	6216.44
667.885	6046.46
668.077	6255.35
668.268	6148.86
668.459	5993.21
668.651	5886.72
668.842	6073.08
669.033	5864.19
669.224	5942.01
669.416	5921.53
669.607	5946.11
669.798	5671.68
669.989	5946.11
670.18	5636.86
670.371	5675.77
670.563	5571.33
670.754	5665.53
670.945	5864.19
671.136	5796.6
671.327	5647.1
671.518	5651.2
671.709	5573.38
671.9	5665.53
672.091	5667.58
672.282	5622.53
672.473	5333.76
672.664	5370.63
672.855	5407.49
673.046	5456.64
673.237	5448.45
673.428	5417.73
673.619	5417.73
673.809	5319.43
674	5413.63
674.191	5266.18
674.382	5286.66
674.573	5282.56
674.764	5223.17
674.954	5192.45
675.145	5112.58
675.336	5020.42
675.527	5200.65
675.717	5178.12
675.908	5034.76
676.099	5083.91
676.289	5077.77
676.48	5001.99
676.671	4928.27
676.861	5028.62
677.052	4977.42
677.243	4854.54
677.433	4950.79
677.624	4922.12
677.814	4809.48
678.005	4862.73
678.195	4922.12
678.386	4975.37
678.576	4811.53
678.767	4807.44
678.957	4786.96
679.148	4913.93
679.338	4780.81
679.529	4702.99
679.719	4682.51
679.909	4805.39
680.1	4586.26
680.29	4752.14
680.481	4659.98
680.671	4680.46
680.861	4666.13
681.052	4772.62
681.242	4647.69
681.432	4674.32
681.622	4496.14
681.813	4547.34
682.003	4451.09
682.193	4545.3
682.383	4490
682.573	4508.43
682.764	4383.51
682.954	4522.77
683.144	4569.87
683.334	4510.48
683.524	4444.95
683.714	4463.38
683.904	4320.02
684.094	4504.34
684.284	4344.6
684.474	4334.36
684.664	4428.56
684.854	4277.01
685.044	4354.83
685.234	4207.38
685.424	4258.58
685.614	4328.21
685.804	4178.71
685.994	4172.57
686.184	4207.38
686.374	4205.33
686.564	4264.72
686.753	4066.07
686.943	4061.98
687.133	4227.86
687.323	4182.81
687.513	3992.34
687.702	4061.98
687.892	4031.26
688.082	3949.34
688.272	4162.33
688.461	4031.26
688.651	4057.88
688.841	4057.88
689.03	4147.99
689.22	3889.95
689.41	3881.75
689.599	3859.23
689.789	3910.43
689.979	3906.33
690.168	3879.71
690.358	3699.48
690.547	3836.7
690.737	3707.68
690.926	3820.32
691.116	3574.56
691.305	3791.64
691.495	3683.1
691.684	3674.91
691.874	3771.16
692.063	3605.28
692.252	3683.1
692.442	3666.72
692.631	3502.88
692.82	3611.42
693.01	3603.23
693.199	3597.09
693.388	3597.09
693.578	3427.11
693.767	3470.11
693.956	3506.98
694.146	3447.58
694.335	3453.73
694.524	3441.44
694.713	3615.52
694.902	3549.98
695.092	3416.87
695.281	3380
695.47	3478.3
695.659	3443.49
695.848	3306.27
696.037	3396.39
696.226	3316.51
696.415	3367.71
696.604	3386.15
696.793	3412.77
696.982	3461.92
697.171	3234.6
697.36	3402.53
697.549	3369.76
697.738	3306.27
697.927	3193.64
698.116	3406.63
698.305	3257.12
698.494	3285.8
698.683	3267.36
698.872	3332.9
699.061	3310.37
699.25	3246.88
699.438	3191.59
699.627	3414.82
699.816	3207.97
700.005	3250.98
700.193	3167.01
700.382	3228.45
700.571	3197.73
700.76	3185.44
700.948	3236.64
701.137	3171.11
701.326	3197.73
701.514	3175.2
701.703	3142.44
701.892	3158.82
702.08	3134.25
702.269	3128.1
702.457	3091.24
702.646	3154.73
702.834	3115.81
703.023	3109.67
703.212	3228.45
703.4	3265.32
703.589	3134.25
703.777	3160.87
703.965	3093.29
704.154	3078.95
704.342	3072.81
704.531	3072.81
704.719	3064.61
704.907	3171.11
705.096	3107.62
705.284	3078.95
705.472	3060.52
705.661	3171.11
705.849	3152.68
706.037	3142.44
706.226	2994.98
706.414	3181.35
706.602	3119.91
706.79	3046.18
706.979	3033.9
707.167	3011.37
707.355	2949.93
707.543	3103.53
707.731	3105.57
707.919	3179.3
708.107	2982.7
708.296	3115.81
708.484	2962.22
708.672	3017.51
708.86	3029.8
709.048	3164.97
709.236	3009.32
709.424	3101.48
709.612	3033.9
709.8	2954.02
709.988	3007.27
710.176	2927.4
710.364	2865.96
710.551	3027.75
710.739	3007.27
710.927	2992.94
711.115	3083.05
711.303	3009.32
711.491	3134.25
711.679	3033.9
711.866	3062.57
712.054	2939.69
712.242	2900.78
712.43	2956.07
712.617	2951.98
712.805	2974.5
712.993	2878.25
713.181	2949.93
713.368	3001.13
713.556	3011.37
713.744	2997.03
713.931	3115.81
714.119	3007.27
714.306	2935.59
714.494	2833.19
714.682	3003.18
714.869	2904.87
715.057	2908.97
715.244	2966.31
715.432	2923.3
715.619	2886.44
715.807	2956.07
715.994	2939.69
716.182	2720.56
716.369	2786.09
716.556	2927.4
716.744	2894.63
716.931	2865.96
717.119	2841.39
717.306	2851.63
717.493	2945.83
717.681	2812.71
717.868	2839.34
718.055	2849.58
718.242	2915.11
718.43	2839.34
718.617	2908.97
718.804	2878.25
718.991	2827.05
719.179	2921.26
719.366	2951.98
719.553	2841.39
719.74	2810.67
719.927	2751.28
720.114	2827.05
720.301	2806.57
720.488	2818.86
720.676	2865.96
720.863	2777.9
721.05	2861.87
721.237	2792.23
721.424	2775.85
721.611	2925.35
721.798	2865.96
721.985	2681.64
722.172	2751.28
722.358	2784.04
722.545	2843.43
722.732	2718.51
722.919	2747.18
723.106	2738.99
723.293	2804.52
723.48	2730.8
723.667	2589.49
723.853	2831.15
724.04	2814.76
724.227	2804.52
724.414	2779.95
724.6	2853.67
724.787	2738.99
724.974	2751.28
725.161	2831.15
725.347	2847.53
725.534	2810.67
725.72	2628.4
725.907	2648.88
726.094	2755.37
726.28	2751.28
726.467	2788.14
726.653	2646.83
726.84	2806.57
727.027	2802.47
727.213	2597.68
727.4	2771.76
727.586	2652.97
727.773	2732.84
727.959	2609.97
728.145	2687.79
728.332	2769.71
728.518	2693.93
728.705	2612.01
728.891	2609.97
729.077	2710.32
729.264	2628.4
729.45	2648.88
729.636	2648.88
729.823	2695.98
730.009	2763.56
730.195	2702.12
730.382	2554.67
730.568	2691.88
730.754	2646.83
730.94	2636.59
731.126	2646.83
731.313	2757.42
731.499	2595.63
731.685	2675.5
731.871	2554.67
732.057	2575.15
732.243	2497.33
732.429	2669.36
732.615	2616.11
732.801	2614.06
732.987	2599.73
733.173	2573.1
733.359	2587.44
733.545	2597.68
733.731	2485.04
733.917	2476.85
734.103	2552.62
734.289	2583.34
734.475	2562.86
734.661	2501.42
734.847	2472.75
735.033	2540.33
735.219	2495.28
735.404	2499.38
735.59	2495.28
735.776	2448.18
735.962	2640.69
736.148	2528.05
736.333	2552.62
736.519	2351.92
736.705	2505.52
736.89	2411.31
737.076	2466.61
737.262	2485.04
737.447	2337.59
737.633	2407.22
737.819	2435.89
738.004	2485.04
738.19	2394.93
738.375	2472.75
738.561	2454.32
738.747	2425.65
738.932	2419.5
739.118	2429.74
739.303	2337.59
739.489	2392.88
739.674	2308.91
739.859	2413.36
740.045	2378.55
740.23	2321.2
740.416	2321.2
740.601	2394.93
740.786	2323.25
740.972	2227
741.157	2423.6
741.342	2409.26
741.528	2202.42
741.713	2282.29
741.898	2396.98
742.084	2126.64
742.269	2333.49
742.454	2186.04
742.639	2181.94
742.824	2245.43
743.01	2220.85
743.195	2243.38
743.38	2126.64
743.565	2122.55
743.75	2134.84
743.935	2169.65
744.12	2220.85
744.305	2155.32
744.49	2147.12
744.675	2227
744.86	2196.28
745.045	2124.6
745.23	2071.35
745.415	2022.2
745.6	2102.07
745.785	2052.92
745.97	2134.84
746.155	2018.1
746.34	2038.58
746.525	1983.29
746.71	2061.11
746.895	2065.21
747.079	1950.52
747.264	2071.35
747.449	1887.03
747.634	2003.77
747.819	1956.66
748.003	1977.14
748.188	1964.86
748.373	1948.47
748.557	1940.28
748.742	1835.83
748.927	1913.66
749.111	1790.78
749.296	1825.59
749.481	1893.18
749.665	1782.59
749.85	1782.59
750.034	1794.87
750.219	1780.54
750.404	1715
750.588	1821.5
750.773	1745.72
750.957	1735.48
751.141	1706.81
751.326	1758.01
751.51	1686.33
751.695	1672
751.879	1573.69
752.064	1798.97
752.248	1680.19
752.432	1676.09
752.617	1633.08
752.801	1647.42
752.985	1659.71
753.17	1643.32
753.354	1661.76
753.538	1649.47
753.722	1516.35
753.907	1565.5
754.091	1592.13
754.275	1510.21
754.459	1555.26
754.643	1444.67
754.828	1524.54
755.012	1502.01
755.196	1467.2
755.38	1418.05
755.564	1499.97
755.748	1497.92
755.932	1403.71
756.116	1440.58
756.3	1446.72
756.484	1565.5
756.668	1475.39
756.852	1289.03
757.036	1348.42
757.22	1497.92
757.404	1383.23
757.588	1309.51
757.772	1352.51
757.956	1309.51
758.14	1375.04
758.323	1319.75
758.507	1264.45
758.691	1284.93
758.875	1340.22
759.059	1389.38
759.242	1270.59
759.426	1325.89
759.61	1262.4
759.794	1241.92
759.977	1221.44
760.161	1280.83
760.345	1262.4
760.528	1184.58
760.712	1207.11
760.895	1098.56
761.079	1164.1
761.263	1166.15
761.446	1286.98
761.63	1237.83
761.813	1164.1
761.997	1190.72
762.18	1231.68
762.364	1229.63
762.547	1049.41
762.731	1102.66
762.914	1172.29
763.098	1166.15
763.281	1092.42
763.464	1037.13
763.648	1127.24
763.831	1108.8
764.015	1041.22
764.198	1076.04
764.381	1071.94
764.564	1008.45
764.748	1117
764.931	1041.22
765.114	1102.66
765.297	1030.98
765.481	1047.37
765.664	992.07
765.847	1020.74
766.03	1110.85
766.213	1041.22
766.397	1002.31
766.58	1000.26
766.763	1071.94
766.946	1053.51
767.129	1057.61
767.312	971.59
767.495	1063.75
767.678	969.54
767.861	965.45
768.044	1014.6
768.227	1063.75
768.41	990.02
768.593	979.78
768.776	951.11
768.959	926.54
769.142	998.21
769.324	922.44
769.507	979.78
769.69	979.78
769.873	861
770.056	1043.27
770.239	1016.65
770.421	1037.13
770.604	1010.5
770.787	875.34
770.97	926.54
771.152	944.97
771.335	861
771.518	848.71
771.7	879.43
771.883	944.97
772.066	854.86
772.248	973.64
772.431	877.38
772.613	891.72
772.796	881.48
772.978	916.3
773.161	885.58
773.343	904.01
773.526	758.6
773.708	844.62
773.891	828.23
774.073	897.86
774.256	822.09
774.438	799.56
774.621	805.71
774.803	813.9
774.985	779.08
775.168	881.48
775.35	817.99
775.532	734.03
775.715	815.94
775.897	820.04
776.079	858.95
776.261	801.61
776.444	723.79
776.626	678.73
776.808	705.35
776.99	729.93
777.173	764.75
777.355	705.35
777.537	715.59
777.719	711.5
777.901	637.77
778.083	691.02
778.265	686.92
778.447	748.36
778.629	727.88
778.811	752.46
778.993	656.2
779.175	682.83
779.357	781.13
779.539	705.35
779.721	709.45
779.903	682.83
780.085	590.67
780.267	627.53
780.449	621.39
780.631	629.58
780.812	680.78
780.994	621.39
781.176	660.3
781.358	576.33
781.54	629.58
781.721	633.68
781.903	615.24
782.085	537.42
782.267	633.68
782.448	521.04
782.63	631.63
782.812	566.09
782.993	559.95
783.175	525.13
783.357	553.8
783.538	547.66
783.72	490.32
783.901	533.33
784.083	559.95
784.264	510.8
784.446	478.03
784.627	551.76
784.809	570.19
784.99	496.46
785.172	619.34
785.353	525.13
785.535	533.33
785.716	547.66
785.897	535.37
786.079	570.19
786.26	379.73
786.441	541.52
786.623	471.89
786.804	467.79
786.985	457.55
787.167	475.98
787.348	492.37
787.529	432.97
787.71	469.84
787.891	422.73
788.073	371.54
788.254	404.3
788.435	445.26
788.616	430.93
788.797	441.17
788.978	453.45
789.159	426.83
789.34	461.65
789.522	420.69
789.703	437.07
789.884	414.54
790.065	547.66
790.246	432.97
790.427	410.45
790.607	410.45
790.788	432.97
790.969	414.54
791.15	512.85
791.331	355.15
791.512	482.13
791.693	437.07
791.874	387.92
792.054	463.69
792.235	385.87
792.416	332.62
792.597	408.4
792.778	369.49
792.958	332.62
793.139	373.58
793.32	359.25
793.5	344.91
793.681	375.63
793.862	293.71
794.042	330.58
794.223	336.72
794.404	346.96
794.584	375.63
794.765	301.9
794.945	363.34
795.126	320.34
795.306	363.34
795.487	330.58
795.667	269.14
795.848	346.96
796.028	336.72
796.209	338.77
796.389	334.67
796.57	303.95
796.75	285.52
796.93	297.81
797.111	369.49
797.291	316.24
797.471	375.63
797.652	326.48
797.832	207.7
798.012	351.06
798.192	297.81
798.373	234.32
798.553	254.8
798.733	250.71
798.913	283.47
799.093	303.95
799.274	295.76
799.454	299.86
799.634	400.21
799.814	265.04
799.994	303.95
800.174	320.34
800.354	297.81
800.534	265.04
800.714	297.81
800.894	275.28
801.074	275.28
801.254	295.76
801.434	342.86
801.614	326.48
801.794	242.51
801.974	609.1
802.154	310.1
802.334	283.47
802.514	291.66
802.693	289.62
802.873	258.9
803.053	318.29
803.233	207.7
803.413	326.48
803.592	281.43
803.772	293.71
803.952	320.34
804.131	297.81
804.311	340.82
804.491	293.71
804.67	283.47
804.85	162.64
805.03	228.18
805.209	230.23
805.389	238.42
805.568	326.48
805.748	316.24
805.928	262.99
806.107	291.66
806.287	310.1
806.466	273.23
806.646	201.55
806.825	189.27
807.004	199.51
807.184	195.41
807.363	228.18
807.543	238.42
807.722	215.89
807.901	262.99
808.081	273.23
808.26	207.7
808.439	187.22
808.619	226.13
808.798	244.56
808.977	240.47
809.156	209.75
809.336	246.61
809.515	195.41
809.694	162.64
809.873	215.89
810.052	236.37
810.231	332.62
810.411	154.45
810.59	183.12
810.769	183.12
810.948	193.36
811.127	181.07
811.306	232.27
811.485	183.12
811.664	277.33
811.843	158.55
812.022	176.98
812.201	252.75
812.38	176.98
812.559	191.31
812.737	179.03
812.916	174.93
813.095	195.41
813.274	242.51
813.453	211.79
813.632	195.41
813.811	166.74
813.989	101.2
814.168	181.07
814.347	181.07
814.526	219.99
814.704	238.42
814.883	277.33
815.062	199.51
815.24	183.12
815.419	181.07
815.598	189.27
815.776	197.46
815.955	168.79
816.133	191.31
816.312	201.55
816.49	156.5
816.669	80.72
816.847	117.59
817.026	191.31
817.204	154.45
817.383	156.5
817.561	123.73
817.74	215.89
817.918	119.64
818.097	129.88
818.275	222.03
818.453	146.26
818.632	238.42
818.81	187.22
818.988	181.07
819.167	238.42
819.345	174.93
819.523	72.53
819.701	105.3
819.879	219.99
820.058	142.16
820.236	203.6
820.414	166.74
820.592	119.64
820.77	170.83
820.948	166.74
821.127	142.16
821.305	160.59
821.483	119.64
821.661	133.97
821.839	144.21
822.017	154.45
822.195	185.17
822.373	168.79
822.551	138.07
822.729	209.75
822.907	170.83
823.085	140.12
823.262	131.92
823.44	185.17
823.618	219.99
823.796	183.12
823.974	183.12
824.152	133.97
824.329	103.25
824.507	142.16
824.685	162.64
824.863	74.58
825.04	209.75
825.218	195.41
825.396	172.88
825.574	170.83
825.751	125.78
825.929	146.26
826.107	154.45
826.284	133.97
826.462	162.64
826.639	156.5
826.817	72.53
826.994	107.35
827.172	127.83
827.349	162.64
827.527	154.45
827.704	99.16
827.882	123.73
828.059	144.21
828.237	127.83
828.414	150.36
828.591	60.24
828.769	109.4
828.946	150.36
829.124	152.4
829.301	162.64
829.478	68.44
829.655	111.44
829.833	166.74
830.01	125.78
830.187	99.16
830.364	109.4
830.542	109.4
830.719	125.78
830.896	82.77
831.073	199.51
831.25	160.59
831.427	119.64
831.604	119.64
831.782	78.68
831.959	105.3
832.136	119.64
832.313	93.01
832.49	127.83
832.667	70.48
832.844	113.49
833.021	86.87
833.198	129.88
833.374	127.83
833.551	125.78
833.728	131.92
833.905	70.48
834.082	138.07
834.259	99.16
834.436	123.73
834.612	105.3
834.789	131.92
834.966	74.58
835.143	154.45
835.319	148.31
835.496	56.15
835.673	115.54
835.85	160.59
836.026	7
836.203	90.96
836.38	119.64
836.556	70.48
836.733	101.2
836.909	121.68
837.086	140.12
837.262	111.44
837.439	136.02
837.616	86.87
837.792	58.2
837.968	70.48
838.145	41.81
838.321	127.83
838.498	109.4
838.674	109.4
838.851	111.44
839.027	86.87
839.203	133.97
839.38	82.77
839.556	119.64
839.732	125.78
839.909	15.19
840.085	56.15
840.261	58.2
840.437	84.82
840.614	72.53
840.79	82.77
840.966	109.4
841.142	154.45
841.318	86.87
841.494	105.3
841.671	84.82
841.847	103.25
842.023	64.34
842.199	129.88
842.375	136.02
842.551	37.72
842.727	17.24
842.903	127.83
843.079	86.87
843.255	101.2
843.431	41.81
843.607	95.06
843.783	37.72
843.959	193.36
844.134	72.53
844.31	105.3
844.486	23.38
844.662	115.54
844.838	78.68
845.013	93.01
845.189	121.68
845.365	105.3
845.541	39.76
845.716	99.16
845.892	72.53
846.068	64.34
846.244	45.91
846.419	166.74
846.595	109.4
846.77	64.34
846.946	119.64
847.122	70.48
847.297	2.9
847.473	70.48
847.648	62.29
847.824	107.35
847.999	35.67
848.175	58.2
848.35	66.39
848.526	82.77
848.701	72.53
848.876	105.3
849.052	66.39
849.227	111.44
849.403	90.96
849.578	64.34
849.753	13.14
849.929	148.31
850.104	107.35
850.279	154.45
850.454	7
850.63	158.55
850.805	7
850.98	72.53
851.155	76.63
851.33	131.92
851.505	93.01
851.681	97.11
851.856	74.58
852.031	121.68
852.206	68.44
852.381	9.05
852.556	35.67
852.731	185.17
852.906	64.34
853.081	35.67
853.256	127.83
853.431	-3.24
853.606	80.72
853.781	37.72
853.956	70.48
854.131	31.57
854.305	54.1
854.48	62.29
854.655	97.11
854.83	66.39
855.005	17.24
855.18	80.72
855.354	68.44
855.529	41.81
855.704	19.29
855.879	119.64
856.053	82.77
856.228	64.34
856.403	13.14
856.577	52.05
856.752	60.24
856.926	154.45
857.101	66.39
857.276	-3.24
857.45	64.34
857.625	-23.72
857.799	64.34
857.974	97.11
858.148	41.81
858.323	33.62
858.497	82.77
858.672	56.15
858.846	70.48
859.02	58.2
859.195	62.29
859.369	80.72
859.543	70.48
859.718	39.76
859.892	54.1
860.066	64.34
860.241	39.76
860.415	129.88
860.589	82.77
860.763	19.29
860.938	35.67
861.112	80.72
861.286	11.09
861.46	93.01
861.634	31.57
861.808	97.11
861.982	56.15
862.157	4.95
862.331	58.2
862.505	80.72
862.679	-21.67
862.853	43.86
863.027	56.15
863.201	43.86
863.375	66.39
863.549	97.11
863.722	103.25
863.896	70.48
864.07	31.57
864.244	15.19
864.418	103.25
864.592	76.63
864.766	113.49
864.939	105.3
865.113	23.38
865.287	127.83
865.461	7
865.634	64.34
865.808	29.52
865.982	90.96
866.156	64.34
866.329	56.15
866.503	13.14
866.676	35.67
866.85	47.96
867.024	29.52
867.197	64.34
867.371	54.1
867.544	99.16
867.718	95.06
867.891	15.19
868.065	50
868.238	25.43
868.412	115.54
868.585	25.43
868.759	64.34
868.932	72.53
869.105	72.53
869.279	52.05
869.452	29.52
869.625	99.16
869.799	76.63
869.972	11.09
870.145	45.91
870.319	29.52
870.492	27.48
870.665	21.33
870.838	17.24
871.011	19.29
871.185	15.19
871.358	62.29
871.531	76.63
871.704	13.14
871.877	54.1
872.05	88.92
872.223	41.81
872.396	-3.24
872.569	119.64
872.742	56.15
872.915	-11.43
873.088	27.48
873.261	47.96
873.434	84.82
873.607	86.87
873.78	86.87
873.953	52.05
874.126	11.09
874.299	56.15
874.471	60.24
874.644	107.35
874.817	31.57
874.99	52.05
875.163	70.48
875.335	90.96
875.508	43.86
875.681	54.1
875.853	60.24
876.026	103.25
876.199	21.33
876.371	56.15
876.544	170.83
876.717	17.24
876.889	66.39
877.062	25.43
877.234	-1.19
877.407	33.62
877.579	33.62
877.752	74.58
877.924	43.86
878.097	45.91
878.269	-5.29
878.442	50
878.614	64.34
878.786	-13.48
878.959	35.67
879.131	29.52
879.303	56.15
879.476	37.72
879.648	64.34
879.82	52.05
879.993	54.1
880.165	99.16
880.337	11.09
880.509	-5.29
880.681	-13.48
880.854	31.57
881.026	72.53
881.198	72.53
881.37	13.14
881.542	45.91
881.714	-29.87
881.886	27.48
882.058	47.96
882.23	68.44
882.402	90.96
882.574	45.91
882.746	84.82
882.918	146.26
883.09	2.9
883.262	37.72
883.434	35.67
883.606	50
883.778	50
883.95	123.73
884.122	29.52
884.293	50
884.465	84.82
884.637	86.87
884.809	-13.48
884.98	97.11
885.152	47.96
885.324	107.35
885.496	66.39
885.667	95.06
885.839	9.05
886.011	64.34
886.182	52.05
886.354	84.82
886.525	72.53
886.697	19.29
886.869	-5.29
887.04	21.33
887.212	25.43
887.383	27.48
887.555	25.43
887.726	-7.34
887.897	25.43
888.069	41.81
888.24	74.58
888.412	37.72
888.583	7
888.754	74.58
888.926	-23.72
889.097	60.24
889.268	88.92
889.44	4.95
889.611	-23.72
889.782	9.05
889.953	33.62
890.125	70.48
890.296	64.34
890.467	27.48
890.638	101.2
890.809	88.92
890.98	66.39
891.151	-15.53
891.323	70.48
891.494	37.72
891.665	9.05
891.836	-1.19
892.007	-31.91
892.178	56.15
892.349	90.96
892.52	9.05
892.691	58.2
892.862	15.19
893.032	13.14
893.203	39.76
893.374	35.67
893.545	72.53
893.716	60.24
893.887	88.92
894.057	-7.34
894.228	127.83
894.399	-36.01
894.57	76.63
894.74	2.9
894.911	9.05
895.082	50
895.253	13.14
895.423	31.57
895.594	29.52
895.764	25.43
895.935	37.72
896.106	80.72
896.276	29.52
896.447	70.48
896.617	29.52
896.788	-38.06
896.958	13.14
897.129	4.95
897.299	68.44
897.47	29.52
897.64	41.81
897.81	15.19
897.981	7
898.151	56.15
898.322	76.63
898.492	-11.43
898.662	66.39
898.832	72.53
899.003	74.58
899.173	52.05
899.343	58.2
899.513	2.9
