Data from USB4F104151__6__12-00-20-474.txt Node

Date: Fri Mar 14 12:00:20 EDT 2025
User: louis
Spectrometer: USB4F10415
Trigger mode: 4
Integration Time (sec): 2.000000E-2
Scans to average: 1
Electric dark correction enabled: true
Nonlinearity correction enabled: false
Boxcar width: 0
XAxis mode: Wavelengths
Number of Pixels in Spectrum: 3648
>>>>>Begin Spectral Data<<<<<
178.204	-55.3
178.424	-55.3
178.644	-55.3
178.864	-63.49
179.084	-90.11
179.304	-12.29
179.524	47.1
179.744	57.34
179.964	-6.14
180.184	-45.06
180.404	69.63
180.624	-24.58
180.844	-14.34
181.064	10.24
181.283	-34.82
181.503	-26.62
181.723	-20.48
181.943	-36.86
182.163	75.77
182.383	4.1
182.602	-24.58
182.822	61.44
183.042	28.67
183.262	20.48
183.482	30.72
183.701	-61.44
183.921	38.91
184.141	-4.1
184.361	18.43
184.58	6.14
184.8	-38.91
185.02	-12.29
185.239	49.15
185.459	10.24
185.679	63.49
185.898	-86.01
186.118	57.34
186.338	-12.29
186.557	-14.34
186.777	47.1
186.997	30.72
187.216	61.44
187.436	40.96
187.655	20.48
187.875	-10.24
188.095	61.44
188.314	81.92
188.534	51.2
188.753	-51.2
188.973	57.34
189.192	40.96
189.412	26.62
189.631	65.53
189.851	-45.06
190.07	26.62
190.29	-55.3
190.509	6.14
190.729	-14.34
190.948	34.82
191.168	63.49
191.387	12.29
191.607	-6.14
191.826	-30.72
192.045	-16.38
192.265	49.15
192.484	-10.24
192.704	59.39
192.923	-8.19
193.142	36.86
193.362	12.29
193.581	2.05
193.8	-6.14
194.02	100.35
194.239	24.58
194.458	-47.1
194.678	20.48
194.897	4.1
195.116	-38.91
195.335	-24.58
195.555	-94.21
195.774	32.77
195.993	51.2
196.212	10.24
196.432	-53.25
196.651	104.45
196.87	0
197.089	67.58
197.308	16.38
197.528	49.15
197.747	26.62
197.966	61.44
198.185	81.92
198.404	-14.34
198.623	-32.77
198.842	49.15
199.062	55.3
199.281	51.2
199.5	0
199.719	22.53
199.938	-10.24
200.157	49.15
200.376	-96.25
200.595	24.58
200.814	14.34
201.033	26.62
201.252	40.96
201.471	47.1
201.69	106.49
201.909	51.2
202.128	16.38
202.347	2.05
202.566	34.82
202.785	14.34
203.004	-2.05
203.223	47.1
203.442	10.24
203.661	71.68
203.879	-12.29
204.098	30.72
204.317	-34.82
204.536	10.24
204.755	-6.14
204.974	-16.38
205.193	32.77
205.411	22.53
205.63	4.1
205.849	38.91
206.068	83.97
206.287	86.01
206.505	-14.34
206.724	61.44
206.943	-14.34
207.162	-22.53
207.381	-14.34
207.599	-14.34
207.818	-16.38
208.037	-81.92
208.255	2.05
208.474	-49.15
208.693	61.44
208.911	8.19
209.13	4.1
209.349	100.35
209.567	-71.68
209.786	77.82
210.005	32.77
210.223	40.96
210.442	4.1
210.661	81.92
210.879	4.1
211.098	79.87
211.316	22.53
211.535	26.62
211.753	-14.34
211.972	-63.49
212.191	-12.29
212.409	4.1
212.628	43.01
212.846	6.14
213.065	-6.14
213.283	6.14
213.502	20.48
213.72	-8.19
213.938	-12.29
214.157	-10.24
214.375	-18.43
214.594	-10.24
214.812	-16.38
215.031	-22.53
215.249	-55.3
215.467	59.39
215.686	14.34
215.904	53.25
216.122	-2.05
216.341	14.34
216.559	14.34
216.778	83.97
216.996	79.87
217.214	102.4
217.432	-36.86
217.651	14.34
217.869	-18.43
218.087	61.44
218.306	22.53
218.524	-30.72
218.742	-26.62
218.96	96.25
219.179	-14.34
219.397	40.96
219.615	-18.43
219.833	-73.73
220.051	-34.82
220.27	-32.77
220.488	38.91
220.706	49.15
220.924	36.86
221.142	0
221.36	16.38
221.578	-14.34
221.796	-34.82
222.015	14.34
222.233	-16.38
222.451	16.38
222.669	-38.91
222.887	-12.29
223.105	4.1
223.323	6.14
223.541	-26.62
223.759	32.77
223.977	49.15
224.195	28.67
224.413	36.86
224.631	32.77
224.849	86.01
225.067	38.91
225.285	-6.14
225.503	8.19
225.721	20.48
225.939	20.48
226.157	0
226.375	38.91
226.592	-16.38
226.81	-16.38
227.028	86.01
227.246	40.96
227.464	28.67
227.682	75.77
227.9	-6.14
228.117	34.82
228.335	26.62
228.553	-18.43
228.771	-18.43
228.989	75.77
229.206	49.15
229.424	-32.77
229.642	4.1
229.86	43.01
230.077	12.29
230.295	28.67
230.513	45.06
230.731	-4.1
230.948	-14.34
231.166	83.97
231.384	12.29
231.601	-10.24
231.819	-40.96
232.037	28.67
232.254	-38.91
232.472	22.53
232.689	28.67
232.907	102.4
233.125	36.86
233.342	6.14
233.56	4.1
233.777	32.77
233.995	22.53
234.213	53.25
234.43	40.96
234.648	-22.53
234.865	20.48
235.083	-77.82
235.3	8.19
235.518	-8.19
235.735	20.48
235.953	53.25
236.17	10.24
236.388	69.63
236.605	-73.73
236.822	-45.06
237.04	6.14
237.257	49.15
237.475	-20.48
237.692	57.34
237.909	-34.82
238.127	22.53
238.344	-18.43
238.562	10.24
238.779	-43.01
238.996	-30.72
239.214	36.86
239.431	-26.62
239.648	2.05
239.865	57.34
240.083	45.06
240.3	-45.06
240.517	63.49
240.735	98.3
240.952	55.3
241.169	90.11
241.386	-14.34
241.603	-22.53
241.821	36.86
242.038	20.48
242.255	-2.05
242.472	32.77
242.689	34.82
242.907	57.34
243.124	28.67
243.341	6.14
243.558	-40.96
243.775	20.48
243.992	-53.25
244.209	88.06
244.426	61.44
244.643	6.14
244.86	-32.77
245.078	75.77
245.295	98.3
245.512	43.01
245.729	-10.24
245.946	34.82
246.163	65.53
246.38	0
246.597	-36.86
246.814	92.16
247.031	59.39
247.248	-8.19
247.464	18.43
247.681	6.14
247.898	28.67
248.115	47.1
248.332	26.62
248.549	69.63
248.766	12.29
248.983	16.38
249.2	65.53
249.417	16.38
249.633	36.86
249.85	-20.48
250.067	-10.24
250.284	16.38
250.501	34.82
250.717	16.38
250.934	-8.19
251.151	-34.82
251.368	16.38
251.585	-12.29
251.801	51.2
252.018	26.62
252.235	10.24
252.451	2.05
252.668	51.2
252.885	61.44
253.102	-4.1
253.318	-4.1
253.535	-38.91
253.752	-51.2
253.968	59.39
254.185	22.53
254.401	90.11
254.618	77.82
254.835	-20.48
255.051	86.01
255.268	73.73
255.484	0
255.701	0
255.917	104.45
256.134	53.25
256.351	22.53
256.567	-20.48
256.784	26.62
257	45.06
257.217	55.3
257.433	20.48
257.65	75.77
257.866	53.25
258.082	-8.19
258.299	-28.67
258.515	43.01
258.732	47.1
258.948	-40.96
259.165	-26.62
259.381	51.2
259.597	51.2
259.814	49.15
260.03	2.05
260.246	40.96
260.463	18.43
260.679	83.97
260.895	49.15
261.112	32.77
261.328	2.05
261.544	86.01
261.761	32.77
261.977	-24.58
262.193	-36.86
262.409	16.38
262.626	10.24
262.842	-8.19
263.058	-22.53
263.274	22.53
263.49	57.34
263.707	-32.77
263.923	24.58
264.139	8.19
264.355	-34.82
264.571	28.67
264.787	6.14
265.004	61.44
265.22	4.1
265.436	-22.53
265.652	20.48
265.868	40.96
266.084	18.43
266.3	71.68
266.516	59.39
266.732	32.77
266.948	49.15
267.164	-32.77
267.38	45.06
267.596	36.86
267.812	36.86
268.028	-26.62
268.244	4.1
268.46	-47.1
268.676	28.67
268.892	2.05
269.108	65.53
269.324	6.14
269.54	-20.48
269.756	4.1
269.972	24.58
270.188	-47.1
270.403	24.58
270.619	75.77
270.835	-59.39
271.051	45.06
271.267	40.96
271.483	-22.53
271.698	16.38
271.914	16.38
272.13	24.58
272.346	0
272.562	-92.16
272.777	47.1
272.993	-8.19
273.209	28.67
273.425	-10.24
273.64	36.86
273.856	-30.72
274.072	6.14
274.287	26.62
274.503	4.1
274.719	-8.19
274.934	-10.24
275.15	4.1
275.366	0
275.581	20.48
275.797	18.43
276.012	30.72
276.228	38.91
276.444	16.38
276.659	53.25
276.875	-45.06
277.09	40.96
277.306	-16.38
277.521	61.44
277.737	10.24
277.952	-38.91
278.168	53.25
278.383	10.24
278.599	-45.06
278.814	69.63
279.03	12.29
279.245	14.34
279.461	-2.05
279.676	-4.1
279.892	-34.82
280.107	71.68
280.322	18.43
280.538	-40.96
280.753	53.25
280.969	43.01
281.184	-8.19
281.399	36.86
281.615	38.91
281.83	55.3
282.045	-20.48
282.26	-14.34
282.476	-12.29
282.691	55.3
282.906	2.05
283.122	28.67
283.337	4.1
283.552	-16.38
283.767	59.39
283.983	57.34
284.198	6.14
284.413	55.3
284.628	-14.34
284.843	18.43
285.058	51.2
285.274	57.34
285.489	36.86
285.704	43.01
285.919	16.38
286.134	8.19
286.349	2.05
286.564	-14.34
286.779	8.19
286.995	-36.86
287.21	-36.86
287.425	-4.1
287.64	38.91
287.855	-8.19
288.07	-20.48
288.285	2.05
288.5	30.72
288.715	53.25
288.93	16.38
289.145	-26.62
289.36	28.67
289.575	67.58
289.79	20.48
290.004	20.48
290.219	8.19
290.434	73.73
290.649	-6.14
290.864	18.43
291.079	0
291.294	59.39
291.509	8.19
291.724	28.67
291.938	59.39
292.153	14.34
292.368	26.62
292.583	12.29
292.798	16.38
293.012	32.77
293.227	-10.24
293.442	30.72
293.657	61.44
293.871	16.38
294.086	-51.2
294.301	34.82
294.516	12.29
294.73	77.82
294.945	-6.14
295.16	8.19
295.374	26.62
295.589	4.1
295.804	12.29
296.018	0
296.233	36.86
296.447	40.96
296.662	-20.48
296.877	-2.05
297.091	-49.15
297.306	-12.29
297.52	18.43
297.735	26.62
297.949	81.92
298.164	38.91
298.378	-24.58
298.593	30.72
298.807	-10.24
299.022	-36.86
299.236	-12.29
299.451	90.11
299.665	26.62
299.88	14.34
300.094	61.44
300.309	75.77
300.523	4.1
300.737	-22.53
300.952	14.34
301.166	73.73
301.381	-47.1
301.595	0
301.809	43.01
302.024	-10.24
302.238	-12.29
302.452	-8.19
302.667	-38.91
302.881	0
303.095	24.58
303.309	-8.19
303.524	-43.01
303.738	49.15
303.952	40.96
304.166	-2.05
304.381	-40.96
304.595	69.63
304.809	51.2
305.023	-8.19
305.237	-10.24
305.452	-32.77
305.666	20.48
305.88	34.82
306.094	-24.58
306.308	20.48
306.522	12.29
306.736	16.38
306.95	32.77
307.164	30.72
307.379	24.58
307.593	86.01
307.807	75.77
308.021	65.53
308.235	-26.62
308.449	0
308.663	-36.86
308.877	-32.77
309.091	14.34
309.305	14.34
309.519	-63.49
309.733	88.06
309.947	18.43
310.161	26.62
310.374	45.06
310.588	-18.43
310.802	0
311.016	10.24
311.23	88.06
311.444	-26.62
311.658	0
311.872	22.53
312.085	86.01
312.299	28.67
312.513	-16.38
312.727	32.77
312.941	14.34
313.154	59.39
313.368	57.34
313.582	57.34
313.796	36.86
314.009	4.1
314.223	67.58
314.437	36.86
314.651	34.82
314.864	6.14
315.078	47.1
315.292	-43.01
315.505	36.86
315.719	4.1
315.933	-30.72
316.146	106.49
316.36	-49.15
316.573	10.24
316.787	4.1
317.001	22.53
317.214	-65.54
317.428	28.67
317.641	14.34
317.855	34.82
318.068	-4.1
318.282	59.39
318.495	26.62
318.709	47.1
318.922	-36.86
319.136	-10.24
319.349	43.01
319.563	63.49
319.776	38.91
319.99	10.24
320.203	-8.19
320.417	73.73
320.63	-2.05
320.843	81.92
321.057	-8.19
321.27	-28.67
321.483	24.58
321.697	16.38
321.91	-49.15
322.124	120.83
322.337	47.1
322.55	43.01
322.763	-18.43
322.977	12.29
323.19	-32.77
323.403	-38.91
323.617	67.58
323.83	67.58
324.043	-59.39
324.256	32.77
324.469	16.38
324.683	110.59
324.896	-14.34
325.109	34.82
325.322	-63.49
325.535	32.77
325.748	63.49
325.962	53.25
326.175	-53.25
326.388	51.2
326.601	34.82
326.814	75.77
327.027	112.64
327.24	12.29
327.453	-30.72
327.666	43.01
327.879	38.91
328.092	16.38
328.305	20.48
328.518	-2.05
328.731	40.96
328.944	10.24
329.157	28.67
329.37	32.77
329.583	6.14
329.796	-2.05
330.009	45.06
330.222	79.87
330.435	-20.48
330.648	-30.72
330.861	16.38
331.073	30.72
331.286	92.16
331.499	26.62
331.712	14.34
331.925	16.38
332.138	69.63
332.35	49.15
332.563	51.2
332.776	49.15
332.989	4.1
333.202	22.53
333.414	-16.38
333.627	34.82
333.84	26.62
334.053	43.01
334.265	-75.77
334.478	38.91
334.691	-8.19
334.903	-8.19
335.116	-22.53
335.329	104.45
335.541	45.06
335.754	61.44
335.966	24.58
336.179	22.53
336.392	0
336.604	10.24
336.817	83.97
337.029	-30.72
337.242	-18.43
337.454	24.58
337.667	18.43
337.88	49.15
338.092	-10.24
338.305	40.96
338.517	43.01
338.729	-4.1
338.942	-45.06
339.154	-10.24
339.367	18.43
339.579	133.12
339.792	14.34
340.004	4.1
340.217	16.38
340.429	100.35
340.641	-73.73
340.854	49.15
341.066	32.77
341.278	38.91
341.491	92.16
341.703	43.01
341.915	-10.24
342.128	26.62
342.34	8.19
342.552	-18.43
342.764	-8.19
342.977	92.16
343.189	26.62
343.401	65.53
343.613	65.53
343.826	-30.72
344.038	-36.86
344.25	92.16
344.462	-38.91
344.674	-26.62
344.886	-67.58
345.099	-10.24
345.311	65.53
345.523	0
345.735	26.62
345.947	20.48
346.159	77.82
346.371	47.1
346.583	-20.48
346.795	-16.38
347.007	43.01
347.219	2.05
347.431	81.92
347.643	16.38
347.855	55.3
348.067	43.01
348.279	24.58
348.491	34.82
348.703	-32.77
348.915	34.82
349.127	24.58
349.339	38.91
349.551	20.48
349.763	-22.53
349.975	-4.1
350.187	61.44
350.399	8.19
350.61	47.1
350.822	8.19
351.034	-2.05
351.246	38.91
351.458	-28.67
351.669	-38.91
351.881	43.01
352.093	45.06
352.305	81.92
352.517	22.53
352.728	34.82
352.94	-47.1
353.152	16.38
353.363	69.63
353.575	71.68
353.787	59.39
353.999	30.72
354.21	65.53
354.422	75.77
354.633	86.01
354.845	45.06
355.057	-34.82
355.268	61.44
355.48	28.67
355.692	77.82
355.903	55.3
356.115	22.53
356.326	-34.82
356.538	63.49
356.749	30.72
356.961	98.3
357.172	67.58
357.384	73.73
357.595	38.91
357.807	61.44
358.018	77.82
358.23	10.24
358.441	2.05
358.653	26.62
358.864	26.62
359.075	47.1
359.287	-14.34
359.498	57.34
359.709	45.06
359.921	-6.14
360.132	-2.05
360.344	-28.67
360.555	2.05
360.766	40.96
360.977	18.43
361.189	-6.14
361.4	24.58
361.611	88.06
361.823	47.1
362.034	40.96
362.245	-16.38
362.456	-10.24
362.667	28.67
362.879	24.58
363.09	49.15
363.301	43.01
363.512	30.72
363.723	-49.15
363.935	-16.38
364.146	53.25
364.357	2.05
364.568	26.62
364.779	-4.1
364.99	16.38
365.201	28.67
365.412	4.1
365.623	57.34
365.834	88.06
366.045	-12.29
366.256	32.77
366.467	10.24
366.678	26.62
366.889	12.29
367.1	-40.96
367.311	47.1
367.522	10.24
367.733	-18.43
367.944	112.64
368.155	12.29
368.366	63.49
368.577	12.29
368.788	47.1
368.999	10.24
369.209	49.15
369.42	141.31
369.631	102.4
369.842	8.19
370.053	30.72
370.264	79.87
370.474	45.06
370.685	-14.34
370.896	8.19
371.107	43.01
371.317	10.24
371.528	-38.91
371.739	6.14
371.95	59.39
372.16	57.34
372.371	36.86
372.582	30.72
372.792	24.58
373.003	30.72
373.214	-18.43
373.424	18.43
373.635	59.39
373.846	67.58
374.056	81.92
374.267	28.67
374.477	-18.43
374.688	-30.72
374.898	24.58
375.109	22.53
375.319	36.86
375.53	-2.05
375.74	53.25
375.951	38.91
376.161	12.29
376.372	57.34
376.582	-8.19
376.793	20.48
377.003	20.48
377.214	24.58
377.424	22.53
377.635	34.82
377.845	-28.67
378.055	20.48
378.266	36.86
378.476	-22.53
378.686	18.43
378.897	22.53
379.107	88.06
379.317	47.1
379.528	14.34
379.738	55.3
379.948	8.19
380.158	0
380.369	47.1
380.579	28.67
380.789	-20.48
380.999	43.01
381.21	43.01
381.42	63.49
381.63	90.11
381.84	12.29
382.05	53.25
382.261	43.01
382.471	24.58
382.681	20.48
382.891	4.1
383.101	86.01
383.311	55.3
383.521	100.35
383.731	45.06
383.941	106.49
384.151	45.06
384.361	0
384.571	53.25
384.781	32.77
384.991	40.96
385.201	40.96
385.411	14.34
385.621	65.53
385.831	75.77
386.041	40.96
386.251	71.68
386.461	28.67
386.671	73.73
386.881	30.72
387.091	-20.48
387.301	36.86
387.511	34.82
387.72	-4.1
387.93	36.86
388.14	28.67
388.35	71.68
388.56	14.34
388.769	2.05
388.979	14.34
389.189	-57.34
389.399	118.78
389.609	-43.01
389.818	49.15
390.028	77.82
390.238	83.97
390.447	-18.43
390.657	108.54
390.867	18.43
391.076	47.1
391.286	24.58
391.496	73.73
391.705	38.91
391.915	57.34
392.125	88.06
392.334	83.97
392.544	45.06
392.753	-26.62
392.963	26.62
393.172	124.93
393.382	120.83
393.591	124.93
393.801	51.2
394.01	112.64
394.22	45.06
394.429	10.24
394.639	24.58
394.848	73.73
395.058	104.45
395.267	40.96
395.477	110.59
395.686	45.06
395.895	104.45
396.105	137.21
396.314	14.34
396.524	104.45
396.733	24.58
396.942	180.22
397.152	59.39
397.361	149.5
397.57	151.55
397.78	106.49
397.989	73.73
398.198	108.54
398.407	96.25
398.617	49.15
398.826	47.1
399.035	30.72
399.244	100.35
399.453	38.91
399.663	57.34
399.872	157.69
400.081	2.05
400.29	65.53
400.499	77.82
400.708	83.97
400.917	88.06
401.127	65.53
401.336	120.83
401.545	131.07
401.754	108.54
401.963	63.49
402.172	81.92
402.381	112.64
402.59	43.01
402.799	28.67
403.008	112.64
403.217	57.34
403.426	108.54
403.635	120.83
403.844	135.17
404.053	104.45
404.262	159.74
404.471	131.07
404.68	73.73
404.888	157.69
405.097	155.65
405.306	114.69
405.515	90.11
405.724	112.64
405.933	86.01
406.142	149.5
406.35	157.69
406.559	98.3
406.768	180.22
406.977	139.26
407.185	57.34
407.394	147.45
407.603	118.78
407.812	169.98
408.02	131.07
408.229	153.6
408.438	131.07
408.646	204.8
408.855	163.84
409.064	249.85
409.272	229.37
409.481	233.47
409.69	225.28
409.898	235.52
410.107	264.19
410.315	268.28
410.524	247.8
410.733	262.14
410.941	223.23
411.15	245.76
411.358	245.76
411.567	333.82
411.775	436.22
411.984	309.24
412.192	294.91
412.401	380.92
412.609	434.17
412.818	428.03
413.026	456.7
413.234	462.84
413.443	428.03
413.651	456.7
413.86	391.16
414.068	524.28
414.276	444.41
414.485	524.28
414.693	511.99
414.901	487.42
415.11	561.14
415.318	598.01
415.526	587.77
415.734	657.4
415.943	690.17
416.151	657.4
416.359	661.49
416.567	698.36
416.776	671.73
416.984	716.79
417.192	882.67
417.4	800.76
417.608	886.77
417.817	950.26
418.025	753.65
418.233	899.06
418.441	923.63
418.649	946.16
418.857	1132.53
419.065	1089.52
419.273	1003.5
419.481	1095.66
419.689	1222.64
419.897	1310.7
420.105	1290.22
420.313	1333.23
420.521	1392.62
420.729	1382.38
420.937	1292.27
421.145	1497.07
421.353	1521.64
421.561	1546.22
421.769	1630.18
421.977	1755.11
422.185	1712.1
422.393	1884.13
422.601	1920.99
422.809	1880.04
423.017	1908.71
423.224	2064.35
423.432	2103.26
423.64	2179.04
423.848	2293.72
424.056	2324.44
424.263	2394.08
424.471	2346.97
424.679	2320.35
424.887	2648.02
425.094	2691.03
425.302	2611.16
425.51	2803.67
425.718	2770.9
425.925	2887.64
426.133	2985.94
426.341	3164.11
426.548	3303.37
426.756	3264.46
426.964	3352.52
427.171	3485.64
427.379	3686.34
427.586	3645.38
427.794	3866.56
428.001	3966.92
428.209	4270.01
428.417	4024.26
428.624	4507.58
428.832	4337.6
429.039	4417.47
429.247	4403.13
429.454	4646.84
429.662	4911.03
429.869	4743.1
430.076	5128.11
430.284	4962.23
430.491	5203.89
430.699	5463.98
430.906	5435.31
431.114	5574.57
431.321	5734.31
431.528	5822.38
431.736	6107.04
431.943	6612.89
432.15	6410.14
432.358	6350.75
432.565	6838.17
432.772	6684.57
432.979	7131.03
433.187	7145.36
433.394	7301.01
433.601	7780.23
433.808	7831.43
434.016	7708.55
434.223	7968.65
434.43	8497.02
434.637	8335.23
434.844	9009.01
435.052	9054.07
435.259	9064.31
435.466	9203.57
435.673	8982.39
435.88	9682.8
436.087	10358.63
436.294	10125.16
436.501	9944.94
436.708	9910.12
436.915	10565.47
437.122	11016.02
437.329	11054.94
437.537	11288.4
437.743	11501.39
437.95	11388.75
438.157	11853.64
438.364	12287.81
438.571	12203.85
438.778	12433.22
438.985	13578.03
439.192	12941.11
439.399	13369.14
439.606	13217.59
439.813	13862.7
440.02	14610.21
440.227	14313.25
440.433	14444.32
440.64	14704.42
440.847	14589.73
441.054	14952.22
441.261	16193.29
441.467	15912.72
441.674	16457.48
441.881	16961.28
442.088	17006.33
442.294	16561.92
442.501	17194.75
442.708	17450.74
442.914	18228.97
443.121	18568.93
443.328	18398.95
443.534	19564.25
443.741	19406.55
443.948	18861.79
444.154	20305.61
444.361	20399.82
444.568	20465.35
444.774	20178.64
444.981	20584.13
445.187	21067.45
445.394	22089.39
445.6	21679.8
445.807	23910.04
446.013	22699.69
446.22	23152.29
446.426	24147.6
446.633	24405.64
446.839	25499.26
447.046	24270.48
447.252	25699.96
447.459	25704.06
447.665	25716.34
447.871	26627.69
448.078	27588.19
448.284	26556.01
448.491	26822.25
448.697	28075.6
448.903	28593.74
449.11	28896.84
449.316	28169.81
449.522	28737.1
449.728	29761.08
449.935	29410.88
450.141	29773.37
450.347	30137.91
450.553	29331.01
450.76	29558.33
450.966	30504.49
451.172	30207.54
451.378	30897.7
451.584	30131.76
451.791	30950.95
451.997	30635.56
452.203	31442.46
452.409	31544.86
452.615	31346.21
452.821	30404.14
453.027	29820.47
453.233	31454.75
453.44	29908.54
453.646	30283.31
453.852	30539.31
454.058	31092.26
454.264	29965.88
454.47	30654
454.676	29767.23
454.882	30936.62
455.088	28001.88
455.294	28489.29
455.5	28786.25
455.705	29218.37
455.911	28026.45
456.117	27471.45
456.323	26682.98
456.529	25482.88
456.735	26922.6
456.941	25888.37
457.147	25652.86
457.352	24755.85
457.558	24362.64
457.764	24417.93
457.97	23793.3
458.176	23170.72
458.381	23332.51
458.587	22347.44
458.793	22419.11
458.999	21137.09
459.204	22550.18
459.41	21999.28
459.616	20524.74
459.821	20635.33
460.027	20178.64
460.233	19936.98
460.438	18943.71
460.644	19392.22
460.85	18147.05
461.055	17837.81
461.261	18018.03
461.466	16652.03
461.672	16342.79
461.878	17223.42
462.083	16439.05
462.289	15849.23
462.494	15695.63
462.7	14991.13
462.905	14421.8
463.111	14913.31
463.316	14999.32
463.522	14655.26
463.727	14810.91
463.932	14866.21
464.138	14628.64
464.343	14577.44
464.549	14450.47
464.754	14880.54
464.959	14708.51
465.165	14612.26
465.37	14008.11
465.575	13506.35
465.781	14059.31
465.986	14212.9
466.191	13612.85
466.397	13299.51
466.602	12795.71
466.807	13182.77
467.012	13338.42
467.218	13244.21
467.423	12928.83
467.628	12844.86
467.833	13518.64
468.038	13080.38
468.244	12754.75
468.449	13440.82
468.654	12824.38
468.859	12717.89
469.064	12640.06
469.269	12144.45
469.474	12416.83
469.679	12472.13
469.885	12029.77
470.09	12136.26
470.295	12066.63
470.5	11867.98
470.705	12164.93
470.91	11822.92
471.115	11601.74
471.32	11867.98
471.525	11675.47
471.73	11315.03
471.935	11239.25
472.139	10889.05
472.344	11042.65
472.549	11163.48
472.754	10798.94
472.959	10725.21
473.164	10471.26
473.369	10243.94
473.574	10555.23
473.778	10372.96
473.983	10516.32
474.188	10389.35
474.393	9811.82
474.598	10125.16
474.802	9852.78
475.007	9746.28
475.212	9934.7
475.417	9316.21
475.621	9484.14
475.826	9365.36
476.031	9375.6
476.235	9179
476.44	9172.85
476.645	8894.33
476.849	9021.3
477.054	8810.36
477.259	8806.27
477.463	8951.67
477.668	8685.44
477.872	8701.82
478.077	8585.08
478.282	8400.77
478.486	8294.27
478.691	8179.59
478.895	8224.64
479.1	8312.71
479.304	8128.39
479.509	7817.1
479.713	8124.29
479.918	7989.13
480.122	7792.52
480.326	7731.08
480.531	7882.63
480.735	7870.34
480.94	7829.38
481.144	8300.42
481.348	7532.43
481.553	7663.5
481.757	7458.7
481.961	7634.83
482.166	7917.45
482.37	7636.88
482.574	7405.45
482.778	7618.44
482.983	7716.75
483.187	7681.93
483.391	7595.92
483.595	7595.92
483.8	7374.74
484.004	7802.76
484.208	7581.58
484.412	7499.66
484.616	7632.78
484.821	7575.44
485.025	7329.68
485.229	7714.7
485.433	7559.05
485.637	7675.79
485.841	7618.44
486.045	7507.85
486.249	7528.33
486.453	7446.41
486.657	7663.5
486.861	7634.83
487.065	7460.75
487.269	7784.33
487.473	7425.93
487.677	7618.44
487.881	7501.71
488.085	7524.24
488.289	7579.53
488.493	7391.12
488.697	7614.35
488.901	7557
489.105	7620.49
489.309	7653.26
489.512	7645.07
489.716	7679.88
489.92	7700.36
490.124	7516.05
490.328	7722.89
490.531	7792.52
490.735	7610.25
490.939	7661.45
491.143	7704.46
491.346	7798.66
491.55	7813
491.754	7876.49
491.958	7817.1
492.161	7823.24
492.365	8023.94
492.569	7714.7
492.772	7915.4
492.976	8146.82
493.18	7989.13
493.383	8263.55
493.587	7962.5
493.79	8155.01
493.994	8140.68
494.197	8234.88
494.401	8550.27
494.605	8396.67
494.808	8568.7
495.012	8720.25
495.215	8535.93
495.419	8748.92
495.622	8636.28
495.825	8710.01
496.029	8642.43
496.232	8902.52
496.436	9045.88
496.639	9248.63
496.843	8923
497.046	9174.9
497.249	9336.69
497.453	9396.08
497.656	9498.48
497.859	9437.04
498.063	9420.66
498.266	9789.29
498.469	9744.24
498.673	9965.42
498.876	10049.38
499.079	10069.86
499.282	10100.58
499.485	10456.93
499.689	10549.09
499.892	10653.53
500.095	10686.3
500.298	10674.01
500.501	10606.43
500.705	10993.5
500.908	11157.33
501.111	11280.21
501.314	11059.03
501.517	11298.64
501.72	11730.76
501.923	11788.11
502.126	11841.36
502.329	11917.13
502.532	11845.45
502.735	12097.35
502.938	12074.82
503.141	12459.84
503.344	12484.42
503.547	12552
503.75	12621.63
503.953	12865.34
504.156	12982.07
504.359	13057.85
504.562	13274.93
504.765	13463.35
504.968	13584.18
505.17	13729.58
505.373	13838.12
505.576	13954.86
505.779	14384.93
505.982	14309.16
506.185	14473
506.387	14526.24
506.59	14501.67
506.793	14968.6
506.996	15011.61
507.198	15380.25
507.401	15279.89
507.604	15265.56
507.807	15802.13
508.009	15757.07
508.212	15738.64
508.415	16187.14
508.617	16314.12
508.82	16484.1
509.022	16285.45
509.225	16641.79
509.428	16768.77
509.63	16883.45
509.833	17055.48
510.035	17172.22
510.238	17368.82
510.44	17641.2
510.643	17843.95
510.845	18171.63
511.048	17663.73
511.25	18233.07
511.453	18224.87
511.655	18910.94
511.858	18644.71
512.06	18749.15
512.262	18956
512.465	19087.07
512.667	19330.78
512.87	19431.13
513.072	19711.7
513.274	19789.52
513.477	19932.88
513.679	20231.88
513.881	20782.79
514.084	20752.07
514.286	20727.49
514.488	20547.27
514.69	21110.46
514.893	21558.97
515.095	21425.85
515.297	21468.86
515.499	21606.07
515.701	21786.29
515.904	22226.6
516.106	22312.62
516.308	22509.22
516.51	22906.53
516.712	22742.69
516.914	23117.47
517.116	23330.46
517.318	23494.3
517.52	23359.13
517.722	23514.78
517.925	23899.8
518.127	23965.33
518.329	24254.09
518.531	24307.34
518.733	24655.5
518.935	24868.48
519.136	24999.55
519.338	25060.99
519.54	25190.02
519.742	25319.04
519.944	25403
520.146	26044.02
520.348	25988.72
520.55	26269.3
520.752	26324.59
520.954	26631.79
521.155	26652.27
521.357	26926.69
521.559	27047.52
521.761	27274.85
521.963	27526.75
522.164	27342.43
522.366	27385.44
522.568	27500.12
522.77	27874.9
522.971	28331.6
523.173	28233.3
523.375	28270.16
523.576	28276.3
523.778	28509.77
523.98	28958.28
524.181	28954.18
524.383	29005.38
524.584	29085.25
524.786	29111.88
524.988	29013.57
525.189	29711.93
525.391	29732.41
525.592	30148.15
525.794	29851.19
525.995	29982.26
526.197	29775.42
526.398	30275.12
526.6	30398
526.801	30254.64
527.003	30897.7
527.204	30512.69
527.406	30840.36
527.607	30649.9
527.808	30756.39
528.01	30727.72
528.211	30762.54
528.412	31405.6
528.614	31192.61
528.815	31188.52
529.016	31677.98
529.218	31157.8
529.419	31049.25
529.62	31528.48
529.822	31540.77
530.023	31372.83
530.224	31397.41
530.425	31448.61
530.626	31342.11
530.828	31245.86
531.029	31845.91
531.23	31542.81
531.431	31448.61
531.632	31780.38
531.833	31979.03
532.035	31680.03
532.236	31890.97
532.437	32134.68
532.638	31608.35
532.839	31845.91
533.04	32146.97
533.241	31612.45
533.442	32060.95
533.643	32200.21
533.844	32079.38
534.045	32087.57
534.246	31364.64
534.447	32132.63
534.648	31747.61
534.849	32257.56
535.05	31866.39
535.251	32142.87
535.451	32263.7
535.652	32142.87
535.853	31968.79
536.054	32208.4
536.255	32001.56
536.456	31634.97
536.657	32249.36
536.857	31729.18
537.058	32134.68
537.259	31972.89
537.46	32122.39
537.66	31766.04
537.861	31864.35
538.062	31626.78
538.263	32116.25
538.463	31653.41
538.664	31860.25
538.865	31708.7
539.065	32038.42
539.266	31571.49
539.466	32028.18
539.667	31563.29
539.868	32132.63
540.068	31784.48
540.269	31647.26
540.469	31565.34
540.67	31280.67
540.87	31987.22
541.071	31876.63
541.271	32116.25
541.472	31749.66
541.672	31499.81
541.873	31745.56
542.073	31344.16
542.274	31960.6
542.474	31587.87
542.675	31536.67
542.875	31680.03
543.075	31508
543.276	30803.5
543.476	31940.12
543.676	31274.53
543.877	31692.32
544.077	31661.6
544.277	31100.45
544.478	31393.31
544.678	31702.56
544.878	31598.11
545.078	31782.43
545.279	31671.84
545.479	31393.31
545.679	31514.14
545.879	31362.59
546.079	31028.77
546.28	31190.56
546.48	31376.93
546.68	31368.74
546.88	31452.7
547.08	31067.69
547.28	31278.63
547.48	31159.84
547.68	31364.64
547.88	31116.84
548.081	31245.86
548.281	31030.82
548.481	31184.42
548.681	31235.62
548.881	31270.43
549.081	31065.64
549.28	30983.72
549.48	31522.34
549.68	30877.22
549.88	31335.97
550.08	31530.53
550.28	31174.18
550.48	30948.9
550.68	31295.01
550.88	30860.84
551.08	31249.96
551.279	31094.31
551.479	30787.11
551.679	31266.34
551.879	31030.82
552.079	30922.28
552.278	30830.12
552.478	30758.44
552.678	30631.47
552.878	31049.25
553.077	31045.16
553.277	30602.8
553.477	31260.19
553.676	31073.83
553.876	31028.77
554.076	30672.43
554.275	30565.93
554.475	30740.01
554.674	30787.11
554.874	30766.63
555.074	30301.75
555.273	30832.17
555.473	30873.13
555.672	30473.78
555.872	30854.7
556.071	30582.32
556.271	30727.72
556.47	30455.34
556.67	30277.17
556.869	30461.49
557.068	30428.72
557.268	30260.79
557.467	30496.3
557.667	30342.71
557.866	30486.06
558.065	30185.01
558.265	30170.68
558.464	29912.63
558.663	30510.64
558.863	29998.65
559.062	30582.32
559.261	30096.95
559.461	30608.94
559.66	29701.69
559.859	30139.96
560.058	29845.05
560.258	30201.4
560.457	29759.03
560.656	30029.37
560.855	29724.22
561.054	29562.43
561.253	29173.31
561.453	29761.08
561.652	29871.67
561.851	29652.54
562.05	29464.13
562.249	29437.5
562.448	29828.66
562.647	29621.82
562.846	29871.67
563.045	29519.42
563.244	29288
563.443	29580.86
563.642	29126.21
563.841	29425.22
564.04	29265.47
564.239	29247.04
564.438	29126.21
564.637	29087.3
564.836	29316.67
565.035	28544.59
565.234	29075.01
565.432	28718.67
565.631	28671.56
565.83	28841.54
566.029	28341.84
566.228	28683.85
566.427	28405.33
566.625	28831.3
566.824	28130.9
567.023	28481.1
567.222	28192.34
567.42	28565.07
567.619	28593.74
567.818	28169.81
568.016	27848.28
568.215	28311.12
568.414	28282.45
568.612	28261.97
568.811	28012.12
569.01	27928.15
569.208	27713.11
569.407	28081.75
569.605	27772.5
569.804	27823.7
570.002	27620.95
570.201	27690.59
570.4	27364.96
570.598	27524.7
570.797	27135.59
570.995	27485.79
571.193	27113.06
571.392	27688.54
571.59	27280.99
571.789	27088.48
571.987	27203.17
572.186	27143.78
572.384	26902.12
572.582	26797.67
572.781	27115.11
572.979	26293.87
573.177	26838.63
573.376	26857.06
573.574	26791.53
573.772	26738.28
573.971	26529.39
574.169	26470
574.367	26295.92
574.565	26562.15
574.763	26222.19
574.962	26183.28
575.16	26023.54
575.358	26293.87
575.556	25947.76
575.754	26539.63
575.952	25632.38
576.151	26146.42
576.349	25835.13
576.547	25867.89
576.745	25966.2
576.943	25962.1
577.141	25388.67
577.339	25501.31
577.537	25472.64
577.735	25532.03
577.933	25065.09
578.131	25464.44
578.329	25138.82
578.527	25040.51
578.725	25196.16
578.923	25349.76
579.121	24653.45
579.319	24972.93
579.516	25026.18
579.714	25048.71
579.912	24643.21
580.11	25003.65
580.308	24729.22
580.506	24737.41
580.704	24434.32
580.901	24708.74
581.099	24673.93
581.297	24268.43
581.495	24315.53
581.692	24391.31
581.89	24315.53
582.088	24321.68
582.285	23817.88
582.483	24401.55
582.681	24024.72
582.878	24102.54
583.076	23836.31
583.274	23740.05
583.471	23719.57
583.669	23776.92
583.866	23586.46
584.064	23895.7
584.262	23549.59
584.459	23701.14
584.657	23553.69
584.854	23940.75
585.052	22800.04
585.249	23447.19
585.447	23443.1
585.644	23140
585.841	22996.64
586.039	23135.9
586.236	22824.61
586.434	23004.83
586.631	22759.08
586.828	22820.52
587.026	23074.46
587.223	22673.06
587.42	22738.6
587.618	22722.21
587.815	22312.62
588.012	22443.69
588.21	22308.52
588.407	22656.68
588.604	22150.83
588.801	21974.7
588.999	22349.48
589.196	22218.41
589.393	21857.97
589.59	22052.53
589.787	22132.4
589.984	21847.73
590.182	22038.19
590.379	21794.48
590.576	21591.73
590.773	21665.46
590.97	21499.58
591.167	21491.38
591.364	21544.63
591.561	21348.03
591.758	21186.24
591.955	21372.6
592.152	21329.59
592.349	21173.95
592.546	21386.94
592.743	21132.99
592.94	20784.83
593.137	20971.2
593.334	21008.06
593.531	20764.36
593.727	20831.94
593.924	20514.5
594.121	20555.46
594.318	20518.6
594.515	20422.34
594.712	20494.02
594.908	20182.73
595.105	20266.7
595.302	20479.69
595.499	20469.45
595.696	20115.15
595.892	19896.02
596.089	20211.4
596.286	19984.08
596.482	19922.64
596.679	19834.58
596.876	19840.72
597.072	19556.05
597.269	19691.22
597.466	19527.38
597.662	19582.68
597.859	19205.85
598.055	19345.11
598.252	19115.74
598.448	19197.66
598.645	19373.78
598.841	19115.74
599.038	19033.82
599.234	19068.64
599.431	19109.6
599.627	19175.13
599.824	19146.46
600.02	18925.28
600.217	19027.68
600.413	18657
600.609	18941.66
600.806	18396.9
601.002	18855.65
601.198	18624.23
601.395	18499.3
601.591	18278.12
601.787	18634.47
601.984	18167.53
602.18	18173.67
602.376	18194.15
602.572	18196.2
602.769	18142.96
602.965	17938.16
603.161	18116.33
603.357	17815.28
603.553	17960.69
603.75	17753.84
603.946	17839.86
604.142	18034.41
604.338	17628.92
604.534	17669.87
604.73	17313.53
604.926	17471.22
605.122	17364.73
605.318	17563.38
605.514	17491.7
605.71	17268.47
605.906	17241.85
606.102	17305.34
606.298	17323.77
606.494	17110.78
606.69	17221.37
606.886	17155.83
607.082	16748.29
607.278	16946.94
607.474	16563.97
607.67	16989.95
607.866	16680.71
608.062	17155.83
608.257	16862.97
608.453	16803.58
608.649	16936.7
608.845	16518.92
609.041	16434.95
609.236	16641.79
609.432	16563.97
609.628	16852.73
609.824	16500.48
610.019	16422.66
610.215	16297.74
610.411	16449.28
610.606	16174.86
610.802	16207.62
610.998	16307.98
611.193	16113.42
611.389	16201.48
611.584	16125.71
611.78	15849.23
611.976	16072.46
612.171	16201.48
612.367	15959.82
612.562	16058.12
612.758	15752.98
612.953	15957.77
613.149	16078.6
613.344	15759.12
613.539	16146.19
613.735	15890.19
613.93	16060.17
614.126	15359.77
614.321	15822.61
614.517	15828.75
614.712	15695.63
614.907	15875.85
615.103	15871.76
615.298	15617.81
615.493	15480.6
615.688	15288.09
615.884	15787.79
616.079	15157.02
616.274	15437.59
616.47	15701.78
616.665	15382.29
616.86	15267.61
617.055	15593.23
617.25	15142.68
617.445	15494.93
617.641	15132.44
617.836	15148.82
618.031	14954.27
618.226	14970.65
618.421	15079.19
618.616	15128.35
618.811	14765.85
619.006	15019.8
619.201	14903.07
619.396	14858.01
619.591	14518.05
619.786	14683.94
619.981	14432.04
620.176	14800.67
620.371	14231.33
620.566	14434.08
620.761	14235.43
620.956	14282.53
621.151	13995.82
621.346	14260.01
621.541	13791.02
621.735	14126.89
621.93	13772.59
622.125	13754.16
622.32	13575.98
622.515	13870.89
622.709	13772.59
622.904	13539.12
623.099	13610.8
623.294	13455.15
623.488	13385.52
623.683	13471.54
623.878	13287.22
624.072	13217.59
624.267	13295.41
624.462	13221.69
624.656	12982.07
624.851	12996.41
625.046	12740.41
625.24	12705.6
625.435	12764.99
625.629	12556.1
625.824	12760.89
626.018	12654.4
626.213	12267.33
626.407	12468.03
626.602	12222.28
626.796	12390.21
626.991	12218.18
627.185	12070.73
627.38	12042.06
627.574	12097.35
627.768	11927.37
627.963	11812.68
628.157	11654.99
628.352	11845.45
628.546	11511.63
628.74	11829.07
628.935	11616.08
629.129	11532.11
629.323	11112.28
629.517	11312.98
629.712	11282.26
629.906	11220.82
630.1	11132.76
630.294	10983.26
630.489	11032.41
630.683	11067.22
630.877	10813.27
631.071	10835.8
631.265	10841.95
631.459	10887
631.653	10788.7
631.848	10737.5
632.042	10471.26
632.236	10598.24
632.43	10524.51
632.624	10495.84
632.818	10385.25
633.012	10182.5
633.206	10493.79
633.4	10325.86
633.594	10094.44
633.788	10235.75
633.982	10147.69
634.176	10110.82
634.369	10016.62
634.563	9774.95
634.757	9953.13
634.951	9994.09
635.145	9975.66
635.339	9699.18
635.533	9762.67
635.726	9731.95
635.92	9461.62
636.114	9551.73
636.308	9226.1
636.501	9279.35
636.695	9443.18
636.889	9340.79
637.083	9328.5
637.276	9166.71
637.47	9090.93
637.664	9084.79
637.857	9203.57
638.051	8994.68
638.244	9146.23
638.438	9045.88
638.632	8873.85
638.825	8824.7
639.019	8937.34
639.212	8748.92
639.406	8601.47
639.599	8656.76
639.793	8744.83
639.986	8425.34
640.18	8513.41
640.373	8464.25
640.567	8460.16
640.76	8365.95
640.954	8408.96
641.147	8187.78
641.34	8052.61
641.534	8210.31
641.727	8370.05
641.92	8101.76
642.114	7831.43
642.307	7956.36
642.5	8292.23
642.694	7835.53
642.887	7810.95
643.08	7796.62
643.273	7784.33
643.467	7813
643.66	7733.13
643.853	7718.79
644.046	7657.36
644.239	7817.1
644.432	7505.81
644.626	7585.68
644.819	7448.46
645.012	7370.64
645.205	7645.07
645.398	7323.54
645.591	7329.68
645.784	7163.79
645.977	7272.34
646.17	7268.24
646.363	7079.83
646.556	7040.92
646.749	7067.54
646.942	7231.38
647.135	7098.26
647.328	6977.43
647.521	6903.7
647.714	6944.66
647.907	6848.41
648.099	6907.8
648.292	6829.98
648.485	6686.62
648.678	6856.6
648.871	6772.63
649.064	6715.29
649.256	6717.34
649.449	6614.94
649.642	6582.17
649.835	6508.44
650.027	6643.61
650.22	6522.78
650.413	6231.97
650.605	6352.8
650.798	6338.46
650.991	6332.32
651.183	6449.05
651.376	6156.19
651.568	6399.9
651.761	6371.23
651.954	6332.32
652.146	6178.72
652.339	6174.63
652.531	6227.87
652.724	6111.14
652.916	5994.4
653.109	5949.35
653.301	5853.09
653.494	6104.99
653.686	5910.44
653.879	5951.4
654.071	5857.19
654.263	5719.98
654.456	5752.74
654.648	5658.54
654.84	5601.19
655.033	5582.76
655.225	5754.79
655.417	5578.67
655.61	5633.96
655.802	5558.19
655.994	5566.38
656.186	5470.12
656.379	5353.39
656.571	5599.15
656.763	5361.58
656.955	5205.94
657.148	5402.54
657.34	5189.55
657.532	5160.88
657.724	5203.89
657.916	5332.91
658.108	5130.16
658.3	5064.63
658.492	5146.55
658.684	5099.44
658.876	5124.02
659.068	5183.41
659.26	5072.82
659.452	4915.12
659.644	5029.81
659.836	4882.36
660.028	4951.99
660.22	4855.73
660.412	4829.11
660.604	4825.01
660.796	4833.21
660.988	4769.72
661.18	4698.04
661.372	4689.85
661.563	4716.47
661.755	4796.34
661.947	4702.14
662.139	4730.81
662.331	4550.59
662.522	4470.72
662.714	4628.41
662.906	4589.5
663.097	4489.15
663.289	4515.77
663.481	4534.2
663.673	4331.45
663.864	4450.24
664.056	4421.56
664.247	4462.52
664.439	4413.37
664.631	4364.22
664.822	4415.42
665.014	4374.46
665.205	4335.55
665.397	4227.01
665.588	4175.81
665.78	4134.85
665.971	4233.15
666.163	4120.51
666.354	4151.23
666.546	4112.32
666.737	4173.76
666.929	4138.94
667.12	4202.43
667.311	3901.38
667.503	4036.55
667.694	4095.94
667.885	3964.87
668.077	4126.66
668.268	3999.68
668.459	3917.76
668.651	3950.53
668.842	3817.41
669.033	3930.05
669.224	3719.11
669.416	3956.68
669.607	3823.56
669.798	3825.61
669.989	3915.72
670.18	3788.74
670.371	3758.02
670.563	3743.69
670.754	3749.83
670.945	3841.99
671.136	3792.84
671.327	3635.14
671.518	3672.01
671.709	3696.58
671.9	3641.29
672.091	3629
672.282	3665.86
672.473	3672.01
672.664	3442.64
672.855	3420.11
673.046	3612.62
673.237	3497.93
673.428	3528.65
673.619	3567.56
673.809	3557.32
674	3549.13
674.191	3452.88
674.382	3350.48
674.573	3538.89
674.764	3448.78
674.954	3411.92
675.145	3366.86
675.336	3434.44
675.527	3377.1
675.717	3448.78
675.908	3303.37
676.099	3416.01
676.289	3264.46
676.48	3235.79
676.671	3286.99
676.861	3338.19
677.052	3282.89
677.243	3231.69
677.433	3403.72
677.624	3223.5
677.814	3237.84
678.005	3284.94
678.195	3307.47
678.386	3211.21
678.576	3164.11
678.767	3164.11
678.957	3178.45
679.148	3272.65
679.338	3229.65
679.529	3106.77
679.719	3241.93
679.909	3243.98
680.1	3137.49
680.29	3119.06
680.481	3211.21
680.671	3182.54
680.861	3084.24
681.052	3028.95
681.242	3078.1
681.432	3172.3
681.622	3065.81
681.813	3055.57
682.003	3076.05
682.193	2971.6
682.383	3125.2
682.573	3088.34
682.764	3010.51
682.954	2936.79
683.144	2977.75
683.334	3004.37
683.524	3016.66
683.714	2883.54
683.904	2985.94
684.094	2977.75
684.284	2955.22
684.474	3033.04
684.664	2924.5
684.854	2947.03
685.044	2873.3
685.234	2809.81
685.424	2899.92
685.614	2910.16
685.804	2981.84
685.994	2871.25
686.184	2852.82
686.374	2836.44
686.564	2861.01
686.753	2795.48
686.943	2731.99
687.133	2725.85
687.323	2822.1
687.513	2852.82
687.702	2697.17
687.892	2611.16
688.082	2590.68
688.272	2762.71
688.461	2625.5
688.651	2625.5
688.841	2664.41
689.03	2699.22
689.22	2617.3
689.41	2727.89
689.599	2568.15
689.789	2615.26
689.979	2574.3
690.168	2484.19
690.358	2559.96
690.547	2473.95
690.737	2598.87
690.926	2553.82
691.116	2486.23
691.305	2617.3
691.495	2547.67
691.684	2416.6
691.874	2461.66
692.063	2377.69
692.252	2414.56
692.442	2494.43
692.631	2418.65
692.82	2410.46
693.01	2371.55
693.199	2404.32
693.388	2381.79
693.578	2258.91
693.767	2385.88
693.956	2238.43
694.146	2326.49
694.335	2381.79
694.524	2271.2
694.713	2406.36
694.902	2236.38
695.092	2285.53
695.281	2203.61
695.47	2244.57
695.659	2205.66
695.848	2226.14
696.037	2248.67
696.226	2273.25
696.415	2168.8
696.604	2420.7
696.793	2222.05
696.982	2338.78
697.171	2183.13
697.36	2269.15
697.549	2230.24
697.738	2197.47
697.927	2242.53
698.116	2232.29
698.305	2228.19
698.494	2217.95
698.683	2162.65
698.872	2199.52
699.061	2154.46
699.25	2260.96
699.438	2357.21
699.627	2222.05
699.816	2181.09
700.005	2256.86
700.193	2154.46
700.382	2265.05
700.571	2263.01
700.76	2066.4
700.948	2246.62
701.137	2201.57
701.326	2226.14
701.514	2215.9
701.703	2064.35
701.892	2187.23
702.08	2349.02
702.269	2281.44
702.457	2129.89
702.646	2226.14
702.834	2172.89
703.023	2267.1
703.212	2215.9
703.4	2133.98
703.589	2021.35
703.777	2215.9
703.965	2086.88
704.154	2275.29
704.342	2242.53
704.531	2125.79
704.719	2152.42
704.907	2275.29
705.096	2232.29
705.284	2109.41
705.472	2357.21
705.661	2113.5
705.849	2318.3
706.037	2162.65
706.226	2199.52
706.414	2250.72
706.602	2127.84
706.79	2236.38
706.979	2291.68
707.167	2195.42
707.355	2111.46
707.543	2246.62
707.731	2191.33
707.919	2248.67
708.107	2209.76
708.296	2224.09
708.484	2220
708.672	2156.51
708.86	2297.82
709.048	2289.63
709.236	2172.89
709.424	2209.76
709.612	2306.01
709.8	2263.01
709.988	2228.19
710.176	2133.98
710.364	2185.18
710.551	2213.85
710.739	2195.42
710.927	2146.27
711.115	2136.03
711.303	2279.39
711.491	2277.34
711.679	2183.13
711.866	2197.47
712.054	2211.81
712.242	2162.65
712.43	2205.66
712.617	2152.42
712.805	2136.03
712.993	2217.95
713.181	2187.23
713.368	2185.18
713.556	2201.57
713.744	2187.23
713.931	2238.43
714.119	2131.94
714.306	2277.34
714.494	2267.1
714.682	2205.66
714.869	2263.01
715.057	2138.08
715.244	2148.32
715.432	2250.72
715.619	2201.57
715.807	2213.85
715.994	2228.19
716.182	2197.47
716.369	2166.75
716.556	2312.16
716.744	2158.56
716.931	2209.76
717.119	2127.84
717.306	2283.49
717.493	2127.84
717.681	2236.38
717.868	2236.38
718.055	2254.81
718.242	2164.7
718.43	2371.55
718.617	2209.76
718.804	2166.75
718.991	2263.01
719.179	2443.23
719.366	2220
719.553	2322.4
719.74	2183.13
719.927	2211.81
720.114	2336.73
720.301	2234.33
720.488	2222.05
720.676	2162.65
720.863	2303.96
721.05	2224.09
721.237	2109.41
721.424	2170.85
721.611	2258.91
721.798	2179.04
721.985	2306.01
722.172	2185.18
722.358	2250.72
722.545	2303.96
722.732	2258.91
722.919	2267.1
723.106	2197.47
723.293	2088.93
723.48	2205.66
723.667	2152.42
723.853	2181.09
724.04	2097.12
724.227	2109.41
724.414	2232.29
724.6	2220
724.787	2029.54
724.974	2150.37
725.161	2287.58
725.347	1972.19
725.534	2160.61
725.72	2162.65
725.907	2123.74
726.094	2150.37
726.28	2170.85
726.467	2199.52
726.653	2037.73
726.84	2330.59
727.027	2187.23
727.213	2072.54
727.4	2248.67
727.586	2168.8
727.773	2138.08
727.959	2037.73
728.145	2174.94
728.332	2199.52
728.518	2129.89
728.705	2138.08
728.891	2029.54
729.077	2146.27
729.264	2109.41
729.45	2121.7
729.636	2234.33
729.823	2086.88
730.009	2185.18
730.195	2125.79
730.382	2191.33
730.568	2101.22
730.754	2195.42
730.94	2041.82
731.126	2195.42
731.313	2105.31
731.499	2011.11
731.685	2222.05
731.871	2058.21
732.057	2127.84
732.243	2131.94
732.429	2176.99
732.615	2109.41
732.801	2201.57
732.987	2084.83
733.173	2037.73
733.359	2045.92
733.545	2115.55
733.731	2119.65
733.917	2129.89
734.103	2193.37
734.289	2050.02
734.475	2064.35
734.661	2176.99
734.847	2070.5
735.033	2054.11
735.219	2174.94
735.404	2050.02
735.59	2133.98
735.776	2107.36
735.962	2070.5
736.148	2007.01
736.333	2201.57
736.519	1986.53
736.705	2070.5
736.89	2037.73
737.076	2054.11
737.262	2064.35
737.447	1968.1
737.633	1851.36
737.819	1988.58
738.004	2002.91
738.19	1927.14
738.375	2047.97
738.561	1966.05
738.747	1947.62
738.932	1955.81
739.118	1951.71
739.303	1941.47
739.489	1986.53
739.674	2021.35
739.859	1912.8
740.045	1945.57
740.23	1912.8
740.416	1935.33
740.601	1953.76
740.786	1867.75
740.972	1859.56
741.157	1837.03
741.342	1834.98
741.528	1816.55
741.713	1841.12
741.898	1902.56
742.084	1896.42
742.269	1935.33
742.454	1857.51
742.639	1937.38
742.824	1933.28
743.01	1763.3
743.195	1927.14
743.38	1775.59
743.565	1861.6
743.75	1714.15
743.935	1775.59
744.12	1816.55
744.305	1808.36
744.49	1812.45
744.675	1691.62
744.86	1621.99
745.045	1736.68
745.23	1724.39
745.415	1814.5
745.6	1658.85
745.785	1738.73
745.97	1654.76
746.155	1708.01
746.34	1734.63
746.525	1615.85
746.71	1730.53
746.895	1638.37
747.079	1630.18
747.264	1634.28
747.449	1671.14
747.634	1572.84
747.819	1529.83
748.003	1585.13
748.188	1535.98
748.373	1615.85
748.557	1597.42
748.742	1570.79
748.927	1554.41
749.111	1595.37
749.296	1529.83
749.481	1527.78
749.665	1544.17
749.85	1589.22
750.034	1544.17
750.219	1462.25
750.404	1423.34
750.588	1429.48
750.773	1417.19
750.957	1411.05
751.141	1486.83
751.326	1421.29
751.51	1363.95
751.695	1327.08
751.879	1443.82
752.064	1439.72
752.248	1437.67
752.432	1370.09
752.617	1265.64
752.801	1396.71
752.985	1417.19
753.17	1347.56
753.354	1357.8
753.538	1331.18
753.722	1210.35
753.907	1296.36
754.091	1212.4
754.275	1290.22
754.459	1300.46
754.643	1286.12
754.828	1343.47
755.012	1196.01
755.196	1239.02
755.38	1245.16
755.564	1167.34
755.748	1198.06
755.932	1116.14
756.116	1282.03
756.3	1157.1
756.484	1114.1
756.668	1263.6
756.852	1163.25
757.036	1181.68
757.22	1144.81
757.404	1023.98
757.588	1091.57
757.772	1089.52
757.956	1089.52
758.14	1099.76
758.323	1077.23
758.507	1042.42
758.691	1054.7
758.875	1136.62
759.059	1136.62
759.242	1034.22
759.426	989.17
759.61	983.02
759.794	976.88
759.977	989.17
760.161	1048.56
760.345	978.93
760.528	980.98
760.712	1015.79
760.895	1011.7
761.079	1026.03
761.263	950.26
761.446	888.82
761.63	903.15
761.813	960.5
761.997	1032.18
762.18	972.79
762.364	966.64
762.547	962.55
762.731	892.91
762.914	917.49
763.098	909.3
763.281	827.38
763.464	845.81
763.648	890.87
763.831	901.11
764.015	862.19
764.198	935.92
764.381	835.57
764.564	1038.32
764.748	899.06
764.931	976.88
765.114	882.67
765.297	931.83
765.481	765.94
765.664	864.24
765.847	843.76
766.03	831.48
766.213	835.57
766.397	890.87
766.58	802.8
766.763	909.3
766.946	837.62
767.129	819.19
767.312	811
767.495	835.57
767.678	718.84
767.861	903.15
768.044	776.18
768.227	784.37
768.41	784.37
768.593	864.24
768.776	753.65
768.959	759.8
769.142	763.89
769.324	759.8
769.507	800.76
769.69	804.85
769.873	767.99
770.056	827.38
770.239	806.9
770.421	743.41
770.604	796.66
770.787	663.54
770.97	763.89
771.152	839.67
771.335	681.97
771.518	604.15
771.7	759.8
771.883	727.03
772.066	772.08
772.248	661.49
772.431	747.51
772.613	747.51
772.796	612.34
772.978	708.6
773.161	770.04
773.343	653.3
773.526	684.02
773.708	686.07
773.891	749.56
774.073	634.87
774.256	688.12
774.438	737.27
774.621	679.93
774.803	700.41
774.985	679.93
775.168	616.44
775.35	573.43
775.532	643.06
775.715	628.73
775.897	688.12
776.079	606.2
776.261	630.77
776.444	641.01
776.626	622.58
776.808	559.1
776.99	647.16
777.173	612.34
777.355	528.38
777.537	634.87
777.719	573.43
777.901	538.62
778.083	565.24
778.265	649.21
778.447	565.24
778.629	511.99
778.811	503.8
778.993	538.62
779.175	614.39
779.357	628.73
779.539	561.14
779.721	585.72
779.903	524.28
780.085	493.56
780.267	526.33
780.449	522.23
780.631	526.33
780.812	530.42
780.994	475.13
781.176	503.8
781.358	503.8
781.54	522.23
781.721	464.89
781.903	530.42
782.085	522.23
782.267	483.32
782.448	487.42
782.63	458.74
782.812	509.94
782.993	475.13
783.175	468.98
783.357	491.51
783.538	479.22
783.72	419.83
783.901	471.03
784.083	452.6
784.264	440.31
784.446	370.68
784.627	411.64
784.809	419.83
784.99	348.15
785.172	393.21
785.353	389.11
785.535	413.69
785.716	475.13
785.897	395.26
786.079	354.3
786.26	436.22
786.441	331.77
786.623	348.15
786.804	307.2
786.985	407.55
787.167	417.79
787.348	352.25
787.529	319.48
787.71	407.55
787.891	385.02
788.073	358.39
788.254	325.63
788.435	385.02
788.616	315.39
788.797	327.67
788.978	378.87
789.159	229.37
789.34	342.01
789.522	284.67
789.703	350.2
789.884	360.44
790.065	309.24
790.246	393.21
790.427	333.82
790.607	327.67
790.788	350.2
790.969	278.52
791.15	315.39
791.331	301.05
791.512	327.67
791.693	317.44
791.874	401.4
792.054	348.15
792.235	292.86
792.416	262.14
792.597	274.43
792.778	331.77
792.958	266.24
793.139	241.66
793.32	272.38
793.5	286.72
793.681	405.5
793.862	282.62
794.042	274.43
794.223	172.03
794.404	352.25
794.584	231.42
794.765	221.18
794.945	270.33
795.126	292.86
795.306	245.76
795.487	282.62
795.667	217.08
795.848	231.42
796.028	198.65
796.209	241.66
796.389	290.81
796.57	225.28
796.75	264.19
796.93	288.76
797.111	256
797.291	247.8
797.471	307.2
797.652	221.18
797.832	241.66
798.012	262.14
798.192	239.61
798.373	245.76
798.553	188.41
798.733	260.09
798.913	223.23
799.093	221.18
799.274	221.18
799.454	202.75
799.634	276.48
799.814	247.8
799.994	266.24
800.174	253.95
800.354	270.33
800.534	178.17
800.714	266.24
800.894	190.46
801.074	204.8
801.254	188.41
801.434	212.99
801.614	192.51
801.794	176.13
801.974	655.35
802.154	200.7
802.334	247.8
802.514	243.71
802.693	186.37
802.873	223.23
803.053	184.32
803.233	163.84
803.413	174.08
803.592	165.89
803.772	147.45
803.952	180.22
804.131	159.74
804.311	210.94
804.491	196.61
804.67	163.84
804.85	184.32
805.03	221.18
805.209	167.93
805.389	210.94
805.568	141.31
805.748	137.21
805.928	184.32
806.107	225.28
806.287	155.65
806.466	245.76
806.646	227.32
806.825	182.27
807.004	180.22
807.184	186.37
807.363	188.41
807.543	157.69
807.722	110.59
807.901	133.12
808.081	196.61
808.26	114.69
808.439	292.86
808.619	122.88
808.798	100.35
808.977	149.5
809.156	237.56
809.336	92.16
809.515	172.03
809.694	204.8
809.873	167.93
810.052	108.54
810.231	174.08
810.411	167.93
810.59	241.66
810.769	153.6
810.948	184.32
811.127	65.53
811.306	180.22
811.485	106.49
811.664	153.6
811.843	188.41
812.022	131.07
812.201	141.31
812.38	110.59
812.559	133.12
812.737	151.55
812.916	102.4
813.095	133.12
813.274	145.41
813.453	178.17
813.632	81.92
813.811	186.37
813.989	143.36
814.168	184.32
814.347	83.97
814.526	165.89
814.704	159.74
814.883	57.34
815.062	126.97
815.24	184.32
815.419	131.07
815.598	202.75
815.776	8.19
815.955	190.46
816.133	49.15
816.312	57.34
816.49	77.82
816.669	174.08
816.847	100.35
817.026	161.79
817.204	92.16
817.383	153.6
817.561	180.22
817.74	83.97
817.918	116.73
818.097	114.69
818.275	98.3
818.453	116.73
818.632	114.69
818.81	108.54
818.988	131.07
819.167	118.78
819.345	135.17
819.523	98.3
819.701	129.02
819.879	32.77
820.058	59.39
820.236	151.55
820.414	90.11
820.592	106.49
820.77	104.45
820.948	100.35
821.127	135.17
821.305	77.82
821.483	67.58
821.661	47.1
821.839	169.98
822.017	67.58
822.195	77.82
822.373	73.73
822.551	86.01
822.729	153.6
822.907	120.83
823.085	77.82
823.262	120.83
823.44	116.73
823.618	75.77
823.796	77.82
823.974	102.4
824.152	135.17
824.329	14.34
824.507	65.53
824.685	139.26
824.863	69.63
825.04	90.11
825.218	83.97
825.396	86.01
825.574	96.25
825.751	75.77
825.929	73.73
826.107	120.83
826.284	18.43
826.462	98.3
826.639	104.45
826.817	92.16
826.994	40.96
827.172	110.59
827.349	67.58
827.527	139.26
827.704	69.63
827.882	114.69
828.059	120.83
828.237	32.77
828.414	67.58
828.591	26.62
828.769	120.83
828.946	106.49
829.124	108.54
829.301	163.84
829.478	67.58
829.655	169.98
829.833	55.3
830.01	20.48
830.187	108.54
830.364	129.02
830.542	10.24
830.719	28.67
830.896	88.06
831.073	43.01
831.25	98.3
831.427	49.15
831.604	40.96
831.782	53.25
831.959	108.54
832.136	24.58
832.313	53.25
832.49	131.07
832.667	59.39
832.844	61.44
833.021	102.4
833.198	69.63
833.374	137.21
833.551	98.3
833.728	55.3
833.905	22.53
834.082	38.91
834.259	36.86
834.436	118.78
834.612	-22.53
834.789	71.68
834.966	77.82
835.143	69.63
835.319	20.48
835.496	32.77
835.673	102.4
835.85	43.01
836.026	114.69
836.203	155.65
836.38	12.29
836.556	-6.14
836.733	28.67
836.909	45.06
837.086	98.3
837.262	83.97
837.439	40.96
837.616	67.58
837.792	22.53
837.968	77.82
838.145	47.1
838.321	75.77
838.498	65.53
838.674	63.49
838.851	20.48
839.027	22.53
839.203	92.16
839.38	112.64
839.556	51.2
839.732	-12.29
839.909	-14.34
840.085	61.44
840.261	90.11
840.437	114.69
840.614	98.3
840.79	43.01
840.966	100.35
841.142	40.96
841.318	18.43
841.494	36.86
841.671	-43.01
841.847	43.01
842.023	34.82
842.199	61.44
842.375	49.15
842.551	45.06
842.727	-4.1
842.903	45.06
843.079	-36.86
843.255	88.06
843.431	94.21
843.607	28.67
843.783	36.86
843.959	53.25
844.134	-47.1
844.31	112.64
844.486	30.72
844.662	40.96
844.838	34.82
845.013	49.15
845.189	69.63
845.365	16.38
845.541	16.38
845.716	51.2
845.892	-12.29
846.068	77.82
846.244	0
846.419	53.25
846.595	47.1
846.77	16.38
846.946	45.06
847.122	-55.3
847.297	57.34
847.473	81.92
847.648	-14.34
847.824	88.06
847.999	8.19
848.175	-34.82
848.35	4.1
848.526	10.24
848.701	81.92
848.876	45.06
849.052	90.11
849.227	49.15
849.403	59.39
849.578	45.06
849.753	16.38
849.929	-34.82
850.104	59.39
850.279	12.29
850.454	38.91
850.63	69.63
850.805	6.14
850.98	32.77
851.155	75.77
851.33	73.73
851.505	-34.82
851.681	49.15
851.856	30.72
852.031	141.31
852.206	-47.1
852.381	30.72
852.556	57.34
852.731	51.2
852.906	79.87
853.081	65.53
853.256	18.43
853.431	34.82
853.606	-16.38
853.781	18.43
853.956	-10.24
854.131	-2.05
854.305	28.67
854.48	92.16
854.655	-2.05
854.83	30.72
855.005	-14.34
855.18	20.48
855.354	20.48
855.529	65.53
855.704	-14.34
855.879	69.63
856.053	-47.1
856.228	-43.01
856.403	20.48
856.577	34.82
856.752	-16.38
856.926	59.39
857.101	77.82
857.276	10.24
857.45	43.01
857.625	98.3
857.799	-32.77
857.974	55.3
858.148	24.58
858.323	55.3
858.497	0
858.672	16.38
858.846	8.19
859.02	65.53
859.195	-12.29
859.369	-20.48
859.543	-36.86
859.718	28.67
859.892	45.06
860.066	4.1
860.241	22.53
860.415	32.77
860.589	24.58
860.763	-6.14
860.938	4.1
861.112	4.1
861.286	34.82
861.46	61.44
861.634	16.38
861.808	110.59
861.982	51.2
862.157	55.3
862.331	28.67
862.505	-30.72
862.679	16.38
862.853	14.34
863.027	2.05
863.201	36.86
863.375	-6.14
863.549	53.25
863.722	47.1
863.896	90.11
864.07	-47.1
864.244	22.53
864.418	16.38
864.592	18.43
864.766	-10.24
864.939	-65.54
865.113	18.43
865.287	-22.53
865.461	47.1
865.634	-36.86
865.808	26.62
865.982	16.38
866.156	-73.73
866.329	-16.38
866.503	51.2
866.676	-18.43
866.85	26.62
867.024	30.72
867.197	-34.82
867.371	16.38
867.544	26.62
867.718	-38.91
867.891	71.68
868.065	86.01
868.238	10.24
868.412	36.86
868.585	16.38
868.759	-43.01
868.932	24.58
869.105	28.67
869.279	16.38
869.452	18.43
869.625	63.49
869.799	-18.43
869.972	6.14
870.145	-43.01
870.319	14.34
870.492	26.62
870.665	36.86
870.838	-24.58
871.011	-53.25
871.185	-30.72
871.358	67.58
871.531	-6.14
871.704	8.19
871.877	-22.53
872.05	10.24
872.223	-6.14
872.396	-47.1
872.569	26.62
872.742	-14.34
872.915	-43.01
873.088	51.2
873.261	-57.34
873.434	38.91
873.607	-61.44
873.78	65.53
873.953	-67.58
874.126	43.01
874.299	81.92
874.471	-34.82
874.644	-94.21
874.817	22.53
874.99	53.25
875.163	-4.1
875.335	47.1
875.508	53.25
875.681	-4.1
875.853	-12.29
876.026	-18.43
876.199	65.53
876.371	16.38
876.544	-14.34
876.717	14.34
876.889	-10.24
877.062	77.82
877.234	24.58
877.407	-26.62
877.579	-12.29
877.752	0
877.924	16.38
878.097	-6.14
878.269	-24.58
878.442	-8.19
878.614	45.06
878.786	-26.62
878.959	-32.77
879.131	2.05
879.303	-22.53
879.476	8.19
879.648	-24.58
879.82	-36.86
879.993	8.19
880.165	30.72
880.337	-24.58
880.509	4.1
880.681	-36.86
880.854	53.25
881.026	-10.24
881.198	4.1
881.37	-6.14
881.542	8.19
881.714	77.82
881.886	26.62
882.058	12.29
882.23	-65.54
882.402	45.06
882.574	-10.24
882.746	57.34
882.918	94.21
883.09	-10.24
883.262	18.43
883.434	4.1
883.606	-18.43
883.778	-16.38
883.95	40.96
884.122	6.14
884.293	28.67
884.465	34.82
884.637	34.82
884.809	4.1
884.98	32.77
885.152	14.34
885.324	0
885.496	43.01
885.667	-10.24
885.839	4.1
886.011	-10.24
886.182	22.53
886.354	-34.82
886.525	108.54
886.697	88.06
886.869	-73.73
887.04	38.91
887.212	32.77
887.383	6.14
887.555	-26.62
887.726	-22.53
887.897	-10.24
888.069	-16.38
888.24	43.01
888.412	73.73
888.583	83.97
888.754	-10.24
888.926	34.82
889.097	47.1
889.268	8.19
889.44	40.96
889.611	-4.1
889.782	-6.14
889.953	4.1
890.125	0
890.296	-57.34
890.467	32.77
890.638	16.38
890.809	-22.53
890.98	30.72
891.151	71.68
891.323	22.53
891.494	20.48
891.665	-10.24
891.836	36.86
892.007	0
892.178	-49.15
892.349	-45.06
892.52	-32.77
892.691	-65.54
892.862	0
893.032	-20.48
893.203	-53.25
893.374	22.53
893.545	-40.96
893.716	-22.53
893.887	73.73
894.057	36.86
894.228	30.72
894.399	-51.2
894.57	-36.86
894.74	30.72
894.911	28.67
895.082	-57.34
895.253	14.34
895.423	26.62
895.594	49.15
895.764	10.24
895.935	-51.2
896.106	26.62
896.276	12.29
896.447	36.86
896.617	6.14
896.788	-24.58
896.958	-4.1
897.129	34.82
897.299	-6.14
897.47	20.48
897.64	65.53
897.81	12.29
897.981	22.53
898.151	28.67
898.322	-22.53
898.492	61.44
898.662	-10.24
898.832	2.05
899.003	-24.58
899.173	8.19
899.343	-10.24
899.513	10.24
