Data from USB4F104151__25__12-00-32-012.txt Node

Date: Fri Mar 14 12:00:32 EDT 2025
User: louis
Spectrometer: USB4F10415
Trigger mode: 4
Integration Time (sec): 2.000000E-2
Scans to average: 1
Electric dark correction enabled: true
Nonlinearity correction enabled: false
Boxcar width: 0
XAxis mode: Wavelengths
Number of Pixels in Spectrum: 3648
>>>>>Begin Spectral Data<<<<<
178.204	-41.98
178.424	-41.98
178.644	-41.98
178.864	-87.04
179.084	-68.61
179.304	35.84
179.524	13.31
179.744	-50.18
179.964	15.36
180.184	29.7
180.404	37.89
180.624	-9.22
180.844	-23.55
181.064	-84.99
181.283	21.5
181.503	11.26
181.723	3.07
181.943	-101.37
182.163	37.89
182.383	15.36
182.602	-23.55
182.822	52.22
183.042	113.66
183.262	-15.36
183.482	-29.7
183.701	109.57
183.921	15.36
184.141	-23.55
184.361	72.7
184.58	19.46
184.8	-9.22
185.02	33.79
185.239	-29.7
185.459	-50.18
185.679	33.79
185.898	9.22
186.118	76.8
186.338	19.46
186.557	76.8
186.777	-9.22
186.997	5.12
187.216	50.18
187.436	52.22
187.655	54.27
187.875	48.13
188.095	15.36
188.314	41.98
188.534	21.5
188.753	-48.13
188.973	125.95
189.192	52.22
189.412	39.94
189.631	33.79
189.851	44.03
190.07	68.61
190.29	9.22
190.509	-39.94
190.729	35.84
190.948	58.37
191.168	109.57
191.387	15.36
191.607	33.79
191.826	-7.17
192.045	9.22
192.265	17.41
192.484	-46.08
192.704	44.03
192.923	41.98
193.142	89.09
193.362	25.6
193.581	13.31
193.8	1.02
194.02	56.32
194.239	44.03
194.458	-7.17
194.678	-15.36
194.897	56.32
195.116	5.12
195.335	95.23
195.555	107.52
195.774	52.22
195.993	87.04
196.212	13.31
196.432	1.02
196.651	29.7
196.87	-39.94
197.089	11.26
197.308	33.79
197.528	21.5
197.747	37.89
197.966	62.46
198.185	74.75
198.404	68.61
198.623	3.07
198.842	70.65
199.062	39.94
199.281	31.74
199.5	48.13
199.719	33.79
199.938	54.27
200.157	-9.22
200.376	78.85
200.595	25.6
200.814	-29.7
201.033	13.31
201.252	54.27
201.471	7.17
201.69	1.02
201.909	66.56
202.128	3.07
202.347	1.02
202.566	29.7
202.785	-52.22
203.004	21.5
203.223	-1.02
203.442	37.89
203.661	3.07
203.879	48.13
204.098	-5.12
204.317	128
204.536	27.65
204.755	27.65
204.974	39.94
205.193	70.65
205.411	39.94
205.63	19.46
205.849	35.84
206.068	39.94
206.287	37.89
206.505	5.12
206.724	19.46
206.943	11.26
207.162	25.6
207.381	62.46
207.599	25.6
207.818	-19.46
208.037	39.94
208.255	33.79
208.474	-44.03
208.693	64.51
208.911	-11.26
209.13	62.46
209.349	48.13
209.567	52.22
209.786	99.33
210.005	41.98
210.223	27.65
210.442	9.22
210.661	29.7
210.879	-11.26
211.098	3.07
211.316	17.41
211.535	27.65
211.753	27.65
211.972	54.27
212.191	-29.7
212.409	87.04
212.628	31.74
212.846	-41.98
213.065	-74.75
213.283	23.55
213.502	-23.55
213.72	31.74
213.938	74.75
214.157	17.41
214.375	29.7
214.594	31.74
214.812	37.89
215.031	54.27
215.249	23.55
215.467	48.13
215.686	9.22
215.904	132.09
216.122	5.12
216.341	107.52
216.559	23.55
216.778	27.65
216.996	48.13
217.214	21.5
217.432	33.79
217.651	29.7
217.869	-15.36
218.087	109.57
218.306	21.5
218.524	27.65
218.742	3.07
218.96	-1.02
219.179	52.22
219.397	48.13
219.615	39.94
219.833	109.57
220.051	66.56
220.27	9.22
220.488	48.13
220.706	41.98
220.924	48.13
221.142	-17.41
221.36	80.89
221.578	113.66
221.796	76.8
222.015	35.84
222.233	13.31
222.451	19.46
222.669	46.08
222.887	58.37
223.105	87.04
223.323	3.07
223.541	19.46
223.759	-29.7
223.977	60.42
224.195	177.15
224.413	41.98
224.631	21.5
224.849	78.85
225.067	-7.17
225.285	-9.22
225.503	72.7
225.721	-5.12
225.939	19.46
226.157	74.75
226.375	125.95
226.592	-13.31
226.81	89.09
227.028	72.7
227.246	87.04
227.464	41.98
227.682	84.99
227.9	31.74
228.117	154.62
228.335	-33.79
228.553	72.7
228.771	35.84
228.989	25.6
229.206	13.31
229.424	-11.26
229.642	21.5
229.86	58.37
230.077	150.53
230.295	74.75
230.513	9.22
230.731	17.41
230.948	3.07
231.166	64.51
231.384	7.17
231.601	70.65
231.819	84.99
232.037	-23.55
232.254	17.41
232.472	17.41
232.689	-37.89
232.907	58.37
233.125	35.84
233.342	13.31
233.56	72.7
233.777	-15.36
233.995	68.61
234.213	68.61
234.43	84.99
234.648	-9.22
234.865	123.9
235.083	9.22
235.3	41.98
235.518	68.61
235.735	68.61
235.953	15.36
236.17	21.5
236.388	60.42
236.605	7.17
236.822	60.42
237.04	-29.7
237.257	101.37
237.475	23.55
237.692	41.98
237.909	23.55
238.127	46.08
238.344	80.89
238.562	68.61
238.779	-23.55
238.996	31.74
239.214	25.6
239.431	9.22
239.648	29.7
239.865	80.89
240.083	23.55
240.3	23.55
240.517	-7.17
240.735	46.08
240.952	70.65
241.169	-29.7
241.386	-13.31
241.603	50.18
241.821	15.36
242.038	58.37
242.255	23.55
242.472	21.5
242.689	80.89
242.907	68.61
243.124	68.61
243.341	13.31
243.558	-11.26
243.775	-33.79
243.992	3.07
244.209	93.18
244.426	115.71
244.643	78.85
244.86	27.65
245.078	107.52
245.295	87.04
245.512	113.66
245.729	-17.41
245.946	-7.17
246.163	-46.08
246.38	72.7
246.597	91.13
246.814	95.23
247.031	31.74
247.248	1.02
247.464	-15.36
247.681	-7.17
247.898	72.7
248.115	31.74
248.332	9.22
248.549	21.5
248.766	50.18
248.983	41.98
249.2	-19.46
249.417	-29.7
249.633	9.22
249.85	87.04
250.067	15.36
250.284	-3.07
250.501	50.18
250.717	29.7
250.934	-5.12
251.151	25.6
251.368	29.7
251.585	46.08
251.801	-11.26
252.018	9.22
252.235	56.32
252.451	-3.07
252.668	17.41
252.885	29.7
253.102	-13.31
253.318	-19.46
253.535	31.74
253.752	-23.55
253.968	23.55
254.185	-19.46
254.401	66.56
254.618	-23.55
254.835	-101.37
255.051	111.61
255.268	46.08
255.484	103.42
255.701	25.6
255.917	52.22
256.134	25.6
256.351	25.6
256.567	62.46
256.784	33.79
257	31.74
257.217	5.12
257.433	68.61
257.65	-11.26
257.866	39.94
258.082	54.27
258.299	-19.46
258.515	52.22
258.732	-39.94
258.948	27.65
259.165	-11.26
259.381	66.56
259.597	29.7
259.814	41.98
260.03	39.94
260.246	78.85
260.463	44.03
260.679	121.85
260.895	97.28
261.112	107.52
261.328	27.65
261.544	76.8
261.761	66.56
261.977	33.79
262.193	31.74
262.409	84.99
262.626	-1.02
262.842	-9.22
263.058	52.22
263.274	-3.07
263.49	76.8
263.707	64.51
263.923	-3.07
264.139	35.84
264.355	-7.17
264.571	89.09
264.787	109.57
265.004	-15.36
265.22	-5.12
265.436	-13.31
265.652	-46.08
265.868	27.65
266.084	35.84
266.3	31.74
266.516	37.89
266.732	48.13
266.948	58.37
267.164	50.18
267.38	3.07
267.596	44.03
267.812	70.65
268.028	39.94
268.244	5.12
268.46	58.37
268.676	60.42
268.892	66.56
269.108	-68.61
269.324	-19.46
269.54	84.99
269.756	-39.94
269.972	-31.74
270.188	-23.55
270.403	64.51
270.619	72.7
270.835	54.27
271.051	54.27
271.267	19.46
271.483	54.27
271.698	9.22
271.914	93.18
272.13	23.55
272.346	41.98
272.562	29.7
272.777	11.26
272.993	-7.17
273.209	48.13
273.425	64.51
273.64	25.6
273.856	-7.17
274.072	-1.02
274.287	54.27
274.503	11.26
274.719	74.75
274.934	54.27
275.15	21.5
275.366	103.42
275.581	76.8
275.797	66.56
276.012	9.22
276.228	68.61
276.444	46.08
276.659	107.52
276.875	-13.31
277.09	19.46
277.306	46.08
277.521	60.42
277.737	5.12
277.952	-13.31
278.168	91.13
278.383	27.65
278.599	7.17
278.814	1.02
279.03	52.22
279.245	1.02
279.461	72.7
279.676	17.41
279.892	-11.26
280.107	37.89
280.322	-19.46
280.538	21.5
280.753	-48.13
280.969	41.98
281.184	58.37
281.399	44.03
281.615	76.8
281.83	74.75
282.045	9.22
282.26	3.07
282.476	31.74
282.691	111.61
282.906	54.27
283.122	113.66
283.337	37.89
283.552	72.7
283.767	27.65
283.983	84.99
284.198	-15.36
284.413	31.74
284.628	-15.36
284.843	56.32
285.058	128
285.274	23.55
285.489	-3.07
285.704	37.89
285.919	-3.07
286.134	-39.94
286.349	109.57
286.564	-35.84
286.779	-7.17
286.995	91.13
287.21	-56.32
287.425	35.84
287.64	-23.55
287.855	21.5
288.07	-87.04
288.285	52.22
288.5	21.5
288.715	33.79
288.93	19.46
289.145	48.13
289.36	44.03
289.575	56.32
289.79	46.08
290.004	62.46
290.219	17.41
290.434	-82.94
290.649	29.7
290.864	52.22
291.079	89.09
291.294	109.57
291.509	64.51
291.724	44.03
291.938	66.56
292.153	52.22
292.368	7.17
292.583	27.65
292.798	19.46
293.012	68.61
293.227	19.46
293.442	91.13
293.657	119.81
293.871	58.37
294.086	64.51
294.301	132.09
294.516	3.07
294.73	109.57
294.945	-17.41
295.16	35.84
295.374	113.66
295.589	46.08
295.804	-52.22
296.018	107.52
296.233	58.37
296.447	72.7
296.662	62.46
296.877	89.09
297.091	19.46
297.306	35.84
297.52	89.09
297.735	70.65
297.949	50.18
298.164	9.22
298.378	17.41
298.593	-56.32
298.807	33.79
299.022	64.51
299.236	41.98
299.451	15.36
299.665	50.18
299.88	107.52
300.094	-13.31
300.309	46.08
300.523	109.57
300.737	21.5
300.952	9.22
301.166	54.27
301.381	-29.7
301.595	37.89
301.809	78.85
302.024	7.17
302.238	33.79
302.452	1.02
302.667	-21.5
302.881	-15.36
303.095	29.7
303.309	66.56
303.524	25.6
303.738	35.84
303.952	62.46
304.166	52.22
304.381	-17.41
304.595	60.42
304.809	-48.13
305.023	80.89
305.237	-21.5
305.452	50.18
305.666	11.26
305.88	64.51
306.094	37.89
306.308	25.6
306.522	74.75
306.736	15.36
306.95	-11.26
307.164	93.18
307.379	52.22
307.593	58.37
307.807	66.56
308.021	58.37
308.235	-11.26
308.449	-5.12
308.663	46.08
308.877	15.36
309.091	46.08
309.305	66.56
309.519	58.37
309.733	50.18
309.947	50.18
310.161	-31.74
310.374	70.65
310.588	121.85
310.802	-15.36
311.016	5.12
311.23	39.94
311.444	50.18
311.658	-21.5
311.872	66.56
312.085	66.56
312.299	87.04
312.513	56.32
312.727	25.6
312.941	72.7
313.154	-9.22
313.368	66.56
313.582	39.94
313.796	19.46
314.009	-5.12
314.223	-9.22
314.437	74.75
314.651	39.94
314.864	15.36
315.078	-46.08
315.292	72.7
315.505	62.46
315.719	54.27
315.933	60.42
316.146	-15.36
316.36	-68.61
316.573	103.42
316.787	68.61
317.001	31.74
317.214	64.51
317.428	13.31
317.641	50.18
317.855	37.89
318.068	37.89
318.282	78.85
318.495	66.56
318.709	41.98
318.922	64.51
319.136	25.6
319.349	84.99
319.563	41.98
319.776	54.27
319.99	41.98
320.203	41.98
320.417	27.65
320.63	25.6
320.843	84.99
321.057	48.13
321.27	87.04
321.483	19.46
321.697	76.8
321.91	76.8
322.124	33.79
322.337	76.8
322.55	-9.22
322.763	48.13
322.977	25.6
323.19	-66.56
323.403	17.41
323.617	23.55
323.83	68.61
324.043	15.36
324.256	9.22
324.469	15.36
324.683	70.65
324.896	9.22
325.109	19.46
325.322	-25.6
325.535	29.7
325.748	62.46
325.962	3.07
326.175	82.94
326.388	35.84
326.601	50.18
326.814	-31.74
327.027	46.08
327.24	97.28
327.453	9.22
327.666	101.37
327.879	158.72
328.092	130.05
328.305	56.32
328.518	23.55
328.731	-9.22
328.944	9.22
329.157	31.74
329.37	25.6
329.583	21.5
329.796	121.85
330.009	-37.89
330.222	9.22
330.435	41.98
330.648	-25.6
330.861	-11.26
331.073	9.22
331.286	25.6
331.499	101.37
331.712	58.37
331.925	35.84
332.138	84.99
332.35	70.65
332.563	54.27
332.776	70.65
332.989	-35.84
333.202	68.61
333.414	-1.02
333.627	93.18
333.84	107.52
334.053	33.79
334.265	52.22
334.478	-31.74
334.691	87.04
334.903	64.51
335.116	48.13
335.329	89.09
335.541	5.12
335.754	60.42
335.966	66.56
336.179	80.89
336.392	3.07
336.604	-7.17
336.817	91.13
337.029	56.32
337.242	27.65
337.454	-1.02
337.667	19.46
337.88	41.98
338.092	50.18
338.305	87.04
338.517	33.79
338.729	54.27
338.942	27.65
339.154	-15.36
339.367	91.13
339.579	140.29
339.792	13.31
340.004	166.91
340.217	105.47
340.429	56.32
340.641	5.12
340.854	39.94
341.066	60.42
341.278	179.2
341.491	41.98
341.703	50.18
341.915	5.12
342.128	35.84
342.34	82.94
342.552	39.94
342.764	107.52
342.977	15.36
343.189	19.46
343.401	87.04
343.613	52.22
343.826	-29.7
344.038	87.04
344.25	68.61
344.462	44.03
344.674	-7.17
344.886	13.31
345.099	56.32
345.311	7.17
345.523	7.17
345.735	7.17
345.947	41.98
346.159	89.09
346.371	13.31
346.583	-46.08
346.795	101.37
347.007	52.22
347.219	15.36
347.431	17.41
347.643	74.75
347.855	33.79
348.067	105.47
348.279	46.08
348.491	-1.02
348.703	80.89
348.915	25.6
349.127	56.32
349.339	13.31
349.551	-1.02
349.763	105.47
349.975	33.79
350.187	21.5
350.399	68.61
350.61	91.13
350.822	21.5
351.034	-1.02
351.246	-5.12
351.458	89.09
351.669	35.84
351.881	101.37
352.093	148.48
352.305	78.85
352.517	82.94
352.728	111.61
352.94	82.94
353.152	76.8
353.363	70.65
353.575	13.31
353.787	82.94
353.999	35.84
354.21	101.37
354.422	23.55
354.633	39.94
354.845	39.94
355.057	87.04
355.268	136.19
355.48	128
355.692	9.22
355.903	62.46
356.115	103.42
356.326	17.41
356.538	25.6
356.749	64.51
356.961	56.32
357.172	37.89
357.384	-17.41
357.595	87.04
357.807	103.42
358.018	78.85
358.23	97.28
358.441	62.46
358.653	44.03
358.864	78.85
359.075	-9.22
359.287	19.46
359.498	44.03
359.709	78.85
359.921	93.18
360.132	29.7
360.344	74.75
360.555	21.5
360.766	58.37
360.977	62.46
361.189	115.71
361.4	-3.07
361.611	39.94
361.823	37.89
362.034	54.27
362.245	-19.46
362.456	13.31
362.667	87.04
362.879	84.99
363.09	105.47
363.301	39.94
363.512	7.17
363.723	1.02
363.935	82.94
364.146	19.46
364.357	41.98
364.568	-17.41
364.779	-7.17
364.99	60.42
365.201	11.26
365.412	52.22
365.623	72.7
365.834	-1.02
366.045	84.99
366.256	66.56
366.467	39.94
366.678	-3.07
366.889	-25.6
367.1	31.74
367.311	64.51
367.522	21.5
367.733	99.33
367.944	44.03
368.155	46.08
368.366	52.22
368.577	56.32
368.788	25.6
368.999	95.23
369.209	23.55
369.42	44.03
369.631	50.18
369.842	50.18
370.053	25.6
370.264	97.28
370.474	11.26
370.685	68.61
370.896	15.36
371.107	44.03
371.317	29.7
371.528	13.31
371.739	9.22
371.95	37.89
372.16	84.99
372.371	11.26
372.582	64.51
372.792	44.03
373.003	31.74
373.214	48.13
373.424	103.42
373.635	50.18
373.846	37.89
374.056	21.5
374.267	-9.22
374.477	41.98
374.688	89.09
374.898	54.27
375.109	-44.03
375.319	58.37
375.53	-11.26
375.74	87.04
375.951	-27.65
376.161	72.7
376.372	105.47
376.582	68.61
376.793	11.26
377.003	-1.02
377.214	54.27
377.424	48.13
377.635	21.5
377.845	58.37
378.055	125.95
378.266	48.13
378.476	80.89
378.686	66.56
378.897	-9.22
379.107	70.65
379.317	52.22
379.528	3.07
379.738	72.7
379.948	-11.26
380.158	39.94
380.369	-33.79
380.579	87.04
380.789	35.84
380.999	99.33
381.21	136.19
381.42	66.56
381.63	76.8
381.84	23.55
382.05	33.79
382.261	21.5
382.471	111.61
382.681	35.84
382.891	62.46
383.101	84.99
383.311	33.79
383.521	9.22
383.731	138.24
383.941	68.61
384.151	37.89
384.361	52.22
384.571	-7.17
384.781	87.04
384.991	52.22
385.201	58.37
385.411	109.57
385.621	113.66
385.831	64.51
386.041	82.94
386.251	99.33
386.461	119.81
386.671	13.31
386.881	60.42
387.091	64.51
387.301	117.76
387.511	44.03
387.72	99.33
387.93	89.09
388.14	11.26
388.35	97.28
388.56	13.31
388.769	107.52
388.979	128
389.189	9.22
389.399	25.6
389.609	74.75
389.818	62.46
390.028	25.6
390.238	105.47
390.447	89.09
390.657	37.89
390.867	37.89
391.076	37.89
391.286	44.03
391.496	103.42
391.705	68.61
391.915	68.61
392.125	50.18
392.334	46.08
392.544	44.03
392.753	52.22
392.963	72.7
393.172	123.9
393.382	205.82
393.591	91.13
393.801	44.03
394.01	105.47
394.22	84.99
394.429	171.01
394.639	68.61
394.848	125.95
395.058	56.32
395.267	89.09
395.477	91.13
395.686	134.14
395.895	93.18
396.105	107.52
396.314	136.19
396.524	128
396.733	146.43
396.942	7.17
397.152	214.01
397.361	195.58
397.57	130.05
397.78	119.81
397.989	52.22
398.198	101.37
398.407	123.9
398.617	91.13
398.826	201.72
399.035	128
399.244	115.71
399.453	203.77
399.663	87.04
399.872	136.19
400.081	-1.02
400.29	72.7
400.499	166.91
400.708	76.8
400.917	156.67
401.127	130.05
401.336	105.47
401.545	97.28
401.754	113.66
401.963	154.62
402.172	121.85
402.381	80.89
402.59	203.77
402.799	62.46
403.008	168.96
403.217	78.85
403.426	156.67
403.635	201.72
403.844	132.09
404.053	185.34
404.262	175.1
404.471	189.44
404.68	171.01
404.888	148.48
405.097	99.33
405.306	197.63
405.515	99.33
405.724	191.49
405.933	201.72
406.142	205.82
406.35	273.4
406.559	130.05
406.768	261.12
406.977	252.92
407.185	267.26
407.394	183.29
407.603	207.87
407.812	244.73
408.02	312.32
408.229	257.02
408.438	287.74
408.646	211.96
408.855	214.01
409.064	259.07
409.272	236.54
409.481	326.65
409.69	236.54
409.898	328.7
410.107	361.47
410.315	324.6
410.524	340.99
410.733	320.51
410.941	392.19
411.15	500.73
411.358	496.63
411.567	424.95
411.775	418.81
411.984	492.54
412.192	412.67
412.401	513.02
412.609	625.65
412.818	549.88
413.026	556.02
413.234	596.98
413.443	558.07
413.651	515.06
413.86	617.46
414.068	617.46
414.276	695.29
414.485	623.61
414.693	672.76
414.901	781.3
415.11	766.96
415.318	830.45
415.526	805.88
415.734	883.7
415.943	820.21
416.151	869.36
416.359	900.08
416.567	982
416.776	1029.1
416.984	1141.74
417.192	1090.54
417.4	1154.03
417.608	1018.86
417.817	1172.46
418.025	1233.9
418.233	1383.4
418.441	1262.57
418.649	1330.16
418.857	1381.35
419.065	1485.8
419.273	1442.79
419.481	1534.95
419.689	1657.83
419.897	1709.03
420.105	1670.12
420.313	1801.19
420.521	1823.72
420.729	1876.96
420.937	1811.43
421.145	1975.27
421.353	2081.76
421.561	2206.69
421.769	2280.41
421.977	2350.04
422.185	2350.04
422.393	2493.4
422.601	2595.8
422.809	2530.27
423.017	2552.79
423.224	2798.55
423.432	2681.82
423.64	2753.49
423.848	3011.54
424.056	3083.22
424.263	3138.51
424.471	3257.29
424.679	3349.45
424.887	3548.11
425.094	3550.15
425.302	3601.35
425.51	3879.88
425.718	3689.42
425.925	4010.95
426.133	4031.43
426.341	4268.99
426.548	4398.01
426.756	4498.36
426.964	4512.7
427.171	4912.05
427.379	4914.1
427.586	4948.92
427.794	5092.27
428.001	5307.31
428.209	5737.38
428.417	5465
428.624	5921.7
428.832	5893.03
429.039	5942.18
429.247	6034.34
429.454	6552.48
429.662	6939.54
429.869	6448.03
430.076	6960.02
430.284	6689.69
430.491	7076.76
430.699	7408.53
430.906	7424.91
431.114	7455.63
431.321	7680.91
431.528	8086.4
431.736	8407.94
431.943	8784.76
432.15	8598.4
432.358	8762.23
432.565	9214.84
432.772	9237.36
432.979	9669.48
433.187	9728.88
433.394	9741.16
433.601	10632.03
433.808	10408.8
434.016	10460
434.223	11025.24
434.43	11430.74
434.637	11344.72
434.844	12043.08
435.052	12438.34
435.259	12208.97
435.466	12223.3
435.673	12176.2
435.88	13056.82
436.087	13824.81
436.294	13697.84
436.501	13179.7
436.708	13792.05
436.915	14103.34
437.122	14762.78
437.329	14775.07
437.537	15176.47
437.743	15239.96
437.95	15325.97
438.157	16083.72
438.364	16794.37
438.571	16710.4
438.778	16476.93
438.985	18383.59
439.192	17425.14
439.399	18017.01
439.606	17662.71
439.813	18797.28
440.02	19868.37
440.227	19325.66
440.433	19464.92
440.64	20118.22
440.847	19921.62
441.054	20208.33
441.261	21844.66
441.467	21445.3
441.674	21922.48
441.881	22725.29
442.088	22735.53
442.294	22563.5
442.501	23282.33
442.708	23478.94
442.914	24453.77
443.121	25184.9
443.328	24910.47
443.534	26647.15
443.741	25672.31
443.948	25537.15
444.154	27429.47
444.361	27644.51
444.568	27761.24
444.774	27523.68
444.981	28017.24
445.187	28613.2
445.394	29594.17
445.6	29297.22
445.807	32303.64
446.013	30841.39
446.22	31509.02
446.426	32191
446.633	33096.2
446.839	33978.87
447.046	32270.87
447.252	34691.57
447.459	34384.37
447.665	34150.9
447.871	35613.15
448.078	37366.21
448.284	35682.78
448.491	36721.1
448.697	38042.04
448.903	38795.7
449.11	38631.86
449.316	37962.17
449.522	38478.26
449.728	39844.26
449.935	39827.87
450.141	39889.31
450.347	40647.06
450.553	39840.16
450.76	40278.43
450.966	41922.94
451.172	41169.29
451.378	42068.35
451.584	40964.49
451.791	41808.26
451.997	41769.35
452.203	42705.27
452.409	42588.53
452.615	42166.65
452.821	40311.19
453.027	40438.17
453.233	42248.57
453.44	40757.65
453.646	41177.48
453.852	41124.24
454.058	42162.56
454.264	40489.37
454.47	41089.42
454.676	40235.42
454.882	41660.8
455.088	37771.71
455.294	38498.74
455.5	39252.39
455.705	39625.12
455.911	38087.1
456.117	36800.97
456.323	36454.87
456.529	35088.87
456.735	36231.64
456.941	35498.47
457.147	34845.16
457.352	33583.62
457.558	33094.15
457.764	32989.7
457.97	32903.69
458.176	32090.65
458.381	31824.41
458.587	30200.37
458.793	30374.45
458.999	28953.16
459.204	30974.5
459.41	29958.71
459.616	28115.54
459.821	27918.93
460.027	28007
460.233	27472.48
460.438	25932.4
460.644	26180.21
460.85	24889.99
461.055	24433.29
461.261	24177.3
461.466	22694.57
461.672	21951.15
461.878	23573.14
462.083	22260.4
462.289	21996.21
462.494	21271.23
462.7	20464.33
462.905	20200.14
463.111	20468.42
463.316	20617.93
463.522	20349.64
463.727	20259.53
463.932	20140.75
464.138	20001.49
464.343	20026.06
464.549	19645.14
464.754	20529.86
464.959	19882.7
465.165	20067.02
465.37	18889.44
465.575	18592.48
465.781	19389.14
465.986	19428.06
466.191	18635.49
466.397	17994.48
466.602	17441.53
466.807	17976.05
467.012	18103.02
467.218	18135.79
467.423	17658.61
467.628	17873.65
467.833	18496.23
468.038	18111.21
468.244	17343.22
468.449	18021.1
468.654	17308.41
468.859	17122.04
469.064	17320.7
469.269	16636.67
469.474	16530.18
469.679	17089.28
469.885	16397.06
470.09	17005.31
470.295	16675.59
470.5	16134.92
470.705	16392.97
470.91	15962.89
471.115	15809.29
471.32	16231.18
471.525	16182.03
471.73	15328.02
471.935	15491.86
472.139	15043.35
472.344	15069.98
472.549	15031.07
472.754	14840.61
472.959	14422.82
473.164	14332.71
473.369	14072.62
473.574	14856.99
473.778	14385.96
473.983	14177.06
474.188	14127.91
474.393	13421.36
474.598	13790
474.802	13521.71
475.007	13462.32
475.212	13402.93
475.417	12919.61
475.621	12866.36
475.826	12974.91
476.031	12907.32
476.235	12514.11
476.44	12718.91
476.645	12376.9
476.849	12342.08
477.054	12385.09
477.259	11821.9
477.463	12077.9
477.668	11518.8
477.872	12010.31
478.077	11879.24
478.282	11227.99
478.486	11445.07
478.691	11215.7
478.895	11113.3
479.1	11094.87
479.304	11111.25
479.509	10787.68
479.713	11053.91
479.918	10662.75
480.122	10562.4
480.326	10701.66
480.531	10945.37
480.735	10535.78
480.94	10511.2
481.144	10812.25
481.348	10427.23
481.553	10371.94
481.757	10179.43
481.961	10451.81
482.166	10693.47
482.37	10400.61
482.574	10283.88
482.778	10273.64
482.983	10445.66
483.187	10357.6
483.391	10357.6
483.595	10242.92
483.8	10175.33
484.004	10175.33
484.208	10419.04
484.412	10367.84
484.616	10330.98
484.821	10353.51
485.025	10021.74
485.229	10349.41
485.433	10285.92
485.637	10351.46
485.841	10124.13
486.045	10150.76
486.249	10427.23
486.453	10240.87
486.657	10443.62
486.861	10345.31
487.065	10040.17
487.269	10128.23
487.473	10148.71
487.677	10416.99
487.881	10308.45
488.085	9939.82
488.289	10367.84
488.493	10328.93
488.697	10390.37
488.901	10394.47
489.105	10204
489.309	10300.26
489.512	10378.08
489.716	10310.5
489.92	10541.92
490.124	10427.23
490.328	10642.27
490.531	10333.03
490.735	10597.21
490.939	10552.16
491.143	10455.9
491.346	10652.51
491.55	10703.71
491.754	10638.17
491.958	10679.13
492.161	10752.86
492.365	10718.04
492.569	10785.63
492.772	10904.41
492.976	10980.18
493.18	10865.5
493.383	11221.84
493.587	11037.53
493.79	11238.23
493.994	11166.55
494.197	11125.59
494.401	11387.73
494.605	11232.08
494.808	11424.59
495.012	11731.79
495.215	11582.29
495.419	11744.08
495.622	11580.24
495.825	11850.57
496.029	11836.24
496.232	12190.53
496.436	11983.69
496.639	12385.09
496.843	12325.7
497.046	12612.42
497.249	12684.09
497.453	12751.68
497.656	12983.1
497.859	12653.37
498.063	12917.56
498.266	13325.11
498.469	13359.92
498.673	13570.86
498.876	13691.7
499.079	13781.81
499.282	13736.75
499.485	13937.45
499.689	13994.79
499.892	14254.89
500.095	14390.05
500.298	14639.9
500.501	14320.42
500.705	14977.82
500.908	15112.99
501.111	15250.2
501.314	15393.56
501.517	15545.11
501.72	15643.41
501.923	15764.24
502.126	15989.52
502.329	16106.25
502.532	16302.86
502.735	16579.33
502.938	16556.8
503.141	16804.61
503.344	17107.71
503.547	17058.56
503.75	17421.05
503.953	17275.64
504.156	17599.22
504.359	17697.52
504.562	17933.04
504.765	18250.47
504.968	18463.46
505.17	18768.61
505.373	18494.18
505.576	19077.85
505.779	19182.3
505.982	19415.77
506.185	19653.33
506.387	19765.97
506.59	19749.59
506.793	20325.07
506.996	20425.42
507.198	20806.34
507.401	20585.16
507.604	20982.46
507.807	21385.91
508.009	21539.51
508.212	21457.59
508.415	21543.61
508.617	22010.54
508.82	22147.76
509.022	22332.08
509.225	22692.52
509.428	22782.63
509.63	22776.48
509.833	22821.54
510.035	23493.27
510.238	23390.88
510.44	23814.8
510.643	24081.04
510.845	24177.3
511.048	24265.36
511.25	24593.03
511.453	24910.47
511.655	25596.54
511.858	25379.45
512.06	25426.56
512.262	25727.61
512.465	25830.01
512.667	26317.42
512.87	26702.44
513.072	26643.05
513.274	27036.26
513.477	27871.83
513.679	27456.09
513.881	27695.71
514.084	27963.99
514.286	27791.96
514.488	28004.95
514.69	28990.02
514.893	29264.45
515.095	28701.26
515.297	29502.01
515.499	29418.05
515.701	29735.48
515.904	29960.76
516.106	30265.91
516.308	30511.66
516.51	30743.08
516.712	31109.67
516.914	31011.37
517.116	31771.16
517.318	31701.53
517.52	31640.09
517.722	31584.8
517.925	32377.36
518.127	32731.66
518.329	32803.34
518.531	32672.27
518.733	33219.08
518.935	33833.47
519.136	33767.93
519.338	34431.47
519.54	34572.78
519.742	34654.7
519.944	34773.49
520.146	35387.88
520.348	35119.59
520.55	35791.33
520.752	35828.19
520.954	36372.95
521.155	36135.38
521.357	36645.33
521.559	36485.59
521.761	37165.51
521.963	37001.68
522.164	37716.42
522.366	37501.38
522.568	37988.8
522.77	38390.2
522.971	38592.95
523.173	38420.92
523.375	38451.64
523.576	38328.76
523.778	38803.89
523.98	39559.59
524.181	39405.99
524.383	39557.54
524.584	39793.06
524.786	39899.55
524.988	39981.47
525.189	40227.23
525.391	40540.57
525.592	40413.59
525.794	40839.57
525.995	40675.73
526.197	40888.72
526.398	40759.7
526.6	41427.34
526.801	41752.96
527.003	41716.1
527.204	41613.7
527.406	42166.65
527.607	41777.54
527.808	42021.25
528.01	41589.13
528.211	42070.4
528.412	42893.68
528.614	42467.7
528.815	42703.22
529.016	42846.58
529.218	42563.96
529.419	42719.6
529.62	42752.37
529.822	42041.73
530.023	42875.25
530.224	42946.93
530.425	42725.75
530.626	42908.02
530.828	42946.93
531.029	43559.27
531.23	42764.66
531.431	43256.17
531.632	42926.45
531.833	43587.94
532.035	43684.2
532.236	43653.48
532.437	43526.5
532.638	43118.96
532.839	43680.1
533.04	43719.01
533.241	42998.13
533.442	44009.82
533.643	43899.23
533.844	43719.01
534.045	43854.18
534.246	43280.75
534.447	43997.54
534.648	43751.78
534.849	43729.25
535.05	43508.07
535.251	43333.99
535.451	43534.7
535.652	43813.22
535.853	43235.69
536.054	43811.17
536.255	43802.98
536.456	43434.35
536.657	44132.7
536.857	43721.06
537.058	43514.22
537.259	43919.71
537.46	43968.87
537.66	43688.29
537.861	43426.15
538.062	43665.77
538.263	43960.67
538.463	43434.35
538.664	43514.22
538.865	43491.69
539.065	43821.41
539.266	43692.39
539.466	43833.7
539.667	43604.33
539.868	44261.72
540.068	43467.11
540.269	43522.41
540.469	43614.57
540.67	43319.66
540.87	43417.96
541.071	43663.72
541.271	43874.66
541.472	43645.29
541.672	43096.43
541.873	43321.71
542.073	43037.04
542.274	43583.85
542.474	43424.11
542.675	43178.35
542.875	43581.8
543.075	43104.62
543.276	42946.93
543.476	43483.5
543.676	42719.6
543.877	43495.78
544.077	43407.72
544.277	42957.17
544.478	42846.58
544.678	43319.66
544.878	42916.21
545.078	43024.75
545.279	42666.36
545.479	42774.9
545.679	43303.28
545.879	43282.8
546.079	42887.54
546.28	43303.28
546.48	42688.88
546.68	42977.65
546.88	42893.68
547.08	43096.43
547.28	42735.99
547.48	42664.31
547.68	42940.78
547.88	42637.69
548.081	43245.93
548.281	42893.68
548.481	43155.82
548.681	43186.54
548.881	43247.98
549.081	42934.64
549.28	42502.52
549.48	43112.81
549.68	42758.52
549.88	42920.31
550.08	42971.5
550.28	43202.92
550.48	42606.97
550.68	42944.88
550.88	42776.95
551.08	42822
551.279	42779
551.479	42568.05
551.679	42899.83
551.879	42588.53
552.079	42799.47
552.278	42535.29
552.478	42658.17
552.678	42637.69
552.878	43034.99
553.077	42398.07
553.277	42068.35
553.477	42860.91
553.676	42467.7
553.876	42430.84
554.076	42267
554.275	42367.35
554.475	42078.59
554.674	42320.25
554.874	42494.33
555.074	42183.04
555.273	42426.74
555.473	42643.83
555.672	42172.8
555.872	41996.67
556.071	41697.67
556.271	42004.86
556.47	41875.84
556.67	41664.9
556.869	41722.24
557.068	42019.2
557.268	41771.39
557.467	42025.34
557.667	41759.11
557.866	41695.62
558.065	41879.94
558.265	41410.95
558.464	41456.01
558.663	41664.9
558.863	41369.99
559.062	41683.33
559.261	40982.93
559.461	41662.85
559.66	40817.04
559.859	41224.59
560.058	41154.96
560.258	41105.8
560.457	40995.21
560.656	41415.05
560.855	41093.52
561.054	40894.86
561.253	40722.83
561.453	40991.12
561.652	41202.06
561.851	41154.96
562.05	41105.8
562.249	40475.03
562.448	41019.79
562.647	40784.27
562.846	40782.23
563.045	40503.7
563.244	40317.34
563.443	40853.9
563.642	39903.65
563.841	40272.28
564.04	39942.56
564.239	40092.06
564.438	39915.93
564.637	39983.52
564.836	40372.63
565.035	39489.96
565.234	39993.76
565.432	39473.57
565.631	39786.91
565.83	40006.05
566.029	39330.22
566.228	39330.22
566.427	39707.04
566.625	39479.72
566.824	38783.41
567.023	39610.79
567.222	38525.36
567.42	39535.01
567.619	39123.37
567.818	38963.63
568.016	38824.37
568.215	39121.32
568.414	38769.07
568.612	38967.73
568.811	38201.79
569.01	38420.92
569.208	38201.79
569.407	38451.64
569.605	37845.44
569.804	38517.17
570.002	37931.45
570.201	38117.82
570.4	37951.93
570.598	37796.29
570.797	37401.03
570.995	37872.06
571.193	37358.02
571.392	38019.52
571.59	37609.92
571.789	37308.87
571.987	37618.11
572.186	36831.69
572.384	37134.79
572.582	37028.3
572.781	37296.58
572.979	36522.45
573.177	37040.59
573.376	37153.23
573.574	36796.88
573.772	36956.62
573.971	36671.95
574.169	36276.69
574.367	36180.44
574.565	36567.51
574.763	36303.32
574.962	36319.7
575.16	35697.12
575.358	36190.68
575.556	35484.13
575.754	36131.29
575.952	35690.98
576.151	35647.97
576.349	35027.43
576.547	35600.86
576.745	35633.63
576.943	35566.05
577.141	35402.21
577.339	35508.71
577.537	34892.27
577.735	35088.87
577.933	34959.85
578.131	35150.31
578.329	34722.29
578.527	34421.23
578.725	34675.18
578.923	34836.97
579.121	34347.51
579.319	34413.04
579.516	34294.26
579.714	34472.43
579.912	34097.66
580.11	33939.96
580.308	33909.24
580.506	34208.25
580.704	33503.74
580.901	33698.3
581.099	33911.29
581.297	33475.07
581.495	33317.38
581.692	33675.77
581.89	33106.44
582.088	33354.24
582.285	32870.92
582.483	33163.78
582.681	33350.15
582.878	33108.49
583.076	32666.13
583.274	33276.42
583.471	32524.82
583.669	32725.52
583.866	32721.42
584.064	32825.87
584.262	32059.93
584.459	32705.04
584.657	32104.98
584.854	32422.42
585.052	31734.3
585.249	32070.17
585.447	32008.73
585.644	31474.21
585.841	31789.59
586.039	32031.26
586.236	31791.64
586.434	31324.71
586.631	31554.08
586.828	31443.49
587.026	31621.66
587.223	31250.98
587.42	30892.58
587.618	31097.38
587.815	31144.48
588.012	30609.96
588.21	30734.89
588.407	30972.46
588.604	30632.49
588.801	30429.74
588.999	30640.68
589.196	30310.96
589.393	30444.08
589.59	29889.08
589.787	30179.89
589.984	29807.16
590.182	29723.19
590.379	30122.55
590.576	29958.71
590.773	29764.15
590.97	29631.04
591.167	29788.73
591.364	29379.14
591.561	29176.39
591.758	29006.41
591.955	29327.94
592.152	29205.06
592.349	28766.79
592.546	28912.2
592.743	28867.14
592.94	28514.89
593.137	28568.14
593.334	28838.47
593.531	28529.23
593.727	28330.58
593.924	28602.96
594.121	28127.83
594.318	28412.49
594.515	27843.16
594.712	28097.11
594.908	28009.04
595.105	28295.76
595.302	27798.1
595.499	27800.15
595.696	27710.04
595.892	27427.42
596.089	27664.99
596.286	27232.86
596.482	27224.67
596.679	26952.29
596.876	27306.59
597.072	26739.3
597.269	26960.48
597.466	26950.24
597.662	26782.31
597.859	26479.21
598.055	26806.89
598.252	26380.91
598.448	26856.04
598.645	26454.64
598.841	26200.69
599.038	26241.65
599.234	26591.85
599.431	26020.47
599.627	25793.14
599.824	26387.05
600.02	25610.87
600.217	25901.68
600.413	25561.72
600.609	25488
600.806	25461.37
601.002	25660.02
601.198	25389.69
601.395	25168.51
601.591	25305.73
601.787	25291.39
601.984	25203.33
602.18	25549.43
602.376	24906.37
602.572	24765.06
602.769	24892.04
602.965	24654.47
603.161	24986.24
603.357	24332.94
603.553	24390.28
603.75	24570.51
603.946	24107.66
604.142	24423.05
604.338	23777.94
604.534	24230.54
604.73	23841.43
604.926	24099.47
605.122	23927.44
605.318	23792.28
605.514	23747.22
605.71	23489.18
605.906	23356.06
606.102	23593.62
606.298	23505.56
606.494	23503.51
606.69	23546.52
606.886	23409.31
607.082	23130.78
607.278	23300.76
607.474	22973.09
607.67	23382.68
607.866	22772.39
608.062	23370.4
608.257	22676.13
608.453	22713
608.649	23091.87
608.845	22336.17
609.041	22579.88
609.236	22848.16
609.432	22567.59
609.628	22448.81
609.824	22682.28
610.019	22444.71
610.215	22450.86
610.411	22354.6
610.606	22082.22
610.802	22377.13
610.998	22139.57
611.193	22045.36
611.389	21969.58
611.584	22184.62
611.78	21418.68
611.976	21899.95
612.171	22022.83
612.367	21852.85
612.562	22092.46
612.758	21482.17
612.953	21609.14
613.149	21824.18
613.344	21441.21
613.539	21412.54
613.735	21385.91
613.93	21531.32
614.126	21703.35
614.321	21641.91
614.517	21271.23
614.712	21308.09
614.907	21301.95
615.103	21258.94
615.298	21289.66
615.493	21473.98
615.688	20998.85
615.884	21469.88
616.079	20894.4
616.274	21035.71
616.47	20966.08
616.665	20902.59
616.86	20853.44
617.055	20667.08
617.25	20763.33
617.445	20605.64
617.641	20357.83
617.836	20669.12
618.031	20355.79
618.226	20720.32
618.421	20290.25
618.616	20624.07
618.811	19944.14
619.006	20544.2
619.201	19954.38
619.396	20282.06
619.591	19870.42
619.786	20198.09
619.981	19653.33
620.176	19460.82
620.371	19532.5
620.566	19413.72
620.761	19421.91
620.956	19331.8
621.151	19104.48
621.346	19491.54
621.541	19278.55
621.735	19112.67
621.93	18766.56
622.125	18944.73
622.32	18639.59
622.515	18858.72
622.709	18604.77
622.904	18756.32
623.099	18350.82
623.294	18277.1
623.488	18125.55
623.683	18152.17
623.878	17795.82
624.072	18060.01
624.267	17982.19
624.462	17982.19
624.656	17369.85
624.851	17724.15
625.046	17208.06
625.24	17429.24
625.435	17185.53
625.629	16993.02
625.824	17074.94
626.018	17017.6
626.213	16605.95
626.407	16864
626.602	16696.07
626.796	16444.17
626.991	16499.46
627.185	16534.28
627.38	16489.22
627.574	16194.31
627.768	16071.43
627.963	16020.24
628.157	15618.83
628.352	15915.79
628.546	15852.3
628.74	15969.04
628.935	15600.4
629.129	15647.51
629.323	15313.69
629.517	15201.05
629.712	15330.07
629.906	15004.44
630.1	15080.22
630.294	15145.75
630.489	15055.64
630.683	15000.35
630.877	14787.36
631.071	14691.1
631.265	14809.89
631.459	14494.5
631.653	14410.53
631.848	14422.82
632.042	14132.01
632.236	14834.46
632.43	14168.87
632.624	14218.02
632.818	13843.24
633.012	14000.94
633.206	13753.13
633.4	13898.54
633.594	13515.57
633.788	13755.18
633.982	13654.83
634.176	13712.17
634.369	13402.93
634.563	13210.42
634.757	13273.91
634.951	13495.09
635.145	13161.27
635.339	13308.72
635.533	13042.49
635.726	12839.74
635.92	13019.96
636.114	12692.29
636.308	12792.64
636.501	12921.66
636.695	12782.4
636.889	12667.71
637.083	12477.25
637.276	12262.21
637.47	12428.1
637.664	12475.2
637.857	12360.52
638.051	12184.39
638.244	11995.98
638.438	12182.34
638.632	11787.08
638.825	11942.73
639.019	11932.49
639.212	11856.72
639.406	11809.61
639.599	11713.36
639.793	11549.52
639.986	11402.07
640.18	11647.82
640.373	11516.75
640.567	11252.56
640.76	11385.68
640.954	10988.38
641.147	10947.42
641.34	10937.18
641.534	10890.07
641.727	11015
641.92	10959.7
642.114	10910.55
642.307	10744.67
642.5	10828.63
642.694	10670.94
642.887	10533.73
643.08	10693.47
643.273	10767.2
643.467	10556.25
643.66	10300.26
643.853	10390.37
644.046	10296.16
644.239	10204
644.432	10179.43
644.626	10199.91
644.819	10083.17
645.012	9988.97
645.205	9884.52
645.398	9919.34
645.591	9878.38
645.784	9730.92
645.977	9491.31
646.17	9749.36
646.363	9960.3
646.556	9442.16
646.749	9687.92
646.942	9495.41
647.135	9364.34
647.328	9421.68
647.521	9315.19
647.714	9315.19
647.907	9393.01
648.099	9229.17
648.292	9253.75
648.485	9112.44
648.678	9061.24
648.871	9044.85
649.064	8891.26
649.256	8840.06
649.449	8840.06
649.642	8815.48
649.835	8700.8
650.027	8643.45
650.22	8614.78
650.413	8526.72
650.605	8731.51
650.798	8516.48
650.991	8432.51
651.183	8561.53
651.376	8426.37
651.568	8483.71
651.761	8432.51
651.954	8211.33
652.146	8332.16
652.339	8174.47
652.531	8164.23
652.724	8102.79
652.916	7941
653.109	7930.76
653.301	7969.67
653.494	8061.83
653.686	7701.39
653.879	7865.22
654.071	7867.27
654.263	7738.25
654.456	7791.5
654.648	7500.69
654.84	7687.05
655.033	7388.05
655.225	7574.41
655.417	7437.2
655.61	7525.26
655.802	7517.07
655.994	7445.39
656.186	7396.24
656.379	7318.42
656.571	7197.59
656.763	7181.2
656.955	7117.72
657.148	7273.36
657.34	7226.26
657.532	7097.24
657.724	7091.09
657.916	7078.8
658.108	6960.02
658.3	6990.74
658.492	7029.65
658.684	6890.39
658.876	6855.58
659.068	6839.19
659.26	6775.7
659.452	6722.46
659.644	6804.38
659.836	6747.03
660.028	6581.15
660.22	6628.25
660.412	6515.61
660.604	6513.56
660.796	6740.89
660.988	6546.33
661.18	6198.18
661.372	6382.49
661.563	6368.16
661.755	6163.36
661.947	6423.45
662.139	6243.23
662.331	6316.96
662.522	6155.17
662.714	6071.2
662.906	6089.64
663.097	6161.31
663.289	5921.7
663.481	6103.97
663.673	5962.66
663.864	5979.04
664.056	5907.37
664.247	5866.41
664.439	5890.98
664.631	5852.07
664.822	5819.3
665.014	5913.51
665.205	5755.82
665.397	5784.49
665.588	5784.49
665.78	5677.99
665.971	5735.34
666.163	5655.47
666.354	5643.18
666.546	5520.3
666.737	5626.79
666.929	5673.9
667.12	5546.92
667.311	5479.34
667.503	5338.03
667.694	5311.41
667.885	5374.89
668.077	5485.48
668.268	5403.57
668.459	5366.7
668.651	5436.33
668.842	5325.74
669.033	5172.15
669.224	5170.1
669.416	5430.19
669.607	5141.43
669.798	5012.4
669.989	5366.7
670.18	5008.31
670.371	5215.15
670.563	4975.54
670.754	5143.47
670.945	4961.2
671.136	5022.64
671.327	5022.64
671.518	5012.4
671.709	4889.53
671.9	4893.62
672.091	4946.87
672.282	4799.41
672.473	4998.07
672.664	4764.6
672.855	4971.44
673.046	4821.94
673.237	4766.65
673.428	4715.45
673.619	4715.45
673.809	4737.98
674	4586.43
674.191	4717.5
674.382	4678.58
674.573	4725.69
674.764	4619.19
674.954	4717.5
675.145	4570.04
675.336	4500.41
675.527	4565.95
675.717	4494.27
675.908	4561.85
676.099	4725.69
676.289	4584.38
676.48	4529.08
676.671	4479.93
676.861	4510.65
677.052	4348.86
677.243	4428.73
677.433	4496.32
677.624	4332.48
677.814	4520.89
678.005	4400.06
678.195	4307.9
678.386	4436.92
678.576	4295.61
678.767	4318.14
678.957	4178.88
679.148	4295.61
679.338	4246.46
679.529	4301.76
679.719	4252.61
679.909	4293.57
680.1	4064.19
680.29	4230.08
680.481	4250.56
680.671	4305.85
680.861	4158.4
681.052	4176.83
681.242	4004.8
681.432	4064.19
681.622	4109.25
681.813	4133.82
682.003	4064.19
682.193	4117.44
682.383	4113.35
682.573	4039.62
682.764	4170.69
682.954	3943.36
683.144	4146.11
683.334	3867.59
683.524	4010.95
683.714	4019.14
683.904	3986.37
684.094	3908.55
684.284	3990.47
684.474	4068.29
684.664	3949.51
684.854	4033.47
685.044	3875.78
685.234	3824.58
685.424	3859.4
685.614	3687.37
685.804	3945.41
685.994	3726.28
686.184	3937.22
686.374	3797.96
686.564	3732.42
686.753	3726.28
686.943	3781.57
687.133	3687.37
687.323	3697.61
687.513	3820.49
687.702	3611.59
687.892	3689.42
688.082	3652.55
688.272	3707.85
688.461	3730.38
688.651	3607.5
688.841	3478.47
689.03	3648.46
689.22	3584.97
689.41	3541.96
689.599	3587.02
689.789	3470.28
689.979	3554.25
690.168	3560.39
690.358	3474.38
690.547	3349.45
690.737	3447.76
690.926	3462.09
691.116	3417.04
691.305	3318.73
691.495	3478.47
691.684	3451.85
691.874	3392.46
692.063	3347.4
692.252	3314.64
692.442	3257.29
692.631	3212.24
692.82	3136.46
693.01	3251.15
693.199	3222.48
693.388	3251.15
693.578	3206.1
693.767	3232.72
693.956	3306.45
694.146	3091.41
694.335	3238.86
694.524	3183.57
694.713	3224.53
694.902	3189.71
695.092	3222.48
695.281	3122.13
695.47	3134.42
695.659	3105.74
695.848	3060.69
696.037	2954.19
696.226	3027.92
696.415	2962.39
696.604	3265.49
696.793	3034.07
696.982	3079.12
697.171	3204.05
697.36	3032.02
697.549	3099.6
697.738	2962.39
697.927	3134.42
698.116	3038.16
698.305	3046.35
698.494	3009.49
698.683	3046.35
698.872	3075.03
699.061	2921.43
699.25	2946
699.438	3029.97
699.627	2974.67
699.816	3105.74
700.005	2952.15
700.193	2970.58
700.382	2999.25
700.571	3038.16
700.76	3093.46
700.948	2968.53
701.137	2999.25
701.326	3019.73
701.514	3001.3
701.703	2943.96
701.892	2851.8
702.08	3027.92
702.269	2847.7
702.457	2919.38
702.646	2978.77
702.834	2915.28
703.023	2962.39
703.212	2997.2
703.4	2919.38
703.589	2866.13
703.777	2976.72
703.965	2868.18
704.154	3003.35
704.342	2982.87
704.531	2923.48
704.719	2882.52
704.907	3036.11
705.096	2956.24
705.284	2974.67
705.472	2919.38
705.661	2769.88
705.849	2845.65
706.037	3027.92
706.226	2939.86
706.414	2866.13
706.602	2974.67
706.79	2808.79
706.979	2919.38
707.167	2819.03
707.355	2847.7
707.543	2919.38
707.731	2941.91
707.919	2857.94
708.107	2890.71
708.296	2974.67
708.484	2851.8
708.672	2991.06
708.86	2884.56
709.048	3070.93
709.236	2728.92
709.424	2956.24
709.612	2915.28
709.8	2831.32
709.988	2943.96
710.176	2956.24
710.364	2821.08
710.551	2825.17
710.739	2872.28
710.927	2964.43
711.115	2796.5
711.303	2970.58
711.491	2954.19
711.679	2784.21
711.866	2952.15
712.054	2892.76
712.242	2993.11
712.43	2972.63
712.617	2978.77
712.805	2909.14
712.993	2972.63
713.181	2870.23
713.368	2925.52
713.556	2884.56
713.744	2814.93
713.931	2913.24
714.119	2923.48
714.306	2841.56
714.494	2853.84
714.682	2835.41
714.869	2855.89
715.057	2978.77
715.244	2749.4
715.432	2929.62
715.619	2823.12
715.807	2771.93
715.994	2968.53
716.182	2874.32
716.369	2870.23
716.556	2884.56
716.744	2948.05
716.931	2847.7
717.119	2892.76
717.306	2796.5
717.493	2784.21
717.681	2898.9
717.868	2829.27
718.055	2913.24
718.242	2862.04
718.43	2782.17
718.617	2859.99
718.804	2851.8
718.991	2810.84
719.179	2827.22
719.366	2751.45
719.553	2868.18
719.74	2825.17
719.927	2896.85
720.114	2722.77
720.301	2874.32
720.488	2841.56
720.676	2745.3
720.863	2880.47
721.05	2851.8
721.237	2751.45
721.424	2771.93
721.611	2814.93
721.798	2794.45
721.985	2847.7
722.172	2802.65
722.358	2814.93
722.545	2771.93
722.732	2657.24
722.919	2909.14
723.106	2714.58
723.293	2825.17
723.48	2874.32
723.667	2782.17
723.853	2767.83
724.04	2745.3
724.227	2857.94
724.414	2839.51
724.6	2722.77
724.787	2812.89
724.974	2720.73
725.161	2773.97
725.347	2808.79
725.534	2866.13
725.72	2718.68
725.907	2767.83
726.094	2814.93
726.28	2698.2
726.467	2718.68
726.653	2651.1
726.84	2702.29
727.027	2706.39
727.213	2685.91
727.4	2749.4
727.586	2767.83
727.773	2669.53
727.959	2690.01
728.145	2722.77
728.332	2655.19
728.518	2780.12
728.705	2745.3
728.891	2651.1
729.077	2708.44
729.264	2776.02
729.45	2614.23
729.636	2788.31
729.823	2714.58
730.009	2647
730.195	2696.15
730.382	2685.91
730.568	2792.41
730.754	2632.66
730.94	2587.61
731.126	2722.77
731.313	2743.25
731.499	2642.9
731.685	2628.57
731.871	2608.09
732.057	2597.85
732.243	2651.1
732.429	2606.04
732.615	2610.14
732.801	2552.79
732.987	2591.7
733.173	2614.23
733.359	2595.8
733.545	2536.41
733.731	2585.56
733.917	2710.49
734.103	2626.52
734.289	2573.27
734.475	2464.73
734.661	2702.29
734.847	2616.28
735.033	2624.47
735.219	2577.37
735.404	2608.09
735.59	2614.23
735.776	2603.99
735.962	2638.81
736.148	2532.31
736.333	2638.81
736.519	2587.61
736.705	2436.06
736.89	2474.97
737.076	2655.19
737.262	2425.82
737.447	2630.62
737.633	2530.27
737.819	2481.11
738.004	2434.01
738.19	2380.76
738.375	2403.29
738.561	2493.4
738.747	2468.83
738.932	2524.12
739.118	2532.31
739.303	2515.93
739.489	2503.64
739.674	2360.28
739.859	2448.35
740.045	2411.48
740.23	2440.15
740.416	2307.04
740.601	2419.68
740.786	2352.09
740.972	2331.61
741.157	2309.08
741.342	2257.89
741.528	2339.8
741.713	2282.46
741.898	2278.37
742.084	2329.56
742.269	2413.53
742.454	2362.33
742.639	2339.8
742.824	2298.84
743.01	2319.32
743.195	2362.33
743.38	2298.84
743.565	2229.21
743.75	2278.37
743.935	2274.27
744.12	2204.64
744.305	2141.15
744.49	2196.45
744.675	2259.93
744.86	2063.33
745.045	2147.3
745.23	2180.06
745.415	2231.26
745.6	2087.9
745.785	2210.78
745.97	2034.66
746.155	2184.16
746.34	2165.73
746.525	2073.57
746.71	2073.57
746.895	2057.18
747.079	1969.12
747.264	1989.6
747.449	2016.23
747.634	2034.66
747.819	1977.31
748.003	1967.07
748.188	1917.92
748.373	1907.68
748.557	1790.95
748.742	2022.37
748.927	2003.94
749.111	1856.48
749.296	1889.25
749.481	1909.73
749.665	1946.59
749.85	1836
750.034	1795.04
750.219	1825.76
750.404	1928.16
750.588	1819.62
750.773	1840.1
750.957	1889.25
751.141	1840.1
751.326	1715.17
751.51	1737.7
751.695	1752.04
751.879	1655.78
752.064	1577.96
752.248	1661.93
752.432	1719.27
752.617	1696.74
752.801	1647.59
752.985	1680.36
753.17	1713.13
753.354	1643.49
753.538	1674.21
753.722	1573.86
753.907	1688.55
754.091	1618.92
754.275	1453.03
754.459	1565.67
754.643	1502.19
754.828	1623.02
755.012	1534.95
755.196	1522.66
755.38	1412.07
755.564	1516.52
755.748	1473.51
755.932	1555.43
756.116	1520.62
756.3	1475.56
756.484	1352.68
756.668	1485.8
756.852	1455.08
757.036	1428.46
757.22	1403.88
757.404	1483.75
757.588	1399.79
757.772	1455.08
757.956	1461.23
758.14	1356.78
758.323	1348.59
758.507	1346.54
758.691	1375.21
758.875	1336.3
759.059	1367.02
759.242	1151.98
759.426	1393.64
759.61	1201.13
759.794	1252.33
759.977	1340.4
760.161	1324.01
760.345	1233.9
760.528	1217.52
760.712	1283.05
760.895	1197.04
761.079	1246.19
761.263	1201.13
761.446	1141.74
761.63	1096.69
761.813	1264.62
761.997	1289.2
762.18	1194.99
762.364	1201.13
762.547	1158.13
762.731	1194.99
762.914	1154.03
763.098	1035.25
763.281	1137.65
763.464	1192.94
763.648	1143.79
763.831	1176.56
764.015	1166.32
764.198	1092.59
764.381	1180.65
764.564	1217.52
764.748	1129.45
764.931	1129.45
765.114	1045.49
765.297	1115.12
765.481	1006.58
765.664	1156.08
765.847	969.71
766.03	1094.64
766.213	1096.69
766.397	1096.69
766.58	1033.2
766.763	1065.97
766.946	1108.98
767.129	1055.73
767.312	1018.86
767.495	963.57
767.678	984.05
767.861	1051.63
768.044	963.57
768.227	1049.58
768.41	984.05
768.593	1070.06
768.776	1047.54
768.959	1010.67
769.142	1020.91
769.324	965.62
769.507	912.37
769.69	1018.86
769.873	945.14
770.056	1025.01
770.239	936.95
770.421	1051.63
770.604	977.91
770.787	973.81
770.97	883.7
771.152	943.09
771.335	1008.62
771.518	895.99
771.7	984.05
771.883	918.51
772.066	891.89
772.248	910.32
772.431	984.05
772.613	918.51
772.796	857.07
772.978	885.75
773.161	955.38
773.343	898.03
773.526	836.6
773.708	859.12
773.891	840.69
774.073	865.27
774.256	879.6
774.438	818.16
774.621	855.03
774.803	809.97
774.985	807.92
775.168	793.59
775.35	717.81
775.532	748.53
775.715	838.64
775.897	801.78
776.079	775.16
776.261	764.92
776.444	717.81
776.626	732.15
776.808	791.54
776.99	711.67
777.173	771.06
777.355	728.05
777.537	789.49
777.719	723.96
777.901	721.91
778.083	723.96
778.265	713.72
778.447	693.24
778.629	691.19
778.811	644.09
778.993	683
779.175	680.95
779.357	687.09
779.539	685.05
779.721	715.77
779.903	672.76
780.085	637.94
780.267	654.33
780.449	672.76
780.631	676.85
780.812	637.94
780.994	586.74
781.176	642.04
781.358	529.4
781.54	617.46
781.721	621.56
781.903	637.94
782.085	562.17
782.267	621.56
782.448	539.64
782.63	642.04
782.812	586.74
782.993	539.64
783.175	648.18
783.357	523.26
783.538	549.88
783.72	603.13
783.901	607.22
784.083	668.66
784.264	513.02
784.446	390.14
784.627	484.34
784.809	504.82
784.99	639.99
785.172	513.02
785.353	470.01
785.535	502.78
785.716	480.25
785.897	508.92
786.079	463.86
786.26	508.92
786.441	531.45
786.623	539.64
786.804	500.73
786.985	451.58
787.167	461.82
787.348	400.38
787.529	437.24
787.71	519.16
787.891	410.62
788.073	435.19
788.254	398.33
788.435	486.39
788.616	500.73
788.797	400.38
788.978	470.01
789.159	377.85
789.34	521.21
789.522	435.19
789.703	375.8
789.884	422.91
790.065	476.15
790.246	371.71
790.427	441.34
790.607	447.48
790.788	435.19
790.969	418.81
791.15	359.42
791.331	386.04
791.512	441.34
791.693	381.95
791.874	316.41
792.054	408.57
792.235	400.38
792.416	363.51
792.597	334.84
792.778	392.19
792.958	373.75
793.139	396.28
793.32	330.75
793.5	367.61
793.681	367.61
793.862	322.56
794.042	328.7
794.223	343.03
794.404	324.6
794.584	322.56
794.765	314.36
794.945	322.56
795.126	302.08
795.306	414.71
795.487	308.22
795.667	404.47
795.848	400.38
796.028	330.75
796.209	285.69
796.389	257.02
796.57	343.03
796.75	355.32
796.93	263.16
797.111	312.32
797.291	267.26
797.471	390.14
797.652	283.64
797.832	263.16
798.012	308.22
798.192	312.32
798.373	281.6
798.553	336.89
798.733	318.46
798.913	316.41
799.093	252.92
799.274	300.03
799.454	287.74
799.634	250.88
799.814	254.97
799.994	216.06
800.174	271.36
800.354	234.49
800.534	226.3
800.714	340.99
800.894	291.84
801.074	224.25
801.254	291.84
801.434	283.64
801.614	277.5
801.794	295.93
801.974	599.03
802.154	195.58
802.334	209.92
802.514	183.29
802.693	269.31
802.873	224.25
803.053	216.06
803.233	242.68
803.413	279.55
803.592	265.21
803.772	248.83
803.952	285.69
804.131	177.15
804.311	300.03
804.491	160.77
804.67	257.02
804.85	236.54
805.03	244.73
805.209	273.4
805.389	244.73
805.568	140.29
805.748	265.21
805.928	273.4
806.107	261.12
806.287	201.72
806.466	277.5
806.646	240.64
806.825	218.11
807.004	195.58
807.184	181.25
807.363	304.12
807.543	191.49
807.722	197.63
807.901	236.54
808.081	201.72
808.26	121.85
808.439	211.96
808.619	197.63
808.798	207.87
808.977	226.3
809.156	222.2
809.336	218.11
809.515	214.01
809.694	123.9
809.873	228.35
810.052	179.2
810.231	177.15
810.411	177.15
810.59	289.79
810.769	166.91
810.948	195.58
811.127	89.09
811.306	214.01
811.485	171.01
811.664	166.91
811.843	168.96
812.022	173.05
812.201	130.05
812.38	171.01
812.559	224.25
812.737	162.81
812.916	154.62
813.095	214.01
813.274	136.19
813.453	218.11
813.632	136.19
813.811	209.92
813.989	193.53
814.168	197.63
814.347	173.05
814.526	226.3
814.704	216.06
814.883	205.82
815.062	89.09
815.24	175.1
815.419	119.81
815.598	144.38
815.776	130.05
815.955	164.86
816.133	150.53
816.312	132.09
816.49	171.01
816.669	107.52
816.847	205.82
817.026	113.66
817.204	115.71
817.383	152.57
817.561	195.58
817.74	128
817.918	101.37
818.097	148.48
818.275	109.57
818.453	138.24
818.632	173.05
818.81	171.01
818.988	140.29
819.167	140.29
819.345	160.77
819.523	105.47
819.701	152.57
819.879	136.19
820.058	68.61
820.236	107.52
820.414	201.72
820.592	93.18
820.77	142.33
820.948	132.09
821.127	109.57
821.305	177.15
821.483	201.72
821.661	70.65
821.839	160.77
822.017	173.05
822.195	68.61
822.373	179.2
822.551	46.08
822.729	189.44
822.907	179.2
823.085	148.48
823.262	62.46
823.44	80.89
823.618	72.7
823.796	87.04
823.974	142.33
824.152	113.66
824.329	74.75
824.507	171.01
824.685	107.52
824.863	89.09
825.04	115.71
825.218	68.61
825.396	136.19
825.574	134.14
825.751	144.38
825.929	152.57
826.107	58.37
826.284	101.37
826.462	132.09
826.639	91.13
826.817	97.28
826.994	152.57
827.172	142.33
827.349	117.76
827.527	46.08
827.704	87.04
827.882	146.43
828.059	56.32
828.237	31.74
828.414	160.77
828.591	117.76
828.769	154.62
828.946	56.32
829.124	107.52
829.301	121.85
829.478	87.04
829.655	84.99
829.833	105.47
830.01	54.27
830.187	41.98
830.364	148.48
830.542	152.57
830.719	105.47
830.896	84.99
831.073	91.13
831.25	74.75
831.427	89.09
831.604	72.7
831.782	66.56
831.959	113.66
832.136	31.74
832.313	17.41
832.49	58.37
832.667	99.33
832.844	66.56
833.021	87.04
833.198	82.94
833.374	105.47
833.551	52.22
833.728	48.13
833.905	82.94
834.082	31.74
834.259	91.13
834.436	97.28
834.612	130.05
834.789	103.42
834.966	52.22
835.143	70.65
835.319	23.55
835.496	134.14
835.673	107.52
835.85	115.71
836.026	115.71
836.203	87.04
836.38	119.81
836.556	62.46
836.733	78.85
836.909	101.37
837.086	64.51
837.262	78.85
837.439	84.99
837.616	76.8
837.792	48.13
837.968	72.7
838.145	107.52
838.321	76.8
838.498	62.46
838.674	134.14
838.851	121.85
839.027	109.57
839.203	9.22
839.38	162.81
839.556	35.84
839.732	78.85
839.909	-29.7
840.085	156.67
840.261	-13.31
840.437	99.33
840.614	189.44
840.79	136.19
840.966	68.61
841.142	58.37
841.318	1.02
841.494	74.75
841.671	-3.07
841.847	31.74
842.023	31.74
842.199	142.33
842.375	115.71
842.551	89.09
842.727	48.13
842.903	136.19
843.079	101.37
843.255	54.27
843.431	52.22
843.607	72.7
843.783	7.17
843.959	93.18
844.134	123.9
844.31	37.89
844.486	37.89
844.662	46.08
844.838	48.13
845.013	164.86
845.189	82.94
845.365	107.52
845.541	78.85
845.716	54.27
845.892	68.61
846.068	89.09
846.244	-11.26
846.419	3.07
846.595	41.98
846.77	39.94
846.946	115.71
847.122	50.18
847.297	84.99
847.473	130.05
847.648	76.8
847.824	103.42
847.999	41.98
848.175	78.85
848.35	111.61
848.526	37.89
848.701	74.75
848.876	62.46
849.052	-3.07
849.227	23.55
849.403	60.42
849.578	44.03
849.753	41.98
849.929	76.8
850.104	54.27
850.279	140.29
850.454	58.37
850.63	76.8
850.805	76.8
850.98	87.04
851.155	50.18
851.33	-9.22
851.505	-11.26
851.681	80.89
851.856	48.13
852.031	160.77
852.206	80.89
852.381	66.56
852.556	-41.98
852.731	72.7
852.906	115.71
853.081	11.26
853.256	50.18
853.431	44.03
853.606	13.31
853.781	-3.07
853.956	-5.12
854.131	64.51
854.305	31.74
854.48	91.13
854.655	1.02
854.83	21.5
855.005	-7.17
855.18	9.22
855.354	27.65
855.529	27.65
855.704	52.22
855.879	41.98
856.053	89.09
856.228	78.85
856.403	-29.7
856.577	11.26
856.752	33.79
856.926	95.23
857.101	99.33
857.276	1.02
857.45	-58.37
857.625	130.05
857.799	41.98
857.974	-1.02
858.148	52.22
858.323	29.7
858.497	48.13
858.672	84.99
858.846	19.46
859.02	1.02
859.195	-33.79
859.369	-1.02
859.543	21.5
859.718	62.46
859.892	27.65
860.066	-7.17
860.241	-1.02
860.415	-1.02
860.589	-7.17
860.763	19.46
860.938	68.61
861.112	25.6
861.286	37.89
861.46	66.56
861.634	-7.17
861.808	-17.41
861.982	3.07
862.157	29.7
862.331	7.17
862.505	-25.6
862.679	7.17
862.853	52.22
863.027	48.13
863.201	150.53
863.375	-46.08
863.549	37.89
863.722	13.31
863.896	21.5
864.07	29.7
864.244	39.94
864.418	82.94
864.592	66.56
864.766	-11.26
864.939	68.61
865.113	-56.32
865.287	27.65
865.461	54.27
865.634	-23.55
865.808	44.03
865.982	39.94
866.156	-33.79
866.329	35.84
866.503	44.03
866.676	46.08
866.85	-7.17
867.024	50.18
867.197	82.94
867.371	23.55
867.544	-35.84
867.718	17.41
867.891	41.98
868.065	-21.5
868.238	60.42
868.412	52.22
868.585	-19.46
868.759	-13.31
868.932	19.46
869.105	74.75
869.279	19.46
869.452	39.94
869.625	-66.56
869.799	35.84
869.972	-15.36
870.145	19.46
870.319	41.98
870.492	31.74
870.665	46.08
870.838	58.37
871.011	-23.55
871.185	78.85
871.358	68.61
871.531	25.6
871.704	1.02
871.877	44.03
872.05	31.74
872.223	-5.12
872.396	58.37
872.569	-5.12
872.742	-7.17
872.915	-62.46
873.088	56.32
873.261	19.46
873.434	9.22
873.607	-74.75
873.78	37.89
873.953	-39.94
874.126	-19.46
874.299	-3.07
874.471	39.94
874.644	-17.41
874.817	-7.17
874.99	44.03
875.163	-58.37
875.335	82.94
875.508	9.22
875.681	-37.89
875.853	46.08
876.026	48.13
876.199	41.98
876.371	31.74
876.544	-27.65
876.717	13.31
876.889	27.65
877.062	-46.08
877.234	9.22
877.407	23.55
877.579	11.26
877.752	13.31
877.924	1.02
878.097	-1.02
878.269	-21.5
878.442	-11.26
878.614	-13.31
878.786	72.7
878.959	35.84
879.131	23.55
879.303	-35.84
879.476	89.09
879.648	46.08
879.82	48.13
879.993	-17.41
880.165	-46.08
880.337	46.08
880.509	33.79
880.681	3.07
880.854	-21.5
881.026	41.98
881.198	103.42
881.37	-21.5
881.542	52.22
881.714	-39.94
881.886	-44.03
882.058	17.41
882.23	82.94
882.402	-29.7
882.574	-9.22
882.746	21.5
882.918	33.79
883.09	48.13
883.262	46.08
883.434	56.32
883.606	-25.6
883.778	19.46
883.95	52.22
884.122	37.89
884.293	-13.31
884.465	-3.07
884.637	33.79
884.809	3.07
884.98	68.61
885.152	-5.12
885.324	25.6
885.496	21.5
885.667	-1.02
885.839	35.84
886.011	23.55
886.182	37.89
886.354	82.94
886.525	-56.32
886.697	46.08
886.869	15.36
887.04	-17.41
887.212	35.84
887.383	-5.12
887.555	48.13
887.726	21.5
887.897	13.31
888.069	-21.5
888.24	-39.94
888.412	-31.74
888.583	13.31
888.754	3.07
888.926	-15.36
889.097	-5.12
889.268	70.65
889.44	74.75
889.611	-9.22
889.782	76.8
889.953	17.41
890.125	41.98
890.296	-11.26
890.467	9.22
890.638	-5.12
890.809	3.07
890.98	19.46
891.151	64.51
891.323	52.22
891.494	84.99
891.665	13.31
891.836	-19.46
892.007	76.8
892.178	-31.74
892.349	-37.89
892.52	60.42
892.691	11.26
892.862	1.02
893.032	121.85
893.203	-9.22
893.374	60.42
893.545	15.36
893.716	-7.17
893.887	68.61
894.057	-7.17
894.228	54.27
894.399	52.22
894.57	58.37
894.74	5.12
894.911	82.94
895.082	33.79
895.253	27.65
895.423	-21.5
895.594	35.84
895.764	44.03
895.935	41.98
896.106	1.02
896.276	-5.12
896.447	23.55
896.617	17.41
896.788	-1.02
896.958	3.07
897.129	-11.26
897.299	-50.18
897.47	66.56
897.64	25.6
897.81	-15.36
897.981	29.7
898.151	11.26
898.322	-64.51
898.492	23.55
898.662	1.02
898.832	27.65
899.003	52.22
899.173	-54.27
899.343	37.89
899.513	-33.79
