Data from USB4F104151__96__12-02-40-123.txt Node

Date: Fri Mar 14 12:02:40 EDT 2025
User: louis
Spectrometer: USB4F10415
Trigger mode: 4
Integration Time (sec): 2.000000E-2
Scans to average: 1
Electric dark correction enabled: true
Nonlinearity correction enabled: false
Boxcar width: 0
XAxis mode: Wavelengths
Number of Pixels in Spectrum: 3648
>>>>>Begin Spectral Data<<<<<
178.204	-97.79
178.424	-97.79
178.644	-97.79
178.864	-75.26
179.084	-56.83
179.304	-28.16
179.524	-77.31
179.744	-28.16
179.964	61.95
180.184	70.14
180.404	6.66
180.624	29.18
180.844	37.38
181.064	-26.11
181.283	2.56
181.503	-81.41
181.723	33.28
181.943	47.62
182.163	72.19
182.383	10.75
182.602	64
182.822	115.2
183.042	68.09
183.262	6.66
183.482	-7.68
183.701	2.56
183.921	64
184.141	-34.3
184.361	53.76
184.58	25.09
184.8	29.18
185.02	59.9
185.239	104.96
185.459	43.52
185.679	12.8
185.898	74.24
186.118	61.95
186.338	-11.78
186.557	80.38
186.777	43.52
186.997	37.38
187.216	68.09
187.436	96.77
187.655	-28.16
187.875	100.86
188.095	-11.78
188.314	25.09
188.534	53.76
188.753	29.18
188.973	-60.93
189.192	41.47
189.412	18.94
189.631	66.05
189.851	53.76
190.07	27.14
190.29	-19.97
190.509	33.28
190.729	33.28
190.948	31.23
191.168	113.15
191.387	35.33
191.607	2.56
191.826	45.57
192.045	10.75
192.265	61.95
192.484	-67.07
192.704	59.9
192.923	-24.06
193.142	78.33
193.362	25.09
193.581	102.91
193.8	80.38
194.02	64
194.239	-62.98
194.458	18.94
194.678	41.47
194.897	6.66
195.116	39.42
195.335	31.23
195.555	39.42
195.774	-9.73
195.993	2.56
196.212	16.9
196.432	0.51
196.651	-28.16
196.87	72.19
197.089	76.29
197.308	51.71
197.528	27.14
197.747	29.18
197.966	-9.73
198.185	59.9
198.404	-26.11
198.623	10.75
198.842	16.9
199.062	47.62
199.281	113.15
199.5	29.18
199.719	37.38
199.938	82.43
200.157	33.28
200.376	86.53
200.595	57.86
200.814	29.18
201.033	-5.63
201.252	57.86
201.471	-3.58
201.69	70.14
201.909	113.15
202.128	70.14
202.347	25.09
202.566	29.18
202.785	10.75
203.004	2.56
203.223	47.62
203.442	2.56
203.661	25.09
203.879	25.09
204.098	47.62
204.317	-17.92
204.536	35.33
204.755	82.43
204.974	41.47
205.193	20.99
205.411	18.94
205.63	45.57
205.849	74.24
206.068	14.85
206.287	29.18
206.505	35.33
206.724	37.38
206.943	35.33
207.162	-17.92
207.381	39.42
207.599	10.75
207.818	-19.97
208.037	68.09
208.255	-22.02
208.474	51.71
208.693	25.09
208.911	6.66
209.13	31.23
209.349	-26.11
209.567	100.86
209.786	31.23
210.005	68.09
210.223	51.71
210.442	35.33
210.661	10.75
210.879	12.8
211.098	80.38
211.316	55.81
211.535	0.51
211.753	31.23
211.972	25.09
212.191	8.7
212.409	51.71
212.628	80.38
212.846	86.53
213.065	47.62
213.283	57.86
213.502	51.71
213.72	-15.87
213.938	111.1
214.157	23.04
214.375	76.29
214.594	41.47
214.812	29.18
215.031	12.8
215.249	82.43
215.467	27.14
215.686	43.52
215.904	6.66
216.122	123.39
216.341	119.29
216.559	12.8
216.778	57.86
216.996	102.91
217.214	-9.73
217.432	53.76
217.651	14.85
217.869	92.67
218.087	66.05
218.306	47.62
218.524	31.23
218.742	55.81
218.96	29.18
219.179	-13.82
219.397	-1.54
219.615	57.86
219.833	72.19
220.051	-19.97
220.27	6.66
220.488	68.09
220.706	16.9
220.924	-44.54
221.142	100.86
221.36	-3.58
221.578	123.39
221.796	74.24
222.015	104.96
222.233	33.28
222.451	43.52
222.669	4.61
222.887	37.38
223.105	6.66
223.323	45.57
223.541	-44.54
223.759	37.38
223.977	49.66
224.195	6.66
224.413	59.9
224.631	43.52
224.849	-22.02
225.067	55.81
225.285	64
225.503	41.47
225.721	45.57
225.939	29.18
226.157	6.66
226.375	109.05
226.592	14.85
226.81	41.47
227.028	37.38
227.246	96.77
227.464	41.47
227.682	41.47
227.9	-50.69
228.117	33.28
228.335	6.66
228.553	-9.73
228.771	4.61
228.989	2.56
229.206	78.33
229.424	-17.92
229.642	-30.21
229.86	-30.21
230.077	51.71
230.295	61.95
230.513	12.8
230.731	51.71
230.948	78.33
231.166	-1.54
231.384	45.57
231.601	8.7
231.819	90.62
232.037	57.86
232.254	29.18
232.472	25.09
232.689	39.42
232.907	70.14
233.125	2.56
233.342	16.9
233.56	74.24
233.777	49.66
233.995	43.52
234.213	47.62
234.43	35.33
234.648	33.28
234.865	31.23
235.083	10.75
235.3	33.28
235.518	72.19
235.735	51.71
235.953	16.9
236.17	43.52
236.388	39.42
236.605	-30.21
236.822	80.38
237.04	0.51
237.257	74.24
237.475	6.66
237.692	84.48
237.909	18.94
238.127	29.18
238.344	-19.97
238.562	76.29
238.779	27.14
238.996	6.66
239.214	64
239.431	55.81
239.648	-13.82
239.865	70.14
240.083	8.7
240.3	14.85
240.517	27.14
240.735	100.86
240.952	53.76
241.169	43.52
241.386	74.24
241.603	47.62
241.821	-50.69
242.038	41.47
242.255	-19.97
242.472	61.95
242.689	70.14
242.907	37.38
243.124	14.85
243.341	45.57
243.558	33.28
243.775	10.75
243.992	59.9
244.209	25.09
244.426	96.77
244.643	64
244.86	10.75
245.078	27.14
245.295	158.21
245.512	51.71
245.729	39.42
245.946	41.47
246.163	0.51
246.38	4.61
246.597	31.23
246.814	39.42
247.031	43.52
247.248	78.33
247.464	25.09
247.681	72.19
247.898	-11.78
248.115	37.38
248.332	29.18
248.549	57.86
248.766	8.7
248.983	12.8
249.2	96.77
249.417	-17.92
249.633	-17.92
249.85	35.33
250.067	16.9
250.284	-1.54
250.501	47.62
250.717	55.81
250.934	2.56
251.151	18.94
251.368	31.23
251.585	8.7
251.801	35.33
252.018	57.86
252.235	45.57
252.451	66.05
252.668	-34.3
252.885	55.81
253.102	39.42
253.318	6.66
253.535	-3.58
253.752	-17.92
253.968	29.18
254.185	25.09
254.401	64
254.618	70.14
254.835	33.28
255.051	18.94
255.268	-7.68
255.484	94.72
255.701	20.99
255.917	18.94
256.134	-7.68
256.351	-67.07
256.567	72.19
256.784	51.71
257	16.9
257.217	78.33
257.433	39.42
257.65	29.18
257.866	64
258.082	-44.54
258.299	37.38
258.515	113.15
258.732	53.76
258.948	0.51
259.165	-1.54
259.381	-11.78
259.597	-5.63
259.814	74.24
260.03	41.47
260.246	41.47
260.463	80.38
260.679	41.47
260.895	59.9
261.112	55.81
261.328	-38.4
261.544	14.85
261.761	55.81
261.977	-30.21
262.193	20.99
262.409	51.71
262.626	14.85
262.842	39.42
263.058	-54.78
263.274	6.66
263.49	0.51
263.707	37.38
263.923	33.28
264.139	94.72
264.355	27.14
264.571	53.76
264.787	37.38
265.004	39.42
265.22	29.18
265.436	-28.16
265.652	-3.58
265.868	66.05
266.084	49.66
266.3	31.23
266.516	27.14
266.732	80.38
266.948	-34.3
267.164	107.01
267.38	16.9
267.596	72.19
267.812	109.05
268.028	61.95
268.244	51.71
268.46	14.85
268.676	66.05
268.892	53.76
269.108	16.9
269.324	4.61
269.54	-7.68
269.756	35.33
269.972	53.76
270.188	14.85
270.403	4.61
270.619	131.58
270.835	109.05
271.051	45.57
271.267	14.85
271.483	82.43
271.698	-44.54
271.914	72.19
272.13	10.75
272.346	-32.26
272.562	35.33
272.777	76.29
272.993	16.9
273.209	57.86
273.425	49.66
273.64	20.99
273.856	57.86
274.072	51.71
274.287	55.81
274.503	12.8
274.719	55.81
274.934	88.57
275.15	66.05
275.366	190.97
275.581	29.18
275.797	4.61
276.012	78.33
276.228	82.43
276.444	0.51
276.659	35.33
276.875	-30.21
277.09	51.71
277.306	27.14
277.521	41.47
277.737	27.14
277.952	68.09
278.168	78.33
278.383	-34.3
278.599	55.81
278.814	14.85
279.03	12.8
279.245	25.09
279.461	20.99
279.676	14.85
279.892	-22.02
280.107	64
280.322	16.9
280.538	-19.97
280.753	-30.21
280.969	10.75
281.184	6.66
281.399	66.05
281.615	55.81
281.83	66.05
282.045	23.04
282.26	-24.06
282.476	49.66
282.691	29.18
282.906	-7.68
283.122	6.66
283.337	10.75
283.552	127.49
283.767	-38.4
283.983	115.2
284.198	12.8
284.413	12.8
284.628	47.62
284.843	88.57
285.058	92.67
285.274	55.81
285.489	-32.26
285.704	88.57
285.919	-22.02
286.134	64
286.349	74.24
286.564	47.62
286.779	35.33
286.995	-15.87
287.21	76.29
287.425	23.04
287.64	31.23
287.855	80.38
288.07	10.75
288.285	51.71
288.5	37.38
288.715	-5.63
288.93	39.42
289.145	59.9
289.36	64
289.575	47.62
289.79	51.71
290.004	37.38
290.219	47.62
290.434	18.94
290.649	55.81
290.864	41.47
291.079	-50.69
291.294	76.29
291.509	41.47
291.724	113.15
291.938	27.14
292.153	59.9
292.368	33.28
292.583	100.86
292.798	16.9
293.012	20.99
293.227	49.66
293.442	70.14
293.657	59.9
293.871	145.92
294.086	39.42
294.301	131.58
294.516	20.99
294.73	88.57
294.945	43.52
295.16	-19.97
295.374	6.66
295.589	150.01
295.804	37.38
296.018	74.24
296.233	14.85
296.447	23.04
296.662	-17.92
296.877	33.28
297.091	57.86
297.306	66.05
297.52	18.94
297.735	84.48
297.949	109.05
298.164	76.29
298.378	10.75
298.593	41.47
298.807	2.56
299.022	-36.35
299.236	98.81
299.451	37.38
299.665	51.71
299.88	20.99
300.094	10.75
300.309	49.66
300.523	80.38
300.737	-3.58
300.952	35.33
301.166	39.42
301.381	94.72
301.595	70.14
301.809	78.33
302.024	6.66
302.238	43.52
302.452	47.62
302.667	16.9
302.881	8.7
303.095	172.54
303.309	47.62
303.524	37.38
303.738	-19.97
303.952	-60.93
304.166	94.72
304.381	18.94
304.595	51.71
304.809	29.18
305.023	4.61
305.237	39.42
305.452	59.9
305.666	59.9
305.88	90.62
306.094	25.09
306.308	76.29
306.522	12.8
306.736	45.57
306.95	41.47
307.164	53.76
307.379	-1.54
307.593	43.52
307.807	25.09
308.021	33.28
308.235	35.33
308.449	74.24
308.663	27.14
308.877	53.76
309.091	31.23
309.305	25.09
309.519	8.7
309.733	29.18
309.947	8.7
310.161	57.86
310.374	39.42
310.588	23.04
310.802	14.85
311.016	0.51
311.23	-17.92
311.444	25.09
311.658	6.66
311.872	-7.68
312.085	123.39
312.299	-32.26
312.513	31.23
312.727	43.52
312.941	8.7
313.154	20.99
313.368	-26.11
313.582	29.18
313.796	45.57
314.009	0.51
314.223	74.24
314.437	66.05
314.651	-17.92
314.864	80.38
315.078	29.18
315.292	49.66
315.505	23.04
315.719	68.09
315.933	109.05
316.146	41.47
316.36	-58.88
316.573	96.77
316.787	94.72
317.001	25.09
317.214	-50.69
317.428	-30.21
317.641	-7.68
317.855	33.28
318.068	76.29
318.282	-32.26
318.495	111.1
318.709	14.85
318.922	76.29
319.136	55.81
319.349	49.66
319.563	-7.68
319.776	51.71
319.99	-9.73
320.203	109.05
320.417	25.09
320.63	45.57
320.843	76.29
321.057	2.56
321.27	14.85
321.483	23.04
321.697	53.76
321.91	72.19
322.124	107.01
322.337	76.29
322.55	29.18
322.763	-44.54
322.977	47.62
323.19	25.09
323.403	96.77
323.617	61.95
323.83	33.28
324.043	35.33
324.256	61.95
324.469	55.81
324.683	61.95
324.896	-15.87
325.109	35.33
325.322	-75.26
325.535	23.04
325.748	100.86
325.962	39.42
326.175	43.52
326.388	2.56
326.601	25.09
326.814	16.9
327.027	98.81
327.24	129.53
327.453	-9.73
327.666	4.61
327.879	57.86
328.092	121.34
328.305	8.7
328.518	51.71
328.731	-17.92
328.944	35.33
329.157	57.86
329.37	20.99
329.583	33.28
329.796	104.96
330.009	-22.02
330.222	70.14
330.435	37.38
330.648	94.72
330.861	6.66
331.073	-7.68
331.286	84.48
331.499	20.99
331.712	-34.3
331.925	78.33
332.138	47.62
332.35	68.09
332.563	45.57
332.776	35.33
332.989	33.28
333.202	16.9
333.414	-30.21
333.627	29.18
333.84	41.47
334.053	-9.73
334.265	72.19
334.478	49.66
334.691	0.51
334.903	80.38
335.116	-34.3
335.329	55.81
335.541	31.23
335.754	-3.58
335.966	-38.4
336.179	92.67
336.392	57.86
336.604	-22.02
336.817	84.48
337.029	66.05
337.242	123.39
337.454	12.8
337.667	53.76
337.88	27.14
338.092	59.9
338.305	39.42
338.517	27.14
338.729	92.67
338.942	4.61
339.154	4.61
339.367	35.33
339.579	20.99
339.792	-7.68
340.004	0.51
340.217	35.33
340.429	4.61
340.641	78.33
340.854	37.38
341.066	-34.3
341.278	39.42
341.491	129.53
341.703	64
341.915	-7.68
342.128	74.24
342.34	61.95
342.552	0.51
342.764	14.85
342.977	43.52
343.189	20.99
343.401	37.38
343.613	68.09
343.826	45.57
344.038	27.14
344.25	109.05
344.462	-34.3
344.674	29.18
344.886	55.81
345.099	51.71
345.311	25.09
345.523	37.38
345.735	27.14
345.947	92.67
346.159	20.99
346.371	57.86
346.583	82.43
346.795	174.59
347.007	64
347.219	41.47
347.431	82.43
347.643	2.56
347.855	27.14
348.067	39.42
348.279	61.95
348.491	25.09
348.703	-13.82
348.915	88.57
349.127	0.51
349.339	-11.78
349.551	14.85
349.763	41.47
349.975	-7.68
350.187	51.71
350.399	115.2
350.61	107.01
350.822	92.67
351.034	45.57
351.246	20.99
351.458	0.51
351.669	45.57
351.881	92.67
352.093	53.76
352.305	14.85
352.517	92.67
352.728	98.81
352.94	70.14
353.152	-19.97
353.363	25.09
353.575	49.66
353.787	100.86
353.999	2.56
354.21	35.33
354.422	18.94
354.633	37.38
354.845	41.47
355.057	64
355.268	37.38
355.48	-3.58
355.692	47.62
355.903	82.43
356.115	100.86
356.326	16.9
356.538	78.33
356.749	55.81
356.961	154.11
357.172	70.14
357.384	31.23
357.595	72.19
357.807	59.9
358.018	8.7
358.23	29.18
358.441	74.24
358.653	37.38
358.864	84.48
359.075	39.42
359.287	25.09
359.498	84.48
359.709	25.09
359.921	82.43
360.132	18.94
360.344	55.81
360.555	25.09
360.766	86.53
360.977	27.14
361.189	18.94
361.4	6.66
361.611	72.19
361.823	72.19
362.034	70.14
362.245	35.33
362.456	51.71
362.667	-3.58
362.879	80.38
363.09	37.38
363.301	111.1
363.512	94.72
363.723	33.28
363.935	59.9
364.146	78.33
364.357	43.52
364.568	39.42
364.779	-46.59
364.99	78.33
365.201	31.23
365.412	82.43
365.623	39.42
365.834	16.9
366.045	39.42
366.256	55.81
366.467	51.71
366.678	51.71
366.889	102.91
367.1	78.33
367.311	123.39
367.522	20.99
367.733	16.9
367.944	104.96
368.155	72.19
368.366	74.24
368.577	147.97
368.788	14.85
368.999	80.38
369.209	41.47
369.42	72.19
369.631	115.2
369.842	96.77
370.053	107.01
370.264	27.14
370.474	59.9
370.685	64
370.896	84.48
371.107	41.47
371.317	14.85
371.528	37.38
371.739	117.25
371.95	16.9
372.16	25.09
372.371	-24.06
372.582	119.29
372.792	66.05
373.003	25.09
373.214	102.91
373.424	10.75
373.635	29.18
373.846	104.96
374.056	31.23
374.267	72.19
374.477	37.38
374.688	66.05
374.898	2.56
375.109	14.85
375.319	111.1
375.53	43.52
375.74	55.81
375.951	29.18
376.161	59.9
376.372	18.94
376.582	74.24
376.793	-5.63
377.003	53.76
377.214	57.86
377.424	94.72
377.635	51.71
377.845	72.19
378.055	78.33
378.266	41.47
378.476	102.91
378.686	45.57
378.897	66.05
379.107	20.99
379.317	59.9
379.528	29.18
379.738	33.28
379.948	-58.88
380.158	53.76
380.369	111.1
380.579	37.38
380.789	27.14
380.999	72.19
381.21	94.72
381.42	66.05
381.63	-46.59
381.84	39.42
382.05	74.24
382.261	80.38
382.471	25.09
382.681	104.96
382.891	86.53
383.101	39.42
383.311	41.47
383.521	41.47
383.731	14.85
383.941	47.62
384.151	74.24
384.361	-7.68
384.571	94.72
384.781	100.86
384.991	66.05
385.201	57.86
385.411	78.33
385.621	49.66
385.831	27.14
386.041	12.8
386.251	35.33
386.461	27.14
386.671	66.05
386.881	47.62
387.091	16.9
387.301	31.23
387.511	72.19
387.72	98.81
387.93	70.14
388.14	23.04
388.35	35.33
388.56	27.14
388.769	170.49
388.979	51.71
389.189	43.52
389.399	68.09
389.609	70.14
389.818	96.77
390.028	86.53
390.238	80.38
390.447	-7.68
390.657	41.47
390.867	100.86
391.076	20.99
391.286	107.01
391.496	117.25
391.705	86.53
391.915	66.05
392.125	90.62
392.334	59.9
392.544	84.48
392.753	14.85
392.963	6.66
393.172	104.96
393.382	78.33
393.591	158.21
393.801	117.25
394.01	88.57
394.22	94.72
394.429	25.09
394.639	41.47
394.848	104.96
395.058	66.05
395.267	20.99
395.477	68.09
395.686	64
395.895	98.81
396.105	143.87
396.314	166.4
396.524	61.95
396.733	123.39
396.942	98.81
397.152	152.06
397.361	100.86
397.57	59.9
397.78	31.23
397.989	145.92
398.198	92.67
398.407	94.72
398.617	92.67
398.826	10.75
399.035	64
399.244	135.68
399.453	113.15
399.663	68.09
399.872	57.86
400.081	43.52
400.29	186.88
400.499	39.42
400.708	139.77
400.917	82.43
401.127	100.86
401.336	98.81
401.545	133.63
401.754	121.34
401.963	119.29
402.172	121.34
402.381	72.19
402.59	125.44
402.799	115.2
403.008	164.35
403.217	129.53
403.426	102.91
403.635	80.38
403.844	133.63
404.053	137.73
404.262	180.73
404.471	145.92
404.68	184.83
404.888	152.06
405.097	107.01
405.306	242.17
405.515	160.25
405.724	104.96
405.933	166.4
406.142	258.56
406.35	203.26
406.559	150.01
406.768	203.26
406.977	256.51
407.185	188.93
407.394	260.6
407.603	262.65
407.812	160.25
408.02	223.74
408.229	205.31
408.438	262.65
408.646	276.99
408.855	260.6
409.064	215.55
409.272	131.58
409.481	281.08
409.69	264.7
409.898	262.65
410.107	324.09
410.315	383.48
410.524	295.42
410.733	348.67
410.941	369.15
411.15	287.23
411.358	342.52
411.567	389.63
411.775	350.71
411.984	317.95
412.192	485.88
412.401	373.24
412.609	432.63
412.818	406.01
413.026	414.2
413.234	424.44
413.443	571.9
413.651	500.22
413.86	541.18
414.068	573.94
414.276	551.42
414.485	571.9
414.693	596.47
414.901	729.59
415.11	690.68
415.318	674.29
415.526	688.63
415.734	756.21
415.943	770.55
416.151	719.35
416.359	754.16
416.567	838.13
416.776	750.07
416.984	870.9
417.192	922.1
417.4	918
417.608	848.37
417.817	987.63
418.025	1006.06
418.233	1165.81
418.441	1055.22
418.649	1120.75
418.857	1153.52
419.065	1247.72
419.273	1262.06
419.481	1223.15
419.689	1329.64
419.897	1346.03
420.105	1436.14
420.313	1493.48
420.521	1477.1
420.729	1509.86
420.937	1620.46
421.145	1518.06
421.353	1726.95
421.561	1729
421.769	1817.06
421.977	1982.95
422.185	1915.36
422.393	2023.91
422.601	2146.78
422.809	2116.06
423.017	2071.01
423.224	2296.28
423.432	2351.58
423.64	2417.12
423.848	2490.84
424.056	2470.36
424.263	2709.97
424.471	2755.03
424.679	2720.21
424.887	2890.2
425.094	3054.03
425.302	3115.47
425.51	3023.31
425.718	3172.82
425.925	3166.67
426.133	3326.41
426.341	3504.59
426.548	3596.75
426.756	3752.39
426.964	3664.33
427.171	3910.08
427.379	4090.31
427.586	4184.51
427.794	4211.14
428.001	4344.25
428.209	4622.78
428.417	4434.36
428.624	4688.31
428.832	4895.16
429.039	4755.9
429.247	4798.9
429.454	5204.4
429.662	5755.3
429.869	5216.69
430.076	5525.93
430.284	5523.88
430.491	5777.83
430.699	5904.81
430.906	6168.99
431.114	6152.61
431.321	6343.07
431.528	6455.71
431.736	6971.8
431.943	7096.72
432.15	7164.31
432.358	7149.97
432.565	7479.69
432.772	7420.3
432.979	7909.77
433.187	7848.33
433.394	7874.95
433.601	8581.5
433.808	8452.48
434.016	8401.28
434.223	8905.08
434.43	9369.97
434.637	9175.41
434.844	10199.4
435.052	10168.68
435.259	9683.31
435.466	9910.63
435.673	9836.91
435.88	10387.81
436.087	10934.62
436.294	11114.84
436.501	10887.51
436.708	11280.72
436.915	11262.29
437.122	11993.42
437.329	11925.83
437.537	12056.9
437.743	12603.71
437.95	12587.33
438.157	13250.87
438.364	13517.11
438.571	13459.76
438.778	13547.83
438.985	14721.31
439.192	14104.87
439.399	14661.92
439.606	14317.86
439.813	14866.72
440.02	15966.48
440.227	15859.98
440.433	15595.79
440.64	16118.03
440.847	16077.07
441.054	16496.9
441.261	17510.64
441.467	17348.86
441.674	17537.27
441.881	18108.65
442.088	18168.04
442.294	18075.88
442.501	18714.85
442.708	18800.87
442.914	19683.54
443.121	20564.17
443.328	19953.87
443.534	21502.14
443.741	20588.74
443.948	20363.47
444.154	21887.15
444.361	21782.71
444.568	21977.26
444.774	22241.45
444.981	22284.46
445.187	22993.06
445.394	23935.12
445.6	23337.12
445.807	25911.41
446.013	24445.07
446.22	24983.68
446.426	26228.85
446.633	26382.45
446.839	27132
447.046	26234.99
447.252	27562.08
447.459	27588.7
447.665	27211.87
447.871	28840.01
448.078	29958.2
448.284	28268.62
448.491	29214.79
448.697	30410.8
448.903	30873.64
449.11	31057.96
449.316	30371.89
449.522	31076.39
449.728	32307.22
449.935	32059.41
450.141	31952.92
450.347	33032.2
450.553	31756.32
450.76	32229.4
450.966	33159.17
451.172	32933.9
451.378	33449.99
451.584	32739.34
451.791	33828.86
451.997	33519.62
452.203	34064.38
452.409	34021.37
452.615	34158.58
452.821	32858.12
453.027	32460.82
453.233	34146.29
453.44	32595.98
453.646	33130.5
453.852	33335.3
454.058	33769.47
454.264	32647.18
454.47	33636.35
454.676	32417.81
454.882	33699.84
455.088	30611.5
455.294	31297.57
455.5	31682.59
455.705	31926.3
455.911	30769.19
456.117	30361.65
456.323	29384.77
456.529	28411.98
456.735	29179.97
456.941	28581.96
457.147	27871.32
457.352	27211.87
457.558	26800.23
457.764	26974.31
457.97	26310.77
458.176	25743.48
458.381	25720.95
458.587	24500.36
458.793	24569.99
458.999	23492.76
459.204	25049.22
459.41	24133.78
459.616	22603.94
459.821	22585.51
460.027	22618.28
460.233	22163.63
460.438	20932.8
460.644	21346.49
460.85	20379.85
461.055	19976.4
461.261	20015.31
461.466	18503.91
461.672	17828.08
461.878	19372.25
462.083	17848.56
462.289	17393.91
462.494	17416.44
462.7	16720.13
462.905	15948.04
463.111	16892.16
463.316	16521.48
463.522	16587.01
463.727	16552.2
463.932	16539.91
464.138	16097.55
464.343	16249.1
464.549	15800.59
464.754	16554.24
464.959	16206.09
465.165	16273.67
465.37	15507.73
465.575	14991.64
465.781	15419.67
465.986	15722.77
466.191	15206.68
466.397	14788.89
466.602	14074.15
466.807	14711.07
467.012	14506.27
467.218	14725.41
467.423	14309.67
467.628	14487.84
467.833	15216.92
468.038	14559.52
468.244	14027.05
468.449	14663.97
468.654	14194.98
468.859	13988.14
469.064	14268.71
469.269	13490.48
469.474	13551.92
469.679	13820.21
469.885	13349.17
470.09	13705.52
470.295	13613.36
470.5	13191.48
470.705	13400.37
470.91	12722.49
471.115	12624.19
471.32	13201.72
471.525	13154.62
471.73	12714.3
471.935	12638.53
472.139	11983.18
472.344	12423.49
472.549	12298.56
472.754	12140.87
472.959	11759.95
473.164	11467.09
473.369	11622.73
473.574	11923.79
473.778	11817.29
473.983	11618.64
474.188	11733.32
474.393	10973.53
474.598	11092.31
474.802	10987.86
475.007	11127.13
475.212	10940.76
475.417	10436.96
475.621	10543.46
475.826	10606.94
476.031	10404.19
476.235	10197.35
476.44	10312.03
476.645	10086.76
476.849	10183.01
477.054	10084.71
477.259	9914.73
477.463	9970.02
477.668	9736.56
477.872	9779.56
478.077	9486.7
478.282	9212.28
478.486	9298.29
478.691	9202.04
478.895	9195.89
479.1	9036.15
479.304	9025.91
479.509	8771.96
479.713	8978.81
479.918	8663.42
480.122	8776.06
480.326	8857.98
480.531	8663.42
480.735	8780.15
480.94	8556.93
481.144	9079.16
481.348	8429.95
481.553	8728.95
481.757	8415.62
481.961	8614.27
482.166	8714.62
482.37	8583.55
482.574	8505.73
482.778	8434.05
482.983	8669.56
483.187	8515.97
483.391	8515.97
483.595	8307.07
483.8	8319.36
484.004	8515.97
484.208	8663.42
484.412	8528.25
484.616	8540.54
484.821	8759.67
485.025	8315.27
485.229	8454.53
485.433	8333.7
485.637	8677.76
485.841	8339.84
486.045	8393.09
486.249	8690.04
486.453	8503.68
486.657	8489.34
486.861	8550.78
487.065	8300.93
487.269	8466.81
487.473	8382.85
487.677	8302.98
487.881	8696.19
488.085	8395.14
488.289	8446.34
488.493	8649.08
488.697	8712.57
488.901	8452.48
489.105	8395.14
489.309	8423.81
489.512	8671.61
489.716	8403.33
489.92	8448.38
490.124	8466.81
490.328	8665.47
490.531	8577.41
490.735	8808.83
490.939	8704.38
491.143	8681.85
491.346	8649.08
491.55	8880.5
491.754	8806.78
491.958	8610.17
492.161	8941.94
492.365	9085.3
492.569	8892.79
492.772	8835.45
492.976	9011.57
493.18	8984.95
493.383	9253.23
493.587	9263.47
493.79	9505.13
493.994	9259.38
494.197	9073.01
494.401	9652.59
494.605	9548.14
494.808	9529.71
495.012	9564.53
495.215	9605.49
495.419	9640.3
495.622	9664.88
495.825	9621.87
496.029	9689.45
496.232	10053.99
496.436	9884.01
496.639	10258.79
496.843	10211.68
497.046	10471.78
497.249	10332.51
497.453	10266.98
497.656	10627.42
497.859	10725.72
498.063	10781.02
498.266	10973.53
498.469	10983.77
498.673	11057.5
498.876	11190.61
499.079	11286.87
499.282	11262.29
499.485	11858.25
499.689	11704.65
499.892	11817.29
500.095	11866.44
500.298	12298.56
500.501	12065.1
500.705	12353.86
500.908	12468.55
501.111	12532.03
501.314	12599.62
501.517	12824.89
501.72	12908.86
501.923	13060.41
502.126	13312.31
502.329	13592.88
502.532	13465.91
502.735	13467.95
502.938	13871.4
503.141	13795.63
503.344	14315.81
503.547	14137.64
503.75	14612.77
503.953	14715.17
504.156	14602.53
504.359	14768.41
504.562	15122.71
504.765	14915.87
504.968	15417.62
505.17	15434
505.373	15655.19
505.576	16011.53
505.779	15788.3
505.982	16001.29
506.185	16294.15
506.387	16359.69
506.59	16359.69
506.793	16939.26
506.996	16881.92
507.198	16867.58
507.401	17275.13
507.604	17467.64
507.807	17486.07
508.009	17582.32
508.212	18198.76
508.415	18086.12
508.617	18215.15
508.82	18536.68
509.022	18264.3
509.225	18899.17
509.428	18639.08
509.63	19208.41
509.833	18997.47
510.035	19464.41
510.238	19388.63
510.44	19560.66
510.643	20091.09
510.845	20220.11
511.048	19902.67
511.25	20435.14
511.453	20527.3
511.655	21272.76
511.858	21131.45
512.06	21145.79
512.262	21551.29
512.465	21502.14
512.667	21594.29
512.87	22112.43
513.072	22046.9
513.274	22401.19
513.477	22444.2
513.679	22489.26
513.881	22974.63
514.084	23175.33
514.286	23193.76
514.488	23396.51
514.69	23703.7
514.893	24010.9
515.095	23928.98
515.297	24670.34
515.499	24600.71
515.701	24823.94
515.904	25200.77
516.106	25342.08
516.308	25526.39
516.51	25841.78
516.712	25866.36
516.914	25958.52
517.116	26687.59
517.318	26429.55
517.52	26501.23
517.722	26775.66
517.925	26843.24
518.127	27238.5
518.329	27408.48
518.531	27093.09
518.733	28031.06
518.935	28287.06
519.136	27779.16
519.338	28375.12
519.54	28622.92
519.742	28973.13
519.944	28915.78
520.146	29335.62
520.348	29511.74
520.55	29554.75
520.752	29683.77
520.954	30324.79
521.155	29968.44
521.357	30457.9
521.559	30564.4
521.761	31342.63
521.963	30865.45
522.164	31143.97
522.366	31137.83
522.568	31596.57
522.77	32200.72
522.971	32143.38
523.173	31518.75
523.375	31903.77
523.576	32262.16
523.778	32712.72
523.98	32567.31
524.181	32626.7
524.383	32583.69
524.584	33271.81
524.786	33064.97
524.988	33062.92
525.189	33507.33
525.391	33751.04
525.592	33857.53
525.794	34191.35
525.995	33871.87
526.197	34123.77
526.398	34256.89
526.6	34512.88
526.801	34498.55
527.003	34416.63
527.204	34605.04
527.406	34996.2
527.607	35235.81
527.808	35256.29
528.01	34418.67
528.211	34811.88
528.412	35997.66
528.614	35411.94
528.815	35551.2
529.016	36001.75
529.218	35454.95
529.419	35616.74
529.62	35645.41
529.822	35745.76
530.023	35631.07
530.224	35780.57
530.425	35549.15
530.626	35354.6
530.828	35684.32
531.029	36478.93
531.23	35592.16
531.431	35747.81
531.632	35645.41
531.833	36198.36
532.035	36331.48
532.236	36487.12
532.437	36300.76
532.638	36128.73
532.839	36206.55
533.04	36386.77
533.241	36114.39
533.442	36407.25
533.643	36055
533.844	36452.31
534.045	36265.94
534.246	36003.8
534.447	36624.34
534.648	36069.34
534.849	36085.72
535.05	35991.51
535.251	36366.29
535.451	36229.08
535.652	36231.13
535.853	36188.12
536.054	36265.94
536.255	36110.3
536.456	35680.22
536.657	37017.55
536.857	35989.47
537.058	36175.83
537.259	36181.98
537.46	36407.25
537.66	36216.79
537.861	36263.89
538.062	36079.58
538.263	36448.21
538.463	36005.85
538.664	36243.41
538.865	36317.14
539.065	36513.75
539.266	35780.57
539.466	36583.38
539.667	35794.91
539.868	36497.36
540.068	35837.92
540.269	36114.39
540.469	36358.1
540.67	35731.42
540.87	35878.88
541.071	36065.24
541.271	36204.5
541.472	35727.33
541.672	35733.47
541.873	36358.1
542.073	35129.32
542.274	36290.52
542.474	35911.64
542.675	35799.01
542.875	35846.11
543.075	35784.67
543.276	35456.99
543.476	36751.31
543.676	35557.35
543.877	35823.58
544.077	35946.46
544.277	35647.46
544.478	35448.8
544.678	35790.81
544.878	35510.24
545.078	35690.46
545.279	35166.18
545.479	35491.81
545.679	36046.81
545.879	35524.58
546.079	35536.87
546.28	35704.8
546.48	35366.88
546.68	36005.85
546.88	35678.18
547.08	35633.12
547.28	35774.43
547.48	35207.14
547.68	35385.32
547.88	35112.94
548.081	35555.3
548.281	34996.2
548.481	35448.8
548.681	35606.5
548.881	35327.97
549.081	35545.06
549.28	35506.15
549.48	35530.72
549.68	35002.35
549.88	36011.99
550.08	35516.39
550.28	35401.7
550.48	35217.38
550.68	35803.1
550.88	34936.81
551.08	35071.98
551.279	35264.49
551.479	34660.34
551.679	35348.45
551.879	34789.36
552.079	35260.39
552.278	35133.42
552.478	34973.67
552.678	35166.18
552.878	35420.13
553.077	34803.69
553.277	34912.24
553.477	34992.11
553.676	35092.46
553.876	35080.17
554.076	34738.16
554.275	34461.68
554.475	34303.99
554.674	34357.24
554.874	35129.32
555.074	34568.18
555.273	35112.94
555.473	34985.96
555.672	34289.65
555.872	34824.17
556.071	34879.47
556.271	34865.13
556.47	34271.22
556.67	34203.64
556.869	34363.38
557.068	34408.43
557.268	34174.97
557.467	34428.91
557.667	34588.66
557.866	34426.87
558.065	34162.68
558.265	34017.27
558.464	34197.49
558.663	34381.81
558.863	34217.97
559.062	34879.47
559.261	33957.88
559.461	34029.56
559.66	33738.75
559.859	34183.16
560.058	34105.34
560.258	34363.38
560.457	33423.36
560.656	34260.98
560.855	33691.65
561.054	33734.65
561.253	33499.14
561.453	33380.35
561.652	33462.27
561.851	33732.61
562.05	33847.29
562.249	33198.09
562.448	33576.96
562.647	33675.26
562.846	33445.89
563.045	33374.21
563.244	32968.71
563.443	33300.48
563.642	32806.92
563.841	33081.35
564.04	32970.76
564.239	33237
564.438	32663.57
564.637	32929.8
564.836	33038.34
565.035	32458.77
565.234	32739.34
565.432	32544.78
565.631	32401.43
565.83	32538.64
566.029	32315.41
566.228	32139.29
566.427	32172.05
566.625	32141.33
566.824	32131.09
567.023	32346.13
567.222	31684.64
567.42	32385.04
567.619	31991.83
567.818	31746.08
568.016	31543.33
568.215	32038.94
568.414	31635.49
568.612	31852.57
568.811	31406.11
569.01	31692.83
569.208	31207.46
569.407	31627.29
569.605	31002.66
569.804	31316
570.002	31131.68
570.201	31236.13
570.4	31084.58
570.598	31193.12
570.797	30865.45
570.995	30771.24
571.193	30752.81
571.392	31238.18
571.59	30410.8
571.789	30742.57
571.987	30548.01
572.186	30662.7
572.384	30421.04
572.582	30294.07
572.781	30564.4
572.979	30048.31
573.177	30545.97
573.376	30451.76
573.574	30165.04
573.772	30189.62
573.971	29935.67
574.169	29816.89
574.367	29718.59
574.565	29874.23
574.763	29694.01
574.962	29800.51
575.16	29188.16
575.358	29716.54
575.556	29270.08
575.754	29741.11
575.952	29202.5
576.151	29612.09
576.349	29433.92
576.547	28987.46
576.745	29177.92
576.943	29040.71
577.141	29112.39
577.339	28948.55
577.537	28690.51
577.735	28797
577.933	28504.14
578.131	28452.94
578.329	28344.4
578.527	28155.99
578.725	28397.65
578.923	28436.56
579.121	27926.61
579.319	28174.42
579.516	28246.1
579.714	28176.47
579.912	27809.88
580.11	28076.12
580.308	28184.66
580.506	27869.27
580.704	27285.6
580.901	27959.38
581.099	27775.06
581.297	27441.25
581.495	27674.71
581.692	27529.31
581.89	27471.96
582.088	27439.2
582.285	27015.27
582.483	27660.38
582.681	26853.48
582.878	27338.85
583.076	26890.34
583.274	27115.62
583.471	26654.83
583.669	26632.3
583.866	26857.57
584.064	26945.64
584.262	26181.74
584.459	26863.72
584.657	26355.82
584.854	26753.13
585.052	26261.62
585.249	26370.16
585.447	26220.66
585.644	25882.74
585.841	26148.98
586.039	26265.71
586.236	25739.38
586.434	25948.28
586.631	25827.45
586.828	25712.76
587.026	25725.05
587.223	25698.42
587.42	25305.21
587.618	25710.71
587.815	25159.81
588.012	25073.79
588.21	25147.52
588.407	25274.49
588.604	24930.44
588.801	25180.29
588.999	24881.28
589.196	25301.12
589.393	24682.63
589.59	24565.9
589.787	24760.45
589.984	24588.42
590.182	24445.07
590.379	24610.95
590.576	24430.73
590.773	24557.71
590.97	24041.62
591.167	24586.38
591.364	24064.14
591.561	24023.19
591.758	24029.33
591.955	23812.24
592.152	24080.53
592.349	24045.71
592.546	24121.49
592.743	23632.02
592.94	23490.71
593.137	23484.57
593.334	23492.76
593.531	23476.38
593.727	23689.37
593.924	23185.57
594.121	23025.82
594.318	23306.4
594.515	23259.29
594.712	23451.8
594.908	22818.98
595.105	22958.24
595.302	22735.01
595.499	22808.74
595.696	22868.13
595.892	22413.48
596.089	22614.18
596.286	22794.4
596.482	22472.87
596.679	22442.15
596.876	22378.67
597.072	21962.93
597.269	22458.54
597.466	22007.98
597.662	22085.81
597.859	22116.53
598.055	22069.42
598.252	21786.8
598.448	21838
598.645	21817.52
598.841	21690.55
599.038	21891.25
599.234	21764.28
599.431	21641.4
599.627	21713.08
599.824	21766.32
600.02	21418.17
600.217	21276.86
600.413	21235.9
600.609	21207.23
600.806	21000.38
601.002	21248.19
601.198	21225.66
601.395	20998.34
601.591	21037.25
601.787	21016.77
601.984	20838.59
602.18	20949.18
602.376	20777.15
602.572	20984
602.769	20463.82
602.965	20545.73
603.161	20316.36
603.357	20474.06
603.553	20091.09
603.75	20086.99
603.946	20297.93
604.142	20234.44
604.338	20058.32
604.534	19992.78
604.73	19822.8
604.926	19847.38
605.122	19749.07
605.318	19726.55
605.514	19515.61
605.71	19347.67
605.906	19630.29
606.102	19607.76
606.298	19323.1
606.494	19611.86
606.69	19675.35
606.886	19429.59
607.082	19386.58
607.278	19388.63
607.474	19173.6
607.67	19388.63
607.866	19069.15
608.062	19454.17
608.257	19124.44
608.453	18931.94
608.649	19265.75
608.845	18903.26
609.041	18774.24
609.236	19157.21
609.432	18925.79
609.628	18888.93
609.824	18819.3
610.019	18698.47
610.215	18526.44
610.411	18907.36
610.606	18307.3
610.802	18602.21
610.998	18862.3
611.193	18338.02
611.389	18565.35
611.584	18600.16
611.78	18182.38
611.976	18215.15
612.171	18553.06
612.367	18241.77
612.562	18366.7
612.758	17817.84
612.953	18016.49
613.149	18270.44
613.344	18014.45
613.539	18278.63
613.735	18147.56
613.93	18174.19
614.126	17936.62
614.321	18172.14
614.517	18170.09
614.712	17916.14
614.907	17826.03
615.103	18182.38
615.298	17838.32
615.493	18067.69
615.688	17438.97
615.884	17983.73
616.079	17672.43
616.274	17514.74
616.47	17688.82
616.665	17692.91
616.86	17367.29
617.055	17551.6
617.25	17508.6
617.445	17398.01
617.641	16976.12
617.836	17432.82
618.031	17230.07
618.226	17551.6
618.421	17109.24
618.616	17234.17
618.811	16824.58
619.006	17420.53
619.201	16867.58
619.396	17185.02
619.591	16584.96
619.786	16709.89
619.981	16546.05
620.176	16918.78
620.371	16587.01
620.566	16457.99
620.761	16513.28
620.956	16517.38
621.151	16337.16
621.346	16218.38
621.541	16064.78
621.735	16351.49
621.93	15943.95
622.125	16083.21
622.32	15802.64
622.515	15880.46
622.709	15794.45
622.904	15831.31
623.099	15397.14
623.294	15642.9
623.488	15149.34
623.683	15321.37
623.878	15186.2
624.072	15239.45
624.267	15110.43
624.462	15044.89
624.656	14784.8
624.851	14989.6
625.046	14795.04
625.24	14530.85
625.435	14434.6
625.629	14688.54
625.824	14315.81
626.018	14545.19
626.213	14229.8
626.407	14348.58
626.602	14350.63
626.796	14221.61
626.991	14143.78
627.185	14065.96
627.38	13879.6
627.574	13744.43
627.768	13797.68
627.963	13523.25
628.157	13463.86
628.352	13463.86
628.546	13183.29
628.74	13453.62
628.935	13113.66
629.129	13357.36
629.323	12859.71
629.517	13066.55
629.712	12976.44
629.906	12935.48
630.1	12898.62
630.294	12962.11
630.489	12773.69
630.683	12763.45
630.877	12691.77
631.071	12460.35
631.265	12679.49
631.459	12652.86
631.653	12335.43
631.848	12493.12
632.042	12112.2
632.236	12374.34
632.43	11938.12
632.624	12046.66
632.818	11880.78
633.012	11850.06
633.206	11784.52
633.4	12017.99
633.594	11749.71
633.788	11997.51
633.982	11612.49
634.176	11514.19
634.369	11596.11
634.563	11669.84
634.757	11336.02
634.951	11340.11
635.145	11364.69
635.339	11247.96
635.533	11268.44
635.726	10938.71
635.92	11112.79
636.114	11010.39
636.308	10762.59
636.501	10987.86
636.695	10940.76
636.889	10903.9
637.083	10922.33
637.276	10748.25
637.47	10762.59
637.664	10565.98
637.857	10664.29
638.051	10365.28
638.244	10508.64
638.438	10320.23
638.632	10242.4
638.825	10172.77
639.019	10168.68
639.212	10295.65
639.406	10074.47
639.599	9984.36
639.793	9976.17
639.986	9941.35
640.18	9759.08
640.373	9677.16
640.567	9648.49
640.76	9695.6
640.954	9736.56
641.147	9468.27
641.34	9423.22
641.534	9615.73
641.727	9464.18
641.92	9257.33
642.114	9392.5
642.307	9140.6
642.5	9257.33
642.694	9079.16
642.887	9062.77
643.08	9126.26
643.273	9005.43
643.467	9093.49
643.66	8909.18
643.853	8958.33
644.046	8937.85
644.239	8817.02
644.432	8806.78
644.626	8583.55
644.819	8618.36
645.012	8612.22
645.205	8614.27
645.398	8671.61
645.591	8509.82
645.784	8528.25
645.977	8483.2
646.17	8348.03
646.363	8284.55
646.556	8053.13
646.749	8495.49
646.942	8219.01
647.135	8008.07
647.328	8184.2
647.521	8251.78
647.714	7895.43
647.907	7977.35
648.099	7977.35
648.292	7887.24
648.485	7915.91
648.678	7567.76
648.871	7801.22
649.064	7811.46
649.256	7772.55
649.449	7448.97
649.642	7702.92
649.835	7496.08
650.027	7438.73
650.22	7545.23
650.413	7545.23
650.605	7297.42
650.798	7344.53
650.991	7352.72
651.183	7432.59
651.376	7162.26
651.568	7362.96
651.761	7115.16
651.954	7301.52
652.146	7084.44
652.339	6836.63
652.531	7029.14
652.724	7203.22
652.916	6812.06
653.109	6762.9
653.301	6924.69
653.494	6922.65
653.686	6740.38
653.879	6846.87
654.071	6572.44
654.263	6615.45
654.456	6709.66
654.648	6685.08
654.84	6494.62
655.033	6463.9
655.225	6476.19
655.417	6539.68
655.61	6476.19
655.802	6576.54
655.994	6392.22
656.186	6355.36
656.379	6355.36
656.571	6109.6
656.763	6226.34
656.955	6281.63
657.148	6177.19
657.34	6201.76
657.532	6064.55
657.724	6011.3
657.916	6087.08
658.108	5978.53
658.3	6054.31
658.492	6132.13
658.684	5949.86
658.876	5994.92
659.068	5728.68
659.26	5839.27
659.452	5831.08
659.644	5749.16
659.836	5669.29
660.028	5835.17
660.22	5687.72
660.412	5622.19
660.604	5595.56
660.796	5650.86
660.988	5622.19
661.18	5562.8
661.372	5351.85
661.563	5470.64
661.755	5423.53
661.947	5427.63
662.139	5394.86
662.331	5370.29
662.522	5202.35
662.714	5403.05
662.906	5376.43
663.097	5134.77
663.289	5210.54
663.481	5188.02
663.673	5110.19
663.864	5015.99
664.056	5134.77
664.247	4987.32
664.439	5104.05
664.631	5042.61
664.822	4970.93
665.014	5036.47
665.205	5044.66
665.397	4993.46
665.588	4925.88
665.78	4915.64
665.971	5032.37
666.163	4800.95
666.354	4829.62
666.546	4688.31
666.737	4676.02
666.929	4710.84
667.12	4856.25
667.311	4780.47
667.503	4614.59
667.694	4719.03
667.885	4716.98
668.077	4710.84
668.268	4694.46
668.459	4579.77
668.651	4485.56
668.842	4661.69
669.033	4385.21
669.224	4530.62
669.416	4499.9
669.607	4438.46
669.798	4338.11
669.989	4647.35
670.18	4452.8
670.371	4508.09
670.563	4254.14
670.754	4374.97
670.945	4239.81
671.136	4233.66
671.327	4268.48
671.518	4274.62
671.709	4229.57
671.9	4317.63
672.091	4161.98
672.282	4176.32
672.473	4254.14
672.664	4237.76
672.855	4258.24
673.046	4270.53
673.237	4141.5
673.428	4174.27
673.619	4100.55
673.809	4110.79
674	3887.56
674.191	3934.66
674.382	4020.67
674.573	3961.28
674.764	3908.04
674.954	4090.31
675.145	4051.39
675.336	3875.27
675.527	3983.81
675.717	3944.9
675.908	3953.09
676.099	3910.08
676.289	3973.57
676.48	3901.89
676.671	4039.11
676.861	3781.06
677.052	3850.69
677.243	3824.07
677.433	3905.99
677.624	3891.65
677.814	3905.99
678.005	3760.58
678.195	3905.99
678.386	3721.67
678.576	3811.78
678.767	3832.26
678.957	3647.94
679.148	3889.6
679.338	3656.14
679.529	3693
679.719	3748.29
679.909	3731.91
680.1	3918.28
680.29	3723.72
680.481	3672.52
680.671	3672.52
680.861	3604.94
681.052	3672.52
681.242	3525.07
681.432	3742.15
681.622	3733.96
681.813	3615.18
682.003	3703.24
682.193	3602.89
682.383	3594.7
682.573	3758.53
682.764	3627.46
682.954	3508.68
683.144	3596.75
683.334	3609.03
683.524	3518.92
683.714	3543.5
683.904	3283.41
684.094	3408.33
684.284	3463.63
684.474	3480.01
684.664	3430.86
684.854	3426.76
685.044	3359.18
685.234	3449.29
685.424	3342.8
685.614	3365.32
685.804	3350.99
685.994	3336.65
686.184	3389.9
686.374	3320.27
686.564	3414.48
686.753	3244.49
686.943	3228.11
687.133	3418.57
687.323	3328.46
687.513	3219.92
687.702	3287.5
687.892	3162.58
688.082	3281.36
688.272	3252.69
688.461	3279.31
688.651	3191.25
688.841	3062.23
689.03	3197.39
689.22	3174.86
689.41	3146.19
689.599	3035.6
689.789	3086.8
689.979	3111.38
690.168	3054.03
690.358	3070.42
690.547	3011.03
690.737	3000.79
690.926	3011.03
691.116	3008.98
691.305	2908.63
691.495	2865.62
691.684	2908.63
691.874	3002.83
692.063	2859.48
692.252	2912.72
692.442	2845.14
692.631	2816.47
692.82	2802.13
693.01	2763.22
693.199	2851.28
693.388	2814.42
693.578	2802.13
693.767	2832.85
693.956	2804.18
694.146	2750.93
694.335	2750.93
694.524	2728.41
694.713	2783.7
694.902	2822.61
695.092	2826.71
695.281	2738.65
695.47	2763.22
695.659	2642.39
695.848	2871.76
696.037	2574.81
696.226	2636.25
696.415	2728.41
696.604	2740.69
696.793	2679.26
696.982	2705.88
697.171	2656.73
697.36	2662.87
697.549	2759.13
697.738	2662.87
697.927	2593.24
698.116	2650.58
698.305	2687.45
698.494	2650.58
698.683	2623.96
698.872	2740.69
699.061	2742.74
699.25	2607.58
699.438	2566.62
699.627	2722.26
699.816	2654.68
700.005	2587.1
700.193	2685.4
700.382	2654.68
700.571	2701.78
700.76	2695.64
700.948	2755.03
701.137	2677.21
701.326	2716.12
701.514	2634.2
701.703	2726.36
701.892	2752.98
702.08	2738.65
702.269	2685.4
702.457	2666.97
702.646	2578.9
702.834	2691.54
703.023	2601.43
703.212	2654.68
703.4	2771.41
703.589	2605.53
703.777	2673.11
703.965	2617.82
704.154	2623.96
704.342	2591.19
704.531	2642.39
704.719	2511.32
704.907	2617.82
705.096	2564.57
705.284	2666.97
705.472	2587.1
705.661	2654.68
705.849	2646.49
706.037	2755.03
706.226	2607.58
706.414	2599.38
706.602	2537.95
706.79	2640.34
706.979	2662.87
707.167	2828.76
707.355	2650.58
707.543	2660.82
707.731	2757.08
707.919	2689.49
708.107	2570.71
708.296	2626.01
708.484	2666.97
708.672	2560.47
708.86	2621.91
709.048	2716.12
709.236	2654.68
709.424	2644.44
709.612	2611.67
709.8	2685.4
709.988	2533.85
710.176	2601.43
710.364	2589.14
710.551	2640.34
710.739	2695.64
710.927	2587.1
711.115	2664.92
711.303	2687.45
711.491	2628.06
711.679	2687.45
711.866	2648.54
712.054	2638.3
712.242	2552.28
712.43	2654.68
712.617	2705.88
712.805	2501.08
712.993	2589.14
713.181	2587.1
713.368	2595.29
713.556	2654.68
713.744	2619.86
713.931	2685.4
714.119	2652.63
714.306	2593.24
714.494	2601.43
714.682	2669.02
714.869	2556.38
715.057	2744.79
715.244	2570.71
715.432	2673.11
715.619	2580.95
715.807	2656.73
715.994	2597.34
716.182	2568.66
716.369	2656.73
716.556	2685.4
716.744	2537.95
716.931	2630.1
717.119	2515.42
717.306	2626.01
717.493	2630.1
717.681	2632.15
717.868	2673.11
718.055	2535.9
718.242	2646.49
718.43	2716.12
718.617	2613.72
718.804	2605.53
718.991	2529.75
719.179	2554.33
719.366	2603.48
719.553	2642.39
719.74	2601.43
719.927	2527.71
720.114	2591.19
720.301	2572.76
720.488	2587.1
720.676	2568.66
720.863	2636.25
721.05	2646.49
721.237	2542.04
721.424	2660.82
721.611	2546.14
721.798	2519.51
721.985	2548.19
722.172	2636.25
722.358	2494.94
722.545	2574.81
722.732	2593.24
722.919	2513.37
723.106	2572.76
723.293	2513.37
723.48	2630.1
723.667	2365.92
723.853	2521.56
724.04	2525.66
724.227	2507.23
724.414	2494.94
724.6	2456.03
724.787	2605.53
724.974	2683.35
725.161	2550.23
725.347	2652.63
725.534	2523.61
725.72	2402.78
725.907	2494.94
726.094	2515.42
726.28	2451.93
726.467	2511.32
726.653	2433.5
726.84	2472.41
727.027	2302.43
727.213	2400.73
727.4	2472.41
727.586	2341.34
727.773	2470.36
727.959	2492.89
728.145	2439.64
728.332	2427.35
728.518	2480.6
728.705	2533.85
728.891	2453.98
729.077	2394.59
729.264	2466.27
729.45	2390.49
729.636	2464.22
729.823	2417.12
730.009	2476.51
730.195	2396.64
730.382	2306.52
730.568	2413.02
730.754	2421.21
730.94	2464.22
731.126	2404.83
731.313	2398.68
731.499	2367.96
731.685	2560.47
731.871	2347.48
732.057	2439.64
732.243	2425.31
732.429	2361.82
732.615	2329.05
732.801	2384.35
732.987	2245.09
733.173	2388.44
733.359	2386.4
733.545	2353.63
733.731	2296.28
733.917	2351.58
734.103	2390.49
734.289	2339.29
734.475	2314.72
734.661	2419.16
734.847	2318.81
735.033	2402.78
735.219	2302.43
735.404	2374.11
735.59	2197.98
735.776	2318.81
735.962	2249.18
736.148	2322.91
736.333	2296.28
736.519	2245.09
736.705	2290.14
736.89	2269.66
737.076	2271.71
737.262	2329.05
737.447	2310.62
737.633	2179.55
737.819	2245.09
738.004	2179.55
738.19	2271.71
738.375	2228.7
738.561	2263.52
738.747	2240.99
738.932	2210.27
739.118	2284
739.303	2120.16
739.489	2308.57
739.674	2206.17
739.859	2185.69
740.045	2206.17
740.23	2148.83
740.416	2118.11
740.601	2187.74
740.786	2189.79
740.972	2085.34
741.157	2122.21
741.342	2116.06
741.528	2081.25
741.713	2118.11
741.898	1999.33
742.084	2124.26
742.269	2030.05
742.454	2079.2
742.639	2036.19
742.824	2040.29
743.01	2099.68
743.195	2130.4
743.38	2021.86
743.565	1960.42
743.75	2017.76
743.935	1976.8
744.12	1970.66
744.305	1849.83
744.49	2007.52
744.675	2042.34
744.86	1862.12
745.045	2007.52
745.23	1921.51
745.415	1864.16
745.6	1841.64
745.785	1966.56
745.97	1845.73
746.155	1851.88
746.34	1911.27
746.525	1833.44
746.71	1999.33
746.895	1700.33
747.079	1696.23
747.264	1790.44
747.449	1716.71
747.634	1802.72
747.819	1915.36
748.003	1683.94
748.188	1673.7
748.373	1772
748.557	1798.63
748.742	1702.37
748.927	1677.8
749.111	1597.93
749.296	1698.28
749.481	1645.03
749.665	1630.7
749.85	1612.26
750.034	1708.52
750.219	1616.36
750.404	1669.61
750.588	1573.35
750.773	1542.63
750.957	1587.69
751.141	1634.79
751.326	1616.36
751.51	1579.5
751.695	1499.63
751.879	1516.01
752.064	1546.73
752.248	1466.86
752.432	1532.39
752.617	1571.3
752.801	1571.3
752.985	1475.05
753.17	1438.19
753.354	1485.29
753.538	1563.11
753.722	1448.43
753.907	1391.08
754.091	1343.98
754.275	1360.36
754.459	1409.51
754.643	1257.96
754.828	1405.42
755.012	1350.12
755.196	1362.41
755.38	1409.51
755.564	1317.36
755.748	1376.75
755.932	1319.4
756.116	1362.41
756.3	1262.06
756.484	1335.79
756.668	1266.16
756.852	1229.29
757.036	1251.82
757.22	1221.1
757.404	1208.81
757.588	1188.33
757.772	1200.62
757.956	1186.29
758.14	1245.68
758.323	1176.05
758.507	1147.37
758.691	1260.01
758.875	1192.43
759.059	1212.91
759.242	1114.61
759.426	1133.04
759.61	1194.48
759.794	1149.42
759.977	1114.61
760.161	1200.62
760.345	1192.43
760.528	1008.11
760.712	1139.18
760.895	1116.65
761.079	1079.79
761.263	1040.88
761.446	1108.46
761.63	1120.75
761.813	1106.42
761.997	1182.19
762.18	1004.02
762.364	1114.61
762.547	999.92
762.731	1053.17
762.914	1087.98
763.098	1008.11
763.281	975.35
763.464	995.82
763.648	944.63
763.831	944.63
764.015	1090.03
764.198	967.15
764.381	969.2
764.564	952.82
764.748	954.87
764.931	1016.3
765.114	936.43
765.297	1030.64
765.481	950.77
765.664	936.43
765.847	893.43
766.03	997.87
766.213	881.14
766.397	940.53
766.58	893.43
766.763	967.15
766.946	836.08
767.129	1040.88
767.312	897.52
767.495	881.14
767.678	868.85
767.861	883.19
768.044	1001.97
768.227	840.18
768.41	866.8
768.593	924.15
768.776	881.14
768.959	918
769.142	858.61
769.324	870.9
769.507	815.6
769.69	897.52
769.873	846.32
770.056	879.09
770.239	860.66
770.421	870.9
770.604	821.75
770.787	866.8
770.97	864.75
771.152	831.99
771.335	801.27
771.518	797.17
771.7	776.69
771.883	752.12
772.066	870.9
772.248	782.84
772.431	817.65
772.613	795.12
772.796	823.8
772.978	823.8
773.161	797.17
773.343	797.17
773.526	670.2
773.708	631.29
773.891	575.99
774.073	696.82
774.256	727.54
774.438	741.88
774.621	616.95
774.803	745.97
774.985	748.02
775.168	702.97
775.35	662.01
775.532	750.07
775.715	700.92
775.897	707.06
776.079	657.91
776.261	694.77
776.444	555.51
776.626	666.1
776.808	707.06
776.99	631.29
777.173	684.53
777.355	604.66
777.537	592.37
777.719	623.09
777.901	578.04
778.083	604.66
778.265	590.33
778.447	637.43
778.629	657.91
778.811	700.92
778.993	612.85
779.175	549.37
779.357	621.05
779.539	549.37
779.721	657.91
779.903	582.14
780.085	551.42
780.267	561.66
780.449	547.32
780.631	469.5
780.812	602.61
780.994	567.8
781.176	535.03
781.358	524.79
781.54	545.27
781.721	547.32
781.903	551.42
782.085	557.56
782.267	467.45
782.448	578.04
782.63	586.23
782.812	508.41
782.993	543.22
783.175	526.84
783.357	518.65
783.538	494.07
783.72	492.02
783.901	549.37
784.083	385.53
784.264	477.69
784.446	471.54
784.627	408.06
784.809	494.07
784.99	434.68
785.172	436.73
785.353	469.5
785.535	528.89
785.716	389.63
785.897	375.29
786.079	410.11
786.26	516.6
786.441	489.98
786.623	311.8
786.804	377.34
786.985	442.87
787.167	354.81
787.348	457.21
787.529	408.06
787.71	492.02
787.891	442.87
788.073	391.67
788.254	440.83
788.435	408.06
788.616	412.15
788.797	389.63
788.978	389.63
789.159	365.05
789.34	406.01
789.522	274.94
789.703	401.91
789.884	379.39
790.065	385.53
790.246	428.54
790.427	379.39
790.607	381.43
790.788	412.15
790.969	326.14
791.15	393.72
791.331	399.87
791.512	299.52
791.693	274.94
791.874	379.39
792.054	399.87
792.235	373.24
792.416	305.66
792.597	338.43
792.778	285.18
792.958	297.47
793.139	346.62
793.32	354.81
793.5	330.23
793.681	332.28
793.862	344.57
794.042	348.67
794.223	260.6
794.404	305.66
794.584	317.95
794.765	360.95
794.945	289.28
795.126	242.17
795.306	297.47
795.487	264.7
795.667	320
795.848	270.84
796.028	309.76
796.209	295.42
796.389	276.99
796.57	252.41
796.75	268.8
796.93	307.71
797.111	289.28
797.291	227.84
797.471	180.73
797.652	276.99
797.832	289.28
798.012	320
798.192	215.55
798.373	195.07
798.553	287.23
798.733	283.13
798.913	186.88
799.093	305.66
799.274	287.23
799.454	264.7
799.634	309.76
799.814	262.65
799.994	293.37
800.174	307.71
800.354	229.88
800.534	227.84
800.714	274.94
800.894	188.93
801.074	336.38
801.254	256.51
801.434	264.7
801.614	168.45
801.794	320
801.974	580.09
802.154	242.17
802.334	199.16
802.514	199.16
802.693	145.92
802.873	203.26
803.053	254.46
803.233	199.16
803.413	217.6
803.592	203.26
803.772	246.27
803.952	274.94
804.131	236.03
804.311	225.79
804.491	268.8
804.67	203.26
804.85	250.36
805.03	213.5
805.209	233.98
805.389	254.46
805.568	219.64
805.748	145.92
805.928	131.58
806.107	150.01
806.287	158.21
806.466	264.7
806.646	180.73
806.825	197.12
807.004	199.16
807.184	164.35
807.363	233.98
807.543	168.45
807.722	164.35
807.901	186.88
808.081	195.07
808.26	154.11
808.439	57.86
808.619	176.64
808.798	127.49
808.977	145.92
809.156	129.53
809.336	215.55
809.515	207.36
809.694	154.11
809.873	209.4
810.052	207.36
810.231	217.6
810.411	84.48
810.59	162.3
810.769	117.25
810.948	154.11
811.127	121.34
811.306	111.1
811.485	139.77
811.664	145.92
811.843	164.35
812.022	104.96
812.201	137.73
812.38	188.93
812.559	193.02
812.737	125.44
812.916	129.53
813.095	195.07
813.274	96.77
813.453	152.06
813.632	231.93
813.811	160.25
813.989	119.29
814.168	154.11
814.347	115.2
814.526	131.58
814.704	197.12
814.883	152.06
815.062	131.58
815.24	113.15
815.419	123.39
815.598	145.92
815.776	205.31
815.955	172.54
816.133	154.11
816.312	184.83
816.49	182.78
816.669	207.36
816.847	147.97
817.026	213.5
817.204	45.57
817.383	86.53
817.561	117.25
817.74	88.57
817.918	127.49
818.097	113.15
818.275	127.49
818.453	203.26
818.632	135.68
818.81	94.72
818.988	45.57
819.167	125.44
819.345	176.64
819.523	90.62
819.701	201.21
819.879	160.25
820.058	127.49
820.236	82.43
820.414	53.76
820.592	141.82
820.77	57.86
820.948	164.35
821.127	133.63
821.305	135.68
821.483	166.4
821.661	147.97
821.839	152.06
822.017	141.82
822.195	104.96
822.373	141.82
822.551	109.05
822.729	123.39
822.907	49.66
823.085	152.06
823.262	115.2
823.44	127.49
823.618	68.09
823.796	102.91
823.974	147.97
824.152	123.39
824.329	76.29
824.507	80.38
824.685	84.48
824.863	49.66
825.04	111.1
825.218	76.29
825.396	131.58
825.574	139.77
825.751	92.67
825.929	160.25
826.107	115.2
826.284	80.38
826.462	88.57
826.639	57.86
826.817	98.81
826.994	162.3
827.172	70.14
827.349	145.92
827.527	102.91
827.704	139.77
827.882	123.39
828.059	174.59
828.237	78.33
828.414	72.19
828.591	104.96
828.769	70.14
828.946	88.57
829.124	104.96
829.301	59.9
829.478	133.63
829.655	154.11
829.833	152.06
830.01	39.42
830.187	90.62
830.364	74.24
830.542	49.66
830.719	104.96
830.896	123.39
831.073	64
831.25	117.25
831.427	131.58
831.604	127.49
831.782	88.57
831.959	39.42
832.136	27.14
832.313	4.61
832.49	88.57
832.667	135.68
832.844	49.66
833.021	88.57
833.198	33.28
833.374	152.06
833.551	166.4
833.728	80.38
833.905	66.05
834.082	23.04
834.259	107.01
834.436	125.44
834.612	18.94
834.789	162.3
834.966	135.68
835.143	64
835.319	125.44
835.496	59.9
835.673	109.05
835.85	64
836.026	90.62
836.203	25.09
836.38	74.24
836.556	41.47
836.733	4.61
836.909	59.9
837.086	29.18
837.262	70.14
837.439	86.53
837.616	-3.58
837.792	59.9
837.968	102.91
838.145	100.86
838.321	107.01
838.498	100.86
838.674	33.28
838.851	76.29
839.027	47.62
839.203	88.57
839.38	59.9
839.556	33.28
839.732	47.62
839.909	27.14
840.085	137.73
840.261	12.8
840.437	31.23
840.614	143.87
840.79	74.24
840.966	27.14
841.142	53.76
841.318	39.42
841.494	12.8
841.671	100.86
841.847	74.24
842.023	100.86
842.199	92.67
842.375	2.56
842.551	2.56
842.727	111.1
842.903	84.48
843.079	61.95
843.255	49.66
843.431	16.9
843.607	57.86
843.783	0.51
843.959	74.24
844.134	92.67
844.31	53.76
844.486	86.53
844.662	12.8
844.838	-46.59
845.013	39.42
845.189	51.71
845.365	29.18
845.541	33.28
845.716	14.85
845.892	164.35
846.068	29.18
846.244	27.14
846.419	49.66
846.595	47.62
846.77	68.09
846.946	37.38
847.122	76.29
847.297	68.09
847.473	-17.92
847.648	12.8
847.824	70.14
847.999	64
848.175	61.95
848.35	90.62
848.526	70.14
848.701	6.66
848.876	111.1
849.052	90.62
849.227	53.76
849.403	6.66
849.578	41.47
849.753	51.71
849.929	39.42
850.104	12.8
850.279	90.62
850.454	31.23
850.63	66.05
850.805	70.14
850.98	51.71
851.155	41.47
851.33	20.99
851.505	61.95
851.681	162.3
851.856	12.8
852.031	29.18
852.206	33.28
852.381	14.85
852.556	0.51
852.731	29.18
852.906	68.09
853.081	41.47
853.256	47.62
853.431	72.19
853.606	-1.54
853.781	49.66
853.956	70.14
854.131	66.05
854.305	43.52
854.48	37.38
854.655	37.38
854.83	16.9
855.005	4.61
855.18	0.51
855.354	-79.36
855.529	6.66
855.704	-36.35
855.879	59.9
856.053	10.75
856.228	86.53
856.403	-22.02
856.577	141.82
856.752	-32.26
856.926	96.77
857.101	12.8
857.276	-34.3
857.45	41.47
857.625	96.77
857.799	-15.87
857.974	31.23
858.148	78.33
858.323	35.33
858.497	14.85
858.672	96.77
858.846	82.43
859.02	82.43
859.195	68.09
859.369	51.71
859.543	109.05
859.718	-1.54
859.892	66.05
860.066	-3.58
860.241	2.56
860.415	78.33
860.589	111.1
860.763	-22.02
860.938	2.56
861.112	84.48
861.286	12.8
861.46	33.28
861.634	-58.88
861.808	74.24
861.982	76.29
862.157	8.7
862.331	4.61
862.505	47.62
862.679	76.29
862.853	-9.73
863.027	33.28
863.201	80.38
863.375	-9.73
863.549	41.47
863.722	88.57
863.896	0.51
864.07	-26.11
864.244	74.24
864.418	94.72
864.592	-22.02
864.766	0.51
864.939	66.05
865.113	29.18
865.287	23.04
865.461	55.81
865.634	-28.16
865.808	68.09
865.982	86.53
866.156	64
866.329	8.7
866.503	23.04
866.676	8.7
866.85	61.95
867.024	47.62
867.197	25.09
867.371	8.7
867.544	82.43
867.718	92.67
867.891	18.94
868.065	2.56
868.238	80.38
868.412	41.47
868.585	66.05
868.759	78.33
868.932	-15.87
869.105	-24.06
869.279	107.01
869.452	47.62
869.625	18.94
869.799	64
869.972	47.62
870.145	107.01
870.319	70.14
870.492	0.51
870.665	43.52
870.838	47.62
871.011	-46.59
871.185	-7.68
871.358	-22.02
871.531	47.62
871.704	-15.87
871.877	-7.68
872.05	-56.83
872.223	-15.87
872.396	27.14
872.569	47.62
872.742	-9.73
872.915	-34.3
873.088	45.57
873.261	-54.78
873.434	59.9
873.607	55.81
873.78	68.09
873.953	-17.92
874.126	49.66
874.299	10.75
874.471	84.48
874.644	29.18
874.817	49.66
874.99	49.66
875.163	-3.58
875.335	18.94
875.508	10.75
875.681	20.99
875.853	10.75
876.026	70.14
876.199	88.57
876.371	6.66
876.544	4.61
876.717	88.57
876.889	14.85
877.062	-30.21
877.234	76.29
877.407	33.28
877.579	51.71
877.752	-3.58
877.924	43.52
878.097	49.66
878.269	96.77
878.442	23.04
878.614	39.42
878.786	-5.63
878.959	6.66
879.131	49.66
879.303	70.14
879.476	66.05
879.648	61.95
879.82	-26.11
879.993	0.51
880.165	49.66
880.337	-11.78
880.509	-17.92
880.681	43.52
880.854	10.75
881.026	43.52
881.198	59.9
881.37	-13.82
881.542	-3.58
881.714	25.09
881.886	59.9
882.058	31.23
882.23	82.43
882.402	57.86
882.574	53.76
882.746	39.42
882.918	70.14
883.09	-9.73
883.262	-15.87
883.434	-11.78
883.606	-19.97
883.778	37.38
883.95	98.81
884.122	64
884.293	-1.54
884.465	16.9
884.637	53.76
884.809	-7.68
884.98	68.09
885.152	37.38
885.324	59.9
885.496	-15.87
885.667	-17.92
885.839	61.95
886.011	37.38
886.182	29.18
886.354	68.09
886.525	-17.92
886.697	33.28
886.869	-36.35
887.04	29.18
887.212	61.95
887.383	39.42
887.555	8.7
887.726	-22.02
887.897	31.23
888.069	41.47
888.24	23.04
888.412	-19.97
888.583	-58.88
888.754	10.75
888.926	-5.63
889.097	51.71
889.268	-15.87
889.44	16.9
889.611	10.75
889.782	18.94
889.953	-24.06
890.125	66.05
890.296	8.7
890.467	92.67
890.638	-44.54
890.809	82.43
890.98	8.7
891.151	39.42
891.323	16.9
891.494	33.28
891.665	-40.45
891.836	64
892.007	-79.36
892.178	25.09
892.349	8.7
892.52	18.94
892.691	66.05
892.862	-1.54
893.032	-56.83
893.203	6.66
893.374	14.85
893.545	2.56
893.716	104.96
893.887	31.23
894.057	-13.82
894.228	23.04
894.399	-34.3
894.57	14.85
894.74	45.57
894.911	70.14
895.082	14.85
895.253	12.8
895.423	14.85
895.594	-40.45
895.764	-5.63
895.935	27.14
896.106	59.9
896.276	109.05
896.447	18.94
896.617	-44.54
896.788	55.81
896.958	41.47
897.129	20.99
897.299	20.99
897.47	23.04
897.64	41.47
897.81	43.52
897.981	78.33
898.151	-19.97
898.322	-26.11
898.492	59.9
898.662	23.04
898.832	18.94
899.003	-13.82
899.173	51.71
899.343	14.85
899.513	51.71
