Data from USB4F104151__83__12-02-16-265.txt Node

Date: Fri Mar 14 12:02:16 EDT 2025
User: louis
Spectrometer: USB4F10415
Trigger mode: 4
Integration Time (sec): 2.000000E-2
Scans to average: 1
Electric dark correction enabled: true
Nonlinearity correction enabled: false
Boxcar width: 0
XAxis mode: Wavelengths
Number of Pixels in Spectrum: 3648
>>>>>Begin Spectral Data<<<<<
178.204	-107.01
178.424	-107.01
178.644	-107.01
178.864	-102.91
179.084	-94.72
179.304	-8.7
179.524	9.73
179.744	28.16
179.964	-14.85
180.184	60.93
180.404	-31.23
180.624	15.87
180.844	-10.75
181.064	-55.81
181.283	13.82
181.503	-43.52
181.723	36.35
181.943	-61.95
182.163	83.45
182.383	40.45
182.602	67.07
182.822	15.87
183.042	34.3
183.262	-10.75
183.482	-14.85
183.701	5.63
183.921	22.02
184.141	-55.81
184.361	38.4
184.58	40.45
184.8	34.3
185.02	-20.99
185.239	9.73
185.459	30.21
185.679	-41.47
185.898	15.87
186.118	95.74
186.338	67.07
186.557	3.58
186.777	28.16
186.997	-10.75
187.216	-23.04
187.436	24.06
187.655	-27.14
187.875	36.35
188.095	24.06
188.314	116.22
188.534	-12.8
188.753	-16.9
188.973	-16.9
189.192	58.88
189.412	-20.99
189.631	-0.51
189.851	34.3
190.07	73.21
190.29	-6.66
190.509	-35.33
190.729	-2.56
190.948	-23.04
191.168	75.26
191.387	101.89
191.607	19.97
191.826	38.4
192.045	9.73
192.265	-35.33
192.484	-31.23
192.704	-31.23
192.923	-33.28
193.142	22.02
193.362	34.3
193.581	56.83
193.8	105.98
194.02	19.97
194.239	-10.75
194.458	126.46
194.678	32.26
194.897	54.78
195.116	-6.66
195.335	42.5
195.555	24.06
195.774	56.83
195.993	54.78
196.212	7.68
196.432	22.02
196.651	32.26
196.87	-8.7
197.089	56.83
197.308	38.4
197.528	75.26
197.747	3.58
197.966	-35.33
198.185	17.92
198.404	11.78
198.623	34.3
198.842	-35.33
199.062	26.11
199.281	3.58
199.5	-25.09
199.719	1.54
199.938	-14.85
200.157	40.45
200.376	15.87
200.595	108.03
200.814	24.06
201.033	7.68
201.252	54.78
201.471	17.92
201.69	-14.85
201.909	87.55
202.128	136.7
202.347	40.45
202.566	11.78
202.785	28.16
203.004	-49.66
203.223	93.69
203.442	87.55
203.661	-8.7
203.879	40.45
204.098	38.4
204.317	-12.8
204.536	73.21
204.755	15.87
204.974	38.4
205.193	-31.23
205.411	128.51
205.63	44.54
205.849	-6.66
206.068	13.82
206.287	58.88
206.505	26.11
206.724	52.74
206.943	28.16
207.162	-20.99
207.381	-10.75
207.599	50.69
207.818	-14.85
208.037	9.73
208.255	5.63
208.474	36.35
208.693	17.92
208.911	-64
209.13	9.73
209.349	3.58
209.567	-0.51
209.786	79.36
210.005	32.26
210.223	17.92
210.442	-39.42
210.661	1.54
210.879	-55.81
211.098	112.13
211.316	48.64
211.535	46.59
211.753	1.54
211.972	1.54
212.191	56.83
212.409	67.07
212.628	9.73
212.846	17.92
213.065	-41.47
213.283	50.69
213.502	3.58
213.72	30.21
213.938	26.11
214.157	-20.99
214.375	28.16
214.594	48.64
214.812	3.58
215.031	73.21
215.249	-10.75
215.467	52.74
215.686	75.26
215.904	112.13
216.122	36.35
216.341	77.31
216.559	26.11
216.778	38.4
216.996	60.93
217.214	91.65
217.432	3.58
217.651	-72.19
217.869	-27.14
218.087	73.21
218.306	-27.14
218.524	-25.09
218.742	17.92
218.96	34.3
219.179	-14.85
219.397	56.83
219.615	28.16
219.833	93.69
220.051	-64
220.27	77.31
220.488	5.63
220.706	26.11
220.924	1.54
221.142	15.87
221.36	7.68
221.578	26.11
221.796	28.16
222.015	24.06
222.233	50.69
222.451	32.26
222.669	-72.19
222.887	38.4
223.105	56.83
223.323	17.92
223.541	-49.66
223.759	32.26
223.977	-8.7
224.195	24.06
224.413	-23.04
224.631	95.74
224.849	26.11
225.067	69.12
225.285	58.88
225.503	7.68
225.721	-35.33
225.939	42.5
226.157	3.58
226.375	54.78
226.592	-37.38
226.81	38.4
227.028	11.78
227.246	83.45
227.464	-2.56
227.682	44.54
227.9	28.16
228.117	32.26
228.335	-20.99
228.553	67.07
228.771	-27.14
228.989	36.35
229.206	15.87
229.424	-51.71
229.642	83.45
229.86	-57.86
230.077	56.83
230.295	28.16
230.513	67.07
230.731	48.64
230.948	69.12
231.166	91.65
231.384	3.58
231.601	-6.66
231.819	36.35
232.037	52.74
232.254	48.64
232.472	22.02
232.689	-12.8
232.907	11.78
233.125	-18.94
233.342	17.92
233.56	38.4
233.777	54.78
233.995	48.64
234.213	46.59
234.43	26.11
234.648	-35.33
234.865	-39.42
235.083	17.92
235.3	15.87
235.518	77.31
235.735	9.73
235.953	79.36
236.17	17.92
236.388	34.3
236.605	73.21
236.822	60.93
237.04	67.07
237.257	-20.99
237.475	15.87
237.692	91.65
237.909	22.02
238.127	44.54
238.344	54.78
238.562	87.55
238.779	-61.95
238.996	81.41
239.214	-2.56
239.431	-25.09
239.648	-23.04
239.865	7.68
240.083	46.59
240.3	-27.14
240.517	-31.23
240.735	40.45
240.952	15.87
241.169	9.73
241.386	34.3
241.603	52.74
241.821	48.64
242.038	28.16
242.255	71.17
242.472	48.64
242.689	34.3
242.907	108.03
243.124	65.02
243.341	42.5
243.558	36.35
243.775	13.82
243.992	56.83
244.209	-8.7
244.426	54.78
244.643	124.41
244.86	3.58
245.078	-10.75
245.295	87.55
245.512	22.02
245.729	-55.81
245.946	-4.61
246.163	-4.61
246.38	67.07
246.597	116.22
246.814	60.93
247.031	69.12
247.248	-41.47
247.464	-0.51
247.681	62.98
247.898	40.45
248.115	83.45
248.332	52.74
248.549	5.63
248.766	19.97
248.983	40.45
249.2	44.54
249.417	46.59
249.633	54.78
249.85	22.02
250.067	22.02
250.284	-23.04
250.501	60.93
250.717	48.64
250.934	-12.8
251.151	22.02
251.368	-53.76
251.585	44.54
251.801	71.17
252.018	46.59
252.235	50.69
252.451	85.5
252.668	73.21
252.885	32.26
253.102	26.11
253.318	7.68
253.535	7.68
253.752	-12.8
253.968	7.68
254.185	52.74
254.401	-18.94
254.618	26.11
254.835	62.98
255.051	77.31
255.268	-2.56
255.484	44.54
255.701	99.84
255.917	99.84
256.134	48.64
256.351	65.02
256.567	-55.81
256.784	-4.61
257	24.06
257.217	58.88
257.433	26.11
257.65	13.82
257.866	71.17
258.082	46.59
258.299	67.07
258.515	34.3
258.732	28.16
258.948	54.78
259.165	28.16
259.381	58.88
259.597	26.11
259.814	44.54
260.03	108.03
260.246	-10.75
260.463	-27.14
260.679	85.5
260.895	-57.86
261.112	77.31
261.328	-59.9
261.544	24.06
261.761	36.35
261.977	-41.47
262.193	30.21
262.409	130.56
262.626	97.79
262.842	9.73
263.058	1.54
263.274	-0.51
263.49	50.69
263.707	-20.99
263.923	-14.85
264.139	28.16
264.355	60.93
264.571	46.59
264.787	40.45
265.004	103.93
265.22	-8.7
265.436	-64
265.652	-2.56
265.868	17.92
266.084	-2.56
266.3	1.54
266.516	-43.52
266.732	-10.75
266.948	11.78
267.164	34.3
267.38	7.68
267.596	138.75
267.812	122.37
268.028	-10.75
268.244	3.58
268.46	91.65
268.676	24.06
268.892	7.68
269.108	13.82
269.324	42.5
269.54	-14.85
269.756	71.17
269.972	44.54
270.188	118.27
270.403	36.35
270.619	42.5
270.835	34.3
271.051	73.21
271.267	-51.71
271.483	3.58
271.698	67.07
271.914	93.69
272.13	95.74
272.346	-8.7
272.562	17.92
272.777	110.08
272.993	46.59
273.209	-6.66
273.425	7.68
273.64	-27.14
273.856	19.97
274.072	32.26
274.287	24.06
274.503	105.98
274.719	60.93
274.934	-23.04
275.15	44.54
275.366	-10.75
275.581	-18.94
275.797	62.98
276.012	-31.23
276.228	15.87
276.444	-0.51
276.659	3.58
276.875	50.69
277.09	-14.85
277.306	-33.28
277.521	91.65
277.737	83.45
277.952	75.26
278.168	42.5
278.383	54.78
278.599	1.54
278.814	46.59
279.03	34.3
279.245	89.6
279.461	13.82
279.676	24.06
279.892	30.21
280.107	-10.75
280.322	-35.33
280.538	42.5
280.753	-4.61
280.969	38.4
281.184	65.02
281.399	-16.9
281.615	42.5
281.83	71.17
282.045	-27.14
282.26	32.26
282.476	75.26
282.691	32.26
282.906	56.83
283.122	50.69
283.337	17.92
283.552	5.63
283.767	60.93
283.983	69.12
284.198	26.11
284.413	48.64
284.628	30.21
284.843	81.41
285.058	32.26
285.274	28.16
285.489	60.93
285.704	71.17
285.919	-57.86
286.134	79.36
286.349	87.55
286.564	36.35
286.779	54.78
286.995	15.87
287.21	67.07
287.425	28.16
287.64	-25.09
287.855	26.11
288.07	13.82
288.285	91.65
288.5	71.17
288.715	118.27
288.93	30.21
289.145	73.21
289.36	28.16
289.575	1.54
289.79	24.06
290.004	38.4
290.219	75.26
290.434	26.11
290.649	40.45
290.864	28.16
291.079	-43.52
291.294	56.83
291.509	116.22
291.724	-37.38
291.938	58.88
292.153	-33.28
292.368	46.59
292.583	-31.23
292.798	32.26
293.012	34.3
293.227	79.36
293.442	24.06
293.657	73.21
293.871	118.27
294.086	73.21
294.301	132.61
294.516	48.64
294.73	60.93
294.945	-66.05
295.16	-14.85
295.374	5.63
295.589	89.6
295.804	50.69
296.018	-33.28
296.233	54.78
296.447	48.64
296.662	-45.57
296.877	71.17
297.091	60.93
297.306	-20.99
297.52	13.82
297.735	132.61
297.949	1.54
298.164	24.06
298.378	-6.66
298.593	28.16
298.807	-6.66
299.022	91.65
299.236	7.68
299.451	46.59
299.665	38.4
299.88	34.3
300.094	26.11
300.309	24.06
300.523	44.54
300.737	-59.9
300.952	112.13
301.166	-10.75
301.381	-25.09
301.595	34.3
301.809	7.68
302.024	34.3
302.238	-12.8
302.452	73.21
302.667	5.63
302.881	91.65
303.095	58.88
303.309	128.51
303.524	38.4
303.738	50.69
303.952	3.58
304.166	38.4
304.381	-51.71
304.595	19.97
304.809	144.89
305.023	34.3
305.237	-14.85
305.452	48.64
305.666	65.02
305.88	-10.75
306.094	34.3
306.308	73.21
306.522	91.65
306.736	69.12
306.95	3.58
307.164	32.26
307.379	-8.7
307.593	56.83
307.807	108.03
308.021	15.87
308.235	34.3
308.449	-94.72
308.663	-12.8
308.877	71.17
309.091	56.83
309.305	13.82
309.519	1.54
309.733	142.85
309.947	87.55
310.161	28.16
310.374	93.69
310.588	5.63
310.802	15.87
311.016	54.78
311.23	58.88
311.444	24.06
311.658	19.97
311.872	-10.75
312.085	-39.42
312.299	73.21
312.513	73.21
312.727	19.97
312.941	1.54
313.154	77.31
313.368	7.68
313.582	13.82
313.796	73.21
314.009	1.54
314.223	114.17
314.437	-33.28
314.651	67.07
314.864	-8.7
315.078	58.88
315.292	103.93
315.505	89.6
315.719	52.74
315.933	56.83
316.146	13.82
316.36	-64
316.573	60.93
316.787	73.21
317.001	-25.09
317.214	60.93
317.428	50.69
317.641	-4.61
317.855	-6.66
318.068	85.5
318.282	83.45
318.495	124.41
318.709	-6.66
318.922	69.12
319.136	34.3
319.349	24.06
319.563	56.83
319.776	65.02
319.99	1.54
320.203	103.93
320.417	26.11
320.63	99.84
320.843	46.59
321.057	-8.7
321.27	13.82
321.483	22.02
321.697	17.92
321.91	87.55
322.124	73.21
322.337	15.87
322.55	28.16
322.763	17.92
322.977	50.69
323.19	103.93
323.403	11.78
323.617	50.69
323.83	46.59
324.043	32.26
324.256	136.7
324.469	-0.51
324.683	75.26
324.896	40.45
325.109	105.98
325.322	-41.47
325.535	40.45
325.748	44.54
325.962	5.63
326.175	36.35
326.388	103.93
326.601	60.93
326.814	-6.66
327.027	87.55
327.24	73.21
327.453	19.97
327.666	130.56
327.879	69.12
328.092	83.45
328.305	83.45
328.518	-8.7
328.731	36.35
328.944	54.78
329.157	24.06
329.37	-23.04
329.583	48.64
329.796	62.98
330.009	73.21
330.222	-31.23
330.435	28.16
330.648	99.84
330.861	24.06
331.073	40.45
331.286	7.68
331.499	-12.8
331.712	48.64
331.925	46.59
332.138	-16.9
332.35	126.46
332.563	-61.95
332.776	24.06
332.989	1.54
333.202	77.31
333.414	58.88
333.627	17.92
333.84	46.59
334.053	54.78
334.265	9.73
334.478	32.26
334.691	36.35
334.903	46.59
335.116	71.17
335.329	32.26
335.541	101.89
335.754	-37.38
335.966	-2.56
336.179	54.78
336.392	85.5
336.604	50.69
336.817	155.13
337.029	122.37
337.242	1.54
337.454	81.41
337.667	-4.61
337.88	42.5
338.092	-14.85
338.305	128.51
338.517	-33.28
338.729	-16.9
338.942	17.92
339.154	17.92
339.367	24.06
339.579	28.16
339.792	-14.85
340.004	42.5
340.217	48.64
340.429	-27.14
340.641	38.4
340.854	62.98
341.066	26.11
341.278	30.21
341.491	87.55
341.703	99.84
341.915	77.31
342.128	93.69
342.34	1.54
342.552	22.02
342.764	81.41
342.977	-0.51
343.189	75.26
343.401	28.16
343.613	5.63
343.826	73.21
344.038	97.79
344.25	28.16
344.462	42.5
344.674	93.69
344.886	-0.51
345.099	34.3
345.311	65.02
345.523	5.63
345.735	-39.42
345.947	44.54
346.159	48.64
346.371	87.55
346.583	15.87
346.795	42.5
347.007	44.54
347.219	13.82
347.431	-6.66
347.643	32.26
347.855	-16.9
348.067	126.46
348.279	103.93
348.491	40.45
348.703	15.87
348.915	40.45
349.127	-12.8
349.339	136.7
349.551	71.17
349.763	56.83
349.975	58.88
350.187	118.27
350.399	50.69
350.61	85.5
350.822	26.11
351.034	73.21
351.246	28.16
351.458	81.41
351.669	81.41
351.881	103.93
352.093	91.65
352.305	58.88
352.517	52.74
352.728	44.54
352.94	91.65
353.152	60.93
353.363	-72.19
353.575	114.17
353.787	69.12
353.999	95.74
354.21	95.74
354.422	112.13
354.633	56.83
354.845	15.87
355.057	58.88
355.268	50.69
355.48	46.59
355.692	99.84
355.903	3.58
356.115	79.36
356.326	9.73
356.538	99.84
356.749	89.6
356.961	159.23
357.172	56.83
357.384	24.06
357.595	103.93
357.807	58.88
358.018	11.78
358.23	48.64
358.441	89.6
358.653	118.27
358.864	60.93
359.075	91.65
359.287	40.45
359.498	67.07
359.709	132.61
359.921	52.74
360.132	52.74
360.344	124.41
360.555	32.26
360.766	54.78
360.977	-8.7
361.189	22.02
361.4	56.83
361.611	44.54
361.823	110.08
362.034	52.74
362.245	19.97
362.456	28.16
362.667	138.75
362.879	40.45
363.09	126.46
363.301	-41.47
363.512	19.97
363.723	65.02
363.935	36.35
364.146	93.69
364.357	62.98
364.568	85.5
364.779	24.06
364.99	118.27
365.201	91.65
365.412	101.89
365.623	44.54
365.834	116.22
366.045	62.98
366.256	71.17
366.467	142.85
366.678	36.35
366.889	54.78
367.1	65.02
367.311	83.45
367.522	48.64
367.733	146.94
367.944	50.69
368.155	67.07
368.366	112.13
368.577	44.54
368.788	60.93
368.999	62.98
369.209	67.07
369.42	67.07
369.631	71.17
369.842	7.68
370.053	40.45
370.264	62.98
370.474	65.02
370.685	54.78
370.896	79.36
371.107	38.4
371.317	15.87
371.528	30.21
371.739	62.98
371.95	3.58
372.16	56.83
372.371	67.07
372.582	132.61
372.792	5.63
373.003	110.08
373.214	58.88
373.424	105.98
373.635	128.51
373.846	99.84
374.056	38.4
374.267	-14.85
374.477	85.5
374.688	101.89
374.898	77.31
375.109	46.59
375.319	114.17
375.53	91.65
375.74	54.78
375.951	159.23
376.161	77.31
376.372	48.64
376.582	34.3
376.793	28.16
377.003	50.69
377.214	75.26
377.424	83.45
377.635	50.69
377.845	11.78
378.055	114.17
378.266	30.21
378.476	22.02
378.686	22.02
378.897	67.07
379.107	-25.09
379.317	132.61
379.528	28.16
379.738	36.35
379.948	56.83
380.158	132.61
380.369	48.64
380.579	89.6
380.789	93.69
380.999	28.16
381.21	146.94
381.42	81.41
381.63	99.84
381.84	1.54
382.05	44.54
382.261	87.55
382.471	19.97
382.681	73.21
382.891	114.17
383.101	56.83
383.311	-12.8
383.521	30.21
383.731	105.98
383.941	105.98
384.151	134.65
384.361	42.5
384.571	108.03
384.781	71.17
384.991	77.31
385.201	105.98
385.411	101.89
385.621	105.98
385.831	44.54
386.041	44.54
386.251	38.4
386.461	89.6
386.671	79.36
386.881	89.6
387.091	93.69
387.301	50.69
387.511	48.64
387.72	130.56
387.93	48.64
388.14	108.03
388.35	105.98
388.56	32.26
388.769	83.45
388.979	28.16
389.189	3.58
389.399	67.07
389.609	134.65
389.818	62.98
390.028	65.02
390.238	83.45
390.447	17.92
390.657	103.93
390.867	50.69
391.076	136.7
391.286	79.36
391.496	62.98
391.705	81.41
391.915	95.74
392.125	126.46
392.334	118.27
392.544	101.89
392.753	126.46
392.963	69.12
393.172	157.18
393.382	69.12
393.591	192
393.801	75.26
394.01	148.99
394.22	85.5
394.429	97.79
394.639	52.74
394.848	89.6
395.058	22.02
395.267	122.37
395.477	116.22
395.686	189.95
395.895	128.51
396.105	163.33
396.314	97.79
396.524	159.23
396.733	122.37
396.942	120.32
397.152	153.09
397.361	159.23
397.57	126.46
397.78	134.65
397.989	189.95
398.198	116.22
398.407	132.61
398.617	120.32
398.826	108.03
399.035	146.94
399.244	136.7
399.453	124.41
399.663	83.45
399.872	112.13
400.081	120.32
400.29	183.81
400.499	81.41
400.708	146.94
400.917	118.27
401.127	81.41
401.336	122.37
401.545	124.41
401.754	155.13
401.963	202.24
402.172	183.81
402.381	175.61
402.59	146.94
402.799	179.71
403.008	134.65
403.217	200.19
403.426	159.23
403.635	237.05
403.844	171.52
404.053	198.14
404.262	151.04
404.471	202.24
404.68	210.43
404.888	185.85
405.097	185.85
405.306	228.86
405.515	105.98
405.724	202.24
405.933	284.16
406.142	257.53
406.35	294.4
406.559	306.68
406.768	316.92
406.977	394.75
407.185	343.55
407.394	321.02
407.603	167.42
407.812	327.16
408.02	357.88
408.229	355.83
408.438	372.22
408.646	302.59
408.855	333.31
409.064	355.83
409.272	368.12
409.481	411.13
409.69	427.51
409.898	458.23
410.107	382.46
410.315	450.04
410.524	437.75
410.733	462.33
410.941	486.9
411.15	497.14
411.358	509.43
411.567	521.72
411.775	566.78
411.984	529.91
412.192	634.36
412.401	585.21
412.609	695.8
412.818	769.52
413.026	652.79
413.234	693.75
413.443	720.37
413.651	765.43
413.86	753.14
414.068	937.46
414.276	908.79
414.485	933.36
414.693	927.22
414.901	939.51
415.11	1039.86
415.318	1007.09
415.526	1103.34
415.734	1050.1
415.943	1078.77
416.151	1111.54
416.359	1211.89
416.567	1220.08
416.776	1144.3
416.984	1369.58
417.192	1426.92
417.4	1330.67
417.608	1342.96
417.817	1492.46
418.025	1529.32
418.233	1674.73
418.441	1687.01
418.649	1709.54
418.857	1777.12
419.065	1912.29
419.273	1826.28
419.481	1871.33
419.689	2033.12
419.897	2180.57
420.105	2156
420.313	2301.4
420.521	2293.21
420.729	2385.37
420.937	2442.71
421.145	2532.83
421.353	2563.54
421.561	2735.57
421.769	2760.15
421.977	3024.34
422.185	2975.19
422.393	3055.06
422.601	3335.63
422.809	3104.21
423.017	3325.39
423.224	3478.99
423.432	3585.48
423.64	3610.06
423.848	4042.18
424.056	3849.67
424.263	4064.71
424.471	4103.62
424.679	4232.64
424.887	4468.16
425.094	4521.4
425.302	4683.19
425.51	4728.25
425.718	4900.28
425.925	5041.59
426.133	5277.1
426.341	5547.44
426.548	5764.52
426.756	5727.66
426.964	5911.97
427.171	6043.04
427.379	6301.09
427.586	6448.54
427.794	6532.51
428.001	6890.9
428.209	7114.13
428.417	7179.67
428.624	7613.84
428.832	7472.53
429.039	7398.8
429.247	7554.44
429.454	8404.35
429.662	8779.13
429.869	8240.51
430.076	8953.21
430.284	8545.66
430.491	9090.42
430.699	9522.54
430.906	9420.14
431.114	9739.63
431.321	9913.7
431.528	10161.51
431.736	10796.38
431.943	11287.89
432.15	10861.91
432.358	10870.11
432.565	11732.3
432.772	11554.13
432.979	12332.36
433.187	12164.42
433.394	12639.55
433.601	13591.86
433.808	13552.95
434.016	13421.88
434.223	13763.89
434.43	14853.41
434.637	14585.12
434.844	15449.36
435.052	15471.89
435.259	15582.48
435.466	15856.91
435.673	15715.6
435.88	16489.73
436.087	17304.82
436.294	17444.09
436.501	17063.16
436.708	17341.69
436.915	18134.25
437.122	18760.93
437.329	18865.38
437.537	19469.53
437.743	19612.88
437.95	19633.36
438.157	20561.09
438.364	21146.81
438.571	21238.97
438.778	20999.36
438.985	23340.19
439.192	22310.06
439.399	22908.07
439.606	22590.63
439.813	23798.93
440.02	25068.67
440.227	24665.22
440.433	24392.84
440.64	25416.83
440.847	25216.13
441.054	25910.39
441.261	27411.55
441.467	27229.28
441.674	27735.13
441.881	28599.37
442.088	28478.54
442.294	28402.77
442.501	29078.6
442.708	29713.47
442.914	30673.96
443.121	31999
443.328	31237.16
443.534	33248.26
443.741	32316.43
443.948	31966.23
444.154	34339.83
444.361	34159.61
444.568	34251.77
444.774	34354.16
444.981	34829.29
445.187	35578.85
445.394	37028.81
445.6	36606.93
445.807	40031.13
446.013	38478.77
446.22	38910.89
446.426	40450.97
446.633	40866.7
446.839	42537.85
447.046	40594.32
447.252	42828.66
447.459	43127.66
447.665	42390.39
447.871	44479.32
448.078	46289.73
448.284	44544.86
448.491	45228.88
448.697	47338.29
448.903	47711.02
449.11	47934.24
449.316	47016.75
449.522	47821.61
449.728	49199.89
449.935	49326.86
450.141	49283.86
450.347	50422.53
450.553	49058.58
450.76	49539.85
450.966	51587.82
451.172	50719.48
451.378	51632.88
451.584	50639.61
451.791	52177.64
451.997	51636.97
452.203	52955.86
452.409	52663
452.615	52028.13
452.821	50518.78
453.027	49845
453.233	52304.61
453.44	50547.45
453.646	50719.48
453.852	51294.96
454.058	51903.21
454.264	50078.47
454.47	50989.81
454.676	49933.06
454.882	51929.83
455.088	47559.47
455.294	48106.27
455.5	48505.63
455.705	48685.85
455.911	46988.08
456.117	46498.62
456.323	46046.02
456.529	43234.16
456.735	45228.88
456.941	44366.68
457.147	43092.85
457.352	42083.2
457.558	41323.4
457.764	41534.34
457.97	40817.55
458.176	40199.07
458.381	40031.13
458.587	37774.27
458.793	38120.38
458.999	36174.81
459.204	38556.6
459.41	37452.74
459.616	34860.01
459.821	35195.88
460.027	34667.5
460.233	33948.67
460.438	32586.77
460.644	32982.02
460.85	31396.9
461.055	30839.85
461.261	30764.07
461.466	28644.43
461.672	27776.09
461.878	29271.11
462.083	27640.92
462.289	27223.14
462.494	27051.11
462.7	25543.8
462.905	24919.17
463.111	25863.29
463.316	25779.32
463.522	25345.15
463.727	25523.32
463.932	25312.38
464.138	24919.17
464.343	24894.6
464.549	24456.33
464.754	25095.3
464.959	25121.92
465.165	24767.62
465.37	23966.87
465.575	23172.25
465.781	24321.16
465.986	24728.71
466.191	23389.34
466.397	22709.41
466.602	21802.16
466.807	22680.74
467.012	22893.73
467.218	22480.04
467.423	22326.44
467.628	22443.18
467.833	23135.39
468.038	22375.59
468.244	21687.48
468.449	22826.15
468.654	21824.69
468.859	21693.62
469.064	21873.84
469.269	20749.51
469.474	20913.34
469.679	21413.05
469.885	20712.64
470.09	21060.8
470.295	21185.72
470.5	20323.53
470.705	20772.04
470.91	20051.15
471.115	19930.32
471.32	20081.87
471.525	20065.49
471.73	19416.28
471.935	19520.73
472.139	18781.41
472.344	18992.35
472.549	18863.33
472.754	18668.77
472.959	18279.66
473.164	17759.47
473.369	17698.03
473.574	18547.94
473.778	18087.15
473.983	17759.47
474.188	17814.77
474.393	17032.44
474.598	16993.53
474.802	16999.68
475.007	16928
475.212	16676.1
475.417	16200.97
475.621	16420.1
475.826	16268.55
476.031	15928.59
476.235	15592.72
476.44	15901.97
476.645	15557.91
476.849	15500.56
477.054	15498.52
477.259	15381.78
477.463	15357.21
477.668	15111.45
477.872	15043.87
478.077	14656.8
478.282	14333.22
478.486	14386.47
478.691	14169.38
478.895	14253.35
479.1	14200.1
479.304	14167.34
479.509	13397.3
479.713	13944.11
479.918	13614.38
480.122	13530.42
480.326	13608.24
480.531	13675.82
480.735	13604.14
480.94	13409.59
481.144	13593.9
481.348	13147.45
481.553	13315.38
481.757	12899.64
481.961	13262.13
482.166	13399.35
482.37	13237.56
482.574	13002.04
482.778	13141.3
482.983	13409.59
483.187	12963.13
483.391	13362.48
483.595	13065.53
483.8	12821.82
484.004	12989.75
484.208	13165.88
484.412	13225.27
484.616	12995.9
484.821	13129.02
485.025	12789.05
485.229	13358.39
485.433	13241.65
485.637	13047.1
485.841	13024.57
486.045	12963.13
486.249	12918.07
486.453	12940.6
486.657	13088.06
486.861	13319.48
487.065	12856.64
487.269	12993.85
487.473	12842.3
487.677	13180.21
487.881	13088.06
488.085	13055.29
488.289	13208.89
488.493	12942.65
488.697	13239.61
488.901	13108.54
489.105	13002.04
489.309	13122.87
489.512	13016.38
489.716	13198.65
489.92	13215.03
490.124	13040.95
490.328	13397.3
490.531	13186.36
490.735	13299
490.939	13628.72
491.143	13440.31
491.346	13419.83
491.55	13714.73
491.754	13602.1
491.958	13724.97
492.161	13716.78
492.365	13770.03
492.569	13542.71
492.772	13976.87
492.976	14122.28
493.18	13999.4
493.383	14302.5
493.587	14109.99
493.79	14585.12
493.994	13925.68
494.197	14361.89
494.401	14406.95
494.605	14466.34
494.808	14994.72
495.012	14935.32
495.215	14787.87
495.419	15338.77
495.622	14927.13
495.825	15230.23
496.029	15013.15
496.232	15594.77
496.436	15443.22
496.639	15836.43
496.843	15725.84
497.046	16016.65
497.249	16276.74
497.453	16387.33
497.656	16524.55
497.859	16667.91
498.063	16725.25
498.266	16893.18
498.469	16950.53
498.673	17315.06
498.876	17339.64
499.079	17489.14
499.282	17605.88
499.485	18218.22
499.689	18089.2
499.892	18068.72
500.095	18357.48
500.298	18945.25
500.501	18523.37
500.705	19283.16
500.908	19731.67
501.111	19412.18
501.314	19766.48
501.517	19836.11
501.72	19991.76
501.923	20075.73
502.126	20620.49
502.329	20868.29
502.532	20966.59
502.735	21099.71
502.938	21671.09
503.141	21591.22
503.344	21890.23
503.547	22015.15
503.75	22412.46
503.953	22656.17
504.156	22932.64
504.359	23022.75
504.562	22932.64
504.765	23606.42
504.968	23936.15
505.17	24102.03
505.373	23897.24
505.576	24724.61
505.779	24722.57
505.982	24812.68
506.185	25244.8
506.387	25330.81
506.59	25494.65
506.793	26190.96
506.996	26121.33
507.198	26997.86
507.401	26729.58
507.604	26946.66
507.807	27448.41
508.009	27694.17
508.212	27501.66
508.415	28056.66
508.617	28273.74
508.82	28431.44
509.022	28587.08
509.225	29373.5
509.428	29531.2
509.63	29635.64
509.833	29881.4
510.035	30571.57
510.238	30125.11
510.44	30891.05
510.643	31255.59
510.845	31570.97
511.048	31527.97
511.25	32312.34
511.453	32101.4
511.655	33358.85
511.858	32689.17
512.06	33088.52
512.262	33281.03
512.465	33133.57
512.667	33864.7
512.87	34360.31
513.072	34298.87
513.274	34995.18
513.477	35173.35
513.679	35292.13
513.881	35980.25
514.084	36352.98
514.286	36004.83
514.488	36373.46
514.69	37270.47
514.893	37374.92
515.095	37383.11
515.297	38198.2
515.499	38269.88
515.701	38474.68
515.904	39265.19
516.106	39089.07
516.308	39779.23
516.51	39871.39
516.712	39932.83
516.914	40479.64
517.116	41141.13
517.318	41120.65
517.52	41018.25
517.722	41366.41
517.925	42150.78
518.127	42472.31
518.329	42515.32
518.531	42226.56
518.733	43340.65
518.935	43328.36
519.136	43338.6
519.338	44538.71
519.54	44528.47
519.742	44729.17
519.944	45044.56
520.146	45654.86
520.348	45275.98
520.55	45945.67
520.752	45816.64
520.954	46639.93
521.155	46717.75
521.357	47016.75
521.559	47723.3
521.761	47893.29
521.963	47782.69
522.164	48225.06
522.366	48161.57
522.568	48507.68
522.77	48833.3
522.971	49502.99
523.173	49068.82
523.375	49847.05
523.576	49650.44
523.778	50207.49
523.98	50582.27
524.181	50946.81
524.383	50508.54
524.584	51006.2
524.786	50901.75
524.988	51073.78
525.189	51757.8
525.391	51526.38
525.592	52206.31
525.794	52122.34
525.995	52312.8
526.197	52089.57
526.398	52425.44
526.6	52759.26
526.801	52859.61
527.003	53129.94
527.204	53031.64
527.406	53678.8
527.607	53609.17
527.808	53707.47
528.01	53045.97
528.211	53160.66
528.412	54432.45
528.614	53865.16
528.815	53813.96
529.016	54710.97
529.218	54160.07
529.419	54346.43
529.62	54651.58
529.822	54465.22
530.023	54627.01
530.224	54274.76
530.425	54463.17
530.626	54289.09
530.828	54168.26
531.029	55612.08
531.23	54534.85
531.431	54760.12
531.632	54706.88
531.833	54528.7
532.035	54743.74
532.236	54911.67
532.437	54944.44
532.638	54805.18
532.839	55210.68
533.04	55081.66
533.241	54520.51
533.442	55896.75
533.643	55175.86
533.844	54946.49
534.045	55317.17
534.246	54883
534.447	55325.36
534.648	54715.07
534.849	55091.9
535.05	54491.84
535.251	54913.72
535.451	54588.1
535.652	54860.47
535.853	55331.51
536.054	55415.47
536.255	55069.37
536.456	55110.33
536.657	55468.72
536.857	54741.69
537.058	54518.46
537.259	55370.42
537.46	55182.01
537.66	54688.45
537.861	55315.12
538.062	55120.57
538.263	54842.04
538.463	54813.37
538.664	54887.1
538.865	55081.66
539.065	54878.91
539.266	54307.52
539.466	55470.77
539.667	54174.41
539.868	54719.17
540.068	54504.13
540.269	54547.14
540.469	54868.67
540.67	54248.13
540.87	54620.86
541.071	54532.8
541.271	54805.18
541.472	54393.54
541.672	53641.93
541.873	54215.36
542.073	53816.01
542.274	54614.72
542.474	54260.42
542.675	54076.1
542.875	54616.77
543.075	53942.98
543.276	53744.33
543.476	54432.45
543.676	54031.05
543.877	54248.13
544.077	54604.48
544.277	53768.91
544.478	53863.11
544.678	54686.4
544.878	53836.49
545.078	53805.77
545.279	53768.91
545.479	53674.7
545.679	53928.65
545.879	53940.94
546.079	53488.34
546.28	53693.13
546.48	53584.59
546.68	53580.49
546.88	53744.33
547.08	53480.14
547.28	53099.22
547.48	52892.38
547.68	53762.76
547.88	53424.85
548.081	53732.04
548.281	53412.56
548.481	53066.45
548.681	53822.15
548.881	53088.98
549.081	53449.42
549.28	52880.09
549.48	53355.22
549.68	53134.04
549.88	53754.57
550.08	52622.05
550.28	53383.89
550.48	52919
550.68	53486.29
550.88	53039.83
551.08	52607.71
551.279	53226.2
551.479	52523.74
551.679	52978.39
551.879	52431.58
552.079	52953.82
552.278	52935.38
552.478	52620
552.678	52587.23
552.878	52695.77
553.077	52675.29
553.277	52472.54
553.477	52906.71
553.676	52417.25
553.876	52409.06
554.076	52388.58
554.275	52427.49
554.475	51866.34
554.674	52562.65
554.874	52298.47
555.074	52261.6
555.273	52413.15
555.473	52769.5
555.672	51720.94
555.872	51895.02
556.071	52171.49
556.271	52245.22
556.47	51573.49
556.67	51174.13
556.869	51536.62
557.068	51874.54
557.268	51321.58
557.467	51663.6
557.667	51831.53
557.866	51755.75
558.065	51356.4
558.265	51546.86
558.464	51225.33
558.663	51475.18
558.863	50948.85
559.062	51661.55
559.261	51249.91
559.461	51958.5
559.66	50676.47
559.859	50883.32
560.058	50709.24
560.258	50821.88
560.457	50092.8
560.656	50772.73
560.855	50584.32
561.054	51143.41
561.253	50369.28
561.453	50598.65
561.652	50805.5
561.851	50780.92
562.05	50397.95
562.249	49806.09
562.448	50367.23
562.647	50313.98
562.846	49926.92
563.045	50393.86
563.244	49464.08
563.443	50004.74
563.642	48968.47
563.841	49623.82
564.04	49380.11
564.239	50000.65
564.438	49400.59
564.637	49660.68
564.836	49435.41
565.035	48900.89
565.234	49281.81
565.432	49195.79
565.631	48968.47
565.83	49378.06
566.029	48358.17
566.228	48567.07
566.427	48575.26
566.625	48161.57
566.824	48046.88
567.023	48730.9
567.222	47639.34
567.42	48325.41
567.619	48081.7
567.818	48251.68
568.016	47893.29
568.215	47930.15
568.414	47581.99
568.612	48091.94
568.811	47686.44
569.01	47878.95
569.208	46818.1
569.407	47338.29
569.605	47053.62
569.804	47672.1
570.002	46904.12
570.201	47264.56
570.4	46596.92
570.598	46850.87
570.797	46641.98
570.995	46756.66
571.193	46154.56
571.392	46865.2
571.59	46064.45
571.789	46144.32
571.987	46089.02
572.186	46207.81
572.384	45718.34
572.582	45876.04
572.781	45935.43
572.979	45472.59
573.177	46009.15
573.376	45656.9
573.574	44831.57
573.772	45884.23
573.971	45151.06
574.169	44661.59
574.367	45065.04
574.565	45040.46
574.763	44751.7
574.962	44727.13
575.16	44415.83
575.358	44540.76
575.556	44073.82
575.754	44507.99
575.952	44178.27
576.151	44368.73
576.349	43742.05
576.547	43746.15
576.745	43973.47
576.943	43799.4
577.141	43703.14
577.339	43627.37
577.537	43250.54
577.735	43293.55
577.933	43053.94
578.131	43373.42
578.329	42791.8
578.527	42675.06
578.725	42709.88
578.923	43125.61
579.121	42570.61
579.319	42228.6
579.516	42505.08
579.714	42576.76
579.912	42396.54
580.11	42361.72
580.308	42455.93
580.506	41712.52
580.704	41171.85
580.901	41950.08
581.099	42029.95
581.297	41677.7
581.495	41268.11
581.692	41765.76
581.89	40958.86
582.088	41460.62
582.285	40778.64
582.483	41046.93
582.681	40936.34
582.878	40866.7
583.076	40518.55
583.274	40631.19
583.471	40448.92
583.669	40739.73
583.866	40303.51
584.064	40561.56
584.262	39957.41
584.459	40235.93
584.657	40037.28
584.854	39746.47
585.052	39404.45
585.249	39748.51
585.447	39396.26
585.644	39267.24
585.841	39125.93
586.039	39297.96
586.236	38558.64
586.434	38749.1
586.631	38546.36
586.828	38775.73
587.026	38841.26
587.223	38503.35
587.42	38359.99
587.618	38208.44
587.815	37966.78
588.012	38173.63
588.21	37690.3
588.407	38540.21
588.604	37718.98
588.801	37741.5
588.999	37307.33
589.196	37413.83
589.393	37358.53
589.59	37268.42
589.787	36768.72
589.984	36772.81
590.182	37028.81
590.379	36824.01
590.576	36561.87
590.773	36592.59
590.97	36361.17
591.167	36910.03
591.364	36058.07
591.561	36611.03
591.758	36066.27
591.955	35675.1
592.152	36316.12
592.349	35722.21
592.546	35656.67
592.743	35570.66
592.94	35034.09
593.137	35705.82
593.334	35572.71
593.531	34794.48
593.727	35171.3
593.924	34919.4
594.121	35021.8
594.318	34896.88
594.515	34382.84
594.712	34812.91
594.908	34259.96
595.105	34798.57
595.302	33772.54
595.499	34247.67
595.696	33938.43
595.892	33477.63
596.089	33655.81
596.286	33956.86
596.482	33788.92
596.679	33332.23
596.876	33840.12
597.072	33188.87
597.269	33504.26
597.466	33065.99
597.662	33180.68
597.859	33025.03
598.055	32775.18
598.252	32967.69
598.448	32582.67
598.645	32142.36
598.841	32304.15
599.038	32637.97
599.234	32656.4
599.431	31835.16
599.627	32306.2
599.824	32195.6
600.02	31638.56
600.217	32035.86
600.413	31663.13
600.609	31376.42
600.806	31366.18
601.002	31376.42
601.198	31417.38
601.395	31274.02
601.591	30934.06
601.787	30999.59
601.984	30587.95
602.18	31130.66
602.376	30628.91
602.572	30719.02
602.769	30993.45
602.965	30260.27
603.161	30411.82
603.357	29932.6
603.553	30309.43
603.75	30481.45
603.946	29707.32
604.142	30204.98
604.338	29408.32
604.534	29742.14
604.73	29541.44
604.926	29713.47
605.122	29555.77
605.318	29467.71
605.514	29330.5
605.71	29144.13
605.906	28900.42
606.102	28974.15
606.298	28929.09
606.494	28879.94
606.69	29064.26
606.886	28808.26
607.082	28552.27
607.278	28920.9
607.474	28134.48
607.67	28449.87
607.866	28027.99
608.062	28345.42
608.257	28415.05
608.453	28322.9
608.649	28306.51
608.845	27946.07
609.041	28036.18
609.236	28128.34
609.432	27853.91
609.628	27800.66
609.824	27647.07
610.019	27472.99
610.215	27712.6
610.411	27583.58
610.606	27733.08
610.802	27587.68
610.998	27694.17
611.193	27436.13
611.389	27452.51
611.584	27311.2
611.78	27376.73
611.976	27141.22
612.171	27085.92
612.367	26936.42
612.562	27077.73
612.758	26707.05
612.953	27122.79
613.149	27278.43
613.344	26612.84
613.539	27288.67
613.735	26625.13
613.93	26600.55
614.126	26317.93
614.321	26686.57
614.517	26426.48
614.712	26465.39
614.907	26362.99
615.103	26324.08
615.298	25861.24
615.493	26332.27
615.688	25726.07
615.884	26319.98
616.079	25918.58
616.274	26270.83
616.47	26070.13
616.665	26031.22
616.86	25508.99
617.055	25752.7
617.25	25887.86
617.445	25547.9
617.641	25396.35
617.836	25783.41
618.031	25455.74
618.226	25801.85
618.421	25322.62
618.616	25519.23
618.811	25162.88
619.006	25312.38
619.201	24847.49
619.396	24710.28
619.591	24482.95
619.786	24863.88
619.981	24335.5
620.176	24517.77
620.371	24206.48
620.566	24347.79
620.761	23956.63
620.956	24573.07
621.151	23641.24
621.346	23944.34
621.541	23700.63
621.735	23794.84
621.93	23653.53
622.125	23573.66
622.32	23184.54
622.515	23553.18
622.709	23094.43
622.904	23209.12
623.099	23030.94
623.294	22969.51
623.488	22727.85
623.683	22764.71
623.878	22004.91
624.072	22330.54
624.267	21877.94
624.462	21888.18
624.656	21888.18
624.851	22013.1
625.046	21521.59
625.24	21664.95
625.435	21429.43
625.629	21390.52
625.824	21253.31
626.018	21179.58
626.213	20839.62
626.407	21003.46
626.602	20552.9
626.796	20821.19
626.991	20804.8
627.185	20583.62
627.38	20219.08
627.574	20184.27
627.768	20092.11
627.963	20131.02
628.157	19676.37
628.352	20176.08
628.546	19625.17
628.74	19842.26
628.935	19571.93
629.129	19592.41
629.323	19121.37
629.517	19322.07
629.712	19113.18
629.906	19436.76
630.1	18699.49
630.294	18793.7
630.489	18826.46
630.683	19127.52
630.877	18441.45
631.071	18228.46
631.265	18582.76
631.459	18461.93
631.653	18058.48
631.848	18099.44
632.042	17827.06
632.236	18017.52
632.43	17661.17
632.624	17845.49
632.818	17708.27
633.012	17439.99
633.206	17431.8
633.4	17323.26
633.594	17216.76
633.788	17100.03
633.982	17075.45
634.176	17067.26
634.369	16973.05
634.563	16841.98
634.757	16766.21
634.951	16930.05
635.145	16606.47
635.339	16651.52
635.533	16344.33
635.726	16387.33
635.92	16098.57
636.114	16028.94
636.308	16114.95
636.501	15981.84
636.695	15826.19
636.889	15709.46
637.083	15865.1
637.276	15662.35
637.47	15799.57
637.664	15453.46
637.857	15533.33
638.051	15392.02
638.244	15318.29
638.438	15248.66
638.632	15353.11
638.825	15002.91
639.019	14693.66
639.212	14724.38
639.406	14808.35
639.599	14724.38
639.793	14636.32
639.986	14454.05
640.18	14507.3
640.373	14517.54
640.567	14261.54
640.76	14177.58
640.954	13987.11
641.147	14091.56
641.34	13927.72
641.534	14073.13
641.727	13946.16
641.92	13821.23
642.114	13610.29
642.307	13501.75
642.5	13481.27
642.694	13260.09
642.887	13464.88
643.08	13368.63
643.273	13389.11
643.467	13231.41
643.66	13231.41
643.853	13133.11
644.046	12918.07
644.239	12877.12
644.432	12938.55
644.626	12823.87
644.819	12735.81
645.012	12805.44
645.205	12883.26
645.398	12645.7
645.591	12512.58
645.784	12629.31
645.977	12254.53
646.17	12223.81
646.363	12162.37
646.556	11918.67
646.749	12082.5
646.942	11976.01
647.135	11918.67
647.328	12086.6
647.521	11785.55
647.714	11726.16
647.907	11644.24
648.099	11836.75
648.292	11695.44
648.485	11597.14
648.678	11476.3
648.871	11335
649.064	11171.16
649.256	11627.85
649.449	11277.65
649.642	11152.73
649.835	10958.17
650.027	11021.66
650.22	10966.36
650.413	10861.91
650.605	10925.4
650.798	10855.77
650.991	10536.29
651.183	10745.18
651.376	10691.93
651.568	10587.49
651.761	10612.06
651.954	10544.48
652.146	10503.52
652.339	10497.38
652.531	10308.96
652.724	10331.49
652.916	10120.55
653.109	10208.61
653.301	10034.53
653.494	10161.51
653.686	9624.94
653.879	9975.14
654.071	10001.77
654.263	9844.07
654.456	9813.35
654.648	9891.18
654.84	9618.8
655.033	9751.92
655.225	9604.46
655.417	9694.57
655.61	9540.97
655.802	9358.71
655.994	9381.23
656.186	9520.49
656.379	9201.01
656.571	9260.4
656.763	9315.7
656.955	8945.02
657.148	9229.68
657.34	9010.55
657.532	8988.02
657.724	8918.39
657.916	8838.52
658.108	8707.45
658.3	8854.9
658.492	8932.73
658.684	8586.62
658.876	8684.92
659.068	8557.95
659.26	8648.06
659.452	8488.32
659.644	8672.64
659.836	8471.93
660.028	8400.26
660.22	8267.14
660.412	8336.77
660.604	8209.79
660.796	8191.36
660.988	8277.38
661.18	8248.71
661.372	8150.4
661.563	8150.4
661.755	7918.98
661.947	8035.72
662.139	7918.98
662.331	7908.74
662.522	7921.03
662.714	7910.79
662.906	7794.06
663.097	7775.63
663.289	7654.8
663.481	7632.27
663.673	7763.34
663.864	7527.82
664.056	7570.83
664.247	7470.48
664.439	7398.8
664.631	7396.75
664.822	7542.16
665.014	7507.34
665.205	7374.22
665.397	7175.57
665.588	7318.93
665.78	7318.93
665.971	7155.09
666.163	7402.9
666.354	7118.23
666.546	6987.16
666.737	7019.92
666.929	6858.14
667.12	7120.28
667.311	7089.56
667.503	6808.98
667.694	6835.61
667.885	6614.43
668.077	6794.65
668.268	6864.28
668.459	6604.19
668.651	6710.68
668.842	6727.07
669.033	6720.92
669.224	6602.14
669.416	6552.99
669.607	6522.27
669.798	6516.12
669.989	6585.76
670.18	6546.84
670.371	6477.21
670.563	6428.06
670.754	6350.24
670.945	6342.05
671.136	6438.3
671.327	6213.03
671.518	6139.3
671.709	6258.08
671.9	6288.8
672.091	6301.09
672.282	6075.81
672.473	5975.46
672.664	6202.79
672.855	6081.96
673.046	6071.72
673.237	6014.37
673.428	5987.75
673.619	6124.96
673.809	5914.02
674	5911.97
674.191	5797.29
674.382	5766.57
674.573	5815.72
674.764	5774.76
674.954	5938.6
675.145	5698.99
675.336	5842.34
675.527	5615.02
675.717	5809.58
675.908	5551.53
676.099	5627.31
676.289	5610.92
676.48	5623.21
676.671	5514.67
676.861	5574.06
677.052	5602.73
677.243	5463.47
677.433	5475.76
677.624	5834.15
677.814	5516.72
678.005	5584.3
678.195	5387.69
678.386	5389.74
678.576	5170.61
678.767	5420.46
678.957	5209.52
679.148	5379.5
679.338	5236.14
679.529	5402.03
679.719	5273.01
679.909	5301.68
680.1	5168.56
680.29	5248.43
680.481	5193.14
680.671	5244.34
680.861	5037.49
681.052	5254.58
681.242	5170.61
681.432	5277.1
681.622	5109.17
681.813	5039.54
682.003	5158.32
682.193	5117.36
682.383	5068.21
682.573	5180.85
682.764	5092.79
682.954	4971.96
683.144	4890.04
683.334	4951.48
683.524	5014.96
683.714	4949.43
683.904	5057.97
684.094	5035.44
684.284	4939.19
684.474	4916.66
684.664	4689.34
684.854	4865.46
685.044	4853.17
685.234	4658.62
685.424	4851.13
685.614	4693.43
685.804	4801.97
685.994	4785.59
686.184	4793.78
686.374	4736.44
686.564	4689.34
686.753	4625.85
686.943	4711.86
687.133	4621.75
687.323	4588.99
687.513	4541.88
687.702	4591.03
687.892	4492.73
688.082	4437.44
688.272	4582.84
688.461	4433.34
688.651	4451.77
688.841	4357.57
689.03	4406.72
689.22	4330.94
689.41	4386.24
689.599	4400.57
689.789	4240.83
689.979	4355.52
690.168	4197.82
690.358	4349.37
690.547	4246.98
690.737	4271.55
690.926	4365.76
691.116	3995.08
691.305	4167.1
691.495	4113.86
691.684	3993.03
691.874	4173.25
692.063	4197.82
692.252	4015.55
692.442	4150.72
692.631	4124.1
692.82	4070.85
693.01	4011.46
693.199	4091.33
693.388	4013.51
693.578	3933.64
693.767	3976.64
693.956	3956.16
694.146	3950.02
694.335	3825.09
694.524	3825.09
694.713	3759.56
694.902	3952.07
695.092	3839.43
695.281	3814.85
695.47	3806.66
695.659	3739.08
695.848	3874.24
696.037	3767.75
696.226	3839.43
696.415	3804.61
696.604	3835.33
696.793	3808.71
696.982	3694.02
697.171	3763.65
697.36	3794.37
697.549	3775.94
697.738	3694.02
697.927	3620.3
698.116	3732.94
698.305	3681.74
698.494	3636.68
698.683	3667.4
698.872	3603.91
699.061	3581.39
699.25	3698.12
699.438	3644.87
699.627	3687.88
699.816	3773.89
700.005	3655.11
700.193	3689.93
700.382	3642.82
700.571	3679.69
700.76	3509.71
700.948	3622.34
701.137	3550.67
701.326	3657.16
701.514	3517.9
701.703	3644.87
701.892	3499.47
702.08	3401.16
702.269	3487.18
702.457	3562.95
702.646	3501.51
702.834	3538.38
703.023	3519.95
703.212	3499.47
703.4	3487.18
703.589	3468.75
703.777	3587.53
703.965	3413.45
704.154	3462.6
704.342	3327.44
704.531	3452.36
704.719	3386.83
704.907	3415.5
705.096	3349.96
705.284	3421.64
705.472	3429.84
705.661	3392.97
705.849	3550.67
706.037	3298.77
706.226	3403.21
706.414	3491.27
706.602	3288.53
706.79	3368.4
706.979	3403.21
707.167	3251.66
707.355	3335.63
707.543	3323.34
707.731	3401.16
707.919	3456.46
708.107	3296.72
708.296	3227.09
708.484	3268.05
708.672	3229.13
708.86	3327.44
709.048	3216.85
709.236	3251.66
709.424	3188.18
709.612	3286.48
709.8	3384.78
709.988	3347.92
710.176	3210.7
710.364	3286.48
710.551	3427.79
710.739	3192.27
710.927	3124.69
711.115	3190.22
711.303	3243.47
711.491	3241.42
711.679	3155.41
711.866	3243.47
712.054	3319.25
712.242	3177.94
712.43	3149.26
712.617	3225.04
712.805	3155.41
712.993	3173.84
713.181	3057.11
713.368	3210.7
713.556	3122.64
713.744	3081.68
713.931	3149.26
714.119	3022.29
714.306	3087.82
714.494	3048.91
714.682	3114.45
714.869	3114.45
715.057	2958.8
715.244	3050.96
715.432	2936.28
715.619	3165.65
715.807	3085.78
715.994	3100.11
716.182	3057.11
716.369	3073.49
716.556	2977.23
716.744	3065.3
716.931	2938.32
717.119	3065.3
717.306	3012.05
717.493	2887.12
717.681	2885.08
717.868	2901.46
718.055	3044.82
718.242	2901.46
718.43	2856.4
718.617	2903.51
718.804	2901.46
718.991	2942.42
719.179	2942.42
719.366	2950.61
719.553	2971.09
719.74	2883.03
719.927	2850.26
720.114	2829.78
720.301	2821.59
720.488	2889.17
720.676	2870.74
720.863	2840.02
721.05	3012.05
721.237	2928.08
721.424	2893.27
721.611	2831.83
721.798	2708.95
721.985	2692.57
722.172	2813.4
722.358	2704.85
722.545	2768.34
722.732	2739.67
722.919	2780.63
723.106	2696.66
723.293	2635.22
723.48	2667.99
723.667	2688.47
723.853	2715.09
724.04	2751.96
724.227	2749.91
724.414	2729.43
724.6	2676.18
724.787	2663.9
724.974	2688.47
725.161	2684.38
725.347	2596.31
725.534	2704.85
725.72	2592.22
725.907	2563.54
726.094	2543.07
726.28	2614.74
726.467	2561.5
726.653	2522.59
726.84	2534.87
727.027	2690.52
727.213	2440.67
727.4	2479.58
727.586	2520.54
727.773	2579.93
727.959	2604.5
728.145	2516.44
728.332	2555.35
728.518	2483.67
728.705	2487.77
728.891	2545.11
729.077	2516.44
729.264	2502.11
729.45	2577.88
729.636	2596.31
729.823	2430.43
730.009	2567.64
730.195	2571.74
730.382	2319.84
730.568	2481.63
730.754	2512.35
730.94	2442.71
731.126	2446.81
731.313	2461.15
731.499	2448.86
731.685	2381.28
731.871	2381.28
732.057	2389.47
732.243	2371.04
732.429	2371.04
732.615	2401.76
732.801	2455
732.987	2264.54
733.173	2385.37
733.359	2438.62
733.545	2330.08
733.731	2352.6
733.917	2368.99
734.103	2221.53
734.289	2280.93
734.475	2368.99
734.661	2362.84
734.847	2319.84
735.033	2368.99
735.219	2325.98
735.404	2356.7
735.59	2256.35
735.776	2280.93
735.962	2311.64
736.148	2323.93
736.333	2325.98
736.519	2323.93
736.705	2264.54
736.89	2248.16
737.076	2237.92
737.262	2233.82
737.447	2231.77
737.633	2268.64
737.819	2266.59
738.004	2250.21
738.19	2231.77
738.375	2156
738.561	2115.04
738.747	2102.75
738.932	2059.74
739.118	2254.3
739.303	2102.75
739.489	2272.73
739.674	2112.99
739.859	2209.25
740.045	2244.06
740.23	2035.17
740.416	2069.98
740.601	1996.26
740.786	2069.98
740.972	2033.12
741.157	2125.28
741.342	2069.98
741.528	2098.66
741.713	2102.75
741.898	2006.5
742.084	1895.91
742.269	2022.88
742.454	1961.44
742.639	1988.07
742.824	2026.98
743.01	1996.26
743.195	1996.26
743.38	1918.43
743.565	1990.11
743.75	1881.57
743.935	1801.7
744.12	1932.77
744.305	1846.76
744.49	1895.91
744.675	1900
744.86	1916.39
745.045	1908.19
745.23	1816.04
745.415	1822.18
745.6	1803.75
745.785	1768.93
745.97	1848.8
746.155	1740.26
746.34	1723.88
746.525	1754.6
746.71	1770.98
746.895	1691.11
747.079	1824.23
747.264	1611.24
747.449	1711.59
747.634	1684.97
747.819	1727.97
748.003	1682.92
748.188	1689.06
748.373	1619.43
748.557	1568.23
748.742	1598.95
748.927	1576.42
749.111	1682.92
749.296	1541.61
749.481	1676.77
749.665	1545.7
749.85	1537.51
750.034	1633.77
750.219	1531.37
750.404	1586.66
750.588	1592.81
750.773	1578.47
750.957	1580.52
751.141	1404.39
751.326	1443.31
751.51	1476.07
751.695	1525.22
751.879	1478.12
752.064	1461.74
752.248	1441.26
752.432	1521.13
752.617	1412.59
752.801	1412.59
752.985	1428.97
753.17	1392.11
753.354	1381.87
753.538	1400.3
753.722	1353.2
753.907	1287.66
754.091	1328.62
754.275	1332.72
754.459	1254.89
754.643	1267.18
754.828	1269.23
755.012	1320.43
755.196	1277.42
755.38	1299.95
755.564	1193.45
755.748	1340.91
755.932	1287.66
756.116	1121.77
756.3	1283.56
756.484	1097.2
756.668	1228.27
756.852	1152.49
757.036	1089.01
757.22	1220.08
757.404	1125.87
757.588	1162.73
757.772	1185.26
757.956	1267.18
758.14	1129.97
758.323	1117.68
758.507	1064.43
758.691	1027.57
758.875	1201.65
759.059	1076.72
759.242	1099.25
759.426	1117.68
759.61	1091.06
759.794	1117.68
759.977	990.7
760.161	1117.68
760.345	1136.11
760.528	1127.92
760.712	1068.53
760.895	1074.67
761.079	990.7
761.263	912.88
761.446	986.61
761.63	1113.58
761.813	1017.33
761.997	982.51
762.18	1068.53
762.364	998.9
762.547	962.03
762.731	1062.38
762.914	1043.95
763.098	949.75
763.281	996.85
763.464	962.03
763.648	990.7
763.831	966.13
764.015	900.59
764.198	945.65
764.381	953.84
764.564	884.21
764.748	996.85
764.931	962.03
765.114	974.32
765.297	925.17
765.481	878.07
765.664	1002.99
765.847	908.79
766.03	941.55
766.213	882.16
766.397	929.27
766.58	945.65
766.763	841.2
766.946	908.79
767.129	830.96
767.312	845.3
767.495	947.7
767.678	843.25
767.861	841.2
768.044	865.78
768.227	785.91
768.41	837.11
768.593	773.62
768.776	900.59
768.959	810.48
769.142	957.94
769.324	820.72
769.507	820.72
769.69	816.63
769.873	822.77
770.056	830.96
770.239	910.83
770.421	798.2
770.604	849.4
770.787	779.76
770.97	787.96
771.152	820.72
771.335	763.38
771.518	740.85
771.7	787.96
771.883	699.89
772.066	779.76
772.248	732.66
772.431	716.28
772.613	785.91
772.796	738.8
772.978	767.48
773.161	749.04
773.343	718.33
773.526	691.7
773.708	712.18
773.891	605.69
774.073	773.62
774.256	634.36
774.438	726.52
774.621	679.41
774.803	779.76
774.985	693.75
775.168	675.32
775.35	767.48
775.532	712.18
775.715	699.89
775.897	572.92
776.079	691.7
776.261	652.79
776.444	722.42
776.626	617.97
776.808	617.97
776.99	570.87
777.173	640.5
777.355	546.3
777.537	630.26
777.719	712.18
777.901	652.79
778.083	638.45
778.265	611.83
778.447	630.26
778.629	636.41
778.811	593.4
778.993	511.48
779.175	585.21
779.357	562.68
779.539	534.01
779.721	599.54
779.903	607.73
780.085	579.06
780.267	523.77
780.449	613.88
780.631	493.05
780.812	529.91
780.994	523.77
781.176	488.95
781.358	570.87
781.54	493.05
781.721	622.07
781.903	503.29
782.085	534.01
782.267	484.86
782.448	484.86
782.63	529.91
782.812	464.38
782.993	546.3
783.175	491
783.357	435.71
783.538	482.81
783.72	349.69
783.901	458.23
784.083	493.05
784.264	460.28
784.446	411.13
784.627	435.71
784.809	462.33
784.99	464.38
785.172	427.51
785.353	419.32
785.535	458.23
785.716	404.99
785.897	413.18
786.079	404.99
786.26	427.51
786.441	388.6
786.623	388.6
786.804	384.51
786.985	341.5
787.167	415.23
787.348	429.56
787.529	323.07
787.71	456.19
787.891	345.59
788.073	423.42
788.254	286.2
788.435	366.07
788.616	357.88
788.797	404.99
788.978	382.46
789.159	419.32
789.34	366.07
789.522	261.63
789.703	273.92
789.884	329.21
790.065	394.75
790.246	388.6
790.427	347.64
790.607	327.16
790.788	361.98
790.969	372.22
791.15	288.25
791.331	316.92
791.512	390.65
791.693	243.2
791.874	368.12
792.054	323.07
792.235	312.83
792.416	290.3
792.597	321.02
792.778	357.88
792.958	290.3
793.139	251.39
793.32	355.83
793.5	271.87
793.681	331.26
793.862	318.97
794.042	282.11
794.223	243.2
794.404	267.77
794.584	321.02
794.765	294.4
794.945	304.64
795.126	282.11
795.306	343.55
795.487	273.92
795.667	290.3
795.848	306.68
796.028	220.67
796.209	251.39
796.389	259.58
796.57	228.86
796.75	218.62
796.93	271.87
797.111	259.58
797.291	275.96
797.471	310.78
797.652	280.06
797.832	247.29
798.012	327.16
798.192	177.66
798.373	255.48
798.553	171.52
798.733	241.15
798.913	261.63
799.093	230.91
799.274	249.34
799.454	222.72
799.634	308.73
799.814	339.45
799.994	294.4
800.174	216.57
800.354	235
800.534	296.44
800.714	220.67
800.894	198.14
801.074	216.57
801.254	126.46
801.434	235
801.614	167.42
801.794	206.33
801.974	611.83
802.154	157.18
802.334	173.57
802.514	171.52
802.693	192
802.873	189.95
803.053	181.76
803.233	216.57
803.413	245.24
803.592	198.14
803.772	175.61
803.952	179.71
804.131	220.67
804.311	222.72
804.491	259.58
804.67	192
804.85	208.38
805.03	148.99
805.209	228.86
805.389	122.37
805.568	177.66
805.748	177.66
805.928	159.23
806.107	200.19
806.287	177.66
806.466	142.85
806.646	204.28
806.825	226.81
807.004	140.8
807.184	214.52
807.363	249.34
807.543	204.28
807.722	144.89
807.901	177.66
808.081	175.61
808.26	153.09
808.439	212.48
808.619	89.6
808.798	214.52
808.977	194.05
809.156	189.95
809.336	124.41
809.515	155.13
809.694	144.89
809.873	187.9
810.052	187.9
810.231	161.28
810.411	128.51
810.59	130.56
810.769	187.9
810.948	138.75
811.127	114.17
811.306	46.59
811.485	142.85
811.664	183.81
811.843	136.7
812.022	95.74
812.201	130.56
812.38	200.19
812.559	126.46
812.737	196.09
812.916	69.12
813.095	140.8
813.274	235
813.453	148.99
813.632	140.8
813.811	132.61
813.989	126.46
814.168	142.85
814.347	101.89
814.526	130.56
814.704	181.76
814.883	210.43
815.062	146.94
815.24	157.18
815.419	73.21
815.598	89.6
815.776	132.61
815.955	134.65
816.133	130.56
816.312	103.93
816.49	185.85
816.669	124.41
816.847	28.16
817.026	142.85
817.204	93.69
817.383	206.33
817.561	91.65
817.74	134.65
817.918	128.51
818.097	28.16
818.275	105.98
818.453	73.21
818.632	185.85
818.81	148.99
818.988	103.93
819.167	142.85
819.345	83.45
819.523	138.75
819.701	112.13
819.879	132.61
820.058	126.46
820.236	116.22
820.414	153.09
820.592	87.55
820.77	118.27
820.948	77.31
821.127	110.08
821.305	163.33
821.483	87.55
821.661	87.55
821.839	85.5
822.017	65.02
822.195	58.88
822.373	151.04
822.551	161.28
822.729	132.61
822.907	112.13
823.085	132.61
823.262	108.03
823.44	116.22
823.618	128.51
823.796	71.17
823.974	19.97
824.152	142.85
824.329	91.65
824.507	134.65
824.685	52.74
824.863	91.65
825.04	79.36
825.218	85.5
825.396	77.31
825.574	87.55
825.751	99.84
825.929	67.07
826.107	132.61
826.284	124.41
826.462	58.88
826.639	118.27
826.817	126.46
826.994	77.31
827.172	89.6
827.349	122.37
827.527	65.02
827.704	56.83
827.882	30.21
828.059	144.89
828.237	44.54
828.414	124.41
828.591	-12.8
828.769	79.36
828.946	134.65
829.124	97.79
829.301	89.6
829.478	42.5
829.655	89.6
829.833	116.22
830.01	56.83
830.187	120.32
830.364	36.35
830.542	69.12
830.719	122.37
830.896	81.41
831.073	118.27
831.25	56.83
831.427	89.6
831.604	-6.66
831.782	56.83
831.959	132.61
832.136	75.26
832.313	95.74
832.49	73.21
832.667	77.31
832.844	32.26
833.021	103.93
833.198	83.45
833.374	67.07
833.551	148.99
833.728	126.46
833.905	50.69
834.082	56.83
834.259	75.26
834.436	73.21
834.612	69.12
834.789	93.69
834.966	67.07
835.143	148.99
835.319	83.45
835.496	73.21
835.673	108.03
835.85	77.31
836.026	65.02
836.203	83.45
836.38	56.83
836.556	65.02
836.733	-43.52
836.909	110.08
837.086	71.17
837.262	42.5
837.439	65.02
837.616	105.98
837.792	62.98
837.968	79.36
838.145	112.13
838.321	58.88
838.498	58.88
838.674	85.5
838.851	46.59
839.027	-16.9
839.203	11.78
839.38	89.6
839.556	-23.04
839.732	24.06
839.909	19.97
840.085	103.93
840.261	40.45
840.437	32.26
840.614	36.35
840.79	122.37
840.966	116.22
841.142	38.4
841.318	-12.8
841.494	52.74
841.671	62.98
841.847	103.93
842.023	56.83
842.199	120.32
842.375	28.16
842.551	11.78
842.727	75.26
842.903	83.45
843.079	-57.86
843.255	52.74
843.431	38.4
843.607	85.5
843.783	-33.28
843.959	65.02
844.134	44.54
844.31	67.07
844.486	75.26
844.662	13.82
844.838	26.11
845.013	26.11
845.189	71.17
845.365	-6.66
845.541	85.5
845.716	-53.76
845.892	-37.38
846.068	56.83
846.244	30.21
846.419	87.55
846.595	7.68
846.77	32.26
846.946	71.17
847.122	17.92
847.297	83.45
847.473	71.17
847.648	-18.94
847.824	44.54
847.999	58.88
848.175	62.98
848.35	75.26
848.526	22.02
848.701	101.89
848.876	81.41
849.052	11.78
849.227	75.26
849.403	48.64
849.578	62.98
849.753	75.26
849.929	50.69
850.104	-25.09
850.279	52.74
850.454	93.69
850.63	52.74
850.805	130.56
850.98	40.45
851.155	69.12
851.33	44.54
851.505	-27.14
851.681	38.4
851.856	-25.09
852.031	79.36
852.206	58.88
852.381	-0.51
852.556	-49.66
852.731	-14.85
852.906	71.17
853.081	22.02
853.256	-8.7
853.431	-0.51
853.606	56.83
853.781	58.88
853.956	-23.04
854.131	-27.14
854.305	44.54
854.48	24.06
854.655	5.63
854.83	67.07
855.005	7.68
855.18	9.73
855.354	13.82
855.529	34.3
855.704	1.54
855.879	46.59
856.053	26.11
856.228	17.92
856.403	-4.61
856.577	17.92
856.752	-109.05
856.926	89.6
857.101	28.16
857.276	36.35
857.45	-2.56
857.625	-6.66
857.799	-12.8
857.974	54.78
858.148	-78.33
858.323	32.26
858.497	42.5
858.672	58.88
858.846	-8.7
859.02	75.26
859.195	-27.14
859.369	19.97
859.543	11.78
859.718	-2.56
859.892	36.35
860.066	-12.8
860.241	42.5
860.415	11.78
860.589	-8.7
860.763	89.6
860.938	56.83
861.112	38.4
861.286	56.83
861.46	28.16
861.634	30.21
861.808	71.17
861.982	19.97
862.157	13.82
862.331	17.92
862.505	-66.05
862.679	-20.99
862.853	9.73
863.027	7.68
863.201	22.02
863.375	30.21
863.549	-41.47
863.722	56.83
863.896	48.64
864.07	50.69
864.244	-6.66
864.418	77.31
864.592	46.59
864.766	65.02
864.939	34.3
865.113	75.26
865.287	46.59
865.461	-86.53
865.634	1.54
865.808	99.84
865.982	11.78
866.156	-4.61
866.329	-8.7
866.503	-27.14
866.676	58.88
866.85	26.11
867.024	-47.62
867.197	-16.9
867.371	62.98
867.544	15.87
867.718	-86.53
867.891	28.16
868.065	-6.66
868.238	9.73
868.412	36.35
868.585	-41.47
868.759	17.92
868.932	15.87
869.105	-57.86
869.279	-25.09
869.452	28.16
869.625	-35.33
869.799	-6.66
869.972	28.16
870.145	44.54
870.319	-23.04
870.492	9.73
870.665	-37.38
870.838	-41.47
871.011	-41.47
871.185	52.74
871.358	7.68
871.531	26.11
871.704	40.45
871.877	83.45
872.05	-2.56
872.223	9.73
872.396	28.16
872.569	13.82
872.742	-25.09
872.915	62.98
873.088	52.74
873.261	13.82
873.434	7.68
873.607	-51.71
873.78	-0.51
873.953	-41.47
874.126	3.58
874.299	69.12
874.471	3.58
874.644	46.59
874.817	-31.23
874.99	73.21
875.163	-12.8
875.335	5.63
875.508	11.78
875.681	-23.04
875.853	11.78
876.026	1.54
876.199	44.54
876.371	36.35
876.544	-8.7
876.717	-2.56
876.889	7.68
877.062	7.68
877.234	26.11
877.407	-18.94
877.579	26.11
877.752	-4.61
877.924	36.35
878.097	-35.33
878.269	26.11
878.442	17.92
878.614	-4.61
878.786	60.93
878.959	-29.18
879.131	-2.56
879.303	-12.8
879.476	26.11
879.648	38.4
879.82	71.17
879.993	65.02
880.165	-70.14
880.337	-10.75
880.509	24.06
880.681	13.82
880.854	-72.19
881.026	46.59
881.198	-14.85
881.37	34.3
881.542	11.78
881.714	1.54
881.886	28.16
882.058	-6.66
882.23	-4.61
882.402	-41.47
882.574	30.21
882.746	-4.61
882.918	65.02
883.09	1.54
883.262	-43.52
883.434	-27.14
883.606	32.26
883.778	30.21
883.95	56.83
884.122	-53.76
884.293	-8.7
884.465	71.17
884.637	-20.99
884.809	3.58
884.98	-59.9
885.152	54.78
885.324	-25.09
885.496	11.78
885.667	5.63
885.839	58.88
886.011	28.16
886.182	69.12
886.354	83.45
886.525	19.97
886.697	15.87
886.869	-2.56
887.04	-18.94
887.212	32.26
887.383	28.16
887.555	-45.57
887.726	-6.66
887.897	-70.14
888.069	34.3
888.24	34.3
888.412	36.35
888.583	9.73
888.754	-25.09
888.926	17.92
889.097	11.78
889.268	30.21
889.44	54.78
889.611	-2.56
889.782	48.64
889.953	-59.9
890.125	-0.51
890.296	-43.52
890.467	-33.28
890.638	-29.18
890.809	-59.9
890.98	13.82
891.151	15.87
891.323	-2.56
891.494	67.07
891.665	99.84
891.836	83.45
892.007	-29.18
892.178	73.21
892.349	-10.75
892.52	1.54
892.691	34.3
892.862	3.58
893.032	-51.71
893.203	17.92
893.374	-12.8
893.545	65.02
893.716	17.92
893.887	11.78
894.057	-0.51
894.228	-98.81
894.399	-57.86
894.57	-37.38
894.74	28.16
894.911	-49.66
895.082	-14.85
895.253	7.68
895.423	-29.18
895.594	-6.66
895.764	108.03
895.935	-33.28
896.106	75.26
896.276	65.02
896.447	44.54
896.617	-35.33
896.788	-18.94
896.958	22.02
897.129	40.45
897.299	-0.51
897.47	-0.51
897.64	24.06
897.81	46.59
897.981	-12.8
898.151	7.68
898.322	-47.62
898.492	-35.33
898.662	-31.23
898.832	7.68
899.003	69.12
899.173	11.78
899.343	40.45
899.513	5.63
