Data from USB4F104151__69__12-01-57-316.txt Node

Date: Fri Mar 14 12:01:57 EDT 2025
User: louis
Spectrometer: USB4F10415
Trigger mode: 4
Integration Time (sec): 2.000000E-2
Scans to average: 1
Electric dark correction enabled: true
Nonlinearity correction enabled: false
Boxcar width: 0
XAxis mode: Wavelengths
Number of Pixels in Spectrum: 3648
>>>>>Begin Spectral Data<<<<<
178.204	-89.94
178.424	-89.94
178.644	-89.94
178.864	-120.66
179.084	-79.7
179.304	-30.55
179.524	-5.97
179.744	-14.17
179.964	30.89
180.184	-16.21
180.404	28.84
180.624	-12.12
180.844	-14.17
181.064	65.71
181.283	32.94
181.503	0.17
181.723	-65.36
181.943	-36.69
182.163	18.6
182.383	-32.6
182.602	57.51
182.822	22.7
183.042	57.51
183.262	-3.93
183.482	-3.93
183.701	-38.74
183.921	-22.36
184.141	-53.08
184.361	20.65
184.58	-5.97
184.8	39.08
185.02	-5.97
185.239	37.03
185.459	14.51
185.679	26.79
185.898	-1.88
186.118	43.18
186.338	-12.12
186.557	2.22
186.777	-30.55
186.997	-5.97
187.216	-12.12
187.436	24.75
187.655	-5.97
187.875	39.08
188.095	51.37
188.314	22.7
188.534	22.7
188.753	-28.5
188.973	45.23
189.192	67.75
189.412	10.41
189.631	4.27
189.851	16.55
190.07	98.47
190.29	-28.5
190.509	26.79
190.729	30.89
190.948	30.89
191.168	88.23
191.387	20.65
191.607	-3.93
191.826	28.84
192.045	-1.88
192.265	-44.88
192.484	-1.88
192.704	-22.36
192.923	-12.12
193.142	18.6
193.362	65.71
193.581	51.37
193.8	18.6
194.02	0.17
194.239	-16.21
194.458	65.71
194.678	-5.97
194.897	20.65
195.116	6.31
195.335	49.32
195.555	22.7
195.774	2.22
195.993	32.94
196.212	-32.6
196.432	-10.07
196.651	10.41
196.87	18.6
197.089	112.81
197.308	-1.88
197.528	10.41
197.747	-26.45
197.966	-34.64
198.185	24.75
198.404	2.22
198.623	63.66
198.842	-14.17
199.062	18.6
199.281	84.14
199.5	-16.21
199.719	10.41
199.938	65.71
200.157	0.17
200.376	4.27
200.595	34.99
200.814	102.57
201.033	-34.64
201.252	2.22
201.471	47.27
201.69	71.85
201.909	-24.4
202.128	-18.26
202.347	-32.6
202.566	-51.03
202.785	12.46
203.004	-18.26
203.223	69.8
203.442	80.04
203.661	-3.93
203.879	-83.8
204.098	-3.93
204.317	26.79
204.536	84.14
204.755	14.51
204.974	-30.55
205.193	20.65
205.411	22.7
205.63	67.75
205.849	20.65
206.068	-1.88
206.287	37.03
206.505	8.36
206.724	51.37
206.943	-14.17
207.162	-38.74
207.381	-42.84
207.599	-61.27
207.818	-26.45
208.037	43.18
208.255	43.18
208.474	-38.74
208.693	18.6
208.911	67.75
209.13	82.09
209.349	45.23
209.567	67.75
209.786	-12.12
210.005	34.99
210.223	18.6
210.442	53.42
210.661	30.89
210.879	-36.69
211.098	2.22
211.316	-22.36
211.535	43.18
211.753	28.84
211.972	6.31
212.191	-59.22
212.409	73.9
212.628	4.27
212.846	-59.22
213.065	14.51
213.283	18.6
213.502	55.47
213.72	8.36
213.938	-14.17
214.157	2.22
214.375	-3.93
214.594	51.37
214.812	84.14
215.031	65.71
215.249	10.41
215.467	24.75
215.686	63.66
215.904	32.94
216.122	37.03
216.341	37.03
216.559	69.8
216.778	57.51
216.996	-12.12
217.214	-36.69
217.432	-12.12
217.651	-26.45
217.869	-38.74
218.087	77.99
218.306	-3.93
218.524	37.03
218.742	22.7
218.96	6.31
219.179	-44.88
219.397	18.6
219.615	80.04
219.833	49.32
220.051	28.84
220.27	-34.64
220.488	14.51
220.706	6.31
220.924	34.99
221.142	-26.45
221.36	-16.21
221.578	-85.84
221.796	45.23
222.015	-44.88
222.233	-20.31
222.451	6.31
222.669	43.18
222.887	20.65
223.105	26.79
223.323	14.51
223.541	-5.97
223.759	34.99
223.977	-1.88
224.195	47.27
224.413	88.23
224.631	-18.26
224.849	30.89
225.067	57.51
225.285	43.18
225.503	49.32
225.721	12.46
225.939	71.85
226.157	26.79
226.375	57.51
226.592	8.36
226.81	-34.64
227.028	112.81
227.246	100.52
227.464	4.27
227.682	24.75
227.9	-16.21
228.117	-12.12
228.335	-16.21
228.553	-22.36
228.771	75.95
228.989	65.71
229.206	30.89
229.424	8.36
229.642	53.42
229.86	47.27
230.077	12.46
230.295	30.89
230.513	51.37
230.731	80.04
230.948	-8.02
231.166	28.84
231.384	-16.21
231.601	67.75
231.819	57.51
232.037	-1.88
232.254	-75.6
232.472	24.75
232.689	73.9
232.907	0.17
233.125	14.51
233.342	26.79
233.56	59.56
233.777	14.51
233.995	-3.93
234.213	45.23
234.43	-8.02
234.648	-8.02
234.865	-32.6
235.083	14.51
235.3	26.79
235.518	-24.4
235.735	8.36
235.953	8.36
236.17	-22.36
236.388	96.43
236.605	-32.6
236.822	28.84
237.04	51.37
237.257	16.55
237.475	55.47
237.692	-20.31
237.909	65.71
238.127	-22.36
238.344	63.66
238.562	26.79
238.779	26.79
238.996	43.18
239.214	-16.21
239.431	16.55
239.648	-20.31
239.865	39.08
240.083	6.31
240.3	90.28
240.517	14.51
240.735	59.56
240.952	55.47
241.169	43.18
241.386	37.03
241.603	45.23
241.821	2.22
242.038	18.6
242.255	71.85
242.472	0.17
242.689	82.09
242.907	26.79
243.124	6.31
243.341	-24.4
243.558	14.51
243.775	-12.12
243.992	8.36
244.209	-8.02
244.426	4.27
244.643	51.37
244.86	-8.02
245.078	16.55
245.295	-59.22
245.512	-16.21
245.729	20.65
245.946	24.75
246.163	14.51
246.38	-26.45
246.597	-5.97
246.814	14.51
247.031	55.47
247.248	-10.07
247.464	47.27
247.681	14.51
247.898	-22.36
248.115	10.41
248.332	4.27
248.549	32.94
248.766	18.6
248.983	22.7
249.2	-16.21
249.417	51.37
249.633	34.99
249.85	2.22
250.067	-16.21
250.284	-1.88
250.501	16.55
250.717	-1.88
250.934	-32.6
251.151	6.31
251.368	2.22
251.585	34.99
251.801	65.71
252.018	34.99
252.235	106.67
252.451	-81.75
252.668	18.6
252.885	71.85
253.102	61.61
253.318	18.6
253.535	51.37
253.752	37.03
253.968	-30.55
254.185	14.51
254.401	34.99
254.618	67.75
254.835	-46.93
255.051	121
255.268	18.6
255.484	-18.26
255.701	18.6
255.917	45.23
256.134	-89.94
256.351	71.85
256.567	-46.93
256.784	12.46
257	39.08
257.217	49.32
257.433	8.36
257.65	28.84
257.866	-22.36
258.082	22.7
258.299	14.51
258.515	28.84
258.732	-12.12
258.948	2.22
259.165	8.36
259.381	82.09
259.597	41.13
259.814	49.32
260.03	4.27
260.246	59.56
260.463	-30.55
260.679	16.55
260.895	86.19
261.112	-24.4
261.328	57.51
261.544	-12.12
261.761	41.13
261.977	32.94
262.193	10.41
262.409	53.42
262.626	39.08
262.842	45.23
263.058	-65.36
263.274	88.23
263.49	-59.22
263.707	73.9
263.923	20.65
264.139	32.94
264.355	43.18
264.571	73.9
264.787	-12.12
265.004	39.08
265.22	73.9
265.436	16.55
265.652	26.79
265.868	53.42
266.084	-55.12
266.3	20.65
266.516	-48.98
266.732	41.13
266.948	47.27
267.164	20.65
267.38	47.27
267.596	4.27
267.812	-12.12
268.028	-1.88
268.244	39.08
268.46	108.71
268.676	41.13
268.892	-59.22
269.108	20.65
269.324	-71.51
269.54	-42.84
269.756	61.61
269.972	-55.12
270.188	77.99
270.403	14.51
270.619	82.09
270.835	12.46
271.051	-5.97
271.267	-3.93
271.483	53.42
271.698	-10.07
271.914	-5.97
272.13	24.75
272.346	14.51
272.562	12.46
272.777	45.23
272.993	6.31
273.209	-1.88
273.425	32.94
273.64	-55.12
273.856	26.79
274.072	88.23
274.287	16.55
274.503	100.52
274.719	37.03
274.934	12.46
275.15	-8.02
275.366	45.23
275.581	82.09
275.797	63.66
276.012	12.46
276.228	45.23
276.444	-1.88
276.659	-12.12
276.875	90.28
277.09	0.17
277.306	-89.94
277.521	12.46
277.737	39.08
277.952	51.37
278.168	-34.64
278.383	26.79
278.599	-20.31
278.814	30.89
279.03	0.17
279.245	-16.21
279.461	55.47
279.676	22.7
279.892	12.46
280.107	65.71
280.322	59.56
280.538	-28.5
280.753	6.31
280.969	26.79
281.184	-14.17
281.399	18.6
281.615	92.33
281.83	71.85
282.045	4.27
282.26	92.33
282.476	6.31
282.691	65.71
282.906	67.75
283.122	32.94
283.337	-12.12
283.552	53.42
283.767	75.95
283.983	6.31
284.198	12.46
284.413	43.18
284.628	26.79
284.843	32.94
285.058	20.65
285.274	24.75
285.489	32.94
285.704	55.47
285.919	55.47
286.134	34.99
286.349	39.08
286.564	18.6
286.779	-14.17
286.995	100.52
287.21	-53.08
287.425	53.42
287.64	8.36
287.855	28.84
288.07	-16.21
288.285	10.41
288.5	61.61
288.715	86.19
288.93	2.22
289.145	-63.32
289.36	24.75
289.575	59.56
289.79	28.84
290.004	51.37
290.219	2.22
290.434	24.75
290.649	-5.97
290.864	82.09
291.079	86.19
291.294	6.31
291.509	-3.93
291.724	-14.17
291.938	-1.88
292.153	-10.07
292.368	26.79
292.583	34.99
292.798	-61.27
293.012	37.03
293.227	4.27
293.442	-61.27
293.657	18.6
293.871	24.75
294.086	-71.51
294.301	49.32
294.516	100.52
294.73	-20.31
294.945	18.6
295.16	-28.5
295.374	84.14
295.589	39.08
295.804	59.56
296.018	24.75
296.233	63.66
296.447	-63.32
296.662	43.18
296.877	57.51
297.091	20.65
297.306	4.27
297.52	28.84
297.735	26.79
297.949	51.37
298.164	-28.5
298.378	-42.84
298.593	-18.26
298.807	-5.97
299.022	39.08
299.236	2.22
299.451	-12.12
299.665	2.22
299.88	-42.84
300.094	39.08
300.309	39.08
300.523	-24.4
300.737	10.41
300.952	49.32
301.166	63.66
301.381	-28.5
301.595	-1.88
301.809	-67.41
302.024	67.75
302.238	-32.6
302.452	30.89
302.667	14.51
302.881	108.71
303.095	65.71
303.309	-1.88
303.524	-22.36
303.738	88.23
303.952	-12.12
304.166	10.41
304.381	-51.03
304.595	39.08
304.809	37.03
305.023	41.13
305.237	16.55
305.452	34.99
305.666	26.79
305.88	32.94
306.094	18.6
306.308	49.32
306.522	-3.93
306.736	39.08
306.95	45.23
307.164	69.8
307.379	43.18
307.593	90.28
307.807	-14.17
308.021	39.08
308.235	-3.93
308.449	92.33
308.663	49.32
308.877	32.94
309.091	26.79
309.305	63.66
309.519	14.51
309.733	4.27
309.947	14.51
310.161	-14.17
310.374	88.23
310.588	90.28
310.802	41.13
311.016	-38.74
311.23	-18.26
311.444	-22.36
311.658	-5.97
311.872	63.66
312.085	59.56
312.299	73.9
312.513	63.66
312.727	-14.17
312.941	12.46
313.154	63.66
313.368	43.18
313.582	80.04
313.796	8.36
314.009	-1.88
314.223	14.51
314.437	45.23
314.651	-12.12
314.864	-36.69
315.078	51.37
315.292	10.41
315.505	2.22
315.719	-22.36
315.933	-12.12
316.146	57.51
316.36	39.08
316.573	12.46
316.787	2.22
317.001	75.95
317.214	-24.4
317.428	55.47
317.641	6.31
317.855	10.41
318.068	41.13
318.282	63.66
318.495	6.31
318.709	-1.88
318.922	32.94
319.136	22.7
319.349	71.85
319.563	43.18
319.776	-22.36
319.99	10.41
320.203	90.28
320.417	-1.88
320.63	77.99
320.843	39.08
321.057	-22.36
321.27	-8.02
321.483	34.99
321.697	112.81
321.91	20.65
322.124	26.79
322.337	-3.93
322.55	37.03
322.763	-20.31
322.977	-28.5
323.19	106.67
323.403	121
323.617	4.27
323.83	77.99
324.043	-14.17
324.256	37.03
324.469	57.51
324.683	-40.79
324.896	24.75
325.109	-5.97
325.322	39.08
325.535	32.94
325.748	16.55
325.962	4.27
326.175	-14.17
326.388	59.56
326.601	94.38
326.814	49.32
327.027	10.41
327.24	30.89
327.453	-16.21
327.666	28.84
327.879	51.37
328.092	77.99
328.305	55.47
328.518	-26.45
328.731	-87.89
328.944	34.99
329.157	-16.21
329.37	8.36
329.583	32.94
329.796	-16.21
330.009	-14.17
330.222	55.47
330.435	47.27
330.648	-44.88
330.861	20.65
331.073	-16.21
331.286	18.6
331.499	26.79
331.712	30.89
331.925	67.75
332.138	-22.36
332.35	47.27
332.563	30.89
332.776	49.32
332.989	24.75
333.202	49.32
333.414	63.66
333.627	37.03
333.84	12.46
334.053	49.32
334.265	-22.36
334.478	53.42
334.691	43.18
334.903	8.36
335.116	18.6
335.329	16.55
335.541	59.56
335.754	22.7
335.966	82.09
336.179	6.31
336.392	57.51
336.604	26.79
336.817	14.51
337.029	4.27
337.242	0.17
337.454	80.04
337.667	24.75
337.88	55.47
338.092	63.66
338.305	49.32
338.517	75.95
338.729	45.23
338.942	90.28
339.154	22.7
339.367	4.27
339.579	-14.17
339.792	12.46
340.004	86.19
340.217	32.94
340.429	-26.45
340.641	-16.21
340.854	30.89
341.066	34.99
341.278	65.71
341.491	82.09
341.703	4.27
341.915	-24.4
342.128	37.03
342.34	55.47
342.552	73.9
342.764	10.41
342.977	16.55
343.189	47.27
343.401	90.28
343.613	22.7
343.826	2.22
344.038	51.37
344.25	30.89
344.462	84.14
344.674	16.55
344.886	100.52
345.099	65.71
345.311	26.79
345.523	18.6
345.735	-51.03
345.947	49.32
346.159	-5.97
346.371	82.09
346.583	24.75
346.795	98.47
347.007	-14.17
347.219	39.08
347.431	49.32
347.643	6.31
347.855	20.65
348.067	14.51
348.279	18.6
348.491	67.75
348.703	4.27
348.915	55.47
349.127	10.41
349.339	-30.55
349.551	-1.88
349.763	-1.88
349.975	2.22
350.187	86.19
350.399	82.09
350.61	16.55
350.822	55.47
351.034	75.95
351.246	0.17
351.458	43.18
351.669	49.32
351.881	32.94
352.093	-5.97
352.305	45.23
352.517	88.23
352.728	71.85
352.94	-3.93
353.152	102.57
353.363	26.79
353.575	67.75
353.787	71.85
353.999	37.03
354.21	34.99
354.422	6.31
354.633	-30.55
354.845	-22.36
355.057	53.42
355.268	37.03
355.48	10.41
355.692	-16.21
355.903	73.9
356.115	116.9
356.326	10.41
356.538	57.51
356.749	37.03
356.961	61.61
357.172	28.84
357.384	49.32
357.595	18.6
357.807	39.08
358.018	18.6
358.23	41.13
358.441	84.14
358.653	20.65
358.864	24.75
359.075	94.38
359.287	14.51
359.498	30.89
359.709	24.75
359.921	63.66
360.132	34.99
360.344	37.03
360.555	24.75
360.766	34.99
360.977	20.65
361.189	14.51
361.4	34.99
361.611	65.71
361.823	18.6
362.034	49.32
362.245	-1.88
362.456	63.66
362.667	22.7
362.879	41.13
363.09	71.85
363.301	2.22
363.512	34.99
363.723	10.41
363.935	0.17
364.146	28.84
364.357	28.84
364.568	12.46
364.779	63.66
364.99	125.1
365.201	12.46
365.412	90.28
365.623	-22.36
365.834	6.31
366.045	18.6
366.256	71.85
366.467	106.67
366.678	-32.6
366.889	-1.88
367.1	69.8
367.311	65.71
367.522	63.66
367.733	51.37
367.944	34.99
368.155	69.8
368.366	-16.21
368.577	18.6
368.788	18.6
368.999	37.03
369.209	102.57
369.42	77.99
369.631	127.14
369.842	45.23
370.053	59.56
370.264	22.7
370.474	43.18
370.685	84.14
370.896	80.04
371.107	45.23
371.317	98.47
371.528	-38.74
371.739	84.14
371.95	75.95
372.16	106.67
372.371	28.84
372.582	43.18
372.792	47.27
373.003	51.37
373.214	47.27
373.424	12.46
373.635	12.46
373.846	141.48
374.056	67.75
374.267	118.95
374.477	34.99
374.688	20.65
374.898	88.23
375.109	12.46
375.319	84.14
375.53	59.56
375.74	30.89
375.951	45.23
376.161	12.46
376.372	65.71
376.582	24.75
376.793	53.42
377.003	34.99
377.214	69.8
377.424	18.6
377.635	55.47
377.845	77.99
378.055	65.71
378.266	-1.88
378.476	82.09
378.686	18.6
378.897	22.7
379.107	86.19
379.317	73.9
379.528	-10.07
379.738	123.05
379.948	32.94
380.158	39.08
380.369	51.37
380.579	30.89
380.789	43.18
380.999	41.13
381.21	10.41
381.42	207.02
381.63	98.47
381.84	43.18
382.05	37.03
382.261	80.04
382.471	55.47
382.681	-12.12
382.891	102.57
383.101	12.46
383.311	55.47
383.521	32.94
383.731	39.08
383.941	57.51
384.151	-40.79
384.361	53.42
384.571	61.61
384.781	57.51
384.991	118.95
385.201	73.9
385.411	96.43
385.621	47.27
385.831	86.19
386.041	127.14
386.251	10.41
386.461	49.32
386.671	18.6
386.881	131.24
387.091	65.71
387.301	92.33
387.511	-57.17
387.72	82.09
387.93	43.18
388.14	-10.07
388.35	-16.21
388.56	65.71
388.769	135.34
388.979	0.17
389.189	2.22
389.399	90.28
389.609	131.24
389.818	30.89
390.028	77.99
390.238	77.99
390.447	94.38
390.657	77.99
390.867	53.42
391.076	123.05
391.286	63.66
391.496	71.85
391.705	26.79
391.915	51.37
392.125	45.23
392.334	80.04
392.544	141.48
392.753	39.08
392.963	77.99
393.172	34.99
393.382	-48.98
393.591	102.57
393.801	159.91
394.01	141.48
394.22	114.86
394.429	82.09
394.639	73.9
394.848	121
395.058	43.18
395.267	96.43
395.477	155.82
395.686	63.66
395.895	159.91
396.105	161.96
396.314	82.09
396.524	108.71
396.733	61.61
396.942	67.75
397.152	75.95
397.361	53.42
397.57	96.43
397.78	110.76
397.989	55.47
398.198	104.62
398.407	106.67
398.617	108.71
398.826	71.85
399.035	151.72
399.244	82.09
399.453	90.28
399.663	123.05
399.872	100.52
400.081	98.47
400.29	57.51
400.499	104.62
400.708	129.19
400.917	104.62
401.127	88.23
401.336	133.29
401.545	110.76
401.754	47.27
401.963	102.57
402.172	139.43
402.381	118.95
402.59	166.06
402.799	80.04
403.008	71.85
403.217	139.43
403.426	121
403.635	118.95
403.844	159.91
404.053	92.33
404.262	135.34
404.471	174.25
404.68	131.24
404.888	157.86
405.097	149.67
405.306	151.72
405.515	194.73
405.724	194.73
405.933	190.63
406.142	176.3
406.35	215.21
406.559	172.2
406.768	180.39
406.977	252.07
407.185	256.17
407.394	143.53
407.603	213.16
407.812	229.54
408.02	256.17
408.229	147.62
408.438	192.68
408.646	303.27
408.855	362.66
409.064	295.08
409.272	276.65
409.481	307.37
409.69	270.5
409.898	217.26
410.107	327.85
410.315	379.04
410.524	403.62
410.733	338.09
410.941	379.04
411.15	377
411.358	358.57
411.567	549.03
411.775	354.47
411.984	377
412.192	465.06
412.401	510.11
412.609	534.69
412.818	551.07
413.026	587.94
413.234	514.21
413.443	585.89
413.651	553.12
413.86	659.62
414.068	694.43
414.276	694.43
414.485	626.85
414.693	688.29
414.901	819.36
415.11	796.83
415.318	762.02
415.526	751.78
415.734	858.27
415.943	770.21
416.151	950.43
416.359	944.28
416.567	956.57
416.776	979.1
416.984	1030.3
417.192	1015.96
417.4	1069.21
417.608	1101.98
417.817	1124.51
418.025	1187.99
418.233	1255.58
418.441	1206.42
418.649	1441.94
418.857	1362.07
419.065	1431.7
419.273	1355.93
419.481	1435.8
419.689	1505.43
419.897	1599.63
420.105	1618.07
420.313	1673.36
420.521	1829.01
420.729	1663.12
420.937	1841.29
421.145	1919.12
421.353	2058.38
421.561	2107.53
421.769	2103.43
421.977	2232.46
422.185	2152.59
422.393	2369.67
422.601	2510.98
422.809	2510.98
423.017	2535.56
423.224	2545.8
423.432	2797.7
423.64	2719.87
423.848	2924.67
424.056	2932.86
424.263	3051.64
424.471	3041.4
424.679	3307.64
424.887	3418.23
425.094	3584.12
425.302	3547.25
425.51	3614.84
425.718	3651.7
425.925	3813.49
426.133	3903.6
426.341	4016.24
426.548	4446.31
426.756	4210.79
426.964	4425.83
427.171	4636.77
427.379	4565.09
427.586	4726.88
427.794	4974.69
428.001	5138.52
428.209	5412.95
428.417	5371.99
428.624	5791.83
428.832	5787.73
429.039	5716.05
429.247	5793.87
429.454	6187.08
429.662	6701.12
429.869	6234.19
430.076	6635.59
430.284	6531.14
430.491	6807.62
430.699	7143.49
430.906	7147.58
431.114	7241.79
431.321	7600.18
431.528	7696.44
431.736	8103.98
431.943	8529.96
432.15	8413.23
432.358	8341.55
432.565	8802.34
432.772	8810.53
432.979	9324.57
433.187	9396.25
433.394	9373.72
433.601	9971.73
433.808	10129.42
434.016	9938.96
434.223	10500.11
434.43	11204.61
434.637	10856.45
434.844	11657.21
435.052	11843.57
435.259	11913.2
435.466	11849.72
435.673	11663.35
435.88	12619.75
436.087	13002.72
436.294	13293.54
436.501	12656.62
436.708	13187.04
436.915	13465.57
437.122	14208.98
437.329	14133.2
437.537	14714.83
437.743	14718.92
437.95	14639.05
438.157	15296.45
438.364	15904.7
438.571	15814.59
438.778	16140.21
438.985	17434.53
439.192	16900.01
439.399	17356.71
439.606	16961.45
439.813	17977.24
440.02	19085.19
440.227	18603.92
440.433	18366.35
440.64	19283.84
440.847	19068.81
441.054	19572.61
441.261	20903.79
441.467	20215.67
441.674	20905.84
441.881	21784.41
442.088	21507.94
442.294	21290.85
442.501	21993.31
442.708	22325.08
442.914	23385.93
443.121	24428.34
443.328	23764.8
443.534	25198.38
443.741	24514.36
443.948	24274.74
444.154	25980.7
444.361	25708.32
444.568	26363.67
444.774	26167.07
444.981	26533.65
445.187	27375.37
445.394	28358.39
445.6	27586.31
445.807	30410.46
446.013	29454.06
446.22	30258.91
446.426	31145.68
446.633	31139.54
446.839	32325.31
447.046	31223.5
447.252	32661.18
447.459	32356.03
447.665	32644.79
447.871	33812.13
448.078	35274.38
448.284	33707.69
448.491	35004.05
448.697	36071.04
448.903	36376.19
449.11	37049.97
449.316	36241.03
449.522	36636.28
449.728	37883.5
449.935	38411.87
450.141	37783.15
450.347	38561.37
450.553	37879.4
450.76	37721.71
450.966	39239.25
451.172	38674.01
451.378	39517.78
451.584	38796.89
451.791	39906.89
451.997	40005.19
452.203	40431.17
452.409	40386.11
452.615	40363.59
452.821	38473.31
453.027	38262.37
453.233	40506.94
453.44	38768.22
453.646	38946.39
453.852	39167.57
454.058	39906.89
454.264	38514.27
454.47	39308.88
454.676	38035.05
454.882	40058.44
455.088	36009.61
455.294	36894.33
455.5	37207.67
455.705	37684.84
455.911	36116.1
456.117	35661.45
456.323	34518.68
456.529	33683.11
456.735	34690.71
456.941	33887.91
457.147	32992.95
457.352	31788.74
457.558	31612.62
457.764	31764.17
457.97	31084.24
458.176	30131.93
458.381	30660.31
458.587	28997.36
458.793	29077.23
458.999	27227.92
459.204	29374.19
459.41	28413.69
459.616	26730.26
459.821	26734.35
460.027	26720.02
460.233	25835.3
460.438	24530.74
460.644	25382.7
460.85	23848.77
461.055	23611.2
461.261	23295.82
461.466	21700.45
461.672	20770.67
461.878	22443.86
462.083	20866.92
462.289	20533.11
462.494	20209.53
462.7	19472.26
462.905	18757.52
463.111	19660.67
463.316	19529.6
463.522	19246.98
463.727	19218.31
463.932	19328.9
464.138	19525.5
464.343	19134.34
464.549	18407.31
464.754	19341.19
464.959	19040.14
465.165	18872.2
465.37	17954.71
465.575	17698.72
465.781	18108.31
465.986	18665.36
466.191	17717.15
466.397	17262.5
466.602	16521.13
466.807	17250.21
467.012	17174.44
467.218	16918.44
467.423	16945.06
467.628	17158.05
467.833	17526.69
468.038	17209.25
468.244	16443.31
468.449	17149.86
468.654	16484.27
468.859	16629.68
469.064	16175.03
469.269	15718.33
469.474	16019.38
469.679	16369.58
469.885	15720.38
470.09	15914.94
470.295	15755.19
470.5	15370.18
470.705	15562.69
470.91	15046.6
471.115	15114.18
471.32	15204.29
471.525	14960.58
471.73	14710.73
471.935	14815.18
472.139	14174.16
472.344	14485.45
472.549	14313.42
472.754	14272.46
472.959	13834.2
473.164	13473.76
473.369	13283.3
473.574	13918.17
473.778	13826.01
473.983	13617.11
474.188	13514.72
474.393	12777.45
474.598	13123.55
474.802	12828.65
475.007	12783.59
475.212	12814.31
475.417	12255.22
475.621	12226.54
475.826	12365.81
476.031	12109.81
476.235	11610.11
476.44	12062.71
476.645	11730.94
476.849	11821.05
477.054	11708.41
477.259	11554.81
477.463	11341.82
477.668	10987.52
477.872	11137.02
478.077	11182.08
478.282	10729.48
478.486	10620.94
478.691	10596.36
478.895	10614.79
479.1	10608.65
479.304	10637.32
479.509	10092.56
479.713	10455.05
479.918	10016.79
480.122	9998.35
480.326	10223.63
480.531	10174.48
480.735	10323.98
480.94	10260.49
481.144	10340.36
481.348	9990.16
481.553	10070.03
481.757	9848.85
481.961	9953.3
482.166	9963.54
482.37	10039.31
482.574	9746.45
482.778	9824.28
482.983	9906.2
483.187	9906.2
483.391	9949.2
483.595	9709.59
483.8	9566.23
484.004	9842.71
484.208	9803.8
484.412	9680.92
484.616	9930.77
484.821	9738.26
485.025	9744.41
485.229	9828.37
485.433	9756.69
485.637	9572.38
485.841	9650.2
486.045	9799.7
486.249	9490.46
486.453	9771.03
486.657	9791.51
486.861	9715.73
487.065	9490.46
487.269	9713.69
487.473	9566.23
487.677	9762.84
487.881	9762.84
488.085	9609.24
488.289	9668.63
488.493	9789.46
488.697	9867.28
488.901	9900.05
489.105	9826.32
489.309	9625.62
489.512	9959.44
489.716	9783.32
489.92	9855
490.124	9889.81
490.328	9977.87
490.531	9832.47
490.735	9945.11
490.939	9877.52
491.143	9805.85
491.346	10065.94
491.55	10321.93
491.754	10059.79
491.958	10250.25
492.161	10067.99
492.365	10463.24
492.569	10051.6
492.772	10233.87
492.976	10266.64
493.18	10510.35
493.383	10524.68
493.587	10469.39
493.79	10762.25
493.994	10432.52
494.197	10549.26
494.401	10930.18
494.605	10731.53
494.808	10981.38
495.012	11087.87
495.215	10919.94
495.419	11206.66
495.622	11210.75
495.825	11128.83
496.029	11300.86
496.232	11526.14
496.436	11411.45
496.639	11804.66
496.843	11763.7
497.046	12058.61
497.249	12068.85
497.453	12068.85
497.656	12234.74
497.859	12300.27
498.063	12378.09
498.266	12820.46
498.469	12533.74
498.673	12681.19
498.876	12945.38
499.079	12978.15
499.282	13090.79
499.485	13451.23
499.689	13146.08
499.892	13582.3
500.095	13402.08
500.298	14061.52
500.501	13719.51
500.705	14145.49
500.908	14288.85
501.111	14325.71
501.314	14618.57
501.517	14720.97
501.72	15105.99
501.923	14755.79
502.126	15210.43
502.329	15296.45
502.532	15327.17
502.735	15609.79
502.938	15865.78
503.141	16021.43
503.344	16240.56
503.547	16230.32
503.75	16539.57
503.953	16629.68
504.156	16506.8
504.359	17209.25
504.562	17063.85
504.765	17428.38
504.968	17412
505.17	17461.15
505.373	17606.56
505.576	18110.36
505.779	18071.45
505.982	18345.87
506.185	18661.26
506.387	18741.13
506.59	18968.46
506.793	19150.73
506.996	19333
507.198	19783.55
507.401	19580.8
507.604	19883.9
507.807	20078.46
508.009	20160.38
508.212	20270.97
508.415	20756.33
508.617	21028.71
508.82	20916.08
509.022	20854.64
509.225	21321.57
509.428	21495.65
509.63	21813.09
509.833	21940.06
510.035	22335.32
510.238	22593.36
510.44	22540.11
510.643	22886.22
510.845	23138.12
511.048	22923.08
511.25	23338.82
511.453	23373.64
511.655	24047.42
511.858	23891.77
512.06	23998.27
512.262	24379.19
512.465	24592.18
512.667	24731.44
512.87	25257.77
513.072	25132.84
513.274	25655.08
513.477	25646.88
513.679	25888.54
513.881	26271.51
514.084	26529.56
514.286	26857.23
514.488	26894.1
514.69	27465.48
514.893	27506.44
515.095	27371.27
515.297	27909.89
515.499	27864.83
515.701	28350.2
515.904	28434.17
516.106	28880.63
516.308	28837.62
516.51	29034.22
516.712	29406.95
516.914	29834.98
517.116	29947.62
517.318	30217.95
517.52	30336.73
517.722	30416.6
517.925	30770.9
518.127	30820.05
518.329	31370.96
518.531	30858.96
518.733	31966.91
518.935	32087.75
519.136	31796.93
519.338	32437.95
519.54	32640.7
519.742	33001.14
519.944	33207.98
520.146	33115.83
520.348	33404.59
520.55	33822.37
520.752	33838.76
520.954	34578.08
521.155	34047.65
521.357	34895.51
521.559	34852.5
521.761	35137.17
521.963	35235.47
522.164	35470.99
522.366	35503.76
522.568	35616.4
522.77	36077.19
522.971	36400.77
523.173	36288.13
523.375	36540.03
523.576	36775.55
523.778	36687.48
523.98	37267.06
524.181	37262.96
524.383	37391.98
524.584	38033
524.786	37992.04
524.988	38045.29
525.189	38157.92
525.391	38155.88
525.592	38471.26
525.794	38440.54
525.995	38968.92
526.197	38669.92
526.398	38671.96
526.6	39290.45
526.801	38907.48
527.003	39552.59
527.204	39353.94
527.406	39599.69
527.607	39616.08
527.808	40031.82
528.01	39462.48
528.211	39831.11
528.412	40162.89
528.614	40271.43
528.815	40099.4
529.016	40388.16
529.218	40218.18
529.419	40717.89
529.62	40537.66
529.822	40584.77
530.023	40226.37
530.224	40943.16
530.425	40609.34
530.626	40285.76
530.828	40558.14
531.029	41430.58
531.23	40535.62
531.431	40764.99
531.632	40834.62
531.833	40789.56
532.035	41109.05
532.236	40988.22
532.437	41006.65
532.638	40771.13
532.839	41401.91
533.04	41274.93
533.241	41018.94
533.442	41295.41
533.643	41541.17
533.844	41262.65
534.045	41467.44
534.246	40869.44
534.447	41293.36
534.648	40990.27
534.849	41772.59
535.05	41029.18
535.251	41188.92
535.451	40846.91
535.652	41547.31
535.853	41233.97
536.054	41190.97
536.255	41547.31
536.456	41086.52
536.657	41928.23
536.857	40910.39
537.058	41033.27
537.259	41154.1
537.46	41270.84
537.66	41260.6
537.861	41066.04
538.062	40750.65
538.263	41008.7
538.463	41170.49
538.664	40840.76
538.865	41395.76
539.065	41492.02
539.266	40953.4
539.466	41393.72
539.667	41055.8
539.868	41633.33
540.068	41068.09
540.269	40941.11
540.469	40988.22
540.67	41057.85
540.87	40980.03
541.071	41053.75
541.271	41129.53
541.472	40779.32
541.672	41082.42
541.873	40947.26
542.073	40459.84
542.274	41102.9
542.474	40844.86
542.675	40676.93
542.875	41156.15
543.075	40898.11
543.276	40126.02
543.476	40820.28
543.676	40607.3
543.877	40894.01
544.077	40689.21
544.277	40549.95
544.478	40980.03
544.678	40951.35
544.878	40482.37
545.078	40410.69
545.279	40107.59
545.479	40414.79
545.679	40605.25
545.879	40535.62
546.079	40547.9
546.28	40693.31
546.48	40398.4
546.68	40597.06
546.88	40623.68
547.08	40300.1
547.28	40541.76
547.48	40027.72
547.68	40289.86
547.88	40324.68
548.081	40181.32
548.281	40037.96
548.481	40169.03
548.681	40201.8
548.881	40500.8
549.081	40304.2
549.28	40173.13
549.48	40384.07
549.68	39870.03
549.88	40670.78
550.08	39888.46
550.28	40205.89
550.48	40164.93
550.68	40263.24
550.88	39906.89
551.08	40074.82
551.279	39976.52
551.479	39784.01
551.679	39769.68
551.879	39462.48
552.079	40040.01
552.278	39890.51
552.478	39939.66
552.678	39480.91
552.878	40187.46
553.077	40017.48
553.277	39714.38
553.477	40261.19
553.676	39591.5
553.876	39517.78
554.076	39865.93
554.275	39571.02
554.475	39286.36
554.674	39718.48
554.874	39855.69
555.074	39554.64
555.273	39355.99
555.473	39616.08
555.672	39247.44
555.872	39444.05
556.071	39642.7
556.271	39845.45
556.47	39263.83
556.67	39081.56
556.869	39321.17
557.068	39339.6
557.268	39202.39
557.467	39181.91
557.667	38930.01
557.866	39216.72
558.065	38813.27
558.265	38993.5
558.464	38506.08
558.663	39259.73
558.863	38456.93
559.062	39419.47
559.261	38362.72
559.461	38872.67
559.66	38205.03
559.859	38893.15
560.058	38428.26
560.258	38530.65
560.457	38258.27
560.656	38332
560.855	38489.7
561.054	38622.81
561.253	37852.78
561.453	38049.38
561.652	38577.76
561.851	38528.61
562.05	38180.45
562.249	37985.9
562.448	38215.27
562.647	38336.1
562.846	38078.05
563.045	38080.1
563.244	37437.04
563.443	38162.02
563.642	37072.5
563.841	37170.8
564.04	37584.49
564.239	37760.62
564.438	36990.58
564.637	37506.67
564.836	37533.29
565.035	37332.59
565.234	37404.27
565.432	37367.41
565.631	37297.78
565.83	37330.55
566.029	36941.43
566.228	36707.96
566.427	36691.58
566.625	36646.52
566.824	36370.05
567.023	36974.2
567.222	36548.22
567.42	36757.11
567.619	36433.53
567.818	36198.02
568.016	36339.33
568.215	36411.01
568.414	35952.26
568.612	36339.33
568.811	35800.71
569.01	36568.7
569.208	35587.72
569.407	36316.8
569.605	35325.58
569.804	36077.19
570.002	35473.04
570.201	35821.19
570.4	35253.9
570.598	35233.43
570.797	35468.94
570.995	35571.34
571.193	35155.6
571.392	35073.68
571.59	34983.57
571.789	34895.51
571.987	35104.4
572.186	34940.57
572.384	34621.08
572.582	34684.57
572.781	34934.42
572.979	34381.47
573.177	34965.14
573.376	34526.88
573.574	34115.23
573.772	34492.06
573.971	34653.85
574.169	33990.31
574.367	33887.91
574.565	33941.16
574.763	33652.39
574.962	33803.94
575.16	33484.46
575.358	34121.38
575.556	33199.79
575.754	33965.73
575.952	33361.58
576.151	33482.41
576.349	33085.11
576.547	33345.2
576.745	33119.92
576.943	33308.33
577.141	32982.71
577.339	33015.47
577.537	32931.51
577.735	32788.15
577.933	32513.72
578.131	32992.95
578.329	32433.85
578.527	32478.91
578.725	32673.46
578.923	32378.56
579.121	32239.29
579.319	32044.74
579.516	32624.31
579.714	32270.01
579.912	31907.52
580.11	32014.02
580.308	31989.44
580.506	31844.04
580.704	31217.36
580.901	31551.18
581.099	31538.89
581.297	31078.1
581.495	31164.11
581.692	31815.37
581.89	30981.84
582.088	31141.58
582.285	30908.12
582.483	31293.13
582.681	30977.75
582.878	31067.86
583.076	30349.02
583.274	30838.48
583.471	30551.77
583.669	30367.45
583.866	30234.33
584.064	30527.19
584.262	30240.48
584.459	30260.96
584.657	29880.03
584.854	30166.75
585.052	29810.4
585.249	29984.48
585.447	29964
585.644	29437.67
585.841	29437.67
586.039	30088.93
586.236	29163.25
586.434	29454.06
586.631	29386.47
586.828	29458.15
587.026	29208.3
587.223	29110
587.42	28878.58
587.618	29122.29
587.815	28258.04
588.012	28487.42
588.21	28792.56
588.407	28530.42
588.604	28294.91
588.801	28206.84
588.999	28079.87
589.196	28395.26
589.393	28331.77
589.59	28079.87
589.787	27827.97
589.984	27711.24
590.182	27641.6
590.379	28049.15
590.576	27627.27
590.773	27956.99
590.97	27229.96
591.167	27606.79
591.364	27365.13
591.561	27356.94
591.758	27223.82
591.955	27111.18
592.152	27049.74
592.349	26992.4
592.546	26951.44
592.743	27068.17
592.94	26787.6
593.137	26607.38
593.334	26447.64
593.531	26117.92
593.727	26502.93
593.924	26355.48
594.121	26175.26
594.318	26271.51
594.515	25933.6
594.712	26382.1
594.908	25978.65
595.105	26103.58
595.302	25796.39
595.499	25634.6
595.696	25868.06
595.892	25612.07
596.089	25853.73
596.286	25581.35
596.482	25149.23
596.679	25466.66
596.876	25198.38
597.072	25102.12
597.269	25229.1
597.466	24934.19
597.662	24665.91
597.859	24842.03
598.055	24932.14
598.252	24530.74
598.448	24698.67
598.645	24649.52
598.841	24244.02
599.038	24684.34
599.234	24254.26
599.431	24065.85
599.627	24072
599.824	24270.65
600.02	24010.56
600.217	24350.52
600.413	23844.67
600.609	23883.58
600.806	23680.83
601.002	23744.32
601.198	23629.63
601.395	23447.36
601.591	23517
601.787	23162.7
601.984	23422.79
602.18	23508.8
602.376	23043.92
602.572	23222.09
602.769	23240.52
602.965	22749.01
603.161	22990.67
603.357	22761.3
603.553	22777.68
603.75	22800.21
603.946	22644.56
604.142	22560.59
604.338	22095.71
604.534	22718.29
604.73	22200.15
604.926	21938.01
605.122	22378.33
605.318	22318.93
605.514	21800.8
605.71	21753.69
605.906	21995.36
606.102	21966.68
606.298	21792.61
606.494	21757.79
606.69	21509.99
606.886	21725.02
607.082	21534.56
607.278	21778.27
607.474	21094.25
607.67	21446.5
607.866	21337.96
608.062	21745.5
608.257	21423.97
608.453	21333.86
608.649	21167.98
608.845	21239.65
609.041	21231.46
609.236	21186.41
609.432	20993.9
609.628	21135.21
609.824	20997.99
610.019	20875.12
610.215	20637.55
610.411	20782.96
610.606	20729.71
610.802	20868.97
610.998	20612.98
611.193	20713.33
611.389	20299.64
611.584	20365.17
611.78	20490.1
611.976	20496.24
612.171	20408.18
612.367	20281.21
612.562	20037.5
612.758	20250.49
612.953	20008.83
613.149	20156.28
613.344	20135.8
613.539	20172.66
613.735	20051.83
613.93	19920.76
614.126	20098.94
614.321	20127.61
614.517	19830.65
614.712	19818.36
614.907	19677.05
615.103	19611.52
615.298	19799.93
615.493	19767.17
615.688	19433.35
615.884	19910.52
616.079	19545.98
616.274	19816.32
616.47	19398.53
616.665	19400.58
616.86	19333
617.055	19443.59
617.25	19072.9
617.445	19345.28
617.641	19013.51
617.836	19040.14
618.031	18947.98
618.226	19216.26
618.421	18861.96
618.616	18939.79
618.811	18622.35
619.006	19187.59
619.201	18655.12
619.396	18956.17
619.591	18325.4
619.786	18646.93
619.981	18208.66
620.176	18425.75
620.371	18110.36
620.566	18038.68
620.761	17878.94
620.956	18182.04
621.151	17811.35
621.346	18079.64
621.541	17602.46
621.735	17889.18
621.93	17588.13
622.125	17541.02
622.32	17323.94
622.515	17655.71
622.709	17088.42
622.904	17141.67
623.099	17076.13
623.294	17094.57
623.488	16725.93
623.683	17053.61
623.878	16332.72
624.072	16715.69
624.267	16537.52
624.462	16828.33
624.656	16160.69
624.851	16248.75
625.046	16258.99
625.24	16308.15
625.435	15904.7
625.629	15943.61
625.824	15790.01
626.018	15845.3
626.213	15255.49
626.407	15970.23
626.602	15654.84
626.796	15464.38
626.991	15427.52
627.185	15456.19
627.38	14993.35
627.574	15073.22
627.768	14860.23
627.963	14751.69
628.157	14753.74
628.352	14899.14
628.546	14686.15
628.74	14845.9
628.935	14616.52
629.129	14587.85
629.323	14376.91
629.517	14313.42
629.712	14370.77
629.906	14292.94
630.1	14094.29
630.294	14208.98
630.489	13678.55
630.683	13983.7
630.877	13703.13
631.071	13957.08
631.265	13703.13
631.459	13580.25
631.653	13590.49
631.848	13539.29
632.042	13461.47
632.236	13438.94
632.43	13156.32
632.624	13105.12
632.818	13285.34
633.012	13078.5
633.206	12955.62
633.4	12775.4
633.594	12603.37
633.788	12804.07
633.982	12623.85
634.176	12701.67
634.369	12457.96
634.563	12455.92
634.757	12531.69
634.951	12451.82
635.145	12353.52
635.339	12113.91
635.533	12058.61
635.726	12070.9
635.92	11933.68
636.114	12197.87
636.308	11884.53
636.501	11831.29
636.695	12013.56
636.889	11597.82
637.083	11567.1
637.276	11638.78
637.47	11429.88
637.664	11468.8
637.857	11186.18
638.051	11139.07
638.244	11282.43
638.438	11132.93
638.632	11272.19
638.825	11153.41
639.019	10965
639.212	11116.55
639.406	10960.9
639.599	10907.65
639.793	10854.41
639.986	10582.03
640.18	10803.21
640.373	10780.68
640.567	10608.65
640.76	10432.52
640.954	10510.35
641.147	10524.68
641.34	10321.93
641.534	10543.11
641.727	10178.58
641.92	10254.35
642.114	10108.94
642.307	9914.39
642.5	9969.68
642.694	9750.55
642.887	9953.3
643.08	9842.71
643.273	9697.3
643.467	9863.19
643.66	9768.98
643.853	9492.51
644.046	9541.66
644.239	9617.43
644.432	9519.13
644.626	9422.87
644.819	9336.86
645.012	9381.92
645.205	9445.4
645.398	9281.57
645.591	9193.5
645.784	9105.44
645.977	9023.52
646.17	9228.32
646.363	8826.92
646.556	8755.24
646.749	8980.51
646.942	8998.95
647.135	8777.76
647.328	8882.21
647.521	8695.85
647.714	8568.87
647.907	8554.54
648.099	8493.1
648.292	8566.82
648.485	8439.85
648.678	8411.18
648.871	8458.28
649.064	8194.09
649.256	8435.75
649.449	8333.36
649.642	8249.39
649.835	8183.85
650.027	8171.57
650.22	8069.17
650.413	8077.36
650.605	8144.94
650.798	7977.01
650.991	7778.36
651.183	7878.71
651.376	7645.24
651.568	7921.71
651.761	7671.86
651.954	7690.29
652.146	7712.82
652.339	7583.8
652.531	7557.18
652.724	7409.72
652.916	7630.9
653.109	7350.33
653.301	7309.37
653.494	7370.81
653.686	7362.62
653.879	7292.99
654.071	7229.5
654.263	7206.97
654.456	7333.95
654.648	6998.08
654.84	7137.34
655.033	7090.24
655.225	7071.81
655.417	6881.35
655.61	7028.8
655.802	6946.88
655.994	6946.88
656.186	6776.9
656.379	6938.69
656.571	6682.69
656.763	6676.55
656.955	6684.74
657.148	6721.6
657.34	6615.11
657.532	6678.6
657.724	6463.56
657.916	6658.12
658.108	6465.61
658.3	6492.23
658.492	6568.01
658.684	6430.79
658.876	6320.2
659.068	6316.11
659.26	6297.67
659.452	6314.06
659.644	6193.23
659.836	6146.12
660.028	6230.09
660.22	6072.4
660.412	6154.32
660.604	6119.5
660.796	6051.92
660.988	6101.07
661.18	5920.85
661.372	5970
661.563	5943.38
661.755	5881.94
661.947	5931.09
662.139	6062.16
662.331	5677.14
662.522	5836.88
662.714	5771.35
662.906	5752.91
663.097	5724.24
663.289	5613.65
663.481	5677.14
663.673	5687.38
663.864	5605.46
664.056	5462.1
664.247	5488.73
664.439	5451.86
664.631	5550.17
664.822	5572.69
665.014	5505.11
665.205	5484.63
665.397	5423.19
665.588	5189.72
665.78	5228.63
665.971	5359.7
666.163	5263.45
666.354	5105.76
666.546	5177.44
666.737	5077.09
666.929	5132.38
667.12	5089.37
667.311	5232.73
667.503	5068.89
667.694	5046.37
667.885	5066.85
668.077	4989.02
668.268	4835.42
668.459	5003.36
668.651	4898.91
668.842	4890.72
669.033	4769.89
669.224	4771.94
669.416	4874.34
669.607	4804.71
669.798	4757.6
669.989	4819.04
670.18	4675.68
670.371	4694.12
670.563	4739.17
670.754	4724.83
670.945	4612.2
671.136	4589.67
671.327	4550.76
671.518	4556.9
671.709	4778.08
671.9	4649.06
672.091	4550.76
672.282	4413.54
672.473	4462.69
672.664	4565.09
672.855	4395.11
673.046	4407.4
673.237	4548.71
673.428	4522.09
673.619	4384.87
673.809	4415.59
674	4356.2
674.191	4313.19
674.382	4282.47
674.573	4407.4
674.764	4202.6
674.954	4403.3
675.145	4171.88
675.336	4245.61
675.527	4153.45
675.717	4323.43
675.908	4268.14
676.099	4218.99
676.289	4311.14
676.48	4184.17
676.671	4161.64
676.861	4096.11
677.052	4112.49
677.243	4200.55
677.433	4051.05
677.624	4231.27
677.814	4122.73
678.005	4173.93
678.195	3969.13
678.386	4010.09
678.576	4151.4
678.767	3944.56
678.957	3983.47
679.148	3977.33
679.338	3969.13
679.529	4014.19
679.719	3887.22
679.909	4118.64
680.1	4067.44
680.29	4034.67
680.481	4067.44
680.671	3815.54
680.861	3999.85
681.052	3874.93
681.242	3940.46
681.432	3928.17
681.622	3899.5
681.813	3874.93
682.003	3754.1
682.193	3860.59
682.383	3827.82
682.573	3801.2
682.764	3905.65
682.954	3844.21
683.144	3879.02
683.334	3680.37
683.524	3795.06
683.714	3582.07
683.904	3639.41
684.094	3768.43
684.284	3754.1
684.474	3805.3
684.664	3655.79
684.854	3876.98
685.044	3606.64
685.234	3602.55
685.424	3661.94
685.614	3610.74
685.804	3639.41
685.994	3653.75
686.184	3750
686.374	3453.05
686.564	3491.96
686.753	3469.43
686.943	3567.73
687.133	3377.27
687.323	3473.53
687.513	3467.38
687.702	3414.13
687.892	3340.41
688.082	3446.9
688.272	3440.76
688.461	3420.28
688.651	3328.12
688.841	3381.37
689.03	3420.28
689.22	3340.41
689.41	3358.84
689.599	3399.8
689.789	3422.33
689.979	3258.49
690.168	3102.84
690.358	3219.58
690.547	3154.04
690.737	3315.83
690.926	3147.9
691.116	3115.13
691.305	3166.33
691.495	3176.57
691.684	3158.14
691.874	3211.39
692.063	3102.84
692.252	3172.47
692.442	3076.22
692.631	3025.02
692.82	3039.36
693.01	3098.75
693.199	3086.46
693.388	3104.89
693.578	3039.36
693.767	3063.93
693.956	3084.41
694.146	2865.28
694.335	2959.49
694.524	2852.99
694.713	2963.58
694.902	3020.92
695.092	3129.47
695.281	2930.81
695.47	2824.32
695.659	2977.92
695.848	2840.7
696.037	2803.84
696.226	3033.21
696.415	3014.78
696.604	3035.26
696.793	2918.53
696.982	2769.02
697.171	2922.62
697.36	2990.21
697.549	2799.74
697.738	2908.29
697.927	2908.29
698.116	2898.05
698.305	2842.75
698.494	2852.99
698.683	2785.41
698.872	2791.55
699.061	2834.56
699.25	2789.5
699.438	2742.4
699.627	2756.74
699.816	2863.23
700.005	2707.59
700.193	2908.29
700.382	2791.55
700.571	2797.7
700.76	2783.36
700.948	2795.65
701.137	2789.5
701.326	2828.42
701.514	2857.09
701.703	2779.26
701.892	2893.95
702.08	2906.24
702.269	2719.87
702.457	2754.69
702.646	2797.7
702.834	2773.12
703.023	2887.81
703.212	2932.86
703.4	2787.46
703.589	2748.54
703.777	2842.75
703.965	2773.12
704.154	2949.25
704.342	2711.68
704.531	2836.61
704.719	2775.17
704.907	2896
705.096	2850.94
705.284	2805.89
705.472	2812.03
705.661	2775.17
705.849	2711.68
706.037	2662.53
706.226	2922.62
706.414	2875.52
706.602	2781.31
706.79	2760.83
706.979	2896
707.167	2762.88
707.355	2842.75
707.543	2689.15
707.731	2877.57
707.919	2756.74
708.107	2762.88
708.296	2816.13
708.484	2701.44
708.672	2795.65
708.86	2791.55
709.048	2758.78
709.236	2787.46
709.424	2816.13
709.612	2766.98
709.8	2799.74
709.988	2816.13
710.176	2830.46
710.364	2705.54
710.551	2830.46
710.739	2723.97
710.927	2783.36
711.115	2680.96
711.303	2787.46
711.491	2832.51
711.679	2736.26
711.866	2740.35
712.054	2814.08
712.242	2793.6
712.43	2754.69
712.617	2787.46
712.805	2734.21
712.993	2746.5
713.181	2793.6
713.368	2738.3
713.556	2719.87
713.744	2730.11
713.931	2738.3
714.119	2785.41
714.306	2762.88
714.494	2723.97
714.682	2906.24
714.869	2760.83
715.057	2762.88
715.244	2707.59
715.432	2726.02
715.619	2703.49
715.807	2771.07
715.994	2664.58
716.182	2738.3
716.369	2711.68
716.556	2801.79
716.744	2721.92
716.931	2752.64
717.119	2687.11
717.306	2705.54
717.493	2678.91
717.681	2734.21
717.868	2527.36
718.055	2721.92
718.242	2760.83
718.43	2648.19
718.617	2695.3
718.804	2734.21
718.991	2775.17
719.179	2674.82
719.366	2693.25
719.553	2703.49
719.74	2744.45
719.927	2760.83
720.114	2662.53
720.301	2705.54
720.488	2775.17
720.676	2572.42
720.863	2715.78
721.05	2713.73
721.237	2801.79
721.424	2689.15
721.611	2676.87
721.798	2603.14
721.985	2742.4
722.172	2648.19
722.358	2676.87
722.545	2580.61
722.732	2676.87
722.919	2721.92
723.106	2525.32
723.293	2736.26
723.48	2547.84
723.667	2650.24
723.853	2631.81
724.04	2597
724.227	2758.78
724.414	2646.15
724.6	2576.52
724.787	2592.9
724.974	2613.38
725.161	2703.49
725.347	2590.85
725.534	2676.87
725.72	2699.39
725.907	2707.59
726.094	2756.74
726.28	2605.19
726.467	2623.62
726.653	2617.47
726.84	2648.19
727.027	2637.95
727.213	2648.19
727.4	2592.9
727.586	2648.19
727.773	2553.99
727.959	2640
728.145	2619.52
728.332	2529.41
728.518	2543.75
728.705	2674.82
728.891	2652.29
729.077	2611.33
729.264	2500.74
729.45	2556.04
729.636	2699.39
729.823	2523.27
730.009	2613.38
730.195	2574.47
730.382	2670.72
730.568	2590.85
730.754	2539.65
730.94	2533.51
731.126	2629.76
731.313	2531.46
731.499	2597
731.685	2723.97
731.871	2547.84
732.057	2584.71
732.243	2527.36
732.429	2439.3
732.615	2603.14
732.801	2525.32
732.987	2449.54
733.173	2541.7
733.359	2515.08
733.545	2418.82
733.731	2384.01
733.917	2568.32
734.103	2506.88
734.289	2543.75
734.475	2574.47
734.661	2539.65
734.847	2377.86
735.033	2443.4
735.219	2539.65
735.404	2451.59
735.59	2439.3
735.776	2443.4
735.962	2478.21
736.148	2500.74
736.333	2463.88
736.519	2406.53
736.705	2513.03
736.89	2482.31
737.076	2324.62
737.262	2269.32
737.447	2467.97
737.633	2392.2
737.819	2449.54
738.004	2420.87
738.19	2390.15
738.375	2281.61
738.561	2433.16
738.747	2316.42
738.932	2361.48
739.118	2324.62
739.303	2453.64
739.489	2291.85
739.674	2353.29
739.859	2371.72
740.045	2269.32
740.23	2277.51
740.416	2306.18
740.601	2369.67
740.786	2275.46
740.972	2242.7
741.157	2287.75
741.342	2181.26
741.528	2197.64
741.713	2293.9
741.898	2181.26
742.084	2226.31
742.269	2111.63
742.454	2261.13
742.639	2201.74
742.824	2224.26
743.01	2216.07
743.195	2115.72
743.38	2193.55
743.565	2175.11
743.75	2271.37
743.935	2138.25
744.12	2226.31
744.305	2058.38
744.49	2111.63
744.675	2152.59
744.86	2062.48
745.045	2087.05
745.23	2087.05
745.415	1947.79
745.6	1919.12
745.785	1931.41
745.97	2171.02
746.155	1994.89
746.34	2031.76
746.525	1904.78
746.71	1923.21
746.895	2001.04
747.079	1921.17
747.264	1992.84
747.449	1988.75
747.634	1867.92
747.819	1812.62
748.003	1931.41
748.188	1810.58
748.373	1898.64
748.557	1833.1
748.742	1912.97
748.927	1843.34
749.111	1781.9
749.296	1677.46
749.481	2001.04
749.665	1820.81
749.85	1753.23
750.034	1812.62
750.219	1884.3
750.404	1710.22
750.588	1652.88
750.773	1728.66
750.957	1712.27
751.141	1644.69
751.326	1667.22
751.51	1697.94
751.695	1714.32
751.879	1605.78
752.064	1585.3
752.248	1636.5
752.432	1728.66
752.617	1599.63
752.801	1671.31
752.985	1542.29
753.17	1548.44
753.354	1613.97
753.538	1480.85
753.722	1497.24
753.907	1585.3
754.091	1493.14
754.275	1491.09
754.459	1501.33
754.643	1521.81
754.828	1552.53
755.012	1466.52
755.196	1448.08
755.38	1407.13
755.564	1452.18
755.748	1462.42
755.932	1448.08
756.116	1400.98
756.3	1355.93
756.484	1351.83
756.668	1470.61
756.852	1349.78
757.036	1425.56
757.22	1314.97
757.404	1364.12
757.588	1331.35
757.772	1413.27
757.956	1302.68
758.14	1290.39
758.323	1286.3
758.507	1300.63
758.691	1198.23
758.875	1335.45
759.059	1196.18
759.242	1249.43
759.426	1169.56
759.61	1138.84
759.794	1224.86
759.977	1173.66
760.161	1118.36
760.345	1239.19
760.528	1222.81
760.712	1130.65
760.895	1085.59
761.079	1091.74
761.263	1169.56
761.446	1120.41
761.63	1142.94
761.813	1118.36
761.997	1142.94
762.18	1054.87
762.364	1073.31
762.547	1052.83
762.731	1136.79
762.914	1140.89
763.098	1110.17
763.281	1063.07
763.464	1104.03
763.648	1038.49
763.831	1063.07
764.015	1044.63
764.198	1073.31
764.381	1081.5
764.564	1124.51
764.748	1001.63
764.931	1106.07
765.114	1063.07
765.297	997.53
765.481	876.7
765.664	989.34
765.847	1044.63
766.03	1112.22
766.213	1026.2
766.397	1042.59
766.58	989.34
766.763	915.61
766.946	929.95
767.129	952.48
767.312	979.1
767.495	1030.3
767.678	938.14
767.861	911.52
768.044	886.94
768.227	966.81
768.41	940.19
768.593	968.86
768.776	985.24
768.959	878.75
769.142	979.1
769.324	895.13
769.507	835.74
769.69	866.46
769.873	911.52
770.056	964.76
770.239	905.37
770.421	866.46
770.604	907.42
770.787	880.8
770.97	917.66
771.152	854.17
771.335	864.41
771.518	852.13
771.7	829.6
771.883	833.69
772.066	911.52
772.248	860.32
772.431	825.5
772.613	934.04
772.796	921.76
772.978	811.17
773.161	837.79
773.343	862.37
773.526	817.31
773.708	817.31
773.891	680.1
774.073	845.98
774.256	721.06
774.438	833.69
774.621	733.34
774.803	817.31
774.985	780.45
775.168	747.68
775.35	811.17
775.532	710.82
775.715	731.3
775.897	749.73
776.079	731.3
776.261	716.96
776.444	776.35
776.626	733.34
776.808	716.96
776.99	659.62
777.173	805.02
777.355	587.94
777.537	721.06
777.719	819.36
777.901	704.67
778.083	663.71
778.265	618.66
778.447	686.24
778.629	655.52
778.811	665.76
778.993	608.42
779.175	614.56
779.357	581.79
779.539	567.46
779.721	583.84
779.903	620.71
780.085	614.56
780.267	620.71
780.449	618.66
780.631	571.55
780.812	626.85
780.994	600.23
781.176	583.84
781.358	516.26
781.54	587.94
781.721	622.75
781.903	563.36
782.085	585.89
782.267	641.18
782.448	571.55
782.63	503.97
782.812	475.3
782.993	612.51
783.175	508.07
783.357	514.21
783.538	514.21
783.72	475.3
783.901	569.51
784.083	508.07
784.264	475.3
784.446	489.64
784.627	473.25
784.809	544.93
784.99	450.72
785.172	503.97
785.353	450.72
785.535	477.35
785.716	495.78
785.897	450.72
786.079	452.77
786.26	422.05
786.441	426.15
786.623	436.39
786.804	409.76
786.985	377
787.167	368.81
787.348	407.72
787.529	483.49
787.71	473.25
787.891	426.15
788.073	456.87
788.254	420
788.435	299.17
788.616	331.94
788.797	391.33
788.978	442.53
789.159	401.57
789.34	422.05
789.522	352.42
789.703	295.08
789.884	446.63
790.065	336.04
790.246	465.06
790.427	319.65
790.607	313.51
790.788	377
790.969	329.89
791.15	272.55
791.331	364.71
791.512	317.61
791.693	393.38
791.874	403.62
792.054	350.37
792.235	397.48
792.416	340.13
792.597	295.08
792.778	336.04
792.958	336.04
793.139	377
793.32	372.9
793.5	247.97
793.681	276.65
793.862	307.37
794.042	372.9
794.223	299.17
794.404	352.42
794.584	311.46
794.765	313.51
794.945	336.04
795.126	303.27
795.306	252.07
795.487	264.36
795.667	305.32
795.848	305.32
796.028	364.71
796.209	293.03
796.389	340.13
796.57	297.13
796.75	290.98
796.93	327.85
797.111	241.83
797.291	311.46
797.471	288.93
797.652	288.93
797.832	256.17
798.012	315.56
798.192	256.17
798.373	311.46
798.553	280.74
798.733	260.26
798.913	237.74
799.093	233.64
799.274	186.54
799.454	321.7
799.634	299.17
799.814	262.31
799.994	272.55
800.174	274.6
800.354	213.16
800.534	213.16
800.714	245.93
800.894	172.2
801.074	227.5
801.254	204.97
801.434	239.78
801.614	198.82
801.794	202.92
801.974	628.9
802.154	225.45
802.334	272.55
802.514	276.65
802.693	309.41
802.873	217.26
803.053	227.5
803.233	176.3
803.413	272.55
803.592	235.69
803.772	170.15
803.952	221.35
804.131	204.97
804.311	219.3
804.491	198.82
804.67	241.83
804.85	200.87
805.03	211.11
805.209	258.21
805.389	282.79
805.568	211.11
805.748	243.88
805.928	243.88
806.107	215.21
806.287	188.58
806.466	180.39
806.646	192.68
806.825	182.44
807.004	164.01
807.184	186.54
807.363	241.83
807.543	243.88
807.722	149.67
807.901	219.3
808.081	243.88
808.26	112.81
808.439	153.77
808.619	268.45
808.798	213.16
808.977	186.54
809.156	233.64
809.336	180.39
809.515	110.76
809.694	155.82
809.873	114.86
810.052	256.17
810.231	129.19
810.411	145.58
810.59	161.96
810.769	176.3
810.948	131.24
811.127	127.14
811.306	192.68
811.485	194.73
811.664	143.53
811.843	149.67
812.022	135.34
812.201	176.3
812.38	182.44
812.559	166.06
812.737	182.44
812.916	90.28
813.095	141.48
813.274	139.43
813.453	125.1
813.632	118.95
813.811	139.43
813.989	143.53
814.168	202.92
814.347	157.86
814.526	131.24
814.704	178.34
814.883	153.77
815.062	112.81
815.24	98.47
815.419	118.95
815.598	182.44
815.776	194.73
815.955	157.86
816.133	96.43
816.312	112.81
816.49	28.84
816.669	166.06
816.847	164.01
817.026	125.1
817.204	100.52
817.383	102.57
817.561	125.1
817.74	116.9
817.918	90.28
818.097	153.77
818.275	110.76
818.453	151.72
818.632	73.9
818.81	123.05
818.988	164.01
819.167	104.62
819.345	63.66
819.523	123.05
819.701	166.06
819.879	155.82
820.058	166.06
820.236	98.47
820.414	92.33
820.592	114.86
820.77	157.86
820.948	90.28
821.127	47.27
821.305	114.86
821.483	135.34
821.661	82.09
821.839	147.62
822.017	47.27
822.195	84.14
822.373	98.47
822.551	71.85
822.729	172.2
822.907	170.15
823.085	82.09
823.262	135.34
823.44	84.14
823.618	82.09
823.796	121
823.974	110.76
824.152	143.53
824.329	71.85
824.507	100.52
824.685	145.58
824.863	53.42
825.04	172.2
825.218	55.47
825.396	123.05
825.574	141.48
825.751	75.95
825.929	88.23
826.107	59.56
826.284	84.14
826.462	123.05
826.639	0.17
826.817	-20.31
826.994	8.36
827.172	80.04
827.349	106.67
827.527	51.37
827.704	98.47
827.882	106.67
828.059	108.71
828.237	61.61
828.414	121
828.591	86.19
828.769	96.43
828.946	34.99
829.124	110.76
829.301	127.14
829.478	12.46
829.655	110.76
829.833	6.31
830.01	22.7
830.187	127.14
830.364	0.17
830.542	43.18
830.719	88.23
830.896	133.29
831.073	80.04
831.25	127.14
831.427	92.33
831.604	71.85
831.782	90.28
831.959	92.33
832.136	110.76
832.313	84.14
832.49	114.86
832.667	88.23
832.844	114.86
833.021	59.56
833.198	82.09
833.374	82.09
833.551	65.71
833.728	10.41
833.905	110.76
834.082	43.18
834.259	20.65
834.436	116.9
834.612	2.22
834.789	67.75
834.966	51.37
835.143	104.62
835.319	53.42
835.496	88.23
835.673	51.37
835.85	90.28
836.026	131.24
836.203	22.7
836.38	39.08
836.556	41.13
836.733	-12.12
836.909	84.14
837.086	39.08
837.262	26.79
837.439	55.47
837.616	26.79
837.792	94.38
837.968	45.23
838.145	6.31
838.321	98.47
838.498	65.71
838.674	51.37
838.851	49.32
839.027	47.27
839.203	108.71
839.38	75.95
839.556	84.14
839.732	14.51
839.909	47.27
840.085	151.72
840.261	-20.31
840.437	14.51
840.614	43.18
840.79	43.18
840.966	77.99
841.142	4.27
841.318	57.51
841.494	49.32
841.671	43.18
841.847	82.09
842.023	104.62
842.199	45.23
842.375	65.71
842.551	24.75
842.727	14.51
842.903	20.65
843.079	-10.07
843.255	82.09
843.431	94.38
843.607	106.67
843.783	41.13
843.959	59.56
844.134	43.18
844.31	32.94
844.486	-5.97
844.662	39.08
844.838	88.23
845.013	-14.17
845.189	55.47
845.365	55.47
845.541	8.36
845.716	80.04
845.892	14.51
846.068	18.6
846.244	-18.26
846.419	75.95
846.595	2.22
846.77	30.89
846.946	75.95
847.122	-1.88
847.297	12.46
847.473	28.84
847.648	14.51
847.824	75.95
847.999	-26.45
848.175	45.23
848.35	57.51
848.526	84.14
848.701	-12.12
848.876	90.28
849.052	20.65
849.227	49.32
849.403	-24.4
849.578	61.61
849.753	34.99
849.929	57.51
850.104	-12.12
850.279	57.51
850.454	8.36
850.63	32.94
850.805	75.95
850.98	26.79
851.155	20.65
851.33	12.46
851.505	63.66
851.681	84.14
851.856	-32.6
852.031	37.03
852.206	26.79
852.381	49.32
852.556	-10.07
852.731	-12.12
852.906	73.9
853.081	45.23
853.256	61.61
853.431	41.13
853.606	90.28
853.781	12.46
853.956	-14.17
854.131	20.65
854.305	-24.4
854.48	28.84
854.655	71.85
854.83	92.33
855.005	77.99
855.18	57.51
855.354	2.22
855.529	37.03
855.704	0.17
855.879	16.55
856.053	-5.97
856.228	-16.21
856.403	41.13
856.577	8.36
856.752	4.27
856.926	94.38
857.101	16.55
857.276	12.46
857.45	51.37
857.625	53.42
857.799	-22.36
857.974	39.08
858.148	-16.21
858.323	24.75
858.497	-1.88
858.672	-48.98
858.846	14.51
859.02	28.84
859.195	-5.97
859.369	-3.93
859.543	12.46
859.718	20.65
859.892	-38.74
860.066	8.36
860.241	-53.08
860.415	10.41
860.589	65.71
860.763	45.23
860.938	4.27
861.112	55.47
861.286	34.99
861.46	47.27
861.634	-12.12
861.808	45.23
861.982	41.13
862.157	39.08
862.331	6.31
862.505	34.99
862.679	-81.75
862.853	-24.4
863.027	-1.88
863.201	73.9
863.375	-8.02
863.549	84.14
863.722	12.46
863.896	63.66
864.07	-20.31
864.244	-83.8
864.418	-57.17
864.592	18.6
864.766	41.13
864.939	71.85
865.113	18.6
865.287	22.7
865.461	34.99
865.634	-1.88
865.808	18.6
865.982	32.94
866.156	30.89
866.329	16.55
866.503	53.42
866.676	-16.21
866.85	55.47
867.024	-12.12
867.197	-3.93
867.371	67.75
867.544	16.55
867.718	-40.79
867.891	39.08
868.065	6.31
868.238	2.22
868.412	-1.88
868.585	-1.88
868.759	41.13
868.932	-77.65
869.105	57.51
869.279	41.13
869.452	-8.02
869.625	-22.36
869.799	14.51
869.972	-141.14
870.145	16.55
870.319	75.95
870.492	-1.88
870.665	37.03
870.838	-48.98
871.011	-81.75
871.185	59.56
871.358	26.79
871.531	43.18
871.704	-14.17
871.877	8.36
872.05	-14.17
872.223	49.32
872.396	6.31
872.569	73.9
872.742	4.27
872.915	14.51
873.088	-24.4
873.261	-28.5
873.434	-32.6
873.607	10.41
873.78	41.13
873.953	28.84
874.126	10.41
874.299	80.04
874.471	0.17
874.644	-12.12
874.817	18.6
874.99	-16.21
875.163	16.55
875.335	-46.93
875.508	34.99
875.681	28.84
875.853	-28.5
876.026	18.6
876.199	8.36
876.371	20.65
876.544	8.36
876.717	-12.12
876.889	-59.22
877.062	14.51
877.234	-71.51
877.407	-61.27
877.579	-110.42
877.752	30.89
877.924	-34.64
878.097	-10.07
878.269	-32.6
878.442	-44.88
878.614	-42.84
878.786	-46.93
878.959	51.37
879.131	22.7
879.303	-42.84
879.476	0.17
879.648	-12.12
879.82	0.17
879.993	-3.93
880.165	22.7
880.337	-44.88
880.509	-42.84
880.681	-20.31
880.854	14.51
881.026	71.85
881.198	47.27
881.37	8.36
881.542	53.42
881.714	2.22
881.886	4.27
882.058	-55.12
882.23	47.27
882.402	14.51
882.574	110.76
882.746	-8.02
882.918	6.31
883.09	39.08
883.262	-32.6
883.434	39.08
883.606	-30.55
883.778	26.79
883.95	43.18
884.122	69.8
884.293	-16.21
884.465	-5.97
884.637	30.89
884.809	24.75
884.98	-5.97
885.152	55.47
885.324	55.47
885.496	10.41
885.667	24.75
885.839	-57.17
886.011	28.84
886.182	-104.28
886.354	-8.02
886.525	0.17
886.697	39.08
886.869	8.36
887.04	55.47
887.212	47.27
887.383	0.17
887.555	32.94
887.726	-57.17
887.897	-53.08
888.069	-40.79
888.24	-69.46
888.412	4.27
888.583	12.46
888.754	49.32
888.926	22.7
889.097	24.75
889.268	-1.88
889.44	12.46
889.611	-51.03
889.782	-5.97
889.953	-5.97
890.125	18.6
890.296	-57.17
890.467	6.31
890.638	18.6
890.809	49.32
890.98	16.55
891.151	28.84
891.323	8.36
891.494	-12.12
891.665	-44.88
891.836	-3.93
892.007	-18.26
892.178	22.7
892.349	-63.32
892.52	59.56
892.691	-18.26
892.862	-1.88
893.032	-5.97
893.203	32.94
893.374	-57.17
893.545	37.03
893.716	-14.17
893.887	67.75
894.057	22.7
894.228	8.36
894.399	-28.5
894.57	18.6
894.74	59.56
894.911	55.47
895.082	34.99
895.253	32.94
895.423	-14.17
895.594	16.55
895.764	-3.93
895.935	-8.02
896.106	-42.84
896.276	16.55
896.447	82.09
896.617	-42.84
896.788	6.31
896.958	-20.31
897.129	-3.93
897.299	51.37
897.47	-3.93
897.64	-44.88
897.81	28.84
897.981	34.99
898.151	-10.07
898.322	14.51
898.492	14.51
898.662	-3.93
898.832	22.7
899.003	63.66
899.173	-1.88
899.343	-18.26
899.513	18.6
