Data from USB4F104151__63__12-01-51-408.txt Node

Date: Fri Mar 14 12:01:51 EDT 2025
User: louis
Spectrometer: USB4F10415
Trigger mode: 4
Integration Time (sec): 2.000000E-2
Scans to average: 1
Electric dark correction enabled: true
Nonlinearity correction enabled: false
Boxcar width: 0
XAxis mode: Wavelengths
Number of Pixels in Spectrum: 3648
>>>>>Begin Spectral Data<<<<<
178.204	-64.17
178.424	-64.17
178.644	-64.17
178.864	-150.18
179.084	-129.7
179.304	-64.17
179.524	-2.73
179.744	9.56
179.964	-4.78
180.184	38.23
180.404	-6.83
180.624	1.37
180.844	-37.55
181.064	-19.11
181.283	-49.83
181.503	46.42
181.723	89.43
181.943	-51.88
182.163	23.89
182.383	-35.5
182.602	58.71
182.822	54.61
183.042	36.18
183.262	19.8
183.482	-29.35
183.701	-35.5
183.921	89.43
184.141	-39.59
184.361	-21.16
184.58	25.94
184.8	9.56
185.02	-45.74
185.239	44.37
185.459	1.37
185.679	79.19
185.898	3.41
186.118	62.8
186.338	-35.5
186.557	7.51
186.777	-43.69
186.997	54.61
187.216	62.8
187.436	48.47
187.655	75.09
187.875	42.32
188.095	-39.59
188.314	34.13
188.534	5.46
188.753	23.89
188.973	71
189.192	62.8
189.412	54.61
189.631	23.89
189.851	-6.83
190.07	77.14
190.29	-8.87
190.509	71
190.729	-17.07
190.948	64.85
191.168	89.43
191.387	95.57
191.607	66.9
191.826	-23.21
192.045	46.42
192.265	7.51
192.484	46.42
192.704	34.13
192.923	-29.35
193.142	68.95
193.362	66.9
193.581	30.04
193.8	23.89
194.02	32.08
194.239	75.09
194.458	-10.92
194.678	7.51
194.897	103.76
195.116	48.47
195.335	-17.07
195.555	-12.97
195.774	66.9
195.993	17.75
196.212	17.75
196.432	-43.69
196.651	46.42
196.87	19.8
197.089	44.37
197.308	3.41
197.528	38.23
197.747	19.8
197.966	-0.68
198.185	62.8
198.404	11.61
198.623	7.51
198.842	-15.02
199.062	19.8
199.281	48.47
199.5	46.42
199.719	58.71
199.938	-29.35
200.157	56.66
200.376	32.08
200.595	36.18
200.814	-21.16
201.033	77.14
201.252	34.13
201.471	-8.87
201.69	17.75
201.909	-31.4
202.128	-35.5
202.347	81.24
202.566	13.65
202.785	27.99
203.004	-43.69
203.223	58.71
203.442	-10.92
203.661	-23.21
203.879	58.71
204.098	21.85
204.317	21.85
204.536	60.76
204.755	81.24
204.974	-2.73
205.193	-29.35
205.411	71
205.63	73.04
205.849	7.51
206.068	-2.73
206.287	-25.26
206.505	23.89
206.724	-21.16
206.943	-41.64
207.162	17.75
207.381	-27.31
207.599	9.56
207.818	15.7
208.037	-35.5
208.255	-15.02
208.474	5.46
208.693	71
208.911	-6.83
209.13	11.61
209.349	44.37
209.567	27.99
209.786	-8.87
210.005	15.7
210.223	25.94
210.442	-8.87
210.661	40.28
210.879	11.61
211.098	111.96
211.316	23.89
211.535	1.37
211.753	56.66
211.972	60.76
212.191	27.99
212.409	30.04
212.628	19.8
212.846	-55.98
213.065	19.8
213.283	75.09
213.502	83.28
213.72	-23.21
213.938	-12.97
214.157	99.67
214.375	64.85
214.594	95.57
214.812	50.52
215.031	-31.4
215.249	21.85
215.467	36.18
215.686	13.65
215.904	7.51
216.122	32.08
216.341	34.13
216.559	-12.97
216.778	77.14
216.996	-21.16
217.214	-37.55
217.432	48.47
217.651	75.09
217.869	9.56
218.087	17.75
218.306	-2.73
218.524	79.19
218.742	11.61
218.96	32.08
219.179	-15.02
219.397	-23.21
219.615	83.28
219.833	68.95
220.051	17.75
220.27	19.8
220.488	25.94
220.706	-4.78
220.924	-15.02
221.142	64.85
221.36	-21.16
221.578	30.04
221.796	-8.87
222.015	-10.92
222.233	62.8
222.451	77.14
222.669	-23.21
222.887	114
223.105	13.65
223.323	23.89
223.541	42.32
223.759	46.42
223.977	32.08
224.195	62.8
224.413	25.94
224.631	30.04
224.849	-27.31
225.067	85.33
225.285	-31.4
225.503	-10.92
225.721	-41.64
225.939	15.7
226.157	-15.02
226.375	66.9
226.592	44.37
226.81	-6.83
227.028	17.75
227.246	44.37
227.464	-51.88
227.682	62.8
227.9	89.43
228.117	-10.92
228.335	-23.21
228.553	75.09
228.771	15.7
228.989	-23.21
229.206	25.94
229.424	-15.02
229.642	58.71
229.86	56.66
230.077	11.61
230.295	7.51
230.513	21.85
230.731	68.95
230.948	77.14
231.166	7.51
231.384	-33.45
231.601	46.42
231.819	50.52
232.037	40.28
232.254	13.65
232.472	13.65
232.689	46.42
232.907	17.75
233.125	13.65
233.342	34.13
233.56	27.99
233.777	-45.74
233.995	3.41
234.213	46.42
234.43	101.72
234.648	66.9
234.865	21.85
235.083	52.56
235.3	79.19
235.518	46.42
235.735	1.37
235.953	60.76
236.17	81.24
236.388	109.91
236.605	-58.03
236.822	83.28
237.04	46.42
237.257	9.56
237.475	-6.83
237.692	95.57
237.909	-6.83
238.127	-10.92
238.344	27.99
238.562	-25.26
238.779	-78.51
238.996	1.37
239.214	-0.68
239.431	38.23
239.648	9.56
239.865	71
240.083	-8.87
240.3	11.61
240.517	38.23
240.735	38.23
240.952	62.8
241.169	50.52
241.386	32.08
241.603	-21.16
241.821	50.52
242.038	116.05
242.255	1.37
242.472	9.56
242.689	46.42
242.907	30.04
243.124	-29.35
243.341	56.66
243.558	7.51
243.775	32.08
243.992	-4.78
244.209	-0.68
244.426	44.37
244.643	56.66
244.86	-45.74
245.078	32.08
245.295	87.38
245.512	-29.35
245.729	71
245.946	52.56
246.163	21.85
246.38	-23.21
246.597	-35.5
246.814	40.28
247.031	-53.93
247.248	-10.92
247.464	13.65
247.681	42.32
247.898	13.65
248.115	-10.92
248.332	60.76
248.549	9.56
248.766	21.85
248.983	116.05
249.2	-35.5
249.417	5.46
249.633	-19.11
249.85	19.8
250.067	56.66
250.284	-6.83
250.501	1.37
250.717	34.13
250.934	-31.4
251.151	50.52
251.368	50.52
251.585	11.61
251.801	3.41
252.018	-8.87
252.235	75.09
252.451	23.89
252.668	50.52
252.885	-10.92
253.102	40.28
253.318	-23.21
253.535	-2.73
253.752	30.04
253.968	-0.68
254.185	-0.68
254.401	30.04
254.618	52.56
254.835	42.32
255.051	36.18
255.268	30.04
255.484	50.52
255.701	21.85
255.917	7.51
256.134	-10.92
256.351	73.04
256.567	64.85
256.784	34.13
257	40.28
257.217	118.1
257.433	62.8
257.65	15.7
257.866	-4.78
258.082	-15.02
258.299	-25.26
258.515	15.7
258.732	97.62
258.948	40.28
259.165	32.08
259.381	42.32
259.597	23.89
259.814	32.08
260.03	54.61
260.246	-0.68
260.463	-15.02
260.679	40.28
260.895	58.71
261.112	46.42
261.328	34.13
261.544	-62.12
261.761	52.56
261.977	71
262.193	71
262.409	40.28
262.626	73.04
262.842	44.37
263.058	32.08
263.274	64.85
263.49	114
263.707	32.08
263.923	56.66
264.139	77.14
264.355	7.51
264.571	-2.73
264.787	48.47
265.004	165.2
265.22	32.08
265.436	-43.69
265.652	60.76
265.868	-29.35
266.084	-29.35
266.3	1.37
266.516	-72.36
266.732	19.8
266.948	-17.07
267.164	21.85
267.38	38.23
267.596	1.37
267.812	-12.97
268.028	42.32
268.244	71
268.46	93.52
268.676	-37.55
268.892	62.8
269.108	9.56
269.324	-8.87
269.54	46.42
269.756	40.28
269.972	32.08
270.188	15.7
270.403	9.56
270.619	-37.55
270.835	34.13
271.051	27.99
271.267	52.56
271.483	85.33
271.698	-12.97
271.914	54.61
272.13	-19.11
272.346	-10.92
272.562	40.28
272.777	54.61
272.993	-8.87
273.209	46.42
273.425	87.38
273.64	83.28
273.856	81.24
274.072	40.28
274.287	32.08
274.503	21.85
274.719	38.23
274.934	32.08
275.15	-2.73
275.366	34.13
275.581	15.7
275.797	-15.02
276.012	25.94
276.228	-12.97
276.444	5.46
276.659	71
276.875	-0.68
277.09	11.61
277.306	7.51
277.521	54.61
277.737	27.99
277.952	19.8
278.168	52.56
278.383	15.7
278.599	93.52
278.814	7.51
279.03	21.85
279.245	99.67
279.461	79.19
279.676	99.67
279.892	19.8
280.107	-15.02
280.322	66.9
280.538	46.42
280.753	11.61
280.969	44.37
281.184	21.85
281.399	71
281.615	-45.74
281.83	36.18
282.045	-49.83
282.26	-4.78
282.476	99.67
282.691	89.43
282.906	64.85
283.122	73.04
283.337	75.09
283.552	23.89
283.767	36.18
283.983	93.52
284.198	93.52
284.413	66.9
284.628	17.75
284.843	30.04
285.058	60.76
285.274	32.08
285.489	3.41
285.704	42.32
285.919	23.89
286.134	19.8
286.349	15.7
286.564	13.65
286.779	9.56
286.995	71
287.21	-15.02
287.425	25.94
287.64	1.37
287.855	3.41
288.07	-15.02
288.285	71
288.5	79.19
288.715	30.04
288.93	7.51
289.145	30.04
289.36	13.65
289.575	-0.68
289.79	7.51
290.004	21.85
290.219	52.56
290.434	13.65
290.649	7.51
290.864	-23.21
291.079	-12.97
291.294	56.66
291.509	64.85
291.724	-49.83
291.938	3.41
292.153	36.18
292.368	21.85
292.583	56.66
292.798	58.71
293.012	83.28
293.227	42.32
293.442	-27.31
293.657	79.19
293.871	93.52
294.086	44.37
294.301	11.61
294.516	68.95
294.73	-6.83
294.945	50.52
295.16	75.09
295.374	58.71
295.589	118.1
295.804	-66.22
296.018	71
296.233	-37.55
296.447	30.04
296.662	46.42
296.877	66.9
297.091	75.09
297.306	-41.64
297.52	38.23
297.735	13.65
297.949	34.13
298.164	40.28
298.378	-6.83
298.593	66.9
298.807	-35.5
299.022	34.13
299.236	38.23
299.451	-10.92
299.665	-2.73
299.88	107.86
300.094	48.47
300.309	-35.5
300.523	38.23
300.737	15.7
300.952	83.28
301.166	60.76
301.381	21.85
301.595	77.14
301.809	3.41
302.024	44.37
302.238	25.94
302.452	30.04
302.667	-15.02
302.881	77.14
303.095	81.24
303.309	42.32
303.524	-19.11
303.738	40.28
303.952	-43.69
304.166	68.95
304.381	-41.64
304.595	85.33
304.809	21.85
305.023	91.48
305.237	-31.4
305.452	54.61
305.666	-4.78
305.88	73.04
306.094	99.67
306.308	27.99
306.522	50.52
306.736	97.62
306.95	34.13
307.164	-43.69
307.379	66.9
307.593	68.95
307.807	-21.16
308.021	15.7
308.235	-37.55
308.449	46.42
308.663	-12.97
308.877	30.04
309.091	32.08
309.305	7.51
309.519	25.94
309.733	109.91
309.947	40.28
310.161	54.61
310.374	11.61
310.588	66.9
310.802	-53.93
311.016	36.18
311.23	13.65
311.444	32.08
311.658	-10.92
311.872	89.43
312.085	132.44
312.299	46.42
312.513	17.75
312.727	52.56
312.941	27.99
313.154	19.8
313.368	64.85
313.582	-17.07
313.796	54.61
314.009	15.7
314.223	73.04
314.437	27.99
314.651	79.19
314.864	-17.07
315.078	9.56
315.292	-8.87
315.505	-55.98
315.719	89.43
315.933	66.9
316.146	3.41
316.36	-12.97
316.573	27.99
316.787	114
317.001	54.61
317.214	25.94
317.428	111.96
317.641	66.9
317.855	-4.78
318.068	5.46
318.282	103.76
318.495	64.85
318.709	-19.11
318.922	13.65
319.136	58.71
319.349	52.56
319.563	34.13
319.776	9.56
319.99	-41.64
320.203	111.96
320.417	-2.73
320.63	73.04
320.843	44.37
321.057	42.32
321.27	71
321.483	62.8
321.697	103.76
321.91	23.89
322.124	66.9
322.337	34.13
322.55	1.37
322.763	15.7
322.977	68.95
323.19	52.56
323.403	-21.16
323.617	56.66
323.83	46.42
324.043	-23.21
324.256	50.52
324.469	30.04
324.683	46.42
324.896	27.99
325.109	71
325.322	-74.41
325.535	44.37
325.748	52.56
325.962	48.47
326.175	79.19
326.388	83.28
326.601	48.47
326.814	-53.93
327.027	38.23
327.24	30.04
327.453	-0.68
327.666	30.04
327.879	15.7
328.092	42.32
328.305	19.8
328.518	68.95
328.731	-23.21
328.944	42.32
329.157	-12.97
329.37	62.8
329.583	-19.11
329.796	19.8
330.009	-27.31
330.222	13.65
330.435	81.24
330.648	81.24
330.861	85.33
331.073	-12.97
331.286	89.43
331.499	36.18
331.712	7.51
331.925	97.62
332.138	46.42
332.35	56.66
332.563	38.23
332.776	34.13
332.989	9.56
333.202	11.61
333.414	25.94
333.627	7.51
333.84	-37.55
334.053	9.56
334.265	-39.59
334.478	140.63
334.691	-0.68
334.903	73.04
335.116	-0.68
335.329	-8.87
335.541	62.8
335.754	40.28
335.966	38.23
336.179	9.56
336.392	73.04
336.604	-6.83
336.817	60.76
337.029	19.8
337.242	103.76
337.454	36.18
337.667	-15.02
337.88	89.43
338.092	-6.83
338.305	-21.16
338.517	60.76
338.729	68.95
338.942	99.67
339.154	34.13
339.367	5.46
339.579	111.96
339.792	-21.16
340.004	79.19
340.217	50.52
340.429	27.99
340.641	27.99
340.854	25.94
341.066	21.85
341.278	83.28
341.491	7.51
341.703	114
341.915	32.08
342.128	99.67
342.34	21.85
342.552	-29.35
342.764	120.15
342.977	83.28
343.189	30.04
343.401	58.71
343.613	34.13
343.826	75.09
344.038	9.56
344.25	60.76
344.462	-12.97
344.674	79.19
344.886	89.43
345.099	44.37
345.311	66.9
345.523	89.43
345.735	1.37
345.947	40.28
346.159	50.52
346.371	87.38
346.583	77.14
346.795	97.62
347.007	68.95
347.219	48.47
347.431	54.61
347.643	34.13
347.855	-4.78
348.067	87.38
348.279	-4.78
348.491	40.28
348.703	77.14
348.915	101.72
349.127	36.18
349.339	-15.02
349.551	3.41
349.763	48.47
349.975	25.94
350.187	-12.97
350.399	21.85
350.61	9.56
350.822	-21.16
351.034	5.46
351.246	36.18
351.458	11.61
351.669	23.89
351.881	62.8
352.093	87.38
352.305	25.94
352.517	-101.03
352.728	13.65
352.94	58.71
353.152	-31.4
353.363	-58.03
353.575	-25.26
353.787	21.85
353.999	36.18
354.21	56.66
354.422	50.52
354.633	48.47
354.845	95.57
355.057	30.04
355.268	21.85
355.48	11.61
355.692	-2.73
355.903	42.32
356.115	27.99
356.326	-17.07
356.538	64.85
356.749	48.47
356.961	62.8
357.172	-15.02
357.384	-0.68
357.595	95.57
357.807	46.42
358.018	13.65
358.23	54.61
358.441	56.66
358.653	93.52
358.864	58.71
359.075	46.42
359.287	83.28
359.498	105.81
359.709	44.37
359.921	58.71
360.132	1.37
360.344	9.56
360.555	1.37
360.766	73.04
360.977	83.28
361.189	40.28
361.4	60.76
361.611	27.99
361.823	19.8
362.034	25.94
362.245	9.56
362.456	25.94
362.667	-23.21
362.879	17.75
363.09	66.9
363.301	25.94
363.512	27.99
363.723	15.7
363.935	71
364.146	25.94
364.357	19.8
364.568	105.81
364.779	-6.83
364.99	-23.21
365.201	9.56
365.412	68.95
365.623	56.66
365.834	52.56
366.045	-37.55
366.256	25.94
366.467	79.19
366.678	52.56
366.889	-53.93
367.1	64.85
367.311	81.24
367.522	91.48
367.733	9.56
367.944	105.81
368.155	15.7
368.366	91.48
368.577	93.52
368.788	91.48
368.999	42.32
369.209	13.65
369.42	73.04
369.631	111.96
369.842	111.96
370.053	54.61
370.264	30.04
370.474	71
370.685	68.95
370.896	40.28
371.107	-25.26
371.317	71
371.528	50.52
371.739	73.04
371.95	-10.92
372.16	7.51
372.371	-15.02
372.582	23.89
372.792	15.7
373.003	85.33
373.214	-19.11
373.424	73.04
373.635	-0.68
373.846	138.58
374.056	62.8
374.267	52.56
374.477	46.42
374.688	68.95
374.898	56.66
375.109	48.47
375.319	87.38
375.53	75.09
375.74	13.65
375.951	27.99
376.161	36.18
376.372	40.28
376.582	30.04
376.793	34.13
377.003	44.37
377.214	-45.74
377.424	23.89
377.635	-6.83
377.845	-10.92
378.055	17.75
378.266	-29.35
378.476	91.48
378.686	91.48
378.897	25.94
379.107	85.33
379.317	30.04
379.528	25.94
379.738	-68.27
379.948	64.85
380.158	101.72
380.369	91.48
380.579	5.46
380.789	62.8
380.999	105.81
381.21	15.7
381.42	71
381.63	52.56
381.84	64.85
382.05	87.38
382.261	83.28
382.471	32.08
382.681	60.76
382.891	13.65
383.101	5.46
383.311	85.33
383.521	21.85
383.731	23.89
383.941	50.52
384.151	54.61
384.361	42.32
384.571	38.23
384.781	54.61
384.991	79.19
385.201	89.43
385.411	77.14
385.621	15.7
385.831	114
386.041	64.85
386.251	85.33
386.461	58.71
386.671	27.99
386.881	40.28
387.091	48.47
387.301	87.38
387.511	30.04
387.72	9.56
387.93	-10.92
388.14	19.8
388.35	32.08
388.56	73.04
388.769	68.95
388.979	83.28
389.189	60.76
389.399	46.42
389.609	17.75
389.818	34.13
390.028	44.37
390.238	58.71
390.447	30.04
390.657	56.66
390.867	-17.07
391.076	71
391.286	25.94
391.496	1.37
391.705	64.85
391.915	68.95
392.125	77.14
392.334	34.13
392.544	77.14
392.753	25.94
392.963	-8.87
393.172	48.47
393.382	36.18
393.591	111.96
393.801	17.75
394.01	136.53
394.22	40.28
394.429	132.44
394.639	15.7
394.848	77.14
395.058	46.42
395.267	71
395.477	116.05
395.686	81.24
395.895	118.1
396.105	42.32
396.314	93.52
396.524	95.57
396.733	52.56
396.942	93.52
397.152	36.18
397.361	79.19
397.57	89.43
397.78	95.57
397.989	42.32
398.198	21.85
398.407	107.86
398.617	42.32
398.826	132.44
399.035	17.75
399.244	103.76
399.453	50.52
399.663	138.58
399.872	95.57
400.081	75.09
400.29	130.39
400.499	71
400.708	107.86
400.917	62.8
401.127	124.24
401.336	87.38
401.545	183.63
401.754	142.68
401.963	144.72
402.172	116.05
402.381	126.29
402.59	105.81
402.799	97.62
403.008	124.24
403.217	114
403.426	97.62
403.635	79.19
403.844	85.33
404.053	91.48
404.262	103.76
404.471	157.01
404.68	103.76
404.888	85.33
405.097	83.28
405.306	179.54
405.515	167.25
405.724	175.44
405.933	157.01
406.142	161.11
406.35	208.21
406.559	146.77
406.768	163.15
406.977	197.97
407.185	136.53
407.394	290.13
407.603	169.3
407.812	167.25
408.02	245.07
408.229	220.5
408.438	165.2
408.646	208.21
408.855	187.73
409.064	214.35
409.272	208.21
409.481	257.36
409.69	243.03
409.898	261.46
410.107	288.08
410.315	253.27
410.524	324.94
410.733	359.76
410.941	251.22
411.15	415.06
411.358	413.01
411.567	329.04
411.775	308.56
411.984	363.86
412.192	417.1
412.401	406.86
412.609	417.1
412.818	488.78
413.026	519.5
413.234	406.86
413.443	388.43
413.651	423.25
413.86	490.83
414.068	574.8
414.276	615.76
414.485	507.21
414.693	560.46
414.901	611.66
415.11	552.27
415.318	636.24
415.526	666.96
415.734	738.63
415.943	693.58
416.151	728.39
416.359	810.31
416.567	843.08
416.776	822.6
416.984	890.18
417.192	935.24
417.4	902.47
417.608	922.95
417.817	871.75
418.025	992.58
418.233	1086.79
418.441	1027.4
418.649	1170.76
418.857	1209.67
419.065	1201.48
419.273	1133.89
419.481	1262.91
419.689	1269.06
419.897	1385.79
420.105	1371.46
420.313	1422.66
420.521	1377.6
420.729	1410.37
420.937	1469.76
421.145	1662.27
421.353	1645.88
421.561	1746.23
421.769	1633.6
421.977	1881.4
422.185	1946.94
422.393	1975.61
422.601	2055.48
422.809	2143.54
423.017	2100.53
423.224	2073.91
423.432	2200.88
423.64	2227.51
423.848	2467.12
424.056	2315.57
424.263	2579.76
424.471	2417.97
424.679	2628.91
424.887	2821.42
425.094	2891.05
425.302	2958.63
425.51	2905.38
425.718	3020.07
425.925	3054.89
426.133	3153.19
426.341	3503.39
426.548	3484.96
426.756	3607.84
426.964	3587.36
427.171	3773.72
427.379	3851.55
427.586	3878.17
427.794	4148.5
428.001	4306.2
428.209	4515.09
428.417	4463.89
428.624	4732.17
428.832	4642.06
429.039	4519.18
429.247	4642.06
429.454	5133.57
429.662	5518.59
429.869	5039.37
430.076	5563.65
430.284	5344.52
430.491	5649.66
430.699	5975.29
430.906	5862.65
431.114	5827.84
431.321	6165.75
431.528	6184.18
431.736	6567.15
431.943	6968.56
432.15	6730.99
432.358	6774
432.565	7384.29
432.772	7134.44
432.979	7771.36
433.187	7605.47
433.394	7955.68
433.601	8303.83
433.808	8344.79
434.016	8406.23
434.223	8686.8
434.43	9346.25
434.637	9004.24
434.844	9604.29
435.052	9852.09
435.259	9608.39
435.466	9858.24
435.673	9706.69
435.88	10325.18
436.087	10929.33
436.294	10990.77
436.501	10566.84
436.708	10853.55
436.915	11138.22
437.122	11637.92
437.329	11797.67
437.537	12240.03
437.743	12205.21
437.95	12106.91
438.157	12860.56
438.364	13128.84
438.571	13278.35
438.778	13341.83
438.985	14580.85
439.192	14064.77
439.399	14382.2
439.606	14228.6
439.813	14830.71
440.02	15543.4
440.227	15541.35
440.433	15254.64
440.64	15613.03
440.847	15801.44
441.054	16225.37
441.261	17259.6
441.467	17218.64
441.674	17253.45
441.881	18064.45
442.088	17908.8
442.294	17814.6
442.501	18312.25
442.708	18527.29
442.914	19342.38
443.121	19862.57
443.328	19596.33
443.534	21103.64
443.741	20358.17
443.948	20300.83
444.154	21752.84
444.361	21646.35
444.568	21675.02
444.774	21992.45
444.981	22035.46
445.187	22782.97
445.394	23403.5
445.6	23356.4
445.807	25605.07
446.013	24251.36
446.22	24761.31
446.426	25560.02
446.633	26149.83
446.839	27018.17
447.046	25959.37
447.252	27141.05
447.459	27691.95
447.665	26911.67
447.871	28435.36
448.078	29844.37
448.284	28244.9
448.491	28337.06
448.697	30008.2
448.903	30991.23
449.11	30819.2
449.316	30112.65
449.522	30753.66
449.728	31546.23
449.935	31609.72
450.141	31738.74
450.347	32555.88
450.553	31218.55
450.76	31570.8
450.966	33151.84
451.172	32129.9
451.378	33422.17
451.584	33000.29
451.791	33420.12
451.997	33338.2
452.203	34128.72
452.409	33782.61
452.615	33690.45
452.821	32605.03
453.027	32349.03
453.233	34143.05
453.44	32541.54
453.646	33194.84
453.852	32822.11
454.058	33370.97
454.264	32525.16
454.47	33033.05
454.676	32066.41
454.882	33569.62
455.088	30452.61
455.294	30974.84
455.5	31433.59
455.705	32013.16
455.911	30301.06
456.117	29885.33
456.323	29451.16
456.529	28081.06
456.735	29055.9
456.941	28400.55
457.147	27997.1
457.352	27036.6
457.558	26788.8
457.764	26678.21
457.97	26223.56
458.176	25619.41
458.381	25723.85
458.587	24296.42
458.793	24323.04
458.999	23167.99
459.204	24673.24
459.41	23645.16
459.616	22340.61
459.821	22440.96
460.027	22547.45
460.233	21822.47
460.438	20732.95
460.644	21173.27
460.85	20077.6
461.055	19956.77
461.261	19958.82
461.466	18324.54
461.672	17931.33
461.878	19121.2
462.083	17687.62
462.289	17517.64
462.494	16999.51
462.7	16528.47
462.905	16096.35
463.111	16557.14
463.316	16727.13
463.522	16151.65
463.727	16608.34
463.932	16350.3
464.138	16284.76
464.343	16249.95
464.549	15588.46
464.754	16229.47
464.959	15950.95
465.165	15936.61
465.37	15367.27
465.575	15023.22
465.781	15404.14
465.986	15602.79
466.191	14974.06
466.397	14756.98
466.602	13939.84
466.807	14435.45
467.012	14709.88
467.218	14466.17
467.423	14236.8
467.628	14509.18
467.833	14804.08
468.038	14443.64
468.244	14128.25
468.449	14419.07
468.654	14060.67
468.859	13931.65
469.064	13919.36
469.269	13395.08
469.474	13417.61
469.679	13749.38
469.885	13294.73
470.09	13395.08
470.295	13466.76
470.5	13280.39
470.705	13233.29
470.91	12743.83
471.115	12975.25
471.32	12827.79
471.525	12762.26
471.73	12516.5
471.935	12453.02
472.139	12076.19
472.344	12141.72
472.549	12022.94
472.754	11910.3
472.959	11777.19
473.164	11553.96
473.369	11168.94
473.574	11781.28
473.778	11678.88
473.983	11443.37
474.188	11426.98
474.393	10914.99
474.598	11017.39
474.802	11025.58
475.007	10845.36
475.212	10990.77
475.417	10380.47
475.621	10534.07
475.826	10474.68
476.031	10292.41
476.235	10087.61
476.44	10267.83
476.645	10048.7
476.849	9981.12
477.054	9723.07
477.259	9880.77
477.463	9872.57
477.668	9518.28
477.872	9792.7
478.077	9419.97
478.282	9135.31
478.486	9241.8
478.691	9229.51
478.895	8948.94
479.1	9192.65
479.304	9166.03
479.509	8809.68
479.713	9075.91
479.918	8711.38
480.122	8420.56
480.326	8801.49
480.531	8750.29
480.735	8447.19
480.94	8482
481.144	8686.8
481.348	8355.03
481.553	8608.98
481.757	8404.18
481.961	8586.45
482.166	8590.55
482.37	8309.97
482.574	8514.77
482.778	8201.43
482.983	8477.91
483.187	8328.41
483.391	8365.27
483.595	8340.69
483.8	8352.98
484.004	8262.87
484.208	8355.03
484.412	8379.61
484.616	8383.7
484.821	8250.58
485.025	8133.85
485.229	8301.78
485.433	8256.73
485.637	8217.82
485.841	8305.88
486.045	8248.54
486.249	8289.49
486.453	8025.31
486.657	8299.73
486.861	8639.7
487.065	8262.87
487.269	8277.21
487.473	8281.3
487.677	8434.9
487.881	8215.77
488.085	8506.58
488.289	8430.8
488.493	8279.25
488.697	8318.17
488.901	8273.11
489.105	8389.85
489.309	8369.37
489.512	8346.84
489.716	8410.32
489.92	8406.23
490.124	8416.47
490.328	8690.9
490.531	8494.29
490.735	8512.72
490.939	8545.49
491.143	8651.99
491.346	8666.32
491.55	8635.6
491.754	8539.35
491.958	8789.2
492.161	8895.69
492.365	8697.04
492.569	8719.57
492.772	8774.86
492.976	8670.42
493.18	8991.95
493.383	9030.86
493.587	8938.7
493.79	9020.62
493.994	8946.89
494.197	9018.57
494.401	9159.88
494.605	9157.83
494.808	9419.97
495.012	9223.37
495.215	9426.12
495.419	9632.96
495.622	9454.79
495.825	9766.08
496.029	9508.04
496.232	9796.8
496.436	9694.4
496.639	9974.97
496.843	9848
497.046	10181.82
497.249	10190.01
497.453	10374.33
497.656	10497.21
497.859	10433.72
498.063	10431.67
498.266	10679.47
498.469	10609.84
498.673	10890.42
498.876	11183.27
499.079	10978.48
499.282	11066.54
499.485	11324.58
499.689	11564.2
499.892	11519.14
500.095	11586.72
500.298	11938.98
500.501	11797.67
500.705	12068
500.908	12321.95
501.111	12227.74
501.314	12434.58
501.517	12600.47
501.72	12672.15
501.923	12659.86
502.126	12878.99
502.329	13053.07
502.532	13233.29
502.735	13278.35
502.938	13556.87
503.141	13337.74
503.344	13853.83
503.547	13724.8
503.75	13943.94
503.953	14290.04
504.156	14412.92
504.359	14611.57
504.562	14410.87
504.765	14875.76
504.968	14935.15
505.17	15096.94
505.373	15045.74
505.576	15346.8
505.779	15463.53
505.982	15656.04
506.185	15885.41
506.387	15920.23
506.59	16149.6
506.793	16483.42
506.996	16704.6
507.198	16792.66
507.401	16677.97
507.604	16970.83
507.807	17271.89
508.009	17384.52
508.212	17488.97
508.415	17841.22
508.617	17939.52
508.82	17730.63
509.022	18033.73
509.225	18699.32
509.428	18646.07
509.63	18664.5
509.833	18730.04
510.035	19135.54
510.238	19117.11
510.44	19237.94
510.643	19532.84
510.845	19622.95
511.048	19450.92
511.25	20171.81
511.453	19807.27
511.655	20929.56
511.858	20538.4
512.06	20665.37
512.262	20853.78
512.465	21128.21
512.667	21169.17
512.87	21363.73
513.072	21251.09
513.274	21926.92
513.477	22144
513.679	22115.33
513.881	22567.93
514.084	22572.03
514.286	22576.12
514.488	22680.57
514.69	23337.97
514.893	23389.17
515.095	23573.49
515.297	23776.23
515.499	23661.55
515.701	24126.44
515.904	24015.85
516.106	24394.72
516.308	24599.52
516.51	24994.78
516.712	24832.99
516.914	25060.31
517.116	25711.56
517.318	25844.68
517.52	25904.07
517.722	26086.34
517.925	26399.68
518.127	26563.52
518.329	26897.34
518.531	26547.14
518.733	27153.33
518.935	27243.45
519.136	27171.77
519.338	27466.67
519.54	27714.48
519.742	27949.99
519.944	27767.73
520.146	28185.51
520.348	28562.34
520.55	28504.99
520.752	28892.06
520.954	29182.87
521.155	28928.92
521.357	29424.53
521.559	29553.55
521.761	29909.9
521.963	30065.55
522.164	30102.41
522.366	30540.68
522.568	30905.21
522.77	30530.44
522.971	31032.19
523.173	30575.49
523.375	31142.78
523.576	30516.1
523.778	31208.31
523.98	31669.11
524.181	31873.9
524.383	31853.42
524.584	32152.43
524.786	31687.54
524.988	32177
525.189	32635.75
525.391	32394.09
525.592	32570.21
525.794	32674.66
525.995	32981.85
526.197	32717.67
526.398	32938.85
526.6	33074.01
526.801	33100.64
527.003	33547.09
527.204	33635.16
527.406	33858.38
527.607	33704.79
527.808	33971.02
528.01	33125.21
528.211	33755.99
528.412	34523.97
528.614	34437.96
528.815	33991.5
529.016	34575.17
529.218	33915.73
529.419	34270.03
529.62	34425.67
529.822	34167.63
530.023	34456.39
530.224	34304.84
530.425	34554.69
530.626	34102.09
530.828	34448.2
531.029	34990.91
531.23	34747.2
531.431	34702.15
531.632	35007.3
531.833	34753.35
532.035	34685.76
532.236	34919.23
532.437	35044.16
532.638	34747.2
532.839	35138.37
533.04	35078.97
533.241	34915.14
533.442	35355.45
533.643	34665.28
533.844	34892.61
534.045	34935.62
534.246	34741.06
534.447	35234.62
534.648	34724.68
534.849	35011.39
535.05	34564.93
535.251	34650.95
535.451	34831.17
535.652	35019.58
535.853	35121.98
536.054	35220.28
536.255	34956.1
536.456	34564.93
536.657	35537.72
536.857	34908.99
537.058	34446.15
537.259	35322.68
537.46	35154.75
537.66	34415.43
537.861	34814.79
538.062	34712.39
538.263	34890.56
538.463	34667.33
538.664	34704.2
538.865	34716.48
539.065	34724.68
539.266	34739.01
539.466	34896.7
539.667	34083.66
539.868	34753.35
540.068	34681.67
540.269	34704.2
540.469	34919.23
540.67	34622.28
540.87	34675.52
541.071	34487.11
541.271	34814.79
541.472	34503.49
541.672	34341.71
541.873	34366.28
542.073	34419.53
542.274	34650.95
542.474	34689.86
542.675	34186.06
542.875	35083.07
543.075	34564.93
543.276	33907.54
543.476	34696
543.676	34122.57
543.877	34388.81
544.077	34233.16
544.277	34282.31
544.478	34403.14
544.678	34618.18
544.878	34259.79
545.078	34585.41
545.279	33907.54
545.479	34472.78
545.679	34777.92
545.879	34569.03
546.079	34138.96
546.28	34423.62
546.48	34100.04
546.68	34397
546.88	34452.3
547.08	34204.49
547.28	34237.26
547.48	34028.37
547.68	33790.8
547.88	33733.46
548.081	34358.09
548.281	34153.29
548.481	34181.96
548.681	34192.2
548.881	34110.28
549.081	33911.63
549.28	33956.69
549.48	34331.47
549.68	33975.12
549.88	34446.15
550.08	33602.39
550.28	34239.31
550.48	34011.98
550.68	34067.28
550.88	33964.88
551.08	34044.75
551.279	34067.28
551.479	33551.19
551.679	33809.23
551.879	33786.71
552.079	33868.62
552.278	33719.12
552.478	33932.11
552.678	33762.13
552.878	33651.54
553.077	33864.53
553.277	33436.5
553.477	33780.56
553.676	33289.05
553.876	33409.88
554.076	33553.24
554.275	33377.11
554.475	33471.32
554.674	33413.98
554.874	33870.67
555.074	33469.27
555.273	33696.6
555.473	33682.26
555.672	33309.53
555.872	33702.74
556.071	33512.28
556.271	33657.68
556.47	33520.47
556.67	33317.72
556.869	33295.19
557.068	33545.05
557.268	33108.83
557.467	33352.54
557.667	33319.77
557.866	33561.43
558.065	33164.12
558.265	33119.07
558.464	32545.64
558.663	33407.83
558.863	32656.23
559.062	33764.18
559.261	33055.58
559.461	33227.61
559.66	32887.65
559.859	33135.45
560.058	32473.96
560.258	33045.34
560.457	33096.54
560.656	32713.57
560.855	32342.89
561.054	32484.2
561.253	32453.48
561.453	32588.64
561.652	32473.96
561.851	32400.23
562.05	32252.78
562.249	32320.36
562.448	32627.56
562.647	32095.08
562.846	32244.59
563.045	32154.47
563.244	31751.02
563.443	32564.07
563.642	31744.88
563.841	32103.28
564.04	31959.92
564.239	32496.49
564.438	31632.24
564.637	31822.7
564.836	32183.15
565.035	31488.88
565.234	31667.06
565.432	31740.78
565.631	31462.26
565.83	31970.16
566.029	31560.56
566.228	31357.81
566.427	31140.73
566.625	31304.57
566.824	31138.68
567.023	31247.22
567.222	30765.95
567.42	31259.51
567.619	31171.45
567.818	31329.14
568.016	30921.6
568.215	31382.39
568.414	30552.96
568.612	31433.59
568.811	31005.56
569.01	30917.5
569.208	30266.25
569.407	30841.73
569.605	30415.75
569.804	30931.84
570.002	30319.49
570.201	30845.82
570.4	30456.71
570.598	30217.1
570.797	30280.58
570.995	30286.73
571.193	29879.18
571.392	30425.99
571.59	29651.86
571.789	30149.51
571.987	29916.04
572.186	29725.58
572.384	29799.31
572.582	29795.21
572.781	30045.07
572.979	29246.36
573.177	29752.21
573.376	29766.54
573.574	29399.96
573.772	29582.23
573.971	29340.57
574.169	29481.88
574.367	29217.69
574.565	29287.32
574.763	29086.62
574.962	28900.25
575.16	28801.95
575.358	29078.43
575.556	28767.13
575.754	28984.22
575.952	28869.53
576.151	28908.44
576.349	28447.65
576.547	28693.41
576.745	28562.34
576.943	28548
577.141	28500.9
577.339	28378.02
577.537	28132.26
577.735	28091.3
577.933	27544.5
578.131	27964.33
578.329	27741.1
578.527	27536.31
578.725	27929.52
578.923	27945.9
579.121	27655.09
579.319	27800.49
579.516	27976.62
579.714	27599.79
579.912	27438
580.11	27405.24
580.308	27532.21
580.506	27433.91
580.704	26819.52
580.901	27407.28
581.099	27376.56
581.297	27089.85
581.495	27231.16
581.692	27130.81
581.89	26733.5
582.088	26932.15
582.285	26778.56
582.483	26964.92
582.681	27057.08
582.878	26454.98
583.076	26590.14
583.274	26463.17
583.471	26029
583.669	26387.39
583.866	26285
584.064	26307.52
584.262	26080.2
584.459	26170.31
584.657	25990.09
584.854	26149.83
585.052	25480.14
585.249	25906.12
585.447	25738.19
585.644	25543.63
585.841	25586.64
586.039	25650.13
586.236	25285.59
586.434	25287.64
586.631	25242.58
586.828	25498.58
587.026	25234.39
587.223	25406.42
587.42	24921.05
587.618	25226.2
587.815	25041.88
588.012	25041.88
588.21	24607.71
588.407	24919
588.604	24495.07
588.801	24413.15
588.999	24542.17
589.196	24382.43
589.393	24466.4
589.59	24441.82
589.787	24628.19
589.984	24222.69
590.182	24206.31
590.379	24515.55
590.576	23929.83
590.773	23895.02
590.97	23725.04
591.167	23845.87
591.364	23489.52
591.561	23794.67
591.758	23524.33
591.955	23448.56
592.152	23856.11
592.349	23649.26
592.546	23444.46
592.743	23292.91
592.94	23196.66
593.137	23192.56
593.334	23260.15
593.531	22666.24
593.727	23176.18
593.924	23067.64
594.121	22631.42
594.318	22961.14
594.515	22584.32
594.712	22539.26
594.908	22463.49
595.105	22819.83
595.302	22606.84
595.499	22547.45
595.696	22684.67
595.892	22295.55
596.089	22387.71
596.286	22295.55
596.482	22242.31
596.679	22162.44
596.876	22168.58
597.072	22182.91
597.269	21814.28
597.466	21617.68
597.662	21613.58
597.859	21781.51
598.055	21812.23
598.252	21523.47
598.448	21568.52
598.645	21615.63
598.841	21152.79
599.038	21257.23
599.234	21527.56
599.431	21187.6
599.627	21089.3
599.824	21163.03
600.02	20933.65
600.217	21330.96
600.413	21152.79
600.609	20864.02
600.806	20753.43
601.002	20896.79
601.198	20333.6
601.395	20669.47
601.591	20487.2
601.787	20509.72
601.984	20399.13
602.18	20675.61
602.376	20268.06
602.572	20241.44
602.769	20266.02
602.965	19610.67
603.161	20100.13
603.357	19842.09
603.553	19610.67
603.75	20016.16
603.946	19713.06
604.142	19938.34
604.338	19637.29
604.534	19704.87
604.73	19715.11
604.926	19498.03
605.122	19600.43
605.318	19391.53
605.514	19223.6
605.71	19289.13
605.906	19215.41
606.102	19227.7
606.298	19354.67
606.494	19065.91
606.69	19147.83
606.886	19319.85
607.082	18789.43
607.278	19016.76
607.474	18590.78
607.67	19133.49
607.866	18480.19
608.062	19229.74
608.257	18684.98
608.453	18693.18
608.649	18623.55
608.845	18512.95
609.041	18375.74
609.236	18627.64
609.432	18334.78
609.628	18441.28
609.824	18449.47
610.019	18281.53
610.215	18371.65
610.411	18248.77
610.606	18220.1
610.802	18291.77
610.998	18175.04
611.193	18142.27
611.389	17968.2
611.584	18097.22
611.78	17646.66
611.976	17912.9
612.171	17968.2
612.367	17994.82
612.562	17853.51
612.758	17339.47
612.953	17667.14
613.149	17898.56
613.344	17640.52
613.539	17902.66
613.735	17570.89
613.93	17730.63
614.126	17865.8
614.321	17685.58
614.517	17353.8
614.712	17243.21
614.907	17265.74
615.103	17685.58
615.298	17243.21
615.493	17642.57
615.688	17241.17
615.884	17501.26
616.079	17085.52
616.274	17222.73
616.47	17056.85
616.665	17232.97
616.86	17103.95
617.055	17132.62
617.25	17175.63
617.445	16993.36
617.641	16866.39
617.836	16768.09
618.031	16888.92
618.226	16657.5
618.421	16716.89
618.616	17019.99
618.811	16583.77
619.006	16585.82
619.201	16311.39
619.396	16419.93
619.591	16264.29
619.786	16352.35
619.981	16073.82
620.176	16190.56
620.371	16270.43
620.566	16131.17
620.761	15842.4
620.956	16133.22
621.151	15662.18
621.346	15914.08
621.541	15547.5
621.735	15672.42
621.93	15492.2
622.125	15742.05
622.32	15432.81
622.515	15492.2
622.709	15191.15
622.904	15162.48
623.099	15094.9
623.294	15242.35
623.488	14838.9
623.683	14890.1
623.878	14574.71
624.072	14838.9
624.267	14853.23
624.462	14609.53
624.656	14543.99
624.851	14378.11
625.046	14238.84
625.24	14206.08
625.435	14265.47
625.629	14097.53
625.824	14181.5
626.018	14029.95
626.213	13833.35
626.407	13952.13
626.602	13921.41
626.796	13786.24
626.991	13722.76
627.185	13444.23
627.38	13280.39
627.574	13292.68
627.768	13343.88
627.963	13374.6
628.157	13081.74
628.352	13087.89
628.546	12850.32
628.74	13032.59
628.935	13026.45
629.129	12926.1
629.323	12770.45
629.517	12780.69
629.712	12631.19
629.906	12440.73
630.1	12358.81
630.294	12328.09
630.489	12416.15
630.683	12393.62
630.877	12301.47
631.071	12227.74
631.265	12330.14
631.459	12180.64
631.653	11812
631.848	11967.65
632.042	11914.4
632.236	11869.34
632.43	11805.86
632.624	11977.89
632.818	11478.18
633.012	11388.07
633.206	11533.48
633.4	11599.01
633.594	11316.39
633.788	11316.39
633.982	11273.39
634.176	11277.48
634.369	11168.94
634.563	11195.56
634.757	11052.2
634.951	10937.52
635.145	11007.15
635.339	10955.95
635.533	10960.05
635.726	10804.4
635.92	10595.51
636.114	10720.43
636.308	10480.82
636.501	10753.2
636.695	10431.67
636.889	10458.29
637.083	10327.22
637.276	10278.07
637.47	10214.59
637.664	10169.53
637.857	10171.58
638.051	10261.69
638.244	10161.34
638.438	10065.08
638.632	9921.73
638.825	9800.9
639.019	9780.42
639.212	9712.83
639.406	9643.2
639.599	9669.83
639.793	9604.29
639.986	9370.82
640.18	9618.63
640.373	9630.91
640.567	9413.83
640.76	9288.9
640.954	9290.95
641.147	9317.58
641.34	9268.42
641.534	9141.45
641.727	9094.35
641.92	9293
642.114	9315.53
642.307	8985.8
642.5	9057.48
642.694	8871.12
642.887	9002.19
643.08	8787.15
643.273	8641.75
643.467	8717.52
643.66	8723.66
643.853	8631.51
644.046	8553.68
644.239	8398.04
644.432	8516.82
644.626	8369.37
644.819	8320.21
645.012	8350.93
645.205	8303.83
645.398	8279.25
645.591	8193.24
645.784	8191.19
645.977	8199.38
646.17	7869.66
646.363	7949.53
646.556	7898.33
646.749	7929.05
646.942	7775.45
647.135	7994.59
647.328	7939.29
647.521	7724.26
647.714	7746.78
647.907	7775.45
648.099	7757.02
648.292	7673.06
648.485	7701.73
648.678	7466.21
648.871	7603.43
649.064	7445.73
649.256	7480.55
649.449	7437.54
649.642	7306.47
649.835	7148.78
650.027	7222.5
650.22	7105.77
650.413	7138.54
650.605	7101.67
650.798	7279.85
650.991	7132.39
651.183	6972.65
651.376	6823.15
651.568	7056.62
651.761	6851.82
651.954	6948.08
652.146	6796.53
652.339	6649.07
652.531	6737.13
652.724	6843.63
652.916	6759.66
653.109	6651.12
653.301	6735.09
653.494	6692.08
653.686	6569.2
653.879	6741.23
654.071	6399.22
654.263	6489.33
654.456	6520.05
654.648	6509.81
654.84	6487.28
655.033	6370.55
655.225	6368.5
655.417	6141.18
655.61	6253.81
655.802	6087.93
655.994	6102.26
656.186	6110.46
656.379	6014.2
656.571	6208.76
656.763	6044.92
656.955	6223.09
657.148	5932.28
657.34	5993.72
657.532	5956.86
657.724	5926.14
657.916	5909.76
658.108	5917.95
658.3	5817.6
658.492	5649.66
658.684	5774.59
658.876	5639.42
659.068	5647.62
659.26	5809.4
659.452	5641.47
659.644	5520.64
659.836	5547.26
660.028	5471.49
660.22	5399.81
660.412	5577.98
660.604	5377.28
660.796	5569.79
660.988	5358.85
661.18	5299.46
661.372	5283.08
661.563	5195.01
661.755	5192.97
661.947	5252.36
662.139	5127.43
662.331	5145.86
662.522	5109
662.714	5033.22
662.906	5141.77
663.097	5068.04
663.289	4947.21
663.481	5029.13
663.673	5080.33
663.864	4891.91
664.056	4877.58
664.247	4996.36
664.439	4928.78
664.631	4842.76
664.822	4867.34
665.014	4920.59
665.205	4828.43
665.397	4715.79
665.588	4973.83
665.78	4760.84
665.971	4777.23
666.163	4766.99
666.354	4691.21
666.546	4613.39
666.737	4691.21
666.929	4658.45
667.12	4644.11
667.311	4683.02
667.503	4490.51
667.694	4607.25
667.885	4666.64
668.077	4543.76
668.268	4480.27
668.459	4543.76
668.651	4353.3
668.842	4324.63
669.033	4324.63
669.224	4406.55
669.416	4437.27
669.607	4267.28
669.798	4248.85
669.989	4439.31
670.18	4195.61
670.371	4359.44
670.563	4250.9
670.754	4130.07
670.945	4252.95
671.136	4121.88
671.327	4281.62
671.518	4232.47
671.709	4242.71
671.9	4091.16
672.091	4015.38
672.282	4101.4
672.473	3984.66
672.664	4162.84
672.855	4052.25
673.046	4042.01
673.237	4031.77
673.428	4046.1
673.619	4019.48
673.809	3970.33
674	3943.71
674.191	4087.06
674.382	3878.17
674.573	3933.47
674.764	3818.78
674.954	3970.33
675.145	3775.77
675.336	3872.03
675.527	3775.77
675.717	3861.79
675.908	3986.71
676.099	3818.78
676.289	3839.26
676.48	3693.85
676.671	3761.44
676.861	3749.15
677.052	3773.72
677.243	3747.1
677.433	3638.56
677.624	3822.88
677.814	3659.04
678.005	3593.5
678.195	3607.84
678.386	3773.72
678.576	3749.15
678.767	3630.37
678.957	3626.27
679.148	3601.69
679.338	3790.11
679.529	3714.33
679.719	3501.34
679.909	3704.09
680.1	3530.02
680.29	3605.79
680.481	3521.82
680.671	3613.98
680.861	3480.86
681.052	3509.54
681.242	3527.97
681.432	3552.54
681.622	3532.06
681.813	3456.29
682.003	3523.87
682.193	3534.11
682.383	3669.28
682.573	3546.4
682.764	3519.78
682.954	3454.24
683.144	3411.23
683.334	3274.02
683.524	3310.88
683.714	3339.55
683.904	3566.88
684.094	3396.9
684.284	3384.61
684.474	3441.95
684.664	3343.65
684.854	3370.27
685.044	3374.37
685.234	3382.56
685.424	3253.54
685.614	3259.68
685.804	3300.64
685.994	3253.54
686.184	3364.13
686.374	3355.94
686.564	3155.24
686.753	3355.94
686.943	3138.85
687.133	3233.06
687.323	3288.36
687.513	3173.67
687.702	3069.22
687.892	3216.68
688.082	3179.81
688.272	3134.76
688.461	3093.8
688.651	3171.62
688.841	3028.26
689.03	3130.66
689.22	2993.45
689.41	2999.59
689.599	2979.11
689.789	3081.51
689.979	2983.21
690.168	3106.09
690.358	3015.98
690.547	3018.02
690.737	2872.62
690.926	3056.93
691.116	2817.32
691.305	2876.71
691.495	2903.34
691.684	2874.67
691.874	2829.61
692.063	2907.43
692.252	2833.71
692.442	2831.66
692.631	2874.67
692.82	2858.28
693.01	2792.75
693.199	2719.02
693.388	2686.25
693.578	2815.27
693.767	2776.36
693.956	2825.51
694.146	2719.02
694.335	2704.68
694.524	2762.03
694.713	2684.2
694.902	2798.89
695.092	2633.01
695.281	2534.7
695.47	2604.33
695.659	2645.29
695.848	2655.53
696.037	2639.15
696.226	2604.33
696.415	2725.16
696.604	2749.74
696.793	2682.16
696.982	2647.34
697.171	2630.96
697.36	2737.45
697.549	2520.37
697.738	2555.18
697.927	2684.2
698.116	2612.53
698.305	2622.77
698.494	2641.2
698.683	2659.63
698.872	2594.09
699.061	2516.27
699.25	2610.48
699.438	2503.98
699.627	2651.44
699.816	2522.41
700.005	2624.81
700.193	2571.57
700.382	2665.77
700.571	2555.18
700.76	2661.68
700.948	2536.75
701.137	2518.32
701.326	2501.94
701.514	2524.46
701.703	2497.84
701.892	2516.27
702.08	2565.42
702.269	2604.33
702.457	2583.85
702.646	2573.61
702.834	2391.34
703.023	2399.54
703.212	2522.41
703.4	2477.36
703.589	2590
703.777	2676.01
703.965	2614.57
704.154	2512.18
704.342	2497.84
704.531	2536.75
704.719	2516.27
704.907	2587.95
705.096	2499.89
705.284	2399.54
705.472	2542.89
705.661	2551.09
705.849	2495.79
706.037	2501.94
706.226	2479.41
706.414	2553.13
706.602	2549.04
706.79	2501.94
706.979	2473.26
707.167	2592.05
707.355	2616.62
707.543	2520.37
707.731	2549.04
707.919	2581.81
708.107	2555.18
708.296	2469.17
708.484	2567.47
708.672	2481.46
708.86	2598.19
709.048	2465.07
709.236	2590
709.424	2587.95
709.612	2594.09
709.8	2620.72
709.988	2596.14
710.176	2475.31
710.364	2512.18
710.551	2424.11
710.739	2546.99
710.927	2546.99
711.115	2538.8
711.303	2551.09
711.491	2600.24
711.679	2510.13
711.866	2428.21
712.054	2567.47
712.242	2639.15
712.43	2573.61
712.617	2590
712.805	2600.24
712.993	2665.77
713.181	2493.74
713.368	2571.57
713.556	2622.77
713.744	2465.07
713.931	2546.99
714.119	2489.65
714.306	2626.86
714.494	2581.81
714.682	2569.52
714.869	2501.94
715.057	2590
715.244	2536.75
715.432	2577.71
715.619	2526.51
715.807	2518.32
715.994	2491.7
716.182	2620.72
716.369	2475.31
716.556	2594.09
716.744	2506.03
716.931	2407.73
717.119	2622.77
717.306	2440.5
717.493	2557.23
717.681	2475.31
717.868	2579.76
718.055	2665.77
718.242	2540.85
718.43	2571.57
718.617	2563.37
718.804	2430.26
718.991	2501.94
719.179	2397.49
719.366	2571.57
719.553	2540.85
719.74	2422.06
719.927	2528.56
720.114	2432.3
720.301	2514.22
720.488	2493.74
720.676	2448.69
720.863	2497.84
721.05	2647.34
721.237	2516.27
721.424	2499.89
721.611	2508.08
721.798	2331.95
721.985	2428.21
722.172	2456.88
722.358	2450.74
722.545	2460.98
722.732	2610.48
722.919	2501.94
723.106	2549.04
723.293	2479.41
723.48	2450.74
723.667	2389.3
723.853	2432.3
724.04	2397.49
724.227	2436.4
724.414	2506.03
724.6	2411.82
724.787	2477.36
724.974	2491.7
725.161	2450.74
725.347	2473.26
725.534	2454.83
725.72	2424.11
725.907	2481.46
726.094	2487.6
726.28	2334
726.467	2426.16
726.653	2407.73
726.84	2506.03
727.027	2518.32
727.213	2399.54
727.4	2358.58
727.586	2327.86
727.773	2542.89
727.959	2469.17
728.145	2354.48
728.332	2352.43
728.518	2227.51
728.705	2313.52
728.891	2381.1
729.077	2377.01
729.264	2377.01
729.45	2448.69
729.636	2454.83
729.823	2288.95
730.009	2487.6
730.195	2479.41
730.382	2331.95
730.568	2395.44
730.754	2342.19
730.94	2311.47
731.126	2409.78
731.313	2397.49
731.499	2381.1
731.685	2348.34
731.871	2415.92
732.057	2311.47
732.243	2407.73
732.429	2403.63
732.615	2366.77
732.801	2393.39
732.987	2317.62
733.173	2460.98
733.359	2329.91
733.545	2366.77
733.731	2290.99
733.917	2399.54
734.103	2334
734.289	2383.15
734.475	2288.95
734.661	2319.67
734.847	2334
735.033	2415.92
735.219	2301.23
735.404	2350.39
735.59	2401.58
735.776	2280.75
735.962	2389.3
736.148	2264.37
736.333	2319.67
736.519	2229.56
736.705	2319.67
736.89	2303.28
737.076	2352.43
737.262	2301.23
737.447	2348.34
737.633	2241.84
737.819	2211.12
738.004	2207.03
738.19	2186.55
738.375	2268.47
738.561	2288.95
738.747	2227.51
738.932	2229.56
739.118	2102.58
739.303	2168.12
739.489	2309.43
739.674	2168.12
739.859	2231.6
740.045	2110.77
740.23	2061.62
740.416	2055.48
740.601	2153.78
740.786	2229.56
740.972	2096.44
741.157	2084.15
741.342	2030.9
741.528	2143.54
741.713	2217.27
741.898	2123.06
742.084	2096.44
742.269	2086.2
742.454	2090.29
742.639	2198.84
742.824	2147.64
743.01	1989.94
743.195	2063.67
743.38	2006.33
743.565	1973.56
743.75	2022.71
743.935	1865.02
744.12	2002.23
744.305	1951.03
744.49	1989.94
744.675	2063.67
744.86	1908.02
745.045	1985.85
745.23	2043.19
745.415	1875.26
745.6	1836.35
745.785	1905.98
745.97	1891.64
746.155	1873.21
746.34	1928.5
746.525	1860.92
746.71	1875.26
746.895	1832.25
747.079	1854.78
747.264	1822.01
747.449	1850.68
747.634	1934.65
747.819	1809.72
748.003	1641.79
748.188	1748.28
748.373	1766.71
748.557	1746.23
748.742	1758.52
748.927	1770.81
749.111	1828.15
749.296	1680.7
749.481	1699.13
749.665	1709.37
749.85	1676.6
750.034	1627.45
750.219	1709.37
750.404	1682.75
750.588	1518.91
750.773	1555.77
750.957	1654.08
751.141	1555.77
751.326	1590.59
751.51	1578.3
751.695	1518.91
751.879	1611.07
752.064	1621.31
752.248	1582.4
752.432	1504.57
752.617	1471.81
752.801	1490.24
752.985	1414.46
753.17	1434.94
753.354	1516.86
753.538	1447.23
753.722	1523.01
753.907	1412.42
754.091	1396.03
754.275	1414.46
754.459	1402.18
754.643	1295.68
754.828	1307.97
755.012	1375.55
755.196	1367.36
755.38	1328.45
755.564	1305.92
755.748	1303.87
755.932	1287.49
756.116	1348.93
756.3	1346.88
756.484	1211.71
756.668	1262.91
756.852	1246.53
757.036	1252.67
757.22	1350.98
757.404	1199.43
757.588	1293.63
757.772	1129.8
757.956	1224
758.14	1183.04
758.323	1260.87
758.507	1273.15
758.691	1127.75
758.875	1224
759.059	1131.84
759.242	1117.51
759.426	1183.04
759.61	1203.52
759.794	1074.5
759.977	1140.04
760.161	1260.87
760.345	1162.56
760.528	1123.65
760.712	1240.39
760.895	1090.88
761.079	1058.12
761.263	1060.17
761.446	1062.21
761.63	972.1
761.813	1148.23
761.997	1060.17
762.18	1064.26
762.364	1146.18
762.547	1004.87
762.731	1076.55
762.914	1033.54
763.098	972.1
763.281	925
763.464	949.57
763.648	994.63
763.831	1043.78
764.015	935.24
764.198	1086.79
764.381	1029.45
764.564	1000.77
764.748	935.24
764.931	957.77
765.114	1017.16
765.297	1000.77
765.481	947.53
765.664	886.09
765.847	931.14
766.03	963.91
766.213	922.95
766.397	927.05
766.58	861.51
766.763	953.67
766.946	902.47
767.129	906.57
767.312	953.67
767.495	965.96
767.678	961.86
767.861	900.42
768.044	859.46
768.227	943.43
768.41	886.09
768.593	773.45
768.776	943.43
768.959	873.8
769.142	912.71
769.324	824.65
769.507	834.89
769.69	873.8
769.873	791.88
770.056	900.42
770.239	902.47
770.421	881.99
770.604	890.18
770.787	886.09
770.97	994.63
771.152	879.94
771.335	875.85
771.518	808.27
771.7	759.11
771.883	896.33
772.066	761.16
772.248	761.16
772.431	879.94
772.613	808.27
772.796	755.02
772.978	816.46
773.161	787.79
773.343	738.63
773.526	707.91
773.708	695.63
773.891	681.29
774.073	775.5
774.256	767.31
774.438	742.73
774.621	626
774.803	730.44
774.985	695.63
775.168	718.15
775.35	615.76
775.532	648.52
775.715	656.72
775.897	648.52
776.079	636.24
776.261	709.96
776.444	587.08
776.626	642.38
776.808	699.72
776.99	699.72
777.173	691.53
777.355	709.96
777.537	634.19
777.719	597.32
777.901	511.31
778.083	662.86
778.265	564.56
778.447	701.77
778.629	615.76
778.811	591.18
778.993	675.15
779.175	648.52
779.357	595.28
779.539	511.31
779.721	566.6
779.903	621.9
780.085	570.7
780.267	544.08
780.449	597.32
780.631	623.95
780.812	521.55
780.994	634.19
781.176	582.99
781.358	533.84
781.54	523.6
781.721	509.26
781.903	593.23
782.085	556.36
782.267	494.93
782.448	539.98
782.63	564.56
782.812	535.89
782.993	572.75
783.175	472.4
783.357	449.87
783.538	509.26
783.72	435.53
783.901	421.2
784.083	449.87
784.264	470.35
784.446	554.32
784.627	451.92
784.809	443.73
784.99	410.96
785.172	402.77
785.353	421.2
785.535	464.21
785.716	425.29
785.897	472.4
786.079	394.58
786.26	433.49
786.441	472.4
786.623	386.38
786.804	406.86
786.985	349.52
787.167	499.02
787.348	408.91
787.529	388.43
787.71	445.77
787.891	429.39
788.073	355.66
788.254	359.76
788.435	429.39
788.616	343.38
788.797	355.66
788.978	372.05
789.159	355.66
789.34	357.71
789.522	386.38
789.703	312.66
789.884	343.38
790.065	376.14
790.246	392.53
790.427	384.34
790.607	378.19
790.788	331.09
790.969	324.94
791.15	343.38
791.331	353.62
791.512	341.33
791.693	353.62
791.874	294.22
792.054	339.28
792.235	306.51
792.416	324.94
792.597	302.42
792.778	228.69
792.958	300.37
793.139	384.34
793.32	345.42
793.5	298.32
793.681	367.95
793.862	267.6
794.042	345.42
794.223	288.08
794.404	269.65
794.584	331.09
794.765	243.03
794.945	259.41
795.126	361.81
795.306	236.88
795.487	333.14
795.667	253.27
795.848	265.55
796.028	261.46
796.209	283.98
796.389	267.6
796.57	222.55
796.75	257.36
796.93	263.51
797.111	200.02
797.291	283.98
797.471	232.79
797.652	329.04
797.832	261.46
798.012	257.36
798.192	216.4
798.373	236.88
798.553	218.45
798.733	261.46
798.913	220.5
799.093	191.83
799.274	195.92
799.454	236.88
799.634	234.83
799.814	228.69
799.994	185.68
800.174	281.94
800.354	234.83
800.534	230.74
800.714	286.03
800.894	177.49
801.074	179.54
801.254	200.02
801.434	302.42
801.614	247.12
801.794	208.21
801.974	580.94
802.154	210.26
802.334	222.55
802.514	247.12
802.693	245.07
802.873	185.68
803.053	159.06
803.233	189.78
803.413	218.45
803.592	249.17
803.772	187.73
803.952	212.31
804.131	144.72
804.311	220.5
804.491	226.64
804.67	163.15
804.85	150.87
805.03	263.51
805.209	240.98
805.389	224.59
805.568	132.44
805.748	124.24
805.928	232.79
806.107	204.11
806.287	216.4
806.466	183.63
806.646	228.69
806.825	175.44
807.004	175.44
807.184	159.06
807.363	263.51
807.543	165.2
807.722	128.34
807.901	238.93
808.081	191.83
808.26	191.83
808.439	240.98
808.619	173.39
808.798	120.15
808.977	189.78
809.156	275.79
809.336	109.91
809.515	189.78
809.694	195.92
809.873	165.2
810.052	181.59
810.231	202.07
810.411	218.45
810.59	240.98
810.769	152.91
810.948	95.57
811.127	126.29
811.306	120.15
811.485	185.68
811.664	210.26
811.843	218.45
812.022	128.34
812.201	222.55
812.38	177.49
812.559	105.81
812.737	136.53
812.916	107.86
813.095	122.2
813.274	134.48
813.453	200.02
813.632	132.44
813.811	154.96
813.989	87.38
814.168	87.38
814.347	126.29
814.526	169.3
814.704	122.2
814.883	146.77
815.062	161.11
815.24	177.49
815.419	95.57
815.598	226.64
815.776	116.05
815.955	177.49
816.133	118.1
816.312	179.54
816.49	126.29
816.669	118.1
816.847	136.53
817.026	165.2
817.204	111.96
817.383	95.57
817.561	130.39
817.74	105.81
817.918	197.97
818.097	128.34
818.275	157.01
818.453	124.24
818.632	148.82
818.81	120.15
818.988	152.91
819.167	40.28
819.345	83.28
819.523	130.39
819.701	40.28
819.879	120.15
820.058	109.91
820.236	1.37
820.414	120.15
820.592	87.38
820.77	157.01
820.948	40.28
821.127	146.77
821.305	79.19
821.483	85.33
821.661	152.91
821.839	85.33
822.017	79.19
822.195	128.34
822.373	130.39
822.551	85.33
822.729	130.39
822.907	97.62
823.085	165.2
823.262	122.2
823.44	87.38
823.618	83.28
823.796	87.38
823.974	27.99
824.152	107.86
824.329	157.01
824.507	101.72
824.685	79.19
824.863	116.05
825.04	85.33
825.218	114
825.396	46.42
825.574	142.68
825.751	142.68
825.929	118.1
826.107	75.09
826.284	120.15
826.462	79.19
826.639	75.09
826.817	66.9
826.994	60.76
827.172	85.33
827.349	161.11
827.527	68.95
827.704	66.9
827.882	42.32
828.059	114
828.237	83.28
828.414	66.9
828.591	17.75
828.769	179.54
828.946	17.75
829.124	105.81
829.301	161.11
829.478	36.18
829.655	103.76
829.833	120.15
830.01	87.38
830.187	148.82
830.364	68.95
830.542	93.52
830.719	77.14
830.896	126.29
831.073	159.06
831.25	165.2
831.427	87.38
831.604	107.86
831.782	46.42
831.959	77.14
832.136	23.89
832.313	89.43
832.49	89.43
832.667	122.2
832.844	58.71
833.021	52.56
833.198	103.76
833.374	81.24
833.551	97.62
833.728	32.08
833.905	83.28
834.082	23.89
834.259	3.41
834.436	44.37
834.612	91.48
834.789	146.77
834.966	93.52
835.143	77.14
835.319	7.51
835.496	-6.83
835.673	91.48
835.85	34.13
836.026	109.91
836.203	73.04
836.38	52.56
836.556	118.1
836.733	107.86
836.909	-4.78
837.086	62.8
837.262	116.05
837.439	5.46
837.616	38.23
837.792	9.56
837.968	1.37
838.145	44.37
838.321	62.8
838.498	38.23
838.674	111.96
838.851	134.48
839.027	91.48
839.203	111.96
839.38	85.33
839.556	58.71
839.732	32.08
839.909	-17.07
840.085	107.86
840.261	-39.59
840.437	25.94
840.614	58.71
840.79	163.15
840.966	68.95
841.142	32.08
841.318	17.75
841.494	75.09
841.671	128.34
841.847	105.81
842.023	5.46
842.199	42.32
842.375	48.47
842.551	73.04
842.727	58.71
842.903	71
843.079	30.04
843.255	50.52
843.431	85.33
843.607	105.81
843.783	64.85
843.959	89.43
844.134	38.23
844.31	77.14
844.486	25.94
844.662	73.04
844.838	103.76
845.013	44.37
845.189	-15.02
845.365	62.8
845.541	95.57
845.716	-0.68
845.892	30.04
846.068	-6.83
846.244	50.52
846.419	64.85
846.595	79.19
846.77	19.8
846.946	71
847.122	-12.97
847.297	77.14
847.473	48.47
847.648	79.19
847.824	9.56
847.999	19.8
848.175	66.9
848.35	54.61
848.526	34.13
848.701	15.7
848.876	56.66
849.052	148.82
849.227	60.76
849.403	97.62
849.578	11.61
849.753	-4.78
849.929	71
850.104	56.66
850.279	30.04
850.454	42.32
850.63	9.56
850.805	1.37
850.98	50.52
851.155	11.61
851.33	27.99
851.505	25.94
851.681	38.23
851.856	13.65
852.031	73.04
852.206	95.57
852.381	17.75
852.556	38.23
852.731	89.43
852.906	54.61
853.081	15.7
853.256	40.28
853.431	38.23
853.606	-0.68
853.781	17.75
853.956	1.37
854.131	30.04
854.305	5.46
854.48	83.28
854.655	-2.73
854.83	97.62
855.005	34.13
855.18	64.85
855.354	27.99
855.529	32.08
855.704	34.13
855.879	30.04
856.053	27.99
856.228	-19.11
856.403	56.66
856.577	27.99
856.752	30.04
856.926	52.56
857.101	32.08
857.276	56.66
857.45	-21.16
857.625	36.18
857.799	19.8
857.974	13.65
858.148	-76.46
858.323	52.56
858.497	5.46
858.672	-10.92
858.846	5.46
859.02	103.76
859.195	66.9
859.369	-17.07
859.543	54.61
859.718	-23.21
859.892	9.56
860.066	25.94
860.241	-25.26
860.415	27.99
860.589	-41.64
860.763	48.47
860.938	27.99
861.112	42.32
861.286	46.42
861.46	101.72
861.634	54.61
861.808	97.62
861.982	19.8
862.157	-47.79
862.331	9.56
862.505	1.37
862.679	-6.83
862.853	-29.35
863.027	48.47
863.201	109.91
863.375	1.37
863.549	89.43
863.722	15.7
863.896	42.32
864.07	-4.78
864.244	19.8
864.418	9.56
864.592	-19.11
864.766	9.56
864.939	75.09
865.113	-15.02
865.287	83.28
865.461	-15.02
865.634	-2.73
865.808	56.66
865.982	-19.11
866.156	-23.21
866.329	17.75
866.503	3.41
866.676	11.61
866.85	-43.69
867.024	-27.31
867.197	30.04
867.371	-51.88
867.544	-31.4
867.718	42.32
867.891	99.67
868.065	68.95
868.238	58.71
868.412	-0.68
868.585	21.85
868.759	34.13
868.932	7.51
869.105	54.61
869.279	81.24
869.452	-31.4
869.625	87.38
869.799	-41.64
869.972	38.23
870.145	13.65
870.319	5.46
870.492	23.89
870.665	64.85
870.838	-17.07
871.011	23.89
871.185	64.85
871.358	13.65
871.531	58.71
871.704	54.61
871.877	-25.26
872.05	60.76
872.223	13.65
872.396	64.85
872.569	38.23
872.742	62.8
872.915	1.37
873.088	54.61
873.261	15.7
873.434	15.7
873.607	44.37
873.78	58.71
873.953	44.37
874.126	-68.27
874.299	71
874.471	3.41
874.644	62.8
874.817	-2.73
874.99	-2.73
875.163	34.13
875.335	60.76
875.508	58.71
875.681	38.23
875.853	19.8
876.026	97.62
876.199	32.08
876.371	77.14
876.544	-8.87
876.717	-8.87
876.889	79.19
877.062	38.23
877.234	-35.5
877.407	-47.79
877.579	19.8
877.752	-17.07
877.924	44.37
878.097	105.81
878.269	1.37
878.442	-23.21
878.614	3.41
878.786	44.37
878.959	-21.16
879.131	25.94
879.303	-6.83
879.476	-6.83
879.648	27.99
879.82	48.47
879.993	-8.87
880.165	7.51
880.337	-55.98
880.509	11.61
880.681	17.75
880.854	21.85
881.026	3.41
881.198	79.19
881.37	-25.26
881.542	-4.78
881.714	-8.87
881.886	-51.88
882.058	5.46
882.23	-62.12
882.402	48.47
882.574	-25.26
882.746	-29.35
882.918	1.37
883.09	27.99
883.262	-92.84
883.434	-60.07
883.606	27.99
883.778	-10.92
883.95	105.81
884.122	-47.79
884.293	-76.46
884.465	40.28
884.637	109.91
884.809	60.76
884.98	58.71
885.152	50.52
885.324	7.51
885.496	5.46
885.667	-12.97
885.839	36.18
886.011	32.08
886.182	19.8
886.354	3.41
886.525	-33.45
886.697	21.85
886.869	71
887.04	-10.92
887.212	-8.87
887.383	-15.02
887.555	-10.92
887.726	15.7
887.897	-21.16
888.069	27.99
888.24	1.37
888.412	11.61
888.583	44.37
888.754	19.8
888.926	-31.4
889.097	11.61
889.268	-8.87
889.44	56.66
889.611	-41.64
889.782	-25.26
889.953	7.51
890.125	-6.83
890.296	-23.21
890.467	-15.02
890.638	-15.02
890.809	27.99
890.98	-29.35
891.151	62.8
891.323	1.37
891.494	17.75
891.665	15.7
891.836	17.75
892.007	32.08
892.178	40.28
892.349	-33.45
892.52	1.37
892.691	-4.78
892.862	1.37
893.032	-49.83
893.203	32.08
893.374	7.51
893.545	97.62
893.716	-25.26
893.887	48.47
894.057	-64.17
894.228	1.37
894.399	-70.31
894.57	36.18
894.74	42.32
894.911	-4.78
895.082	17.75
895.253	40.28
895.423	50.52
895.594	1.37
895.764	25.94
895.935	1.37
896.106	23.89
896.276	19.8
896.447	38.23
896.617	19.8
896.788	-15.02
896.958	66.9
897.129	-2.73
897.299	-6.83
897.47	54.61
897.64	17.75
897.81	34.13
897.981	-27.31
898.151	-25.26
898.322	-6.83
898.492	-39.59
898.662	17.75
898.832	-25.26
899.003	52.56
899.173	3.41
899.343	34.13
899.513	-23.21
