Data from USB4F104151__40__12-00-50-911.txt Node

Date: Fri Mar 14 12:00:50 EDT 2025
User: louis
Spectrometer: USB4F10415
Trigger mode: 4
Integration Time (sec): 2.000000E-2
Scans to average: 1
Electric dark correction enabled: true
Nonlinearity correction enabled: false
Boxcar width: 0
XAxis mode: Wavelengths
Number of Pixels in Spectrum: 3648
>>>>>Begin Spectral Data<<<<<
178.204	-71.34
178.424	-71.34
178.644	-71.34
178.864	-145.06
179.084	-20.14
179.304	20.82
179.524	53.59
179.744	-32.43
179.964	14.68
180.184	18.77
180.404	-93.87
180.624	24.92
180.844	18.77
181.064	-50.86
181.283	20.82
181.503	-30.38
181.723	35.16
181.943	-46.76
182.163	112.98
182.383	-16.04
182.602	65.88
182.822	61.78
183.042	29.01
183.262	-57
183.482	-34.47
183.701	53.59
183.921	20.82
184.141	39.25
184.361	63.83
184.58	10.58
184.8	31.06
185.02	10.58
185.239	29.01
185.459	-18.09
185.679	26.96
185.898	37.2
186.118	-22.19
186.338	39.25
186.557	43.35
186.777	-22.19
186.997	-36.52
187.216	6.49
187.436	12.63
187.655	-48.81
187.875	84.31
188.095	-61.1
188.314	12.63
188.534	61.78
188.753	-16.04
188.973	72.02
189.192	78.16
189.412	72.02
189.631	61.78
189.851	29.01
190.07	74.07
190.29	-28.33
190.509	-38.57
190.729	51.54
190.948	29.01
191.168	86.36
191.387	72.02
191.607	6.49
191.826	86.36
192.045	45.4
192.265	57.68
192.484	43.35
192.704	-28.33
192.923	10.58
193.142	155.99
193.362	-34.47
193.581	43.35
193.8	65.88
194.02	59.73
194.239	-38.57
194.458	-22.19
194.678	-13.99
194.897	18.77
195.116	16.73
195.335	10.58
195.555	16.73
195.774	41.3
195.993	49.49
196.212	2.39
196.432	35.16
196.651	-40.62
196.87	-42.67
197.089	108.88
197.308	20.82
197.528	6.49
197.747	18.77
197.966	57.68
198.185	82.26
198.404	2.39
198.623	63.83
198.842	-3.75
199.062	33.11
199.281	43.35
199.5	63.83
199.719	-30.38
199.938	-40.62
200.157	53.59
200.376	43.35
200.595	0.34
200.814	31.06
201.033	-24.23
201.252	24.92
201.471	18.77
201.69	4.44
201.909	96.6
202.128	29.01
202.347	-48.81
202.566	65.88
202.785	31.06
203.004	-3.75
203.223	-24.23
203.442	69.97
203.661	4.44
203.879	-24.23
204.098	33.11
204.317	-7.85
204.536	12.63
204.755	-32.43
204.974	74.07
205.193	45.4
205.411	86.36
205.63	29.01
205.849	63.83
206.068	12.63
206.287	-3.75
206.505	65.88
206.724	37.2
206.943	-16.04
207.162	-20.14
207.381	8.53
207.599	-20.14
207.818	-24.23
208.037	-52.91
208.255	2.39
208.474	37.2
208.693	20.82
208.911	31.06
209.13	18.77
209.349	47.44
209.567	80.21
209.786	67.92
210.005	94.55
210.223	98.64
210.442	-26.28
210.661	63.83
210.879	51.54
211.098	-22.19
211.316	41.3
211.535	26.96
211.753	-7.85
211.972	8.53
212.191	-42.67
212.409	-54.95
212.628	-20.14
212.846	18.77
213.065	55.64
213.283	55.64
213.502	29.01
213.72	53.59
213.938	-20.14
214.157	-13.99
214.375	0.34
214.594	-26.28
214.812	-22.19
215.031	43.35
215.249	35.16
215.467	33.11
215.686	6.49
215.904	80.21
216.122	31.06
216.341	29.01
216.559	69.97
216.778	61.78
216.996	74.07
217.214	-13.99
217.432	-20.14
217.651	6.49
217.869	69.97
218.087	31.06
218.306	10.58
218.524	59.73
218.742	41.3
218.96	6.49
219.179	-48.81
219.397	10.58
219.615	29.01
219.833	-3.75
220.051	18.77
220.27	80.21
220.488	47.44
220.706	-3.75
220.924	12.63
221.142	22.87
221.36	37.2
221.578	-16.04
221.796	14.68
222.015	76.12
222.233	24.92
222.451	24.92
222.669	26.96
222.887	59.73
223.105	4.44
223.323	78.16
223.541	47.44
223.759	41.3
223.977	22.87
224.195	76.12
224.413	74.07
224.631	57.68
224.849	-42.67
225.067	33.11
225.285	43.35
225.503	49.49
225.721	-9.9
225.939	33.11
226.157	72.02
226.375	76.12
226.592	-38.57
226.81	-1.71
227.028	-9.9
227.246	18.77
227.464	41.3
227.682	39.25
227.9	24.92
228.117	-75.43
228.335	22.87
228.553	-52.91
228.771	39.25
228.989	26.96
229.206	8.53
229.424	-16.04
229.642	29.01
229.86	20.82
230.077	65.88
230.295	49.49
230.513	151.89
230.731	-1.71
230.948	10.58
231.166	33.11
231.384	2.39
231.601	12.63
231.819	43.35
232.037	-32.43
232.254	35.16
232.472	47.44
232.689	59.73
232.907	127.32
233.125	12.63
233.342	47.44
233.56	8.53
233.777	55.64
233.995	16.73
234.213	102.74
234.43	8.53
234.648	43.35
234.865	2.39
235.083	14.68
235.3	106.84
235.518	55.64
235.735	72.02
235.953	4.44
236.17	-26.28
236.388	57.68
236.605	24.92
236.822	49.49
237.04	57.68
237.257	53.59
237.475	-26.28
237.692	88.4
237.909	2.39
238.127	0.34
238.344	61.78
238.562	41.3
238.779	49.49
238.996	-50.86
239.214	4.44
239.431	39.25
239.648	65.88
239.865	39.25
240.083	26.96
240.3	37.2
240.517	-20.14
240.735	-28.33
240.952	8.53
241.169	35.16
241.386	57.68
241.603	49.49
241.821	16.73
242.038	24.92
242.255	2.39
242.472	37.2
242.689	43.35
242.907	41.3
243.124	18.77
243.341	6.49
243.558	22.87
243.775	4.44
243.992	-1.71
244.209	-5.8
244.426	18.77
244.643	33.11
244.86	0.34
245.078	10.58
245.295	-16.04
245.512	92.5
245.729	61.78
245.946	-18.09
246.163	16.73
246.38	20.82
246.597	43.35
246.814	-7.85
247.031	12.63
247.248	47.44
247.464	47.44
247.681	-36.52
247.898	125.27
248.115	59.73
248.332	-32.43
248.549	45.4
248.766	22.87
248.983	78.16
249.2	0.34
249.417	76.12
249.633	-38.57
249.85	14.68
250.067	67.92
250.284	-16.04
250.501	14.68
250.717	86.36
250.934	-57
251.151	61.78
251.368	31.06
251.585	20.82
251.801	59.73
252.018	-5.8
252.235	53.59
252.451	-5.8
252.668	29.01
252.885	18.77
253.102	-20.14
253.318	-1.71
253.535	6.49
253.752	-1.71
253.968	45.4
254.185	-9.9
254.401	12.63
254.618	2.39
254.835	0.34
255.051	102.74
255.268	53.59
255.484	49.49
255.701	61.78
255.917	2.39
256.134	20.82
256.351	20.82
256.567	-9.9
256.784	14.68
257	14.68
257.217	76.12
257.433	110.93
257.65	31.06
257.866	82.26
258.082	18.77
258.299	10.58
258.515	82.26
258.732	4.44
258.948	35.16
259.165	2.39
259.381	57.68
259.597	4.44
259.814	29.01
260.03	24.92
260.246	-30.38
260.463	35.16
260.679	59.73
260.895	6.49
261.112	29.01
261.328	84.31
261.544	-5.8
261.761	78.16
261.977	43.35
262.193	0.34
262.409	-28.33
262.626	-34.47
262.842	22.87
263.058	57.68
263.274	4.44
263.49	26.96
263.707	10.58
263.923	39.25
264.139	-5.8
264.355	57.68
264.571	41.3
264.787	22.87
265.004	45.4
265.22	43.35
265.436	94.55
265.652	47.44
265.868	-40.62
266.084	37.2
266.3	-11.95
266.516	-42.67
266.732	35.16
266.948	0.34
267.164	45.4
267.38	94.55
267.596	80.21
267.812	43.35
268.028	92.5
268.244	-5.8
268.46	-48.81
268.676	14.68
268.892	39.25
269.108	22.87
269.324	47.44
269.54	24.92
269.756	-7.85
269.972	22.87
270.188	20.82
270.403	-20.14
270.619	12.63
270.835	35.16
271.051	8.53
271.267	6.49
271.483	-63.15
271.698	26.96
271.914	-13.99
272.13	39.25
272.346	18.77
272.562	57.68
272.777	33.11
272.993	47.44
273.209	55.64
273.425	35.16
273.64	8.53
273.856	0.34
274.072	20.82
274.287	-28.33
274.503	-5.8
274.719	-20.14
274.934	84.31
275.15	-30.38
275.366	29.01
275.581	-48.81
275.797	20.82
276.012	-7.85
276.228	57.68
276.444	-18.09
276.659	98.64
276.875	12.63
277.09	55.64
277.306	-16.04
277.521	119.12
277.737	35.16
277.952	-1.71
278.168	37.2
278.383	82.26
278.599	45.4
278.814	-20.14
279.03	35.16
279.245	82.26
279.461	-48.81
279.676	35.16
279.892	18.77
280.107	14.68
280.322	4.44
280.538	-1.71
280.753	74.07
280.969	82.26
281.184	0.34
281.399	43.35
281.615	2.39
281.83	104.79
282.045	-32.43
282.26	37.2
282.476	12.63
282.691	29.01
282.906	-13.99
283.122	74.07
283.337	43.35
283.552	80.21
283.767	63.83
283.983	20.82
284.198	6.49
284.413	6.49
284.628	-24.23
284.843	45.4
285.058	-1.71
285.274	0.34
285.489	-34.47
285.704	102.74
285.919	-26.28
286.134	-3.75
286.349	47.44
286.564	96.6
286.779	57.68
286.995	18.77
287.21	14.68
287.425	29.01
287.64	41.3
287.855	35.16
288.07	-28.33
288.285	51.54
288.5	14.68
288.715	8.53
288.93	6.49
289.145	20.82
289.36	96.6
289.575	57.68
289.79	14.68
290.004	20.82
290.219	94.55
290.434	117.08
290.649	26.96
290.864	49.49
291.079	96.6
291.294	47.44
291.509	29.01
291.724	8.53
291.938	63.83
292.153	49.49
292.368	47.44
292.583	31.06
292.798	74.07
293.012	57.68
293.227	24.92
293.442	53.59
293.657	10.58
293.871	43.35
294.086	51.54
294.301	16.73
294.516	6.49
294.73	-34.47
294.945	80.21
295.16	-11.95
295.374	65.88
295.589	12.63
295.804	33.11
296.018	14.68
296.233	-7.85
296.447	-5.8
296.662	76.12
296.877	-28.33
297.091	72.02
297.306	-18.09
297.52	4.44
297.735	82.26
297.949	33.11
298.164	84.31
298.378	-13.99
298.593	51.54
298.807	51.54
299.022	41.3
299.236	47.44
299.451	102.74
299.665	31.06
299.88	59.73
300.094	43.35
300.309	100.69
300.523	-16.04
300.737	-1.71
300.952	39.25
301.166	57.68
301.381	-16.04
301.595	22.87
301.809	6.49
302.024	63.83
302.238	-7.85
302.452	63.83
302.667	6.49
302.881	92.5
303.095	31.06
303.309	2.39
303.524	53.59
303.738	22.87
303.952	49.49
304.166	45.4
304.381	-20.14
304.595	31.06
304.809	14.68
305.023	61.78
305.237	74.07
305.452	29.01
305.666	-22.19
305.88	53.59
306.094	6.49
306.308	41.3
306.522	26.96
306.736	33.11
306.95	119.12
307.164	35.16
307.379	55.64
307.593	-13.99
307.807	55.64
308.021	96.6
308.235	26.96
308.449	-1.71
308.663	-20.14
308.877	100.69
309.091	4.44
309.305	14.68
309.519	6.49
309.733	-20.14
309.947	16.73
310.161	0.34
310.374	10.58
310.588	10.58
310.802	72.02
311.016	67.92
311.23	33.11
311.444	29.01
311.658	74.07
311.872	49.49
312.085	14.68
312.299	69.97
312.513	0.34
312.727	43.35
312.941	-44.71
313.154	117.08
313.368	29.01
313.582	-16.04
313.796	59.73
314.009	26.96
314.223	90.45
314.437	37.2
314.651	74.07
314.864	16.73
315.078	47.44
315.292	4.44
315.505	31.06
315.719	-24.23
315.933	-40.62
316.146	35.16
316.36	-5.8
316.573	37.2
316.787	88.4
317.001	41.3
317.214	86.36
317.428	2.39
317.641	69.97
317.855	6.49
318.068	55.64
318.282	26.96
318.495	59.73
318.709	59.73
318.922	31.06
319.136	26.96
319.349	129.36
319.563	14.68
319.776	-52.91
319.99	10.58
320.203	84.31
320.417	24.92
320.63	26.96
320.843	12.63
321.057	35.16
321.27	20.82
321.483	-44.71
321.697	51.54
321.91	2.39
322.124	18.77
322.337	53.59
322.55	69.97
322.763	18.77
322.977	43.35
323.19	20.82
323.403	-18.09
323.617	55.64
323.83	53.59
324.043	-9.9
324.256	74.07
324.469	59.73
324.683	94.55
324.896	33.11
325.109	31.06
325.322	22.87
325.535	76.12
325.748	78.16
325.962	18.77
326.175	55.64
326.388	94.55
326.601	-61.1
326.814	74.07
327.027	127.32
327.24	-9.9
327.453	-16.04
327.666	37.2
327.879	69.97
328.092	-1.71
328.305	90.45
328.518	88.4
328.731	4.44
328.944	63.83
329.157	63.83
329.37	69.97
329.583	22.87
329.796	31.06
330.009	49.49
330.222	47.44
330.435	65.88
330.648	100.69
330.861	-40.62
331.073	76.12
331.286	33.11
331.499	72.02
331.712	-34.47
331.925	57.68
332.138	26.96
332.35	108.88
332.563	72.02
332.776	106.84
332.989	80.21
333.202	4.44
333.414	22.87
333.627	6.49
333.84	43.35
334.053	108.88
334.265	-7.85
334.478	26.96
334.691	14.68
334.903	57.68
335.116	20.82
335.329	6.49
335.541	29.01
335.754	133.46
335.966	8.53
336.179	57.68
336.392	24.92
336.604	51.54
336.817	-7.85
337.029	49.49
337.242	-1.71
337.454	12.63
337.667	37.2
337.88	102.74
338.092	-77.48
338.305	96.6
338.517	69.97
338.729	55.64
338.942	29.01
339.154	4.44
339.367	49.49
339.579	-3.75
339.792	14.68
340.004	37.2
340.217	53.59
340.429	26.96
340.641	-1.71
340.854	49.49
341.066	24.92
341.278	22.87
341.491	121.17
341.703	16.73
341.915	18.77
342.128	117.08
342.34	55.64
342.552	55.64
342.764	65.88
342.977	78.16
343.189	33.11
343.401	26.96
343.613	-44.71
343.826	65.88
344.038	-16.04
344.25	133.46
344.462	18.77
344.674	53.59
344.886	43.35
345.099	74.07
345.311	76.12
345.523	-36.52
345.735	59.73
345.947	149.84
346.159	-9.9
346.371	22.87
346.583	22.87
346.795	119.12
347.007	-20.14
347.219	53.59
347.431	18.77
347.643	90.45
347.855	49.49
348.067	82.26
348.279	35.16
348.491	53.59
348.703	45.4
348.915	31.06
349.127	47.44
349.339	24.92
349.551	12.63
349.763	112.98
349.975	147.8
350.187	29.01
350.399	20.82
350.61	-11.95
350.822	51.54
351.034	112.98
351.246	10.58
351.458	51.54
351.669	39.25
351.881	59.73
352.093	-13.99
352.305	84.31
352.517	57.68
352.728	37.2
352.94	8.53
353.152	51.54
353.363	-5.8
353.575	115.03
353.787	80.21
353.999	61.78
354.21	84.31
354.422	4.44
354.633	59.73
354.845	29.01
355.057	47.44
355.268	78.16
355.48	26.96
355.692	61.78
355.903	47.44
356.115	45.4
356.326	16.73
356.538	-26.28
356.749	24.92
356.961	80.21
357.172	61.78
357.384	41.3
357.595	96.6
357.807	22.87
358.018	6.49
358.23	31.06
358.441	10.58
358.653	33.11
358.864	33.11
359.075	61.78
359.287	-11.95
359.498	55.64
359.709	92.5
359.921	76.12
360.132	24.92
360.344	0.34
360.555	-16.04
360.766	102.74
360.977	35.16
361.189	72.02
361.4	-22.19
361.611	-24.23
361.823	6.49
362.034	78.16
362.245	-44.71
362.456	67.92
362.667	39.25
362.879	16.73
363.09	49.49
363.301	14.68
363.512	117.08
363.723	-24.23
363.935	41.3
364.146	67.92
364.357	-46.76
364.568	33.11
364.779	22.87
364.99	26.96
365.201	45.4
365.412	80.21
365.623	-3.75
365.834	86.36
366.045	84.31
366.256	117.08
366.467	4.44
366.678	24.92
366.889	16.73
367.1	72.02
367.311	67.92
367.522	-22.19
367.733	41.3
367.944	92.5
368.155	-3.75
368.366	137.56
368.577	61.78
368.788	119.12
368.999	12.63
369.209	90.45
369.42	108.88
369.631	59.73
369.842	80.21
370.053	61.78
370.264	72.02
370.474	112.98
370.685	53.59
370.896	98.64
371.107	102.74
371.317	63.83
371.528	47.44
371.739	37.2
371.95	22.87
372.16	90.45
372.371	41.3
372.582	61.78
372.792	22.87
373.003	63.83
373.214	57.68
373.424	80.21
373.635	51.54
373.846	78.16
374.056	22.87
374.267	14.68
374.477	2.39
374.688	14.68
374.898	41.3
375.109	72.02
375.319	47.44
375.53	74.07
375.74	14.68
375.951	39.25
376.161	55.64
376.372	12.63
376.582	92.5
376.793	139.6
377.003	20.82
377.214	39.25
377.424	-13.99
377.635	41.3
377.845	-16.04
378.055	92.5
378.266	4.44
378.476	10.58
378.686	45.4
378.897	29.01
379.107	37.2
379.317	31.06
379.528	41.3
379.738	53.59
379.948	16.73
380.158	69.97
380.369	-18.09
380.579	61.78
380.789	26.96
380.999	59.73
381.21	29.01
381.42	65.88
381.63	47.44
381.84	59.73
382.05	88.4
382.261	88.4
382.471	61.78
382.681	26.96
382.891	29.01
383.101	51.54
383.311	55.64
383.521	35.16
383.731	2.39
383.941	31.06
384.151	82.26
384.361	49.49
384.571	84.31
384.781	43.35
384.991	94.55
385.201	69.97
385.411	92.5
385.621	-9.9
385.831	90.45
386.041	104.79
386.251	31.06
386.461	31.06
386.671	61.78
386.881	6.49
387.091	133.46
387.301	43.35
387.511	47.44
387.72	10.58
387.93	37.2
388.14	59.73
388.35	143.7
388.56	26.96
388.769	61.78
388.979	10.58
389.189	51.54
389.399	59.73
389.609	153.94
389.818	76.12
390.028	47.44
390.238	67.92
390.447	20.82
390.657	100.69
390.867	24.92
391.076	49.49
391.286	51.54
391.496	69.97
391.705	80.21
391.915	45.4
392.125	0.34
392.334	18.77
392.544	78.16
392.753	63.83
392.963	69.97
393.172	63.83
393.382	12.63
393.591	90.45
393.801	8.53
394.01	153.94
394.22	78.16
394.429	115.03
394.639	76.12
394.848	31.06
395.058	51.54
395.267	141.65
395.477	69.97
395.686	78.16
395.895	72.02
396.105	92.5
396.314	106.84
396.524	86.36
396.733	49.49
396.942	98.64
397.152	106.84
397.361	121.17
397.57	-11.95
397.78	78.16
397.989	90.45
398.198	74.07
398.407	108.88
398.617	51.54
398.826	67.92
399.035	78.16
399.244	160.08
399.453	139.6
399.663	65.88
399.872	37.2
400.081	90.45
400.29	96.6
400.499	84.31
400.708	145.75
400.917	137.56
401.127	141.65
401.336	80.21
401.545	158.03
401.754	108.88
401.963	112.98
402.172	59.73
402.381	78.16
402.59	174.42
402.799	100.69
403.008	182.61
403.217	67.92
403.426	123.22
403.635	131.41
403.844	123.22
404.053	106.84
404.262	78.16
404.471	217.43
404.68	115.03
404.888	102.74
405.097	160.08
405.306	80.21
405.515	110.93
405.724	149.84
405.933	78.16
406.142	151.89
406.35	209.23
406.559	164.18
406.768	203.09
406.977	137.56
407.185	176.47
407.394	215.38
407.603	176.47
407.812	289.1
408.02	227.67
408.229	205.14
408.438	242
408.646	184.66
408.855	274.77
409.064	256.34
409.272	203.09
409.481	311.63
409.69	201.04
409.898	319.82
410.107	270.67
410.315	246.1
410.524	262.48
410.733	291.15
410.941	229.71
411.15	360.78
411.358	328.02
411.567	278.87
411.775	280.91
411.984	364.88
412.192	424.27
412.401	399.7
412.609	469.33
412.818	416.08
413.026	475.47
413.234	469.33
413.443	430.41
413.651	459.09
413.86	581.96
414.068	541.01
414.276	573.77
414.485	475.47
414.693	639.31
414.901	682.31
415.11	649.55
415.318	723.27
415.526	647.5
415.734	682.31
415.943	727.37
416.151	792.91
416.359	801.1
416.567	786.76
416.776	813.38
416.984	811.34
417.192	837.96
417.4	891.21
417.608	825.67
417.817	950.6
418.025	983.37
418.233	1069.38
418.441	1073.48
418.649	1091.91
418.857	1089.86
419.065	1192.26
419.273	1165.64
419.481	1175.88
419.689	1329.47
419.897	1280.32
420.105	1425.73
420.313	1405.25
420.521	1429.82
420.729	1438.02
420.937	1552.7
421.145	1573.18
421.353	1706.3
421.561	1679.68
421.769	1845.56
421.977	1845.56
422.185	1870.14
422.393	1913.14
422.601	2076.98
422.809	2009.4
423.017	2064.69
423.224	2134.32
423.432	2308.4
423.64	2371.89
423.848	2439.47
424.056	2392.37
424.263	2552.11
424.471	2625.84
424.679	2689.32
424.887	2828.59
425.094	2775.34
425.302	2808.11
425.51	3029.29
425.718	3094.82
425.925	3215.65
426.133	3254.56
426.341	3379.49
426.548	3528.99
426.756	3481.89
426.964	3604.77
427.171	3752.22
427.379	3836.19
427.586	3930.39
427.794	4081.94
428.001	4153.62
428.209	4395.28
428.417	4458.77
428.624	4643.09
428.832	4659.47
429.039	4790.54
429.247	4675.85
429.454	5132.55
429.662	5511.43
429.869	5024.01
430.076	5341.44
430.284	5341.44
430.491	5445.89
430.699	5902.59
430.906	5816.57
431.114	5871.87
431.321	6177.02
431.528	6312.18
431.736	6660.34
431.943	6793.45
432.15	6813.93
432.358	6838.51
432.565	7358.69
432.772	7133.42
432.979	7604.45
433.187	7620.83
433.394	7880.93
433.601	8132.83
433.808	8388.82
434.016	8165.59
434.223	8519.89
434.43	9218.25
434.637	8847.57
434.844	9523.4
435.052	9859.26
435.259	9656.51
435.466	9650.37
435.673	9806.02
435.88	10070.2
436.087	10608.82
436.294	10709.17
436.501	10623.16
436.708	10789.04
436.915	11022.51
437.122	11937.95
437.329	11550.89
437.537	11962.53
437.743	12138.65
437.95	12089.5
438.157	12689.56
438.364	12939.41
438.571	13111.44
438.778	13373.58
438.985	14653.56
439.192	13920.38
439.399	14162.05
439.606	14004.35
439.813	14809.2
440.02	15589.48
440.227	15173.74
440.433	15220.85
440.64	15771.75
440.847	15448.17
441.054	16175.2
441.261	17016.91
441.467	16832.6
441.674	17305.68
441.881	17795.14
442.088	17616.97
442.294	17502.28
442.501	17997.89
442.708	18577.47
442.914	19136.56
443.121	19943.46
443.328	19583.02
443.534	20834.33
443.741	20068.39
443.948	19904.55
444.154	21477.39
444.361	21377.04
444.568	21528.59
444.774	21663.75
444.981	21821.45
445.187	22321.15
445.394	23482.35
445.6	23162.87
445.807	25319.38
446.013	23906.28
446.22	24879.07
446.426	25524.18
446.633	25901
446.839	26456
447.046	25518.03
447.252	27039.67
447.459	26881.98
447.665	27037.62
447.871	27838.38
448.078	29353.88
448.284	27815.85
448.491	28743.58
448.697	30171.02
448.903	30142.35
449.11	30470.02
449.316	29788.05
449.522	30326.66
449.728	31350.65
449.935	31596.4
450.141	31467.38
450.347	32135.02
450.553	31080.32
450.76	31666.03
450.966	32485.22
451.172	32065.39
451.378	33066.84
451.584	32231.27
451.791	33183.58
451.997	33345.37
452.203	33488.73
452.409	33554.26
452.615	33548.12
452.821	31913.84
453.027	31666.03
453.233	33331.03
453.44	32028.52
453.646	32442.21
453.852	32302.95
454.058	33331.03
454.264	31913.84
454.47	32677.73
454.676	31987.57
454.882	33068.89
455.088	30320.52
455.294	30144.39
455.5	31022.97
455.705	31180.67
455.911	29638.55
456.117	29515.67
456.323	29026.2
456.529	27434.93
456.735	28589.99
456.941	27854.76
457.147	27615.15
457.352	26585.02
457.558	26144.71
457.764	26347.46
457.97	25706.45
458.176	25276.37
458.381	25167.83
458.587	23828.46
458.793	24143.84
458.999	22847.48
459.204	24485.86
459.41	23709.68
459.616	22097.92
459.821	21938.18
460.027	22011.91
460.233	21461.01
460.438	20422.69
460.644	20969.49
460.85	19597.35
461.055	19433.52
461.261	19312.69
461.466	17938.5
461.672	17416.27
461.878	18718.78
462.083	17547.34
462.289	16945.23
462.494	16679
462.7	15931.49
462.905	15677.54
463.111	16189.53
463.316	16347.23
463.522	15730.79
463.727	15790.18
463.932	15982.69
464.138	15781.99
464.343	15841.38
464.549	15339.63
464.754	15743.08
464.959	15650.92
465.165	15667.3
465.37	14897.27
465.575	14536.82
465.781	15167.6
465.986	14948.47
466.191	14852.21
466.397	14327.93
466.602	13807.75
466.807	14432.38
467.012	14223.48
467.218	14168.19
467.423	13738.12
467.628	13875.33
467.833	14645.37
468.038	14254.2
468.244	13680.77
468.449	14215.29
468.654	13781.12
468.859	13660.29
469.064	13463.69
469.269	13080.72
469.474	13006.99
469.679	13492.36
469.885	12970.13
470.09	12992.66
470.295	13066.38
470.5	12798.1
470.705	12810.39
470.91	12552.34
471.115	12191.9
471.32	12748.95
471.525	12644.5
471.73	12273.82
471.935	12320.92
472.139	11839.65
472.344	11878.56
472.549	11780.26
472.754	11735.2
472.959	11507.88
473.164	11161.77
473.369	10905.77
473.574	11614.37
473.778	11237.55
473.983	11180.2
474.188	11344.04
474.393	10723.51
474.598	10567.86
474.802	10690.74
475.007	10508.47
475.212	10457.27
475.417	9998.52
475.621	10129.59
475.826	10025.15
476.031	9988.28
476.235	9834.69
476.44	9779.39
476.645	9613.51
476.849	9822.4
477.054	9439.43
477.259	9429.19
477.463	9470.15
477.668	9263.3
477.872	9167.05
478.077	9216.2
478.282	8927.44
478.486	8960.2
478.691	8790.22
478.895	8638.67
479.1	8921.29
479.304	8913.1
479.509	8431.83
479.713	8763.6
479.918	8571.09
480.122	8317.14
480.326	8536.28
480.531	8517.84
480.735	8362.2
480.94	8298.71
481.144	8392.92
481.348	8091.87
481.553	8220.89
481.757	8169.69
481.961	8102.11
482.166	8292.57
482.37	8323.29
482.574	8194.26
482.778	8036.57
482.983	8386.77
483.187	8069.34
483.391	8298.71
483.595	8032.47
483.8	7997.66
484.004	8001.76
484.208	8188.12
484.412	8057.05
484.616	8190.17
484.821	8001.76
485.025	8036.57
485.229	8157.4
485.433	7991.52
485.637	8155.35
485.841	7930.08
486.045	7964.89
486.249	8063.19
486.453	7749.86
486.657	7995.61
486.861	8112.35
487.065	7942.36
487.269	7940.32
487.473	7905.5
487.677	8063.19
487.881	8012
488.085	7950.56
488.289	8040.67
488.493	7889.12
488.697	8208.6
488.901	8151.26
489.105	7966.94
489.309	8216.79
489.512	8188.12
489.716	8163.54
489.92	8210.65
490.124	8042.71
490.328	8401.11
490.531	8073.43
490.735	8282.33
490.939	8198.36
491.143	8214.74
491.346	8282.33
491.55	8331.48
491.754	8411.35
491.958	8450.26
492.161	8491.22
492.365	8409.3
492.569	8347.86
492.772	8466.64
492.976	8605.91
493.18	8673.49
493.383	8702.16
493.587	8874.19
493.79	8792.27
493.994	8667.35
494.197	8818.89
494.401	8767.7
494.605	8947.92
494.808	9130.19
495.012	9226.44
495.215	9023.69
495.419	9210.06
495.622	9121.99
495.825	9320.65
496.029	9410.76
496.232	9640.13
496.436	9359.56
496.639	9769.15
496.843	9558.21
497.046	9660.61
497.249	9861.31
497.453	10092.73
497.656	9926.85
497.859	10117.31
498.063	10234.04
498.266	10385.59
498.469	10264.76
498.673	10606.77
498.876	10545.33
499.079	10899.63
499.282	10868.91
499.485	11079.85
499.689	10801.33
499.892	11247.79
500.095	11247.79
500.298	11600.04
500.501	11333.8
500.705	11774.11
500.908	11739.3
501.111	11784.35
501.314	11641
501.517	12300.44
501.72	12155.04
501.923	12363.93
502.126	12673.17
502.329	12681.36
502.532	12888.21
502.735	12824.72
502.938	13095.05
503.141	12955.79
503.344	13457.54
503.547	13279.37
503.75	13580.42
503.953	13664.39
504.156	13783.17
504.359	14102.65
504.562	14082.17
504.765	14473.34
504.968	14194.81
505.17	14512.25
505.373	14567.54
505.576	14940.27
505.779	14925.94
505.982	15192.17
506.185	15437.93
506.387	15349.87
506.59	15638.63
506.793	16066.66
506.996	15927.39
507.198	16263.26
507.401	16148.57
507.604	16617.56
507.807	16570.46
508.009	16908.37
508.212	16904.28
508.415	17193.04
508.617	17041.49
508.82	17539.15
509.022	17512.52
509.225	17924.16
509.428	18067.52
509.63	18180.16
509.833	18219.07
510.035	18485.31
510.238	18419.77
510.44	18690.1
510.643	18837.56
510.845	19259.44
511.048	18935.86
511.25	19533.87
511.453	19626.03
511.655	19988.52
511.858	19685.42
512.06	19941.41
512.262	20144.16
512.465	20371.49
512.667	20555.8
512.87	20658.2
513.072	20779.03
513.274	21391.37
513.477	21272.59
513.679	21415.95
513.881	21747.72
514.084	22034.44
514.286	21708.81
514.488	21776.39
514.69	22738.94
514.893	22759.42
515.095	22484.99
515.297	23056.37
515.499	22978.55
515.701	23089.14
515.904	23627.76
516.106	23695.34
516.308	23822.31
516.51	24211.43
516.712	24023.01
516.914	24352.74
517.116	24750.04
517.318	24621.02
517.52	24793.05
517.722	24965.08
517.925	25350.1
518.127	25673.68
518.329	25376.72
518.531	25718.73
518.733	26144.71
518.935	26394.56
519.136	26157
519.338	26517.44
519.54	26546.11
519.742	27066.3
519.944	27017.15
520.146	27654.06
520.348	27467.7
520.55	27518.9
520.752	28043.18
520.954	28323.75
521.155	27967.4
521.357	28483.49
521.559	29001.63
521.761	28684.19
521.963	28723.1
522.164	29259.67
522.366	29061.02
522.568	29575.06
522.77	29804.43
522.971	29996.94
523.173	29757.33
523.375	30171.02
523.576	29816.72
523.778	29861.77
523.98	30510.98
524.181	30705.54
524.383	30574.47
524.584	31137.66
524.786	30893.95
524.988	30670.72
525.189	31221.62
525.391	31166.33
525.592	31410.04
525.794	31123.32
525.995	31375.22
526.197	31553.4
526.398	31545.2
526.6	31868.78
526.801	31850.35
527.003	32241.51
527.204	32075.63
527.406	32122.73
527.607	32438.12
527.808	32540.52
528.01	32040.81
528.211	32329.58
528.412	32683.87
528.614	32720.74
528.815	32839.52
529.016	32976.73
529.218	32698.21
529.419	32782.18
529.62	33021.79
529.822	32808.8
530.023	33083.23
530.224	33032.03
530.425	33050.46
530.626	32958.3
530.828	33013.6
531.029	33492.82
531.23	33384.28
531.431	33120.09
531.632	33455.96
531.833	33490.77
532.035	33273.69
532.236	33029.98
532.437	33484.63
532.638	33507.16
532.839	33607.51
533.04	33527.64
533.241	33419.1
533.442	33822.55
533.643	33412.95
533.844	33355.61
534.045	33290.07
534.246	33488.73
534.447	33470.29
534.648	33505.11
534.849	33748.82
535.05	33353.56
535.251	33576.79
535.451	33464.15
535.652	33371.99
535.853	33187.67
536.054	33247.07
536.255	33679.19
536.456	33433.43
536.657	34019.15
536.857	33570.65
537.058	33263.45
537.259	33505.11
537.46	33406.81
537.66	33458.01
537.861	33335.13
538.062	33380.18
538.263	33460.05
538.463	33355.61
538.664	33228.63
538.865	33482.58
539.065	33455.96
539.266	33159
539.466	33394.52
539.667	32960.35
539.868	33707.86
540.068	33564.5
540.269	33107.8
540.469	33558.36
540.67	32921.44
540.87	33328.98
541.071	33081.18
541.271	33222.49
541.472	32999.26
541.672	33216.35
541.873	32757.6
542.073	32687.97
542.274	33173.34
542.474	32966.49
542.675	33093.47
542.875	33079.13
543.075	33034.08
543.276	32796.51
543.476	33572.69
543.676	32894.82
543.877	33091.42
544.077	33167.2
544.277	32915.3
544.478	33089.37
544.678	32696.16
544.878	32640.87
545.078	32980.83
545.279	32814.94
545.479	32597.86
545.679	32933.73
545.879	32675.68
546.079	32921.44
546.28	32536.42
546.48	32583.52
546.68	32935.77
546.88	32839.52
547.08	32667.49
547.28	32493.41
547.48	32194.41
547.68	32659.3
547.88	32208.75
548.081	32737.12
548.281	32528.23
548.481	32407.4
548.681	32456.55
548.881	32522.09
549.081	32554.85
549.28	32515.94
549.48	32687.97
549.68	32466.79
549.88	32819.04
550.08	32421.73
550.28	32241.51
550.48	32210.79
550.68	32499.56
550.88	32548.71
551.08	32325.48
551.279	32634.72
551.479	32284.52
551.679	32579.43
551.879	32128.88
552.079	32747.36
552.278	32391.02
552.478	32096.11
552.678	32214.89
552.878	32505.7
553.077	32155.5
553.277	31926.13
553.477	32532.32
553.676	32249.71
553.876	32302.95
554.076	31817.58
554.275	31778.67
554.475	31762.29
554.674	32122.73
554.874	32069.48
555.074	31903.6
555.273	32257.9
555.473	32245.61
555.672	31463.29
555.872	31821.68
556.071	32159.59
556.271	32247.66
556.47	31663.99
556.67	31774.58
556.869	31496.05
557.068	31948.65
557.268	31700.85
557.467	31514.48
557.667	31825.78
557.866	31428.47
558.065	31457.14
558.265	31407.99
558.464	31174.52
558.663	31958.89
558.863	30959.48
559.062	31948.65
559.261	31524.72
559.461	31829.87
559.66	31278.97
559.859	31395.7
560.058	30969.72
560.258	31354.74
560.457	31063.93
560.656	30961.53
560.855	31192.95
561.054	31233.91
561.253	30582.66
561.453	30834.56
561.652	30850.94
561.851	30910.33
562.05	30994.3
562.249	30455.68
562.448	30957.44
562.647	31006.59
562.846	31008.64
563.045	30646.15
563.244	30410.63
563.443	30887.81
563.642	30551.94
563.841	30510.98
564.04	30510.98
564.239	30777.22
564.438	30005.13
564.637	30596.99
564.836	30355.33
565.035	30070.67
565.234	30398.34
565.432	30103.43
565.631	30183.3
565.83	30011.28
566.029	30013.32
566.228	29857.68
566.427	30128.01
566.625	29509.52
566.824	29794.19
567.023	29949.84
567.222	29546.39
567.42	30033.8
567.619	29509.52
567.818	29882.25
568.016	29720.46
568.215	29837.2
568.414	29536.15
568.612	29556.63
568.811	29257.62
569.01	29292.44
569.208	29046.68
569.407	29599.63
569.605	29028.25
569.804	29271.96
570.002	28917.66
570.201	29441.94
570.4	29009.82
570.598	28749.73
570.797	28757.92
570.995	28811.17
571.193	28411.81
571.392	29018.01
571.59	28444.58
571.789	28792.73
571.987	28303.27
572.186	28333.99
572.384	28256.17
572.582	28628.9
572.781	28348.32
572.979	28305.32
573.177	28166.06
573.376	28288.93
573.574	28282.79
573.772	28254.12
573.971	27914.16
574.169	27883.44
574.367	27606.96
574.565	27895.72
574.763	27516.85
574.962	27275.19
575.16	27318.2
575.358	27205.56
575.556	27168.69
575.754	27860.91
575.952	27023.29
576.151	27461.55
576.349	26904.51
576.547	27246.52
576.745	27076.54
576.943	27443.12
577.141	27129.78
577.339	27090.87
577.537	26746.81
577.735	26947.51
577.933	26390.47
578.131	26765.24
578.329	26716.09
578.527	26462.15
578.725	26496.96
578.923	26548.16
579.121	26441.67
579.319	26195.91
579.516	26644.41
579.714	25825.23
579.912	25991.11
580.11	25857.99
580.308	26443.71
580.506	25946.06
580.704	25612.24
580.901	25849.8
581.099	26136.52
581.297	25974.73
581.495	25579.47
581.692	25898.95
581.89	25452.5
582.088	25378.77
582.285	25237.46
582.483	25634.77
582.681	25778.12
582.878	25264.08
583.076	24891.35
583.274	25053.14
583.471	25008.09
583.669	24989.66
583.866	25024.47
584.064	24954.84
584.262	24639.45
584.459	24803.29
584.657	24698.84
584.854	24872.92
585.052	24471.52
585.249	24412.13
585.447	24717.28
585.644	24254.44
585.841	24477.66
586.039	24713.18
586.236	24332.26
586.434	23969.77
586.631	23818.22
586.828	24342.5
587.026	23910.38
587.223	23908.33
587.42	24256.48
587.618	24090.6
587.815	23781.35
588.012	23445.49
588.21	23699.44
588.407	23881.7
588.604	23425.01
588.801	23287.79
588.999	23328.75
589.196	23304.18
589.393	23306.23
589.59	23347.19
589.787	23054.33
589.984	23291.89
590.182	22669.31
590.379	23039.99
590.576	22812.67
590.773	22999.03
590.97	22573.05
591.167	22636.54
591.364	22444.03
591.561	22439.93
591.758	22206.47
591.955	22261.76
592.152	22591.48
592.349	22269.95
592.546	22020.1
592.743	22620.16
592.94	21952.52
593.137	22089.73
593.334	22333.44
593.531	21985.29
593.727	21958.66
593.924	21915.65
594.121	21815.3
594.318	22134.79
594.515	21587.98
594.712	21770.25
594.908	21379.09
595.105	21506.06
595.302	21037.08
595.499	21436.43
595.696	21149.71
595.892	21028.88
596.089	21233.68
596.286	21225.49
596.482	20998.16
596.679	21065.75
596.876	21012.5
597.072	20848.66
597.269	20887.57
597.466	20805.66
597.662	20664.35
597.859	20506.65
598.055	20510.75
598.252	20455.45
598.448	20580.38
598.645	20602.91
598.841	19882.02
599.038	20297.76
599.234	20486.17
599.431	20226.08
599.627	20195.36
599.824	20303.9
600.02	19750.95
600.217	20045.86
600.413	19744.81
600.609	19775.53
600.806	19785.77
601.002	19683.37
601.198	19634.22
601.395	19761.19
601.591	19310.64
601.787	19408.94
601.984	19255.34
602.18	19591.21
602.376	19507.24
602.572	19454
602.769	19396.65
602.965	19255.34
603.161	19052.59
603.357	18995.25
603.553	19066.93
603.75	19089.46
603.946	18563.13
604.142	18790.45
604.338	18675.77
604.534	18765.88
604.73	18425.92
604.926	18653.24
605.122	18477.12
605.318	18440.25
605.514	18126.91
605.71	18235.46
605.906	18157.63
606.102	18133.06
606.298	18309.18
606.494	18016.32
606.69	18186.3
606.886	17924.16
607.082	18047.04
607.278	18231.36
607.474	17748.04
607.67	17877.06
607.866	17668.17
608.062	17942.6
608.257	17877.06
608.453	17684.55
608.649	17770.57
608.845	17680.46
609.041	17475.66
609.236	17825.86
609.432	17504.33
609.628	17506.38
609.824	17399.88
610.019	17524.81
610.215	17193.04
610.411	17576.01
610.606	17571.91
610.802	17469.51
610.998	17438.8
611.193	17295.44
611.389	17102.93
611.584	17006.67
611.78	16959.57
611.976	16814.16
612.171	17035.35
612.367	16967.76
612.562	16967.76
612.758	16468.06
612.953	16658.52
613.149	16941.14
613.344	16461.91
613.539	16910.42
613.735	16773.21
613.93	16957.52
614.126	16535.64
614.321	16748.63
614.517	16963.67
614.712	16547.93
614.907	16541.78
615.103	16539.74
615.298	16578.65
615.493	16502.87
615.688	16410.71
615.884	16603.22
616.079	16343.13
616.274	16472.15
616.47	16218.21
616.665	16351.32
616.86	16193.63
617.055	16093.28
617.25	16164.96
617.445	16132.19
617.641	16005.22
617.836	16160.86
618.031	15984.74
618.226	16177.25
618.421	15968.35
618.616	16031.84
618.811	15761.51
619.006	15906.91
619.201	15546.47
619.396	15939.68
619.591	15368.3
619.786	15681.64
619.981	15194.22
620.176	15558.76
620.371	15425.64
620.566	15319.15
620.761	15132.78
620.956	15093.87
621.151	14930.03
621.346	15067.25
621.541	14770.29
621.735	14973.04
621.93	14753.91
622.125	15032.43
622.32	14579.83
622.515	14868.59
622.709	14704.76
622.904	14608.5
623.099	14430.33
623.294	14698.61
623.488	13985.92
623.683	14170.24
623.878	13920.38
624.072	14176.38
624.267	14114.94
624.462	13940.86
624.656	13869.19
624.851	13688.96
625.046	13543.56
625.24	13942.91
625.435	13416.58
625.629	13518.98
625.824	13406.34
626.018	13279.37
626.213	12990.61
626.407	13310.09
626.602	12855.44
626.796	12976.27
626.991	13027.47
627.185	12830.87
627.38	12722.32
627.574	12750.99
627.768	12621.97
627.963	12714.13
628.157	12531.86
628.352	12669.08
628.546	12226.71
628.74	12394.65
628.935	12241.05
629.129	12286.11
629.323	11954.33
629.517	12095.64
629.712	11853.98
629.906	11872.42
630.1	11757.73
630.294	11923.62
630.489	11763.87
630.683	11800.74
630.877	11663.52
631.071	11686.05
631.265	11587.75
631.459	11430.05
631.653	11370.66
631.848	11272.36
632.042	11333.8
632.236	11174.06
632.43	11229.35
632.624	11280.55
632.818	11139.24
633.012	10963.12
633.206	10963.12
633.4	10924.21
633.594	10795.18
633.788	10739.89
633.982	10733.75
634.176	10770.61
634.369	10567.86
634.563	10715.31
634.757	10586.29
634.951	10670.26
635.145	10426.55
635.339	10438.84
635.533	10326.2
635.726	10457.27
635.92	10080.44
636.114	9988.28
636.308	9877.69
636.501	10051.77
636.695	9996.48
636.889	9973.95
637.083	9892.03
637.276	9777.34
637.47	9728.19
637.664	9693.38
637.857	9652.42
638.051	9615.55
638.244	9484.48
638.438	9537.73
638.632	9621.7
638.825	9226.44
639.019	9459.91
639.212	9242.82
639.406	9218.25
639.599	9294.02
639.793	9361.61
639.986	8976.59
640.18	9132.23
640.373	9203.91
640.567	8831.18
640.76	8904.91
640.954	8882.38
641.147	8839.37
641.34	8650.96
641.534	8747.22
641.727	8583.38
641.92	8743.12
642.114	8614.1
642.307	8743.12
642.5	8347.86
642.694	8399.06
642.887	8448.21
643.08	8327.38
643.273	8136.92
643.467	8368.34
643.66	8026.33
643.853	8321.24
644.046	7975.13
644.239	8167.64
644.432	7983.32
644.626	7899.36
644.819	7936.22
645.012	7997.66
645.205	7801.05
645.398	7743.71
645.591	7588.07
645.784	7819.49
645.977	7551.2
646.17	7723.23
646.363	7549.15
646.556	7334.12
646.749	7557.35
646.942	7528.67
647.135	7407.84
647.328	7411.94
647.521	7356.65
647.714	7215.34
647.907	7373.03
648.099	7344.36
648.292	7293.16
648.485	7272.68
648.678	7127.27
648.871	7121.13
649.064	7065.83
649.256	7182.57
649.449	6990.06
649.642	7074.03
649.835	6852.84
650.027	6883.56
650.22	6887.66
650.413	6795.5
650.605	6844.65
650.798	6758.64
650.991	6658.29
651.183	6856.94
651.376	6510.83
651.568	6703.34
651.761	6600.94
651.954	6488.31
652.146	6502.64
652.339	6549.75
652.531	6406.39
652.724	6383.86
652.916	6353.14
653.109	6297.85
653.301	6258.93
653.494	6342.9
653.686	6093.05
653.879	6400.24
654.071	6105.34
654.263	6129.91
654.456	6050.04
654.648	6080.76
654.84	6078.71
655.033	5966.07
655.225	5976.31
655.417	5933.31
655.61	5830.91
655.802	5933.31
655.994	5867.77
656.186	5779.71
656.379	5759.23
656.571	5599.49
656.763	5753.09
656.955	5712.13
657.148	5685.5
657.34	5662.97
657.532	5671.17
657.724	5519.62
657.916	5638.4
658.108	5527.81
658.3	5474.56
658.492	5572.86
658.684	5511.43
658.876	5357.83
659.068	5361.92
659.26	5316.87
659.452	5323.01
659.644	5222.66
659.836	5191.94
660.028	5273.86
660.22	5257.48
660.412	5280
660.604	4987.15
660.796	5251.33
660.988	5021.96
661.18	5052.68
661.372	4976.91
661.563	5015.82
661.755	4999.43
661.947	4944.14
662.139	4849.93
662.331	4921.61
662.522	4874.51
662.714	4935.95
662.906	4901.13
663.097	4929.8
663.289	4790.54
663.481	4837.64
663.673	4796.68
663.864	4671.76
664.056	4907.27
664.247	4604.18
664.439	4608.27
664.631	4647.18
664.822	4673.81
665.014	4741.39
665.205	4628.75
665.397	4403.47
665.588	4491.54
665.78	4544.78
665.971	4489.49
666.163	4495.63
666.354	4366.61
666.546	4421.91
666.737	4313.36
666.929	4339.99
667.12	4405.52
667.311	4315.41
667.503	4303.12
667.694	4258.07
667.885	4198.68
668.077	4331.8
668.268	4354.32
668.459	4047.13
668.651	4301.08
668.842	4112.66
669.033	4100.37
669.224	4221.2
669.416	4231.44
669.607	4028.7
669.798	4067.61
669.989	4094.23
670.18	4161.81
670.371	3944.73
670.563	4000.02
670.754	4030.74
670.945	3920.15
671.136	4133.14
671.327	3891.48
671.518	3907.87
671.709	3823.9
671.9	4038.94
672.091	3924.25
672.282	3885.34
672.473	3950.87
672.664	3866.91
672.855	3807.52
673.046	3819.8
673.237	3848.47
673.428	3887.39
673.619	3807.52
673.809	3721.5
674	3692.83
674.191	3658.01
674.382	3741.98
674.573	3707.16
674.764	3633.44
674.954	3756.32
675.145	3658.01
675.336	3635.49
675.527	3682.59
675.717	3602.72
675.908	3717.4
676.099	3500.32
676.289	3565.85
676.48	3461.41
676.671	3565.85
676.861	3649.82
677.052	3678.49
677.243	3649.82
677.433	3463.46
677.624	3457.31
677.814	3520.8
678.005	3531.04
678.195	3397.92
678.386	3551.52
678.576	3449.12
678.767	3254.56
678.957	3545.38
679.148	3492.13
679.338	3434.78
679.529	3438.88
679.719	3404.07
679.909	3477.79
680.1	3492.13
680.29	3479.84
680.481	3254.56
680.671	3418.4
680.861	3379.49
681.052	3518.75
681.242	3447.07
681.432	3545.38
681.622	3176.74
681.813	3350.82
682.003	3344.67
682.193	3377.44
682.383	3324.19
682.573	3191.08
682.764	3211.56
682.954	3266.85
683.144	3293.48
683.334	3234.08
683.524	3207.46
683.714	3287.33
683.904	3246.37
684.094	3074.34
684.284	3146.02
684.474	3229.99
684.664	3143.97
684.854	3209.51
685.044	3205.41
685.234	2990.38
685.424	3080.49
685.614	3240.23
685.804	3174.69
685.994	3172.64
686.184	3125.54
686.374	3035.43
686.564	2992.42
686.753	3051.81
686.943	3105.06
687.133	2978.09
687.323	2967.85
687.513	3006.76
687.702	3045.67
687.892	2982.18
688.082	3068.2
688.272	2976.04
688.461	2969.9
688.651	2926.89
688.841	2904.36
689.03	2978.09
689.22	2873.64
689.41	2922.79
689.599	2783.53
689.789	2883.88
689.979	2826.54
690.168	2892.07
690.358	2879.79
690.547	2709.8
690.737	2812.2
690.926	2746.67
691.116	2711.85
691.305	2748.72
691.495	2810.15
691.684	2693.42
691.874	2756.91
692.063	2744.62
692.252	2722.09
692.442	2769.2
692.631	2689.32
692.82	2697.52
693.01	2621.74
693.199	2593.07
693.388	2674.99
693.578	2535.73
693.767	2591.02
693.956	2672.94
694.146	2572.59
694.335	2550.06
694.524	2509.1
694.713	2740.52
694.902	2623.79
695.092	2562.35
695.281	2615.6
695.47	2470.19
695.659	2605.36
695.848	2566.45
696.037	2480.43
696.226	2511.15
696.415	2482.48
696.604	2421.04
696.793	2445.62
696.982	2515.25
697.171	2462
697.36	2523.44
697.549	2462
697.738	2474.29
697.927	2642.22
698.116	2437.42
698.305	2552.11
698.494	2468.14
698.683	2564.4
698.872	2494.77
699.061	2527.53
699.25	2435.38
699.438	2486.58
699.627	2361.65
699.816	2447.66
700.005	2433.33
700.193	2476.34
700.382	2513.2
700.571	2453.81
700.76	2500.91
700.948	2476.34
701.137	2437.42
701.326	2418.99
701.514	2373.94
701.703	2421.04
701.892	2300.21
702.08	2552.11
702.269	2519.34
702.457	2412.85
702.646	2478.38
702.834	2437.42
703.023	2386.22
703.212	2435.38
703.4	2468.14
703.589	2412.85
703.777	2453.81
703.965	2386.22
704.154	2437.42
704.342	2449.71
704.531	2449.71
704.719	2433.33
704.907	2482.48
705.096	2449.71
705.284	2502.96
705.472	2543.92
705.661	2464.05
705.849	2533.68
706.037	2474.29
706.226	2392.37
706.414	2502.96
706.602	2367.79
706.79	2490.67
706.979	2433.33
707.167	2455.86
707.355	2474.29
707.543	2392.37
707.731	2431.28
707.919	2500.91
708.107	2539.82
708.296	2443.57
708.484	2482.48
708.672	2597.17
708.86	2484.53
709.048	2453.81
709.236	2511.15
709.424	2380.08
709.612	2515.25
709.8	2416.94
709.988	2365.75
710.176	2505.01
710.364	2281.78
710.551	2572.59
710.739	2402.61
710.927	2478.38
711.115	2439.47
711.303	2400.56
711.491	2486.58
711.679	2484.53
711.866	2337.07
712.054	2384.18
712.242	2523.44
712.43	2423.09
712.617	2439.47
712.805	2386.22
712.993	2500.91
713.181	2398.51
713.368	2517.29
713.556	2586.93
713.744	2414.9
713.931	2505.01
714.119	2423.09
714.306	2521.39
714.494	2443.57
714.682	2435.38
714.869	2425.14
715.057	2429.23
715.244	2355.51
715.432	2533.68
715.619	2439.47
715.807	2492.72
715.994	2453.81
716.182	2507.06
716.369	2398.51
716.556	2578.73
716.744	2347.31
716.931	2468.14
717.119	2390.32
717.306	2427.18
717.493	2511.15
717.681	2611.5
717.868	2582.83
718.055	2408.75
718.242	2474.29
718.43	2421.04
718.617	2427.18
718.804	2474.29
718.991	2418.99
719.179	2455.86
719.366	2443.57
719.553	2527.53
719.74	2298.16
719.927	2300.21
720.114	2375.99
720.301	2357.55
720.488	2453.81
720.676	2267.44
720.863	2398.51
721.05	2496.82
721.237	2474.29
721.424	2507.06
721.611	2418.99
721.798	2509.1
721.985	2353.46
722.172	2427.18
722.358	2468.14
722.545	2304.31
722.732	2478.38
722.919	2408.75
723.106	2269.49
723.293	2378.03
723.48	2314.55
723.667	2388.27
723.853	2257.2
724.04	2449.71
724.227	2396.46
724.414	2378.03
724.6	2462
724.787	2433.33
724.974	2466.1
725.161	2328.88
725.347	2423.09
725.534	2429.23
725.72	2390.32
725.907	2433.33
726.094	2468.14
726.28	2357.55
726.467	2457.9
726.653	2435.38
726.84	2380.08
727.027	2437.42
727.213	2306.35
727.4	2390.32
727.586	2478.38
727.773	2437.42
727.959	2414.9
728.145	2246.96
728.332	2564.4
728.518	2410.8
728.705	2390.32
728.891	2414.9
729.077	2373.94
729.264	2361.65
729.45	2398.51
729.636	2398.51
729.823	2322.74
730.009	2402.61
730.195	2324.79
730.382	2289.97
730.568	2365.75
730.754	2335.03
730.94	2242.87
731.126	2443.57
731.313	2310.45
731.499	2287.92
731.685	2330.93
731.871	2351.41
732.057	2318.64
732.243	2330.93
732.429	2332.98
732.615	2414.9
732.801	2408.75
732.987	2459.95
733.173	2285.87
733.359	2369.84
733.545	2306.35
733.731	2306.35
733.917	2418.99
734.103	2275.63
734.289	2384.18
734.475	2382.13
734.661	2382.13
734.847	2208.05
735.033	2373.94
735.219	2173.24
735.404	2294.07
735.59	2292.02
735.776	2128.18
735.962	2345.27
736.148	2226.48
736.333	2259.25
736.519	2255.15
736.705	2279.73
736.89	2199.86
737.076	2345.27
737.262	2271.54
737.447	2246.96
737.633	2259.25
737.819	2265.39
738.004	2193.72
738.19	2232.63
738.375	2208.05
738.561	2261.3
738.747	2208.05
738.932	2220.34
739.118	2181.43
739.303	2244.92
739.489	2070.84
739.674	2128.18
739.859	2091.32
740.045	2240.82
740.23	2046.26
740.416	2271.54
740.601	2154.8
740.786	2251.06
740.972	2169.14
741.157	2169.14
741.342	2031.93
741.528	2042.17
741.713	2109.75
741.898	2013.49
742.084	2122.04
742.269	1913.14
742.454	2085.17
742.639	2011.45
742.824	2070.84
743.01	2132.28
743.195	1995.06
743.38	1986.87
743.565	2042.17
743.75	1907
743.935	1970.49
744.12	2046.26
744.305	1962.3
744.49	1925.43
744.675	1896.76
744.86	1892.66
745.045	1917.24
745.23	1923.38
745.415	1988.92
745.6	1978.68
745.785	1911.1
745.97	1866.04
746.155	1708.35
746.34	1837.37
746.525	1976.63
746.71	1915.19
746.895	1831.23
747.079	1691.96
747.264	1763.64
747.449	1911.1
747.634	1804.6
747.819	1753.4
748.003	1759.55
748.188	1837.37
748.373	1820.99
748.557	1827.13
748.742	1761.59
748.927	1767.74
749.111	1681.72
749.296	1712.44
749.481	1759.55
749.665	1712.44
749.85	1599.8
750.034	1679.68
750.219	1667.39
750.404	1591.61
750.588	1661.24
750.773	1560.89
750.957	1562.94
751.141	1669.44
751.326	1542.46
751.51	1564.99
751.695	1589.57
751.879	1628.48
752.064	1558.85
752.248	1571.13
752.432	1526.08
752.617	1536.32
752.801	1468.73
752.985	1524.03
753.17	1499.45
753.354	1481.02
753.538	1548.61
753.722	1384.77
753.907	1450.3
754.091	1358.14
754.275	1427.78
754.459	1413.44
754.643	1325.38
754.828	1382.72
755.012	1302.85
755.196	1308.99
755.38	1335.62
755.564	1446.21
755.748	1259.84
755.932	1356.1
756.116	1300.8
756.3	1163.59
756.484	1288.51
756.668	1329.47
756.852	1298.75
757.036	1265.99
757.22	1292.61
757.404	1130.82
757.588	1294.66
757.772	1284.42
757.956	1327.43
758.14	1171.78
758.323	1188.16
758.507	1196.36
758.691	1159.49
758.875	1241.41
759.059	1167.68
759.242	1141.06
759.426	1091.91
759.61	1157.44
759.794	1171.78
759.977	1239.36
760.161	1208.64
760.345	1206.59
760.528	1126.72
760.712	1089.86
760.895	1065.29
761.079	1102.15
761.263	1077.57
761.446	1069.38
761.63	1003.85
761.813	991.56
761.997	1048.9
762.18	1030.47
762.364	1024.33
762.547	1069.38
762.731	1057.09
762.914	1005.89
763.098	1026.37
763.281	995.65
763.464	1106.24
763.648	1096
763.831	1046.85
764.015	1012.04
764.198	1059.14
764.381	989.51
764.564	952.65
764.748	893.26
764.931	960.84
765.114	956.74
765.297	919.88
765.481	979.27
765.664	936.26
765.847	1046.85
766.03	960.84
766.213	897.35
766.397	928.07
766.58	854.34
766.763	975.17
766.946	907.59
767.129	923.98
767.312	883.02
767.495	985.41
767.678	948.55
767.861	897.35
768.044	962.89
768.227	911.69
768.41	913.74
768.593	932.17
768.776	860.49
768.959	909.64
769.142	962.89
769.324	811.34
769.507	848.2
769.69	788.81
769.873	840.01
770.056	876.87
770.239	901.45
770.421	883.02
770.604	803.15
770.787	766.28
770.97	842.06
771.152	792.91
771.335	780.62
771.518	794.95
771.7	917.83
771.883	833.86
772.066	782.67
772.248	733.51
772.431	723.27
772.613	883.02
772.796	860.49
772.978	809.29
773.161	833.86
773.343	694.6
773.526	715.08
773.708	627.02
773.891	737.61
774.073	729.42
774.256	774.47
774.438	670.03
774.621	719.18
774.803	727.37
774.985	760.14
775.168	713.03
775.35	737.61
775.532	717.13
775.715	667.98
775.897	655.69
776.079	741.71
776.261	719.18
776.444	700.75
776.626	713.03
776.808	581.96
776.99	635.21
777.173	639.31
777.355	694.6
777.537	735.56
777.719	663.88
777.901	682.31
778.083	612.68
778.265	631.12
778.447	633.16
778.629	702.79
778.811	639.31
778.993	586.06
779.175	584.01
779.357	657.74
779.539	528.72
779.721	524.62
779.903	594.25
780.085	573.77
780.267	592.2
780.449	594.25
780.631	594.25
780.812	592.2
780.994	485.71
781.176	485.71
781.358	563.53
781.54	516.43
781.721	592.2
781.903	477.52
782.085	461.13
782.267	532.81
782.448	536.91
782.63	498
782.812	555.34
782.993	514.38
783.175	528.72
783.357	512.33
783.538	487.76
783.72	467.28
783.901	465.23
784.083	459.09
784.264	495.95
784.446	442.7
784.627	459.09
784.809	477.52
784.99	473.42
785.172	495.95
785.353	444.75
785.535	407.89
785.716	487.76
785.897	338.26
786.079	405.84
786.26	383.31
786.441	426.32
786.623	307.54
786.804	426.32
786.985	407.89
787.167	487.76
787.348	459.09
787.529	430.41
787.71	295.25
787.891	393.55
788.073	442.7
788.254	366.93
788.435	399.7
788.616	280.91
788.797	336.21
788.978	387.41
789.159	356.69
789.34	395.6
789.522	387.41
789.703	305.49
789.884	352.59
790.065	352.59
790.246	352.59
790.427	334.16
790.607	416.08
790.788	366.93
790.969	239.95
791.15	346.45
791.331	377.17
791.512	330.06
791.693	368.98
791.874	297.3
792.054	426.32
792.235	362.83
792.416	317.78
792.597	332.11
792.778	276.82
792.958	364.88
793.139	297.3
793.32	350.54
793.5	311.63
793.681	311.63
793.862	350.54
794.042	266.58
794.223	215.38
794.404	307.54
794.584	256.34
794.765	289.1
794.945	299.34
795.126	276.82
795.306	280.91
795.487	285.01
795.667	278.87
795.848	295.25
796.028	295.25
796.209	342.35
796.389	311.63
796.57	256.34
796.75	282.96
796.93	364.88
797.111	235.86
797.291	237.91
797.471	334.16
797.652	252.24
797.832	280.91
798.012	246.1
798.192	192.85
798.373	317.78
798.553	180.56
798.733	225.62
798.913	280.91
799.093	215.38
799.274	244.05
799.454	215.38
799.634	254.29
799.814	282.96
799.994	274.77
800.174	252.24
800.354	198.99
800.534	293.2
800.714	219.47
800.894	264.53
801.074	311.63
801.254	180.56
801.434	237.91
801.614	211.28
801.794	225.62
801.974	504.14
802.154	225.62
802.334	227.67
802.514	180.56
802.693	242
802.873	182.61
803.053	268.63
803.233	239.95
803.413	178.51
803.592	172.37
803.772	178.51
803.952	213.33
804.131	233.81
804.311	137.56
804.491	213.33
804.67	215.38
804.85	158.03
805.03	209.23
805.209	233.81
805.389	131.41
805.568	110.93
805.748	164.18
805.928	225.62
806.107	125.27
806.287	170.32
806.466	145.75
806.646	119.12
806.825	186.71
807.004	190.8
807.184	223.57
807.363	145.75
807.543	162.13
807.722	170.32
807.901	213.33
808.081	186.71
808.26	215.38
808.439	127.32
808.619	176.47
808.798	217.43
808.977	121.17
809.156	153.94
809.336	192.85
809.515	166.23
809.694	123.22
809.873	151.89
810.052	166.23
810.231	235.86
810.411	201.04
810.59	160.08
810.769	123.22
810.948	117.08
811.127	119.12
811.306	151.89
811.485	194.9
811.664	168.27
811.843	160.08
812.022	176.47
812.201	225.62
812.38	90.45
812.559	72.02
812.737	121.17
812.916	110.93
813.095	74.07
813.274	147.8
813.453	188.75
813.632	127.32
813.811	125.27
813.989	121.17
814.168	127.32
814.347	127.32
814.526	117.08
814.704	160.08
814.883	84.31
815.062	162.13
815.24	207.19
815.419	112.98
815.598	98.64
815.776	72.02
815.955	158.03
816.133	139.6
816.312	162.13
816.49	180.56
816.669	110.93
816.847	110.93
817.026	143.7
817.204	82.26
817.383	92.5
817.561	166.23
817.74	121.17
817.918	102.74
818.097	184.66
818.275	125.27
818.453	186.71
818.632	47.44
818.81	131.41
818.988	188.75
819.167	29.01
819.345	164.18
819.523	90.45
819.701	137.56
819.879	80.21
820.058	108.88
820.236	96.6
820.414	127.32
820.592	149.84
820.77	104.79
820.948	74.07
821.127	57.68
821.305	147.8
821.483	121.17
821.661	164.18
821.839	84.31
822.017	82.26
822.195	141.65
822.373	135.51
822.551	125.27
822.729	104.79
822.907	88.4
823.085	92.5
823.262	119.12
823.44	172.37
823.618	158.03
823.796	98.64
823.974	26.96
824.152	39.25
824.329	147.8
824.507	98.64
824.685	57.68
824.863	106.84
825.04	112.98
825.218	84.31
825.396	76.12
825.574	63.83
825.751	94.55
825.929	110.93
826.107	94.55
826.284	104.79
826.462	78.16
826.639	45.4
826.817	131.41
826.994	67.92
827.172	74.07
827.349	135.51
827.527	102.74
827.704	139.6
827.882	-20.14
828.059	119.12
828.237	41.3
828.414	96.6
828.591	-20.14
828.769	59.73
828.946	78.16
829.124	129.36
829.301	14.68
829.478	123.22
829.655	51.54
829.833	149.84
830.01	31.06
830.187	100.69
830.364	108.88
830.542	82.26
830.719	88.4
830.896	86.36
831.073	104.79
831.25	80.21
831.427	47.44
831.604	131.41
831.782	49.49
831.959	16.73
832.136	100.69
832.313	127.32
832.49	125.27
832.667	96.6
832.844	16.73
833.021	0.34
833.198	59.73
833.374	6.49
833.551	88.4
833.728	43.35
833.905	63.83
834.082	53.59
834.259	24.92
834.436	37.2
834.612	72.02
834.789	41.3
834.966	96.6
835.143	45.4
835.319	65.88
835.496	67.92
835.673	153.94
835.85	115.03
836.026	63.83
836.203	133.46
836.38	76.12
836.556	76.12
836.733	37.2
836.909	41.3
837.086	12.63
837.262	0.34
837.439	47.44
837.616	47.44
837.792	59.73
837.968	82.26
838.145	4.44
838.321	26.96
838.498	86.36
838.674	98.64
838.851	151.89
839.027	67.92
839.203	121.17
839.38	51.54
839.556	123.22
839.732	57.68
839.909	51.54
840.085	82.26
840.261	88.4
840.437	119.12
840.614	55.64
840.79	86.36
840.966	49.49
841.142	39.25
841.318	-26.28
841.494	49.49
841.671	47.44
841.847	45.4
842.023	45.4
842.199	104.79
842.375	59.73
842.551	35.16
842.727	72.02
842.903	61.78
843.079	8.53
843.255	96.6
843.431	33.11
843.607	61.78
843.783	16.73
843.959	133.46
844.134	47.44
844.31	88.4
844.486	65.88
844.662	51.54
844.838	84.31
845.013	102.74
845.189	65.88
845.365	102.74
845.541	102.74
845.716	59.73
845.892	31.06
846.068	49.49
846.244	16.73
846.419	86.36
846.595	-9.9
846.77	84.31
846.946	18.77
847.122	45.4
847.297	47.44
847.473	82.26
847.648	12.63
847.824	-26.28
847.999	-79.53
848.175	37.2
848.35	61.78
848.526	47.44
848.701	-3.75
848.876	80.21
849.052	6.49
849.227	100.69
849.403	-5.8
849.578	14.68
849.753	33.11
849.929	14.68
850.104	-16.04
850.279	86.36
850.454	45.4
850.63	57.68
850.805	22.87
850.98	37.2
851.155	57.68
851.33	141.65
851.505	14.68
851.681	98.64
851.856	0.34
852.031	88.4
852.206	49.49
852.381	37.2
852.556	-42.67
852.731	61.78
852.906	31.06
853.081	37.2
853.256	94.55
853.431	2.39
853.606	22.87
853.781	74.07
853.956	67.92
854.131	-32.43
854.305	65.88
854.48	26.96
854.655	-48.81
854.83	-13.99
855.005	45.4
855.18	-1.71
855.354	-30.38
855.529	22.87
855.704	22.87
855.879	72.02
856.053	51.54
856.228	72.02
856.403	-28.33
856.577	-7.85
856.752	8.53
856.926	41.3
857.101	53.59
857.276	2.39
857.45	57.68
857.625	26.96
857.799	-59.05
857.974	55.64
858.148	14.68
858.323	12.63
858.497	10.58
858.672	-48.81
858.846	22.87
859.02	18.77
859.195	-28.33
859.369	8.53
859.543	12.63
859.718	4.44
859.892	18.77
860.066	104.79
860.241	41.3
860.415	-32.43
860.589	24.92
860.763	2.39
860.938	16.73
861.112	110.93
861.286	8.53
861.46	-3.75
861.634	10.58
861.808	-26.28
861.982	-5.8
862.157	6.49
862.331	-48.81
862.505	47.44
862.679	-20.14
862.853	69.97
863.027	-9.9
863.201	2.39
863.375	-7.85
863.549	43.35
863.722	63.83
863.896	29.01
864.07	45.4
864.244	20.82
864.418	76.12
864.592	26.96
864.766	4.44
864.939	74.07
865.113	-34.47
865.287	94.55
865.461	14.68
865.634	90.45
865.808	-18.09
865.982	12.63
866.156	63.83
866.329	-46.76
866.503	20.82
866.676	37.2
866.85	-24.23
867.024	-46.76
867.197	-16.04
867.371	39.25
867.544	-5.8
867.718	-24.23
867.891	31.06
868.065	4.44
868.238	-46.76
868.412	104.79
868.585	33.11
868.759	29.01
868.932	-40.62
869.105	49.49
869.279	41.3
869.452	16.73
869.625	63.83
869.799	53.59
869.972	-40.62
870.145	74.07
870.319	31.06
870.492	33.11
870.665	-50.86
870.838	12.63
871.011	-9.9
871.185	61.78
871.358	2.39
871.531	18.77
871.704	20.82
871.877	96.6
872.05	22.87
872.223	4.44
872.396	6.49
872.569	-24.23
872.742	12.63
872.915	-13.99
873.088	14.68
873.261	43.35
873.434	0.34
873.607	65.88
873.78	65.88
873.953	-32.43
874.126	35.16
874.299	65.88
874.471	78.16
874.644	-54.95
874.817	33.11
874.99	78.16
875.163	-9.9
875.335	61.78
875.508	-3.75
875.681	55.64
875.853	-48.81
876.026	16.73
876.199	45.4
876.371	-9.9
876.544	45.4
876.717	8.53
876.889	29.01
877.062	61.78
877.234	-24.23
877.407	20.82
877.579	-42.67
877.752	35.16
877.924	0.34
878.097	35.16
878.269	10.58
878.442	-42.67
878.614	8.53
878.786	59.73
878.959	-1.71
879.131	47.44
879.303	-40.62
879.476	74.07
879.648	53.59
879.82	24.92
879.993	14.68
880.165	10.58
880.337	-11.95
880.509	127.32
880.681	33.11
880.854	29.01
881.026	-30.38
881.198	-28.33
881.37	8.53
881.542	-16.04
881.714	-40.62
881.886	-7.85
882.058	26.96
882.23	45.4
882.402	22.87
882.574	4.44
882.746	49.49
882.918	18.77
883.09	-22.19
883.262	-36.52
883.434	-16.04
883.606	-40.62
883.778	2.39
883.95	45.4
884.122	72.02
884.293	100.69
884.465	22.87
884.637	-13.99
884.809	37.2
884.98	-28.33
885.152	22.87
885.324	47.44
885.496	-11.95
885.667	-54.95
885.839	-16.04
886.011	45.4
886.182	14.68
886.354	37.2
886.525	-71.34
886.697	20.82
886.869	86.36
887.04	-20.14
887.212	-1.71
887.383	37.2
887.555	29.01
887.726	29.01
887.897	10.58
888.069	8.53
888.24	-3.75
888.412	47.44
888.583	-11.95
888.754	35.16
888.926	37.2
889.097	53.59
889.268	16.73
889.44	18.77
889.611	49.49
889.782	41.3
889.953	20.82
890.125	31.06
890.296	4.44
890.467	8.53
890.638	-20.14
890.809	4.44
890.98	-34.47
891.151	-38.57
891.323	8.53
891.494	10.58
891.665	20.82
891.836	41.3
892.007	-36.52
892.178	31.06
892.349	-67.24
892.52	4.44
892.691	-11.95
892.862	-30.38
893.032	-30.38
893.203	-46.76
893.374	2.39
893.545	49.49
893.716	10.58
893.887	14.68
894.057	-28.33
894.228	-3.75
894.399	-26.28
894.57	20.82
894.74	29.01
894.911	86.36
895.082	69.97
895.253	61.78
895.423	24.92
895.594	90.45
895.764	-32.43
895.935	57.68
896.106	-46.76
896.276	16.73
896.447	0.34
896.617	14.68
896.788	57.68
896.958	-50.86
897.129	-34.47
897.299	-30.38
897.47	53.59
897.64	10.58
897.81	-5.8
897.981	-1.71
898.151	-81.58
898.322	26.96
898.492	98.64
898.662	31.06
898.832	8.53
899.003	-9.9
899.173	31.06
899.343	41.3
899.513	-26.28
