Data from USB4F104151__77__12-02-10-553.txt Node

Date: Fri Mar 14 12:02:10 EDT 2025
User: louis
Spectrometer: USB4F10415
Trigger mode: 4
Integration Time (sec): 2.000000E-2
Scans to average: 1
Electric dark correction enabled: true
Nonlinearity correction enabled: false
Boxcar width: 0
XAxis mode: Wavelengths
Number of Pixels in Spectrum: 3648
>>>>>Begin Spectral Data<<<<<
178.204	-73.39
178.424	-73.39
178.644	-73.39
178.864	-63.15
179.084	-83.63
179.304	-5.8
179.524	47.44
179.744	-7.85
179.964	47.44
180.184	-7.85
180.404	-3.75
180.624	-24.23
180.844	-28.33
181.064	-42.67
181.283	31.06
181.503	-36.52
181.723	31.06
181.943	2.39
182.163	47.44
182.383	26.96
182.602	43.35
182.822	51.54
183.042	12.63
183.262	29.01
183.482	-16.04
183.701	14.68
183.921	35.16
184.141	8.53
184.361	16.73
184.58	31.06
184.8	47.44
185.02	-38.57
185.239	37.2
185.459	41.3
185.679	80.21
185.898	-9.9
186.118	24.92
186.338	86.36
186.557	74.07
186.777	-24.23
186.997	53.59
187.216	53.59
187.436	82.26
187.655	69.97
187.875	12.63
188.095	-108.2
188.314	39.25
188.534	53.59
188.753	-1.71
188.973	31.06
189.192	82.26
189.412	2.39
189.631	10.58
189.851	24.92
190.07	-9.9
190.29	-61.1
190.509	35.16
190.729	16.73
190.948	72.02
191.168	86.36
191.387	31.06
191.607	43.35
191.826	6.49
192.045	2.39
192.265	-5.8
192.484	94.55
192.704	69.97
192.923	26.96
193.142	80.21
193.362	24.92
193.581	82.26
193.8	10.58
194.02	18.77
194.239	65.88
194.458	4.44
194.678	12.63
194.897	22.87
195.116	10.58
195.335	33.11
195.555	69.97
195.774	16.73
195.993	22.87
196.212	18.77
196.432	-26.28
196.651	57.68
196.87	96.6
197.089	117.08
197.308	74.07
197.528	61.78
197.747	20.82
197.966	49.49
198.185	76.12
198.404	-7.85
198.623	-44.71
198.842	61.78
199.062	69.97
199.281	57.68
199.5	22.87
199.719	96.6
199.938	-11.95
200.157	96.6
200.376	-3.75
200.595	49.49
200.814	78.16
201.033	4.44
201.252	74.07
201.471	16.73
201.69	18.77
201.909	10.58
202.128	8.53
202.347	69.97
202.566	-1.71
202.785	-3.75
203.004	-24.23
203.223	110.93
203.442	10.58
203.661	31.06
203.879	16.73
204.098	24.92
204.317	33.11
204.536	86.36
204.755	57.68
204.974	74.07
205.193	39.25
205.411	43.35
205.63	37.2
205.849	139.6
206.068	-36.52
206.287	41.3
206.505	131.41
206.724	33.11
206.943	-16.04
207.162	31.06
207.381	72.02
207.599	31.06
207.818	65.88
208.037	88.4
208.255	12.63
208.474	4.44
208.693	57.68
208.911	24.92
209.13	78.16
209.349	88.4
209.567	37.2
209.786	22.87
210.005	74.07
210.223	-20.14
210.442	4.44
210.661	51.54
210.879	63.83
211.098	63.83
211.316	14.68
211.535	100.69
211.753	61.78
211.972	41.3
212.191	12.63
212.409	16.73
212.628	39.25
212.846	16.73
213.065	10.58
213.283	33.11
213.502	-36.52
213.72	49.49
213.938	47.44
214.157	24.92
214.375	74.07
214.594	16.73
214.812	78.16
215.031	4.44
215.249	-20.14
215.467	69.97
215.686	49.49
215.904	22.87
216.122	74.07
216.341	117.08
216.559	31.06
216.778	65.88
216.996	-3.75
217.214	47.44
217.432	33.11
217.651	2.39
217.869	31.06
218.087	41.3
218.306	49.49
218.524	131.41
218.742	31.06
218.96	82.26
219.179	53.59
219.397	0.34
219.615	24.92
219.833	22.87
220.051	-36.52
220.27	53.59
220.488	33.11
220.706	24.92
220.924	33.11
221.142	41.3
221.36	57.68
221.578	2.39
221.796	45.4
222.015	80.21
222.233	41.3
222.451	8.53
222.669	61.78
222.887	67.92
223.105	6.49
223.323	2.39
223.541	-18.09
223.759	53.59
223.977	18.77
224.195	63.83
224.413	8.53
224.631	72.02
224.849	10.58
225.067	84.31
225.285	-13.99
225.503	24.92
225.721	-7.85
225.939	37.2
226.157	98.64
226.375	88.4
226.592	-1.71
226.81	14.68
227.028	69.97
227.246	61.78
227.464	8.53
227.682	-13.99
227.9	12.63
228.117	4.44
228.335	4.44
228.553	84.31
228.771	47.44
228.989	92.5
229.206	45.4
229.424	65.88
229.642	29.01
229.86	104.79
230.077	59.73
230.295	61.78
230.513	41.3
230.731	-30.38
230.948	61.78
231.166	53.59
231.384	55.64
231.601	82.26
231.819	57.68
232.037	-40.62
232.254	-32.43
232.472	102.74
232.689	33.11
232.907	33.11
233.125	-16.04
233.342	39.25
233.56	14.68
233.777	16.73
233.995	41.3
234.213	78.16
234.43	-13.99
234.648	65.88
234.865	10.58
235.083	14.68
235.3	49.49
235.518	33.11
235.735	31.06
235.953	90.45
236.17	-42.67
236.388	59.73
236.605	26.96
236.822	37.2
237.04	43.35
237.257	47.44
237.475	-9.9
237.692	74.07
237.909	49.49
238.127	4.44
238.344	67.92
238.562	53.59
238.779	53.59
238.996	31.06
239.214	121.17
239.431	37.2
239.648	92.5
239.865	41.3
240.083	18.77
240.3	45.4
240.517	14.68
240.735	47.44
240.952	-13.99
241.169	37.2
241.386	20.82
241.603	67.92
241.821	49.49
242.038	35.16
242.255	35.16
242.472	55.64
242.689	-7.85
242.907	8.53
243.124	10.58
243.341	26.96
243.558	53.59
243.775	59.73
243.992	-1.71
244.209	51.54
244.426	86.36
244.643	61.78
244.86	35.16
245.078	22.87
245.295	41.3
245.512	47.44
245.729	10.58
245.946	33.11
246.163	-5.8
246.38	0.34
246.597	6.49
246.814	-11.95
247.031	4.44
247.248	74.07
247.464	76.12
247.681	69.97
247.898	41.3
248.115	57.68
248.332	59.73
248.549	63.83
248.766	125.27
248.983	24.92
249.2	108.88
249.417	6.49
249.633	47.44
249.85	57.68
250.067	-7.85
250.284	8.53
250.501	-3.75
250.717	65.88
250.934	-26.28
251.151	115.03
251.368	22.87
251.585	20.82
251.801	18.77
252.018	-16.04
252.235	-50.86
252.451	24.92
252.668	-18.09
252.885	57.68
253.102	51.54
253.318	0.34
253.535	98.64
253.752	88.4
253.968	43.35
254.185	26.96
254.401	18.77
254.618	39.25
254.835	39.25
255.051	41.3
255.268	33.11
255.484	39.25
255.701	53.59
255.917	69.97
256.134	39.25
256.351	31.06
256.567	16.73
256.784	8.53
257	24.92
257.217	41.3
257.433	-24.23
257.65	69.97
257.866	-32.43
258.082	41.3
258.299	86.36
258.515	22.87
258.732	41.3
258.948	18.77
259.165	26.96
259.381	24.92
259.597	135.51
259.814	41.3
260.03	-5.8
260.246	82.26
260.463	45.4
260.679	45.4
260.895	-9.9
261.112	49.49
261.328	39.25
261.544	26.96
261.761	55.64
261.977	51.54
262.193	-44.71
262.409	31.06
262.626	74.07
262.842	67.92
263.058	12.63
263.274	41.3
263.49	35.16
263.707	90.45
263.923	47.44
264.139	-7.85
264.355	49.49
264.571	96.6
264.787	31.06
265.004	102.74
265.22	29.01
265.436	63.83
265.652	26.96
265.868	74.07
266.084	6.49
266.3	88.4
266.516	10.58
266.732	41.3
266.948	20.82
267.164	65.88
267.38	18.77
267.596	29.01
267.812	94.55
268.028	49.49
268.244	33.11
268.46	72.02
268.676	49.49
268.892	69.97
269.108	59.73
269.324	12.63
269.54	37.2
269.756	35.16
269.972	16.73
270.188	20.82
270.403	61.78
270.619	-3.75
270.835	65.88
271.051	47.44
271.267	55.64
271.483	14.68
271.698	45.4
271.914	33.11
272.13	-67.24
272.346	90.45
272.562	2.39
272.777	8.53
272.993	12.63
273.209	69.97
273.425	86.36
273.64	18.77
273.856	127.32
274.072	47.44
274.287	14.68
274.503	51.54
274.719	24.92
274.934	65.88
275.15	59.73
275.366	20.82
275.581	22.87
275.797	78.16
276.012	-18.09
276.228	29.01
276.444	51.54
276.659	4.44
276.875	12.63
277.09	65.88
277.306	45.4
277.521	45.4
277.737	22.87
277.952	-16.04
278.168	35.16
278.383	53.59
278.599	16.73
278.814	20.82
279.03	49.49
279.245	88.4
279.461	18.77
279.676	12.63
279.892	14.68
280.107	-1.71
280.322	39.25
280.538	104.79
280.753	-28.33
280.969	26.96
281.184	-13.99
281.399	45.4
281.615	20.82
281.83	-22.19
282.045	59.73
282.26	24.92
282.476	78.16
282.691	-16.04
282.906	74.07
283.122	61.78
283.337	-32.43
283.552	20.82
283.767	65.88
283.983	84.31
284.198	78.16
284.413	61.78
284.628	24.92
284.843	80.21
285.058	-22.19
285.274	14.68
285.489	53.59
285.704	102.74
285.919	29.01
286.134	69.97
286.349	20.82
286.564	31.06
286.779	-22.19
286.995	55.64
287.21	-30.38
287.425	84.31
287.64	39.25
287.855	67.92
288.07	33.11
288.285	41.3
288.5	61.78
288.715	57.68
288.93	2.39
289.145	94.55
289.36	12.63
289.575	-1.71
289.79	53.59
290.004	47.44
290.219	43.35
290.434	14.68
290.649	53.59
290.864	72.02
291.079	4.44
291.294	76.12
291.509	8.53
291.724	-20.14
291.938	35.16
292.153	102.74
292.368	2.39
292.583	84.31
292.798	22.87
293.012	26.96
293.227	-50.86
293.442	33.11
293.657	112.98
293.871	47.44
294.086	-7.85
294.301	135.51
294.516	65.88
294.73	-18.09
294.945	43.35
295.16	16.73
295.374	72.02
295.589	88.4
295.804	14.68
296.018	-5.8
296.233	76.12
296.447	51.54
296.662	10.58
296.877	104.79
297.091	72.02
297.306	33.11
297.52	-26.28
297.735	24.92
297.949	20.82
298.164	115.03
298.378	59.73
298.593	78.16
298.807	74.07
299.022	29.01
299.236	100.69
299.451	41.3
299.665	29.01
299.88	29.01
300.094	-3.75
300.309	100.69
300.523	78.16
300.737	0.34
300.952	63.83
301.166	47.44
301.381	-28.33
301.595	8.53
301.809	-7.85
302.024	16.73
302.238	76.12
302.452	78.16
302.667	55.64
302.881	119.12
303.095	43.35
303.309	100.69
303.524	61.78
303.738	-38.57
303.952	78.16
304.166	57.68
304.381	-32.43
304.595	47.44
304.809	33.11
305.023	57.68
305.237	43.35
305.452	26.96
305.666	-24.23
305.88	90.45
306.094	35.16
306.308	84.31
306.522	74.07
306.736	59.73
306.95	-28.33
307.164	84.31
307.379	22.87
307.593	92.5
307.807	31.06
308.021	78.16
308.235	57.68
308.449	-32.43
308.663	6.49
308.877	90.45
309.091	82.26
309.305	108.88
309.519	-18.09
309.733	112.98
309.947	24.92
310.161	55.64
310.374	4.44
310.588	55.64
310.802	31.06
311.016	61.78
311.23	35.16
311.444	16.73
311.658	-57
311.872	76.12
312.085	100.69
312.299	74.07
312.513	43.35
312.727	72.02
312.941	16.73
313.154	16.73
313.368	22.87
313.582	53.59
313.796	22.87
314.009	61.78
314.223	12.63
314.437	35.16
314.651	74.07
314.864	117.08
315.078	51.54
315.292	22.87
315.505	59.73
315.719	18.77
315.933	59.73
316.146	88.4
316.36	94.55
316.573	121.17
316.787	82.26
317.001	119.12
317.214	6.49
317.428	26.96
317.641	65.88
317.855	115.03
318.068	127.32
318.282	45.4
318.495	67.92
318.709	45.4
318.922	-3.75
319.136	20.82
319.349	33.11
319.563	106.84
319.776	84.31
319.99	74.07
320.203	35.16
320.417	31.06
320.63	125.27
320.843	102.74
321.057	16.73
321.27	115.03
321.483	78.16
321.697	47.44
321.91	8.53
322.124	29.01
322.337	49.49
322.55	8.53
322.763	33.11
322.977	8.53
323.19	16.73
323.403	26.96
323.617	29.01
323.83	26.96
324.043	45.4
324.256	92.5
324.469	-26.28
324.683	57.68
324.896	-9.9
325.109	6.49
325.322	45.4
325.535	90.45
325.748	4.44
325.962	37.2
326.175	2.39
326.388	4.44
326.601	10.58
326.814	26.96
327.027	45.4
327.24	98.64
327.453	22.87
327.666	53.59
327.879	57.68
328.092	96.6
328.305	45.4
328.518	47.44
328.731	8.53
328.944	35.16
329.157	24.92
329.37	-5.8
329.583	92.5
329.796	84.31
330.009	12.63
330.222	18.77
330.435	57.68
330.648	76.12
330.861	-26.28
331.073	0.34
331.286	72.02
331.499	96.6
331.712	90.45
331.925	65.88
332.138	18.77
332.35	20.82
332.563	96.6
332.776	90.45
332.989	67.92
333.202	135.51
333.414	67.92
333.627	49.49
333.84	78.16
334.053	63.83
334.265	72.02
334.478	8.53
334.691	2.39
334.903	149.84
335.116	94.55
335.329	29.01
335.541	86.36
335.754	139.6
335.966	41.3
336.179	-3.75
336.392	0.34
336.604	37.2
336.817	47.44
337.029	106.84
337.242	88.4
337.454	69.97
337.667	-7.85
337.88	100.69
338.092	41.3
338.305	-24.23
338.517	-24.23
338.729	57.68
338.942	37.2
339.154	31.06
339.367	37.2
339.579	39.25
339.792	86.36
340.004	12.63
340.217	72.02
340.429	80.21
340.641	31.06
340.854	106.84
341.066	35.16
341.278	82.26
341.491	104.79
341.703	-3.75
341.915	-9.9
342.128	4.44
342.34	22.87
342.552	16.73
342.764	47.44
342.977	8.53
343.189	67.92
343.401	94.55
343.613	24.92
343.826	12.63
344.038	100.69
344.25	61.78
344.462	4.44
344.674	74.07
344.886	67.92
345.099	41.3
345.311	98.64
345.523	72.02
345.735	49.49
345.947	100.69
346.159	41.3
346.371	8.53
346.583	88.4
346.795	125.27
347.007	6.49
347.219	137.56
347.431	39.25
347.643	149.84
347.855	33.11
348.067	20.82
348.279	61.78
348.491	22.87
348.703	80.21
348.915	82.26
349.127	100.69
349.339	67.92
349.551	37.2
349.763	37.2
349.975	102.74
350.187	51.54
350.399	88.4
350.61	67.92
350.822	43.35
351.034	63.83
351.246	88.4
351.458	59.73
351.669	-11.95
351.881	47.44
352.093	57.68
352.305	59.73
352.517	6.49
352.728	43.35
352.94	78.16
353.152	24.92
353.363	-1.71
353.575	100.69
353.787	57.68
353.999	84.31
354.21	47.44
354.422	80.21
354.633	76.12
354.845	-7.85
355.057	10.58
355.268	94.55
355.48	51.54
355.692	65.88
355.903	80.21
356.115	20.82
356.326	82.26
356.538	55.64
356.749	76.12
356.961	104.79
357.172	12.63
357.384	47.44
357.595	112.98
357.807	86.36
358.018	-22.19
358.23	57.68
358.441	98.64
358.653	88.4
358.864	88.4
359.075	2.39
359.287	59.73
359.498	59.73
359.709	-24.23
359.921	57.68
360.132	84.31
360.344	51.54
360.555	82.26
360.766	80.21
360.977	12.63
361.189	72.02
361.4	53.59
361.611	65.88
361.823	49.49
362.034	133.46
362.245	65.88
362.456	22.87
362.667	88.4
362.879	55.64
363.09	110.93
363.301	131.41
363.512	65.88
363.723	59.73
363.935	78.16
364.146	26.96
364.357	119.12
364.568	112.98
364.779	31.06
364.99	74.07
365.201	67.92
365.412	39.25
365.623	20.82
365.834	57.68
366.045	106.84
366.256	190.8
366.467	43.35
366.678	92.5
366.889	49.49
367.1	33.11
367.311	65.88
367.522	80.21
367.733	69.97
367.944	119.12
368.155	123.22
368.366	110.93
368.577	65.88
368.788	6.49
368.999	29.01
369.209	72.02
369.42	96.6
369.631	121.17
369.842	49.49
370.053	61.78
370.264	26.96
370.474	12.63
370.685	55.64
370.896	76.12
371.107	63.83
371.317	49.49
371.528	57.68
371.739	78.16
371.95	16.73
372.16	65.88
372.371	29.01
372.582	88.4
372.792	76.12
373.003	108.88
373.214	84.31
373.424	63.83
373.635	53.59
373.846	39.25
374.056	82.26
374.267	110.93
374.477	90.45
374.688	20.82
374.898	100.69
375.109	133.46
375.319	51.54
375.53	94.55
375.74	63.83
375.951	33.11
376.161	78.16
376.372	57.68
376.582	29.01
376.793	72.02
377.003	135.51
377.214	88.4
377.424	-18.09
377.635	129.36
377.845	86.36
378.055	84.31
378.266	49.49
378.476	35.16
378.686	31.06
378.897	39.25
379.107	65.88
379.317	24.92
379.528	94.55
379.738	92.5
379.948	-11.95
380.158	123.22
380.369	37.2
380.579	98.64
380.789	65.88
380.999	86.36
381.21	47.44
381.42	90.45
381.63	4.44
381.84	104.79
382.05	86.36
382.261	65.88
382.471	112.98
382.681	121.17
382.891	86.36
383.101	145.75
383.311	100.69
383.521	133.46
383.731	65.88
383.941	164.18
384.151	55.64
384.361	80.21
384.571	53.59
384.781	139.6
384.991	57.68
385.201	94.55
385.411	59.73
385.621	184.66
385.831	74.07
386.041	78.16
386.251	16.73
386.461	63.83
386.671	43.35
386.881	153.94
387.091	43.35
387.301	106.84
387.511	90.45
387.72	76.12
387.93	102.74
388.14	76.12
388.35	108.88
388.56	96.6
388.769	100.69
388.979	106.84
389.189	24.92
389.399	78.16
389.609	106.84
389.818	82.26
390.028	65.88
390.238	110.93
390.447	84.31
390.657	123.22
390.867	22.87
391.076	61.78
391.286	39.25
391.496	98.64
391.705	84.31
391.915	43.35
392.125	125.27
392.334	82.26
392.544	125.27
392.753	86.36
392.963	86.36
393.172	90.45
393.382	84.31
393.591	108.88
393.801	49.49
394.01	164.18
394.22	90.45
394.429	108.88
394.639	90.45
394.848	94.55
395.058	155.99
395.267	143.7
395.477	112.98
395.686	100.69
395.895	211.28
396.105	164.18
396.314	112.98
396.524	43.35
396.733	84.31
396.942	143.7
397.152	102.74
397.361	104.79
397.57	147.8
397.78	131.41
397.989	133.46
398.198	215.38
398.407	90.45
398.617	67.92
398.826	129.36
399.035	102.74
399.244	147.8
399.453	131.41
399.663	168.27
399.872	196.95
400.081	115.03
400.29	123.22
400.499	102.74
400.708	182.61
400.917	74.07
401.127	131.41
401.336	215.38
401.545	72.02
401.754	172.37
401.963	131.41
402.172	117.08
402.381	123.22
402.59	129.36
402.799	133.46
403.008	166.23
403.217	164.18
403.426	168.27
403.635	139.6
403.844	115.03
404.053	196.95
404.262	106.84
404.471	250.19
404.68	211.28
404.888	217.43
405.097	141.65
405.306	151.89
405.515	160.08
405.724	205.14
405.933	190.8
406.142	231.76
406.35	266.58
406.559	237.91
406.768	233.81
406.977	264.53
407.185	276.82
407.394	237.91
407.603	237.91
407.812	297.3
408.02	264.53
408.229	321.87
408.438	280.91
408.646	360.78
408.855	315.73
409.064	387.41
409.272	276.82
409.481	377.17
409.69	313.68
409.898	414.03
410.107	385.36
410.315	416.08
410.524	315.73
410.733	473.42
410.941	414.03
411.15	471.37
411.358	473.42
411.567	512.33
411.775	514.38
411.984	555.34
412.192	489.81
412.401	565.58
412.609	629.07
412.818	647.5
413.026	588.11
413.234	553.29
413.443	592.2
413.651	704.84
413.86	655.69
414.068	678.22
414.276	717.13
414.485	864.58
414.693	774.47
414.901	833.86
415.11	909.64
415.318	960.84
415.526	870.73
415.734	956.74
415.943	917.83
416.151	1089.86
416.359	1016.13
416.567	1118.53
416.776	1241.41
416.984	1190.21
417.192	1229.12
417.4	1298.75
417.608	1198.4
417.817	1327.43
418.025	1405.25
418.233	1462.59
418.441	1442.11
418.649	1442.11
418.857	1618.24
419.065	1669.44
419.273	1575.23
419.481	1747.26
419.689	1884.47
419.897	1800.51
420.105	1843.51
420.313	1956.15
420.521	1958.2
420.729	2083.13
420.937	2107.7
421.145	2214.2
421.353	2232.63
421.561	2316.59
421.769	2523.44
421.977	2513.2
422.185	2515.25
422.393	2750.76
422.601	2830.63
422.809	2840.87
423.017	2746.67
423.224	3000.62
423.432	3213.6
423.64	2984.23
423.848	3340.58
424.056	3342.63
424.263	3655.97
424.471	3469.6
424.679	3639.58
424.887	3891.48
425.094	4061.46
425.302	4030.74
425.51	4083.99
425.718	4180.25
425.925	4352.27
426.133	4456.72
426.341	4638.99
426.548	4815.12
426.756	4878.6
426.964	4940.04
427.171	5331.2
427.379	5476.61
427.586	5458.18
427.794	5824.76
428.001	5832.96
428.209	6125.82
428.417	6082.81
428.624	6371.57
428.832	6562.03
429.039	6471.92
429.247	6424.82
429.454	7014.63
429.662	7467.24
429.869	6963.44
430.076	7579.87
430.284	7346.41
430.491	7848.16
430.699	8077.53
430.906	8104.15
431.114	8333.53
431.321	8562.9
431.528	8888.53
431.736	9287.88
431.943	9877.69
432.15	9402.57
432.358	9429.19
432.565	10311.86
432.772	10082.49
432.979	10576.05
433.187	10703.03
433.394	10920.11
433.601	11407.53
433.808	11339.94
434.016	11690.15
434.223	12122.27
434.43	12662.93
434.637	12544.15
434.844	13484.17
435.052	13611.14
435.259	13424.78
435.466	13559.94
435.673	13471.88
435.88	14250.11
436.087	15087.73
436.294	15054.96
436.501	14839.92
436.708	15175.79
436.915	15425.64
437.122	16377.95
437.329	16167.01
437.537	16791.64
437.743	16865.36
437.95	16898.13
438.157	17930.31
438.364	18251.84
438.571	18278.46
438.778	18323.52
438.985	20408.35
439.192	19091.51
439.399	19976.23
439.606	19781.67
439.813	20627.48
440.02	21774.35
440.227	21710.86
440.433	21106.71
440.64	21858.31
440.847	21862.41
441.054	22312.96
441.261	23990.25
441.467	23605.23
441.674	24111.08
441.881	25210.84
442.088	25010.14
442.294	24596.45
442.501	25470.93
442.708	25845.71
442.914	26970.04
443.121	27938.73
443.328	27457.46
443.534	29065.11
443.741	28215.21
443.948	27938.73
444.154	29927.31
444.361	30001.04
444.568	29935.5
444.774	29970.32
444.981	30529.41
445.187	31217.53
445.394	32431.97
445.6	32130.92
445.807	35362.62
446.013	33810.26
446.22	34447.18
446.426	35757.88
446.633	36009.78
446.839	37312.28
447.046	35546.93
447.252	37791.51
447.459	37676.82
447.665	37560.09
447.871	39452.41
448.078	40683.24
448.284	38717.19
448.491	39862.01
448.697	41576.15
448.903	42204.88
449.11	42151.63
449.316	41674.46
449.522	42755.78
449.728	43570.88
449.935	43759.29
450.141	43775.67
450.347	44852.9
450.553	43204.29
450.76	43943.61
450.966	45235.88
451.172	44902.06
451.378	45768.35
451.584	44836.52
451.791	45948.57
451.997	45717.15
452.203	46864.01
452.409	46470.8
452.615	46286.48
452.821	44299.95
453.027	44349.1
453.233	46579.34
453.44	44576.43
453.646	45041.32
453.852	45434.53
454.058	45952.66
454.264	44680.88
454.47	45526.69
454.676	44338.86
454.882	46108.31
455.088	41869.01
455.294	42630.86
455.5	43259.59
455.705	43484.86
455.911	41789.14
456.117	40861.41
456.323	40679.14
456.529	38690.57
456.735	40115.95
456.941	38895.36
457.147	38467.34
457.352	37000.99
457.558	36808.48
457.764	36544.3
457.97	36235.05
458.176	35292.99
458.381	35256.12
458.587	33525.59
458.793	33775.44
458.999	31995.76
459.204	33920.85
459.41	33466.2
459.616	31238.01
459.821	30992.25
460.027	30818.18
460.233	29980.56
460.438	28503.97
460.644	29206.42
460.85	27744.17
461.055	27195.32
461.261	27107.26
461.466	25311.19
461.672	24502.24
461.878	26013.64
462.083	24387.55
462.289	23619.56
462.494	23617.52
462.7	22552.57
462.905	22095.88
463.111	22759.42
463.316	22986.74
463.522	22697.98
463.727	22806.52
463.932	22439.93
464.138	22091.78
464.343	22376.45
464.549	21534.73
464.754	22329.34
464.959	22286.34
465.165	22040.58
465.37	21071.89
465.575	20498.46
465.781	21356.56
465.986	21555.21
466.191	20729.88
466.397	20146.21
466.602	19195.95
466.807	20074.53
467.012	20269.09
467.218	20013.09
467.423	19576.87
467.628	19677.23
467.833	20731.93
468.038	19869.73
468.244	19284.02
468.449	20006.95
468.654	19124.27
468.859	19234.86
469.064	19253.3
469.269	18524.22
469.474	18604.09
469.679	18692.15
469.885	18358.33
470.09	18786.36
470.295	18556.99
470.5	18100.29
470.705	18036.8
470.91	17887.3
471.115	17401.93
471.32	17819.72
471.525	17649.74
471.73	17317.97
471.935	17215.57
472.139	16699.48
472.344	16658.52
472.549	16900.18
472.754	16738.39
472.959	16271.45
473.164	15855.72
473.369	15798.37
473.574	16128.1
473.778	15839.33
473.983	15808.61
474.188	15620.2
474.393	15200.37
474.598	15173.74
474.802	14991.47
475.007	15061.1
475.212	14964.85
475.417	14542.97
475.621	14254.2
475.826	14573.69
476.031	14121.09
476.235	13885.57
476.44	14139.52
476.645	13877.38
476.849	13891.71
477.054	13727.88
477.259	13467.78
477.463	13631.62
477.668	12992.66
477.872	13023.37
478.077	13056.14
478.282	12707.99
478.486	12548.25
478.691	12527.77
478.895	12497.05
479.1	12576.92
479.304	12630.16
479.509	12126.36
479.713	12318.87
479.918	11868.32
480.122	11790.5
480.326	11978.91
480.531	12179.61
480.735	11835.55
480.94	11466.92
481.144	11968.67
481.348	11507.88
481.553	11731.11
481.757	11593.89
481.961	11696.29
482.166	11817.12
482.37	11894.94
482.574	11378.86
482.778	11407.53
482.983	11743.39
483.187	11538.6
483.391	11462.82
483.595	11499.69
483.8	11368.62
484.004	11602.08
484.208	11526.31
484.412	11409.58
484.616	11714.72
484.821	11727.01
485.025	11356.33
485.229	11614.37
485.433	11366.57
485.637	11389.1
485.841	11532.45
486.045	11493.54
486.249	11450.53
486.453	11387.05
486.657	11493.54
486.861	11360.42
487.065	11317.42
487.269	11544.74
487.473	11528.36
487.677	11473.06
487.881	11653.28
488.085	11491.49
488.289	11661.48
488.493	11591.84
488.697	11720.87
488.901	11710.63
489.105	11460.77
489.309	11729.06
489.512	11669.67
489.716	11679.91
489.92	11694.24
490.124	11708.58
490.328	12103.84
490.531	11698.34
490.735	11790.5
490.939	11694.24
491.143	11901.09
491.346	11776.16
491.55	11944.1
491.754	12030.11
491.958	12122.27
492.161	11786.4
492.365	12107.93
492.569	12030.11
492.772	12003.49
492.976	12200.09
493.18	12292.25
493.383	12695.7
493.587	12619.92
493.79	12683.41
493.994	12484.76
494.197	12597.4
494.401	12843.15
494.605	12546.2
494.808	13025.42
495.012	12845.2
495.215	12839.06
495.419	12963.98
495.622	13287.56
495.825	13385.87
496.029	13445.26
496.232	13676.68
496.436	13768.84
496.639	13758.6
496.843	13834.37
497.046	14184.57
497.249	14047.36
497.453	14348.41
497.656	14426.23
497.859	14782.58
498.063	14694.52
498.266	14946.42
498.469	14706.8
498.673	15073.39
498.876	15321.2
499.079	15679.59
499.282	15427.69
499.485	15745.13
499.689	15761.51
499.892	15898.72
500.095	16001.12
500.298	16500.83
500.501	16449.63
500.705	16967.76
500.908	16875.6
501.111	17113.17
501.314	17215.57
501.517	17629.26
501.72	17764.42
501.923	17520.71
502.126	18235.46
502.329	18227.26
502.532	18227.26
502.735	18485.31
502.938	19025.97
503.141	18954.29
503.344	19449.9
503.547	19265.58
503.75	19654.7
503.953	19863.59
504.156	19902.5
504.359	20045.86
504.562	20230.18
504.765	20621.34
504.968	21024.79
505.17	20961.3
505.373	21288.98
505.576	21622.8
505.779	21837.83
505.982	21987.33
506.185	22423.55
506.387	21934.09
506.59	22497.28
506.793	23009.27
506.996	22902.78
507.198	23257.07
507.401	23224.31
507.604	23488.49
507.807	23752.68
508.009	24070.12
508.212	24180.71
508.415	24885.21
508.617	24737.76
508.82	24887.26
509.022	25001.94
509.225	25518.03
509.428	25753.55
509.63	25847.75
509.833	25872.33
510.035	26709.95
510.238	26390.47
510.44	26982.33
510.643	27193.27
510.845	27535.28
511.048	27613.1
511.25	27727.79
511.453	27928.49
511.655	28987.29
511.858	28700.58
512.06	28589.99
512.262	29181.85
512.465	28821.41
512.667	29327.25
512.87	29896.59
513.072	29779.85
513.274	30437.25
513.477	30662.53
513.679	30861.18
513.881	31233.91
514.084	31373.17
514.286	31182.71
514.488	31960.94
514.69	32634.72
514.893	32825.18
515.095	32452.45
515.297	33156.96
515.499	32855.9
515.701	33175.39
515.904	33814.35
516.106	33742.67
516.308	34144.08
516.51	34379.59
516.712	34748.23
516.914	34731.84
517.116	35632.95
517.318	35751.73
517.52	36054.83
517.722	36169.52
517.925	36550.44
518.127	36720.42
518.329	36816.68
518.531	36558.63
518.733	37936.91
518.935	37928.72
519.136	37859.09
519.338	38287.12
519.54	38375.18
519.742	39010.05
519.944	38860.55
520.146	39542.52
520.348	39286.53
520.55	39593.72
520.752	40140.53
520.954	40427.24
521.155	40171.25
521.357	40777.45
521.559	40924.9
521.761	41619.16
521.963	41336.54
522.164	41819.86
522.366	41713.37
522.568	42041.04
522.77	42473.17
522.971	42981.06
523.173	42460.88
523.375	42976.97
523.576	43130.56
523.778	42981.06
523.98	43617.98
524.181	43949.75
524.383	43992.76
524.584	44158.64
524.786	44279.47
524.988	43980.47
525.189	45049.51
525.391	44652.2
525.592	45356.71
525.794	45665.95
525.995	45129.38
526.197	45598.37
526.398	45448.86
526.6	46071.45
526.801	46026.39
527.003	45975.19
527.204	46112.41
527.406	46632.59
527.607	46446.22
527.808	46786.19
528.01	45627.04
528.211	46354.07
528.412	47445.63
528.614	47199.88
528.815	47163.01
529.016	47695.49
529.218	46982.79
529.419	47632
529.62	47349.38
529.822	47218.31
530.023	47623.81
530.224	47502.98
530.425	47337.09
530.626	46970.5
530.828	47314.56
531.029	48316.02
531.23	47548.03
531.431	47292.04
531.632	47959.67
531.833	47556.22
532.035	48012.92
532.236	47890.04
532.437	48158.33
532.638	47488.64
532.839	48070.26
533.04	48275.06
533.241	48176.76
533.442	48023.16
533.643	48393.84
533.844	48117.37
534.045	47873.66
534.246	47595.14
534.447	48199.29
534.648	47859.32
534.849	48260.72
535.05	47718.01
535.251	48086.65
535.451	47756.92
535.652	47705.73
535.853	48156.28
536.054	48078.46
536.255	48230.01
536.456	47636.09
536.657	48705.13
536.857	47824.51
537.058	47894.14
537.259	47879.8
537.46	48373.36
537.66	48143.99
537.861	48010.87
538.062	47507.07
538.263	48107.13
538.463	47881.85
538.664	47797.88
538.865	48041.59
539.065	48025.21
539.266	47513.22
539.466	48432.75
539.667	47224.45
539.868	48520.82
540.068	48111.22
540.269	47912.57
540.469	47994.49
540.67	47844.99
540.87	48025.21
541.071	47724.16
541.271	47967.87
541.472	47855.23
541.672	47251.08
541.873	47439.49
542.073	46896.78
542.274	47945.34
542.474	47699.58
542.675	47033.99
542.875	47810.17
543.075	47711.87
543.276	47251.08
543.476	47775.36
543.676	47484.54
543.877	47224.45
544.077	47722.11
544.277	47697.53
544.478	47191.69
544.678	47660.67
544.878	47023.75
545.078	47666.81
545.279	47095.43
545.479	47199.88
545.679	47818.36
545.879	47289.99
546.079	47593.09
546.28	47052.42
546.48	47025.8
546.68	47285.89
546.88	47261.32
547.08	47550.08
547.28	47310.47
547.48	47003.27
547.68	47380.1
547.88	46786.19
548.081	47398.53
548.281	47101.57
548.481	46968.46
548.681	47660.67
548.881	47003.27
549.081	47388.29
549.28	46476.94
549.48	47124.1
549.68	46890.63
549.88	47423.11
550.08	46423.7
550.28	47158.92
550.48	47197.83
550.68	47046.28
550.88	46878.35
551.08	46952.07
551.279	47101.57
551.479	46683.79
551.679	47097.48
551.879	46962.31
552.079	47074.95
552.278	46655.12
552.478	46745.23
552.678	46595.73
552.878	47158.92
553.077	46954.12
553.277	46182.04
553.477	47128.2
553.676	46263.96
553.876	46702.22
554.076	46597.77
554.275	45885.08
554.475	45807.26
554.674	46433.94
554.874	46253.72
555.074	46466.7
555.273	46663.31
555.473	46517.9
555.672	45899.42
555.872	46573.2
556.071	46659.21
556.271	46339.73
556.47	45864.6
556.67	45344.42
556.869	45940.38
557.068	46349.97
557.268	45723.29
557.467	45905.56
557.667	46147.22
557.866	46063.25
558.065	45690.52
558.265	45467.3
558.464	45463.2
558.663	46128.79
558.863	45459.1
559.062	46380.69
559.261	45278.88
559.461	45973.14
559.66	45291.17
559.859	45594.27
560.058	45299.36
560.258	45663.9
560.457	45115.04
560.656	45473.44
560.855	45299.36
561.054	45407.9
561.253	44957.35
561.453	45301.41
561.652	44996.26
561.851	45242.02
562.05	45274.79
562.249	44533.42
562.448	45110.95
562.647	45276.83
562.846	44697.26
563.045	44865.19
563.244	44297.91
563.443	45033.13
563.642	44484.27
563.841	44543.66
564.04	44402.35
564.239	45039.27
564.438	44562.09
564.637	44340.91
564.836	44545.71
565.035	43988.66
565.234	44242.61
565.432	43902.65
565.631	44215.99
565.83	43949.75
566.029	43531.97
566.228	43908.79
566.427	43509.44
566.625	43237.06
566.824	43288.26
567.023	43751.1
567.222	43228.87
567.42	43790.01
567.619	43359.94
567.818	43484.86
568.016	43108.04
568.215	43325.12
568.414	43247.3
568.612	43247.3
568.811	42686.15
569.01	43284.16
569.208	42557.13
569.407	43212.48
569.605	42290.9
569.804	42616.52
570.002	42434.25
570.201	42512.08
570.4	42192.59
570.598	42159.83
570.797	42071.76
570.995	42125.01
571.193	41770.71
571.392	42489.55
571.59	41791.19
571.789	41582.3
571.987	41899.73
572.186	41791.19
572.384	41375.45
572.582	41852.63
572.781	41770.71
572.979	41492.19
573.177	41287.39
573.376	41217.76
573.574	41189.09
573.772	41629.4
573.971	40939.24
574.169	40556.27
574.367	40926.95
574.565	41074.4
574.763	40457.96
574.962	40457.96
575.16	40232.69
575.358	40255.22
575.556	39884.53
575.754	40806.12
575.952	40052.47
576.151	40296.17
576.349	39831.29
576.547	39546.62
576.745	40031.99
576.943	39780.09
577.141	39483.13
577.339	39927.54
577.537	39472.89
577.735	39376.64
577.933	38784.77
578.131	39524.09
578.329	39169.79
578.527	38946.56
578.725	39102.21
578.923	39161.6
579.121	38766.34
579.319	39102.21
579.516	39323.39
579.714	38688.52
579.912	38397.71
580.11	38426.38
580.308	38606.6
580.506	38293.26
580.704	37879.57
580.901	38369.04
581.099	38354.7
581.297	37910.29
581.495	37893.91
581.692	37992.21
581.89	37510.94
582.088	37801.75
582.285	37488.41
582.483	37875.48
582.681	37517.08
582.878	36984.61
583.076	37066.53
583.274	37338.91
583.471	36704.04
583.669	37166.88
583.866	36656.93
584.064	36677.41
584.262	36171.57
584.459	36921.12
584.657	36888.35
584.854	36736.8
585.052	35792.69
585.249	36501.29
585.447	36239.15
585.644	35936.05
585.841	36345.64
586.039	36063.02
586.236	35858.23
586.434	35692.34
586.631	35256.12
586.828	35350.33
587.026	35675.96
587.223	35454.78
587.42	35063.61
587.618	35299.13
587.815	34885.44
588.012	35219.26
588.21	34707.27
588.407	35180.35
588.604	34477.9
588.801	34443.08
588.999	34678.6
589.196	34539.33
589.393	34719.56
589.59	34271.05
589.787	34049.87
589.984	34226
590.182	33730.39
590.379	34150.22
590.576	33804.11
590.773	33967.95
590.97	33519.45
591.167	33613.65
591.364	33202.01
591.561	33646.42
591.758	33060.7
591.955	33019.74
592.152	33259.35
592.349	32511.85
592.546	33095.52
592.743	32622.44
592.94	32327.53
593.137	32962.4
593.334	32767.84
593.531	32296.81
593.727	32427.88
593.924	32368.49
594.121	32180.07
594.318	32003.95
594.515	31807.34
594.712	32032.62
594.908	32077.68
595.105	31594.36
595.302	31014.78
595.499	31684.47
595.696	31240.06
595.892	31287.16
596.089	31444.85
596.286	31172.47
596.482	30775.17
596.679	30871.42
596.876	31092.6
597.072	30791.55
597.269	30889.85
597.466	30500.74
597.662	30519.17
597.859	30347.14
598.055	30662.53
598.252	30164.87
598.448	30154.63
598.645	30101.39
598.841	29661.07
599.038	30187.4
599.234	30173.06
599.431	29800.33
599.627	29573.01
599.824	29906.83
600.02	29507.48
600.217	29458.32
600.413	29308.82
600.609	29302.68
600.806	29007.77
601.002	29368.21
601.198	28852.13
601.395	28571.55
601.591	28673.95
601.787	28794.78
601.984	28454.82
602.18	28938.14
602.376	28837.79
602.572	28274.6
602.769	28530.59
602.965	27957.16
603.161	28288.93
603.357	27862.96
603.553	27795.37
603.75	28008.36
603.946	27764.65
604.142	27787.18
604.338	27664.3
604.534	27695.02
604.73	27123.64
604.926	27326.39
605.122	27142.07
605.318	27023.29
605.514	27160.5
605.71	27125.69
605.906	27025.34
606.102	26951.61
606.298	27064.25
606.494	26814.4
606.69	27021.24
606.886	27076.54
607.082	26580.93
607.278	26871.74
607.474	26412.99
607.67	26544.06
607.866	26296.26
608.062	26361.8
608.257	26484.67
608.453	26200.01
608.649	26374.08
608.845	26200.01
609.041	26070.98
609.236	26120.13
609.432	26060.74
609.628	25731.02
609.824	25798.6
610.019	25556.94
610.215	25606.09
610.411	25966.54
610.606	25554.9
610.802	25681.87
610.998	25423.83
611.193	25706.45
611.389	25196.5
611.584	25434.07
611.78	25266.13
611.976	25192.4
612.171	25501.65
612.367	25241.56
612.562	25206.74
612.758	25075.67
612.953	24754.14
613.149	25094.1
613.344	25028.57
613.539	25214.93
613.735	25206.74
613.93	24795.1
614.126	24856.54
614.321	25028.57
614.517	24760.28
614.712	24524.77
614.907	24682.46
615.103	24627.17
615.298	24385.51
615.493	24651.74
615.688	24250.34
615.884	24872.92
616.079	23893.99
616.274	24295.39
616.47	24133.61
616.665	23959.53
616.86	23818.22
617.055	24023.01
617.25	24016.87
617.445	24279.01
617.641	23551.98
617.836	23850.99
618.031	23728.11
618.226	23771.11
618.421	23498.73
618.616	23674.86
618.811	23619.56
619.006	23238.64
619.201	23076.85
619.396	23375.86
619.591	22898.68
619.786	23035.89
619.981	22458.37
620.176	22837.24
620.371	22591.48
620.566	22626.3
620.761	22372.35
620.956	22525.95
621.151	22048.77
621.346	22425.6
621.541	22040.58
621.735	22216.71
621.93	21661.71
622.125	21932.04
622.32	21194.77
622.515	21671.95
622.709	21315.6
622.904	21010.45
623.099	21205.01
623.294	21362.7
623.488	21153.81
623.683	21444.62
623.878	20838.42
624.072	20832.28
624.267	20783.13
624.462	20742.17
624.656	20406.3
624.851	20391.97
625.046	20289.57
625.24	20176.93
625.435	19748.9
625.629	19808.3
625.824	19554.35
626.018	19968.04
626.213	19378.22
626.407	19472.43
626.602	19447.85
626.796	19259.44
626.991	19142.71
627.185	19040.31
627.38	19109.94
627.574	18905.14
627.768	18688.06
627.963	18739.26
628.157	18589.75
628.352	18436.16
628.546	18266.17
628.74	18327.61
628.935	18255.93
629.129	18079.81
629.323	17928.26
629.517	17893.44
629.712	17524.81
629.906	17823.81
630.1	17619.02
630.294	17479.75
630.489	17242.19
630.683	17252.43
630.877	17301.58
631.071	17031.25
631.265	17184.85
631.459	16971.86
631.653	16859.22
631.848	16539.74
632.042	16695.38
632.236	16685.14
632.43	16619.61
632.624	16592.98
632.818	16308.32
633.012	16035.94
633.206	16412.76
633.4	16144.48
633.594	15898.72
633.788	16040.03
633.982	15732.84
634.176	15781.99
634.369	15751.27
634.563	15562.86
634.757	15263.85
634.951	15607.91
635.145	15382.63
635.339	15345.77
635.533	15104.11
635.726	15323.24
635.92	15022.19
636.114	14936.18
636.308	14968.94
636.501	15132.78
636.695	14721.14
636.889	14610.55
637.083	14590.07
637.276	14702.71
637.47	14366.84
637.664	14334.07
637.857	14397.56
638.051	14327.93
638.244	14106.75
638.438	13922.43
638.632	14108.8
638.825	14033.02
639.019	13844.61
639.212	13645.96
639.406	13635.72
639.599	13586.57
639.793	13613.19
639.986	13394.06
640.18	13478.02
640.373	13484.17
640.567	13197.45
640.76	13293.71
640.954	13006.99
641.147	13039.76
641.34	12869.78
641.534	13070.48
641.727	13121.68
641.92	12791.95
642.114	12576.92
642.307	12615.83
642.5	12529.81
642.694	12435.61
642.887	12587.16
643.08	12712.08
643.273	12458.14
643.467	12292.25
643.66	12304.54
643.853	12034.21
644.046	11974.81
644.239	12146.84
644.432	12011.68
644.626	11772.07
644.819	11911.33
645.012	11716.77
645.205	11843.74
645.398	11620.52
645.591	11563.17
645.784	11509.93
645.977	11415.72
646.17	11233.45
646.363	11200.68
646.556	11241.64
646.749	11249.83
646.942	11137.2
647.135	11002.03
647.328	11083.95
647.521	10975.41
647.714	10782.9
647.907	11018.41
648.099	10756.27
648.292	10733.75
648.485	10565.81
648.678	10555.57
648.871	10567.86
649.064	10399.93
649.256	10502.33
649.449	10449.08
649.642	10174.65
649.835	10404.02
650.027	10309.82
650.22	10148.03
650.413	10113.21
650.605	10006.72
650.798	9781.44
650.991	9943.23
651.183	10117.31
651.376	9752.77
651.568	9976
651.761	9844.93
651.954	9722.05
652.146	9582.79
652.339	9775.3
652.531	9509.06
652.724	9443.53
652.916	9388.23
653.109	9291.98
653.301	9582.79
653.494	9318.6
653.686	9425.09
653.879	9261.26
654.071	9201.86
654.263	8984.78
654.456	9048.27
654.648	9152.71
654.84	8841.42
655.033	8808.65
655.225	8978.64
655.417	8894.67
655.61	8741.07
655.802	8929.49
655.994	8849.61
656.186	8581.33
656.379	8532.18
656.571	8591.57
656.763	8700.11
656.955	8327.38
657.148	8532.18
657.34	8319.19
657.532	8315.09
657.724	8212.7
657.916	8259.8
658.108	8171.74
658.3	8263.9
658.492	8159.45
658.684	7991.52
658.876	8079.58
659.068	8083.67
659.26	7839.97
659.452	7946.46
659.644	7934.17
659.836	7815.39
660.028	7919.84
660.22	7694.56
660.412	7712.99
660.604	7620.83
660.796	7608.55
660.988	7491.81
661.18	7614.69
661.372	7540.96
661.563	7592.16
661.755	7282.92
661.947	7497.95
662.139	7370.98
662.331	7424.23
662.522	7155.94
662.714	7356.65
662.906	7129.32
663.097	7157.99
663.289	7213.29
663.481	7100.65
663.673	7061.74
663.864	7043.31
664.056	7041.26
664.247	7106.79
664.439	6764.78
664.631	6906.09
664.822	6897.9
665.014	6881.52
665.205	6807.79
665.397	6867.18
665.588	6670.58
665.78	6627.57
665.971	6639.86
666.163	6602.99
666.354	6705.39
666.546	6482.16
666.737	6582.51
666.929	6600.94
667.12	6408.44
667.311	6375.67
667.503	6344.95
667.694	6361.33
667.885	6205.69
668.077	6246.65
668.268	6334.71
668.459	6406.39
668.651	6158.58
668.842	6168.82
669.033	6340.85
669.224	6148.34
669.416	6095.1
669.607	6072.57
669.798	6168.82
669.989	5929.21
670.18	5855.48
670.371	6060.28
670.563	5968.12
670.754	5968.12
670.945	5894.4
671.136	5933.31
671.327	5695.74
671.518	5818.62
671.709	5890.3
671.9	5822.72
672.091	5818.62
672.282	5660.93
672.473	5683.45
672.664	5626.11
672.855	5568.77
673.046	5667.07
673.237	5767.42
673.428	5515.52
673.619	5404.93
673.809	5421.31
674	5550.34
674.191	5417.22
674.382	5316.87
674.573	5525.76
674.764	5314.82
674.954	5368.07
675.145	5449.99
675.336	5357.83
675.527	5421.31
675.717	5431.55
675.908	5349.64
676.099	5302.53
676.289	5230.85
676.48	5253.38
676.671	5257.48
676.861	5335.3
677.052	5185.8
677.243	5193.99
677.433	5142.79
677.624	5034.25
677.814	5021.96
678.005	5130.5
678.195	5204.23
678.386	4976.91
678.576	5116.17
678.767	4950.28
678.957	4901.13
679.148	5134.6
679.338	4950.28
679.529	4981
679.719	4831.5
679.909	4974.86
680.1	4874.51
680.29	4929.8
680.481	4741.39
680.671	4880.65
680.861	4813.07
681.052	4866.32
681.242	4765.96
681.432	4729.1
681.622	4811.02
681.813	4694.29
682.003	4712.72
682.193	4743.44
682.383	4696.33
682.573	4690.19
682.764	4686.09
682.954	4682
683.144	4679.95
683.334	4718.86
683.524	4702.48
683.714	4555.02
683.904	4587.79
684.094	4589.84
684.284	4577.55
684.474	4401.43
684.664	4452.63
684.854	4591.89
685.044	4575.5
685.234	4493.58
685.424	4415.76
685.614	4389.14
685.804	4407.57
685.994	4434.19
686.184	4393.23
686.374	4337.94
686.564	4380.95
686.753	4372.75
686.943	4321.56
687.133	4313.36
687.323	4309.27
687.513	4352.27
687.702	4157.72
687.892	4286.74
688.082	4262.16
688.272	4235.54
688.461	4153.62
688.651	4245.78
688.841	4057.37
689.03	3957.02
689.22	4045.08
689.41	4014.36
689.599	4100.37
689.789	4038.94
689.979	3891.48
690.168	3909.91
690.358	4024.6
690.547	4030.74
690.737	3954.97
690.926	3834.14
691.116	3811.61
691.305	3963.16
691.495	3797.28
691.684	3772.7
691.874	3856.67
692.063	3928.35
692.252	3899.67
692.442	3668.25
692.631	3576.09
692.82	3664.16
693.01	3825.95
693.199	3692.83
693.388	3758.36
693.578	3600.67
693.767	3518.75
693.956	3688.73
694.146	3698.97
694.335	3680.54
694.524	3576.09
694.713	3658.01
694.902	3627.29
695.092	3553.57
695.281	3488.03
695.47	3520.8
695.659	3547.42
695.848	3528.99
696.037	3584.29
696.226	3670.3
696.415	3498.27
696.604	3526.94
696.793	3504.42
696.982	3492.13
697.171	3537.18
697.36	3440.93
697.549	3647.77
697.738	3303.71
697.927	3463.46
698.116	3535.14
698.305	3365.15
698.494	3324.19
698.683	3201.32
698.872	3412.26
699.061	3524.9
699.25	3412.26
699.438	3373.35
699.627	3381.54
699.816	3350.82
700.005	3195.17
700.193	3291.43
700.382	3346.72
700.571	3391.78
700.76	3379.49
700.948	3318.05
701.137	3336.48
701.326	3283.24
701.514	3352.87
701.703	3385.63
701.892	3154.21
702.08	3406.11
702.269	3361.06
702.457	3307.81
702.646	3225.89
702.834	3182.88
703.023	3387.68
703.212	3295.52
703.4	3316
703.589	3246.37
703.777	3266.85
703.965	3309.86
704.154	3330.34
704.342	3297.57
704.531	3119.4
704.719	3248.42
704.907	3232.04
705.096	3156.26
705.284	3209.51
705.472	3178.79
705.661	3336.48
705.849	3250.47
706.037	3260.71
706.226	3174.69
706.414	3082.53
706.602	3156.26
706.79	3195.17
706.979	3168.55
707.167	3258.66
707.355	3242.28
707.543	3244.32
707.731	3170.6
707.919	3344.67
708.107	3215.65
708.296	3146.02
708.484	3203.36
708.672	3068.2
708.86	3219.75
709.048	3107.11
709.236	3191.08
709.424	3143.97
709.612	3080.49
709.8	3129.64
709.988	3127.59
710.176	3010.86
710.364	3238.18
710.551	3017
710.739	3158.31
710.927	2963.75
711.115	3096.87
711.303	3096.87
711.491	3031.34
711.679	3072.29
711.866	2978.09
712.054	2994.47
712.242	2939.18
712.43	3033.38
712.617	3045.67
712.805	2949.42
712.993	2963.75
713.181	3154.21
713.368	2953.51
713.556	3141.93
713.744	2947.37
713.931	3039.53
714.119	3004.71
714.306	2930.98
714.494	2926.89
714.682	2844.97
714.869	2945.32
715.057	2990.38
715.244	2939.18
715.432	2896.17
715.619	3008.81
715.807	2920.74
715.994	3039.53
716.182	2996.52
716.369	2963.75
716.556	3039.53
716.744	3096.87
716.931	2959.66
717.119	2955.56
717.306	2926.89
717.493	2894.12
717.681	2890.03
717.868	2898.22
718.055	2953.51
718.242	2969.9
718.43	2894.12
718.617	3010.86
718.804	2951.46
718.991	2900.27
719.179	2904.36
719.366	2775.34
719.553	2898.22
719.74	2810.15
719.927	2877.74
720.114	2822.44
720.301	2881.83
720.488	2720.04
720.676	3035.43
720.863	2765.1
721.05	2892.07
721.237	2828.59
721.424	2750.76
721.611	2824.49
721.798	2812.2
721.985	2797.87
722.172	2789.67
722.358	2728.24
722.545	2730.28
722.732	2842.92
722.919	2906.41
723.106	2677.04
723.293	2742.57
723.48	2730.28
723.667	2779.43
723.853	2724.14
724.04	2711.85
724.227	2642.22
724.414	2689.32
724.6	2832.68
724.787	2812.2
724.974	2736.43
725.161	2662.7
725.347	2543.92
725.534	2640.17
725.72	2689.32
725.907	2769.2
726.094	2742.57
726.28	2726.19
726.467	2638.13
726.653	2697.52
726.84	2660.65
727.027	2601.26
727.213	2627.89
727.4	2566.45
727.586	2695.47
727.773	2591.02
727.959	2761
728.145	2611.5
728.332	2689.32
728.518	2654.51
728.705	2629.93
728.891	2439.47
729.077	2679.08
729.264	2593.07
729.45	2566.45
729.636	2748.72
729.823	2464.05
730.009	2638.13
730.195	2525.49
730.382	2564.4
730.568	2468.14
730.754	2609.45
730.94	2564.4
731.126	2629.93
731.313	2564.4
731.499	2584.88
731.685	2623.79
731.871	2494.77
732.057	2529.58
732.243	2517.29
732.429	2519.34
732.615	2572.59
732.801	2537.77
732.987	2519.34
733.173	2505.01
733.359	2548.01
733.545	2353.46
733.731	2433.33
733.917	2382.13
734.103	2447.66
734.289	2449.71
734.475	2500.91
734.661	2462
734.847	2457.9
735.033	2439.47
735.219	2361.65
735.404	2423.09
735.59	2402.61
735.776	2335.03
735.962	2285.87
736.148	2392.37
736.333	2378.03
736.519	2367.79
736.705	2564.4
736.89	2416.94
737.076	2355.51
737.262	2380.08
737.447	2380.08
737.633	2351.41
737.819	2257.2
738.004	2238.77
738.19	2353.46
738.375	2373.94
738.561	2283.83
738.747	2326.83
738.932	2257.2
739.118	2326.83
739.303	2206
739.489	2312.5
739.674	2341.17
739.859	2298.16
740.045	2341.17
740.23	2224.44
740.416	2216.24
740.601	2236.72
740.786	2251.06
740.972	2273.59
741.157	2220.34
741.342	2064.69
741.528	2230.58
741.713	2179.38
741.898	2296.11
742.084	2224.44
742.269	2267.44
742.454	2093.37
742.639	2124.08
742.824	2083.13
743.01	2101.56
743.195	2124.08
743.38	2126.13
743.565	2113.85
743.75	2054.45
743.935	1988.92
744.12	2038.07
744.305	2029.88
744.49	1997.11
744.675	2056.5
744.86	2040.12
745.045	2013.49
745.23	2068.79
745.415	1913.14
745.6	1956.15
745.785	1999.16
745.97	1943.86
746.155	2068.79
746.34	1945.91
746.525	1915.19
746.71	1915.19
746.895	1958.2
747.079	1859.9
747.264	1870.14
747.449	1888.57
747.634	1870.14
747.819	1853.75
748.003	1833.27
748.188	1847.61
748.373	1741.11
748.557	1708.35
748.742	1726.78
748.927	1741.11
749.111	1837.37
749.296	1798.46
749.481	1812.79
749.665	1757.5
749.85	1710.4
750.034	1728.83
750.219	1734.97
750.404	1634.62
750.588	1608
750.773	1638.72
750.957	1677.63
751.141	1597.76
751.326	1685.82
751.51	1642.81
751.695	1610.04
751.879	1564.99
752.064	1591.61
752.248	1497.41
752.432	1585.47
752.617	1612.09
752.801	1567.04
752.985	1534.27
753.17	1513.79
753.354	1511.74
753.538	1501.5
753.722	1521.98
753.907	1427.78
754.091	1364.29
754.275	1392.96
754.459	1401.15
754.643	1417.54
754.828	1421.63
755.012	1472.83
755.196	1372.48
755.38	1304.9
755.564	1321.28
755.748	1282.37
755.932	1401.15
756.116	1366.34
756.3	1319.23
756.484	1282.37
756.668	1347.9
756.852	1331.52
757.036	1288.51
757.22	1300.8
757.404	1376.58
757.588	1272.13
757.772	1345.86
757.956	1257.79
758.14	1292.61
758.323	1214.79
758.507	1298.75
758.691	1196.36
758.875	1190.21
759.059	1296.71
759.242	1190.21
759.426	1265.99
759.61	1188.16
759.794	1149.25
759.977	1220.93
760.161	1220.93
760.345	1202.5
760.528	1188.16
760.712	1151.3
760.895	1161.54
761.079	1061.19
761.263	1087.81
761.446	1130.82
761.63	1059.14
761.813	1114.44
761.997	1143.11
762.18	1081.67
762.364	1151.3
762.547	1042.76
762.731	1034.57
762.914	1048.9
763.098	1044.81
763.281	1057.09
763.464	1081.67
763.648	946.5
763.831	983.37
764.015	1059.14
764.198	1077.57
764.381	1024.33
764.564	1093.96
764.748	966.98
764.931	1104.2
765.114	962.89
765.297	950.6
765.481	1024.33
765.664	977.22
765.847	997.7
766.03	942.41
766.213	1022.28
766.397	991.56
766.58	942.41
766.763	889.16
766.946	905.54
767.129	883.02
767.312	878.92
767.495	870.73
767.678	936.26
767.861	950.6
768.044	958.79
768.227	921.93
768.41	954.69
768.593	897.35
768.776	868.68
768.959	823.62
769.142	1007.94
769.324	950.6
769.507	901.45
769.69	866.63
769.873	850.25
770.056	885.06
770.239	844.1
770.421	866.63
770.604	846.15
770.787	928.07
770.97	866.63
771.152	733.51
771.335	923.98
771.518	815.43
771.7	794.95
771.883	762.19
772.066	874.82
772.248	782.67
772.431	837.96
772.613	833.86
772.796	860.49
772.978	715.08
773.161	770.38
773.343	751.95
773.526	758.09
773.708	710.99
773.891	749.9
774.073	782.67
774.256	739.66
774.438	747.85
774.621	753.99
774.803	778.57
774.985	672.08
775.168	733.51
775.35	663.88
775.532	794.95
775.715	672.08
775.897	698.7
776.079	680.27
776.261	729.42
776.444	713.03
776.626	739.66
776.808	706.89
776.99	667.98
777.173	655.69
777.355	672.08
777.537	620.88
777.719	696.65
777.901	710.99
778.083	606.54
778.265	598.35
778.447	651.6
778.629	606.54
778.811	567.63
778.993	629.07
779.175	586.06
779.357	635.21
779.539	567.63
779.721	590.16
779.903	612.68
780.085	641.36
780.267	590.16
780.449	545.1
780.631	559.44
780.812	584.01
780.994	655.69
781.176	553.29
781.358	581.96
781.54	588.11
781.721	616.78
781.903	547.15
782.085	610.64
782.267	536.91
782.448	514.38
782.63	543.05
782.812	571.72
782.993	479.57
783.175	569.68
783.357	442.7
783.538	524.62
783.72	504.14
783.901	520.53
784.083	465.23
784.264	432.46
784.446	420.17
784.627	461.13
784.809	500.05
784.99	461.13
785.172	551.24
785.353	526.67
785.535	414.03
785.716	508.24
785.897	553.29
786.079	457.04
786.26	432.46
786.441	477.52
786.623	397.65
786.804	465.23
786.985	397.65
787.167	426.32
787.348	403.79
787.529	405.84
787.71	434.51
787.891	512.33
788.073	430.41
788.254	366.93
788.435	387.41
788.616	418.13
788.797	313.68
788.978	297.3
789.159	389.46
789.34	475.47
789.522	276.82
789.703	344.4
789.884	397.65
790.065	383.31
790.246	401.74
790.427	348.5
790.607	379.22
790.788	422.22
790.969	291.15
791.15	430.41
791.331	368.98
791.512	377.17
791.693	350.54
791.874	377.17
792.054	325.97
792.235	360.78
792.416	317.78
792.597	278.87
792.778	368.98
792.958	328.02
793.139	342.35
793.32	348.5
793.5	371.02
793.681	295.25
793.862	389.46
794.042	315.73
794.223	242
794.404	315.73
794.584	338.26
794.765	303.44
794.945	307.54
795.126	266.58
795.306	352.59
795.487	315.73
795.667	356.69
795.848	381.26
796.028	346.45
796.209	248.15
796.389	330.06
796.57	270.67
796.75	317.78
796.93	354.64
797.111	307.54
797.291	344.4
797.471	309.58
797.652	227.67
797.832	282.96
798.012	219.47
798.192	233.81
798.373	252.24
798.553	268.63
798.733	285.01
798.913	254.29
799.093	348.5
799.274	270.67
799.454	264.53
799.634	239.95
799.814	293.2
799.994	242
800.174	295.25
800.354	274.77
800.534	252.24
800.714	293.2
800.894	264.53
801.074	153.94
801.254	260.43
801.434	219.47
801.614	235.86
801.794	248.15
801.974	649.55
802.154	237.91
802.334	301.39
802.514	215.38
802.693	209.23
802.873	196.95
803.053	176.47
803.233	205.14
803.413	229.71
803.592	203.09
803.772	209.23
803.952	272.72
804.131	280.91
804.311	190.8
804.491	239.95
804.67	244.05
804.85	227.67
805.03	266.58
805.209	239.95
805.389	297.3
805.568	293.2
805.748	168.27
805.928	278.87
806.107	143.7
806.287	203.09
806.466	178.51
806.646	293.2
806.825	205.14
807.004	264.53
807.184	217.43
807.363	135.51
807.543	221.52
807.722	168.27
807.901	186.71
808.081	151.89
808.26	129.36
808.439	254.29
808.619	186.71
808.798	158.03
808.977	205.14
809.156	188.75
809.336	229.71
809.515	246.1
809.694	168.27
809.873	184.66
810.052	250.19
810.231	186.71
810.411	139.6
810.59	203.09
810.769	207.19
810.948	215.38
811.127	92.5
811.306	266.58
811.485	151.89
811.664	155.99
811.843	188.75
812.022	272.72
812.201	104.79
812.38	205.14
812.559	158.03
812.737	84.31
812.916	160.08
813.095	172.37
813.274	141.65
813.453	123.22
813.632	180.56
813.811	127.32
813.989	209.23
814.168	158.03
814.347	170.32
814.526	213.33
814.704	155.99
814.883	207.19
815.062	217.43
815.24	160.08
815.419	115.03
815.598	166.23
815.776	96.6
815.955	110.93
816.133	117.08
816.312	160.08
816.49	102.74
816.669	133.46
816.847	151.89
817.026	205.14
817.204	106.84
817.383	164.18
817.561	135.51
817.74	139.6
817.918	110.93
818.097	135.51
818.275	155.99
818.453	174.42
818.632	155.99
818.81	80.21
818.988	123.22
819.167	112.98
819.345	121.17
819.523	123.22
819.701	174.42
819.879	205.14
820.058	174.42
820.236	135.51
820.414	117.08
820.592	149.84
820.77	149.84
820.948	180.56
821.127	20.82
821.305	108.88
821.483	162.13
821.661	139.6
821.839	112.98
822.017	84.31
822.195	123.22
822.373	178.51
822.551	47.44
822.729	182.61
822.907	119.12
823.085	137.56
823.262	94.55
823.44	145.75
823.618	143.7
823.796	59.73
823.974	143.7
824.152	131.41
824.329	69.97
824.507	143.7
824.685	102.74
824.863	160.08
825.04	82.26
825.218	63.83
825.396	88.4
825.574	92.5
825.751	117.08
825.929	106.84
826.107	164.18
826.284	143.7
826.462	80.21
826.639	123.22
826.817	31.06
826.994	82.26
827.172	10.58
827.349	203.09
827.527	104.79
827.704	106.84
827.882	94.55
828.059	26.96
828.237	88.4
828.414	168.27
828.591	14.68
828.769	74.07
828.946	147.8
829.124	129.36
829.301	143.7
829.478	110.93
829.655	110.93
829.833	149.84
830.01	104.79
830.187	106.84
830.364	67.92
830.542	80.21
830.719	125.27
830.896	133.46
831.073	45.4
831.25	102.74
831.427	-7.85
831.604	135.51
831.782	67.92
831.959	102.74
832.136	94.55
832.313	112.98
832.49	100.69
832.667	137.56
832.844	49.49
833.021	170.32
833.198	125.27
833.374	92.5
833.551	184.66
833.728	41.3
833.905	104.79
834.082	90.45
834.259	51.54
834.436	129.36
834.612	90.45
834.789	20.82
834.966	80.21
835.143	88.4
835.319	104.79
835.496	115.03
835.673	37.2
835.85	72.02
836.026	90.45
836.203	31.06
836.38	35.16
836.556	90.45
836.733	-1.71
836.909	43.35
837.086	78.16
837.262	110.93
837.439	82.26
837.616	35.16
837.792	110.93
837.968	45.4
838.145	115.03
838.321	104.79
838.498	39.25
838.674	137.56
838.851	100.69
839.027	63.83
839.203	92.5
839.38	41.3
839.556	35.16
839.732	63.83
839.909	55.64
840.085	80.21
840.261	69.97
840.437	31.06
840.614	151.89
840.79	72.02
840.966	74.07
841.142	63.83
841.318	100.69
841.494	49.49
841.671	53.59
841.847	33.11
842.023	41.3
842.199	110.93
842.375	59.73
842.551	49.49
842.727	67.92
842.903	74.07
843.079	59.73
843.255	69.97
843.431	59.73
843.607	41.3
843.783	20.82
843.959	63.83
844.134	-3.75
844.31	108.88
844.486	49.49
844.662	26.96
844.838	24.92
845.013	86.36
845.189	84.31
845.365	-9.9
845.541	94.55
845.716	74.07
845.892	53.59
846.068	78.16
846.244	0.34
846.419	110.93
846.595	14.68
846.77	41.3
846.946	37.2
847.122	51.54
847.297	49.49
847.473	125.27
847.648	45.4
847.824	90.45
847.999	8.53
848.175	92.5
848.35	6.49
848.526	61.78
848.701	86.36
848.876	123.22
849.052	43.35
849.227	88.4
849.403	47.44
849.578	82.26
849.753	2.39
849.929	74.07
850.104	-7.85
850.279	100.69
850.454	88.4
850.63	76.12
850.805	-1.71
850.98	74.07
851.155	57.68
851.33	24.92
851.505	59.73
851.681	67.92
851.856	37.2
852.031	78.16
852.206	26.96
852.381	61.78
852.556	33.11
852.731	106.84
852.906	35.16
853.081	10.58
853.256	65.88
853.431	67.92
853.606	129.36
853.781	37.2
853.956	16.73
854.131	94.55
854.305	24.92
854.48	4.44
854.655	24.92
854.83	74.07
855.005	-44.71
855.18	33.11
855.354	88.4
855.529	59.73
855.704	102.74
855.879	22.87
856.053	63.83
856.228	82.26
856.403	16.73
856.577	76.12
856.752	45.4
856.926	39.25
857.101	72.02
857.276	-1.71
857.45	63.83
857.625	74.07
857.799	96.6
857.974	33.11
858.148	90.45
858.323	96.6
858.497	49.49
858.672	37.2
858.846	63.83
859.02	84.31
859.195	-67.24
859.369	12.63
859.543	84.31
859.718	67.92
859.892	125.27
860.066	90.45
860.241	47.44
860.415	-22.19
860.589	88.4
860.763	41.3
860.938	20.82
861.112	55.64
861.286	96.6
861.46	67.92
861.634	6.49
861.808	-24.23
861.982	22.87
862.157	131.41
862.331	20.82
862.505	-11.95
862.679	-20.14
862.853	117.08
863.027	84.31
863.201	47.44
863.375	33.11
863.549	78.16
863.722	45.4
863.896	43.35
864.07	90.45
864.244	-1.71
864.418	78.16
864.592	74.07
864.766	-16.04
864.939	106.84
865.113	10.58
865.287	104.79
865.461	49.49
865.634	102.74
865.808	-44.71
865.982	20.82
866.156	-32.43
866.329	33.11
866.503	22.87
866.676	37.2
866.85	88.4
867.024	39.25
867.197	12.63
867.371	31.06
867.544	45.4
867.718	63.83
867.891	14.68
868.065	22.87
868.238	57.68
868.412	-34.47
868.585	31.06
868.759	24.92
868.932	104.79
869.105	-3.75
869.279	18.77
869.452	63.83
869.625	16.73
869.799	61.78
869.972	-16.04
870.145	35.16
870.319	121.17
870.492	-32.43
870.665	-22.19
870.838	2.39
871.011	119.12
871.185	63.83
871.358	14.68
871.531	8.53
871.704	10.58
871.877	20.82
872.05	2.39
872.223	31.06
872.396	78.16
872.569	20.82
872.742	-40.62
872.915	82.26
873.088	-16.04
873.261	6.49
873.434	14.68
873.607	53.59
873.78	84.31
873.953	-65.19
874.126	39.25
874.299	35.16
874.471	-7.85
874.644	-13.99
874.817	88.4
874.99	26.96
875.163	0.34
875.335	43.35
875.508	20.82
875.681	49.49
875.853	8.53
876.026	16.73
876.199	65.88
876.371	31.06
876.544	72.02
876.717	47.44
876.889	-22.19
877.062	-5.8
877.234	-13.99
877.407	-44.71
877.579	-61.1
877.752	-11.95
877.924	-22.19
878.097	-16.04
878.269	20.82
878.442	-38.57
878.614	22.87
878.786	20.82
878.959	-16.04
879.131	24.92
879.303	0.34
879.476	22.87
879.648	31.06
879.82	8.53
879.993	20.82
880.165	45.4
880.337	-40.62
880.509	24.92
880.681	12.63
880.854	24.92
881.026	-18.09
881.198	108.88
881.37	-24.23
881.542	-75.43
881.714	55.64
881.886	67.92
882.058	12.63
882.23	8.53
882.402	26.96
882.574	-13.99
882.746	41.3
882.918	22.87
883.09	-5.8
883.262	0.34
883.434	-5.8
883.606	-16.04
883.778	41.3
883.95	0.34
884.122	-7.85
884.293	24.92
884.465	-13.99
884.637	57.68
884.809	33.11
884.98	-3.75
885.152	-7.85
885.324	-44.71
885.496	-1.71
885.667	51.54
885.839	63.83
886.011	35.16
886.182	53.59
886.354	41.3
886.525	-11.95
886.697	4.44
886.869	45.4
887.04	110.93
887.212	59.73
887.383	-1.71
887.555	0.34
887.726	24.92
887.897	-16.04
888.069	10.58
888.24	88.4
888.412	41.3
888.583	51.54
888.754	8.53
888.926	-57
889.097	88.4
889.268	12.63
889.44	-5.8
889.611	0.34
889.782	6.49
889.953	-36.52
890.125	35.16
890.296	2.39
890.467	-22.19
890.638	-1.71
890.809	22.87
890.98	33.11
891.151	-16.04
891.323	4.44
891.494	-26.28
891.665	63.83
891.836	22.87
892.007	35.16
892.178	29.01
892.349	-1.71
892.52	43.35
892.691	51.54
892.862	20.82
893.032	-38.57
893.203	22.87
893.374	-61.1
893.545	26.96
893.716	33.11
893.887	47.44
894.057	78.16
894.228	-32.43
894.399	26.96
894.57	26.96
894.74	16.73
894.911	47.44
895.082	35.16
895.253	-38.57
895.423	41.3
895.594	-1.71
895.764	16.73
895.935	96.6
896.106	45.4
896.276	-7.85
896.447	-38.57
896.617	-28.33
896.788	-18.09
896.958	20.82
897.129	-36.52
897.299	22.87
897.47	22.87
897.64	69.97
897.81	76.12
897.981	-24.23
898.151	8.53
898.322	8.53
898.492	-9.9
898.662	16.73
898.832	47.44
899.003	22.87
899.173	8.53
899.343	41.3
899.513	33.11
