Data from USB4F104151__94__12-02-36-463.txt Node

Date: Fri Mar 14 12:02:36 EDT 2025
User: louis
Spectrometer: USB4F10415
Trigger mode: 4
Integration Time (sec): 2.000000E-2
Scans to average: 1
Electric dark correction enabled: true
Nonlinearity correction enabled: false
Boxcar width: 0
XAxis mode: Wavelengths
Number of Pixels in Spectrum: 3648
>>>>>Begin Spectral Data<<<<<
178.204	-107.69
178.424	-107.69
178.644	-107.69
178.864	4.95
179.084	-105.64
179.304	-44.2
179.524	-17.58
179.744	43.86
179.964	27.48
180.184	-27.82
180.404	19.29
180.624	17.24
180.844	11.09
181.064	-42.15
181.283	-42.15
181.503	4.95
181.723	50
181.943	-70.83
182.163	41.81
182.383	23.38
182.602	-27.82
182.822	-7.34
183.042	41.81
183.262	-15.53
183.482	88.92
183.701	-38.06
183.921	37.72
184.141	7
184.361	17.24
184.58	-83.11
184.8	84.82
185.02	21.33
185.239	-7.34
185.459	15.19
185.679	2.9
185.898	15.19
186.118	17.24
186.338	25.43
186.557	33.62
186.777	64.34
186.997	9.05
187.216	25.43
187.436	-38.06
187.655	23.38
187.875	111.44
188.095	-9.39
188.314	13.14
188.534	13.14
188.753	9.05
188.973	-3.24
189.192	56.15
189.412	41.81
189.631	9.05
189.851	31.57
190.07	105.3
190.29	50
190.509	23.38
190.729	33.62
190.948	74.58
191.168	52.05
191.387	7
191.607	62.29
191.826	66.39
192.045	68.44
192.265	-5.29
192.484	29.52
192.704	109.4
192.923	-40.11
193.142	176.98
193.362	29.52
193.581	-9.39
193.8	-25.77
194.02	52.05
194.239	-9.39
194.458	56.15
194.678	45.91
194.897	58.2
195.116	35.67
195.335	68.44
195.555	17.24
195.774	-27.82
195.993	-25.77
196.212	39.76
196.432	-31.91
196.651	74.58
196.87	-27.82
197.089	-1.19
197.308	-48.3
197.528	15.19
197.747	-64.68
197.966	-17.58
198.185	-19.63
198.404	70.48
198.623	84.82
198.842	23.38
199.062	50
199.281	25.43
199.5	17.24
199.719	-13.48
199.938	68.44
200.157	27.48
200.376	-52.39
200.595	52.05
200.814	76.63
201.033	-9.39
201.252	17.24
201.471	11.09
201.69	31.57
201.909	15.19
202.128	23.38
202.347	2.9
202.566	78.68
202.785	0.85
203.004	52.05
203.223	62.29
203.442	9.05
203.661	29.52
203.879	23.38
204.098	74.58
204.317	-31.91
204.536	88.92
204.755	88.92
204.974	4.95
205.193	107.35
205.411	45.91
205.63	60.24
205.849	-5.29
206.068	31.57
206.287	19.29
206.505	54.1
206.724	68.44
206.943	23.38
207.162	0.85
207.381	90.96
207.599	50
207.818	-5.29
208.037	43.86
208.255	33.62
208.474	-19.63
208.693	-5.29
208.911	54.1
209.13	66.39
209.349	-54.44
209.567	-36.01
209.786	62.29
210.005	-3.24
210.223	76.63
210.442	13.14
210.661	29.52
210.879	47.96
211.098	15.19
211.316	74.58
211.535	-15.53
211.753	60.24
211.972	-15.53
212.191	52.05
212.409	-29.87
212.628	54.1
212.846	9.05
213.065	52.05
213.283	33.62
213.502	86.87
213.72	58.2
213.938	-17.58
214.157	17.24
214.375	52.05
214.594	27.48
214.812	68.44
215.031	117.59
215.249	9.05
215.467	-72.87
215.686	27.48
215.904	82.77
216.122	-7.34
216.341	-15.53
216.559	31.57
216.778	23.38
216.996	27.48
217.214	35.67
217.432	-27.82
217.651	33.62
217.869	-40.11
218.087	17.24
218.306	50
218.524	88.92
218.742	-40.11
218.96	43.86
219.179	-81.07
219.397	-15.53
219.615	50
219.833	-1.19
220.051	-40.11
220.27	68.44
220.488	-11.43
220.706	58.2
220.924	64.34
221.142	13.14
221.36	-5.29
221.578	0.85
221.796	2.9
222.015	17.24
222.233	29.52
222.451	68.44
222.669	39.76
222.887	93.01
223.105	25.43
223.323	35.67
223.541	-1.19
223.759	9.05
223.977	39.76
224.195	66.39
224.413	-23.72
224.631	27.48
224.849	52.05
225.067	74.58
225.285	-5.29
225.503	41.81
225.721	7
225.939	58.2
226.157	19.29
226.375	133.97
226.592	-29.87
226.81	23.38
227.028	121.68
227.246	35.67
227.464	60.24
227.682	74.58
227.9	56.15
228.117	88.92
228.335	68.44
228.553	-1.19
228.771	62.29
228.989	80.72
229.206	11.09
229.424	37.72
229.642	7
229.86	2.9
230.077	-27.82
230.295	39.76
230.513	37.72
230.731	52.05
230.948	78.68
231.166	37.72
231.384	-31.91
231.601	-29.87
231.819	119.64
232.037	0.85
232.254	-19.63
232.472	13.14
232.689	-60.59
232.907	52.05
233.125	41.81
233.342	-1.19
233.56	2.9
233.777	0.85
233.995	33.62
234.213	64.34
234.43	93.01
234.648	-9.39
234.865	-3.24
235.083	47.96
235.3	13.14
235.518	37.72
235.735	52.05
235.953	84.82
236.17	66.39
236.388	-48.3
236.605	25.43
236.822	-3.24
237.04	90.96
237.257	39.76
237.475	-40.11
237.692	64.34
237.909	21.33
238.127	-1.19
238.344	56.15
238.562	-7.34
238.779	-68.78
238.996	37.72
239.214	72.53
239.431	107.35
239.648	-15.53
239.865	4.95
240.083	-38.06
240.3	27.48
240.517	-9.39
240.735	-7.34
240.952	-15.53
241.169	27.48
241.386	-13.48
241.603	47.96
241.821	99.16
242.038	43.86
242.255	45.91
242.472	-27.82
242.689	76.63
242.907	11.09
243.124	31.57
243.341	0.85
243.558	7
243.775	54.1
243.992	33.62
244.209	2.9
244.426	31.57
244.643	39.76
244.86	19.29
245.078	-21.67
245.295	52.05
245.512	7
245.729	33.62
245.946	-21.67
246.163	47.96
246.38	19.29
246.597	52.05
246.814	-15.53
247.031	9.05
247.248	156.5
247.464	82.77
247.681	31.57
247.898	68.44
248.115	-1.19
248.332	45.91
248.549	-50.35
248.766	-7.34
248.983	68.44
249.2	64.34
249.417	-29.87
249.633	-38.06
249.85	25.43
250.067	68.44
250.284	93.01
250.501	21.33
250.717	31.57
250.934	-50.35
251.151	-21.67
251.368	86.87
251.585	25.43
251.801	23.38
252.018	54.1
252.235	58.2
252.451	56.15
252.668	-11.43
252.885	4.95
253.102	52.05
253.318	41.81
253.535	60.24
253.752	-29.87
253.968	111.44
254.185	35.67
254.401	-3.24
254.618	82.77
254.835	33.62
255.051	107.35
255.268	62.29
255.484	4.95
255.701	29.52
255.917	19.29
256.134	2.9
256.351	-23.72
256.567	-25.77
256.784	47.96
257	2.9
257.217	-25.77
257.433	15.19
257.65	7
257.866	90.96
258.082	88.92
258.299	-27.82
258.515	37.72
258.732	11.09
258.948	45.91
259.165	31.57
259.381	43.86
259.597	54.1
259.814	-9.39
260.03	72.53
260.246	29.52
260.463	62.29
260.679	97.11
260.895	86.87
261.112	62.29
261.328	33.62
261.544	50
261.761	27.48
261.977	-17.58
262.193	-60.59
262.409	19.29
262.626	68.44
262.842	-15.53
263.058	52.05
263.274	37.72
263.49	-1.19
263.707	58.2
263.923	33.62
264.139	-13.48
264.355	35.67
264.571	23.38
264.787	33.62
265.004	19.29
265.22	52.05
265.436	60.24
265.652	17.24
265.868	43.86
266.084	68.44
266.3	15.19
266.516	54.1
266.732	41.81
266.948	13.14
267.164	93.01
267.38	-9.39
267.596	21.33
267.812	39.76
268.028	56.15
268.244	11.09
268.46	-31.91
268.676	121.68
268.892	13.14
269.108	35.67
269.324	-33.96
269.54	-52.39
269.756	127.83
269.972	-17.58
270.188	93.01
270.403	21.33
270.619	47.96
270.835	11.09
271.051	4.95
271.267	-31.91
271.483	21.33
271.698	39.76
271.914	47.96
272.13	-17.58
272.346	105.3
272.562	-3.24
272.777	64.34
272.993	117.59
273.209	17.24
273.425	-29.87
273.64	76.63
273.856	-27.82
274.072	41.81
274.287	2.9
274.503	-5.29
274.719	-13.48
274.934	90.96
275.15	-13.48
275.366	66.39
275.581	17.24
275.797	35.67
276.012	52.05
276.228	39.76
276.444	58.2
276.659	43.86
276.875	17.24
277.09	33.62
277.306	27.48
277.521	35.67
277.737	41.81
277.952	17.24
278.168	9.05
278.383	64.34
278.599	33.62
278.814	23.38
279.03	35.67
279.245	27.48
279.461	19.29
279.676	21.33
279.892	9.05
280.107	-9.39
280.322	-9.39
280.538	39.76
280.753	0.85
280.969	88.92
281.184	-3.24
281.399	125.78
281.615	-21.67
281.83	84.82
282.045	25.43
282.26	-25.77
282.476	41.81
282.691	52.05
282.906	15.19
283.122	33.62
283.337	35.67
283.552	33.62
283.767	19.29
283.983	7
284.198	105.3
284.413	58.2
284.628	15.19
284.843	50
285.058	111.44
285.274	54.1
285.489	64.34
285.704	15.19
285.919	7
286.134	15.19
286.349	21.33
286.564	15.19
286.779	82.77
286.995	41.81
287.21	29.52
287.425	146.26
287.64	121.68
287.855	13.14
288.07	31.57
288.285	64.34
288.5	-7.34
288.715	-44.2
288.93	68.44
289.145	-48.3
289.36	52.05
289.575	0.85
289.79	60.24
290.004	4.95
290.219	72.53
290.434	2.9
290.649	2.9
290.864	-11.43
291.079	23.38
291.294	9.05
291.509	25.43
291.724	95.06
291.938	115.54
292.153	68.44
292.368	29.52
292.583	29.52
292.798	56.15
293.012	2.9
293.227	-40.11
293.442	41.81
293.657	33.62
293.871	60.24
294.086	2.9
294.301	29.52
294.516	-9.39
294.73	15.19
294.945	-74.92
295.16	17.24
295.374	23.38
295.589	72.53
295.804	45.91
296.018	9.05
296.233	84.82
296.447	93.01
296.662	2.9
296.877	78.68
297.091	37.72
297.306	-17.58
297.52	39.76
297.735	129.88
297.949	39.76
298.164	56.15
298.378	66.39
298.593	-5.29
298.807	-5.29
299.022	82.77
299.236	27.48
299.451	119.64
299.665	23.38
299.88	82.77
300.094	-11.43
300.309	27.48
300.523	35.67
300.737	52.05
300.952	2.9
301.166	-38.06
301.381	-11.43
301.595	17.24
301.809	62.29
302.024	54.1
302.238	17.24
302.452	54.1
302.667	101.2
302.881	80.72
303.095	0.85
303.309	15.19
303.524	35.67
303.738	62.29
303.952	19.29
304.166	113.49
304.381	-29.87
304.595	41.81
304.809	13.14
305.023	23.38
305.237	-1.19
305.452	-38.06
305.666	93.01
305.88	19.29
306.094	37.72
306.308	45.91
306.522	25.43
306.736	76.63
306.95	7
307.164	-1.19
307.379	31.57
307.593	11.09
307.807	60.24
308.021	45.91
308.235	68.44
308.449	29.52
308.663	47.96
308.877	82.77
309.091	31.57
309.305	7
309.519	7
309.733	33.62
309.947	7
310.161	35.67
310.374	23.38
310.588	-50.35
310.802	17.24
311.016	-5.29
311.23	84.82
311.444	-25.77
311.658	-15.53
311.872	64.34
312.085	86.87
312.299	109.4
312.513	7
312.727	11.09
312.941	41.81
313.154	9.05
313.368	84.82
313.582	25.43
313.796	-9.39
314.009	29.52
314.223	9.05
314.437	95.06
314.651	127.83
314.864	-11.43
315.078	33.62
315.292	45.91
315.505	39.76
315.719	74.58
315.933	33.62
316.146	19.29
316.36	21.33
316.573	74.58
316.787	80.72
317.001	-36.01
317.214	37.72
317.428	82.77
317.641	72.53
317.855	109.4
318.068	21.33
318.282	19.29
318.495	45.91
318.709	17.24
318.922	17.24
319.136	158.55
319.349	47.96
319.563	88.92
319.776	31.57
319.99	66.39
320.203	35.67
320.417	29.52
320.63	93.01
320.843	74.58
321.057	15.19
321.27	13.14
321.483	21.33
321.697	13.14
321.91	60.24
322.124	19.29
322.337	60.24
322.55	2.9
322.763	37.72
322.977	-19.63
323.19	17.24
323.403	35.67
323.617	103.25
323.83	103.25
324.043	66.39
324.256	25.43
324.469	-7.34
324.683	68.44
324.896	43.86
325.109	78.68
325.322	-23.72
325.535	64.34
325.748	50
325.962	25.43
326.175	29.52
326.388	27.48
326.601	15.19
326.814	105.3
327.027	27.48
327.24	82.77
327.453	62.29
327.666	45.91
327.879	25.43
328.092	70.48
328.305	80.72
328.518	31.57
328.731	37.72
328.944	-33.96
329.157	-58.54
329.37	43.86
329.583	50
329.796	31.57
330.009	11.09
330.222	27.48
330.435	37.72
330.648	11.09
330.861	0.85
331.073	58.2
331.286	60.24
331.499	-5.29
331.712	66.39
331.925	33.62
332.138	-5.29
332.35	50
332.563	-11.43
332.776	60.24
332.989	27.48
333.202	103.25
333.414	-44.2
333.627	101.2
333.84	39.76
334.053	60.24
334.265	27.48
334.478	62.29
334.691	33.62
334.903	-7.34
335.116	50
335.329	27.48
335.541	84.82
335.754	101.2
335.966	-1.19
336.179	35.67
336.392	90.96
336.604	99.16
336.817	-31.91
337.029	-42.15
337.242	45.91
337.454	52.05
337.667	11.09
337.88	45.91
338.092	-9.39
338.305	9.05
338.517	17.24
338.729	-1.19
338.942	58.2
339.154	21.33
339.367	52.05
339.579	160.59
339.792	37.72
340.004	99.16
340.217	15.19
340.429	-1.19
340.641	-11.43
340.854	25.43
341.066	78.68
341.278	45.91
341.491	121.68
341.703	82.77
341.915	52.05
342.128	31.57
342.34	45.91
342.552	105.3
342.764	41.81
342.977	54.1
343.189	60.24
343.401	50
343.613	4.95
343.826	19.29
344.038	74.58
344.25	54.1
344.462	66.39
344.674	0.85
344.886	88.92
345.099	29.52
345.311	72.53
345.523	21.33
345.735	0.85
345.947	25.43
346.159	115.54
346.371	84.82
346.583	29.52
346.795	76.63
347.007	-7.34
347.219	25.43
347.431	35.67
347.643	25.43
347.855	33.62
348.067	60.24
348.279	15.19
348.491	93.01
348.703	35.67
348.915	-7.34
349.127	37.72
349.339	58.2
349.551	21.33
349.763	13.14
349.975	62.29
350.187	33.62
350.399	78.68
350.61	-7.34
350.822	-9.39
351.034	78.68
351.246	64.34
351.458	31.57
351.669	17.24
351.881	105.3
352.093	29.52
352.305	33.62
352.517	70.48
352.728	47.96
352.94	17.24
353.152	4.95
353.363	60.24
353.575	4.95
353.787	23.38
353.999	-11.43
354.21	64.34
354.422	7
354.633	43.86
354.845	72.53
355.057	82.77
355.268	27.48
355.48	109.4
355.692	-15.53
355.903	68.44
356.115	66.39
356.326	-56.49
356.538	58.2
356.749	60.24
356.961	76.63
357.172	11.09
357.384	76.63
357.595	127.83
357.807	60.24
358.018	-56.49
358.23	56.15
358.441	54.1
358.653	2.9
358.864	9.05
359.075	-21.67
359.287	54.1
359.498	150.36
359.709	27.48
359.921	-29.87
360.132	17.24
360.344	25.43
360.555	15.19
360.766	56.15
360.977	-1.19
361.189	-5.29
361.4	19.29
361.611	35.67
361.823	-21.67
362.034	2.9
362.245	-40.11
362.456	80.72
362.667	93.01
362.879	23.38
363.09	66.39
363.301	156.5
363.512	17.24
363.723	25.43
363.935	-64.68
364.146	142.16
364.357	54.1
364.568	93.01
364.779	80.72
364.99	60.24
365.201	64.34
365.412	43.86
365.623	70.48
365.834	103.25
366.045	-66.73
366.256	17.24
366.467	64.34
366.678	-19.63
366.889	29.52
367.1	64.34
367.311	50
367.522	111.44
367.733	82.77
367.944	25.43
368.155	105.3
368.366	72.53
368.577	27.48
368.788	31.57
368.999	-15.53
369.209	23.38
369.42	76.63
369.631	93.01
369.842	74.58
370.053	-1.19
370.264	15.19
370.474	13.14
370.685	90.96
370.896	113.49
371.107	97.11
371.317	101.2
371.528	-11.43
371.739	68.44
371.95	131.92
372.16	78.68
372.371	52.05
372.582	35.67
372.792	84.82
373.003	0.85
373.214	60.24
373.424	76.63
373.635	-13.48
373.846	-7.34
374.056	2.9
374.267	78.68
374.477	86.87
374.688	-9.39
374.898	13.14
375.109	90.96
375.319	105.3
375.53	25.43
375.74	39.76
375.951	2.9
376.161	45.91
376.372	103.25
376.582	88.92
376.793	105.3
377.003	31.57
377.214	4.95
377.424	70.48
377.635	95.06
377.845	-31.91
378.055	23.38
378.266	-54.44
378.476	82.77
378.686	66.39
378.897	56.15
379.107	60.24
379.317	66.39
379.528	74.58
379.738	95.06
379.948	52.05
380.158	68.44
380.369	86.87
380.579	39.76
380.789	-3.24
380.999	111.44
381.21	47.96
381.42	84.82
381.63	52.05
381.84	97.11
382.05	58.2
382.261	35.67
382.471	60.24
382.681	23.38
382.891	111.44
383.101	107.35
383.311	70.48
383.521	93.01
383.731	56.15
383.941	103.25
384.151	9.05
384.361	33.62
384.571	-23.72
384.781	54.1
384.991	88.92
385.201	70.48
385.411	52.05
385.621	58.2
385.831	39.76
386.041	43.86
386.251	78.68
386.461	45.91
386.671	64.34
386.881	74.58
387.091	25.43
387.301	76.63
387.511	43.86
387.72	60.24
387.93	127.83
388.14	70.48
388.35	62.29
388.56	99.16
388.769	80.72
388.979	70.48
389.189	35.67
389.399	-17.58
389.609	35.67
389.818	-9.39
390.028	45.91
390.238	66.39
390.447	-31.91
390.657	148.31
390.867	45.91
391.076	11.09
391.286	109.4
391.496	29.52
391.705	115.54
391.915	21.33
392.125	19.29
392.334	33.62
392.544	142.16
392.753	150.36
392.963	88.92
393.172	90.96
393.382	97.11
393.591	43.86
393.801	103.25
394.01	129.88
394.22	56.15
394.429	66.39
394.639	23.38
394.848	90.96
395.058	82.77
395.267	72.53
395.477	43.86
395.686	78.68
395.895	47.96
396.105	195.41
396.314	33.62
396.524	70.48
396.733	95.06
396.942	93.01
397.152	90.96
397.361	99.16
397.57	60.24
397.78	127.83
397.989	54.1
398.198	115.54
398.407	148.31
398.617	45.91
398.826	174.93
399.035	119.64
399.244	99.16
399.453	156.5
399.663	37.72
399.872	181.07
400.081	152.4
400.29	70.48
400.499	29.52
400.708	111.44
400.917	101.2
401.127	195.41
401.336	86.87
401.545	222.03
401.754	158.55
401.963	103.25
402.172	123.73
402.381	88.92
402.59	95.06
402.799	131.92
403.008	144.21
403.217	115.54
403.426	154.45
403.635	105.3
403.844	52.05
404.053	148.31
404.262	131.92
404.471	226.13
404.68	170.83
404.888	189.27
405.097	78.68
405.306	174.93
405.515	185.17
405.724	138.07
405.933	162.64
406.142	224.08
406.35	162.64
406.559	179.03
406.768	138.07
406.977	219.99
407.185	199.51
407.394	232.27
407.603	234.32
407.812	207.7
408.02	281.43
408.229	238.42
408.438	219.99
408.646	271.19
408.855	275.28
409.064	265.04
409.272	299.86
409.481	351.06
409.69	322.38
409.898	322.38
410.107	332.62
410.315	375.63
410.524	308.05
410.733	308.05
410.941	258.9
411.15	361.3
411.358	432.97
411.567	465.74
411.775	396.11
411.984	473.93
412.192	486.22
412.401	465.74
412.609	543.57
412.818	639.82
413.026	490.32
413.234	475.98
413.443	525.13
413.651	525.13
413.86	574.28
414.068	684.87
414.276	762.7
414.485	643.92
414.693	725.83
414.901	768.84
415.11	772.94
415.318	699.21
415.526	756.55
415.734	861
415.943	826.18
416.151	940.87
416.359	901.96
416.567	1010.5
416.776	994.12
416.984	957.25
417.192	990.02
417.4	944.97
417.608	1098.56
417.817	1117
418.025	1094.47
418.233	1231.68
418.441	1239.87
418.649	1256.26
418.857	1352.51
419.065	1444.67
419.273	1401.66
419.481	1489.73
419.689	1549.12
419.897	1692.48
420.105	1672
420.313	1608.51
420.521	1794.87
420.729	1766.2
420.937	1809.21
421.145	1973.05
421.353	2073.4
421.561	1981.24
421.769	1952.57
421.977	2042.68
422.185	2120.5
422.393	2349.87
422.601	2423.6
422.809	2452.27
423.017	2454.32
423.224	2589.49
423.432	2626.35
423.64	2726.7
423.848	2974.5
424.056	2900.78
424.263	3126.05
424.471	3201.83
424.679	3167.01
424.887	3361.57
425.094	3359.52
425.302	3425.06
425.51	3558.18
425.718	3617.57
425.925	3633.95
426.133	3816.22
426.341	4160.28
426.548	4174.61
426.756	4281.11
426.964	4381.46
427.171	4539.15
427.379	4619.02
427.586	4813.58
427.794	4924.17
428.001	4936.46
428.209	5346.05
428.417	5192.45
428.624	5595.9
428.832	5544.7
429.039	5436.16
429.247	5597.95
429.454	6126.33
429.662	6564.59
429.869	6249.21
430.076	6480.63
430.284	6439.67
430.491	6626.03
430.699	6970.09
430.906	6990.57
431.114	7058.15
431.321	7498.47
431.528	7533.28
431.736	8045.27
431.943	8383.19
432.15	8127.19
432.358	8162.01
432.565	8686.29
432.772	8622.8
432.979	9136.84
433.187	9085.64
433.394	9370.31
433.601	9984.7
433.808	9837.25
434.016	9921.21
434.223	10357.43
434.43	10867.38
434.637	10683.06
434.844	11422.38
435.052	11426.47
435.259	11571.88
435.466	11424.42
435.673	11498.15
435.88	12067.49
436.087	12880.53
436.294	12728.98
436.501	12526.23
436.708	12853.91
436.915	13214.35
437.122	13865.6
437.329	13736.58
437.537	14424.7
437.743	14424.7
437.95	14350.97
438.157	15061.62
438.364	15415.91
438.571	15514.22
438.778	15555.18
438.985	17089.1
439.192	16482.91
439.399	17005.14
439.606	16583.26
439.813	17635.91
440.02	18442.81
440.227	18158.14
440.433	18217.54
440.64	18565.69
440.847	18377.28
441.054	18934.32
441.261	20165.15
441.467	19864.1
441.674	20179.49
441.881	21174.8
442.088	21068.31
442.294	20832.79
442.501	21647.88
442.708	21699.08
442.914	22991.35
443.121	23919.08
443.328	22989.3
443.534	25063.89
443.741	24113.64
443.948	23693.8
444.154	25381.33
444.361	25469.39
444.568	25430.48
444.774	25483.73
444.981	25885.13
445.187	26368.45
445.394	27517.36
445.6	27040.18
445.807	29909.39
446.013	28371.36
446.22	28977.56
446.426	30335.37
446.633	30216.58
446.839	31326.58
447.046	29917.58
447.252	31648.11
447.459	32098.67
447.665	31652.21
447.871	33028.45
448.078	34527.56
448.284	32868.7
448.491	33845.58
448.697	35207.48
448.903	35578.17
449.11	35641.65
449.316	35377.47
449.522	35692.85
449.728	36692.26
449.935	36858.15
450.141	36954.4
450.347	37939.47
450.553	36612.39
450.76	36684.07
450.966	38291.73
451.172	37716.25
451.378	38674.7
451.584	37615.9
451.791	38639.88
451.997	38631.69
452.203	39125.25
452.409	39106.82
452.615	39188.74
452.821	37796.12
453.027	37339.42
453.233	39420.16
453.44	37542.17
453.646	37990.67
453.852	38105.36
454.058	38885.64
454.264	37525.78
454.47	38324.49
454.676	37146.91
454.882	38717.7
455.088	35029.31
455.294	35879.22
455.5	36251.95
455.705	36530.47
455.911	35299.64
456.117	34373.96
456.323	33724.75
456.529	31893.87
456.735	33593.68
456.941	32788.83
457.147	31705.46
457.352	31187.32
457.558	30931.33
457.764	30957.95
457.97	29948.3
458.176	29464.98
458.381	29194.65
458.587	27969.96
458.793	28344.74
458.999	26534.34
459.204	28434.85
459.41	27658.67
459.616	25930.19
459.821	25815.5
460.027	26128.84
460.233	25192.92
460.438	23732.72
460.644	24166.88
460.85	22847.99
461.055	22923.77
461.261	22661.63
461.466	21197.33
461.672	20361.76
461.878	21912.07
462.083	20455.97
462.289	20036.13
462.494	19661.35
462.7	19151.41
462.905	18537.02
463.111	18948.66
463.316	19343.92
463.522	18477.63
463.727	18782.77
463.932	18795.06
464.138	18461.24
464.343	18467.39
464.549	18098.75
464.754	18754.1
464.959	18266.69
465.165	18426.43
465.37	17556.04
465.575	17218.13
465.781	17773.13
465.986	17715.78
466.191	17197.65
466.397	16896.6
466.602	16181.85
466.807	16790.1
467.012	16779.86
467.218	16583.26
467.423	16380.51
467.628	16390.75
467.833	17115.73
468.038	16448.09
468.244	15962.72
468.449	16704.09
468.654	16159.33
468.859	16048.74
469.064	15952.48
469.269	15391.34
469.474	15551.08
469.679	15794.79
469.885	15323.76
470.09	15622.76
470.295	15329.9
470.5	14957.17
470.705	14971.5
470.91	14709.36
471.115	14764.66
471.32	14858.87
471.525	14834.29
471.73	14316.15
471.935	14185.08
472.139	13896.32
472.344	13912.71
472.549	13683.33
472.754	13886.08
472.959	13494.92
473.164	13064.85
473.369	12786.32
473.574	13419.14
473.778	13413
473.983	13228.68
474.188	13224.59
474.393	12454.55
474.598	12563.09
474.802	12544.66
475.007	12374.68
475.212	12440.22
475.417	11844.26
475.621	11889.31
475.826	11856.54
476.031	11854.5
476.235	11405.99
476.44	11514.53
476.645	11418.28
476.849	11444.9
477.054	11481.77
477.259	11358.89
477.463	11121.32
477.668	11020.97
477.872	11008.69
478.077	10951.34
478.282	10572.47
478.486	10547.89
478.691	10341.05
478.895	10517.17
479.1	10281.66
479.304	10402.49
479.509	10046.14
479.713	10203.83
479.918	9986.75
480.122	9779.9
480.326	9900.73
480.531	9982.65
480.735	9716.42
480.94	9622.21
481.144	9980.61
481.348	9624.26
481.553	9839.3
481.757	9351.88
481.961	9702.08
482.166	9851.58
482.37	9792.19
482.574	9470.66
482.778	9489.09
482.983	9568.96
483.187	9444.04
483.391	9695.94
483.595	9554.63
483.8	9337.54
484.004	9521.86
484.208	9595.59
484.412	9444.04
484.616	9597.63
484.821	9710.27
485.025	9489.09
485.229	9499.33
485.433	9276.1
485.637	9405.13
485.841	9609.92
486.045	9339.59
486.249	9435.85
486.453	9538.24
486.657	9427.65
486.861	9681.6
487.065	9347.78
487.269	9462.47
487.473	9415.37
487.677	9634.5
487.881	9841.34
488.085	9558.72
488.289	9630.4
488.493	9507.52
488.697	9665.22
488.901	9509.57
489.105	9511.62
489.309	9714.37
489.512	9630.4
489.716	9720.51
489.92	9525.96
490.124	9814.72
490.328	9833.15
490.531	9753.28
490.735	9697.99
490.939	9779.9
491.143	9646.79
491.346	9695.94
491.55	9964.22
491.754	9945.79
491.958	9996.99
492.161	10037.95
492.365	10029.76
492.569	10013.37
492.772	9892.54
492.976	10072.76
493.18	10273.46
493.383	10363.58
493.587	10220.22
493.79	10396.34
493.994	10420.92
494.197	10384.05
494.401	10650.29
494.605	10400.44
494.808	10814.13
495.012	10883.76
495.215	10760.88
495.419	10764.98
495.622	10855.09
495.825	10924.72
496.029	10777.26
496.232	11514.53
496.436	11299.5
496.639	11594.4
496.843	11528.87
497.046	11659.94
497.249	11756.19
497.453	11836.06
497.656	11725.47
497.859	11958.94
498.063	12040.86
498.266	12358.3
498.469	12425.88
498.673	12219.03
498.876	12788.37
499.079	12827.28
499.282	12814.99
499.485	13052.56
499.689	12878.48
499.892	13081.23
500.095	13306.51
500.298	13828.74
500.501	13490.82
500.705	13646.47
500.908	14236.28
501.111	14002.82
501.314	14449.27
501.517	14424.7
501.72	14582.39
501.923	14707.32
502.126	14697.08
502.329	15108.72
502.532	15145.58
502.735	15147.63
502.938	15762.02
503.141	15467.11
503.344	15743.59
503.547	15927.91
503.75	15934.05
503.953	16323.16
504.156	16497.24
504.359	16339.55
504.562	16767.57
504.765	17310.29
504.968	16915.03
505.17	17005.14
505.373	17510.99
505.576	17738.31
505.779	17988.16
505.982	17760.84
506.185	18217.54
506.387	18317.89
506.59	18223.68
506.793	18901.56
506.996	18987.57
507.198	19444.27
507.401	18985.52
507.604	19581.48
507.807	19663.4
508.009	19704.36
508.212	20021.8
508.415	20113.95
508.617	20531.74
508.82	20523.55
509.022	20402.72
509.225	20871.7
509.428	21291.54
509.63	21418.51
509.833	21545.48
510.035	22215.17
510.238	22022.66
510.44	22163.97
510.643	22479.36
510.845	22368.77
511.048	22303.23
511.25	22620.67
511.453	22854.14
511.655	23812.59
511.858	23300.59
512.06	23669.23
512.262	24031.72
512.465	23826.92
512.667	24398.31
512.87	24664.54
513.072	24398.31
513.274	25111
513.477	25235.92
513.679	25696.72
513.881	25729.48
514.084	25858.51
514.286	25887.18
514.488	26042.82
514.69	26704.32
514.893	26884.54
515.095	26888.64
515.297	27386.29
515.499	27199.93
515.701	27775.41
515.904	27685.29
516.106	27996.59
516.308	28359.08
516.51	28578.21
516.712	28529.06
516.914	29022.62
517.116	29079.96
517.318	29266.33
517.52	29557.14
517.722	29878.67
517.925	30071.18
518.127	30235.02
518.329	30488.96
518.531	30734.72
518.733	30992.76
518.935	31129.98
519.136	31207.8
519.338	31723.89
519.54	31639.92
519.742	31932.78
519.944	32373.1
520.146	32643.43
520.348	32852.32
520.55	32848.22
520.752	32999.77
520.954	33833.3
521.155	33741.14
521.357	33978.7
521.559	34160.97
521.761	34361.67
521.963	34302.28
522.164	34500.93
522.366	34650.44
522.568	34982.21
522.77	35100.99
522.971	35572.02
523.173	35420.47
523.375	35991.86
523.576	35879.22
523.778	36280.62
523.98	36245.8
524.181	36157.74
524.383	36542.76
524.584	36847.91
524.786	36993.31
524.988	36440.36
525.189	37171.49
525.391	37568.79
525.592	37650.71
525.794	37640.47
525.995	37736.73
526.197	37622.04
526.398	37601.56
526.6	38058.26
526.801	38029.59
527.003	38414.6
527.204	38435.08
527.406	38662.41
527.607	38928.64
527.808	38750.47
528.01	38119.7
528.211	38826.24
528.412	39442.68
528.614	39387.39
528.815	38981.89
529.016	39452.92
529.218	39172.35
529.419	39205.12
529.62	39057.67
529.822	39502.07
530.023	39254.27
530.224	39665.91
530.425	39328
530.626	39325.95
530.828	39325.95
531.029	39930.1
531.23	39491.83
531.431	39670.01
531.632	40118.51
531.833	39893.24
532.035	39803.13
532.236	40069.36
532.437	40120.56
532.638	39768.31
532.839	40161.52
533.04	40093.94
533.241	39426.3
533.442	40370.41
533.643	39956.72
533.844	40104.18
534.045	40472.81
534.246	39823.61
534.447	40296.69
534.648	39880.95
534.849	40138.99
535.05	40091.89
535.251	39651.58
535.451	39655.67
535.652	39856.37
535.853	39817.46
536.054	40261.87
536.255	39983.35
536.456	39569.66
536.657	40321.26
536.857	39833.85
537.058	39559.42
537.259	40173.81
537.46	39934.2
537.66	39729.4
537.861	39737.59
538.062	39641.34
538.263	39993.59
538.463	39688.44
538.664	39803.13
538.865	39680.25
539.065	39688.44
539.266	39559.42
539.466	40032.5
539.667	39233.79
539.868	40229.1
540.068	39602.43
540.269	39547.13
540.469	39762.17
540.67	39438.59
540.87	39543.03
541.071	39407.87
541.271	39598.33
541.472	39446.78
541.672	39418.11
541.873	39176.45
542.073	39254.27
542.274	39375.1
542.474	39399.68
542.675	38988.03
542.875	39377.15
543.075	39430.4
543.276	39244.03
543.476	39467.26
543.676	39041.28
543.877	39508.22
544.077	39135.49
544.277	39221.5
544.478	38885.64
544.678	39418.11
544.878	39115.01
545.078	39291.13
545.279	38711.56
545.479	38879.49
545.679	39133.44
545.879	39346.43
546.079	39172.35
546.28	39137.54
546.48	38627.59
546.68	39094.53
546.88	38971.65
547.08	39057.67
547.28	38848.77
547.48	38729.99
547.68	38947.08
547.88	38459.66
548.081	38848.77
548.281	38928.64
548.481	38469.9
548.681	39024.9
548.881	38598.92
549.081	38641.93
549.28	38543.63
549.48	38873.35
549.68	38639.88
549.88	39667.96
550.08	38617.35
550.28	38975.75
550.48	38353.16
550.68	38873.35
550.88	38486.28
551.08	38539.53
551.279	38437.13
551.479	38476.04
551.679	38230.29
551.879	38162.7
552.079	38566.15
552.278	38377.74
552.478	38471.95
552.678	38197.52
552.878	38398.22
553.077	38111.5
553.277	37722.39
553.477	38514.95
553.676	38295.82
553.876	38320.4
554.076	37998.87
554.275	38207.76
554.475	38123.79
554.674	38109.46
554.874	38127.89
555.074	37654.81
555.273	37986.58
555.473	38172.94
555.672	37808.4
555.872	37675.29
556.071	37906.71
556.271	37988.63
556.47	37558.55
556.67	37742.87
556.869	37929.23
557.068	37787.92
557.268	37355.8
557.467	37810.45
557.667	37685.53
557.866	37632.28
558.065	37531.93
558.265	36897.06
558.464	37243.17
558.663	37683.48
558.863	37349.66
559.062	37837.08
559.261	37458.2
559.461	37237.02
559.66	36673.83
559.859	36833.57
560.058	36624.68
560.258	37194.01
560.457	36966.69
560.656	37187.87
560.855	36643.11
561.054	36944.16
561.253	36817.19
561.453	36376.87
561.652	36860.19
561.851	37183.77
562.05	36272.43
562.249	36176.17
562.448	36667.69
562.647	36321.58
562.846	36456.75
563.045	36313.39
563.244	36305.2
563.443	36727.08
563.642	35934.51
563.841	36198.7
564.04	35979.57
564.239	36022.58
564.438	35793.2
564.637	36096.3
564.836	35885.36
565.035	35559.73
565.234	35621.17
565.432	36094.25
565.631	35588.41
565.83	35789.11
566.029	35111.23
566.228	35498.3
566.427	35000.64
566.625	35344.7
566.824	35082.56
567.023	35526.97
567.222	34515.27
567.42	35412.28
567.619	35193.15
567.818	35107.13
568.016	35160.38
568.215	35017.02
568.414	34767.17
568.612	34617.67
568.811	34572.61
569.01	35041.6
569.208	34109.77
569.407	34990.4
569.605	33937.74
569.804	35076.41
570.002	34126.16
570.201	34685.25
570.4	34103.63
570.598	33884.5
570.797	33896.78
570.995	34310.47
571.193	33734.99
571.392	33804.63
571.59	33585.49
571.789	33739.09
571.987	33532.25
572.186	33417.56
572.384	33665.36
572.582	33659.22
572.781	33571.16
572.979	33194.33
573.177	33259.87
573.376	33470.81
573.574	32676.19
573.772	32876.9
573.971	32803.17
574.169	32727.39
574.367	32659.81
574.565	32936.29
574.763	32674.15
574.962	32344.42
575.16	32213.35
575.358	32436.58
575.556	31795.57
575.754	32711.01
575.952	32082.28
576.151	32579.94
576.349	31760.75
576.547	31865.2
576.745	32000.37
576.943	32098.67
577.141	31752.56
577.339	31758.7
577.537	31674.74
577.735	31478.13
577.933	31207.8
578.131	31670.64
578.329	31144.31
578.527	31060.35
578.725	31388.02
578.923	31369.59
579.121	31037.82
579.319	30771.58
579.516	31181.18
579.714	30826.88
579.912	30577.03
580.11	30554.5
580.308	30681.47
580.506	30706.05
580.704	29976.97
580.901	30521.73
581.099	30511.49
581.297	30407.05
581.495	30302.6
581.692	30384.52
581.89	29850
582.088	30046.6
582.285	29796.75
582.483	30310.79
582.681	29981.07
582.878	29583.76
583.076	29540.75
583.274	29905.29
583.471	29016.47
583.669	29546.9
583.866	29546.9
584.064	29188.5
584.262	28907.93
584.459	29163.93
584.657	28920.22
584.854	29471.12
585.052	28696.99
585.249	28957.08
585.447	28942.75
585.644	28467.62
585.841	28516.77
586.039	28946.84
586.236	28156.33
586.434	28209.57
586.631	28334.5
586.828	28354.98
587.026	28250.53
587.223	27937.2
587.42	28037.55
587.618	28299.69
587.815	27658.67
588.012	27802.03
588.21	27998.63
588.407	27797.93
588.604	27711.92
588.801	27812.27
588.999	27496.88
589.196	27324.85
589.393	27277.75
589.59	27109.82
589.787	27277.75
589.984	27015.61
590.182	26458.56
590.379	27173.3
590.576	26839.48
590.773	27156.92
590.97	26563.01
591.167	26892.73
591.364	26476.99
591.561	26489.28
591.758	26438.08
591.955	26550.72
592.152	26450.37
592.349	26171.85
592.546	26108.36
592.743	26307.01
592.94	25702.86
593.137	26008.01
593.334	26341.83
593.531	25649.61
593.727	25790.92
593.924	25782.73
594.121	25528.78
594.318	25838.03
594.515	25364.95
594.712	25389.52
594.908	25405.91
595.105	25369.04
595.302	25053.66
595.499	25326.03
595.696	25248.21
595.892	25041.37
596.089	25092.57
596.286	25162.2
596.482	24805.85
596.679	24783.32
596.876	24816.09
597.072	24365.54
597.269	24465.89
597.466	24375.78
597.662	24566.24
597.859	24191.46
598.055	24392.16
598.252	24308.19
598.448	24056.29
598.645	24232.42
598.841	23661.04
599.038	24076.77
599.234	23663.08
599.431	23794.15
599.627	23726.57
599.824	23534.06
600.02	23220.72
600.217	23392.75
600.413	23464.43
600.609	23147
600.806	23185.91
601.002	23108.08
601.198	23157.24
601.395	23015.93
601.591	22952.44
601.787	23048.69
601.984	22530.56
602.18	23273.97
602.376	22841.85
602.572	22544.89
602.769	22520.32
602.965	22280.71
603.161	22723.07
603.357	22288.9
603.553	22020.61
603.75	22178.31
603.946	22004.23
604.142	22039.05
604.338	21772.81
604.534	22137.35
604.73	21871.11
604.926	21760.52
605.122	21864.97
605.318	21600.78
605.514	21586.44
605.71	21500.43
605.906	21434.89
606.102	21402.13
606.298	21676.55
606.494	21371.41
606.69	21570.06
606.886	21166.61
607.082	21375.5
607.278	21443.09
607.474	21074.45
607.67	21219.86
607.866	20736.54
608.062	21346.83
608.257	20937.24
608.453	21047.83
608.649	20890.13
608.845	20920.85
609.041	20730.39
609.236	20666.91
609.432	20802.07
609.628	20900.37
609.824	20548.12
610.019	20453.92
610.215	20566.56
610.411	20326.94
610.606	20331.04
610.802	20541.98
610.998	20339.23
611.193	20263.46
611.389	20412.96
611.584	20304.42
611.78	20144.67
611.976	20394.53
612.171	20300.32
612.367	20087.33
612.562	20081.19
612.758	19644.97
612.953	19784.23
613.149	20007.46
613.344	19708.46
613.539	20224.54
613.735	19923.49
613.93	19700.26
614.126	19450.41
614.321	19986.98
614.517	19741.22
614.712	19518
614.907	19647.02
615.103	19444.27
615.298	19405.36
615.493	19712.55
615.688	19272.24
615.884	19730.98
616.079	19026.48
616.274	19290.67
616.47	19317.29
616.665	19397.17
616.86	19094.07
617.055	19153.46
617.25	18991.67
617.445	19135.03
617.641	18659.9
617.836	19071.54
618.031	18905.65
618.226	19024.44
618.421	18831.93
618.616	18881.08
618.811	18639.42
619.006	18956.85
619.201	18297.41
619.396	18786.87
619.591	18129.47
619.786	18614.84
619.981	18096.71
620.176	18334.27
620.371	17801.8
620.566	17861.19
620.761	18291.26
620.956	18283.07
621.151	17742.41
621.346	17711.69
621.541	17519.18
621.735	17769.03
621.93	17414.73
622.125	17347.15
622.32	17193.55
622.515	17318.48
622.709	17244.75
622.904	16990.8
623.099	16921.17
623.294	17017.43
623.488	16730.71
623.683	16851.54
623.878	16517.72
624.072	16718.42
624.267	16589.4
624.462	16267.87
624.656	16450.14
624.851	16620.12
625.046	16233.05
625.24	15977.06
625.435	15819.36
625.629	15817.32
625.824	15643.24
626.018	15764.07
626.213	15518.31
626.407	15684.2
626.602	15477.35
626.796	15655.53
626.991	15563.37
627.185	15213.17
627.38	15192.69
627.574	14838.39
627.768	15053.42
627.963	14795.38
628.157	14578.29
628.352	14877.3
628.546	14600.82
628.74	14606.97
628.935	14586.49
629.129	14303.87
629.323	14418.55
629.517	14322.3
629.712	14049.92
629.906	14162.56
630.1	14086.78
630.294	14076.54
630.489	13976.19
630.683	13886.08
630.877	13726.34
631.071	13703.81
631.265	13951.62
631.459	13505.16
631.653	13453.96
631.848	13357.71
632.042	13326.99
632.236	13443.72
632.43	13058.7
632.624	13316.75
632.818	13226.64
633.012	12954.26
633.206	12735.12
633.4	12882.58
633.594	12866.19
633.788	12690.07
633.982	12731.03
634.176	12880.53
634.369	12354.2
634.563	12294.81
634.757	12288.67
634.951	12444.31
635.145	12319.39
635.339	12173.98
635.533	12094.11
635.726	12171.93
635.92	11840.16
636.114	12049.05
636.308	11809.44
636.501	12130.97
636.695	11877.02
636.889	11772.58
637.083	11512.49
637.276	11625.12
637.47	11405.99
637.664	11262.63
637.857	11553.45
638.051	11244.2
638.244	11260.59
638.438	11203.24
638.632	11053.74
638.825	10973.87
639.019	10947.25
639.212	11016.88
639.406	10961.58
639.599	10744.5
639.793	10883.76
639.986	10562.23
640.18	10615.48
640.373	10519.22
640.567	10476.21
640.76	10236.6
640.954	10341.05
641.147	10392.25
641.34	10255.03
641.534	10242.75
641.727	10115.77
641.92	10205.88
642.114	10326.71
642.307	9994.94
642.5	9923.26
642.694	9634.5
642.887	9751.23
643.08	10003.13
643.273	9720.51
643.467	9665.22
643.66	9421.51
643.853	9536.2
644.046	9413.32
644.239	9544.39
644.432	9536.2
644.626	9339.59
644.819	9134.79
645.012	9319.11
645.205	9280.2
645.398	9319.11
645.591	9022.16
645.784	9118.41
645.977	8989.39
646.17	9050.83
646.363	8954.57
646.556	8807.12
646.749	8739.54
646.942	8839.89
647.135	8671.95
647.328	8628.95
647.521	8803.02
647.714	8579.79
647.907	8633.04
648.099	8544.98
648.292	8518.36
648.485	8430.29
648.678	8538.84
648.871	8364.76
649.064	8258.26
649.256	8360.66
649.449	8135.39
649.642	8280.79
649.835	8139.48
650.027	8172.25
650.22	7908.06
650.413	8092.38
650.605	8053.47
650.798	7924.44
650.991	7850.72
651.183	7762.65
651.376	7912.16
651.568	7752.42
651.761	7564
651.954	7727.84
652.146	7656.16
652.339	7727.84
652.531	7582.43
652.724	7473.89
652.916	7416.55
653.109	7449.32
653.301	7580.39
653.494	7357.16
653.686	7226.09
653.879	7203.56
654.071	7324.39
654.263	7178.98
654.456	7232.23
654.648	7119.59
654.84	7029.48
655.033	7109.35
655.225	7000.81
655.417	6937.32
655.61	6955.76
655.802	6941.42
655.994	6982.38
656.186	6859.5
656.379	6777.58
656.571	6873.84
656.763	6636.27
656.955	6583.02
657.148	6644.46
657.34	6628.08
657.532	6515.44
657.724	6451.95
657.916	6413.04
658.108	6537.97
658.3	6425.33
658.492	6374.13
658.684	6130.42
658.876	6333.17
659.068	6333.17
659.26	6343.41
659.452	6431.48
659.644	6333.17
659.836	6107.9
660.028	6238.97
660.22	6103.8
660.412	6056.7
660.604	6028.03
660.796	5853.95
660.988	6087.42
661.18	5872.38
661.372	5847.8
661.563	5987.07
661.755	5804.8
661.947	5817.08
662.139	5899
662.331	5651.2
662.522	5671.68
662.714	5667.58
662.906	5669.63
663.097	5655.3
663.289	5522.18
663.481	5532.42
663.673	5681.92
663.864	5382.92
664.056	5427.97
664.247	5620.48
664.439	5438.21
664.631	5344
664.822	5356.29
665.014	5399.3
665.205	5294.85
665.397	5319.43
665.588	5366.53
665.78	5329.67
665.971	5378.82
666.163	5292.8
666.354	5169.93
666.546	5147.4
666.737	5051.14
666.929	5051.14
667.12	5288.71
667.311	5024.52
667.503	5092.1
667.694	5057.29
667.885	4915.98
668.077	4944.65
668.268	4760.33
668.459	4809.48
668.651	4954.89
668.842	4782.86
669.033	4864.78
669.224	4870.92
669.416	4938.51
669.607	4844.3
669.798	4659.98
669.989	4760.33
670.18	4768.52
670.371	4768.52
670.563	4645.65
670.754	4645.65
670.945	4612.88
671.136	4614.93
671.327	4516.62
671.518	4528.91
671.709	4610.83
671.9	4725.52
672.091	4557.58
672.282	4477.71
672.473	4444.95
672.664	4440.85
672.855	4479.76
673.046	4477.71
673.237	4490
673.428	4426.51
673.619	4416.27
673.809	4446.99
674	4240.15
674.191	4283.16
674.382	4375.31
674.573	4395.79
674.764	4344.6
674.954	4240.15
675.145	4166.42
675.336	4289.3
675.527	4160.28
675.717	4266.77
675.908	4209.43
676.099	4186.9
676.289	4178.71
676.48	4240.15
676.671	4135.7
676.861	4260.63
677.052	4156.18
677.243	4018.97
677.433	3971.86
677.624	4162.33
677.814	4123.41
678.005	4150.04
678.195	4002.58
678.386	4021.02
678.576	3922.71
678.767	4111.13
678.957	4000.54
679.148	4025.11
679.338	3978.01
679.529	3937.05
679.719	3818.27
679.909	3937.05
680.1	3912.47
680.29	4010.78
680.481	3975.96
680.671	3783.45
680.861	3857.18
681.052	3963.67
681.242	3791.64
681.432	3922.71
681.622	3803.93
681.813	3836.7
682.003	3900.19
682.193	3730.2
682.383	3830.55
682.573	3861.27
682.764	3832.6
682.954	3631.9
683.144	3625.76
683.334	3685.15
683.524	3693.34
683.714	3701.53
683.904	3578.65
684.094	3666.72
684.284	3709.72
684.474	3709.72
684.664	3742.49
684.854	3517.22
685.044	3592.99
685.234	3531.55
685.424	3752.73
685.614	3582.75
685.804	3498.78
685.994	3621.66
686.184	3545.89
686.374	3431.2
686.564	3468.06
686.753	3699.48
686.943	3529.5
687.133	3437.34
687.323	3341.09
687.513	3570.46
687.702	3400.48
687.892	3455.78
688.082	3269.41
688.272	3396.39
688.461	3355.43
688.651	3345.19
688.841	3314.47
689.03	3394.34
689.22	3253.03
689.41	3330.85
689.599	3193.64
689.789	3386.15
689.979	3326.75
690.168	3265.32
690.358	3195.68
690.547	3377.95
690.737	3210.02
690.926	3115.81
691.116	3083.05
691.305	3271.46
691.495	3085.09
691.684	3130.15
691.874	3224.36
692.063	2937.64
692.252	2997.03
692.442	3025.7
692.631	3070.76
692.82	2997.03
693.01	3003.18
693.199	3160.87
693.388	3031.85
693.578	2911.02
693.767	3056.42
693.956	3011.37
694.146	3017.51
694.335	2933.54
694.524	3037.99
694.713	2960.17
694.902	3058.47
695.092	2886.44
695.281	3003.18
695.47	2829.1
695.659	2921.26
695.848	2962.22
696.037	2917.16
696.226	2896.68
696.415	2855.72
696.604	2923.3
696.793	2874.15
696.982	2915.11
697.171	2878.25
697.36	2911.02
697.549	2880.3
697.738	2777.9
697.927	2872.11
698.116	2855.72
698.305	2827.05
698.494	2884.39
698.683	2933.54
698.872	2890.54
699.061	2880.3
699.25	2861.87
699.438	2868.01
699.627	2777.9
699.816	3035.94
700.005	2804.52
700.193	2929.45
700.382	2802.47
700.571	2759.47
700.76	2804.52
700.948	2847.53
701.137	2825
701.326	2814.76
701.514	2927.4
701.703	2894.63
701.892	2880.3
702.08	2765.61
702.269	2966.31
702.457	2906.92
702.646	2829.1
702.834	2822.95
703.023	2859.82
703.212	2800.43
703.4	2847.53
703.589	2841.39
703.777	2736.94
703.965	2751.28
704.154	2917.16
704.342	2751.28
704.531	2773.8
704.719	2839.34
704.907	2767.66
705.096	2736.94
705.284	2732.84
705.472	2833.19
705.661	2825
705.849	2773.8
706.037	2759.47
706.226	2816.81
706.414	2878.25
706.602	2827.05
706.79	2827.05
706.979	2730.8
707.167	2843.43
707.355	2706.22
707.543	2767.66
707.731	2812.71
707.919	2808.62
708.107	2745.13
708.296	2749.23
708.484	2685.74
708.672	2980.65
708.86	2796.33
709.048	2861.87
709.236	2689.84
709.424	2868.01
709.612	2784.04
709.8	2700.08
709.988	2751.28
710.176	2775.85
710.364	2767.66
710.551	2837.29
710.739	2736.94
710.927	2816.81
711.115	2847.53
711.303	2853.67
711.491	2800.43
711.679	2642.73
711.866	2747.18
712.054	2747.18
712.242	2689.84
712.43	2761.52
712.617	2847.53
712.805	2689.84
712.993	2671.4
713.181	2765.61
713.368	2702.12
713.556	2761.52
713.744	2665.26
713.931	2761.52
714.119	2847.53
714.306	2814.76
714.494	2587.44
714.682	2667.31
714.869	2593.58
715.057	2738.99
715.244	2767.66
715.432	2622.25
715.619	2769.71
715.807	2657.07
715.994	2513.71
716.182	2714.41
716.369	2755.37
716.556	2693.93
716.744	2698.03
716.931	2609.97
717.119	2652.97
717.306	2773.8
717.493	2642.73
717.681	2564.91
717.868	2644.78
718.055	2722.6
718.242	2730.8
718.43	2751.28
718.617	2751.28
718.804	2597.68
718.991	2728.75
719.179	2700.08
719.366	2771.76
719.553	2536.24
719.74	2720.56
719.927	2775.85
720.114	2603.82
720.301	2622.25
720.488	2652.97
720.676	2708.27
720.863	2636.59
721.05	2679.6
721.237	2628.4
721.424	2595.63
721.611	2573.1
721.798	2532.14
721.985	2571.05
722.172	2595.63
722.358	2612.01
722.545	2569.01
722.732	2677.55
722.919	2560.81
723.106	2652.97
723.293	2597.68
723.48	2634.54
723.667	2605.87
723.853	2585.39
724.04	2648.88
724.227	2454.32
724.414	2558.77
724.6	2581.29
724.787	2564.91
724.974	2493.23
725.161	2552.62
725.347	2493.23
725.534	2624.3
725.72	2564.91
725.907	2579.25
726.094	2431.79
726.28	2632.49
726.467	2394.93
726.653	2487.09
726.84	2540.33
727.027	2513.71
727.213	2427.7
727.4	2517.81
727.586	2540.33
727.773	2540.33
727.959	2603.82
728.145	2491.18
728.332	2427.7
728.518	2368.31
728.705	2427.7
728.891	2507.57
729.077	2452.27
729.264	2509.62
729.45	2431.79
729.636	2620.21
729.823	2485.04
730.009	2460.46
730.195	2421.55
730.382	2472.75
730.568	2419.5
730.754	2372.4
730.94	2448.18
731.126	2456.37
731.313	2474.8
731.499	2341.68
731.685	2417.46
731.871	2491.18
732.057	2409.26
732.243	2435.89
732.429	2419.5
732.615	2356.02
732.801	2288.43
732.987	2392.88
733.173	2280.24
733.359	2417.46
733.545	2407.22
733.731	2302.77
733.917	2474.8
734.103	2306.87
734.289	2439.98
734.475	2241.33
734.661	2401.07
734.847	2331.44
735.033	2370.35
735.219	2216.76
735.404	2345.78
735.59	2380.59
735.776	2294.58
735.962	2319.15
736.148	2310.96
736.333	2376.5
736.519	2192.18
736.705	2198.32
736.89	2333.49
737.076	2351.92
737.262	2229.04
737.447	2267.95
737.633	2212.66
737.819	2259.76
738.004	2317.11
738.19	2212.66
738.375	2300.72
738.561	2284.34
738.747	2257.71
738.932	2177.84
739.118	2231.09
739.303	2192.18
739.489	2179.89
739.674	2192.18
739.859	2075.45
740.045	2151.22
740.23	2210.61
740.416	2102.07
740.601	2255.67
740.786	2136.88
740.972	2143.03
741.157	2136.88
741.342	2036.53
741.528	2181.94
741.713	2200.37
741.898	2077.49
742.084	2124.6
742.269	2108.21
742.454	2003.77
742.639	2136.88
742.824	2100.02
743.01	1973.05
743.195	2143.03
743.38	2140.98
743.565	2048.82
743.75	2065.21
743.935	2018.1
744.12	2188.08
744.305	1946.42
744.49	1927.99
744.675	1868.6
744.86	1952.57
745.045	1887.03
745.23	1940.28
745.415	1901.37
745.6	1989.43
745.785	1923.9
745.97	1897.27
746.155	1874.74
746.34	1962.81
746.525	1835.83
746.71	1985.34
746.895	1764.15
747.079	1823.55
747.264	1839.93
747.449	1841.98
747.634	1768.25
747.819	1725.24
748.003	1792.83
748.188	1725.24
748.373	1688.38
748.557	1801.02
748.742	1788.73
748.927	1692.48
749.111	1733.43
749.296	1653.56
749.481	1741.63
749.665	1647.42
749.85	1665.85
750.034	1698.62
750.219	1532.73
750.404	1602.36
750.588	1592.13
750.773	1512.25
750.957	1606.46
751.141	1649.47
751.326	1553.21
751.51	1540.93
751.695	1555.26
751.879	1551.17
752.064	1661.76
752.248	1518.4
752.432	1555.26
752.617	1524.54
752.801	1389.38
752.985	1514.3
753.17	1381.18
753.354	1459.01
753.538	1489.73
753.722	1524.54
753.907	1364.8
754.091	1315.65
754.275	1364.8
754.459	1430.34
754.643	1332.03
754.828	1434.43
755.012	1407.81
755.196	1278.79
755.38	1430.34
755.564	1346.37
755.748	1319.75
755.932	1385.28
756.116	1211.2
756.3	1323.84
756.484	1280.83
756.668	1301.31
756.852	1293.12
757.036	1272.64
757.22	1272.64
757.404	1272.64
757.588	1217.35
757.772	1160
757.956	1168.2
758.14	1178.44
758.323	1117
758.507	1239.87
758.691	1194.82
758.875	1217.35
759.059	1149.76
759.242	1147.72
759.426	1071.94
759.61	1155.91
759.794	1143.62
759.977	1157.96
760.161	1170.24
760.345	1082.18
760.528	1129.28
760.712	1141.57
760.895	1133.38
761.079	1100.61
761.263	1088.32
761.446	938.82
761.63	1114.95
761.813	985.93
761.997	1049.41
762.18	1055.56
762.364	1096.52
762.547	1028.93
762.731	1141.57
762.914	1098.56
763.098	1076.04
763.281	1057.61
763.464	1082.18
763.648	1006.41
763.831	934.73
764.015	959.3
764.198	1026.89
764.381	979.78
764.564	998.21
764.748	926.54
764.931	1043.27
765.114	938.82
765.297	953.16
765.481	996.17
765.664	930.63
765.847	895.82
766.03	1073.99
766.213	944.97
766.397	955.21
766.58	844.62
766.763	920.39
766.946	865.1
767.129	957.25
767.312	834.38
767.495	930.63
767.678	928.58
767.861	895.82
768.044	850.76
768.227	928.58
768.41	869.19
768.593	879.43
768.776	815.94
768.959	899.91
769.142	897.86
769.324	824.14
769.507	899.91
769.69	742.22
769.873	891.72
770.056	844.62
770.239	826.18
770.421	879.43
770.604	809.8
770.787	774.99
770.97	828.23
771.152	799.56
771.335	875.34
771.518	846.66
771.7	815.94
771.883	797.51
772.066	791.37
772.248	752.46
772.431	756.55
772.613	787.27
772.796	758.6
772.978	789.32
773.161	736.07
773.343	801.61
773.526	686.92
773.708	744.27
773.891	652.11
774.073	707.4
774.256	748.36
774.438	666.44
774.621	746.31
774.803	768.84
774.985	713.55
775.168	760.65
775.35	613.2
775.532	779.08
775.715	652.11
775.897	678.73
776.079	609.1
776.261	648.01
776.444	674.64
776.626	633.68
776.808	695.11
776.99	664.4
777.173	654.16
777.355	639.82
777.537	615.24
777.719	697.16
777.901	559.95
778.083	633.68
778.265	523.09
778.447	615.24
778.629	582.48
778.811	627.53
778.993	576.33
779.175	596.81
779.357	617.29
779.539	645.96
779.721	633.68
779.903	523.09
780.085	633.68
780.267	576.33
780.449	518.99
780.631	494.41
780.812	613.2
780.994	535.37
781.176	475.98
781.358	553.8
781.54	531.28
781.721	545.61
781.903	496.46
782.085	451.41
782.267	543.57
782.448	533.33
782.63	488.27
782.812	420.69
782.993	551.76
783.175	453.45
783.357	428.88
783.538	494.41
783.72	490.32
783.901	437.07
784.083	471.89
784.264	478.03
784.446	457.55
784.627	418.64
784.809	506.7
784.99	533.33
785.172	451.41
785.353	455.5
785.535	414.54
785.716	428.88
785.897	457.55
786.079	408.4
786.26	449.36
786.441	428.88
786.623	394.06
786.804	394.06
786.985	412.5
787.167	363.34
787.348	361.3
787.529	326.48
787.71	418.64
787.891	408.4
788.073	322.38
788.254	367.44
788.435	379.73
788.616	420.69
788.797	310.1
788.978	404.3
789.159	312.14
789.34	387.92
789.522	324.43
789.703	344.91
789.884	377.68
790.065	387.92
790.246	361.3
790.427	355.15
790.607	408.4
790.788	455.5
790.969	232.27
791.15	367.44
791.331	334.67
791.512	332.62
791.693	279.38
791.874	375.63
792.054	449.36
792.235	336.72
792.416	238.42
792.597	334.67
792.778	314.19
792.958	314.19
793.139	406.35
793.32	219.99
793.5	324.43
793.681	328.53
793.862	271.19
794.042	273.23
794.223	312.14
794.404	271.19
794.584	267.09
794.765	326.48
794.945	246.61
795.126	273.23
795.306	330.58
795.487	332.62
795.667	222.03
795.848	312.14
796.028	277.33
796.209	361.3
796.389	254.8
796.57	336.72
796.75	199.51
796.93	219.99
797.111	306
797.291	310.1
797.471	262.99
797.652	232.27
797.832	269.14
798.012	238.42
798.192	226.13
798.373	269.14
798.553	318.29
798.733	297.81
798.913	156.5
799.093	283.47
799.274	285.52
799.454	101.2
799.634	254.8
799.814	179.03
799.994	265.04
800.174	195.41
800.354	230.23
800.534	207.7
800.714	254.8
800.894	189.27
801.074	201.55
801.254	164.69
801.434	222.03
801.614	228.18
801.794	127.83
801.974	658.25
802.154	258.9
802.334	226.13
802.514	228.18
802.693	217.94
802.873	148.31
803.053	260.95
803.233	172.88
803.413	207.7
803.592	201.55
803.772	189.27
803.952	129.88
804.131	195.41
804.311	181.07
804.491	172.88
804.67	297.81
804.85	197.46
805.03	119.64
805.209	262.99
805.389	189.27
805.568	254.8
805.748	142.16
805.928	148.31
806.107	168.79
806.287	166.74
806.466	234.32
806.646	224.08
806.825	240.47
807.004	105.3
807.184	187.22
807.363	166.74
807.543	205.65
807.722	148.31
807.901	131.92
808.081	189.27
808.26	121.68
808.439	215.89
808.619	174.93
808.798	228.18
808.977	164.69
809.156	187.22
809.336	197.46
809.515	205.65
809.694	185.17
809.873	197.46
810.052	217.94
810.231	242.51
810.411	125.78
810.59	172.88
810.769	181.07
810.948	176.98
811.127	172.88
811.306	88.92
811.485	158.55
811.664	234.32
811.843	181.07
812.022	170.83
812.201	191.31
812.38	181.07
812.559	154.45
812.737	217.94
812.916	179.03
813.095	152.4
813.274	193.36
813.453	115.54
813.632	76.63
813.811	209.75
813.989	117.59
814.168	146.26
814.347	168.79
814.526	179.03
814.704	183.12
814.883	105.3
815.062	170.83
815.24	127.83
815.419	183.12
815.598	211.79
815.776	117.59
815.955	166.74
816.133	129.88
816.312	125.78
816.49	121.68
816.669	97.11
816.847	111.44
817.026	129.88
817.204	123.73
817.383	142.16
817.561	152.4
817.74	144.21
817.918	90.96
818.097	68.44
818.275	88.92
818.453	193.36
818.632	156.5
818.81	117.59
818.988	78.68
819.167	191.31
819.345	156.5
819.523	76.63
819.701	195.41
819.879	156.5
820.058	74.58
820.236	115.54
820.414	133.97
820.592	86.87
820.77	146.26
820.948	162.64
821.127	58.2
821.305	70.48
821.483	45.91
821.661	158.55
821.839	219.99
822.017	158.55
822.195	86.87
822.373	99.16
822.551	146.26
822.729	90.96
822.907	146.26
823.085	138.07
823.262	76.63
823.44	111.44
823.618	82.77
823.796	43.86
823.974	78.68
824.152	52.05
824.329	80.72
824.507	50
824.685	97.11
824.863	97.11
825.04	70.48
825.218	117.59
825.396	86.87
825.574	109.4
825.751	111.44
825.929	99.16
826.107	97.11
826.284	105.3
826.462	95.06
826.639	107.35
826.817	70.48
826.994	88.92
827.172	74.58
827.349	84.82
827.527	138.07
827.704	72.53
827.882	107.35
828.059	99.16
828.237	7
828.414	45.91
828.591	64.34
828.769	72.53
828.946	103.25
829.124	119.64
829.301	131.92
829.478	105.3
829.655	105.3
829.833	82.77
830.01	109.4
830.187	33.62
830.364	50
830.542	78.68
830.719	103.25
830.896	52.05
831.073	50
831.25	41.81
831.427	58.2
831.604	39.76
831.782	58.2
831.959	119.64
832.136	58.2
832.313	113.49
832.49	80.72
832.667	93.01
832.844	80.72
833.021	95.06
833.198	78.68
833.374	107.35
833.551	123.73
833.728	115.54
833.905	78.68
834.082	123.73
834.259	54.1
834.436	88.92
834.612	97.11
834.789	101.2
834.966	41.81
835.143	72.53
835.319	93.01
835.496	144.21
835.673	90.96
835.85	150.36
836.026	54.1
836.203	103.25
836.38	90.96
836.556	82.77
836.733	21.33
836.909	78.68
837.086	54.1
837.262	-3.24
837.439	101.2
837.616	62.29
837.792	62.29
837.968	45.91
838.145	25.43
838.321	82.77
838.498	78.68
838.674	74.58
838.851	7
839.027	76.63
839.203	45.91
839.38	123.73
839.556	47.96
839.732	41.81
839.909	76.63
840.085	107.35
840.261	56.15
840.437	47.96
840.614	90.96
840.79	45.91
840.966	33.62
841.142	11.09
841.318	54.1
841.494	56.15
841.671	117.59
841.847	35.67
842.023	27.48
842.199	99.16
842.375	37.72
842.551	72.53
842.727	35.67
842.903	56.15
843.079	-33.96
843.255	101.2
843.431	54.1
843.607	23.38
843.783	2.9
843.959	-15.53
844.134	43.86
844.31	76.63
844.486	21.33
844.662	52.05
844.838	45.91
845.013	58.2
845.189	-36.01
845.365	113.49
845.541	52.05
845.716	72.53
845.892	97.11
846.068	13.14
846.244	60.24
846.419	37.72
846.595	33.62
846.77	15.19
846.946	-3.24
847.122	13.14
847.297	64.34
847.473	93.01
847.648	66.39
847.824	76.63
847.999	43.86
848.175	7
848.35	74.58
848.526	115.54
848.701	66.39
848.876	-11.43
849.052	33.62
849.227	88.92
849.403	68.44
849.578	60.24
849.753	80.72
849.929	74.58
850.104	25.43
850.279	-17.58
850.454	62.29
850.63	72.53
850.805	47.96
850.98	62.29
851.155	47.96
851.33	54.1
851.505	47.96
851.681	78.68
851.856	90.96
852.031	29.52
852.206	43.86
852.381	33.62
852.556	82.77
852.731	93.01
852.906	33.62
853.081	78.68
853.256	109.4
853.431	13.14
853.606	-54.44
853.781	-11.43
853.956	33.62
854.131	35.67
854.305	39.76
854.48	74.58
854.655	23.38
854.83	-23.72
855.005	54.1
855.18	23.38
855.354	-23.72
855.529	95.06
855.704	-5.29
855.879	37.72
856.053	-1.19
856.228	76.63
856.403	52.05
856.577	21.33
856.752	25.43
856.926	58.2
857.101	58.2
857.276	52.05
857.45	52.05
857.625	25.43
857.799	25.43
857.974	47.96
858.148	-33.96
858.323	-25.77
858.497	43.86
858.672	33.62
858.846	54.1
859.02	-1.19
859.195	29.52
859.369	99.16
859.543	-9.39
859.718	-9.39
859.892	60.24
860.066	58.2
860.241	43.86
860.415	-9.39
860.589	74.58
860.763	11.09
860.938	84.82
861.112	-5.29
861.286	11.09
861.46	76.63
861.634	78.68
861.808	45.91
861.982	-13.48
862.157	43.86
862.331	13.14
862.505	-48.3
862.679	-11.43
862.853	-23.72
863.027	50
863.201	52.05
863.375	33.62
863.549	29.52
863.722	-31.91
863.896	58.2
864.07	68.44
864.244	43.86
864.418	62.29
864.592	25.43
864.766	80.72
864.939	37.72
865.113	-5.29
865.287	11.09
865.461	-38.06
865.634	27.48
865.808	37.72
865.982	13.14
866.156	54.1
866.329	27.48
866.503	33.62
866.676	97.11
866.85	-44.2
867.024	66.39
867.197	45.91
867.371	45.91
867.544	9.05
867.718	-11.43
867.891	56.15
868.065	-13.48
868.238	84.82
868.412	-36.01
868.585	99.16
868.759	2.9
868.932	99.16
869.105	-1.19
869.279	-13.48
869.452	-40.11
869.625	-9.39
869.799	41.81
869.972	-13.48
870.145	-17.58
870.319	70.48
870.492	50
870.665	64.34
870.838	54.1
871.011	4.95
871.185	43.86
871.358	-27.82
871.531	-54.44
871.704	25.43
871.877	64.34
872.05	17.24
872.223	-13.48
872.396	-5.29
872.569	13.14
872.742	-17.58
872.915	11.09
873.088	9.05
873.261	-23.72
873.434	50
873.607	15.19
873.78	-31.91
873.953	23.38
874.126	-81.07
874.299	9.05
874.471	25.43
874.644	-38.06
874.817	13.14
874.99	25.43
875.163	-1.19
875.335	56.15
875.508	33.62
875.681	97.11
875.853	47.96
876.026	39.76
876.199	-36.01
876.371	0.85
876.544	-52.39
876.717	2.9
876.889	0.85
877.062	-5.29
877.234	58.2
877.407	25.43
877.579	33.62
877.752	66.39
877.924	62.29
878.097	45.91
878.269	15.19
878.442	-52.39
878.614	-62.63
878.786	47.96
878.959	58.2
879.131	2.9
879.303	17.24
879.476	72.53
879.648	0.85
879.82	35.67
879.993	-17.58
880.165	-17.58
880.337	-11.43
880.509	58.2
880.681	-27.82
880.854	-25.77
881.026	7
881.198	35.67
881.37	-36.01
881.542	-19.63
881.714	33.62
881.886	25.43
882.058	13.14
882.23	47.96
882.402	-36.01
882.574	19.29
882.746	-23.72
882.918	23.38
883.09	60.24
883.262	76.63
883.434	33.62
883.606	11.09
883.778	-31.91
883.95	-3.24
884.122	13.14
884.293	-33.96
884.465	-9.39
884.637	47.96
884.809	-17.58
884.98	41.81
885.152	-19.63
885.324	19.29
885.496	52.05
885.667	31.57
885.839	-31.91
886.011	19.29
886.182	-31.91
886.354	52.05
886.525	7
886.697	95.06
886.869	13.14
887.04	47.96
887.212	29.52
887.383	23.38
887.555	-33.96
887.726	-83.11
887.897	31.57
888.069	15.19
888.24	58.2
888.412	21.33
888.583	-1.19
888.754	-5.29
888.926	-33.96
889.097	-54.44
889.268	13.14
889.44	84.82
889.611	21.33
889.782	-29.87
889.953	0.85
890.125	113.49
890.296	-54.44
890.467	-5.29
890.638	13.14
890.809	35.67
890.98	-42.15
891.151	-1.19
891.323	58.2
891.494	-93.35
891.665	9.05
891.836	-40.11
892.007	35.67
892.178	93.01
892.349	-44.2
892.52	27.48
892.691	29.52
892.862	-3.24
893.032	-17.58
893.203	29.52
893.374	-27.82
893.545	70.48
893.716	-27.82
893.887	7
894.057	-46.25
894.228	-50.35
894.399	7
894.57	-1.19
894.74	4.95
894.911	-7.34
895.082	58.2
895.253	27.48
895.423	-21.67
895.594	39.76
895.764	37.72
895.935	-1.19
896.106	33.62
896.276	43.86
896.447	-1.19
896.617	-7.34
896.788	9.05
896.958	-27.82
897.129	-3.24
897.299	-9.39
897.47	54.1
897.64	52.05
897.81	-21.67
897.981	-27.82
898.151	-3.24
898.322	17.24
898.492	72.53
898.662	-9.39
898.832	23.38
899.003	7
899.173	-5.29
899.343	-38.06
899.513	-40.11
