Data from USB4F104151__53__12-01-41-189.txt Node

Date: Fri Mar 14 12:01:41 EDT 2025
User: louis
Spectrometer: USB4F10415
Trigger mode: 4
Integration Time (sec): 2.000000E-2
Scans to average: 1
Electric dark correction enabled: true
Nonlinearity correction enabled: false
Boxcar width: 0
XAxis mode: Wavelengths
Number of Pixels in Spectrum: 3648
>>>>>Begin Spectral Data<<<<<
178.204	-67.41
178.424	-67.41
178.644	-67.41
178.864	-87.89
179.084	-55.12
179.304	-51.03
179.524	20.65
179.744	-16.21
179.964	-5.97
180.184	51.37
180.404	59.56
180.624	-28.5
180.844	18.6
181.064	-69.46
181.283	34.99
181.503	-36.69
181.723	22.7
181.943	43.18
182.163	12.46
182.383	32.94
182.602	86.19
182.822	65.71
183.042	-26.45
183.262	20.65
183.482	51.37
183.701	-8.02
183.921	57.51
184.141	37.03
184.361	41.13
184.58	-1.88
184.8	26.79
185.02	-57.17
185.239	-28.5
185.459	20.65
185.679	28.84
185.898	-38.74
186.118	63.66
186.338	-91.99
186.557	34.99
186.777	-40.79
186.997	45.23
187.216	43.18
187.436	147.62
187.655	45.23
187.875	45.23
188.095	-1.88
188.314	39.08
188.534	53.42
188.753	-28.5
188.973	-22.36
189.192	2.22
189.412	43.18
189.631	65.71
189.851	26.79
190.07	63.66
190.29	47.27
190.509	4.27
190.729	6.31
190.948	71.85
191.168	94.38
191.387	96.43
191.607	0.17
191.826	51.37
192.045	24.75
192.265	-8.02
192.484	-22.36
192.704	-51.03
192.923	92.33
193.142	26.79
193.362	73.9
193.581	104.62
193.8	104.62
194.02	22.7
194.239	-5.97
194.458	-16.21
194.678	4.27
194.897	-18.26
195.116	-18.26
195.335	-1.88
195.555	10.41
195.774	37.03
195.993	92.33
196.212	16.55
196.432	-10.07
196.651	-12.12
196.87	45.23
197.089	41.13
197.308	14.51
197.528	94.38
197.747	-36.69
197.966	16.55
198.185	26.79
198.404	106.67
198.623	-5.97
198.842	12.46
199.062	94.38
199.281	26.79
199.5	57.51
199.719	-3.93
199.938	-3.93
200.157	24.75
200.376	57.51
200.595	67.75
200.814	86.19
201.033	-26.45
201.252	82.09
201.471	43.18
201.69	71.85
201.909	123.05
202.128	59.56
202.347	45.23
202.566	30.89
202.785	77.99
203.004	2.22
203.223	86.19
203.442	-8.02
203.661	22.7
203.879	84.14
204.098	30.89
204.317	2.22
204.536	92.33
204.755	80.04
204.974	-18.26
205.193	16.55
205.411	55.47
205.63	-18.26
205.849	51.37
206.068	75.95
206.287	6.31
206.505	55.47
206.724	80.04
206.943	-22.36
207.162	96.43
207.381	49.32
207.599	22.7
207.818	-26.45
208.037	65.71
208.255	71.85
208.474	80.04
208.693	45.23
208.911	55.47
209.13	-1.88
209.349	86.19
209.567	0.17
209.786	-16.21
210.005	-26.45
210.223	-14.17
210.442	34.99
210.661	51.37
210.879	55.47
211.098	14.51
211.316	34.99
211.535	26.79
211.753	22.7
211.972	53.42
212.191	14.51
212.409	32.94
212.628	2.22
212.846	49.32
213.065	49.32
213.283	-1.88
213.502	32.94
213.72	45.23
213.938	-40.79
214.157	30.89
214.375	108.71
214.594	51.37
214.812	32.94
215.031	-10.07
215.249	55.47
215.467	-8.02
215.686	32.94
215.904	39.08
216.122	28.84
216.341	55.47
216.559	159.91
216.778	73.9
216.996	10.41
217.214	22.7
217.432	41.13
217.651	-1.88
217.869	16.55
218.087	77.99
218.306	55.47
218.524	59.56
218.742	-20.31
218.96	135.34
219.179	6.31
219.397	45.23
219.615	34.99
219.833	37.03
220.051	-5.97
220.27	67.75
220.488	8.36
220.706	80.04
220.924	51.37
221.142	2.22
221.36	77.99
221.578	45.23
221.796	-26.45
222.015	102.57
222.233	-8.02
222.451	32.94
222.669	59.56
222.887	43.18
223.105	-16.21
223.323	-34.64
223.541	-1.88
223.759	86.19
223.977	94.38
224.195	88.23
224.413	43.18
224.631	80.04
224.849	-20.31
225.067	75.95
225.285	71.85
225.503	51.37
225.721	-30.55
225.939	86.19
226.157	2.22
226.375	112.81
226.592	75.95
226.81	0.17
227.028	-40.79
227.246	112.81
227.464	6.31
227.682	82.09
227.9	24.75
228.117	-10.07
228.335	-20.31
228.553	-12.12
228.771	24.75
228.989	8.36
229.206	-36.69
229.424	-3.93
229.642	-8.02
229.86	30.89
230.077	30.89
230.295	37.03
230.513	20.65
230.731	77.99
230.948	92.33
231.166	61.61
231.384	22.7
231.601	41.13
231.819	12.46
232.037	22.7
232.254	14.51
232.472	57.51
232.689	-5.97
232.907	59.56
233.125	73.9
233.342	59.56
233.56	26.79
233.777	2.22
233.995	69.8
234.213	47.27
234.43	77.99
234.648	100.52
234.865	59.56
235.083	59.56
235.3	-5.97
235.518	100.52
235.735	69.8
235.953	65.71
236.17	-1.88
236.388	22.7
236.605	37.03
236.822	-3.93
237.04	82.09
237.257	53.42
237.475	43.18
237.692	71.85
237.909	69.8
238.127	10.41
238.344	-28.5
238.562	102.57
238.779	28.84
238.996	45.23
239.214	77.99
239.431	57.51
239.648	-81.75
239.865	61.61
240.083	67.75
240.3	-36.69
240.517	77.99
240.735	8.36
240.952	30.89
241.169	133.29
241.386	65.71
241.603	82.09
241.821	-1.88
242.038	127.14
242.255	53.42
242.472	22.7
242.689	-10.07
242.907	24.75
243.124	-26.45
243.341	49.32
243.558	24.75
243.775	22.7
243.992	-98.13
244.209	100.52
244.426	39.08
244.643	8.36
244.86	18.6
245.078	75.95
245.295	73.9
245.512	88.23
245.729	-36.69
245.946	10.41
246.163	-20.31
246.38	16.55
246.597	10.41
246.814	65.71
247.031	6.31
247.248	96.43
247.464	49.32
247.681	-5.97
247.898	34.99
248.115	67.75
248.332	53.42
248.549	75.95
248.766	43.18
248.983	59.56
249.2	94.38
249.417	-16.21
249.633	-44.88
249.85	55.47
250.067	65.71
250.284	2.22
250.501	75.95
250.717	24.75
250.934	108.71
251.151	-5.97
251.368	86.19
251.585	121
251.801	71.85
252.018	47.27
252.235	53.42
252.451	24.75
252.668	20.65
252.885	16.55
253.102	8.36
253.318	77.99
253.535	8.36
253.752	6.31
253.968	-3.93
254.185	16.55
254.401	26.79
254.618	57.51
254.835	8.36
255.051	12.46
255.268	2.22
255.484	51.37
255.701	30.89
255.917	102.57
256.134	39.08
256.351	75.95
256.567	4.27
256.784	20.65
257	6.31
257.217	32.94
257.433	22.7
257.65	32.94
257.866	65.71
258.082	-1.88
258.299	80.04
258.515	12.46
258.732	77.99
258.948	67.75
259.165	8.36
259.381	86.19
259.597	-16.21
259.814	32.94
260.03	26.79
260.246	77.99
260.463	37.03
260.679	139.43
260.895	14.51
261.112	-3.93
261.328	32.94
261.544	47.27
261.761	102.57
261.977	59.56
262.193	63.66
262.409	73.9
262.626	100.52
262.842	47.27
263.058	84.14
263.274	86.19
263.49	75.95
263.707	-16.21
263.923	86.19
264.139	-94.04
264.355	84.14
264.571	86.19
264.787	73.9
265.004	86.19
265.22	8.36
265.436	-22.36
265.652	-51.03
265.868	45.23
266.084	47.27
266.3	102.57
266.516	39.08
266.732	24.75
266.948	37.03
267.164	-36.69
267.38	-34.64
267.596	39.08
267.812	8.36
268.028	102.57
268.244	55.47
268.46	39.08
268.676	65.71
268.892	45.23
269.108	80.04
269.324	100.52
269.54	71.85
269.756	55.47
269.972	61.61
270.188	82.09
270.403	43.18
270.619	88.23
270.835	30.89
271.051	61.61
271.267	82.09
271.483	88.23
271.698	43.18
271.914	6.31
272.13	67.75
272.346	18.6
272.562	84.14
272.777	4.27
272.993	-12.12
273.209	63.66
273.425	65.71
273.64	55.47
273.856	0.17
274.072	88.23
274.287	-22.36
274.503	12.46
274.719	37.03
274.934	4.27
275.15	-8.02
275.366	-22.36
275.581	-12.12
275.797	30.89
276.012	20.65
276.228	73.9
276.444	-36.69
276.659	96.43
276.875	4.27
277.09	49.32
277.306	77.99
277.521	39.08
277.737	51.37
277.952	94.38
278.168	51.37
278.383	39.08
278.599	28.84
278.814	73.9
279.03	65.71
279.245	69.8
279.461	24.75
279.676	51.37
279.892	-3.93
280.107	20.65
280.322	45.23
280.538	24.75
280.753	71.85
280.969	24.75
281.184	-1.88
281.399	118.95
281.615	41.13
281.83	30.89
282.045	-28.5
282.26	4.27
282.476	73.9
282.691	106.67
282.906	65.71
283.122	49.32
283.337	16.55
283.552	22.7
283.767	41.13
283.983	-18.26
284.198	-5.97
284.413	34.99
284.628	14.51
284.843	-10.07
285.058	26.79
285.274	96.43
285.489	32.94
285.704	26.79
285.919	-34.64
286.134	51.37
286.349	-57.17
286.564	-22.36
286.779	65.71
286.995	12.46
287.21	80.04
287.425	-32.6
287.64	-77.65
287.855	34.99
288.07	14.51
288.285	39.08
288.5	34.99
288.715	65.71
288.93	-26.45
289.145	26.79
289.36	2.22
289.575	53.42
289.79	61.61
290.004	37.03
290.219	26.79
290.434	-1.88
290.649	6.31
290.864	77.99
291.079	-14.17
291.294	47.27
291.509	26.79
291.724	41.13
291.938	45.23
292.153	49.32
292.368	-14.17
292.583	88.23
292.798	67.75
293.012	20.65
293.227	49.32
293.442	75.95
293.657	59.56
293.871	94.38
294.086	-36.69
294.301	88.23
294.516	61.61
294.73	63.66
294.945	86.19
295.16	55.47
295.374	102.57
295.589	77.99
295.804	8.36
296.018	71.85
296.233	41.13
296.447	30.89
296.662	-14.17
296.877	90.28
297.091	116.9
297.306	-5.97
297.52	12.46
297.735	20.65
297.949	-42.84
298.164	63.66
298.378	2.22
298.593	-5.97
298.807	37.03
299.022	110.76
299.236	-28.5
299.451	24.75
299.665	34.99
299.88	73.9
300.094	59.56
300.309	82.09
300.523	47.27
300.737	116.9
300.952	24.75
301.166	125.1
301.381	69.8
301.595	6.31
301.809	-20.31
302.024	90.28
302.238	26.79
302.452	39.08
302.667	45.23
302.881	39.08
303.095	57.51
303.309	63.66
303.524	145.58
303.738	30.89
303.952	45.23
304.166	73.9
304.381	-10.07
304.595	53.42
304.809	86.19
305.023	47.27
305.237	22.7
305.452	18.6
305.666	55.47
305.88	69.8
306.094	57.51
306.308	47.27
306.522	118.95
306.736	8.36
306.95	73.9
307.164	47.27
307.379	-3.93
307.593	71.85
307.807	45.23
308.021	10.41
308.235	55.47
308.449	39.08
308.663	10.41
308.877	86.19
309.091	22.7
309.305	41.13
309.519	8.36
309.733	18.6
309.947	82.09
310.161	86.19
310.374	141.48
310.588	37.03
310.802	-3.93
311.016	37.03
311.23	43.18
311.444	45.23
311.658	-1.88
311.872	102.57
312.085	90.28
312.299	104.62
312.513	22.7
312.727	73.9
312.941	16.55
313.154	67.75
313.368	-1.88
313.582	37.03
313.796	69.8
314.009	20.65
314.223	32.94
314.437	28.84
314.651	32.94
314.864	28.84
315.078	34.99
315.292	22.7
315.505	71.85
315.719	12.46
315.933	112.81
316.146	37.03
316.36	20.65
316.573	14.51
316.787	18.6
317.001	41.13
317.214	57.51
317.428	-8.02
317.641	16.55
317.855	63.66
318.068	28.84
318.282	-42.84
318.495	94.38
318.709	69.8
318.922	67.75
319.136	129.19
319.349	73.9
319.563	118.95
319.776	28.84
319.99	69.8
320.203	59.56
320.417	26.79
320.63	90.28
320.843	143.53
321.057	37.03
321.27	51.37
321.483	57.51
321.697	-20.31
321.91	12.46
322.124	100.52
322.337	73.9
322.55	86.19
322.763	14.51
322.977	18.6
323.19	2.22
323.403	75.95
323.617	75.95
323.83	4.27
324.043	2.22
324.256	39.08
324.469	-5.97
324.683	73.9
324.896	51.37
325.109	32.94
325.322	28.84
325.535	121
325.748	18.6
325.962	0.17
326.175	2.22
326.388	26.79
326.601	114.86
326.814	-14.17
327.027	12.46
327.24	88.23
327.453	86.19
327.666	84.14
327.879	49.32
328.092	20.65
328.305	55.47
328.518	-20.31
328.731	43.18
328.944	34.99
329.157	84.14
329.37	77.99
329.583	141.48
329.796	114.86
330.009	69.8
330.222	-48.98
330.435	114.86
330.648	63.66
330.861	-26.45
331.073	61.61
331.286	73.9
331.499	96.43
331.712	65.71
331.925	73.9
332.138	34.99
332.35	45.23
332.563	49.32
332.776	141.48
332.989	65.71
333.202	49.32
333.414	108.71
333.627	0.17
333.84	43.18
334.053	71.85
334.265	75.95
334.478	59.56
334.691	55.47
334.903	98.47
335.116	51.37
335.329	57.51
335.541	67.75
335.754	131.24
335.966	86.19
336.179	88.23
336.392	55.47
336.604	57.51
336.817	47.27
337.029	94.38
337.242	-30.55
337.454	88.23
337.667	-14.17
337.88	37.03
338.092	75.95
338.305	0.17
338.517	0.17
338.729	71.85
338.942	63.66
339.154	6.31
339.367	6.31
339.579	59.56
339.792	75.95
340.004	94.38
340.217	45.23
340.429	108.71
340.641	18.6
340.854	59.56
341.066	-14.17
341.278	59.56
341.491	88.23
341.703	75.95
341.915	-1.88
342.128	24.75
342.34	88.23
342.552	59.56
342.764	-8.02
342.977	94.38
343.189	67.75
343.401	84.14
343.613	65.71
343.826	96.43
344.038	55.47
344.25	116.9
344.462	28.84
344.674	30.89
344.886	18.6
345.099	49.32
345.311	-24.4
345.523	41.13
345.735	18.6
345.947	8.36
346.159	-44.88
346.371	39.08
346.583	18.6
346.795	59.56
347.007	28.84
347.219	43.18
347.431	51.37
347.643	100.52
347.855	43.18
348.067	37.03
348.279	-5.97
348.491	-20.31
348.703	-18.26
348.915	98.47
349.127	43.18
349.339	75.95
349.551	104.62
349.763	92.33
349.975	12.46
350.187	100.52
350.399	131.24
350.61	55.47
350.822	59.56
351.034	100.52
351.246	77.99
351.458	133.29
351.669	73.9
351.881	41.13
352.093	63.66
352.305	75.95
352.517	20.65
352.728	63.66
352.94	123.05
353.152	63.66
353.363	110.76
353.575	34.99
353.787	92.33
353.999	67.75
354.21	137.38
354.422	77.99
354.633	30.89
354.845	82.09
355.057	12.46
355.268	86.19
355.48	82.09
355.692	26.79
355.903	61.61
356.115	65.71
356.326	8.36
356.538	82.09
356.749	90.28
356.961	57.51
357.172	16.55
357.384	26.79
357.595	77.99
357.807	75.95
358.018	18.6
358.23	135.34
358.441	71.85
358.653	61.61
358.864	47.27
359.075	45.23
359.287	-14.17
359.498	16.55
359.709	37.03
359.921	10.41
360.132	49.32
360.344	84.14
360.555	28.84
360.766	92.33
360.977	6.31
361.189	88.23
361.4	-26.45
361.611	73.9
361.823	63.66
362.034	39.08
362.245	41.13
362.456	82.09
362.667	63.66
362.879	71.85
363.09	30.89
363.301	22.7
363.512	94.38
363.723	47.27
363.935	53.42
364.146	59.56
364.357	34.99
364.568	41.13
364.779	-10.07
364.99	41.13
365.201	-8.02
365.412	92.33
365.623	100.52
365.834	86.19
366.045	69.8
366.256	96.43
366.467	82.09
366.678	65.71
366.889	51.37
367.1	77.99
367.311	63.66
367.522	94.38
367.733	34.99
367.944	71.85
368.155	86.19
368.366	51.37
368.577	39.08
368.788	65.71
368.999	102.57
369.209	41.13
369.42	108.71
369.631	116.9
369.842	86.19
370.053	102.57
370.264	90.28
370.474	39.08
370.685	28.84
370.896	51.37
371.107	125.1
371.317	110.76
371.528	77.99
371.739	127.14
371.95	55.47
372.16	135.34
372.371	-48.98
372.582	24.75
372.792	69.8
373.003	55.47
373.214	37.03
373.424	47.27
373.635	0.17
373.846	159.91
374.056	112.81
374.267	86.19
374.477	30.89
374.688	92.33
374.898	65.71
375.109	75.95
375.319	69.8
375.53	73.9
375.74	71.85
375.951	104.62
376.161	71.85
376.372	43.18
376.582	34.99
376.793	37.03
377.003	71.85
377.214	16.55
377.424	77.99
377.635	96.43
377.845	41.13
378.055	-44.88
378.266	16.55
378.476	59.56
378.686	61.61
378.897	49.32
379.107	77.99
379.317	16.55
379.528	86.19
379.738	92.33
379.948	47.27
380.158	92.33
380.369	30.89
380.579	57.51
380.789	10.41
380.999	116.9
381.21	37.03
381.42	116.9
381.63	86.19
381.84	8.36
382.05	59.56
382.261	80.04
382.471	127.14
382.681	51.37
382.891	61.61
383.101	53.42
383.311	116.9
383.521	53.42
383.731	98.47
383.941	73.9
384.151	41.13
384.361	6.31
384.571	65.71
384.781	88.23
384.991	39.08
385.201	86.19
385.411	108.71
385.621	106.67
385.831	-16.21
386.041	24.75
386.251	133.29
386.461	77.99
386.671	92.33
386.881	102.57
387.091	39.08
387.301	104.62
387.511	88.23
387.72	69.8
387.93	4.27
388.14	73.9
388.35	108.71
388.56	133.29
388.769	104.62
388.979	133.29
389.189	61.61
389.399	100.52
389.609	59.56
389.818	104.62
390.028	26.79
390.238	110.76
390.447	49.32
390.657	75.95
390.867	49.32
391.076	53.42
391.286	37.03
391.496	127.14
391.705	80.04
391.915	149.67
392.125	127.14
392.334	59.56
392.544	100.52
392.753	121
392.963	28.84
393.172	170.15
393.382	69.8
393.591	137.38
393.801	28.84
394.01	133.29
394.22	106.67
394.429	108.71
394.639	127.14
394.848	73.9
395.058	131.24
395.267	94.38
395.477	67.75
395.686	86.19
395.895	125.1
396.105	147.62
396.314	121
396.524	57.51
396.733	20.65
396.942	118.95
397.152	161.96
397.361	114.86
397.57	102.57
397.78	143.53
397.989	116.9
398.198	145.58
398.407	116.9
398.617	147.62
398.826	86.19
399.035	143.53
399.244	112.81
399.453	104.62
399.663	164.01
399.872	137.38
400.081	116.9
400.29	180.39
400.499	131.24
400.708	176.3
400.917	112.81
401.127	86.19
401.336	129.19
401.545	174.25
401.754	178.34
401.963	106.67
402.172	141.48
402.381	82.09
402.59	131.24
402.799	172.2
403.008	166.06
403.217	209.06
403.426	147.62
403.635	96.43
403.844	198.82
404.053	125.1
404.262	123.05
404.471	178.34
404.68	145.58
404.888	172.2
405.097	213.16
405.306	207.02
405.515	178.34
405.724	161.96
405.933	221.35
406.142	209.06
406.35	233.64
406.559	256.17
406.768	211.11
406.977	313.51
407.185	213.16
407.394	231.59
407.603	256.17
407.812	182.44
408.02	293.03
408.229	243.88
408.438	252.07
408.646	342.18
408.855	340.13
409.064	252.07
409.272	381.09
409.481	407.72
409.69	327.85
409.898	366.76
410.107	426.15
410.315	391.33
410.524	420
410.733	471.2
410.941	424.1
411.15	420
411.358	503.97
411.567	544.93
411.775	477.35
411.984	473.25
412.192	501.92
412.401	546.98
412.609	475.3
412.818	620.71
413.026	546.98
413.234	596.13
413.443	645.28
413.651	661.66
413.86	684.19
414.068	798.88
414.276	772.25
414.485	719.01
414.693	762.02
414.901	901.28
415.11	878.75
415.318	821.41
415.526	878.75
415.734	934.04
415.943	956.57
416.151	1122.46
416.359	985.24
416.567	1011.87
416.776	1161.37
416.984	1153.18
417.192	1233.05
417.4	1206.42
417.608	1202.33
417.817	1329.3
418.025	1439.89
418.233	1380.5
418.441	1343.64
418.649	1405.08
418.857	1515.67
419.065	1581.2
419.273	1577.11
419.481	1706.13
419.689	1738.9
419.897	1865.87
420.105	1880.21
420.313	1765.52
420.521	2046.09
420.729	1945.74
420.937	2103.43
421.145	2085
421.353	2320.52
421.561	2349.19
421.769	2422.92
421.977	2404.49
422.185	2642.05
422.393	2719.87
422.601	2826.37
422.809	2852.99
423.017	2842.75
423.224	3027.07
423.432	3090.56
423.64	3108.99
423.848	3438.71
424.056	3328.12
424.263	3602.55
424.471	3602.55
424.679	3696.75
424.887	3973.23
425.094	3926.13
425.302	3979.37
425.51	4120.68
425.718	4214.89
425.925	4227.18
426.133	4429.93
426.341	4763.75
426.548	4835.42
426.756	4909.15
426.964	4905.06
427.171	5249.11
427.379	5357.66
427.586	5402.71
427.794	5703.76
428.001	5902.42
428.209	6209.61
428.417	6238.28
428.624	6551.62
428.832	6592.58
429.039	6525
429.247	6441.03
429.454	7262.27
429.662	7620.66
429.869	7084.09
430.076	7538.74
430.284	7522.36
430.491	7596.09
430.699	8507.43
430.906	8282.16
431.114	8341.55
431.321	8470.57
431.528	8843.3
431.736	9248.8
431.943	9582.62
432.15	9519.13
432.358	9691.16
432.565	10176.53
432.772	10149.9
432.979	10588.17
433.187	10627.08
433.394	10833.93
433.601	11476.99
433.808	11714.55
434.016	11485.18
434.223	12109.81
434.43	12652.52
434.637	12437.48
434.844	13180.9
435.052	13572.06
435.259	13524.96
435.466	13467.61
435.673	13357.02
435.88	14389.2
436.087	15144.9
436.294	15140.8
436.501	14526.41
436.708	14972.87
436.915	15581.12
437.122	15931.32
437.329	16195.51
437.537	16811.95
437.743	17086.37
437.95	16852.91
438.157	17745.82
438.364	18360.21
438.571	18405.27
438.778	18556.82
438.985	20084.6
439.192	19199.88
439.399	20023.16
439.606	19406.72
439.813	20715.37
440.02	22067.03
440.227	21532.51
440.433	21417.83
440.64	22132.57
440.847	21931.87
441.054	22458.2
441.261	24041.28
441.467	23670.59
441.674	24356.66
441.881	24954.67
442.088	25108.27
442.294	24805.17
442.501	25591.59
442.708	26001.18
442.914	27111.18
443.121	28249.85
443.328	27186.96
443.534	29431.53
443.741	28350.2
443.948	27692.8
444.154	30215.9
444.361	30060.26
444.568	30365.4
444.774	30127.84
444.981	30750.42
445.187	31094.48
445.394	33062.58
445.6	32167.62
445.807	35092.12
446.013	33988.26
446.22	34277.02
446.426	35806.86
446.633	36179.59
446.839	37330.55
447.046	35890.82
447.252	37490.29
447.459	38110.82
447.665	37867.11
447.871	39394.9
448.078	40984.12
448.284	39190.1
448.491	40283.72
448.697	41938.47
448.903	42579.49
449.11	42262.05
449.316	41686.57
449.522	42438.18
449.728	44219.91
449.935	43884.05
450.141	43630.1
450.347	45161.98
450.553	43019.8
450.76	43771.41
450.966	45411.83
451.172	44912.13
451.378	46018.03
451.584	45133.31
451.791	45956.59
451.997	45868.53
452.203	46722.53
452.409	47207.9
452.615	46145
452.821	45069.82
453.027	44375.56
453.233	46622.18
453.44	44457.48
453.646	44922.37
453.852	45338.1
454.058	46142.95
454.264	44647.94
454.47	45772.27
454.676	44793.34
454.882	45919.73
455.088	42038.83
455.294	42354.21
455.5	43400.72
455.705	43548.18
455.911	41901.61
456.117	41012.79
456.323	40461.89
456.529	38295.14
456.735	40031.82
456.941	39360.08
457.147	38098.53
457.352	37115.51
457.558	36720.25
457.764	36974.2
457.97	36150.92
458.176	35135.12
458.381	35176.08
458.587	33642.15
458.793	33840.81
458.999	32057.03
459.204	33857.19
459.41	33197.74
459.616	30967.51
459.821	31153.87
460.027	31076.05
460.233	30232.29
460.438	28815.09
460.644	29486.82
460.85	27647.75
461.055	27076.37
461.261	27555.59
461.466	25241.39
461.672	24252.22
461.878	26103.58
462.083	24543.03
462.289	24162.11
462.494	23582.53
462.7	23045.96
462.905	22282.07
463.111	22964.04
463.316	23158.6
463.522	22450
463.727	22804.3
463.932	22675.28
464.138	22155.1
464.343	22425.43
464.549	21765.98
464.754	22153.05
464.959	22269.78
465.165	22081.37
465.37	21041
465.575	20748.14
465.781	21657.44
465.986	21585.76
466.191	20780.91
466.397	20268.92
466.602	19269.51
466.807	20170.61
467.012	20211.57
467.218	19963.77
467.423	19974.01
467.628	20250.49
467.833	20565.87
468.038	19695.49
468.244	19312.52
468.449	20133.75
468.654	19494.79
468.859	19273.6
469.064	19294.08
469.269	18517.9
469.474	18702.22
469.679	19021.7
469.885	18440.08
470.09	18593.68
470.295	18575.25
470.5	18311.06
470.705	18126.74
470.91	17807.26
471.115	17678.24
471.32	17794.97
471.525	17766.3
471.73	17264.55
471.935	17153.96
472.139	16568.24
472.344	17235.88
472.549	16738.22
472.754	16549.81
472.959	16318.39
473.164	15804.35
473.369	15654.84
473.574	16392.11
473.778	16469.94
473.983	15841.21
474.188	15902.65
474.393	15370.18
474.598	14987.21
474.802	14985.16
475.007	14991.3
475.212	15118.28
475.417	14389.2
475.621	14507.98
475.826	14620.62
476.031	14180.31
476.235	13752.28
476.44	14129.11
476.645	13735.9
476.849	14075.86
477.054	13641.69
477.259	13531.1
477.463	13438.94
477.668	13043.68
477.872	13309.92
478.077	13258.72
478.282	12564.46
478.486	12767.21
478.691	12666.86
478.895	12369.9
479.1	12494.83
479.304	12648.43
479.509	12136.43
479.713	12494.83
479.918	12072.95
480.122	11917.3
480.326	12062.71
480.531	12036.08
480.735	12019.7
480.94	11775.99
481.144	11931.64
481.348	11657.21
481.553	11657.21
481.757	11608.06
481.961	11667.45
482.166	12005.36
482.37	11767.8
482.574	11429.88
482.778	11497.47
482.983	11724.79
483.187	11464.7
483.391	11485.18
483.595	11552.76
483.8	11401.21
484.004	11515.9
484.208	11798.52
484.412	11354.11
484.616	11476.99
484.821	11513.85
485.025	11386.88
485.229	11665.4
485.433	11450.36
485.637	11530.23
485.841	11440.12
486.045	11360.25
486.249	11565.05
486.453	11241.47
486.657	11515.9
486.861	11378.69
487.065	11292.67
487.269	11413.5
487.473	11173.89
487.677	11384.83
487.881	11499.52
488.085	11481.08
488.289	11372.54
488.493	11464.7
488.697	11728.89
488.901	11700.22
489.105	11540.47
489.309	11526.14
489.512	11429.88
489.716	11636.73
489.92	11526.14
490.124	11642.87
490.328	11687.93
490.531	11606.01
490.735	11720.7
490.939	11970.55
491.143	11657.21
491.346	11732.98
491.55	12103.67
491.754	11794.42
491.958	11837.43
492.161	11751.42
492.365	12062.71
492.569	11952.12
492.772	12138.48
492.976	12072.95
493.18	12281.84
493.383	12298.22
493.587	12406.77
493.79	12632.04
493.994	12525.55
494.197	12732.39
494.401	12666.86
494.605	12619.75
494.808	12750.82
495.012	12955.62
495.215	12988.39
495.419	13184.99
495.622	12857.32
495.825	13273.06
496.029	13074.4
496.232	13402.08
496.436	13690.84
496.639	13668.31
496.843	13860.82
497.046	14096.34
497.249	14036.95
497.453	13817.82
497.656	14358.48
497.859	14274.51
498.063	14360.53
498.266	14858.18
498.469	15075.27
498.673	14919.62
498.876	15325.12
499.079	15263.68
499.282	15345.6
499.485	15847.35
499.689	15671.23
499.892	16283.57
500.095	15910.84
500.298	16373.68
500.501	16265.14
500.705	16670.64
500.908	16789.42
501.111	16947.11
501.314	17037.22
501.517	17313.7
501.72	17655.71
501.923	17340.32
502.126	17819.55
502.329	18151.32
502.532	18583.44
502.735	18163.61
502.938	18718.61
503.141	18581.39
503.344	18694.03
503.547	18982.79
503.75	19304.32
503.953	19570.56
504.156	20035.45
504.359	20033.4
504.562	20033.4
504.765	20422.52
504.968	20580.21
505.17	20832.11
505.373	20541.3
505.576	21446.5
505.779	21323.62
505.982	21514.08
506.185	21811.04
506.387	22075.23
506.59	22302.55
506.793	22466.39
506.996	22445.91
507.198	23074.63
507.401	22957.9
507.604	23064.39
507.807	23670.59
508.009	23682.88
508.212	24137.53
508.415	24299.32
508.617	24434.49
508.82	24612.66
509.022	24532.79
509.225	25487.14
509.428	25354.02
509.63	25425.7
509.833	25587.49
510.035	26412.82
510.238	26320.67
510.44	26318.62
510.643	26795.79
510.845	27244.3
511.048	27105.04
511.25	27326.22
511.453	27254.54
511.655	28532.47
511.858	28106.49
512.06	28258.04
512.262	28364.54
512.465	28743.41
512.667	29337.32
512.87	29212.4
513.072	29454.06
513.274	29980.39
513.477	30168.8
513.679	30402.27
513.881	30719.7
514.084	31033.04
514.286	31049.42
514.488	31260.37
514.69	32435.9
514.893	32048.83
515.095	32321.21
515.297	32657.08
515.499	32962.23
515.701	33103.54
515.904	33570.47
516.106	33805.99
516.308	33910.44
516.51	33912.49
516.712	34434.72
516.914	34485.92
517.116	34903.7
517.318	35366.54
517.52	35282.58
517.722	35442.32
517.925	35995.27
518.127	36439.68
518.329	36466.3
518.531	36558.46
518.733	37275.25
518.935	37394.03
519.136	37340.78
519.338	37891.69
519.54	37785.19
519.742	38332
519.944	38188.64
520.146	39286.36
520.348	39298.64
520.55	39448.14
520.752	39784.01
520.954	40449.6
521.155	39745.1
521.357	40392.26
521.559	40668.73
521.761	40914.49
521.963	41098.81
522.164	41139.77
522.366	41813.55
522.568	41813.55
522.77	42329.64
522.971	42642.98
523.173	42389.03
523.375	43089.43
523.576	42333.73
523.778	42679.84
523.98	42964.51
524.181	43259.41
524.383	43161.11
524.584	44219.91
524.786	44107.27
524.988	43777.55
525.189	44500.48
525.391	44688.9
525.592	44838.4
525.794	44742.14
525.995	45084.15
526.197	45069.82
526.398	45137.4
526.6	45495.8
526.801	45569.52
527.003	45813.23
527.204	45635.06
527.406	46407.14
527.607	45397.49
527.808	46054.89
528.01	45680.11
528.211	46224.87
528.412	46583.27
528.614	46919.13
528.815	46947.81
529.016	46949.85
529.218	46749.15
529.419	46824.93
529.62	47103.45
529.822	47054.3
530.023	47048.16
530.224	47029.73
530.425	46978.53
530.626	47001.05
530.828	47052.25
531.029	47613.4
531.23	47214.04
531.431	47013.34
531.632	47474.13
531.833	47261.15
532.035	47615.44
532.236	47570.39
532.437	47908.3
532.638	47433.17
532.839	48147.92
533.04	47732.18
533.241	47089.12
533.442	48319.95
533.643	47984.08
533.844	47807.95
534.045	47947.22
534.246	47556.05
534.447	47930.83
534.648	47697.36
534.849	47668.69
535.05	47601.11
535.251	47660.5
535.451	47701.46
535.652	48027.09
535.853	47957.45
536.054	47891.92
536.255	47805.91
536.456	47224.28
536.657	48102.86
536.857	47826.38
537.058	47431.13
537.259	47701.46
537.46	47457.75
537.66	47889.87
537.861	47736.27
538.062	47467.99
538.263	48016.85
538.463	47562.2
538.664	47707.6
538.865	47394.26
539.065	48082.38
539.266	47275.48
539.466	47975.89
539.667	47201.75
539.868	48164.3
540.068	47676.88
540.269	47386.07
540.469	47701.46
540.67	47228.38
540.87	47480.28
541.071	47502.81
541.271	47697.36
541.472	47302.1
541.672	46886.37
541.873	47025.63
542.073	46738.91
542.274	47523.29
542.474	47271.39
542.675	47072.73
542.875	47582.68
543.075	47451.61
543.276	46974.43
543.476	47709.65
543.676	47160.8
543.877	47721.94
544.077	47566.29
544.277	47025.63
544.478	47451.61
544.678	47306.2
544.878	47316.44
545.078	47347.16
545.279	46763.49
545.479	46857.7
545.679	47205.85
545.879	47003.1
546.079	47009.25
546.28	46755.3
546.48	46583.27
546.68	47046.11
546.88	46919.13
547.08	47130.08
547.28	46722.53
547.48	46441.96
547.68	46968.29
547.88	46605.8
548.081	46923.23
548.281	46769.63
548.481	46874.08
548.681	47150.56
548.881	46728.67
549.081	46964.19
549.28	47093.21
549.48	47181.27
549.68	46523.88
549.88	47060.44
550.08	46532.07
550.28	46927.33
550.48	46388.71
550.68	47146.46
550.88	46409.19
551.08	46917.09
551.279	46951.9
551.479	46177.77
551.679	46829.02
551.879	46505.45
552.079	46638.56
552.278	46106.09
552.478	46478.82
552.678	46568.93
552.878	46755.3
553.077	46419.43
553.277	46052.84
553.477	47379.93
553.676	46722.53
553.876	46226.92
554.076	45837.81
554.275	46284.26
554.475	45798.9
554.674	46349.8
554.874	46218.73
555.074	45895.15
555.273	46265.83
555.473	46249.45
555.672	45870.57
555.872	45823.47
556.071	46388.71
556.271	46429.67
556.47	45555.19
556.67	45338.1
556.869	46042.6
557.068	46075.37
557.268	45927.92
557.467	45549.04
557.667	45719.03
557.866	45837.81
558.065	45585.91
558.265	45563.38
558.464	45555.19
558.663	45723.12
558.863	44736
559.062	46204.39
559.261	45094.39
559.461	45964.78
559.66	44955.13
559.859	45102.59
560.058	44850.69
560.258	45313.53
560.457	45444.6
560.656	45291
560.855	44903.93
561.054	45471.22
561.253	44645.89
561.453	44926.46
561.652	45276.66
561.851	45188.6
562.05	44662.27
562.249	44371.46
562.448	44834.3
562.647	44649.99
562.846	44537.35
563.045	44537.35
563.244	44289.54
563.443	44723.71
563.642	44101.13
563.841	44357.13
564.04	44054.03
564.239	44389.89
564.438	43574.8
564.637	44424.71
564.836	44437
565.035	43763.21
565.234	44137.99
565.432	43687.44
565.631	43290.13
565.83	44006.92
566.029	43742.74
566.228	43257.37
566.427	43257.37
566.625	43062.81
566.824	43195.93
567.023	43255.32
567.222	42769.95
567.42	43832.85
567.619	43118.1
567.818	43214.36
568.016	42978.84
568.215	43030.04
568.414	42604.06
568.612	43210.26
568.811	42419.75
569.01	42784.29
569.208	42085.93
569.407	42544.67
569.605	42159.66
569.804	42802.72
570.002	42034.73
570.201	42702.37
570.4	41741.87
570.598	41846.32
570.797	41762.35
570.995	41958.95
571.193	41029.18
571.392	42020.39
571.59	41340.47
571.789	41573.94
571.987	41889.32
572.186	41381.43
572.384	40945.21
572.582	41502.26
572.781	41705.01
572.979	40525.38
573.177	41139.77
573.376	40814.14
573.574	40801.85
573.772	40871.48
573.971	40607.3
574.169	40533.57
574.367	40246.85
574.565	40674.88
574.763	40506.94
574.962	40021.58
575.16	40115.78
575.358	40224.32
575.556	39861.83
575.754	40160.84
575.952	39771.72
576.151	40076.87
576.349	39607.89
576.547	39792.2
576.745	39841.35
576.943	39560.78
577.141	39476.82
577.339	39403.09
577.537	39175.76
577.735	38977.11
577.933	39036.5
578.131	39280.21
578.329	38389.34
578.527	38800.99
578.725	38725.21
578.923	39022.17
579.121	38243.94
579.319	38637.15
579.516	38764.12
579.714	38264.42
579.912	37873.26
580.11	38055.53
580.308	37645.93
580.506	38166.12
580.704	37525.1
580.901	37639.79
581.099	38065.77
581.297	37688.94
581.495	37535.34
581.692	37705.32
581.89	37275.25
582.088	37432.94
582.285	37238.39
582.483	37623.4
582.681	36753.02
582.878	36810.36
583.076	36777.59
583.274	37078.64
583.471	36603.52
583.669	36836.98
583.866	36552.32
584.064	36679.29
584.262	36150.92
584.459	36761.21
584.657	36079.24
584.854	36226.69
585.052	35835.53
585.249	35919.49
585.447	36017.8
585.644	35223.19
585.841	35661.45
586.039	35927.69
586.236	35364.5
586.434	34922.13
586.631	35407.5
586.828	35890.82
587.026	35114.64
587.223	34901.65
587.42	34725.53
587.618	35176.08
587.815	34297.5
588.012	35028.63
588.21	34518.68
588.407	34582.17
588.604	34483.87
588.801	34324.13
588.999	34207.39
589.196	34023.08
589.393	33951.4
589.59	34043.56
589.787	33801.89
589.984	33423.02
590.182	33629.87
590.379	33902.25
590.576	33691.3
590.773	33681.06
590.97	32911.03
591.167	33097.39
591.364	32702.14
591.561	33269.42
591.758	32753.33
591.955	32804.53
592.152	32722.62
592.349	32523.96
592.546	32757.43
592.743	32628.41
592.94	31708.87
593.137	32202.43
593.334	32431.8
593.531	32108.22
593.727	32167.62
593.924	31844.04
594.121	31719.11
594.318	31895.24
594.515	31557.32
594.712	31968.96
594.908	31317.71
595.105	31735.49
595.302	31192.78
595.499	31413.96
595.696	31141.58
595.892	30987.99
596.089	30856.92
596.286	31106.77
596.482	30809.81
596.679	30731.99
596.876	30787.28
597.072	30420.7
597.269	30719.7
597.466	30181.09
597.662	30133.98
597.859	29845.22
598.055	30209.76
598.252	29824.74
598.448	30090.98
598.645	29689.57
598.841	29517.54
599.038	29728.49
599.234	29409
599.431	29406.95
599.627	29271.79
599.824	29267.69
600.02	29337.32
600.217	29413.1
600.413	29263.6
600.609	28811
600.806	28757.75
601.002	29013.74
601.198	28442.36
601.395	28468.98
601.591	28534.52
601.787	28724.98
601.984	28323.58
602.18	28415.74
602.376	28286.72
602.572	27870.98
602.769	27965.18
602.965	27830.02
603.161	27913.98
603.357	27625.22
603.553	27799.3
603.75	27672.32
603.946	27416.33
604.142	27739.91
604.338	27252.49
604.534	27399.94
604.73	27043.6
604.926	26924.82
605.122	27057.93
605.318	26861.33
605.514	26558.23
605.71	27002.64
605.906	26666.77
606.102	26709.78
606.298	26818.32
606.494	26609.43
606.69	26343.19
606.886	26679.06
607.082	25980.7
607.278	26605.33
607.474	26015.52
607.67	26328.86
607.866	25978.65
608.062	26134.3
608.257	25673.51
608.453	26019.61
608.649	26230.55
608.845	25739.04
609.041	25909.02
609.236	25685.79
609.432	25435.94
609.628	25460.52
609.824	25478.95
610.019	25167.66
610.215	25380.65
610.411	25437.99
610.606	25294.63
610.802	25220.91
610.998	25501.48
611.193	25272.11
611.389	25243.43
611.584	24813.36
611.78	25093.93
611.976	24799.02
612.171	24993.58
612.367	24788.78
612.562	24919.85
612.758	24602.42
612.953	25136.94
613.149	24985.39
613.344	24334.14
613.539	24960.81
613.735	24475.45
613.93	24233.78
614.126	24508.21
614.321	24502.07
614.517	24477.49
614.712	24477.49
614.907	24008.51
615.103	24317.75
615.298	24258.36
615.493	24303.42
615.688	24051.52
615.884	24186.68
616.079	23879.49
616.274	23949.12
616.47	24065.85
616.665	24051.52
616.86	23666.5
617.055	23617.35
617.25	23656.26
617.445	23570.24
617.641	23363.4
617.836	23600.96
618.031	23297.86
618.226	23488.32
618.421	23275.34
618.616	23330.63
618.811	23144.27
619.006	23277.38
619.201	22626.13
619.396	22841.17
619.591	22417.24
619.786	22671.18
619.981	22517.59
620.176	22769.49
620.371	22359.89
620.566	22654.8
620.761	22146.9
620.956	22255.45
621.151	21808.99
621.346	22261.59
621.541	21970.78
621.735	21864.29
621.93	21536.61
622.125	21428.07
622.32	21325.67
622.515	21403.49
622.709	21135.21
622.904	21104.49
623.099	20973.42
623.294	20997.99
623.488	20711.28
623.683	20727.66
623.878	20412.28
624.072	20223.86
624.267	20291.45
624.462	20189.05
624.656	19988.35
624.851	19756.93
625.046	20000.63
625.24	19939.19
625.435	19605.38
625.629	19705.73
625.824	19449.73
626.018	19640.19
626.213	18876.3
626.407	19376
626.602	18960.27
626.796	19150.73
626.991	19072.9
627.185	18657.17
627.38	18673.55
627.574	18579.34
627.768	18212.76
627.963	18409.36
628.157	18272.15
628.352	18216.85
628.546	17889.18
628.74	18343.83
628.935	17889.18
629.129	17745.82
629.323	17557.41
629.517	17450.91
629.712	17534.88
629.906	17653.66
630.1	17055.65
630.294	17313.7
630.489	17125.29
630.683	17082.28
630.877	16914.34
631.071	16861.1
631.265	16691.12
631.459	16644.01
631.653	16256.95
631.848	16404.4
632.042	16510.89
632.236	16400.3
632.43	16084.92
632.624	15974.33
632.818	16000.95
633.012	16070.58
633.206	15919.03
633.4	15865.78
633.594	15558.59
633.788	15734.71
633.982	15630.27
634.176	15579.07
634.369	15265.73
634.563	15392.7
634.757	15472.57
634.951	15331.26
635.145	15087.56
635.339	15149
635.533	14919.62
635.726	14970.82
635.92	14637
636.114	14831.56
636.308	14424.01
636.501	14665.67
636.695	14454.73
636.889	14208.98
637.083	14260.18
637.276	14458.83
637.47	14178.26
637.664	14194.64
637.857	14241.75
638.051	13946.84
638.244	13930.45
638.438	13846.49
638.632	13647.83
638.825	13494.24
639.019	13627.35
639.212	13559.77
639.406	13586.4
639.599	13342.69
639.793	13311.97
639.986	13092.83
640.18	13148.13
640.373	13129.7
640.567	12916.71
640.76	12976.1
640.954	12892.13
641.147	12795.88
641.34	12898.28
641.534	12636.14
641.727	12666.86
641.92	12572.65
642.114	12410.86
642.307	12736.49
642.5	12257.26
642.694	12064.75
642.887	12212.21
643.08	12122.1
643.273	12220.4
643.467	12238.83
643.66	12019.7
643.853	11980.79
644.046	11857.91
644.239	11878.39
644.432	11649.02
644.626	11747.32
644.819	11698.17
645.012	11390.97
645.205	11456.51
645.398	11515.9
645.591	11325.44
645.784	11544.57
645.977	11235.33
646.17	11501.56
646.363	11024.39
646.556	10829.83
646.749	10795.01
646.942	11057.15
647.135	10930.18
647.328	10876.93
647.521	10786.82
647.714	10385.42
647.907	10919.94
648.099	10688.52
648.292	10526.73
648.485	10475.53
648.678	10297.36
648.871	10352.65
649.064	10358.8
649.256	10633.22
649.449	10252.3
649.642	10233.87
649.835	10014.74
650.027	9959.44
650.22	10057.75
650.413	10047.51
650.605	9992.21
650.798	9938.96
650.991	9652.25
651.183	9807.89
651.376	9568.28
651.568	9693.21
651.761	9555.99
651.954	9605.14
652.146	9431.07
652.339	9547.8
652.531	9289.76
652.724	9437.21
652.916	9246.75
653.109	9252.89
653.301	9105.44
653.494	9046.05
653.686	9066.53
653.879	9011.23
654.071	9066.53
654.263	8882.21
654.456	9011.23
654.648	9039.9
654.84	8798.24
655.033	8652.84
655.225	8833.06
655.417	8570.92
655.61	8638.5
655.802	8527.91
655.994	8503.34
656.186	8695.85
656.379	8468.52
656.571	8316.97
656.763	8359.98
656.955	8382.51
657.148	8257.58
657.34	8259.63
657.532	8026.16
657.724	8101.94
657.916	8093.74
658.108	7958.58
658.3	7905.33
658.492	7942.19
658.684	7903.28
658.876	7876.66
659.068	7944.24
659.26	7702.58
659.452	7901.23
659.644	7778.36
659.836	7659.57
660.028	7581.75
660.22	7542.84
660.412	7577.66
660.604	7393.34
660.796	7456.82
660.988	7419.96
661.18	7372.86
661.372	7358.52
661.563	7458.87
661.755	7262.27
661.947	7284.8
662.139	7139.39
662.331	7116.86
662.522	7202.88
662.714	7030.85
662.906	7133.25
663.097	6797.38
663.289	7032.9
663.481	6877.25
663.673	6877.25
663.864	6967.36
664.056	6828.1
664.247	6672.45
664.439	6606.92
664.631	6758.47
664.822	6740.04
665.014	6676.55
665.205	6660.17
665.397	6586.44
665.588	6490.18
665.78	6553.67
665.971	6508.62
666.163	6555.72
666.354	6533.19
666.546	6389.83
666.737	6350.92
666.929	6352.97
667.12	6420.55
667.311	6320.2
667.503	6156.36
667.694	6260.81
667.885	6113.36
668.077	6090.83
668.268	6117.45
668.459	6025.29
668.651	6053.97
668.842	6037.58
669.033	5898.32
669.224	5984.34
669.416	5967.95
669.607	5922.9
669.798	5828.69
669.989	5908.56
670.18	5869.65
670.371	5797.97
670.563	5830.74
670.754	5740.63
670.945	5722.2
671.136	5726.29
671.327	5666.9
671.518	5677.14
671.709	5587.03
671.9	5689.43
672.091	5427.29
672.282	5544.02
672.473	5492.82
672.664	5591.13
672.855	5429.34
673.046	5412.95
673.237	5472.34
673.428	5541.97
673.619	5322.84
673.809	5310.55
674	5349.47
674.191	5433.43
674.382	5331.03
674.573	5255.26
674.764	5228.63
674.954	5167.2
675.145	5116
675.336	5148.76
675.527	5238.87
675.717	5216.35
675.908	5185.63
676.099	5159
676.289	5222.49
676.48	4894.82
676.671	5181.53
676.861	5159
677.052	4849.76
677.243	5072.99
677.433	4831.33
677.624	5029.98
677.814	4954.21
678.005	4882.53
678.195	4995.17
678.386	4862.05
678.576	4978.78
678.767	4753.51
678.957	4847.71
679.148	4941.92
679.338	4851.81
679.529	4755.55
679.719	4866.14
679.909	4792.42
680.1	4780.13
680.29	4855.9
680.481	4638.82
680.671	4610.15
680.861	4595.81
681.052	4833.38
681.242	4745.31
681.432	4708.45
681.622	4575.33
681.813	4589.67
682.003	4540.52
682.193	4741.22
682.383	4589.67
682.573	4593.76
682.764	4466.79
682.954	4434.02
683.144	4503.65
683.334	4536.42
683.524	4427.88
683.714	4358.25
683.904	4425.83
684.094	4333.67
684.284	4231.27
684.474	4450.41
684.664	4253.8
684.854	4405.35
685.044	4401.26
685.234	4204.65
685.424	4327.53
685.614	4198.51
685.804	4229.23
685.994	4280.43
686.184	4309.1
686.374	4261.99
686.564	4108.4
686.753	4253.8
686.943	4249.71
687.133	4218.99
687.323	4089.96
687.513	4122.73
687.702	4132.97
687.892	4165.74
688.082	4028.53
688.272	4049
688.461	4003.95
688.651	4046.96
688.841	3911.79
689.03	3989.61
689.22	4028.53
689.41	3934.32
689.599	3854.45
689.789	3979.37
689.979	3848.3
690.168	3950.7
690.358	3750
690.547	3743.86
690.737	3735.67
690.926	3688.56
691.116	3788.91
691.305	3846.26
691.495	3741.81
691.684	3631.22
691.874	3657.84
692.063	3623.03
692.252	3627.12
692.442	3692.66
692.631	3418.23
692.82	3567.73
693.01	3608.69
693.199	3610.74
693.388	3532.92
693.578	3610.74
693.767	3614.84
693.956	3461.24
694.146	3420.28
694.335	3543.16
694.524	3399.8
694.713	3616.88
694.902	3502.2
695.092	3385.46
695.281	3457.14
695.47	3405.94
695.659	3334.26
695.848	3483.77
696.037	3416.18
696.226	3461.24
696.415	3389.56
696.604	3426.42
696.793	3338.36
696.982	3485.81
697.171	3268.73
697.36	3350.65
697.549	3299.45
697.738	3338.36
697.927	3233.91
698.116	3346.55
698.305	3346.55
698.494	3283.06
698.683	3354.74
698.872	3301.5
699.061	3283.06
699.25	3309.69
699.438	3258.49
699.627	3190.91
699.816	3276.92
700.005	3211.39
700.193	3442.81
700.382	3197.05
700.571	3254.39
700.76	3199.1
700.948	3319.93
701.137	3182.71
701.326	3139.71
701.514	3131.51
701.703	3274.87
701.892	3074.17
702.08	3311.74
702.269	3135.61
702.457	3096.7
702.646	3147.9
702.834	3059.84
703.023	3113.08
703.212	3113.08
703.4	3121.28
703.589	3238.01
703.777	3127.42
703.965	3094.65
704.154	3100.8
704.342	3137.66
704.531	3111.04
704.719	3045.5
704.907	3176.57
705.096	3117.18
705.284	3053.69
705.472	3053.69
705.661	3205.24
705.849	2936.96
706.037	3119.23
706.226	3113.08
706.414	3055.74
706.602	2975.87
706.79	3113.08
706.979	2936.96
707.167	3051.64
707.355	2910.33
707.543	3213.43
707.731	3209.34
707.919	3104.89
708.107	3037.31
708.296	3088.51
708.484	3018.88
708.672	3049.6
708.86	3070.08
709.048	2977.92
709.236	3065.98
709.424	3059.84
709.612	3049.6
709.8	3065.98
709.988	3108.99
710.176	3012.73
710.364	3055.74
710.551	3104.89
710.739	2951.29
710.927	2994.3
711.115	3016.83
711.303	2996.35
711.491	2953.34
711.679	3018.88
711.866	3018.88
712.054	3020.92
712.242	2918.53
712.43	2992.25
712.617	2971.77
712.805	2936.96
712.993	2914.43
713.181	2926.72
713.368	2963.58
713.556	2930.81
713.744	2920.57
713.931	2990.21
714.119	3033.21
714.306	2879.61
714.494	2945.15
714.682	2871.42
714.869	2910.33
715.057	2982.01
715.244	2881.66
715.432	3016.83
715.619	2977.92
715.807	2846.85
715.994	2922.62
716.182	2926.72
716.369	2857.09
716.556	2875.52
716.744	2883.71
716.931	2734.21
717.119	2963.58
717.306	2924.67
717.493	3020.92
717.681	2961.53
717.868	2955.39
718.055	2953.34
718.242	2930.81
718.43	2988.16
718.617	2928.77
718.804	2959.49
718.991	2795.65
719.179	2881.66
719.366	2820.22
719.553	2834.56
719.74	2781.31
719.927	2826.37
720.114	2959.49
720.301	2859.14
720.488	2834.56
720.676	2781.31
720.863	2914.43
721.05	2816.13
721.237	2795.65
721.424	2752.64
721.611	2844.8
721.798	2844.8
721.985	2828.42
722.172	2822.27
722.358	2715.78
722.545	2769.02
722.732	2836.61
722.919	2828.42
723.106	2781.31
723.293	2742.4
723.48	2715.78
723.667	2803.84
723.853	2746.5
724.04	2635.91
724.227	2777.22
724.414	2701.44
724.6	2697.35
724.787	2732.16
724.974	2676.87
725.161	2703.49
725.347	2715.78
725.534	2766.98
725.72	2625.67
725.907	2816.13
726.094	2756.74
726.28	2719.87
726.467	2738.3
726.653	2683.01
726.84	2709.63
727.027	2707.59
727.213	2721.92
727.4	2580.61
727.586	2687.11
727.773	2717.83
727.959	2660.48
728.145	2691.2
728.332	2676.87
728.518	2656.39
728.705	2879.61
728.891	2609.28
729.077	2597
729.264	2644.1
729.45	2560.13
729.636	2668.67
729.823	2744.45
730.009	2629.76
730.195	2736.26
730.382	2695.3
730.568	2646.15
730.754	2537.6
730.94	2685.06
731.126	2736.26
731.313	2691.2
731.499	2648.19
731.685	2599.04
731.871	2662.53
732.057	2611.33
732.243	2633.86
732.429	2572.42
732.615	2623.62
732.801	2594.95
732.987	2627.71
733.173	2543.75
733.359	2553.99
733.545	2547.84
733.731	2480.26
733.917	2642.05
734.103	2594.95
734.289	2652.29
734.475	2543.75
734.661	2584.71
734.847	2578.56
735.033	2510.98
735.219	2484.36
735.404	2578.56
735.59	2533.51
735.776	2449.54
735.962	2496.64
736.148	2439.3
736.333	2488.45
736.519	2435.21
736.705	2549.89
736.89	2408.58
737.076	2506.88
737.262	2429.06
737.447	2490.5
737.633	2431.11
737.819	2494.6
738.004	2455.69
738.19	2394.25
738.375	2404.49
738.561	2533.51
738.747	2386.05
738.932	2384.01
739.118	2427.01
739.303	2308.23
739.489	2289.8
739.674	2447.49
739.859	2427.01
740.045	2447.49
740.23	2398.34
740.416	2254.98
740.601	2349.19
740.786	2408.58
740.972	2312.33
741.157	2269.32
741.342	2291.85
741.528	2254.98
741.713	2197.64
741.898	2381.96
742.084	2304.14
742.269	2261.13
742.454	2240.65
742.639	2179.21
742.824	2136.2
743.01	2168.97
743.195	2289.8
743.38	2076.81
743.565	2183.31
743.75	2070.67
743.935	2175.11
744.12	2168.97
744.305	2103.43
744.49	2146.44
744.675	2078.86
744.86	2113.67
745.045	2085
745.23	2064.52
745.415	2087.05
745.6	2158.73
745.785	2072.72
745.97	2138.25
746.155	1992.84
746.34	2050.19
746.525	2048.14
746.71	2087.05
746.895	1988.75
747.079	2089.1
747.264	1982.6
747.449	1859.73
747.634	2005.13
747.819	1945.74
748.003	1843.34
748.188	1798.29
748.373	1917.07
748.557	1943.69
748.742	1908.88
748.927	1847.44
749.111	1794.19
749.296	1900.69
749.481	1880.21
749.665	1941.65
749.85	1853.58
750.034	1894.54
750.219	1790.1
750.404	1755.28
750.588	1734.8
750.773	1769.62
750.957	1693.84
751.141	1740.94
751.326	1706.13
751.51	1699.98
751.695	1661.07
751.879	1622.16
752.064	1706.13
752.248	1616.02
752.432	1589.39
752.617	1583.25
752.801	1656.98
752.985	1679.51
753.17	1665.17
753.354	1593.49
753.538	1579.15
753.722	1466.52
753.907	1478.8
754.091	1495.19
754.275	1560.72
754.459	1466.52
754.643	1509.52
754.828	1603.73
755.012	1517.72
755.196	1429.65
755.38	1421.46
755.564	1441.94
755.748	1409.17
755.932	1525.91
756.116	1398.93
756.3	1374.36
756.484	1435.8
756.668	1376.41
756.852	1331.35
757.036	1394.84
757.22	1417.37
757.404	1362.07
757.588	1396.89
757.772	1317.01
757.956	1382.55
758.14	1372.31
758.323	1257.62
758.507	1439.89
758.691	1323.16
758.875	1339.54
759.059	1249.43
759.242	1220.76
759.426	1269.91
759.61	1339.54
759.794	1214.62
759.977	1204.38
760.161	1333.4
760.345	1181.85
760.528	1224.86
760.712	1300.63
760.895	1198.23
761.079	1241.24
761.263	1167.51
761.446	1202.33
761.63	1110.17
761.813	1200.28
761.997	1159.32
762.18	1175.7
762.364	1054.87
762.547	1153.18
762.731	1024.16
762.914	1181.85
763.098	1079.45
763.281	1163.42
763.464	1077.4
763.648	1101.98
763.831	1020.06
764.015	1071.26
764.198	1118.36
764.381	1071.26
764.564	1063.07
764.748	987.29
764.931	1073.31
765.114	1058.97
765.297	1099.93
765.481	1075.35
765.664	1061.02
765.847	1048.73
766.03	1114.27
766.213	1032.35
766.397	1011.87
766.58	929.95
766.763	1040.54
766.946	1063.07
767.129	1046.68
767.312	964.76
767.495	972.96
767.678	954.52
767.861	1026.2
768.044	1040.54
768.227	1022.11
768.41	987.29
768.593	966.81
768.776	913.56
768.959	1005.72
769.142	1038.49
769.324	979.1
769.507	903.32
769.69	946.33
769.873	893.09
770.056	1005.72
770.239	899.23
770.421	1020.06
770.604	927.9
770.787	895.13
770.97	893.09
771.152	886.94
771.335	895.13
771.518	923.8
771.7	948.38
771.883	929.95
772.066	878.75
772.248	946.33
772.431	866.46
772.613	882.85
772.796	886.94
772.978	864.41
773.161	921.76
773.343	888.99
773.526	727.2
773.708	882.85
773.891	768.16
774.073	811.17
774.256	792.73
774.438	854.17
774.621	790.69
774.803	786.59
774.985	825.5
775.168	823.45
775.35	790.69
775.532	921.76
775.715	888.99
775.897	733.34
776.079	764.06
776.261	800.93
776.444	751.78
776.626	766.11
776.808	714.91
776.99	645.28
777.173	823.45
777.355	667.81
777.537	733.34
777.719	770.21
777.901	704.67
778.083	702.62
778.265	690.34
778.447	637.09
778.629	731.3
778.811	610.47
778.993	702.62
779.175	743.58
779.357	669.86
779.539	635.04
779.721	559.27
779.903	714.91
780.085	641.18
780.267	600.23
780.449	647.33
780.631	630.95
780.812	635.04
780.994	651.42
781.176	639.14
781.358	577.7
781.54	579.75
781.721	575.65
781.903	610.47
782.085	612.51
782.267	624.8
782.448	575.65
782.63	575.65
782.812	647.33
782.993	573.6
783.175	546.98
783.357	489.64
783.538	620.71
783.72	491.68
783.901	499.88
784.083	600.23
784.264	600.23
784.446	503.97
784.627	463.01
784.809	489.64
784.99	497.83
785.172	465.06
785.353	446.63
785.535	440.48
785.716	475.3
785.897	499.88
786.079	477.35
786.26	573.6
786.441	444.58
786.623	448.68
786.804	448.68
786.985	450.72
787.167	438.44
787.348	407.72
787.529	467.11
787.71	557.22
787.891	458.92
788.073	471.2
788.254	397.48
788.435	469.16
788.616	452.77
788.797	456.87
788.978	426.15
789.159	417.96
789.34	358.57
789.522	401.57
789.703	381.09
789.884	358.57
790.065	430.24
790.246	420
790.427	403.62
790.607	336.04
790.788	368.81
790.969	360.61
791.15	368.81
791.331	342.18
791.512	336.04
791.693	336.04
791.874	399.52
792.054	385.19
792.235	403.62
792.416	325.8
792.597	266.41
792.778	358.57
792.958	395.43
793.139	325.8
793.32	342.18
793.5	354.47
793.681	442.53
793.862	325.8
794.042	295.08
794.223	356.52
794.404	307.37
794.584	374.95
794.765	313.51
794.945	346.28
795.126	276.65
795.306	368.81
795.487	374.95
795.667	379.04
795.848	311.46
796.028	266.41
796.209	295.08
796.389	346.28
796.57	311.46
796.75	303.27
796.93	293.03
797.111	309.41
797.291	315.56
797.471	325.8
797.652	381.09
797.832	311.46
798.012	309.41
798.192	188.58
798.373	270.5
798.553	352.42
798.733	266.41
798.913	227.5
799.093	276.65
799.274	233.64
799.454	293.03
799.634	264.36
799.814	301.22
799.994	288.93
800.174	274.6
800.354	360.61
800.534	264.36
800.714	282.79
800.894	235.69
801.074	219.3
801.254	250.02
801.434	297.13
801.614	344.23
801.794	221.35
801.974	639.14
802.154	284.84
802.334	276.65
802.514	225.45
802.693	168.1
802.873	311.46
803.053	247.97
803.233	233.64
803.413	237.74
803.592	247.97
803.772	241.83
803.952	254.12
804.131	202.92
804.311	247.97
804.491	241.83
804.67	213.16
804.85	176.3
805.03	254.12
805.209	268.45
805.389	168.1
805.568	186.54
805.748	307.37
805.928	221.35
806.107	266.41
806.287	241.83
806.466	241.83
806.646	272.55
806.825	207.02
807.004	172.2
807.184	227.5
807.363	307.37
807.543	239.78
807.722	149.67
807.901	225.45
808.081	256.17
808.26	100.52
808.439	194.73
808.619	147.62
808.798	192.68
808.977	190.63
809.156	241.83
809.336	217.26
809.515	207.02
809.694	176.3
809.873	188.58
810.052	170.15
810.231	176.3
810.411	200.87
810.59	243.88
810.769	211.11
810.948	204.97
811.127	147.62
811.306	176.3
811.485	196.78
811.664	225.45
811.843	147.62
812.022	204.97
812.201	114.86
812.38	221.35
812.559	131.24
812.737	262.31
812.916	143.53
813.095	194.73
813.274	151.72
813.453	129.19
813.632	176.3
813.811	170.15
813.989	125.1
814.168	200.87
814.347	190.63
814.526	147.62
814.704	159.91
814.883	204.97
815.062	131.24
815.24	106.67
815.419	123.05
815.598	153.77
815.776	172.2
815.955	139.43
816.133	133.29
816.312	194.73
816.49	243.88
816.669	184.49
816.847	221.35
817.026	172.2
817.204	133.29
817.383	118.95
817.561	200.87
817.74	110.76
817.918	149.67
818.097	174.25
818.275	207.02
818.453	225.45
818.632	180.39
818.81	151.72
818.988	73.9
819.167	139.43
819.345	102.57
819.523	112.81
819.701	213.16
819.879	166.06
820.058	114.86
820.236	200.87
820.414	170.15
820.592	200.87
820.77	112.81
820.948	166.06
821.127	121
821.305	143.53
821.483	153.77
821.661	153.77
821.839	182.44
822.017	108.71
822.195	32.94
822.373	182.44
822.551	102.57
822.729	168.1
822.907	192.68
823.085	161.96
823.262	198.82
823.44	178.34
823.618	176.3
823.796	110.76
823.974	12.46
824.152	125.1
824.329	125.1
824.507	129.19
824.685	143.53
824.863	209.06
825.04	106.67
825.218	166.06
825.396	129.19
825.574	129.19
825.751	221.35
825.929	194.73
826.107	157.86
826.284	161.96
826.462	106.67
826.639	84.14
826.817	106.67
826.994	168.1
827.172	96.43
827.349	127.14
827.527	125.1
827.704	110.76
827.882	172.2
828.059	141.48
828.237	104.62
828.414	112.81
828.591	88.23
828.769	133.29
828.946	65.71
829.124	127.14
829.301	59.56
829.478	112.81
829.655	106.67
829.833	92.33
830.01	49.32
830.187	100.52
830.364	84.14
830.542	141.48
830.719	61.61
830.896	71.85
831.073	104.62
831.25	137.38
831.427	112.81
831.604	131.24
831.782	82.09
831.959	127.14
832.136	110.76
832.313	147.62
832.49	90.28
832.667	82.09
832.844	20.65
833.021	123.05
833.198	133.29
833.374	73.9
833.551	75.95
833.728	129.19
833.905	65.71
834.082	86.19
834.259	51.37
834.436	82.09
834.612	86.19
834.789	61.61
834.966	86.19
835.143	125.1
835.319	80.04
835.496	26.79
835.673	92.33
835.85	112.81
836.026	92.33
836.203	94.38
836.38	65.71
836.556	108.71
836.733	118.95
836.909	88.23
837.086	94.38
837.262	94.38
837.439	92.33
837.616	94.38
837.792	32.94
837.968	116.9
838.145	-14.17
838.321	32.94
838.498	24.75
838.674	106.67
838.851	16.55
839.027	49.32
839.203	73.9
839.38	67.75
839.556	37.03
839.732	43.18
839.909	86.19
840.085	49.32
840.261	-8.02
840.437	96.43
840.614	65.71
840.79	49.32
840.966	26.79
841.142	88.23
841.318	18.6
841.494	94.38
841.671	47.27
841.847	51.37
842.023	133.29
842.199	45.23
842.375	65.71
842.551	2.22
842.727	22.7
842.903	63.66
843.079	55.47
843.255	55.47
843.431	86.19
843.607	49.32
843.783	30.89
843.959	18.6
844.134	88.23
844.31	82.09
844.486	61.61
844.662	49.32
844.838	88.23
845.013	102.57
845.189	71.85
845.365	84.14
845.541	45.23
845.716	67.75
845.892	88.23
846.068	69.8
846.244	6.31
846.419	43.18
846.595	49.32
846.77	53.42
846.946	61.61
847.122	104.62
847.297	24.75
847.473	135.34
847.648	2.22
847.824	26.79
847.999	108.71
848.175	-22.36
848.35	20.65
848.526	110.76
848.701	22.7
848.876	41.13
849.052	4.27
849.227	92.33
849.403	-3.93
849.578	69.8
849.753	53.42
849.929	104.62
850.104	63.66
850.279	71.85
850.454	-63.32
850.63	141.48
850.805	-18.26
850.98	86.19
851.155	43.18
851.33	55.47
851.505	10.41
851.681	53.42
851.856	4.27
852.031	86.19
852.206	22.7
852.381	49.32
852.556	84.14
852.731	57.51
852.906	88.23
853.081	63.66
853.256	55.47
853.431	26.79
853.606	73.9
853.781	45.23
853.956	-8.02
854.131	26.79
854.305	34.99
854.48	104.62
854.655	-36.69
854.83	51.37
855.005	86.19
855.18	-8.02
855.354	30.89
855.529	92.33
855.704	-26.45
855.879	26.79
856.053	12.46
856.228	41.13
856.403	-20.31
856.577	37.03
856.752	47.27
856.926	43.18
857.101	28.84
857.276	12.46
857.45	45.23
857.625	47.27
857.799	98.47
857.974	22.7
858.148	37.03
858.323	86.19
858.497	20.65
858.672	39.08
858.846	-22.36
859.02	61.61
859.195	49.32
859.369	-16.21
859.543	47.27
859.718	59.56
859.892	26.79
860.066	47.27
860.241	4.27
860.415	-26.45
860.589	-34.64
860.763	49.32
860.938	0.17
861.112	2.22
861.286	51.37
861.46	4.27
861.634	8.36
861.808	61.61
861.982	0.17
862.157	6.31
862.331	22.7
862.505	18.6
862.679	69.8
862.853	53.42
863.027	-5.97
863.201	18.6
863.375	63.66
863.549	-34.64
863.722	90.28
863.896	61.61
864.07	16.55
864.244	18.6
864.418	-8.02
864.592	96.43
864.766	53.42
864.939	63.66
865.113	-28.5
865.287	43.18
865.461	57.51
865.634	37.03
865.808	-1.88
865.982	55.47
866.156	80.04
866.329	59.56
866.503	-18.26
866.676	12.46
866.85	100.52
867.024	22.7
867.197	90.28
867.371	61.61
867.544	-24.4
867.718	67.75
867.891	16.55
868.065	-32.6
868.238	-36.69
868.412	49.32
868.585	18.6
868.759	16.55
868.932	49.32
869.105	-5.97
869.279	34.99
869.452	28.84
869.625	34.99
869.799	34.99
869.972	-67.41
870.145	86.19
870.319	32.94
870.492	-40.79
870.665	26.79
870.838	49.32
871.011	-28.5
871.185	8.36
871.358	45.23
871.531	47.27
871.704	14.51
871.877	4.27
872.05	16.55
872.223	41.13
872.396	-12.12
872.569	28.84
872.742	65.71
872.915	71.85
873.088	24.75
873.261	-5.97
873.434	-32.6
873.607	127.14
873.78	-36.69
873.953	2.22
874.126	6.31
874.299	30.89
874.471	-30.55
874.644	8.36
874.817	24.75
874.99	55.47
875.163	28.84
875.335	37.03
875.508	-85.84
875.681	41.13
875.853	28.84
876.026	20.65
876.199	22.7
876.371	12.46
876.544	34.99
876.717	69.8
876.889	39.08
877.062	49.32
877.234	47.27
877.407	39.08
877.579	-10.07
877.752	18.6
877.924	20.65
878.097	-63.32
878.269	-40.79
878.442	-3.93
878.614	57.51
878.786	121
878.959	-18.26
879.131	121
879.303	55.47
879.476	43.18
879.648	43.18
879.82	84.14
879.993	65.71
880.165	45.23
880.337	0.17
880.509	4.27
880.681	45.23
880.854	6.31
881.026	10.41
881.198	80.04
881.37	55.47
881.542	65.71
881.714	-42.84
881.886	77.99
882.058	59.56
882.23	39.08
882.402	-22.36
882.574	12.46
882.746	-36.69
882.918	34.99
883.09	57.51
883.262	0.17
883.434	-3.93
883.606	-16.21
883.778	-22.36
883.95	94.38
884.122	-1.88
884.293	20.65
884.465	-28.5
884.637	-38.74
884.809	-46.93
884.98	59.56
885.152	-14.17
885.324	53.42
885.496	18.6
885.667	-91.99
885.839	-22.36
886.011	12.46
886.182	16.55
886.354	47.27
886.525	37.03
886.697	75.95
886.869	-14.17
887.04	28.84
887.212	-79.7
887.383	55.47
887.555	28.84
887.726	-10.07
887.897	8.36
888.069	145.58
888.24	39.08
888.412	82.09
888.583	26.79
888.754	16.55
888.926	16.55
889.097	-34.64
889.268	-3.93
889.44	34.99
889.611	0.17
889.782	65.71
889.953	-10.07
890.125	24.75
890.296	-55.12
890.467	41.13
890.638	10.41
890.809	-30.55
890.98	82.09
891.151	-36.69
891.323	-5.97
891.494	37.03
891.665	28.84
891.836	-40.79
892.007	-51.03
892.178	-38.74
892.349	-5.97
892.52	-3.93
892.691	12.46
892.862	59.56
893.032	-8.02
893.203	-38.74
893.374	-48.98
893.545	-32.6
893.716	10.41
893.887	32.94
894.057	55.47
894.228	112.81
894.399	4.27
894.57	12.46
894.74	-1.88
894.911	88.23
895.082	77.99
895.253	6.31
895.423	18.6
895.594	30.89
895.764	94.38
895.935	-36.69
896.106	-18.26
896.276	-30.55
896.447	-10.07
896.617	16.55
896.788	22.7
896.958	-40.79
897.129	30.89
897.299	22.7
897.47	37.03
897.64	-14.17
897.81	22.7
897.981	-12.12
898.151	73.9
898.322	4.27
898.492	-69.46
898.662	41.13
898.832	-10.07
899.003	47.27
899.173	-24.4
899.343	22.7
899.513	6.31
