Data from USB4F104151__22__12-00-30-653.txt Node

Date: Fri Mar 14 12:00:30 EDT 2025
User: louis
Spectrometer: USB4F10415
Trigger mode: 4
Integration Time (sec): 2.000000E-2
Scans to average: 1
Electric dark correction enabled: true
Nonlinearity correction enabled: false
Boxcar width: 0
XAxis mode: Wavelengths
Number of Pixels in Spectrum: 3648
>>>>>Begin Spectral Data<<<<<
178.204	-142.33
178.424	-142.33
178.644	-142.33
178.864	-91.13
179.084	-35.84
179.304	-29.7
179.524	-48.13
179.744	62.46
179.964	58.37
180.184	-39.94
180.404	19.46
180.624	29.7
180.844	-13.31
181.064	-60.42
181.283	5.12
181.503	35.84
181.723	-19.46
181.943	3.07
182.163	7.17
182.383	41.98
182.602	25.6
182.822	9.22
183.042	64.51
183.262	-9.22
183.482	-37.89
183.701	13.31
183.921	74.75
184.141	-1.02
184.361	74.75
184.58	-74.75
184.8	29.7
185.02	50.18
185.239	33.79
185.459	15.36
185.679	1.02
185.898	-5.12
186.118	68.61
186.338	-56.32
186.557	80.89
186.777	-35.84
186.997	-7.17
187.216	50.18
187.436	23.55
187.655	58.37
187.875	-9.22
188.095	60.42
188.314	72.7
188.534	101.37
188.753	5.12
188.973	56.32
189.192	29.7
189.412	-58.37
189.631	56.32
189.851	15.36
190.07	70.65
190.29	50.18
190.509	54.27
190.729	5.12
190.948	54.27
191.168	64.51
191.387	58.37
191.607	60.42
191.826	37.89
192.045	5.12
192.265	23.55
192.484	33.79
192.704	-15.36
192.923	25.6
193.142	111.61
193.362	46.08
193.581	99.33
193.8	60.42
194.02	25.6
194.239	41.98
194.458	52.22
194.678	-15.36
194.897	-9.22
195.116	44.03
195.335	54.27
195.555	78.85
195.774	-29.7
195.993	113.66
196.212	44.03
196.432	50.18
196.651	-15.36
196.87	48.13
197.089	101.37
197.308	27.65
197.528	1.02
197.747	9.22
197.966	121.85
198.185	80.89
198.404	35.84
198.623	58.37
198.842	80.89
199.062	84.99
199.281	48.13
199.5	25.6
199.719	-5.12
199.938	21.5
200.157	-1.02
200.376	29.7
200.595	62.46
200.814	-58.37
201.033	54.27
201.252	46.08
201.471	56.32
201.69	1.02
201.909	29.7
202.128	84.99
202.347	27.65
202.566	21.5
202.785	25.6
203.004	-11.26
203.223	66.56
203.442	-15.36
203.661	13.31
203.879	48.13
204.098	76.8
204.317	-25.6
204.536	50.18
204.755	-7.17
204.974	56.32
205.193	11.26
205.411	78.85
205.63	35.84
205.849	99.33
206.068	60.42
206.287	-27.65
206.505	66.56
206.724	82.94
206.943	105.47
207.162	13.31
207.381	9.22
207.599	82.94
207.818	19.46
208.037	74.75
208.255	5.12
208.474	37.89
208.693	41.98
208.911	37.89
209.13	37.89
209.349	41.98
209.567	78.85
209.786	39.94
210.005	76.8
210.223	13.31
210.442	74.75
210.661	-5.12
210.879	74.75
211.098	-9.22
211.316	23.55
211.535	95.23
211.753	29.7
211.972	70.65
212.191	41.98
212.409	72.7
212.628	13.31
212.846	54.27
213.065	-21.5
213.283	68.61
213.502	31.74
213.72	58.37
213.938	11.26
214.157	19.46
214.375	95.23
214.594	-35.84
214.812	21.5
215.031	95.23
215.249	23.55
215.467	-5.12
215.686	97.28
215.904	33.79
216.122	-41.98
216.341	44.03
216.559	35.84
216.778	33.79
216.996	48.13
217.214	70.65
217.432	23.55
217.651	9.22
217.869	-15.36
218.087	19.46
218.306	78.85
218.524	66.56
218.742	11.26
218.96	87.04
219.179	29.7
219.397	91.13
219.615	68.61
219.833	15.36
220.051	25.6
220.27	50.18
220.488	-15.36
220.706	17.41
220.924	33.79
221.142	52.22
221.36	72.7
221.578	50.18
221.796	27.65
222.015	9.22
222.233	3.07
222.451	25.6
222.669	3.07
222.887	35.84
223.105	13.31
223.323	-1.02
223.541	29.7
223.759	56.32
223.977	25.6
224.195	76.8
224.413	3.07
224.631	35.84
224.849	-54.27
225.067	5.12
225.285	-21.5
225.503	-23.55
225.721	-11.26
225.939	44.03
226.157	-37.89
226.375	111.61
226.592	27.65
226.81	7.17
227.028	41.98
227.246	107.52
227.464	-39.94
227.682	48.13
227.9	101.37
228.117	1.02
228.335	46.08
228.553	-13.31
228.771	3.07
228.989	7.17
229.206	39.94
229.424	56.32
229.642	-5.12
229.86	1.02
230.077	21.5
230.295	31.74
230.513	58.37
230.731	113.66
230.948	74.75
231.166	60.42
231.384	29.7
231.601	1.02
231.819	68.61
232.037	70.65
232.254	23.55
232.472	-3.07
232.689	-25.6
232.907	37.89
233.125	89.09
233.342	1.02
233.56	11.26
233.777	-25.6
233.995	107.52
234.213	31.74
234.43	76.8
234.648	91.13
234.865	54.27
235.083	74.75
235.3	5.12
235.518	41.98
235.735	46.08
235.953	68.61
236.17	31.74
236.388	56.32
236.605	23.55
236.822	23.55
237.04	46.08
237.257	-70.65
237.475	58.37
237.692	84.99
237.909	-9.22
238.127	39.94
238.344	123.9
238.562	25.6
238.779	7.17
238.996	-17.41
239.214	60.42
239.431	54.27
239.648	19.46
239.865	44.03
240.083	44.03
240.3	56.32
240.517	117.76
240.735	48.13
240.952	142.33
241.169	56.32
241.386	52.22
241.603	107.52
241.821	-21.5
242.038	37.89
242.255	13.31
242.472	25.6
242.689	13.31
242.907	99.33
243.124	58.37
243.341	80.89
243.558	13.31
243.775	35.84
243.992	17.41
244.209	13.31
244.426	125.95
244.643	76.8
244.86	66.56
245.078	99.33
245.295	-23.55
245.512	23.55
245.729	-19.46
245.946	-13.31
246.163	19.46
246.38	41.98
246.597	11.26
246.814	13.31
247.031	-60.42
247.248	31.74
247.464	62.46
247.681	64.51
247.898	-33.79
248.115	25.6
248.332	-9.22
248.549	62.46
248.766	87.04
248.983	76.8
249.2	-1.02
249.417	58.37
249.633	76.8
249.85	58.37
250.067	52.22
250.284	56.32
250.501	-5.12
250.717	117.76
250.934	39.94
251.151	101.37
251.368	13.31
251.585	50.18
251.801	17.41
252.018	35.84
252.235	58.37
252.451	93.18
252.668	46.08
252.885	29.7
253.102	-60.42
253.318	91.13
253.535	-15.36
253.752	80.89
253.968	37.89
254.185	-13.31
254.401	25.6
254.618	7.17
254.835	60.42
255.051	25.6
255.268	27.65
255.484	-9.22
255.701	-5.12
255.917	27.65
256.134	-37.89
256.351	60.42
256.567	-9.22
256.784	66.56
257	19.46
257.217	93.18
257.433	50.18
257.65	48.13
257.866	80.89
258.082	29.7
258.299	-27.65
258.515	39.94
258.732	60.42
258.948	50.18
259.165	46.08
259.381	27.65
259.597	35.84
259.814	56.32
260.03	19.46
260.246	27.65
260.463	29.7
260.679	101.37
260.895	91.13
261.112	27.65
261.328	9.22
261.544	23.55
261.761	58.37
261.977	-1.02
262.193	5.12
262.409	74.75
262.626	60.42
262.842	46.08
263.058	74.75
263.274	66.56
263.49	3.07
263.707	103.42
263.923	93.18
264.139	33.79
264.355	-1.02
264.571	11.26
264.787	41.98
265.004	64.51
265.22	74.75
265.436	-7.17
265.652	29.7
265.868	-13.31
266.084	3.07
266.3	48.13
266.516	-15.36
266.732	37.89
266.948	-5.12
267.164	13.31
267.38	5.12
267.596	-50.18
267.812	41.98
268.028	23.55
268.244	44.03
268.46	56.32
268.676	56.32
268.892	7.17
269.108	-35.84
269.324	-62.46
269.54	-23.55
269.756	82.94
269.972	5.12
270.188	27.65
270.403	33.79
270.619	48.13
270.835	37.89
271.051	64.51
271.267	58.37
271.483	41.98
271.698	-52.22
271.914	58.37
272.13	46.08
272.346	5.12
272.562	48.13
272.777	-17.41
272.993	-1.02
273.209	-1.02
273.425	70.65
273.64	39.94
273.856	87.04
274.072	72.7
274.287	52.22
274.503	7.17
274.719	25.6
274.934	13.31
275.15	11.26
275.366	-23.55
275.581	72.7
275.797	58.37
276.012	27.65
276.228	-17.41
276.444	58.37
276.659	-31.74
276.875	15.36
277.09	72.7
277.306	27.65
277.521	72.7
277.737	27.65
277.952	52.22
278.168	44.03
278.383	89.09
278.599	70.65
278.814	66.56
279.03	11.26
279.245	39.94
279.461	76.8
279.676	-11.26
279.892	33.79
280.107	21.5
280.322	-7.17
280.538	15.36
280.753	54.27
280.969	58.37
281.184	-48.13
281.399	78.85
281.615	-7.17
281.83	89.09
282.045	33.79
282.26	46.08
282.476	3.07
282.691	23.55
282.906	25.6
283.122	19.46
283.337	-27.65
283.552	44.03
283.767	-3.07
283.983	62.46
284.198	41.98
284.413	105.47
284.628	11.26
284.843	41.98
285.058	58.37
285.274	62.46
285.489	9.22
285.704	15.36
285.919	3.07
286.134	13.31
286.349	3.07
286.564	-15.36
286.779	62.46
286.995	66.56
287.21	15.36
287.425	25.6
287.64	-17.41
287.855	23.55
288.07	-31.74
288.285	17.41
288.5	97.28
288.715	60.42
288.93	-1.02
289.145	68.61
289.36	74.75
289.575	33.79
289.79	74.75
290.004	70.65
290.219	64.51
290.434	60.42
290.649	52.22
290.864	-27.65
291.079	68.61
291.294	23.55
291.509	87.04
291.724	21.5
291.938	60.42
292.153	15.36
292.368	44.03
292.583	41.98
292.798	68.61
293.012	-15.36
293.227	35.84
293.442	99.33
293.657	113.66
293.871	35.84
294.086	5.12
294.301	54.27
294.516	107.52
294.73	87.04
294.945	-9.22
295.16	27.65
295.374	99.33
295.589	64.51
295.804	21.5
296.018	70.65
296.233	82.94
296.447	97.28
296.662	15.36
296.877	99.33
297.091	109.57
297.306	58.37
297.52	-11.26
297.735	60.42
297.949	21.5
298.164	-3.07
298.378	80.89
298.593	23.55
298.807	64.51
299.022	31.74
299.236	3.07
299.451	37.89
299.665	15.36
299.88	93.18
300.094	-5.12
300.309	-23.55
300.523	5.12
300.737	48.13
300.952	27.65
301.166	1.02
301.381	46.08
301.595	3.07
301.809	31.74
302.024	87.04
302.238	-17.41
302.452	50.18
302.667	50.18
302.881	39.94
303.095	33.79
303.309	80.89
303.524	37.89
303.738	-58.37
303.952	107.52
304.166	72.7
304.381	-54.27
304.595	87.04
304.809	11.26
305.023	-31.74
305.237	107.52
305.452	33.79
305.666	1.02
305.88	130.05
306.094	48.13
306.308	19.46
306.522	50.18
306.736	29.7
306.95	62.46
307.164	-21.5
307.379	46.08
307.593	58.37
307.807	93.18
308.021	97.28
308.235	11.26
308.449	25.6
308.663	80.89
308.877	99.33
309.091	-1.02
309.305	74.75
309.519	68.61
309.733	74.75
309.947	103.42
310.161	50.18
310.374	80.89
310.588	46.08
310.802	115.71
311.016	82.94
311.23	82.94
311.444	15.36
311.658	31.74
311.872	58.37
312.085	52.22
312.299	41.98
312.513	25.6
312.727	99.33
312.941	44.03
313.154	15.36
313.368	58.37
313.582	19.46
313.796	48.13
314.009	99.33
314.223	72.7
314.437	7.17
314.651	41.98
314.864	109.57
315.078	60.42
315.292	50.18
315.505	-3.07
315.719	74.75
315.933	21.5
316.146	56.32
316.36	41.98
316.573	89.09
316.787	17.41
317.001	64.51
317.214	68.61
317.428	44.03
317.641	27.65
317.855	31.74
318.068	41.98
318.282	70.65
318.495	82.94
318.709	70.65
318.922	5.12
319.136	17.41
319.349	95.23
319.563	-5.12
319.776	70.65
319.99	89.09
320.203	-15.36
320.417	64.51
320.63	105.47
320.843	78.85
321.057	19.46
321.27	3.07
321.483	115.71
321.697	70.65
321.91	15.36
322.124	44.03
322.337	44.03
322.55	23.55
322.763	64.51
322.977	-21.5
323.19	31.74
323.403	13.31
323.617	11.26
323.83	74.75
324.043	44.03
324.256	-19.46
324.469	68.61
324.683	-31.74
324.896	-7.17
325.109	-7.17
325.322	5.12
325.535	33.79
325.748	3.07
325.962	56.32
326.175	58.37
326.388	21.5
326.601	-50.18
326.814	29.7
327.027	74.75
327.24	111.61
327.453	107.52
327.666	82.94
327.879	-56.32
328.092	9.22
328.305	111.61
328.518	29.7
328.731	27.65
328.944	-3.07
329.157	27.65
329.37	9.22
329.583	80.89
329.796	52.22
330.009	78.85
330.222	121.85
330.435	113.66
330.648	48.13
330.861	48.13
331.073	84.99
331.286	89.09
331.499	82.94
331.712	68.61
331.925	54.27
332.138	72.7
332.35	113.66
332.563	23.55
332.776	37.89
332.989	21.5
333.202	60.42
333.414	39.94
333.627	97.28
333.84	27.65
334.053	70.65
334.265	-23.55
334.478	-17.41
334.691	119.81
334.903	41.98
335.116	58.37
335.329	27.65
335.541	52.22
335.754	48.13
335.966	-23.55
336.179	15.36
336.392	46.08
336.604	60.42
336.817	68.61
337.029	109.57
337.242	9.22
337.454	-5.12
337.667	84.99
337.88	54.27
338.092	87.04
338.305	68.61
338.517	101.37
338.729	54.27
338.942	-1.02
339.154	31.74
339.367	80.89
339.579	25.6
339.792	80.89
340.004	80.89
340.217	93.18
340.429	74.75
340.641	76.8
340.854	23.55
341.066	48.13
341.278	15.36
341.491	78.85
341.703	48.13
341.915	62.46
342.128	109.57
342.34	31.74
342.552	62.46
342.764	48.13
342.977	150.53
343.189	58.37
343.401	48.13
343.613	19.46
343.826	84.99
344.038	54.27
344.25	17.41
344.462	11.26
344.674	29.7
344.886	60.42
345.099	-17.41
345.311	78.85
345.523	48.13
345.735	37.89
345.947	72.7
346.159	72.7
346.371	-11.26
346.583	-41.98
346.795	74.75
347.007	80.89
347.219	103.42
347.431	9.22
347.643	93.18
347.855	-23.55
348.067	128
348.279	56.32
348.491	115.71
348.703	132.09
348.915	39.94
349.127	7.17
349.339	80.89
349.551	27.65
349.763	119.81
349.975	46.08
350.187	164.86
350.399	89.09
350.61	68.61
350.822	44.03
351.034	52.22
351.246	87.04
351.458	80.89
351.669	7.17
351.881	128
352.093	58.37
352.305	15.36
352.517	91.13
352.728	125.95
352.94	76.8
353.152	39.94
353.363	56.32
353.575	101.37
353.787	66.56
353.999	39.94
354.21	70.65
354.422	74.75
354.633	78.85
354.845	64.51
355.057	87.04
355.268	50.18
355.48	7.17
355.692	39.94
355.903	52.22
356.115	56.32
356.326	25.6
356.538	101.37
356.749	115.71
356.961	89.09
357.172	60.42
357.384	66.56
357.595	76.8
357.807	17.41
358.018	33.79
358.23	11.26
358.441	80.89
358.653	48.13
358.864	60.42
359.075	5.12
359.287	29.7
359.498	62.46
359.709	121.85
359.921	97.28
360.132	58.37
360.344	25.6
360.555	44.03
360.766	50.18
360.977	33.79
361.189	105.47
361.4	119.81
361.611	52.22
361.823	113.66
362.034	-7.17
362.245	80.89
362.456	78.85
362.667	39.94
362.879	-3.07
363.09	68.61
363.301	91.13
363.512	37.89
363.723	66.56
363.935	52.22
364.146	74.75
364.357	80.89
364.568	93.18
364.779	27.65
364.99	99.33
365.201	107.52
365.412	64.51
365.623	27.65
365.834	21.5
366.045	91.13
366.256	62.46
366.467	27.65
366.678	115.71
366.889	-11.26
367.1	41.98
367.311	-3.07
367.522	23.55
367.733	82.94
367.944	1.02
368.155	29.7
368.366	25.6
368.577	-1.02
368.788	56.32
368.999	52.22
369.209	39.94
369.42	95.23
369.631	89.09
369.842	68.61
370.053	72.7
370.264	46.08
370.474	-11.26
370.685	54.27
370.896	-21.5
371.107	109.57
371.317	74.75
371.528	19.46
371.739	93.18
371.95	68.61
372.16	19.46
372.371	107.52
372.582	54.27
372.792	33.79
373.003	64.51
373.214	31.74
373.424	103.42
373.635	39.94
373.846	99.33
374.056	101.37
374.267	56.32
374.477	29.7
374.688	52.22
374.898	74.75
375.109	56.32
375.319	48.13
375.53	35.84
375.74	9.22
375.951	52.22
376.161	72.7
376.372	66.56
376.582	76.8
376.793	56.32
377.003	48.13
377.214	58.37
377.424	97.28
377.635	60.42
377.845	31.74
378.055	76.8
378.266	-48.13
378.476	23.55
378.686	44.03
378.897	21.5
379.107	-9.22
379.317	41.98
379.528	72.7
379.738	64.51
379.948	74.75
380.158	25.6
380.369	11.26
380.579	33.79
380.789	25.6
380.999	50.18
381.21	99.33
381.42	19.46
381.63	31.74
381.84	39.94
382.05	-17.41
382.261	46.08
382.471	84.99
382.681	66.56
382.891	99.33
383.101	95.23
383.311	-9.22
383.521	64.51
383.731	142.33
383.941	82.94
384.151	62.46
384.361	-39.94
384.571	13.31
384.781	50.18
384.991	89.09
385.201	105.47
385.411	80.89
385.621	91.13
385.831	37.89
386.041	54.27
386.251	80.89
386.461	111.61
386.671	54.27
386.881	97.28
387.091	74.75
387.301	5.12
387.511	82.94
387.72	103.42
387.93	50.18
388.14	80.89
388.35	-15.36
388.56	162.81
388.769	23.55
388.979	82.94
389.189	95.23
389.399	68.61
389.609	125.95
389.818	101.37
390.028	68.61
390.238	78.85
390.447	107.52
390.657	125.95
390.867	19.46
391.076	52.22
391.286	113.66
391.496	46.08
391.705	72.7
391.915	91.13
392.125	168.96
392.334	62.46
392.544	84.99
392.753	48.13
392.963	117.76
393.172	-11.26
393.382	91.13
393.591	80.89
393.801	46.08
394.01	48.13
394.22	91.13
394.429	44.03
394.639	39.94
394.848	113.66
395.058	56.32
395.267	171.01
395.477	128
395.686	132.09
395.895	136.19
396.105	64.51
396.314	64.51
396.524	39.94
396.733	48.13
396.942	185.34
397.152	103.42
397.361	87.04
397.57	168.96
397.78	97.28
397.989	103.42
398.198	140.29
398.407	84.99
398.617	130.05
398.826	111.61
399.035	214.01
399.244	107.52
399.453	27.65
399.663	128
399.872	181.25
400.081	142.33
400.29	39.94
400.499	171.01
400.708	209.92
400.917	173.05
401.127	107.52
401.336	58.37
401.545	123.9
401.754	123.9
401.963	224.25
402.172	132.09
402.381	97.28
402.59	173.05
402.799	117.76
403.008	111.61
403.217	191.49
403.426	103.42
403.635	150.53
403.844	168.96
404.053	156.67
404.262	195.58
404.471	140.29
404.68	158.72
404.888	171.01
405.097	142.33
405.306	197.63
405.515	203.77
405.724	162.81
405.933	224.25
406.142	201.72
406.35	175.1
406.559	166.91
406.768	238.59
406.977	230.4
407.185	244.73
407.394	205.82
407.603	252.92
407.812	244.73
408.02	248.83
408.229	295.93
408.438	238.59
408.646	236.54
408.855	308.22
409.064	269.31
409.272	295.93
409.481	361.47
409.69	293.88
409.898	293.88
410.107	383.99
410.315	381.95
410.524	371.71
410.733	357.37
410.941	457.72
411.15	424.95
411.358	431.1
411.567	449.53
411.775	386.04
411.984	476.15
412.192	404.47
412.401	424.95
412.609	521.21
412.818	504.82
413.026	492.54
413.234	615.41
413.443	615.41
413.651	562.17
413.86	506.87
414.068	621.56
414.276	644.09
414.485	709.62
414.693	642.04
414.901	795.64
415.11	691.19
415.318	678.9
415.526	836.6
415.734	875.51
415.943	807.92
416.151	885.75
416.359	936.95
416.567	941.04
416.776	916.47
416.984	1016.82
417.192	1117.17
417.4	1117.17
417.608	1143.79
417.817	1242.09
418.025	1164.27
418.233	1305.58
418.441	1330.16
418.649	1332.2
418.857	1428.46
419.065	1457.13
419.273	1453.03
419.481	1489.9
419.689	1661.93
419.897	1571.82
420.105	1666.02
420.313	1709.03
420.521	1815.52
420.729	1891.3
420.937	1817.57
421.145	1856.48
421.353	2096.1
421.561	2145.25
421.769	2245.6
421.977	2360.28
422.185	2243.55
422.393	2393.05
422.601	2546.65
422.809	2503.64
423.017	2503.64
423.224	2620.38
423.432	2769.88
423.64	2757.59
423.848	3056.59
424.056	3085.26
424.263	3206.1
424.471	3185.62
424.679	3259.34
424.887	3484.62
425.094	3466.19
425.302	3570.63
425.51	3703.75
425.718	3720.14
425.925	3945.41
426.133	4012.99
426.341	4127.68
426.548	4508.6
426.756	4328.38
426.964	4615.1
427.171	4809.65
427.379	4877.24
427.586	4965.3
427.794	5065.65
428.001	5338.03
428.209	5612.46
428.417	5391.28
428.624	5866.41
428.832	5944.23
429.039	5913.51
429.247	5874.6
429.454	6374.3
429.662	6867.86
429.869	6347.68
430.076	6800.28
430.284	6605.72
430.491	6921.11
430.699	7340.94
430.906	7304.08
431.114	7463.82
431.321	7783.31
431.528	7912.33
431.736	8452.99
431.943	8807.29
432.15	8518.53
432.358	8543.1
432.565	9220.98
432.772	9051
432.979	9569.13
433.187	9800.55
433.394	9827.18
433.601	10152.81
433.808	10656.61
434.016	10318.69
434.223	10992.47
434.43	11766.6
434.637	11295.57
434.844	11983.69
435.052	12127.05
435.259	12108.62
435.466	12319.56
435.673	12016.46
435.88	13042.49
436.087	13517.62
436.294	13691.7
436.501	13304.63
436.708	13579.06
436.915	14136.1
437.122	14582.56
437.329	14633.76
437.537	15211.29
437.743	15399.7
437.95	15203.1
438.157	16007.95
438.364	16677.63
438.571	16395.01
438.778	16759.55
438.985	18010.86
439.192	17363.7
439.399	17857.26
439.606	17615.6
439.813	18588.39
440.02	19708.63
440.227	19507.93
440.433	19124.96
440.64	19983.06
440.847	19712.72
441.054	20392.65
441.261	21648.05
441.467	21377.72
441.674	21787.32
441.881	22713
442.088	22438.57
442.294	22336.17
442.501	23126.69
442.708	23503.51
442.914	24021.65
443.121	25455.23
443.328	24683.14
443.534	26286.7
443.741	25655.93
443.948	25320.06
444.154	27136.61
444.361	27181.67
444.568	27273.82
444.774	27304.54
444.981	27482.72
445.187	28502.61
445.394	29446.72
445.6	29153.86
445.807	31963.67
446.013	30618.16
446.22	31136.29
446.426	32209.43
446.633	32490
446.839	33491.46
447.046	32639.5
447.252	34079.22
447.459	34195.96
447.665	33929.72
447.871	36010.46
448.078	37272.01
448.284	35439.08
448.491	36086.23
448.697	37886.4
448.903	38414.77
449.11	38576.56
449.316	37644.74
449.522	38388.15
449.728	39410.09
449.935	40073.63
450.141	39852.45
450.347	40767.89
450.553	39240.11
450.76	39686.56
450.966	40935.82
451.172	40581.52
451.378	41642.37
451.584	40747.41
451.791	42420.6
451.997	41310.6
452.203	42123.65
452.409	42436.98
452.615	42109.31
452.821	40497.56
453.027	39969.18
453.233	42013.05
453.44	40524.18
453.646	41171.34
453.852	41255.31
454.058	41838.98
454.264	40288.67
454.47	41228.68
454.676	39752.1
454.882	41238.92
455.088	37773.76
455.294	38242.74
455.5	38666.67
455.705	39084.46
455.911	37577.15
456.117	36837.84
456.323	36401.62
456.529	34562.54
456.735	36047.32
456.941	35181.03
457.147	34402.8
457.352	33610.24
457.558	33266.18
457.764	32815.63
457.97	32375.31
458.176	31902.23
458.381	31738.4
458.587	30245.43
458.793	30173.75
458.999	28643.91
459.204	30698.03
459.41	29573.69
459.616	27898.45
459.821	27808.34
460.027	27611.74
460.233	26972.77
460.438	25866.87
460.644	26022.51
460.85	24949.38
461.055	24859.27
461.261	24326.8
461.466	22698.66
461.672	21906.1
461.878	23521.95
462.083	21828.27
462.289	21572.28
462.494	21154.49
462.7	20478.66
462.905	19606.23
463.111	20536.01
463.316	20331.21
463.522	20142.8
463.727	19782.35
463.932	20069.07
464.138	19790.55
464.343	19985.1
464.549	19579.61
464.754	19948.24
464.959	19682
465.165	19727.06
465.37	19104.48
465.575	18340.58
465.781	19055.33
465.986	19321.56
466.191	18510.57
466.397	18186.99
466.602	17111.8
466.807	17935.09
467.012	18045.68
467.218	17867.5
467.423	17767.15
467.628	17568.5
467.833	18375.4
468.038	17982.19
468.244	17275.64
468.449	17980.14
468.654	17224.44
468.859	17244.92
469.064	17027.84
469.269	16333.57
469.474	16642.82
469.679	16990.97
469.885	16503.56
470.09	16882.43
470.295	16495.36
470.5	16044.81
470.705	16225.03
470.91	15973.13
471.115	15827.73
471.32	15977.23
471.525	15631.12
471.73	15627.03
471.935	15399.7
472.139	14887.71
472.344	14859.04
472.549	14951.2
472.754	14578.47
472.959	14517.03
473.164	14064.43
473.369	13906.73
473.574	14383.91
473.778	14318.37
473.983	14318.37
474.188	13919.02
474.393	13630.26
474.598	13706.03
474.802	13314.87
475.007	13235
475.212	13353.78
475.417	12895.04
475.621	12866.36
475.826	12862.27
476.031	12497.73
476.235	12499.78
476.44	12534.59
476.645	12249.93
476.849	12335.94
477.054	12030.79
477.259	11940.68
477.463	12133.19
477.668	11602.77
477.872	11803.47
478.077	11709.26
478.282	11127.64
478.486	11238.23
478.691	11082.58
478.895	11125.59
479.1	11260.76
479.304	11184.98
479.509	10914.65
479.713	10857.31
479.918	10552.16
480.122	10711.9
480.326	10736.48
480.531	10744.67
480.735	10670.94
480.94	10531.68
481.144	10779.48
481.348	10257.25
481.553	10396.51
481.757	10195.81
481.961	10464.1
482.166	10570.59
482.37	10310.5
482.574	10101.61
482.778	10236.77
482.983	10466.14
483.187	10330.98
483.391	10167.14
483.595	10204
483.8	10290.02
484.004	10251.11
484.208	10365.79
484.412	10171.24
484.616	10308.45
484.821	10187.62
485.025	10046.31
485.229	10277.73
485.433	10165.09
485.637	10171.24
485.841	10181.48
486.045	10193.76
486.249	10232.68
486.453	10189.67
486.657	10255.2
486.861	10247.01
487.065	10005.35
487.269	10161
487.473	9991.02
487.677	10138.47
487.881	10376.03
488.085	10064.74
488.289	10513.25
488.493	10236.77
488.697	10253.16
488.901	10251.11
489.105	10253.16
489.309	10226.53
489.512	10423.14
489.716	10267.49
489.92	10187.62
490.124	10378.08
490.328	10554.21
490.531	10312.55
490.735	10359.65
490.939	10492.77
491.143	10257.25
491.346	10423.14
491.55	10675.04
491.754	10494.82
491.958	10484.58
492.161	10695.52
492.365	10558.3
492.569	10740.57
492.772	10718.04
492.976	10707.8
493.18	10916.7
493.383	11027.29
493.587	11240.28
493.79	11084.63
493.994	11033.43
494.197	11144.02
494.401	11144.02
494.605	11219.8
494.808	11283.28
495.012	11510.61
495.215	11709.26
495.419	11668.3
495.622	11576.14
495.825	11701.07
496.029	11817.8
496.232	11973.45
496.436	11985.74
496.639	12340.04
496.843	12231.49
497.046	12260.16
497.249	12407.62
497.453	12614.46
497.656	12694.33
497.859	12690.24
498.063	12786.49
498.266	13361.97
498.469	13087.54
498.673	13402.93
498.876	13441.84
499.079	13499.19
499.282	13595.44
499.485	14107.43
499.689	13933.36
499.892	14111.53
500.095	14201.64
500.298	14631.71
500.501	14351.14
500.705	14869.28
500.908	14869.28
501.111	15094.55
501.314	15127.32
501.517	15391.51
501.72	15549.2
501.923	15328.02
502.126	15780.62
502.329	16225.03
502.532	16435.97
502.735	16018.19
502.938	16728.83
503.141	16732.93
503.344	17208.06
503.547	17046.27
503.75	17171.19
503.953	17498.87
504.156	17406.71
504.359	17779.44
504.562	17668.85
504.765	17961.71
504.968	18471.65
505.17	18776.8
505.373	18469.61
505.576	19038.94
505.779	19090.14
505.982	19172.06
506.185	19182.3
506.387	19565.27
506.59	19792.59
506.793	20030.16
506.996	19993.29
507.198	20882.11
507.401	20681.41
507.604	20828.87
507.807	21215.93
508.009	21357.24
508.212	21441.21
508.415	21605.05
508.617	22041.26
508.82	22092.46
509.022	22051.5
509.225	22756
509.428	22893.22
509.63	22911.65
509.833	22993.57
510.035	23243.42
510.238	23194.27
510.44	23577.24
510.643	23937.68
510.845	24328.84
511.048	24060.56
511.25	24599.18
511.453	24533.64
511.655	25649.78
511.858	25088.64
512.06	25348.73
512.262	25479.8
512.465	25617.02
512.667	25905.78
512.87	26169.97
513.072	26477.16
513.274	26978.92
513.477	27120.23
513.679	27064.93
513.881	27925.08
514.084	27826.78
514.286	27634.27
514.488	27814.49
514.69	28719.69
514.893	28983.88
515.095	28799.56
515.297	29010.5
515.499	29248.07
515.701	29479.49
515.904	30046.77
516.106	29872.7
516.308	30233.14
516.51	30579.25
516.712	30927.4
516.914	30925.35
517.116	31472.16
517.318	31250.98
517.52	31547.93
517.722	31640.09
517.925	32225.81
518.127	32860.68
518.329	32772.62
518.531	32496.14
518.733	33286.66
518.935	33714.69
519.136	33366.53
519.338	33858.04
519.54	34007.55
519.742	34818.54
519.944	34765.29
520.146	35133.93
520.348	35375.59
520.55	35359.2
520.752	35170.79
520.954	36282.84
521.155	35809.76
521.357	36180.44
521.559	36329.94
521.761	37294.53
521.963	36719.06
522.164	37368.26
522.366	37382.6
522.568	37487.04
522.77	37724.61
522.971	38150.59
523.173	38156.73
523.375	38314.42
523.576	38595
523.778	38472.12
523.98	38930.86
524.181	39041.45
524.383	38855.09
524.584	39745.95
524.786	39510.44
524.988	39614.88
525.189	39768.48
525.391	40403.35
525.592	40108.44
525.794	40432.02
525.995	40685.97
526.197	40505.75
526.398	40569.24
526.6	41177.48
526.801	41027.98
527.003	41681.28
527.204	41603.46
527.406	41849.22
527.607	41484.68
527.808	41924.99
528.01	40989.07
528.211	41611.65
528.412	42600.82
528.614	41826.69
528.815	42387.83
529.016	42772.85
529.218	42115.45
529.419	42328.44
529.62	42387.83
529.822	42361.21
530.023	42525.05
530.224	42709.36
530.425	42602.87
530.626	42303.87
530.828	43100.53
531.029	43596.13
531.23	42361.21
531.431	42682.74
531.632	42803.57
531.833	43239.79
532.035	43272.56
532.236	43041.14
532.437	43469.16
532.638	43041.14
532.839	43589.99
533.04	43207.02
533.241	42895.73
533.442	43899.23
533.643	43155.82
533.844	43104.62
534.045	43266.41
534.246	42832.24
534.447	43528.55
534.648	43329.9
534.849	43653.48
535.05	43088.24
535.251	43118.96
535.451	43395.43
535.652	43719.01
535.853	43272.56
536.054	43688.29
536.255	43385.19
536.456	43336.04
536.657	43882.85
536.857	43465.06
537.058	43088.24
537.259	43450.73
537.46	43344.23
537.66	43620.71
537.861	43589.99
538.062	43108.72
538.263	43374.95
538.463	43463.02
538.664	43366.76
538.865	43438.44
539.065	43645.29
539.266	43075.95
539.466	43749.73
539.667	42858.87
539.868	43688.29
540.068	43020.66
540.269	42881.39
540.469	43712.87
540.67	42908.02
540.87	43141.49
541.071	43186.54
541.271	43372.91
541.472	43168.11
541.672	42940.78
541.873	43112.81
542.073	42588.53
542.274	43403.63
542.474	43121.01
542.675	43157.87
542.875	43389.29
543.075	42858.87
543.276	42373.5
543.476	43452.78
543.676	42856.82
543.877	43125.1
544.077	42643.83
544.277	42865.01
544.478	42772.85
544.678	43145.58
544.878	42748.28
545.078	43231.6
545.279	43018.61
545.479	43102.57
545.679	42809.71
545.879	42672.5
546.079	42797.43
546.28	42715.51
546.48	42908.02
546.68	43063.66
546.88	42678.64
547.08	42672.5
547.28	42563.96
547.48	42322.3
547.68	42875.25
547.88	42510.71
548.081	43010.42
548.281	42441.08
548.481	42408.31
548.681	42692.98
548.881	42897.78
549.081	42428.79
549.28	42314.11
549.48	43049.33
549.68	42721.65
549.88	42389.88
550.08	42490.23
550.28	42494.33
550.48	42254.72
550.68	42658.17
550.88	42492.28
551.08	42549.62
551.279	42660.21
551.479	41742.72
551.679	42058.11
551.879	42387.83
552.079	42436.98
552.278	42211.71
552.478	42320.25
552.678	42019.2
552.878	42533.24
553.077	42721.65
553.277	42400.12
553.477	42408.31
553.676	42000.77
553.876	42367.35
554.076	41818.5
554.275	42041.73
554.475	41484.68
554.674	42000.77
554.874	42125.69
555.074	41703.81
555.273	42068.35
555.473	41970.05
555.672	41642.37
555.872	42232.19
556.071	41861.51
556.271	42105.21
556.47	41650.56
556.67	41669
556.869	41771.39
557.068	41884.03
557.268	41234.83
557.467	41558.41
557.667	41677.19
557.866	41515.4
558.065	41572.74
558.265	41245.07
558.464	41427.34
558.663	41750.91
558.863	40962.45
559.062	41507.21
559.261	40835.47
559.461	41650.56
559.66	40835.47
559.859	41437.58
560.058	40688.02
560.258	41236.87
560.457	40610.2
560.656	41357.7
560.855	40804.75
561.054	41023.89
561.253	40679.83
561.453	40645.01
561.652	40878.48
561.851	40747.41
562.05	40786.32
562.249	40509.85
562.448	40771.99
562.647	40047
562.846	39870.88
563.045	40901.01
563.244	40090.01
563.443	40362.39
563.642	39584.16
563.841	40348.06
564.04	39645.6
564.239	40202.65
564.438	39553.44
564.637	40057.24
564.836	40071.58
565.035	39618.98
565.234	39661.99
565.432	39389.61
565.631	39162.28
565.83	39383.46
566.029	39106.99
566.228	39299.5
566.427	39246.25
566.625	39371.18
566.824	39014.83
567.023	39262.63
567.222	38382.01
567.42	39055.79
567.619	39154.09
567.818	38533.56
568.016	38537.65
568.215	38707.63
568.414	38312.38
568.612	38969.77
568.811	38627.76
569.01	38457.78
569.208	38140.35
569.407	38429.11
569.605	37708.22
569.804	38144.44
570.002	37679.55
570.201	38334.9
570.4	37886.4
570.598	37693.89
570.797	37681.6
570.995	37878.21
571.193	37382.6
571.392	37714.37
571.59	37247.43
571.789	37190.09
571.987	37245.38
572.186	36927.95
572.384	36927.95
572.582	37374.41
572.781	37145.03
572.979	36628.95
573.177	36471.25
573.376	36805.07
573.574	36348.37
573.772	36497.88
573.971	36602.32
574.169	36190.68
574.367	35895.77
574.565	36284.89
574.763	36200.92
574.962	35965.4
575.16	35484.13
575.358	36065.75
575.556	35426.79
575.754	36317.65
575.952	35080.68
576.151	35635.68
576.349	35224.04
576.547	35142.12
576.745	35559.91
576.943	35164.65
577.141	35174.89
577.339	34984.43
577.537	34728.43
577.735	34900.46
577.933	34761.2
578.131	34664.94
578.329	34423.28
578.527	34118.14
578.725	34230.77
578.923	34585.07
579.121	34208.25
579.319	34210.29
579.516	34398.71
579.714	34048.5
579.912	33933.82
580.11	33876.48
580.308	34580.98
580.506	33765.88
580.704	33331.72
580.901	33759.74
581.099	33919.48
581.297	33184.26
581.495	33120.77
581.692	33460.74
581.89	33018.38
582.088	33264.13
582.285	32827.92
582.483	33419.78
582.681	32813.58
582.878	32754.19
583.076	32467.47
583.274	32895.5
583.471	32444.94
583.669	32479.76
583.866	32371.22
584.064	32293.4
584.262	32041.5
584.459	32588.3
584.657	32139.8
584.854	32184.85
585.052	31586.85
585.249	31791.64
585.447	31875.61
585.644	31513.12
585.841	31711.77
586.039	31703.58
586.236	31388.19
586.434	31222.31
586.631	31343.14
586.828	30992.94
587.026	31519.26
587.223	30990.89
587.42	30712.36
587.618	30925.35
587.815	30546.48
588.012	30747.18
588.21	30380.59
588.407	30763.56
588.604	30460.46
588.801	30253.62
588.999	30190.13
589.196	30437.94
589.393	30026.29
589.59	29817.4
589.787	29733.43
589.984	29891.13
590.182	29422.14
590.379	29575.74
590.576	29559.36
590.773	29553.21
590.97	29020.74
591.167	29432.38
591.364	29160
591.561	28994.12
591.758	29065.8
591.955	28834.38
592.152	29112.9
592.349	28500.56
592.546	28822.09
592.743	28881.48
592.94	28191.31
593.137	28740.17
593.334	28893.77
593.531	28019.28
593.727	28568.14
593.924	28084.82
594.121	28015.19
594.318	28252.75
594.515	27716.19
594.712	28119.63
594.908	27562.59
595.105	27638.36
595.302	27398.75
595.499	27568.73
595.696	27535.96
595.892	27308.64
596.089	27462.24
596.286	27392.61
596.482	27394.65
596.679	27325.02
596.876	26925.67
597.072	26886.76
597.269	26663.53
597.466	26735.21
597.662	26581.61
597.859	26307.18
598.055	26360.43
598.252	26067.57
598.448	26294.89
598.645	26167.92
598.841	25834.1
599.038	25999.99
599.234	25772.66
599.431	25768.57
599.627	25879.16
599.824	25778.81
600.02	26073.71
600.217	25827.96
600.413	25559.67
600.609	25432.7
600.806	25471.61
601.002	25119.36
601.198	25141.89
601.395	25121.41
601.591	25270.91
601.787	24881.8
601.984	24853.12
602.18	25201.28
602.376	24519.31
602.572	24679.05
602.769	24887.94
602.965	24369.8
603.161	24273.55
603.357	24173.2
603.553	24130.19
603.75	24537.74
603.946	23943.83
604.142	24197.77
604.338	23913.11
604.534	23837.33
604.73	23732.89
604.926	23569.05
605.122	23767.7
605.318	23354.01
605.514	23550.62
605.71	23282.33
605.906	23476.89
606.102	23401.11
606.298	23397.02
606.494	23132.83
606.69	23681.69
606.886	23380.64
607.082	22899.36
607.278	23319.2
607.474	22815.4
607.67	23079.58
607.866	22588.07
608.062	22997.67
608.257	22842.02
608.453	22805.16
608.649	22690.47
608.845	22637.22
609.041	22479.53
609.236	22665.89
609.432	22387.37
609.628	22348.46
609.824	22452.91
610.019	22256.3
610.215	22198.96
610.411	22430.38
610.606	21981.87
610.802	21899.95
610.998	21908.15
611.193	21936.82
611.389	21709.49
611.584	21908.15
611.78	21572.28
611.976	21875.38
612.171	21680.82
612.367	21682.87
612.562	21652.15
612.758	21351.1
612.953	21248.7
613.149	21899.95
613.344	21250.75
613.539	21486.26
613.735	21631.67
613.93	21385.91
614.126	21306.04
614.321	21347
614.517	21496.5
614.712	20931.26
614.907	20939.46
615.103	21086.91
615.298	21025.47
615.493	21334.71
615.688	20517.57
615.884	21205.69
616.079	20757.19
616.274	20546.25
616.47	20542.15
616.665	20849.35
616.86	20613.83
617.055	20751.04
617.25	20593.35
617.445	20822.72
617.641	20335.31
617.836	20546.25
618.031	20265.67
618.226	20175.56
618.421	20150.99
618.616	20292.3
618.811	20150.99
619.006	20271.82
619.201	19870.42
619.396	19815.12
619.591	19649.24
619.786	19682
619.981	19462.87
620.176	19671.76
620.371	19479.25
620.566	19518.17
620.761	19174.11
620.956	19303.13
621.151	18893.54
621.346	18946.78
621.541	18875.1
621.735	19325.66
621.93	18729.7
622.125	18610.92
622.32	18739.94
622.515	18254.57
622.709	18502.37
622.904	18430.69
623.099	18281.19
623.294	18291.43
623.488	18039.53
623.683	18115.31
623.878	17715.95
624.072	17930.99
624.267	17806.06
624.462	17791.73
624.656	17320.7
624.851	17496.82
625.046	17533.68
625.24	17298.17
625.435	17015.55
625.629	17132.28
625.824	16767.74
626.018	17150.71
626.213	16614.15
626.407	16737.02
626.602	16495.36
626.796	16575.24
626.991	16603.91
627.185	16417.54
627.38	16382.73
627.574	16132.87
627.768	16202.5
627.963	16204.55
628.157	16044.81
628.352	15809.29
628.546	15373.08
628.74	15700.75
628.935	15444.76
629.129	15624.98
629.323	15342.36
629.517	15371.03
629.712	15082.27
629.906	15274.77
630.1	15043.35
630.294	15004.44
630.489	14660.38
630.683	15192.86
630.877	14578.47
631.071	14828.32
631.265	14560.03
631.459	14514.98
631.653	14373.67
631.848	14400.29
632.042	14256.93
632.236	14328.61
632.43	14181.16
632.624	14027.56
632.818	14105.38
633.012	13978.41
633.206	13847.34
633.4	13742.89
633.594	13583.15
633.788	13724.46
633.982	13550.39
634.176	13654.83
634.369	13265.72
634.563	13312.82
634.757	12983.1
634.951	13198.13
635.145	13194.04
635.339	13308.72
635.533	12991.29
635.726	12987.19
635.92	12911.42
636.114	12802.88
636.308	12579.65
636.501	12790.59
636.695	12700.48
636.889	12550.98
637.083	12532.54
637.276	12442.43
637.47	12335.94
637.664	11985.74
637.857	12340.04
638.051	11971.4
638.244	11955.02
638.438	11957.07
638.632	11942.73
638.825	11815.76
639.019	11838.28
639.212	11801.42
639.406	11772.75
639.599	11662.16
639.793	11625.29
639.986	11369.3
640.18	11395.92
640.373	11506.51
640.567	11250.52
640.76	11162.45
640.954	11242.32
641.147	11203.41
641.34	10976.09
641.534	11141.97
641.727	11031.38
641.92	10863.45
642.114	10812.25
642.307	10564.45
642.5	10662.75
642.694	10318.69
642.887	10412.9
643.08	10472.29
643.273	10320.74
643.467	10388.32
643.66	10509.15
643.853	10443.62
644.046	10197.86
644.239	10259.3
644.432	9982.82
644.626	10050.41
644.819	10128.23
645.012	9986.92
645.205	9810.79
645.398	9890.67
645.591	9837.42
645.784	9630.57
645.977	9522.03
646.17	9710.44
646.363	9571.18
646.556	9526.13
646.749	9476.98
646.942	9540.46
647.135	9309.04
647.328	9358.19
647.521	9362.29
647.714	9220.98
647.907	9218.93
648.099	8979.32
648.292	9132.92
648.485	9128.82
648.678	9005.94
648.871	8928.12
649.064	8858.49
649.256	8797.05
649.449	8725.37
649.642	8842.11
649.835	8723.32
650.027	8799.1
650.22	8749.95
650.413	8684.41
650.605	8559.49
650.798	8510.33
650.991	8543.1
651.183	8395.65
651.376	8194.95
651.568	8280.96
651.761	8235.91
651.954	8326.02
652.146	8176.52
652.339	8049.54
652.531	8045.45
652.724	8223.62
652.916	7879.56
653.109	7953.29
653.301	8000.39
653.494	8037.25
653.686	7887.75
653.879	7814.02
654.071	7746.44
654.263	7803.78
654.456	7742.35
654.648	7699.34
654.84	7637.9
655.033	7637.9
655.225	7685
655.417	7463.82
655.61	7467.92
655.802	7429.01
655.994	7218.07
656.186	7328.66
656.379	7408.53
656.571	7316.37
656.763	7113.62
656.955	7306.13
657.148	7052.18
657.34	6974.36
657.532	7007.13
657.724	7121.81
657.916	6896.53
658.108	6912.92
658.3	6804.38
658.492	6876.06
658.684	6685.59
658.876	6697.88
659.068	6744.99
659.26	6714.27
659.452	6824.86
659.644	6577.05
659.836	6554.52
660.028	6689.69
660.22	6738.84
660.412	6486.94
660.604	6491.04
660.796	6534.04
660.988	6288.29
661.18	6370.21
661.372	6282.14
661.563	6251.42
661.755	6312.86
661.947	6245.28
662.139	6329.25
662.331	6151.07
662.522	6161.31
662.714	6036.39
662.906	6017.96
663.097	5981.09
663.289	6044.58
663.481	6032.29
663.673	5831.59
663.864	5915.56
664.056	5909.41
664.247	5837.73
664.439	5714.86
664.631	5823.4
664.822	5841.83
665.014	5745.58
665.205	5716.9
665.397	5618.6
665.588	5610.41
665.78	5540.78
665.971	5540.78
666.163	5596.07
666.354	5530.54
666.546	5520.3
666.737	5409.71
666.929	5430.19
667.12	5411.76
667.311	5458.86
667.503	5411.76
667.694	5374.89
667.885	5348.27
668.077	5331.89
668.268	5389.23
668.459	5180.34
668.651	5313.45
668.842	5290.93
669.033	5223.34
669.224	5200.82
669.416	5104.56
669.607	5045.17
669.798	4873.14
669.989	5192.62
670.18	5139.38
670.371	5030.84
670.563	5026.74
670.754	4957.11
670.945	5020.6
671.136	5028.79
671.327	4953.01
671.518	4946.87
671.709	4862.9
671.9	4856.76
672.091	4893.62
672.282	4922.29
672.473	4733.88
672.664	4803.51
672.855	4598.71
673.046	4694.97
673.237	4983.73
673.428	4651.96
673.619	4746.17
673.809	4615.1
674	4676.54
674.191	4686.78
674.382	4594.62
674.573	4561.85
674.764	4553.66
674.954	4524.99
675.145	4545.47
675.336	4545.47
675.527	4608.95
675.717	4551.61
675.908	4379.58
676.099	4492.22
676.289	4299.71
676.48	4475.84
676.671	4406.2
676.861	4348.86
677.052	4336.57
677.243	4533.18
677.433	4279.23
677.624	4289.47
677.814	4254.66
678.005	4357.05
678.195	4373.44
678.386	4348.86
678.576	4312
678.767	4254.66
678.957	4211.65
679.148	4293.57
679.338	4232.13
679.529	4322.24
679.719	4090.82
679.909	4438.97
680.1	4185.02
680.29	4268.99
680.481	4133.82
680.671	4119.49
680.861	4228.03
681.052	4207.55
681.242	4230.08
681.432	4199.36
681.622	3922.88
681.813	4154.3
682.003	4178.88
682.193	4088.77
682.383	4129.73
682.573	3965.89
682.764	3867.59
682.954	3992.52
683.144	3900.36
683.334	4027.33
683.524	3935.17
683.714	3984.32
683.904	4033.47
684.094	3912.64
684.284	4027.33
684.474	4039.62
684.664	3965.89
684.854	3937.22
685.044	3890.12
685.234	3920.84
685.424	3806.15
685.614	3875.78
685.804	3957.7
685.994	3791.81
686.184	3900.36
686.374	3773.38
686.564	3769.29
686.753	3773.38
686.943	3677.13
687.133	3638.22
687.323	3806.15
687.513	3625.93
687.702	3644.36
687.892	3646.41
688.082	3501
688.272	3570.63
688.461	3562.44
688.651	3531.72
688.841	3496.91
689.03	3556.3
689.22	3613.64
689.41	3488.71
689.599	3462.09
689.789	3478.47
689.979	3509.19
690.168	3466.19
690.358	3275.73
690.547	3380.17
690.737	3402.7
690.926	3400.65
691.116	3341.26
691.305	3394.51
691.495	3290.06
691.684	3283.92
691.874	3255.25
692.063	3292.11
692.252	3247.05
692.442	3394.51
692.631	3165.14
692.82	3267.53
693.01	3154.9
693.199	3202
693.388	3115.98
693.578	3228.62
693.767	3165.14
693.956	3136.46
694.146	3242.96
694.335	3148.75
694.524	3130.32
694.713	3042.26
694.902	3118.03
695.092	3032.02
695.281	3032.02
695.47	3001.3
695.659	3007.44
695.848	3058.64
696.037	3025.87
696.226	3089.36
696.415	2993.11
696.604	3052.5
696.793	3050.45
696.982	3062.74
697.171	3132.37
697.36	3052.5
697.549	2952.15
697.738	2964.43
697.927	3046.35
698.116	3048.4
698.305	3103.7
698.494	3148.75
698.683	2911.19
698.872	3105.74
699.061	2925.52
699.25	2919.38
699.438	2948.05
699.627	2880.47
699.816	3034.07
700.005	2894.8
700.193	2952.15
700.382	2982.87
700.571	2943.96
700.76	2903
700.948	3036.11
701.137	2851.8
701.326	2894.8
701.514	2978.77
701.703	2864.08
701.892	2948.05
702.08	2980.82
702.269	2986.96
702.457	3005.39
702.646	2880.47
702.834	2837.46
703.023	2929.62
703.212	2976.72
703.4	2943.96
703.589	2943.96
703.777	2903
703.965	2874.32
704.154	2880.47
704.342	2925.52
704.531	2825.17
704.719	2982.87
704.907	2933.72
705.096	2907.09
705.284	2970.58
705.472	2853.84
705.661	3013.59
705.849	2806.74
706.037	2976.72
706.226	2927.57
706.414	2894.8
706.602	2866.13
706.79	2958.29
706.979	2843.6
707.167	2761.69
707.355	2767.83
707.543	2890.71
707.731	2909.14
707.919	2798.55
708.107	2773.97
708.296	2868.18
708.484	2833.36
708.672	2716.63
708.86	2874.32
709.048	2915.28
709.236	2876.37
709.424	2925.52
709.612	2839.51
709.8	2886.61
709.988	2833.36
710.176	2864.08
710.364	3005.39
710.551	2816.98
710.739	2835.41
710.927	2888.66
711.115	2855.89
711.303	2884.56
711.491	2821.08
711.679	2855.89
711.866	2743.25
712.054	2825.17
712.242	2927.57
712.43	2819.03
712.617	2825.17
712.805	2878.42
712.993	2868.18
713.181	2886.61
713.368	2741.21
713.556	2849.75
713.744	2720.73
713.931	2898.9
714.119	2825.17
714.306	2907.09
714.494	2952.15
714.682	2755.54
714.869	2855.89
715.057	2878.42
715.244	2839.51
715.432	2903
715.619	2761.69
715.807	2929.62
715.994	2866.13
716.182	2722.77
716.369	2847.7
716.556	2831.32
716.744	2763.73
716.931	2794.45
717.119	2827.22
717.306	2941.91
717.493	2827.22
717.681	2829.27
717.868	2739.16
718.055	2802.65
718.242	2870.23
718.43	2769.88
718.617	2778.07
718.804	2794.45
718.991	2866.13
719.179	2737.11
719.366	2669.53
719.553	2823.12
719.74	2806.74
719.927	2718.68
720.114	2745.3
720.301	2790.36
720.488	2792.41
720.676	2749.4
720.863	2802.65
721.05	2776.02
721.237	2757.59
721.424	2700.25
721.611	2747.35
721.798	2853.84
721.985	2685.91
722.172	2716.63
722.358	2690.01
722.545	2843.6
722.732	2630.62
722.919	2724.82
723.106	2593.75
723.293	2712.53
723.48	2874.32
723.667	2640.86
723.853	2679.77
724.04	2647
724.227	2726.87
724.414	2679.77
724.6	2769.88
724.787	2702.29
724.974	2864.08
725.161	2864.08
725.347	2571.22
725.534	2782.17
725.72	2690.01
725.907	2671.58
726.094	2655.19
726.28	2698.2
726.467	2692.05
726.653	2735.06
726.84	2769.88
727.027	2665.43
727.213	2608.09
727.4	2681.82
727.586	2687.96
727.773	2575.32
727.959	2661.34
728.145	2681.82
728.332	2671.58
728.518	2694.1
728.705	2665.43
728.891	2741.21
729.077	2687.96
729.264	2683.86
729.45	2610.14
729.636	2624.47
729.823	2636.76
730.009	2606.04
730.195	2630.62
730.382	2569.18
730.568	2554.84
730.754	2728.92
730.94	2739.16
731.126	2603.99
731.313	2493.4
731.499	2606.04
731.685	2597.85
731.871	2718.68
732.057	2753.49
732.243	2528.22
732.429	2630.62
732.615	2501.59
732.801	2712.53
732.987	2640.86
733.173	2583.51
733.359	2522.07
733.545	2589.66
733.731	2591.7
733.917	2597.85
734.103	2511.83
734.289	2548.7
734.475	2524.12
734.661	2556.89
734.847	2522.07
735.033	2509.79
735.219	2544.6
735.404	2610.14
735.59	2532.31
735.776	2515.93
735.962	2608.09
736.148	2620.38
736.333	2345.95
736.519	2626.52
736.705	2491.35
736.89	2579.42
737.076	2558.94
737.262	2524.12
737.447	2423.77
737.633	2378.72
737.819	2554.84
738.004	2485.21
738.19	2485.21
738.375	2423.77
738.561	2548.7
738.747	2495.45
738.932	2337.76
739.118	2517.98
739.303	2366.43
739.489	2563.03
739.674	2403.29
739.859	2477.02
740.045	2393.05
740.23	2546.65
740.416	2372.57
740.601	2468.83
740.786	2464.73
740.972	2415.58
741.157	2411.48
741.342	2327.52
741.528	2317.28
741.713	2323.42
741.898	2290.65
742.084	2362.33
742.269	2360.28
742.454	2290.65
742.639	2331.61
742.824	2231.26
743.01	2309.08
743.195	2319.32
743.38	2288.61
743.565	2192.35
743.75	2198.49
743.935	2126.82
744.12	2255.84
744.305	2206.69
744.49	2169.82
744.675	2214.88
744.86	2167.77
745.045	2221.02
745.23	2102.24
745.415	2149.34
745.6	2094.05
745.785	2094.05
745.97	2167.77
746.155	2034.66
746.34	2094.05
746.525	2063.33
746.71	2038.75
746.895	1973.22
747.079	1909.73
747.264	2069.47
747.449	1950.69
747.634	2030.56
747.819	2008.03
748.003	2008.03
748.188	1919.97
748.373	1926.11
748.557	2034.66
748.742	1893.35
748.927	1782.76
749.111	1790.95
749.296	1954.79
749.481	1866.72
749.665	1881.06
749.85	1790.95
750.034	1903.59
750.219	1811.43
750.404	1860.58
750.588	1776.61
750.773	1731.56
750.957	1764.33
751.141	1852.39
751.326	1776.61
751.51	1754.09
751.695	1790.95
751.879	1686.5
752.064	1682.41
752.248	1682.41
752.432	1739.75
752.617	1684.45
752.801	1473.51
752.985	1547.24
753.17	1706.98
753.354	1672.17
753.538	1627.11
753.722	1512.42
753.907	1563.62
754.091	1477.61
754.275	1584.1
754.459	1516.52
754.643	1571.82
754.828	1549.29
755.012	1588.2
755.196	1539.05
755.38	1342.44
755.564	1496.04
755.748	1485.8
755.932	1506.28
756.116	1493.99
756.3	1506.28
756.484	1475.56
756.668	1401.83
756.852	1410.03
757.036	1391.59
757.22	1428.46
757.404	1336.3
757.588	1387.5
757.772	1356.78
757.956	1293.29
758.14	1356.78
758.323	1391.59
758.507	1254.38
758.691	1358.83
758.875	1285.1
759.059	1295.34
759.242	1250.28
759.426	1244.14
759.61	1240.05
759.794	1238
759.977	1274.86
760.161	1352.68
760.345	1262.57
760.528	1164.27
760.712	1258.48
760.895	1205.23
761.079	1182.7
761.263	1156.08
761.446	1190.89
761.63	1217.52
761.813	1215.47
761.997	1096.69
762.18	1209.33
762.364	1180.65
762.547	1143.79
762.731	1238
762.914	1227.76
763.098	1240.05
763.281	1178.61
763.464	1057.78
763.648	1166.32
763.831	1127.41
764.015	1121.26
764.198	1121.26
764.381	1131.5
764.564	1201.13
764.748	1098.74
764.931	1102.83
765.114	1029.1
765.297	1082.35
765.481	1106.93
765.664	1135.6
765.847	926.71
766.03	1088.5
766.213	1088.5
766.397	1084.4
766.58	998.38
766.763	1014.77
766.946	1029.1
767.129	1010.67
767.312	945.14
767.495	988.14
767.678	1133.55
767.861	992.24
768.044	1020.91
768.227	1022.96
768.41	912.37
768.593	965.62
768.776	977.91
768.959	992.24
769.142	973.81
769.324	1006.58
769.507	998.38
769.69	889.84
769.873	1029.1
770.056	1004.53
770.239	979.95
770.421	959.47
770.604	953.33
770.787	934.9
770.97	953.33
771.152	928.75
771.335	951.28
771.518	912.37
771.7	963.57
771.883	908.27
772.066	883.7
772.248	910.32
772.431	824.31
772.613	844.79
772.796	812.02
772.978	887.79
773.161	881.65
773.343	820.21
773.526	893.94
773.708	859.12
773.891	771.06
774.073	838.64
774.256	803.83
774.438	842.74
774.621	834.55
774.803	807.92
774.985	785.4
775.168	805.88
775.35	775.16
775.532	855.03
775.715	803.83
775.897	713.72
776.079	834.55
776.261	709.62
776.444	748.53
776.626	769.01
776.808	723.96
776.99	750.58
777.173	777.2
777.355	746.48
777.537	705.53
777.719	699.38
777.901	785.4
778.083	678.9
778.265	683
778.447	689.14
778.629	719.86
778.811	668.66
778.993	644.09
779.175	705.53
779.357	713.72
779.539	685.05
779.721	662.52
779.903	689.14
780.085	693.24
780.267	662.52
780.449	551.93
780.631	633.85
780.812	621.56
780.994	627.7
781.176	656.37
781.358	601.08
781.54	625.65
781.721	599.03
781.903	607.22
782.085	549.88
782.267	609.27
782.448	490.49
782.63	549.88
782.812	609.27
782.993	619.51
783.175	543.74
783.357	586.74
783.538	576.5
783.72	650.23
783.901	525.3
784.083	558.07
784.264	525.3
784.446	570.36
784.627	562.17
784.809	472.06
784.99	467.96
785.172	519.16
785.353	472.06
785.535	617.46
785.716	414.71
785.897	447.48
786.079	558.07
786.26	529.4
786.441	488.44
786.623	455.67
786.804	453.63
786.985	504.82
787.167	414.71
787.348	484.34
787.529	480.25
787.71	523.26
787.891	388.09
788.073	480.25
788.254	449.53
788.435	455.67
788.616	472.06
788.797	449.53
788.978	470.01
789.159	424.95
789.34	349.18
789.522	433.15
789.703	422.91
789.884	410.62
790.065	355.32
790.246	531.45
790.427	338.94
790.607	412.67
790.788	424.95
790.969	416.76
791.15	361.47
791.331	441.34
791.512	412.67
791.693	363.51
791.874	377.85
792.054	504.82
792.235	418.81
792.416	326.65
792.597	349.18
792.778	324.6
792.958	414.71
793.139	345.08
793.32	314.36
793.5	326.65
793.681	238.59
793.862	338.94
794.042	396.28
794.223	279.55
794.404	404.47
794.584	330.75
794.765	347.13
794.945	424.95
795.126	408.57
795.306	343.03
795.487	297.98
795.667	295.93
795.848	322.56
796.028	275.45
796.209	359.42
796.389	398.33
796.57	310.27
796.75	277.5
796.93	261.12
797.111	259.07
797.291	275.45
797.471	297.98
797.652	275.45
797.832	277.5
798.012	289.79
798.192	281.6
798.373	230.4
798.553	367.61
798.733	343.03
798.913	275.45
799.093	222.2
799.274	234.49
799.454	269.31
799.634	168.96
799.814	340.99
799.994	306.17
800.174	275.45
800.354	267.26
800.534	252.92
800.714	254.97
800.894	216.06
801.074	236.54
801.254	259.07
801.434	242.68
801.614	257.02
801.794	310.27
801.974	695.29
802.154	242.68
802.334	259.07
802.514	240.64
802.693	166.91
802.873	271.36
803.053	220.16
803.233	316.41
803.413	218.11
803.592	242.68
803.772	185.34
803.952	267.26
804.131	236.54
804.311	234.49
804.491	261.12
804.67	242.68
804.85	228.35
805.03	171.01
805.209	246.78
805.389	269.31
805.568	220.16
805.748	234.49
805.928	257.02
806.107	254.97
806.287	220.16
806.466	216.06
806.646	187.39
806.825	189.44
807.004	267.26
807.184	250.88
807.363	205.82
807.543	205.82
807.722	162.81
807.901	201.72
808.081	168.96
808.26	160.77
808.439	261.12
808.619	195.58
808.798	236.54
808.977	216.06
809.156	263.16
809.336	209.92
809.515	203.77
809.694	156.67
809.873	228.35
810.052	252.92
810.231	236.54
810.411	216.06
810.59	214.01
810.769	121.85
810.948	230.4
811.127	173.05
811.306	152.57
811.485	134.14
811.664	254.97
811.843	179.2
812.022	220.16
812.201	183.29
812.38	177.15
812.559	142.33
812.737	236.54
812.916	191.49
813.095	78.85
813.274	209.92
813.453	234.49
813.632	185.34
813.811	115.71
813.989	168.96
814.168	201.72
814.347	166.91
814.526	136.19
814.704	193.53
814.883	148.48
815.062	144.38
815.24	166.91
815.419	166.91
815.598	156.67
815.776	115.71
815.955	175.1
816.133	84.99
816.312	105.47
816.49	160.77
816.669	35.84
816.847	164.86
817.026	185.34
817.204	211.96
817.383	103.42
817.561	140.29
817.74	222.2
817.918	144.38
818.097	91.13
818.275	121.85
818.453	136.19
818.632	160.77
818.81	91.13
818.988	134.14
819.167	162.81
819.345	173.05
819.523	91.13
819.701	154.62
819.879	185.34
820.058	111.61
820.236	191.49
820.414	134.14
820.592	203.77
820.77	109.57
820.948	128
821.127	39.94
821.305	128
821.483	117.76
821.661	179.2
821.839	138.24
822.017	111.61
822.195	156.67
822.373	117.76
822.551	113.66
822.729	103.42
822.907	166.91
823.085	60.42
823.262	220.16
823.44	99.33
823.618	107.52
823.796	58.37
823.974	130.05
824.152	82.94
824.329	91.13
824.507	171.01
824.685	125.95
824.863	191.49
825.04	156.67
825.218	132.09
825.396	103.42
825.574	119.81
825.751	130.05
825.929	117.76
826.107	66.56
826.284	119.81
826.462	164.86
826.639	128
826.817	72.7
826.994	68.61
827.172	46.08
827.349	128
827.527	195.58
827.704	121.85
827.882	109.57
828.059	95.23
828.237	150.53
828.414	91.13
828.591	76.8
828.769	125.95
828.946	84.99
829.124	58.37
829.301	111.61
829.478	35.84
829.655	70.65
829.833	136.19
830.01	50.18
830.187	44.03
830.364	29.7
830.542	134.14
830.719	80.89
830.896	89.09
831.073	97.28
831.25	99.33
831.427	142.33
831.604	33.79
831.782	87.04
831.959	54.27
832.136	31.74
832.313	148.48
832.49	31.74
832.667	41.98
832.844	54.27
833.021	93.18
833.198	52.22
833.374	72.7
833.551	37.89
833.728	66.56
833.905	125.95
834.082	115.71
834.259	130.05
834.436	164.86
834.612	50.18
834.789	39.94
834.966	64.51
835.143	64.51
835.319	23.55
835.496	119.81
835.673	125.95
835.85	121.85
836.026	117.76
836.203	95.23
836.38	101.37
836.556	117.76
836.733	62.46
836.909	91.13
837.086	-3.07
837.262	-23.55
837.439	70.65
837.616	44.03
837.792	37.89
837.968	60.42
838.145	33.79
838.321	25.6
838.498	33.79
838.674	76.8
838.851	101.37
839.027	41.98
839.203	-5.12
839.38	52.22
839.556	-29.7
839.732	93.18
839.909	91.13
840.085	166.91
840.261	41.98
840.437	113.66
840.614	33.79
840.79	80.89
840.966	80.89
841.142	117.76
841.318	48.13
841.494	9.22
841.671	19.46
841.847	107.52
842.023	9.22
842.199	154.62
842.375	115.71
842.551	74.75
842.727	70.65
842.903	44.03
843.079	39.94
843.255	89.09
843.431	27.65
843.607	72.7
843.783	46.08
843.959	97.28
844.134	68.61
844.31	138.24
844.486	-1.02
844.662	99.33
844.838	101.37
845.013	29.7
845.189	44.03
845.365	52.22
845.541	35.84
845.716	72.7
845.892	93.18
846.068	97.28
846.244	66.56
846.419	123.9
846.595	21.5
846.77	66.56
846.946	29.7
847.122	-7.17
847.297	-19.46
847.473	115.71
847.648	7.17
847.824	44.03
847.999	68.61
848.175	74.75
848.35	89.09
848.526	48.13
848.701	68.61
848.876	1.02
849.052	50.18
849.227	29.7
849.403	11.26
849.578	80.89
849.753	41.98
849.929	78.85
850.104	66.56
850.279	25.6
850.454	39.94
850.63	31.74
850.805	60.42
850.98	89.09
851.155	84.99
851.33	17.41
851.505	48.13
851.681	78.85
851.856	70.65
852.031	60.42
852.206	72.7
852.381	-1.02
852.556	66.56
852.731	44.03
852.906	50.18
853.081	41.98
853.256	109.57
853.431	23.55
853.606	52.22
853.781	80.89
853.956	33.79
854.131	5.12
854.305	31.74
854.48	60.42
854.655	35.84
854.83	29.7
855.005	68.61
855.18	33.79
855.354	66.56
855.529	-19.46
855.704	9.22
855.879	76.8
856.053	13.31
856.228	52.22
856.403	-37.89
856.577	-1.02
856.752	44.03
856.926	103.42
857.101	-17.41
857.276	68.61
857.45	87.04
857.625	62.46
857.799	58.37
857.974	91.13
858.148	31.74
858.323	27.65
858.497	25.6
858.672	-37.89
858.846	66.56
859.02	9.22
859.195	13.31
859.369	87.04
859.543	5.12
859.718	56.32
859.892	33.79
860.066	31.74
860.241	58.37
860.415	54.27
860.589	29.7
860.763	11.26
860.938	3.07
861.112	-13.31
861.286	19.46
861.46	29.7
861.634	-9.22
861.808	52.22
861.982	41.98
862.157	46.08
862.331	-17.41
862.505	50.18
862.679	-46.08
862.853	-33.79
863.027	76.8
863.201	136.19
863.375	-5.12
863.549	35.84
863.722	13.31
863.896	66.56
864.07	80.89
864.244	-64.51
864.418	66.56
864.592	48.13
864.766	-31.74
864.939	-9.22
865.113	-3.07
865.287	72.7
865.461	-17.41
865.634	17.41
865.808	-21.5
865.982	50.18
866.156	25.6
866.329	80.89
866.503	37.89
866.676	68.61
866.85	58.37
867.024	48.13
867.197	78.85
867.371	41.98
867.544	-1.02
867.718	41.98
867.891	-1.02
868.065	-27.65
868.238	-1.02
868.412	35.84
868.585	60.42
868.759	-44.03
868.932	27.65
869.105	60.42
869.279	11.26
869.452	44.03
869.625	25.6
869.799	-33.79
869.972	39.94
870.145	7.17
870.319	1.02
870.492	89.09
870.665	39.94
870.838	62.46
871.011	-5.12
871.185	66.56
871.358	3.07
871.531	35.84
871.704	52.22
871.877	-1.02
872.05	-15.36
872.223	-52.22
872.396	48.13
872.569	3.07
872.742	19.46
872.915	58.37
873.088	-3.07
873.261	15.36
873.434	19.46
873.607	-3.07
873.78	35.84
873.953	-11.26
874.126	-52.22
874.299	58.37
874.471	21.5
874.644	48.13
874.817	46.08
874.99	80.89
875.163	37.89
875.335	130.05
875.508	27.65
875.681	41.98
875.853	41.98
876.026	17.41
876.199	37.89
876.371	58.37
876.544	15.36
876.717	-13.31
876.889	-50.18
877.062	103.42
877.234	56.32
877.407	7.17
877.579	23.55
877.752	60.42
877.924	11.26
878.097	70.65
878.269	5.12
878.442	37.89
878.614	-17.41
878.786	19.46
878.959	7.17
879.131	50.18
879.303	-23.55
879.476	56.32
879.648	29.7
879.82	68.61
879.993	-25.6
880.165	-23.55
880.337	66.56
880.509	48.13
880.681	7.17
880.854	-52.22
881.026	35.84
881.198	35.84
881.37	25.6
881.542	52.22
881.714	-7.17
881.886	-17.41
882.058	-19.46
882.23	-25.6
882.402	-13.31
882.574	52.22
882.746	-33.79
882.918	99.33
883.09	103.42
883.262	-33.79
883.434	-21.5
883.606	1.02
883.778	-60.42
883.95	130.05
884.122	44.03
884.293	-3.07
884.465	7.17
884.637	58.37
884.809	27.65
884.98	15.36
885.152	64.51
885.324	91.13
885.496	3.07
885.667	58.37
885.839	1.02
886.011	41.98
886.182	50.18
886.354	15.36
886.525	7.17
886.697	41.98
886.869	-78.85
887.04	23.55
887.212	23.55
887.383	64.51
887.555	9.22
887.726	-5.12
887.897	35.84
888.069	50.18
888.24	23.55
888.412	35.84
888.583	37.89
888.754	27.65
888.926	-5.12
889.097	56.32
889.268	-17.41
889.44	31.74
889.611	-11.26
889.782	39.94
889.953	9.22
890.125	66.56
890.296	21.5
890.467	25.6
890.638	19.46
890.809	41.98
890.98	44.03
891.151	-35.84
891.323	78.85
891.494	-19.46
891.665	1.02
891.836	19.46
892.007	5.12
892.178	-15.36
892.349	-7.17
892.52	23.55
892.691	3.07
892.862	3.07
893.032	37.89
893.203	13.31
893.374	15.36
893.545	-9.22
893.716	-17.41
893.887	25.6
894.057	-46.08
894.228	-33.79
894.399	13.31
894.57	-7.17
894.74	-15.36
894.911	89.09
895.082	-80.89
895.253	-19.46
895.423	52.22
895.594	23.55
895.764	35.84
895.935	15.36
896.106	35.84
896.276	-37.89
896.447	-3.07
896.617	-1.02
896.788	-68.61
896.958	72.7
897.129	84.99
897.299	5.12
897.47	9.22
897.64	89.09
897.81	17.41
897.981	62.46
898.151	-21.5
898.322	64.51
898.492	-23.55
898.662	-41.98
898.832	29.7
899.003	44.03
899.173	17.41
899.343	-9.22
899.513	37.89
