Data from USB4F104151__1__12-00-17-313.txt Node

Date: Fri Mar 14 12:00:17 EDT 2025
User: louis
Spectrometer: USB4F10415
Trigger mode: 4
Integration Time (sec): 2.000000E-2
Scans to average: 1
Electric dark correction enabled: true
Nonlinearity correction enabled: false
Boxcar width: 0
XAxis mode: Wavelengths
Number of Pixels in Spectrum: 3648
>>>>>Begin Spectral Data<<<<<
178.204	-98.13
178.424	-98.13
178.644	-98.13
178.864	-137.04
179.084	-77.65
179.304	28.84
179.524	-18.26
179.744	37.03
179.964	53.42
180.184	-28.5
180.404	-1.88
180.624	20.65
180.844	-32.6
181.064	-32.6
181.283	-32.6
181.503	-24.4
181.723	30.89
181.943	-73.56
182.163	71.85
182.383	2.22
182.602	0.17
182.822	57.51
183.042	12.46
183.262	24.75
183.482	-24.4
183.701	34.99
183.921	-3.93
184.141	69.8
184.361	108.71
184.58	-3.93
184.8	12.46
185.02	-30.55
185.239	-3.93
185.459	39.08
185.679	49.32
185.898	-20.31
186.118	98.47
186.338	10.41
186.557	-46.93
186.777	4.27
186.997	14.51
187.216	-61.27
187.436	12.46
187.655	-44.88
187.875	-75.6
188.095	6.31
188.314	6.31
188.534	-1.88
188.753	10.41
188.973	65.71
189.192	-28.5
189.412	55.47
189.631	49.32
189.851	0.17
190.07	20.65
190.29	-3.93
190.509	-46.93
190.729	-5.97
190.948	26.79
191.168	67.75
191.387	2.22
191.607	45.23
191.826	-34.64
192.045	-24.4
192.265	-38.74
192.484	22.7
192.704	-5.97
192.923	20.65
193.142	26.79
193.362	-44.88
193.581	-20.31
193.8	8.36
194.02	-73.56
194.239	-40.79
194.458	71.85
194.678	51.37
194.897	-26.45
195.116	6.31
195.335	133.29
195.555	-38.74
195.774	10.41
195.993	-30.55
196.212	63.66
196.432	6.31
196.651	65.71
196.87	-5.97
197.089	45.23
197.308	12.46
197.528	26.79
197.747	-100.18
197.966	49.32
198.185	100.52
198.404	-10.07
198.623	43.18
198.842	69.8
199.062	80.04
199.281	12.46
199.5	-3.93
199.719	-46.93
199.938	45.23
200.157	75.95
200.376	67.75
200.595	41.13
200.814	94.38
201.033	-28.5
201.252	-12.12
201.471	12.46
201.69	-12.12
201.909	-44.88
202.128	43.18
202.347	39.08
202.566	30.89
202.785	6.31
203.004	20.65
203.223	63.66
203.442	-3.93
203.661	12.46
203.879	-22.36
204.098	-42.84
204.317	-57.17
204.536	28.84
204.755	24.75
204.974	47.27
205.193	12.46
205.411	61.61
205.63	-1.88
205.849	53.42
206.068	-8.02
206.287	49.32
206.505	49.32
206.724	-1.88
206.943	-46.93
207.162	-38.74
207.381	-10.07
207.599	57.51
207.818	-38.74
208.037	0.17
208.255	16.55
208.474	20.65
208.693	-1.88
208.911	2.22
209.13	41.13
209.349	-10.07
209.567	-10.07
209.786	39.08
210.005	-32.6
210.223	-12.12
210.442	6.31
210.661	16.55
210.879	121
211.098	10.41
211.316	12.46
211.535	47.27
211.753	30.89
211.972	47.27
212.191	-30.55
212.409	-12.12
212.628	-46.93
212.846	18.6
213.065	22.7
213.283	-42.84
213.502	45.23
213.72	-30.55
213.938	-55.12
214.157	-14.17
214.375	24.75
214.594	14.51
214.812	8.36
215.031	45.23
215.249	-3.93
215.467	55.47
215.686	-55.12
215.904	34.99
216.122	2.22
216.341	69.8
216.559	4.27
216.778	86.19
216.996	32.94
217.214	-22.36
217.432	-42.84
217.651	-26.45
217.869	2.22
218.087	10.41
218.306	39.08
218.524	53.42
218.742	-28.5
218.96	18.6
219.179	-12.12
219.397	6.31
219.615	45.23
219.833	-18.26
220.051	8.36
220.27	-14.17
220.488	-24.4
220.706	-24.4
220.924	8.36
221.142	10.41
221.36	45.23
221.578	-20.31
221.796	-3.93
222.015	-16.21
222.233	-22.36
222.451	12.46
222.669	-8.02
222.887	-1.88
223.105	-112.47
223.323	43.18
223.541	-69.46
223.759	-8.02
223.977	-8.02
224.195	37.03
224.413	53.42
224.631	26.79
224.849	0.17
225.067	-8.02
225.285	14.51
225.503	4.27
225.721	-5.97
225.939	-12.12
226.157	-20.31
226.375	26.79
226.592	-12.12
226.81	75.95
227.028	-42.84
227.246	-18.26
227.464	51.37
227.682	73.9
227.9	39.08
228.117	0.17
228.335	47.27
228.553	34.99
228.771	-8.02
228.989	28.84
229.206	8.36
229.424	-61.27
229.642	-46.93
229.86	-20.31
230.077	88.23
230.295	-40.79
230.513	22.7
230.731	0.17
230.948	41.13
231.166	34.99
231.384	30.89
231.601	-14.17
231.819	-1.88
232.037	24.75
232.254	16.55
232.472	6.31
232.689	-89.94
232.907	28.84
233.125	-30.55
233.342	-67.41
233.56	65.71
233.777	26.79
233.995	-5.97
234.213	102.57
234.43	-8.02
234.648	22.7
234.865	-10.07
235.083	127.14
235.3	-3.93
235.518	-5.97
235.735	-12.12
235.953	4.27
236.17	20.65
236.388	-32.6
236.605	0.17
236.822	16.55
237.04	-3.93
237.257	28.84
237.475	-5.97
237.692	4.27
237.909	-20.31
238.127	16.55
238.344	59.56
238.562	-69.46
238.779	-20.31
238.996	-36.69
239.214	-51.03
239.431	-10.07
239.648	-46.93
239.865	57.51
240.083	-16.21
240.3	4.27
240.517	63.66
240.735	-38.74
240.952	57.51
241.169	65.71
241.386	8.36
241.603	-3.93
241.821	-3.93
242.038	86.19
242.255	22.7
242.472	-55.12
242.689	-14.17
242.907	61.61
243.124	-18.26
243.341	-8.02
243.558	-73.56
243.775	26.79
243.992	-24.4
244.209	75.95
244.426	47.27
244.643	-46.93
244.86	51.37
245.078	12.46
245.295	18.6
245.512	28.84
245.729	-30.55
245.946	-46.93
246.163	41.13
246.38	39.08
246.597	67.75
246.814	-30.55
247.031	22.7
247.248	55.47
247.464	-69.46
247.681	-3.93
247.898	24.75
248.115	-36.69
248.332	-63.32
248.549	-36.69
248.766	82.09
248.983	-24.4
249.2	-14.17
249.417	4.27
249.633	26.79
249.85	30.89
250.067	2.22
250.284	-26.45
250.501	-28.5
250.717	47.27
250.934	12.46
251.151	20.65
251.368	-30.55
251.585	4.27
251.801	-5.97
252.018	22.7
252.235	-34.64
252.451	26.79
252.668	4.27
252.885	10.41
253.102	26.79
253.318	75.95
253.535	43.18
253.752	2.22
253.968	-10.07
254.185	14.51
254.401	-26.45
254.618	26.79
254.835	4.27
255.051	10.41
255.268	43.18
255.484	47.27
255.701	65.71
255.917	61.61
256.134	-18.26
256.351	-26.45
256.567	-3.93
256.784	18.6
257	-32.6
257.217	-28.5
257.433	45.23
257.65	-34.64
257.866	10.41
258.082	14.51
258.299	0.17
258.515	-5.97
258.732	28.84
258.948	8.36
259.165	-26.45
259.381	53.42
259.597	-3.93
259.814	47.27
260.03	-5.97
260.246	12.46
260.463	-20.31
260.679	-18.26
260.895	51.37
261.112	45.23
261.328	-18.26
261.544	-12.12
261.761	30.89
261.977	-36.69
262.193	45.23
262.409	-14.17
262.626	2.22
262.842	10.41
263.058	-22.36
263.274	39.08
263.49	28.84
263.707	37.03
263.923	-36.69
264.139	24.75
264.355	-24.4
264.571	14.51
264.787	0.17
265.004	73.9
265.22	47.27
265.436	4.27
265.652	-22.36
265.868	-46.93
266.084	-14.17
266.3	39.08
266.516	-73.56
266.732	-20.31
266.948	39.08
267.164	8.36
267.38	6.31
267.596	10.41
267.812	-30.55
268.028	-22.36
268.244	-44.88
268.46	-55.12
268.676	-26.45
268.892	59.56
269.108	-8.02
269.324	-12.12
269.54	-32.6
269.756	18.6
269.972	12.46
270.188	-44.88
270.403	6.31
270.619	-36.69
270.835	4.27
271.051	-28.5
271.267	-18.26
271.483	61.61
271.698	20.65
271.914	-5.97
272.13	-26.45
272.346	2.22
272.562	55.47
272.777	45.23
272.993	-14.17
273.209	0.17
273.425	47.27
273.64	-53.08
273.856	0.17
274.072	39.08
274.287	-1.88
274.503	55.47
274.719	10.41
274.934	37.03
275.15	0.17
275.366	26.79
275.581	-34.64
275.797	69.8
276.012	-1.88
276.228	30.89
276.444	0.17
276.659	6.31
276.875	61.61
277.09	30.89
277.306	45.23
277.521	20.65
277.737	8.36
277.952	2.22
278.168	41.13
278.383	45.23
278.599	59.56
278.814	-20.31
279.03	22.7
279.245	6.31
279.461	69.8
279.676	-14.17
279.892	-12.12
280.107	-10.07
280.322	-36.69
280.538	47.27
280.753	57.51
280.969	-14.17
281.184	59.56
281.399	90.28
281.615	51.37
281.83	4.27
282.045	-10.07
282.26	59.56
282.476	-28.5
282.691	-16.21
282.906	4.27
283.122	49.32
283.337	-28.5
283.552	-22.36
283.767	57.51
283.983	59.56
284.198	-16.21
284.413	20.65
284.628	2.22
284.843	61.61
285.058	-34.64
285.274	-59.22
285.489	47.27
285.704	41.13
285.919	-3.93
286.134	41.13
286.349	30.89
286.564	-1.88
286.779	59.56
286.995	65.71
287.21	14.51
287.425	90.28
287.64	-12.12
287.855	6.31
288.07	41.13
288.285	20.65
288.5	43.18
288.715	-1.88
288.93	39.08
289.145	8.36
289.36	-1.88
289.575	34.99
289.79	8.36
290.004	57.51
290.219	28.84
290.434	-5.97
290.649	32.94
290.864	45.23
291.079	0.17
291.294	12.46
291.509	-36.69
291.724	2.22
291.938	69.8
292.153	-18.26
292.368	16.55
292.583	32.94
292.798	18.6
293.012	86.19
293.227	24.75
293.442	34.99
293.657	26.79
293.871	-20.31
294.086	73.9
294.301	12.46
294.516	53.42
294.73	4.27
294.945	14.51
295.16	4.27
295.374	43.18
295.589	63.66
295.804	-14.17
296.018	-20.31
296.233	-44.88
296.447	28.84
296.662	10.41
296.877	26.79
297.091	39.08
297.306	43.18
297.52	30.89
297.735	-8.02
297.949	32.94
298.164	80.04
298.378	-20.31
298.593	6.31
298.807	-57.17
299.022	67.75
299.236	-20.31
299.451	-3.93
299.665	12.46
299.88	55.47
300.094	-8.02
300.309	43.18
300.523	-12.12
300.737	-32.6
300.952	39.08
301.166	-1.88
301.381	0.17
301.595	-40.79
301.809	41.13
302.024	30.89
302.238	0.17
302.452	-38.74
302.667	-10.07
302.881	-12.12
303.095	-36.69
303.309	-24.4
303.524	-32.6
303.738	-24.4
303.952	-34.64
304.166	30.89
304.381	24.75
304.595	49.32
304.809	4.27
305.023	-16.21
305.237	20.65
305.452	2.22
305.666	24.75
305.88	16.55
306.094	80.04
306.308	-12.12
306.522	77.99
306.736	18.6
306.95	26.79
307.164	-14.17
307.379	-10.07
307.593	84.14
307.807	-24.4
308.021	61.61
308.235	-18.26
308.449	14.51
308.663	-14.17
308.877	69.8
309.091	2.22
309.305	41.13
309.519	8.36
309.733	47.27
309.947	34.99
310.161	51.37
310.374	73.9
310.588	16.55
310.802	-69.46
311.016	45.23
311.23	20.65
311.444	-34.64
311.658	47.27
311.872	77.99
312.085	63.66
312.299	20.65
312.513	-24.4
312.727	63.66
312.941	14.51
313.154	57.51
313.368	6.31
313.582	98.47
313.796	-8.02
314.009	32.94
314.223	6.31
314.437	51.37
314.651	49.32
314.864	12.46
315.078	-14.17
315.292	-5.97
315.505	51.37
315.719	39.08
315.933	22.7
316.146	20.65
316.36	-14.17
316.573	86.19
316.787	-32.6
317.001	12.46
317.214	-128.85
317.428	69.8
317.641	34.99
317.855	-55.12
318.068	65.71
318.282	12.46
318.495	47.27
318.709	86.19
318.922	20.65
319.136	51.37
319.349	49.32
319.563	8.36
319.776	67.75
319.99	55.47
320.203	20.65
320.417	123.05
320.63	51.37
320.843	53.42
321.057	32.94
321.27	20.65
321.483	43.18
321.697	-16.21
321.91	82.09
322.124	28.84
322.337	0.17
322.55	-5.97
322.763	-5.97
322.977	-26.45
323.19	-26.45
323.403	57.51
323.617	30.89
323.83	59.56
324.043	0.17
324.256	32.94
324.469	4.27
324.683	49.32
324.896	45.23
325.109	28.84
325.322	24.75
325.535	24.75
325.748	-18.26
325.962	-24.4
326.175	32.94
326.388	24.75
326.601	-32.6
326.814	-12.12
327.027	10.41
327.24	65.71
327.453	49.32
327.666	59.56
327.879	61.61
328.092	-8.02
328.305	20.65
328.518	-8.02
328.731	-8.02
328.944	47.27
329.157	16.55
329.37	8.36
329.583	14.51
329.796	-14.17
330.009	-40.79
330.222	110.76
330.435	77.99
330.648	-1.88
330.861	39.08
331.073	12.46
331.286	24.75
331.499	30.89
331.712	-77.65
331.925	39.08
332.138	-24.4
332.35	104.62
332.563	-12.12
332.776	12.46
332.989	-8.02
333.202	18.6
333.414	14.51
333.627	30.89
333.84	39.08
334.053	-20.31
334.265	-28.5
334.478	30.89
334.691	-69.46
334.903	73.9
335.116	41.13
335.329	59.56
335.541	80.04
335.754	71.85
335.966	4.27
336.179	41.13
336.392	-16.21
336.604	41.13
336.817	0.17
337.029	28.84
337.242	8.36
337.454	-57.17
337.667	-10.07
337.88	57.51
338.092	-8.02
338.305	59.56
338.517	-20.31
338.729	59.56
338.942	51.37
339.154	12.46
339.367	49.32
339.579	67.75
339.792	-28.5
340.004	92.33
340.217	-42.84
340.429	49.32
340.641	-8.02
340.854	0.17
341.066	-14.17
341.278	-71.51
341.491	34.99
341.703	12.46
341.915	-46.93
342.128	84.14
342.34	65.71
342.552	24.75
342.764	-20.31
342.977	2.22
343.189	-8.02
343.401	98.47
343.613	-12.12
343.826	-16.21
344.038	55.47
344.25	57.51
344.462	-3.93
344.674	26.79
344.886	37.03
345.099	41.13
345.311	149.67
345.523	-8.02
345.735	-10.07
345.947	94.38
346.159	2.22
346.371	26.79
346.583	6.31
346.795	-12.12
347.007	0.17
347.219	32.94
347.431	73.9
347.643	-8.02
347.855	20.65
348.067	41.13
348.279	-10.07
348.491	53.42
348.703	77.99
348.915	-14.17
349.127	-40.79
349.339	-5.97
349.551	106.67
349.763	34.99
349.975	65.71
350.187	14.51
350.399	75.95
350.61	71.85
350.822	-1.88
351.034	34.99
351.246	34.99
351.458	51.37
351.669	75.95
351.881	4.27
352.093	0.17
352.305	22.7
352.517	45.23
352.728	53.42
352.94	16.55
353.152	-28.5
353.363	-3.93
353.575	30.89
353.787	8.36
353.999	98.47
354.21	86.19
354.422	-26.45
354.633	-12.12
354.845	24.75
355.057	45.23
355.268	30.89
355.48	47.27
355.692	-75.6
355.903	57.51
356.115	6.31
356.326	-57.17
356.538	118.95
356.749	75.95
356.961	-1.88
357.172	41.13
357.384	51.37
357.595	-32.6
357.807	55.47
358.018	24.75
358.23	-20.31
358.441	34.99
358.653	-3.93
358.864	20.65
359.075	16.55
359.287	-3.93
359.498	57.51
359.709	-24.4
359.921	55.47
360.132	-48.98
360.344	30.89
360.555	34.99
360.766	28.84
360.977	30.89
361.189	106.67
361.4	-22.36
361.611	43.18
361.823	26.79
362.034	-30.55
362.245	-75.6
362.456	-26.45
362.667	8.36
362.879	-26.45
363.09	63.66
363.301	-14.17
363.512	49.32
363.723	6.31
363.935	-10.07
364.146	20.65
364.357	57.51
364.568	16.55
364.779	-36.69
364.99	94.38
365.201	24.75
365.412	28.84
365.623	20.65
365.834	26.79
366.045	8.36
366.256	57.51
366.467	0.17
366.678	-44.88
366.889	30.89
367.1	102.57
367.311	-10.07
367.522	45.23
367.733	12.46
367.944	39.08
368.155	4.27
368.366	6.31
368.577	43.18
368.788	24.75
368.999	8.36
369.209	90.28
369.42	-26.45
369.631	16.55
369.842	18.6
370.053	-10.07
370.264	28.84
370.474	-75.6
370.685	2.22
370.896	24.75
371.107	24.75
371.317	32.94
371.528	14.51
371.739	-3.93
371.95	6.31
372.16	-22.36
372.371	30.89
372.582	34.99
372.792	22.7
373.003	-3.93
373.214	2.22
373.424	18.6
373.635	-12.12
373.846	18.6
374.056	45.23
374.267	10.41
374.477	47.27
374.688	6.31
374.898	77.99
375.109	6.31
375.319	-32.6
375.53	2.22
375.74	71.85
375.951	6.31
376.161	49.32
376.372	43.18
376.582	34.99
376.793	73.9
377.003	-8.02
377.214	-40.79
377.424	55.47
377.635	41.13
377.845	4.27
378.055	75.95
378.266	-8.02
378.476	32.94
378.686	26.79
378.897	-26.45
379.107	-57.17
379.317	77.99
379.528	-48.98
379.738	18.6
379.948	73.9
380.158	51.37
380.369	12.46
380.579	6.31
380.789	24.75
380.999	18.6
381.21	4.27
381.42	16.55
381.63	43.18
381.84	61.61
382.05	45.23
382.261	39.08
382.471	57.51
382.681	-16.21
382.891	-3.93
383.101	-26.45
383.311	-10.07
383.521	14.51
383.731	18.6
383.941	73.9
384.151	30.89
384.361	55.47
384.571	59.56
384.781	0.17
384.991	37.03
385.201	139.43
385.411	71.85
385.621	43.18
385.831	18.6
386.041	59.56
386.251	28.84
386.461	-5.97
386.671	-48.98
386.881	24.75
387.091	2.22
387.301	8.36
387.511	75.95
387.72	41.13
387.93	-24.4
388.14	20.65
388.35	-10.07
388.56	67.75
388.769	41.13
388.979	16.55
389.189	-28.5
389.399	61.61
389.609	-8.02
389.818	82.09
390.028	28.84
390.238	2.22
390.447	-28.5
390.657	41.13
390.867	-10.07
391.076	-5.97
391.286	49.32
391.496	71.85
391.705	18.6
391.915	137.38
392.125	65.71
392.334	-8.02
392.544	30.89
392.753	102.57
392.963	-18.26
393.172	30.89
393.382	22.7
393.591	86.19
393.801	-10.07
394.01	118.95
394.22	32.94
394.429	45.23
394.639	-8.02
394.848	69.8
395.058	24.75
395.267	63.66
395.477	41.13
395.686	65.71
395.895	16.55
396.105	106.67
396.314	12.46
396.524	-14.17
396.733	59.56
396.942	77.99
397.152	100.52
397.361	121
397.57	57.51
397.78	92.33
397.989	67.75
398.198	71.85
398.407	32.94
398.617	-67.41
398.826	63.66
399.035	43.18
399.244	75.95
399.453	51.37
399.663	22.7
399.872	51.37
400.081	24.75
400.29	45.23
400.499	14.51
400.708	121
400.917	41.13
401.127	0.17
401.336	55.47
401.545	73.9
401.754	71.85
401.963	57.51
402.172	80.04
402.381	63.66
402.59	61.61
402.799	61.61
403.008	45.23
403.217	114.86
403.426	26.79
403.635	77.99
403.844	155.82
404.053	106.67
404.262	116.9
404.471	102.57
404.68	84.14
404.888	84.14
405.097	67.75
405.306	98.47
405.515	125.1
405.724	98.47
405.933	73.9
406.142	141.48
406.35	110.76
406.559	143.53
406.768	96.43
406.977	153.77
407.185	96.43
407.394	180.39
407.603	88.23
407.812	94.38
408.02	147.62
408.229	94.38
408.438	159.91
408.646	155.82
408.855	182.44
409.064	168.1
409.272	90.28
409.481	204.97
409.69	176.3
409.898	145.58
410.107	215.21
410.315	213.16
410.524	149.67
410.733	223.4
410.941	188.58
411.15	202.92
411.358	164.01
411.567	213.16
411.775	198.82
411.984	227.5
412.192	237.74
412.401	241.83
412.609	213.16
412.818	278.69
413.026	237.74
413.234	288.93
413.443	329.89
413.651	280.74
413.86	309.41
414.068	315.56
414.276	358.57
414.485	370.85
414.693	397.48
414.901	409.76
415.11	403.62
415.318	432.29
415.526	403.62
415.734	463.01
415.943	481.44
416.151	399.52
416.359	512.16
416.567	471.2
416.776	532.64
416.984	608.42
417.192	538.79
417.4	592.03
417.608	583.84
417.817	549.03
418.025	639.14
418.233	616.61
418.441	682.14
418.649	792.73
418.857	794.78
419.065	770.21
419.273	757.92
419.481	792.73
419.689	917.66
419.897	821.41
420.105	942.24
420.313	886.94
420.521	977.05
420.729	993.44
420.937	917.66
421.145	1071.26
421.353	1130.65
421.561	1118.36
421.769	1114.27
421.977	1126.55
422.185	1282.2
422.393	1308.82
422.601	1349.78
422.809	1355.93
423.017	1403.03
423.224	1448.08
423.432	1480.85
423.64	1337.49
423.848	1661.07
424.056	1611.92
424.263	1740.94
424.471	1728.66
424.679	1730.7
424.887	1810.58
425.094	1923.21
425.302	1921.17
425.51	1958.03
425.718	2027.66
425.925	1941.65
426.133	2173.07
426.341	2107.53
426.548	2390.15
426.756	2287.75
426.964	2379.91
427.171	2406.53
427.379	2623.62
427.586	2560.13
427.794	2746.5
428.001	2805.89
428.209	2875.52
428.417	2842.75
428.624	3154.04
428.832	3162.23
429.039	2994.3
429.247	2994.3
429.454	3410.04
429.662	3543.16
429.869	3330.17
430.076	3647.6
430.284	3575.92
430.491	3670.13
430.699	3885.17
430.906	3872.88
431.114	3922.03
431.321	4075.63
431.528	4132.97
431.736	4585.57
431.943	4677.73
432.15	4401.26
432.358	4503.65
432.565	4860
432.772	4851.81
432.979	5040.22
433.187	5089.37
433.394	5308.51
433.601	5480.54
433.808	5503.06
434.016	5607.51
434.223	5734.48
434.43	5976.14
434.637	6111.31
434.844	6400.07
435.052	6549.57
435.259	6459.46
435.466	6520.9
435.673	6602.82
435.88	6774.85
436.087	7088.19
436.294	7286.84
436.501	6979.65
436.708	7237.69
436.915	7372.86
437.122	7651.38
437.329	7919.67
437.537	8181.81
437.743	8218.67
437.95	8159.28
438.157	8667.17
438.364	8984.61
438.571	8923.17
438.778	8855.59
438.985	9506.84
439.192	9484.31
439.399	9521.18
439.606	9402.4
439.813	9930.77
440.02	10514.44
440.227	10364.94
440.433	10416.14
440.64	10489.87
440.847	10709
441.054	10743.81
441.261	11390.97
441.467	11251.71
441.674	11845.62
441.881	12079.09
442.088	12136.43
442.294	11927.54
442.501	12312.56
442.708	12482.54
442.914	12890.09
443.121	13584.35
443.328	13504.48
443.534	14059.48
443.741	13684.7
443.948	13449.18
444.154	14600.14
444.361	14262.23
444.568	14749.64
444.774	14522.32
444.981	14780.36
445.187	15202.24
445.394	15896.5
445.6	15749.05
445.807	17117.09
446.013	16426.93
446.22	16834.47
446.426	17350.56
446.633	17575.84
446.839	18093.97
447.046	17381.28
447.252	18227.09
447.459	18302.87
447.665	18253.72
447.871	19249.03
448.078	19992.44
448.284	19298.18
448.491	19603.33
448.697	20365.17
448.903	20799.34
449.11	20262.77
449.316	20477.81
449.522	20715.37
449.728	21237.61
449.935	21565.28
450.141	21208.94
450.347	21663.58
450.553	21022.57
450.76	21340.01
450.966	22048.6
451.172	21864.29
451.378	22345.56
451.584	21800.8
451.791	22370.13
451.997	22509.4
452.203	22988.62
452.409	22712.14
452.615	22519.64
452.821	21788.51
453.027	21585.76
453.233	22959.95
453.44	21542.75
453.646	21925.72
453.852	22175.58
454.058	22810.45
454.264	21868.38
454.47	22194.01
454.676	21811.04
454.882	22554.45
455.088	20299.64
455.294	20633.46
455.5	21088.1
455.705	21204.84
455.911	20342.64
456.117	19894.14
456.323	19484.55
456.529	18464.66
456.735	19220.36
456.941	18921.35
457.147	18427.79
457.352	18022.3
457.558	17811.35
457.764	17790.88
457.97	17424.29
458.176	17156
458.381	17246.12
458.587	16302
458.793	16033.72
458.999	15278.02
459.204	16242.61
459.41	15654.84
459.616	14866.38
459.821	14847.94
460.027	14882.76
460.233	14632.91
460.438	13692.89
460.644	14102.48
460.85	13121.51
461.055	13213.67
461.261	12926.95
461.466	12105.71
461.672	11759.61
461.878	12527.6
462.083	11581.43
462.289	11595.77
462.494	11380.73
462.7	11198.46
462.905	10491.91
463.111	10944.52
463.316	10999.81
463.522	10678.28
463.727	10913.8
463.932	10817.54
464.138	10762.25
464.343	10516.49
464.549	10250.25
464.754	10428.43
464.959	10676.23
465.165	10600.46
465.37	10008.59
465.575	9836.56
465.781	10237.97
465.986	10305.55
466.191	9889.81
466.397	9807.89
466.602	9375.77
466.807	9758.74
467.012	9652.25
467.218	9732.12
467.423	9324.57
467.628	9562.14
467.833	9934.87
468.038	9789.46
468.244	9138.21
468.449	9639.96
468.654	9386.01
468.859	9293.85
469.064	8970.27
469.269	8818.72
469.474	8996.9
469.679	9273.37
469.885	8802.34
470.09	8894.5
470.295	8888.36
470.5	8579.11
470.705	8767.52
470.91	8484.91
471.115	8382.51
471.32	8454.19
471.525	8482.86
471.73	8222.77
471.935	8271.92
472.139	7890.99
472.344	8085.55
472.549	7921.71
472.754	7841.84
472.959	7694.39
473.164	7526.46
473.369	7573.56
473.574	7628.85
473.778	7637.05
473.983	7565.37
474.188	7790.64
474.393	7327.8
474.598	7319.61
474.802	6967.36
475.007	7176.25
475.212	7098.43
475.417	7010.37
475.621	6867.01
475.826	6836.29
476.031	6828.1
476.235	6635.59
476.44	6633.54
476.645	6580.29
476.849	6633.54
477.054	6479.94
477.259	6416.46
477.463	6365.26
477.668	6176.84
477.872	6350.92
478.077	6219.85
478.282	6088.78
478.486	6172.75
478.691	6021.2
478.895	6137.93
479.1	5910.61
479.304	5972.05
479.509	5816.4
479.713	5757.01
479.918	5812.31
480.122	5617.75
480.326	5802.07
480.531	5779.54
480.735	5757.01
480.94	5572.69
481.144	5855.31
481.348	5591.13
481.553	5509.21
481.757	5431.38
481.961	5564.5
482.166	5593.17
482.37	5494.87
482.574	5437.53
482.778	5623.89
482.983	5566.55
483.187	5398.62
483.391	5648.47
483.595	5443.67
483.8	5300.31
484.004	5490.77
484.208	5595.22
484.412	5472.34
484.616	5447.77
484.821	5560.41
485.025	5498.97
485.229	5595.22
485.433	5490.77
485.637	5439.58
485.841	5544.02
486.045	5421.14
486.249	5556.31
486.453	5546.07
486.657	5632.08
486.861	5505.11
487.065	5406.81
487.269	5404.76
487.473	5437.53
487.677	5494.87
487.881	5560.41
488.085	5437.53
488.289	5597.27
488.493	5437.53
488.697	5689.43
488.901	5455.96
489.105	5460.06
489.309	5720.15
489.512	5501.01
489.716	5423.19
489.92	5611.61
490.124	5636.18
490.328	5531.73
490.531	5597.27
490.735	5613.65
490.939	5775.44
491.143	5531.73
491.346	5572.69
491.55	5763.15
491.754	5630.04
491.958	5691.48
492.161	5750.87
492.365	5834.83
492.569	5785.68
492.772	5818.45
492.976	6010.96
493.18	5847.12
493.383	5945.42
493.587	5851.22
493.79	6058.06
493.994	5890.13
494.197	6000.72
494.401	6064.21
494.605	6013.01
494.808	6142.03
495.012	6099.02
495.215	6357.07
495.419	6191.18
495.622	6346.83
495.825	6447.18
496.029	6506.57
496.232	6533.19
496.436	6500.42
496.639	6549.57
496.843	6590.53
497.046	6783.04
497.249	6717.51
497.453	6889.54
497.656	6897.73
497.859	7051.33
498.063	7065.66
498.266	7233.6
498.469	7118.91
498.673	6948.93
498.876	7424.06
499.079	7239.74
499.282	7379
499.485	7587.89
499.689	7495.74
499.892	7782.45
500.095	7604.28
500.298	7856.18
500.501	7665.72
500.705	8038.45
500.908	8200.24
501.111	8177.71
501.314	8300.59
501.517	8327.21
501.72	8466.47
501.923	8329.26
502.126	8425.51
502.329	8683.56
502.532	8656.93
502.735	8818.72
502.938	9009.19
503.141	8927.27
503.344	9152.54
503.547	9113.63
503.75	9285.66
503.953	9504.79
504.156	9701.4
504.359	9551.9
504.562	9547.8
504.765	9795.61
504.968	9795.61
505.17	9934.87
505.373	10067.99
505.576	10084.37
505.779	10303.5
505.982	10471.43
506.185	10557.45
506.387	10524.68
506.59	10561.55
506.793	10950.66
506.996	10801.16
507.198	11141.12
507.401	11065.35
507.604	11116.55
507.807	11374.59
508.009	11479.04
508.212	11571.19
508.415	11628.54
508.617	11960.31
508.82	11880.44
509.022	11845.62
509.225	12070.9
509.428	12507.12
509.63	12154.87
509.833	12474.35
510.035	12488.68
510.238	12632.04
510.44	12511.21
510.643	12933.09
510.845	12965.86
511.048	13105.12
511.25	13230.05
511.453	13244.38
511.655	13733.85
511.858	13670.36
512.06	13694.94
512.262	13844.44
512.465	13664.22
512.667	13979.61
512.87	14147.54
513.072	14338
513.274	14499.79
513.477	14419.92
513.679	14561.23
513.881	14874.57
514.084	14974.92
514.286	14962.63
514.488	15161.28
514.69	15820.73
514.893	15460.29
515.095	15679.42
515.297	15800.25
515.499	15613.88
515.701	15935.42
515.904	16072.63
516.106	16252.85
516.308	16154.55
516.51	16660.4
516.712	16488.37
516.914	16791.47
517.116	17217.44
517.318	17072.04
517.52	16912.3
517.722	17129.38
517.925	17485.73
518.127	17577.89
518.329	17598.37
518.531	17848.22
518.733	17936.28
518.935	18108.31
519.136	18241.43
519.338	18104.21
519.54	18421.65
519.742	18378.64
519.944	18722.7
520.146	18683.79
520.348	19060.62
520.55	19130.25
520.752	18923.4
520.954	19339.14
521.155	19050.38
521.357	19472.26
521.559	19507.07
521.761	19709.82
521.963	19670.91
522.164	20008.83
522.366	20182.9
522.568	19871.61
522.77	20199.29
522.971	20555.63
523.173	20289.4
523.375	20455.28
523.576	20342.64
523.778	20367.22
523.98	21047.15
524.181	20715.37
524.383	21190.5
524.584	21018.47
524.786	21165.93
524.988	20981.61
525.189	21423.97
525.391	21319.53
525.592	21563.23
525.794	21337.96
525.995	21604.19
526.197	21708.64
526.398	21661.54
526.6	21729.12
526.801	21870.43
527.003	22071.13
527.204	21815.13
527.406	22101.85
527.607	21981.02
527.808	22208.34
528.01	21626.72
528.211	22093.66
528.412	22597.46
528.614	22361.94
528.815	22345.56
529.016	22669.14
529.218	22314.84
529.419	22431.57
529.62	22644.56
529.822	22353.75
530.023	22806.35
530.224	22445.91
530.425	22603.6
530.626	22392.66
530.828	22237.02
531.029	23007.05
531.23	22646.61
531.431	22560.59
531.632	22988.62
531.833	22697.81
532.035	22558.55
532.236	22749.01
532.437	22894.41
532.638	22726.48
532.839	22910.8
533.04	22882.13
533.241	22869.84
533.442	23097.16
533.643	23142.22
533.844	22835.02
534.045	22771.54
534.246	22712.14
534.447	23048.01
534.648	22734.67
534.849	23086.92
535.05	22970.19
535.251	22869.84
535.451	22484.82
535.652	23009.1
535.853	22789.97
536.054	22839.12
536.255	22964.04
536.456	22976.33
536.657	22910.8
536.857	22724.43
537.058	22976.33
537.259	23261
537.46	23013.2
537.66	22847.31
537.861	22759.25
538.062	23043.92
538.263	23052.11
538.463	22552.4
538.664	22865.74
538.865	22777.68
539.065	22959.95
539.266	22533.97
539.466	22933.32
539.667	22554.45
539.868	23062.35
540.068	22712.14
540.269	22493.01
540.469	22984.52
540.67	22830.93
540.87	22665.04
541.071	22771.54
541.271	22701.9
541.472	22490.96
541.672	22845.26
541.873	22413.14
542.073	22140.76
542.274	22732.62
542.474	22648.66
542.675	22972.24
542.875	22861.65
543.075	22628.18
543.276	22419.28
543.476	22951.76
543.676	22562.64
543.877	22679.38
544.077	22548.31
544.277	22513.49
544.478	22497.11
544.678	22533.97
544.878	22556.5
545.078	22749.01
545.279	22165.34
545.479	22462.29
545.679	22693.71
545.879	22617.94
546.079	22335.32
546.28	22640.47
546.48	22433.62
546.68	22357.85
546.88	22490.96
547.08	22347.61
547.28	22562.64
547.48	22302.55
547.68	22400.85
547.88	22320.98
548.081	22617.94
548.281	22212.44
548.481	22208.34
548.681	22505.3
548.881	22343.51
549.081	22398.8
549.28	22056.79
549.48	22478.68
549.68	22089.56
549.88	22677.33
550.08	21991.26
550.28	22314.84
550.48	22093.66
550.68	22581.07
550.88	22275.93
551.08	22224.73
551.279	22519.64
551.479	22210.39
551.679	22255.45
551.879	22253.4
552.079	22419.28
552.278	22249.3
552.478	22083.42
552.678	22009.69
552.878	22208.34
553.077	22216.54
553.277	22007.64
553.477	22454.1
553.676	22038.36
553.876	22120.28
554.076	21880.67
554.275	21976.92
554.475	21604.19
554.674	22112.09
554.874	22191.96
555.074	22120.28
555.273	21878.62
555.473	22204.25
555.672	22124.38
555.872	21938.01
556.071	21931.87
556.271	21991.26
556.47	21864.29
556.67	21632.86
556.869	21755.74
557.068	21882.72
557.268	21514.08
557.467	21960.54
557.667	21733.22
557.866	21669.73
558.065	21808.99
558.265	21858.14
558.464	21352.29
558.663	22259.54
558.863	21698.4
559.062	21919.58
559.261	21370.72
559.461	21786.46
559.66	21374.82
559.859	21493.6
560.058	21587.81
560.258	21542.75
560.457	21122.92
560.656	21413.73
560.855	21389.16
561.054	21485.41
561.253	21417.83
561.453	21722.98
561.652	21542.75
561.851	21276.52
562.05	21127.02
562.249	21329.77
562.448	21362.53
562.647	21331.81
562.846	21202.79
563.045	21313.38
563.244	21245.8
563.443	21133.16
563.642	20877.16
563.841	21141.35
564.04	21178.22
564.239	21253.99
564.438	20969.32
564.637	21104.49
564.836	21063.53
565.035	20891.5
565.234	21165.93
565.432	20651.89
565.631	20842.35
565.83	20723.57
566.029	20844.4
566.228	20438.9
566.427	20754.29
566.625	20615.02
566.824	20420.47
567.023	20705.13
567.222	20311.92
567.42	20567.92
567.619	20397.94
567.818	20760.43
568.016	20428.66
568.215	20776.81
568.414	20262.77
568.612	20662.13
568.811	20260.73
569.01	20465.52
569.208	20072.31
569.407	20483.95
569.605	20250.49
569.804	20236.15
570.002	19885.95
570.201	20459.38
570.4	20039.54
570.598	20072.31
570.797	19873.66
570.995	20162.42
571.193	19951.48
571.392	20045.69
571.59	19636.1
571.789	19912.57
571.987	19615.62
572.186	19832.7
572.384	19658.62
572.582	20019.07
572.781	19601.28
572.979	19265.41
573.177	19556.22
573.376	19750.78
573.574	19605.38
573.772	19531.65
573.971	19537.79
574.169	19289.99
574.367	19246.98
574.565	19138.44
574.763	19113.86
574.962	19050.38
575.16	18892.68
575.358	19130.25
575.556	18812.81
575.754	19187.59
575.952	18841.48
576.151	19052.42
576.349	18784.14
576.547	18804.62
576.745	19074.95
576.943	19107.72
577.141	18771.85
577.339	18853.77
577.537	18841.48
577.735	19031.94
577.933	18421.65
578.131	18841.48
578.329	18583.44
578.527	18325.4
578.725	18605.97
578.923	18478.99
579.121	18413.46
579.319	18118.55
579.516	18370.45
579.714	18151.32
579.912	18204.56
580.11	18292.63
580.308	18216.85
580.506	18261.91
580.704	17649.57
580.901	18145.17
581.099	17964.95
581.297	17954.71
581.495	17825.69
581.692	18042.78
581.89	17567.65
582.088	17958.81
582.285	17682.33
582.483	17522.59
582.681	17573.79
582.878	17731.48
583.076	17366.95
583.274	17807.26
583.471	17446.82
583.669	17317.79
583.866	17518.5
584.064	17600.41
584.262	17213.35
584.459	17502.11
584.657	17115.05
584.854	17334.18
585.052	16920.49
585.249	17450.91
585.447	17143.72
585.644	16826.28
585.841	16977.83
586.039	17037.22
586.236	16900.01
586.434	16918.44
586.631	16799.66
586.828	16910.25
587.026	16758.7
587.223	16832.43
587.42	16701.36
587.618	16627.63
587.815	16490.42
588.012	16570.29
588.21	16447.41
588.407	16746.41
588.604	16211.89
588.801	16246.71
588.999	16302
589.196	16254.9
589.393	16156.6
589.59	16252.85
589.787	16050.1
589.984	16076.73
590.182	15892.41
590.379	16224.18
590.576	16111.54
590.773	15849.4
590.97	15916.98
591.167	15884.22
591.364	15933.37
591.561	15771.58
591.758	15654.84
591.955	15683.52
592.152	15867.83
592.349	15710.14
592.546	15445.95
592.743	15470.53
592.94	15263.68
593.137	15376.32
593.334	15654.84
593.531	15230.91
593.727	15460.29
593.924	15255.49
594.121	15321.02
594.318	15206.34
594.515	15122.37
594.712	15124.42
594.908	15009.73
595.105	15044.55
595.302	14870.47
595.499	15087.56
595.696	14813.13
595.892	14823.37
596.089	14931.91
596.286	14936.01
596.482	14854.09
596.679	14849.99
596.876	14858.18
597.072	14606.28
597.269	14477.26
597.466	14510.03
597.662	14360.53
597.859	14628.81
598.055	14479.31
598.252	14366.67
598.448	14288.85
598.645	14153.68
598.841	14088.15
599.038	14079.96
599.234	14401.49
599.431	14284.75
599.627	14211.03
599.824	14147.54
600.02	14010.32
600.217	13932.5
600.413	13989.85
600.609	13883.35
600.806	13692.89
601.002	14030.8
601.198	13742.04
601.395	13723.61
601.591	13832.15
601.787	13762.52
601.984	13887.45
602.18	13770.71
602.376	13715.42
602.572	13510.62
602.769	13604.83
602.965	13299.68
603.161	13397.98
603.357	13381.6
603.553	13103.07
603.75	13449.18
603.946	13076.45
604.142	13271.01
604.338	13094.88
604.534	13248.48
604.73	12951.53
604.926	13023.2
605.122	12963.81
605.318	12900.33
605.514	13113.31
605.71	12822.5
605.906	12709.86
606.102	13117.41
606.298	12761.06
606.494	12902.37
606.69	12541.93
606.886	12922.85
607.082	12642.28
607.278	12617.71
607.474	12543.98
607.67	12650.47
607.866	12607.47
608.062	12816.36
608.257	12718.06
608.453	12543.98
608.649	12527.6
608.845	12546.03
609.041	12517.36
609.236	12281.84
609.432	12500.97
609.628	12382.19
609.824	12480.49
610.019	12386.29
610.215	12214.26
610.411	12486.64
610.606	12154.87
610.802	12138.48
610.998	12292.08
611.193	12019.7
611.389	11917.3
611.584	11935.73
611.78	12017.65
611.976	12152.82
612.171	12191.73
612.367	11976.69
612.562	12038.13
612.758	12031.99
612.953	11829.24
613.149	12007.41
613.344	11718.65
613.539	11835.38
613.735	11929.59
613.93	11939.83
614.126	11753.46
614.321	11796.47
614.517	11765.75
614.712	11677.69
614.907	11597.82
615.103	11552.76
615.298	11976.69
615.493	11816.95
615.688	11466.75
615.884	11563
616.079	11546.62
616.274	11704.31
616.47	11575.29
616.665	11433.98
616.86	11460.6
617.055	11296.77
617.25	11378.69
617.445	11495.42
617.641	11163.65
617.836	11452.41
618.031	11343.87
618.226	11532.28
618.421	11124.74
618.616	11229.18
618.811	10985.48
619.006	11421.69
619.201	11061.25
619.396	11104.26
619.591	10938.37
619.786	11089.92
619.981	10694.66
620.176	10989.57
620.371	10917.89
620.566	10856.45
620.761	10745.86
620.956	10799.11
621.151	10432.52
621.346	10792.97
621.541	10600.46
621.735	10756.1
621.93	10577.93
622.125	10483.72
622.32	10278.93
622.515	10539.02
622.709	10362.89
622.904	10385.42
623.099	10162.19
623.294	10197.01
623.488	9924.63
623.683	10096.66
623.878	9881.62
624.072	9908.24
624.267	9922.58
624.462	9746.45
624.656	9719.83
624.851	9814.04
625.046	9906.2
625.24	9717.78
625.435	9551.9
625.629	9625.62
625.824	9553.94
626.018	9611.29
626.213	9416.73
626.407	9240.61
626.602	9254.94
626.796	9265.18
626.991	9410.59
627.185	9125.92
627.38	9189.41
627.574	9105.44
627.768	9046.05
627.963	8986.66
628.157	9009.19
628.352	8902.69
628.546	8859.68
628.74	8906.79
628.935	8603.69
629.129	8618.02
629.323	8747.05
629.517	8673.32
629.712	8421.42
629.906	8478.76
630.1	8304.68
630.294	8278.06
630.489	8351.79
630.683	8355.88
630.877	8159.28
631.071	8220.72
631.265	8015.92
631.459	8136.75
631.653	7954.48
631.848	8091.7
632.042	8095.79
632.236	7907.38
632.43	7890.99
632.624	7882.8
632.818	7843.89
633.012	7899.19
633.206	7788.6
633.4	7772.21
633.594	7622.71
633.788	7497.78
633.982	7635
634.176	7710.77
634.369	7405.63
634.563	7585.85
634.757	7403.58
634.951	7409.72
635.145	7389.24
635.339	7364.67
635.533	7278.65
635.726	7360.57
635.92	7123.01
636.114	7192.64
636.308	7331.9
636.501	7163.97
636.695	7272.51
636.889	7004.22
637.083	6948.93
637.276	6987.84
637.47	6959.17
637.664	6998.08
637.857	6998.08
638.051	6842.43
638.244	6762.56
638.438	6697.03
638.632	6764.61
638.825	6684.74
639.019	6633.54
639.212	6557.77
639.406	6506.57
639.599	6545.48
639.793	6492.23
639.986	6498.38
640.18	6342.73
640.373	6375.5
640.567	6432.84
640.76	6340.68
640.954	6336.59
641.147	6242.38
641.34	6252.62
641.534	6236.24
641.727	6142.03
641.92	6064.21
642.114	6082.64
642.307	6117.45
642.5	6101.07
642.694	5994.58
642.887	5994.58
643.08	6131.79
643.273	5826.64
643.467	5843.03
643.66	5757.01
643.853	5812.31
644.046	5804.11
644.239	5644.37
644.432	5660.76
644.626	5750.87
644.819	5777.49
645.012	5664.85
645.205	5597.27
645.398	5578.84
645.591	5714
645.784	5630.04
645.977	5466.2
646.17	5507.16
646.363	5408.86
646.556	5443.67
646.749	5488.73
646.942	5466.2
647.135	5277.79
647.328	5283.93
647.521	5208.16
647.714	5326.94
647.907	5320.79
648.099	5242.97
648.292	5288.03
648.485	5208.16
648.678	5222.49
648.871	5167.2
649.064	5107.8
649.256	4974.69
649.449	4980.83
649.642	4929.63
649.835	4823.14
650.027	4726.88
650.22	4946.02
650.413	4915.3
650.605	4950.11
650.798	4821.09
650.991	4763.75
651.183	4726.88
651.376	4722.79
651.568	4876.38
651.761	4790.37
651.954	4673.64
652.146	4601.96
652.339	4616.29
652.531	4581.48
652.724	4462.69
652.916	4444.26
653.109	4468.84
653.301	4483.17
653.494	4456.55
653.686	4388.97
653.879	4300.91
654.071	4409.45
654.263	4259.95
654.456	4444.26
654.648	4415.59
654.84	4305
655.033	4345.96
655.225	4188.27
655.417	4094.06
655.61	4337.77
655.802	4298.86
655.994	4089.96
656.186	4212.84
656.379	4194.41
656.571	3987.57
656.763	4018.29
656.955	3973.23
657.148	4098.16
657.34	3997.81
657.532	3999.85
657.724	3958.89
657.916	3962.99
658.108	3999.85
658.3	4073.58
658.492	3917.93
658.684	3872.88
658.876	3934.32
659.068	3915.89
659.26	3719.28
659.452	3913.84
659.644	3946.61
659.836	3776.63
660.028	3813.49
660.22	3633.27
660.412	3709.04
660.604	3725.43
660.796	3565.68
660.988	3565.68
661.18	3696.75
661.372	3514.49
661.563	3571.83
661.755	3514.49
661.947	3563.64
662.139	3506.29
662.331	3571.83
662.522	3520.63
662.714	3641.46
662.906	3582.07
663.097	3459.19
663.289	3428.47
663.481	3424.37
663.673	3451
663.864	3367.03
664.056	3358.84
664.247	3176.57
664.439	3324.02
664.631	3338.36
664.822	3319.93
665.014	3246.2
665.205	3203.19
665.397	3244.15
665.588	3244.15
665.78	3321.98
665.971	3180.67
666.163	3231.87
666.354	3211.39
666.546	3178.62
666.737	3229.82
666.929	3188.86
667.12	3108.99
667.311	3106.94
667.503	3145.85
667.694	3121.28
667.885	3082.36
668.077	2961.53
668.268	2996.35
668.459	3043.45
668.651	2861.18
668.842	2869.37
669.033	3006.59
669.224	3049.6
669.416	2957.44
669.607	3012.73
669.798	2924.67
669.989	3031.16
670.18	2949.25
670.371	2877.57
670.563	2947.2
670.754	2859.14
670.945	2904.19
671.136	2809.98
671.327	2736.26
671.518	2744.45
671.709	2969.73
671.9	2799.74
672.091	2822.27
672.282	2762.88
672.473	2803.84
672.664	2683.01
672.855	2721.92
673.046	2697.35
673.237	2726.02
673.428	2732.16
673.619	2652.29
673.809	2756.74
674	2685.06
674.191	2680.96
674.382	2762.88
674.573	2666.63
674.764	2633.86
674.954	2701.44
675.145	2592.9
675.336	2607.23
675.527	2666.63
675.717	2570.37
675.908	2666.63
676.099	2590.85
676.289	2662.53
676.48	2697.35
676.671	2551.94
676.861	2545.8
677.052	2521.22
677.243	2599.04
677.433	2558.08
677.624	2427.01
677.814	2517.12
678.005	2480.26
678.195	2594.95
678.386	2496.64
678.576	2621.57
678.767	2435.21
678.957	2394.25
679.148	2527.36
679.338	2508.93
679.529	2459.78
679.719	2476.16
679.909	2398.34
680.1	2531.46
680.29	2394.25
680.481	2494.6
680.671	2429.06
680.861	2343.05
681.052	2455.69
681.242	2269.32
681.432	2416.77
681.622	2338.95
681.813	2345.09
682.003	2355.33
682.193	2472.07
682.383	2541.7
682.573	2369.67
682.764	2416.77
682.954	2396.29
683.144	2400.39
683.334	2297.99
683.524	2406.53
683.714	2412.68
683.904	2396.29
684.094	2357.38
684.284	2279.56
684.474	2355.33
684.664	2277.51
684.854	2332.81
685.044	2187.4
685.234	2277.51
685.424	2332.81
685.614	2205.83
685.804	2314.38
685.994	2338.95
686.184	2273.42
686.374	2162.83
686.564	2246.79
686.753	2234.5
686.943	2085
687.133	2279.56
687.323	2164.87
687.513	2144.39
687.702	2142.35
687.892	2107.53
688.082	2144.39
688.272	2175.11
688.461	2017.42
688.651	2140.3
688.841	2048.14
689.03	2093.19
689.22	2082.95
689.41	2109.58
689.599	2093.19
689.789	1945.74
689.979	2042
690.168	1984.65
690.358	2117.77
690.547	2093.19
690.737	2093.19
690.926	1912.97
691.116	1888.4
691.305	1962.12
691.495	1910.93
691.684	2013.32
691.874	2029.71
692.063	1986.7
692.252	1939.6
692.442	1931.41
692.631	1902.73
692.82	1867.92
693.01	1933.45
693.199	1816.72
693.388	1988.75
693.578	1915.02
693.767	1804.43
693.956	1917.07
694.146	1833.1
694.335	1783.95
694.524	1818.77
694.713	1765.52
694.902	1896.59
695.092	1896.59
695.281	1761.42
695.47	1898.64
695.659	1759.38
695.848	1833.1
696.037	1730.7
696.226	1814.67
696.415	1841.29
696.604	1810.58
696.793	1818.77
696.982	1859.73
697.171	1851.53
697.36	1847.44
697.549	1831.05
697.738	1786
697.927	1800.34
698.116	1734.8
698.305	1781.9
698.494	1794.19
698.683	1765.52
698.872	1826.96
699.061	1765.52
699.25	1849.49
699.438	1671.31
699.627	1831.05
699.816	1843.34
700.005	1706.13
700.193	1740.94
700.382	1738.9
700.571	1738.9
700.76	1790.1
700.948	1669.27
701.137	1857.68
701.326	1863.82
701.514	1751.18
701.703	1829.01
701.892	1751.18
702.08	1716.37
702.269	1749.14
702.457	1716.37
702.646	1843.34
702.834	1767.57
703.023	1722.51
703.212	1730.7
703.4	1681.55
703.589	1738.9
703.777	1794.19
703.965	1800.34
704.154	1716.37
704.342	1730.7
704.531	1677.46
704.719	1720.46
704.907	1708.18
705.096	1773.71
705.284	1712.27
705.472	1822.86
705.661	1814.67
705.849	1790.1
706.037	1667.22
706.226	1722.51
706.414	1706.13
706.602	1720.46
706.79	1839.25
706.979	1786
707.167	1718.42
707.355	1706.13
707.543	1777.81
707.731	1745.04
707.919	1734.8
708.107	1865.87
708.296	1777.81
708.484	1720.46
708.672	1771.66
708.86	1804.43
709.048	1708.18
709.236	1745.04
709.424	1820.81
709.612	1763.47
709.8	1779.86
709.988	1783.95
710.176	1818.77
710.364	1736.85
710.551	1876.11
710.739	1790.1
710.927	1759.38
711.115	1863.82
711.303	1820.81
711.491	1632.4
711.679	1699.98
711.866	1837.2
712.054	1779.86
712.242	1720.46
712.43	1755.28
712.617	1890.45
712.805	1775.76
712.993	1747.09
713.181	1761.42
713.368	1826.96
713.556	1775.76
713.744	1593.49
713.931	1802.38
714.119	1814.67
714.306	1718.42
714.494	1767.57
714.682	1712.27
714.869	1804.43
715.057	1769.62
715.244	1786
715.432	1800.34
715.619	1644.69
715.807	1814.67
715.994	1831.05
716.182	1747.09
716.369	1781.9
716.556	1863.82
716.744	1810.58
716.931	1859.73
717.119	1882.25
717.306	1788.05
717.493	1837.2
717.681	1853.58
717.868	1824.91
718.055	1837.2
718.242	1769.62
718.43	1814.67
718.617	1810.58
718.804	1826.96
718.991	1876.11
719.179	1845.39
719.366	1810.58
719.553	1704.08
719.74	1706.13
719.927	1794.19
720.114	1777.81
720.301	1800.34
720.488	1847.44
720.676	1738.9
720.863	1783.95
721.05	1773.71
721.237	1816.72
721.424	1722.51
721.611	1714.32
721.798	1736.85
721.985	1851.53
722.172	1761.42
722.358	1814.67
722.545	1849.49
722.732	1716.37
722.919	1786
723.106	1859.73
723.293	1882.25
723.48	1771.66
723.667	1722.51
723.853	1788.05
724.04	1796.24
724.227	1699.98
724.414	1800.34
724.6	1710.22
724.787	1720.46
724.974	1796.24
725.161	1849.49
725.347	1841.29
725.534	1847.44
725.72	1800.34
725.907	1687.7
726.094	1781.9
726.28	1798.29
726.467	1740.94
726.653	1771.66
726.84	1880.21
727.027	1745.04
727.213	1714.32
727.4	1773.71
727.586	1765.52
727.773	1794.19
727.959	1798.29
728.145	1759.38
728.332	1845.39
728.518	1749.14
728.705	1771.66
728.891	1820.81
729.077	1745.04
729.264	1841.29
729.45	1822.86
729.636	1820.81
729.823	1740.94
730.009	1775.76
730.195	1749.14
730.382	1759.38
730.568	1747.09
730.754	1788.05
730.94	1681.55
731.126	1726.61
731.313	1796.24
731.499	1783.95
731.685	1765.52
731.871	1710.22
732.057	1714.32
732.243	1697.94
732.429	1747.09
732.615	1722.51
732.801	1730.7
732.987	1693.84
733.173	1808.53
733.359	1665.17
733.545	1732.75
733.731	1751.18
733.917	1751.18
734.103	1693.84
734.289	1792.14
734.475	1755.28
734.661	1788.05
734.847	1822.86
735.033	1745.04
735.219	1693.84
735.404	1716.37
735.59	1659.03
735.776	1732.75
735.962	1687.7
736.148	1788.05
736.333	1691.79
736.519	1732.75
736.705	1677.46
736.89	1659.03
737.076	1632.4
737.262	1687.7
737.447	1755.28
737.633	1622.16
737.819	1568.91
738.004	1685.65
738.19	1673.36
738.375	1730.7
738.561	1716.37
738.747	1632.4
738.932	1663.12
739.118	1738.9
739.303	1570.96
739.489	1800.34
739.674	1603.73
739.859	1568.91
740.045	1609.87
740.23	1624.21
740.416	1562.77
740.601	1656.98
740.786	1548.44
740.972	1554.58
741.157	1548.44
741.342	1503.38
741.528	1491.09
741.713	1556.63
741.898	1554.58
742.084	1575.06
742.269	1597.59
742.454	1618.07
742.639	1546.39
742.824	1525.91
743.01	1437.84
743.195	1566.87
743.38	1515.67
743.565	1499.28
743.75	1577.11
743.935	1501.33
744.12	1513.62
744.305	1484.95
744.49	1378.45
744.675	1466.52
744.86	1417.37
745.045	1388.69
745.23	1433.75
745.415	1519.76
745.6	1501.33
745.785	1392.79
745.97	1400.98
746.155	1411.22
746.34	1405.08
746.525	1419.41
746.71	1407.13
746.895	1368.21
747.079	1368.21
747.264	1304.73
747.449	1374.36
747.634	1351.83
747.819	1286.3
748.003	1310.87
748.188	1339.54
748.373	1288.34
748.557	1257.62
748.742	1323.16
748.927	1245.34
749.111	1286.3
749.296	1321.11
749.481	1226.9
749.665	1296.53
749.85	1247.38
750.034	1228.95
750.219	1231
750.404	1249.43
750.588	1259.67
750.773	1302.68
750.957	1147.03
751.141	1302.68
751.326	1153.18
751.51	1251.48
751.695	1245.34
751.879	1237.14
752.064	1161.37
752.248	1136.79
752.432	1187.99
752.617	1183.9
752.801	1171.61
752.985	1075.35
753.17	1077.4
753.354	1159.32
753.538	1144.99
753.722	1108.12
753.907	1087.64
754.091	1013.92
754.275	1106.07
754.459	970.91
754.643	1034.39
754.828	1140.89
755.012	1009.82
755.196	1089.69
755.38	1061.02
755.564	1005.72
755.748	1048.73
755.932	995.48
756.116	1015.96
756.3	1079.45
756.484	1018.01
756.668	1018.01
756.852	891.04
757.036	1026.2
757.22	911.52
757.404	917.66
757.588	938.14
757.772	932
757.956	936.09
758.14	987.29
758.323	915.61
758.507	878.75
758.691	977.05
758.875	985.24
759.059	940.19
759.242	929.95
759.426	874.65
759.61	897.18
759.794	884.89
759.977	874.65
760.161	891.04
760.345	798.88
760.528	909.47
760.712	866.46
760.895	831.65
761.079	817.31
761.263	784.54
761.446	821.41
761.63	778.4
761.813	895.13
761.997	841.89
762.18	743.58
762.364	762.02
762.547	745.63
762.731	788.64
762.914	778.4
763.098	766.11
763.281	698.53
763.464	764.06
763.648	733.34
763.831	784.54
764.015	721.06
764.198	698.53
764.381	802.97
764.564	764.06
764.748	784.54
764.931	772.25
765.114	733.34
765.297	749.73
765.481	690.34
765.664	749.73
765.847	757.92
766.03	688.29
766.213	729.25
766.397	749.73
766.58	788.64
766.763	700.58
766.946	723.1
767.129	688.29
767.312	725.15
767.495	729.25
767.678	630.95
767.861	772.25
768.044	653.47
768.227	637.09
768.41	655.52
768.593	676
768.776	682.14
768.959	676
769.142	702.62
769.324	651.42
769.507	639.14
769.69	643.23
769.873	604.32
770.056	741.54
770.239	630.95
770.421	686.24
770.604	696.48
770.787	594.08
770.97	647.33
771.152	628.9
771.335	569.51
771.518	616.61
771.7	639.14
771.883	641.18
772.066	604.32
772.248	571.55
772.431	643.23
772.613	567.46
772.796	546.98
772.978	598.18
773.161	602.27
773.343	573.6
773.526	596.13
773.708	589.99
773.891	454.82
774.073	487.59
774.256	532.64
774.438	551.07
774.621	528.55
774.803	544.93
774.985	495.78
775.168	567.46
775.35	483.49
775.532	460.96
775.715	479.4
775.897	532.64
776.079	506.02
776.261	430.24
776.444	452.77
776.626	450.72
776.808	510.11
776.99	485.54
777.173	499.88
777.355	385.19
777.537	479.4
777.719	477.35
777.901	491.68
778.083	514.21
778.265	442.53
778.447	436.39
778.629	481.44
778.811	477.35
778.993	481.44
779.175	510.11
779.357	448.68
779.539	333.99
779.721	477.35
779.903	430.24
780.085	473.25
780.267	495.78
780.449	456.87
780.631	465.06
780.812	508.07
780.994	372.9
781.176	352.42
781.358	395.43
781.54	446.63
781.721	411.81
781.903	379.04
782.085	379.04
782.267	381.09
782.448	385.19
782.63	393.38
782.812	413.86
782.993	424.1
783.175	395.43
783.357	356.52
783.538	385.19
783.72	323.75
783.901	336.04
784.083	348.33
784.264	364.71
784.446	303.27
784.627	370.85
784.809	317.61
784.99	313.51
785.172	293.03
785.353	352.42
785.535	272.55
785.716	264.36
785.897	362.66
786.079	303.27
786.26	350.37
786.441	264.36
786.623	356.52
786.804	284.84
786.985	329.89
787.167	368.81
787.348	280.74
787.529	258.21
787.71	331.94
787.891	288.93
788.073	327.85
788.254	290.98
788.435	254.12
788.616	327.85
788.797	272.55
788.978	264.36
789.159	237.74
789.34	299.17
789.522	227.5
789.703	229.54
789.884	284.84
790.065	280.74
790.246	374.95
790.427	209.06
790.607	270.5
790.788	297.13
790.969	254.12
791.15	303.27
791.331	221.35
791.512	243.88
791.693	256.17
791.874	247.97
792.054	274.6
792.235	262.31
792.416	217.26
792.597	284.84
792.778	188.58
792.958	221.35
793.139	184.49
793.32	223.4
793.5	176.3
793.681	329.89
793.862	223.4
794.042	211.11
794.223	192.68
794.404	258.21
794.584	174.25
794.765	166.06
794.945	186.54
795.126	202.92
795.306	204.97
795.487	182.44
795.667	297.13
795.848	237.74
796.028	202.92
796.209	147.62
796.389	200.87
796.57	215.21
796.75	256.17
796.93	182.44
797.111	139.43
797.291	161.96
797.471	217.26
797.652	252.07
797.832	147.62
798.012	200.87
798.192	202.92
798.373	278.69
798.553	227.5
798.733	202.92
798.913	137.38
799.093	331.94
799.274	180.39
799.454	168.1
799.634	211.11
799.814	141.48
799.994	188.58
800.174	125.1
800.354	192.68
800.534	116.9
800.714	182.44
800.894	145.58
801.074	143.53
801.254	82.09
801.434	149.67
801.614	149.67
801.794	106.67
801.974	491.68
802.154	90.28
802.334	123.05
802.514	141.48
802.693	180.39
802.873	151.72
803.053	241.83
803.233	190.63
803.413	211.11
803.592	65.71
803.772	149.67
803.952	166.06
804.131	108.71
804.311	172.2
804.491	194.73
804.67	77.99
804.85	67.75
805.03	141.48
805.209	180.39
805.389	204.97
805.568	217.26
805.748	209.06
805.928	168.1
806.107	110.76
806.287	174.25
806.466	67.75
806.646	125.1
806.825	143.53
807.004	96.43
807.184	196.78
807.363	123.05
807.543	139.43
807.722	133.29
807.901	106.67
808.081	168.1
808.26	186.54
808.439	98.47
808.619	153.77
808.798	121
808.977	106.67
809.156	139.43
809.336	125.1
809.515	153.77
809.694	102.57
809.873	57.51
810.052	108.71
810.231	153.77
810.411	116.9
810.59	108.71
810.769	141.48
810.948	100.52
811.127	125.1
811.306	110.76
811.485	137.38
811.664	116.9
811.843	88.23
812.022	80.04
812.201	57.51
812.38	94.38
812.559	123.05
812.737	155.82
812.916	100.52
813.095	77.99
813.274	161.96
813.453	166.06
813.632	94.38
813.811	137.38
813.989	94.38
814.168	14.51
814.347	82.09
814.526	90.28
814.704	131.24
814.883	151.72
815.062	47.27
815.24	41.13
815.419	53.42
815.598	90.28
815.776	61.61
815.955	90.28
816.133	24.75
816.312	12.46
816.49	47.27
816.669	104.62
816.847	141.48
817.026	94.38
817.204	131.24
817.383	69.8
817.561	69.8
817.74	73.9
817.918	90.28
818.097	20.65
818.275	104.62
818.453	102.57
818.632	92.33
818.81	37.03
818.988	69.8
819.167	94.38
819.345	102.57
819.523	86.19
819.701	96.43
819.879	73.9
820.058	20.65
820.236	88.23
820.414	116.9
820.592	77.99
820.77	114.86
820.948	67.75
821.127	-10.07
821.305	114.86
821.483	80.04
821.661	26.79
821.839	-32.6
822.017	80.04
822.195	67.75
822.373	32.94
822.551	30.89
822.729	77.99
822.907	80.04
823.085	125.1
823.262	80.04
823.44	37.03
823.618	77.99
823.796	51.37
823.974	84.14
824.152	32.94
824.329	34.99
824.507	112.81
824.685	41.13
824.863	100.52
825.04	49.32
825.218	51.37
825.396	114.86
825.574	106.67
825.751	67.75
825.929	20.65
826.107	24.75
826.284	55.47
826.462	20.65
826.639	94.38
826.817	-51.03
826.994	75.95
827.172	-3.93
827.349	90.28
827.527	-3.93
827.704	41.13
827.882	49.32
828.059	22.7
828.237	0.17
828.414	106.67
828.591	55.47
828.769	51.37
828.946	69.8
829.124	84.14
829.301	55.47
829.478	94.38
829.655	22.7
829.833	-10.07
830.01	14.51
830.187	104.62
830.364	16.55
830.542	34.99
830.719	100.52
830.896	94.38
831.073	75.95
831.25	0.17
831.427	108.71
831.604	47.27
831.782	53.42
831.959	96.43
832.136	-32.6
832.313	12.46
832.49	20.65
832.667	65.71
832.844	63.66
833.021	151.72
833.198	-20.31
833.374	-8.02
833.551	-5.97
833.728	24.75
833.905	-34.64
834.082	22.7
834.259	57.51
834.436	118.95
834.612	24.75
834.789	59.56
834.966	4.27
835.143	45.23
835.319	73.9
835.496	190.63
835.673	61.61
835.85	12.46
836.026	77.99
836.203	-14.17
836.38	37.03
836.556	84.14
836.733	39.08
836.909	90.28
837.086	10.41
837.262	86.19
837.439	63.66
837.616	80.04
837.792	24.75
837.968	71.85
838.145	32.94
838.321	32.94
838.498	43.18
838.674	61.61
838.851	26.79
839.027	84.14
839.203	18.6
839.38	92.33
839.556	10.41
839.732	96.43
839.909	6.31
840.085	75.95
840.261	22.7
840.437	-1.88
840.614	26.79
840.79	51.37
840.966	30.89
841.142	98.47
841.318	-36.69
841.494	24.75
841.671	-3.93
841.847	47.27
842.023	-20.31
842.199	69.8
842.375	-1.88
842.551	12.46
842.727	41.13
842.903	6.31
843.079	-34.64
843.255	41.13
843.431	-22.36
843.607	-26.45
843.783	73.9
843.959	16.55
844.134	6.31
844.31	90.28
844.486	55.47
844.662	32.94
844.838	26.79
845.013	-16.21
845.189	77.99
845.365	12.46
845.541	10.41
845.716	69.8
845.892	34.99
846.068	26.79
846.244	16.55
846.419	-59.22
846.595	10.41
846.77	14.51
846.946	41.13
847.122	20.65
847.297	-32.6
847.473	39.08
847.648	0.17
847.824	-34.64
847.999	-48.98
848.175	34.99
848.35	30.89
848.526	71.85
848.701	61.61
848.876	30.89
849.052	-1.88
849.227	10.41
849.403	51.37
849.578	8.36
849.753	-30.55
849.929	0.17
850.104	26.79
850.279	100.52
850.454	51.37
850.63	53.42
850.805	-10.07
850.98	18.6
851.155	6.31
851.33	18.6
851.505	47.27
851.681	14.51
851.856	108.71
852.031	-36.69
852.206	34.99
852.381	-22.36
852.556	-46.93
852.731	22.7
852.906	12.46
853.081	28.84
853.256	45.23
853.431	-10.07
853.606	-46.93
853.781	39.08
853.956	-12.12
854.131	-14.17
854.305	24.75
854.48	34.99
854.655	-1.88
854.83	28.84
855.005	-48.98
855.18	30.89
855.354	59.56
855.529	53.42
855.704	-8.02
855.879	43.18
856.053	4.27
856.228	0.17
856.403	32.94
856.577	2.22
856.752	30.89
856.926	43.18
857.101	-65.36
857.276	37.03
857.45	0.17
857.625	34.99
857.799	55.47
857.974	26.79
858.148	-32.6
858.323	-10.07
858.497	4.27
858.672	-12.12
858.846	-48.98
859.02	26.79
859.195	32.94
859.369	2.22
859.543	47.27
859.718	39.08
859.892	-22.36
860.066	-3.93
860.241	51.37
860.415	14.51
860.589	-10.07
860.763	-12.12
860.938	-26.45
861.112	30.89
861.286	-22.36
861.46	18.6
861.634	2.22
861.808	-3.93
861.982	-36.69
862.157	53.42
862.331	-28.5
862.505	28.84
862.679	-20.31
862.853	-3.93
863.027	43.18
863.201	71.85
863.375	-61.27
863.549	28.84
863.722	-16.21
863.896	24.75
864.07	-122.71
864.244	14.51
864.418	39.08
864.592	55.47
864.766	61.61
864.939	67.75
865.113	59.56
865.287	63.66
865.461	12.46
865.634	16.55
865.808	10.41
865.982	28.84
866.156	6.31
866.329	-10.07
866.503	-30.55
866.676	8.36
866.85	14.51
867.024	4.27
867.197	37.03
867.371	28.84
867.544	41.13
867.718	45.23
867.891	30.89
868.065	-8.02
868.238	12.46
868.412	59.56
868.585	20.65
868.759	-38.74
868.932	-57.17
869.105	-26.45
869.279	24.75
869.452	-16.21
869.625	28.84
869.799	92.33
869.972	51.37
870.145	16.55
870.319	65.71
870.492	-69.46
870.665	-1.88
870.838	-26.45
871.011	28.84
871.185	-14.17
871.358	-8.02
871.531	-30.55
871.704	-8.02
871.877	10.41
872.05	-26.45
872.223	-8.02
872.396	-20.31
872.569	-3.93
872.742	22.7
872.915	18.6
873.088	-61.27
873.261	-12.12
873.434	4.27
873.607	-18.26
873.78	-8.02
873.953	-28.5
874.126	47.27
874.299	39.08
874.471	-75.6
874.644	26.79
874.817	22.7
874.99	24.75
875.163	-65.36
875.335	4.27
875.508	-38.74
875.681	59.56
875.853	2.22
876.026	-16.21
876.199	4.27
876.371	-12.12
876.544	-42.84
876.717	-3.93
876.889	-22.36
877.062	-3.93
877.234	28.84
877.407	-38.74
877.579	-20.31
877.752	53.42
877.924	6.31
878.097	53.42
878.269	-20.31
878.442	14.51
878.614	-1.88
878.786	41.13
878.959	0.17
879.131	-65.36
879.303	-5.97
879.476	12.46
879.648	32.94
879.82	-26.45
879.993	-34.64
880.165	-55.12
880.337	39.08
880.509	61.61
880.681	-36.69
880.854	-8.02
881.026	-5.97
881.198	-14.17
881.37	-30.55
881.542	51.37
881.714	-73.56
881.886	-5.97
882.058	32.94
882.23	12.46
882.402	18.6
882.574	-20.31
882.746	61.61
882.918	12.46
883.09	26.79
883.262	-34.64
883.434	14.51
883.606	18.6
883.778	4.27
883.95	16.55
884.122	-40.79
884.293	28.84
884.465	39.08
884.637	43.18
884.809	-34.64
884.98	92.33
885.152	41.13
885.324	6.31
885.496	-20.31
885.667	-55.12
885.839	-3.93
886.011	34.99
886.182	-42.84
886.354	2.22
886.525	-24.4
886.697	2.22
886.869	2.22
887.04	-42.84
887.212	2.22
887.383	37.03
887.555	16.55
887.726	12.46
887.897	-75.6
888.069	30.89
888.24	2.22
888.412	-24.4
888.583	-65.36
888.754	73.9
888.926	-18.26
889.097	30.89
889.268	18.6
889.44	18.6
889.611	-38.74
889.782	-12.12
889.953	-61.27
890.125	39.08
890.296	-22.36
890.467	-8.02
890.638	-59.22
890.809	10.41
890.98	22.7
891.151	0.17
891.323	-1.88
891.494	47.27
891.665	4.27
891.836	4.27
892.007	49.32
892.178	-32.6
892.349	-34.64
892.52	6.31
892.691	-3.93
892.862	45.23
893.032	-30.55
893.203	-51.03
893.374	-20.31
893.545	88.23
893.716	-8.02
893.887	-73.56
894.057	-3.93
894.228	12.46
894.399	-55.12
894.57	-10.07
894.74	-32.6
894.911	-1.88
895.082	-32.6
895.253	-38.74
895.423	-5.97
895.594	-24.4
895.764	-12.12
895.935	14.51
896.106	-1.88
896.276	-63.32
896.447	-40.79
896.617	26.79
896.788	10.41
896.958	-16.21
897.129	2.22
897.299	4.27
897.47	12.46
897.64	32.94
897.81	10.41
897.981	-20.31
898.151	-8.02
898.322	34.99
898.492	-28.5
898.662	-1.88
898.832	-22.36
899.003	-32.6
899.173	-48.98
899.343	-85.84
899.513	-24.4
