Data from USB4F104151__74__12-02-06-506.txt Node

Date: Fri Mar 14 12:02:06 EDT 2025
User: louis
Spectrometer: USB4F10415
Trigger mode: 4
Integration Time (sec): 2.000000E-2
Scans to average: 1
Electric dark correction enabled: true
Nonlinearity correction enabled: false
Boxcar width: 0
XAxis mode: Wavelengths
Number of Pixels in Spectrum: 3648
>>>>>Begin Spectral Data<<<<<
178.204	-85.84
178.424	-85.84
178.644	-85.84
178.864	-100.18
179.084	-77.65
179.304	24.75
179.524	-1.88
179.744	39.08
179.964	-51.03
180.184	18.6
180.404	26.79
180.624	20.65
180.844	4.27
181.064	-65.36
181.283	-67.41
181.503	53.42
181.723	-1.88
181.943	22.7
182.163	28.84
182.383	49.32
182.602	80.04
182.822	149.67
183.042	47.27
183.262	-1.88
183.482	45.23
183.701	28.84
183.921	41.13
184.141	24.75
184.361	59.56
184.58	75.95
184.8	-12.12
185.02	28.84
185.239	125.1
185.459	-34.64
185.679	0.17
185.898	-71.51
186.118	39.08
186.338	10.41
186.557	45.23
186.777	-10.07
186.997	73.9
187.216	-12.12
187.436	135.34
187.655	24.75
187.875	26.79
188.095	75.95
188.314	69.8
188.534	108.71
188.753	0.17
188.973	49.32
189.192	4.27
189.412	106.67
189.631	-10.07
189.851	-18.26
190.07	80.04
190.29	-8.02
190.509	37.03
190.729	41.13
190.948	75.95
191.168	174.25
191.387	16.55
191.607	-83.8
191.826	69.8
192.045	32.94
192.265	32.94
192.484	63.66
192.704	-5.97
192.923	49.32
193.142	26.79
193.362	47.27
193.581	32.94
193.8	51.37
194.02	82.09
194.239	94.38
194.458	47.27
194.678	-8.02
194.897	55.47
195.116	55.47
195.335	43.18
195.555	53.42
195.774	-20.31
195.993	63.66
196.212	20.65
196.432	24.75
196.651	53.42
196.87	-10.07
197.089	86.19
197.308	20.65
197.528	-24.4
197.747	-28.5
197.966	39.08
198.185	75.95
198.404	-14.17
198.623	32.94
198.842	-10.07
199.062	20.65
199.281	24.75
199.5	61.61
199.719	24.75
199.938	43.18
200.157	39.08
200.376	139.43
200.595	30.89
200.814	45.23
201.033	32.94
201.252	112.81
201.471	41.13
201.69	20.65
201.909	28.84
202.128	8.36
202.347	106.67
202.566	-22.36
202.785	-8.02
203.004	73.9
203.223	90.28
203.442	61.61
203.661	39.08
203.879	39.08
204.098	67.75
204.317	8.36
204.536	24.75
204.755	59.56
204.974	125.1
205.193	80.04
205.411	98.47
205.63	71.85
205.849	112.81
206.068	49.32
206.287	63.66
206.505	18.6
206.724	16.55
206.943	32.94
207.162	-8.02
207.381	24.75
207.599	45.23
207.818	43.18
208.037	22.7
208.255	104.62
208.474	65.71
208.693	16.55
208.911	51.37
209.13	26.79
209.349	63.66
209.567	14.51
209.786	61.61
210.005	114.86
210.223	-5.97
210.442	-10.07
210.661	2.22
210.879	80.04
211.098	43.18
211.316	10.41
211.535	18.6
211.753	24.75
211.972	-3.93
212.191	0.17
212.409	10.41
212.628	45.23
212.846	41.13
213.065	39.08
213.283	118.95
213.502	-14.17
213.72	24.75
213.938	16.55
214.157	45.23
214.375	28.84
214.594	47.27
214.812	69.8
215.031	-8.02
215.249	34.99
215.467	55.47
215.686	24.75
215.904	59.56
216.122	-57.17
216.341	47.27
216.559	43.18
216.778	49.32
216.996	102.57
217.214	16.55
217.432	-18.26
217.651	20.65
217.869	43.18
218.087	30.89
218.306	53.42
218.524	69.8
218.742	-34.64
218.96	-14.17
219.179	-46.93
219.397	28.84
219.615	73.9
219.833	2.22
220.051	-8.02
220.27	63.66
220.488	-28.5
220.706	49.32
220.924	2.22
221.142	-16.21
221.36	88.23
221.578	43.18
221.796	16.55
222.015	39.08
222.233	92.33
222.451	49.32
222.669	18.6
222.887	-30.55
223.105	34.99
223.323	108.71
223.541	10.41
223.759	22.7
223.977	18.6
224.195	41.13
224.413	88.23
224.631	47.27
224.849	80.04
225.067	49.32
225.285	-12.12
225.503	10.41
225.721	98.47
225.939	16.55
226.157	28.84
226.375	26.79
226.592	24.75
226.81	82.09
227.028	32.94
227.246	47.27
227.464	65.71
227.682	41.13
227.9	57.51
228.117	-48.98
228.335	-5.97
228.553	39.08
228.771	-36.69
228.989	28.84
229.206	43.18
229.424	112.81
229.642	-20.31
229.86	80.04
230.077	2.22
230.295	-8.02
230.513	82.09
230.731	59.56
230.948	118.95
231.166	34.99
231.384	92.33
231.601	34.99
231.819	18.6
232.037	51.37
232.254	4.27
232.472	67.75
232.689	41.13
232.907	104.62
233.125	61.61
233.342	57.51
233.56	10.41
233.777	-59.22
233.995	-20.31
234.213	28.84
234.43	28.84
234.648	51.37
234.865	53.42
235.083	47.27
235.3	82.09
235.518	-24.4
235.735	53.42
235.953	41.13
236.17	8.36
236.388	51.37
236.605	39.08
236.822	100.52
237.04	51.37
237.257	37.03
237.475	10.41
237.692	24.75
237.909	84.14
238.127	14.51
238.344	100.52
238.562	24.75
238.779	32.94
238.996	22.7
239.214	-10.07
239.431	-8.02
239.648	-28.5
239.865	102.57
240.083	43.18
240.3	-26.45
240.517	37.03
240.735	14.51
240.952	41.13
241.169	118.95
241.386	10.41
241.603	41.13
241.821	14.51
242.038	-10.07
242.255	80.04
242.472	26.79
242.689	-1.88
242.907	39.08
243.124	-51.03
243.341	45.23
243.558	-3.93
243.775	57.51
243.992	2.22
244.209	30.89
244.426	8.36
244.643	82.09
244.86	-26.45
245.078	34.99
245.295	-1.88
245.512	30.89
245.729	-10.07
245.946	26.79
246.163	63.66
246.38	6.31
246.597	34.99
246.814	14.51
247.031	14.51
247.248	-3.93
247.464	8.36
247.681	-5.97
247.898	63.66
248.115	-10.07
248.332	30.89
248.549	65.71
248.766	90.28
248.983	30.89
249.2	41.13
249.417	114.86
249.633	37.03
249.85	34.99
250.067	6.31
250.284	71.85
250.501	41.13
250.717	-14.17
250.934	2.22
251.151	37.03
251.368	104.62
251.585	37.03
251.801	-14.17
252.018	16.55
252.235	57.51
252.451	0.17
252.668	41.13
252.885	59.56
253.102	37.03
253.318	47.27
253.535	47.27
253.752	-8.02
253.968	84.14
254.185	37.03
254.401	96.43
254.618	0.17
254.835	-28.5
255.051	133.29
255.268	39.08
255.484	63.66
255.701	-24.4
255.917	73.9
256.134	55.47
256.351	-32.6
256.567	32.94
256.784	39.08
257	59.56
257.217	57.51
257.433	-12.12
257.65	114.86
257.866	39.08
258.082	45.23
258.299	34.99
258.515	-26.45
258.732	-65.36
258.948	2.22
259.165	137.38
259.381	61.61
259.597	65.71
259.814	34.99
260.03	26.79
260.246	-16.21
260.463	4.27
260.679	45.23
260.895	43.18
261.112	43.18
261.328	12.46
261.544	26.79
261.761	53.42
261.977	-40.79
262.193	34.99
262.409	26.79
262.626	49.32
262.842	30.89
263.058	49.32
263.274	63.66
263.49	90.28
263.707	88.23
263.923	0.17
264.139	32.94
264.355	32.94
264.571	39.08
264.787	16.55
265.004	59.56
265.22	37.03
265.436	49.32
265.652	0.17
265.868	28.84
266.084	100.52
266.3	30.89
266.516	77.99
266.732	37.03
266.948	-55.12
267.164	37.03
267.38	71.85
267.596	75.95
267.812	24.75
268.028	-18.26
268.244	-8.02
268.46	67.75
268.676	24.75
268.892	94.38
269.108	34.99
269.324	6.31
269.54	34.99
269.756	94.38
269.972	12.46
270.188	34.99
270.403	51.37
270.619	-8.02
270.835	47.27
271.051	96.43
271.267	43.18
271.483	57.51
271.698	90.28
271.914	28.84
272.13	20.65
272.346	57.51
272.562	-18.26
272.777	-20.31
272.993	104.62
273.209	12.46
273.425	-30.55
273.64	47.27
273.856	-53.08
274.072	10.41
274.287	37.03
274.503	-10.07
274.719	86.19
274.934	80.04
275.15	-14.17
275.366	65.71
275.581	18.6
275.797	-1.88
276.012	41.13
276.228	123.05
276.444	18.6
276.659	39.08
276.875	30.89
277.09	37.03
277.306	39.08
277.521	39.08
277.737	73.9
277.952	53.42
278.168	24.75
278.383	20.65
278.599	63.66
278.814	-28.5
279.03	-10.07
279.245	45.23
279.461	47.27
279.676	49.32
279.892	39.08
280.107	63.66
280.322	28.84
280.538	26.79
280.753	-8.02
280.969	16.55
281.184	10.41
281.399	34.99
281.615	67.75
281.83	-79.7
282.045	14.51
282.26	-3.93
282.476	47.27
282.691	75.95
282.906	47.27
283.122	82.09
283.337	24.75
283.552	98.47
283.767	53.42
283.983	102.57
284.198	39.08
284.413	47.27
284.628	57.51
284.843	4.27
285.058	65.71
285.274	-22.36
285.489	12.46
285.704	92.33
285.919	-24.4
286.134	90.28
286.349	55.47
286.564	-1.88
286.779	75.95
286.995	22.7
287.21	69.8
287.425	57.51
287.64	69.8
287.855	65.71
288.07	73.9
288.285	102.57
288.5	41.13
288.715	73.9
288.93	61.61
289.145	10.41
289.36	51.37
289.575	-1.88
289.79	114.86
290.004	71.85
290.219	-30.55
290.434	-67.41
290.649	84.14
290.864	10.41
291.079	45.23
291.294	75.95
291.509	69.8
291.724	43.18
291.938	-8.02
292.153	32.94
292.368	-28.5
292.583	45.23
292.798	-14.17
293.012	-1.88
293.227	30.89
293.442	-20.31
293.657	82.09
293.871	28.84
294.086	47.27
294.301	121
294.516	-8.02
294.73	-26.45
294.945	6.31
295.16	14.51
295.374	92.33
295.589	45.23
295.804	-28.5
296.018	18.6
296.233	96.43
296.447	20.65
296.662	47.27
296.877	71.85
297.091	20.65
297.306	51.37
297.52	57.51
297.735	34.99
297.949	45.23
298.164	18.6
298.378	-59.22
298.593	34.99
298.807	55.47
299.022	-5.97
299.236	24.75
299.451	57.51
299.665	-20.31
299.88	82.09
300.094	-24.4
300.309	45.23
300.523	2.22
300.737	32.94
300.952	34.99
301.166	37.03
301.381	-8.02
301.595	-8.02
301.809	-16.21
302.024	75.95
302.238	75.95
302.452	47.27
302.667	47.27
302.881	71.85
303.095	34.99
303.309	26.79
303.524	39.08
303.738	10.41
303.952	12.46
304.166	80.04
304.381	39.08
304.595	96.43
304.809	71.85
305.023	92.33
305.237	73.9
305.452	0.17
305.666	57.51
305.88	32.94
306.094	51.37
306.308	-30.55
306.522	45.23
306.736	4.27
306.95	86.19
307.164	-48.98
307.379	-20.31
307.593	73.9
307.807	94.38
308.021	18.6
308.235	65.71
308.449	-12.12
308.663	8.36
308.877	94.38
309.091	49.32
309.305	-16.21
309.519	-5.97
309.733	45.23
309.947	10.41
310.161	-1.88
310.374	14.51
310.588	71.85
310.802	8.36
311.016	51.37
311.23	51.37
311.444	49.32
311.658	53.42
311.872	41.13
312.085	28.84
312.299	61.61
312.513	34.99
312.727	-18.26
312.941	88.23
313.154	24.75
313.368	30.89
313.582	67.75
313.796	73.9
314.009	26.79
314.223	57.51
314.437	71.85
314.651	39.08
314.864	-38.74
315.078	24.75
315.292	67.75
315.505	18.6
315.719	39.08
315.933	-10.07
316.146	67.75
316.36	63.66
316.573	80.04
316.787	47.27
317.001	8.36
317.214	-3.93
317.428	43.18
317.641	8.36
317.855	32.94
318.068	2.22
318.282	73.9
318.495	55.47
318.709	43.18
318.922	34.99
319.136	55.47
319.349	75.95
319.563	16.55
319.776	12.46
319.99	12.46
320.203	106.67
320.417	51.37
320.63	69.8
320.843	51.37
321.057	96.43
321.27	26.79
321.483	65.71
321.697	8.36
321.91	-14.17
322.124	53.42
322.337	143.53
322.55	22.7
322.763	63.66
322.977	-10.07
323.19	41.13
323.403	6.31
323.617	112.81
323.83	96.43
324.043	24.75
324.256	28.84
324.469	47.27
324.683	22.7
324.896	-32.6
325.109	10.41
325.322	-22.36
325.535	34.99
325.748	63.66
325.962	39.08
326.175	4.27
326.388	53.42
326.601	57.51
326.814	20.65
327.027	-16.21
327.24	102.57
327.453	51.37
327.666	0.17
327.879	49.32
328.092	55.47
328.305	43.18
328.518	24.75
328.731	6.31
328.944	14.51
329.157	47.27
329.37	34.99
329.583	28.84
329.796	94.38
330.009	47.27
330.222	43.18
330.435	102.57
330.648	67.75
330.861	37.03
331.073	-1.88
331.286	67.75
331.499	24.75
331.712	10.41
331.925	30.89
332.138	77.99
332.35	155.82
332.563	-8.02
332.776	39.08
332.989	-32.6
333.202	34.99
333.414	69.8
333.627	32.94
333.84	24.75
334.053	86.19
334.265	32.94
334.478	37.03
334.691	90.28
334.903	51.37
335.116	47.27
335.329	12.46
335.541	6.31
335.754	82.09
335.966	20.65
336.179	32.94
336.392	24.75
336.604	4.27
336.817	30.89
337.029	26.79
337.242	43.18
337.454	24.75
337.667	20.65
337.88	49.32
338.092	112.81
338.305	53.42
338.517	26.79
338.729	41.13
338.942	-51.03
339.154	-12.12
339.367	-5.97
339.579	47.27
339.792	30.89
340.004	37.03
340.217	43.18
340.429	26.79
340.641	20.65
340.854	86.19
341.066	12.46
341.278	22.7
341.491	75.95
341.703	55.47
341.915	8.36
342.128	55.47
342.34	47.27
342.552	-5.97
342.764	6.31
342.977	20.65
343.189	10.41
343.401	2.22
343.613	16.55
343.826	18.6
344.038	41.13
344.25	8.36
344.462	-16.21
344.674	39.08
344.886	-3.93
345.099	14.51
345.311	-1.88
345.523	-22.36
345.735	47.27
345.947	77.99
346.159	-28.5
346.371	61.61
346.583	30.89
346.795	55.47
347.007	82.09
347.219	39.08
347.431	59.56
347.643	98.47
347.855	12.46
348.067	59.56
348.279	26.79
348.491	-5.97
348.703	69.8
348.915	96.43
349.127	88.23
349.339	32.94
349.551	30.89
349.763	88.23
349.975	71.85
350.187	96.43
350.399	32.94
350.61	30.89
350.822	51.37
351.034	65.71
351.246	90.28
351.458	123.05
351.669	-14.17
351.881	41.13
352.093	84.14
352.305	75.95
352.517	45.23
352.728	18.6
352.94	26.79
353.152	30.89
353.363	37.03
353.575	45.23
353.787	10.41
353.999	26.79
354.21	34.99
354.422	-1.88
354.633	49.32
354.845	90.28
355.057	55.47
355.268	75.95
355.48	80.04
355.692	8.36
355.903	30.89
356.115	6.31
356.326	41.13
356.538	114.86
356.749	16.55
356.961	104.62
357.172	24.75
357.384	28.84
357.595	75.95
357.807	28.84
358.018	86.19
358.23	80.04
358.441	49.32
358.653	65.71
358.864	2.22
359.075	127.14
359.287	51.37
359.498	96.43
359.709	2.22
359.921	88.23
360.132	121
360.344	127.14
360.555	26.79
360.766	47.27
360.977	-28.5
361.189	55.47
361.4	-10.07
361.611	129.19
361.823	30.89
362.034	137.38
362.245	22.7
362.456	80.04
362.667	12.46
362.879	-3.93
363.09	63.66
363.301	45.23
363.512	59.56
363.723	51.37
363.935	45.23
364.146	-3.93
364.357	51.37
364.568	14.51
364.779	8.36
364.99	39.08
365.201	43.18
365.412	47.27
365.623	30.89
365.834	49.32
366.045	18.6
366.256	75.95
366.467	55.47
366.678	20.65
366.889	123.05
367.1	88.23
367.311	41.13
367.522	75.95
367.733	49.32
367.944	-24.4
368.155	49.32
368.366	26.79
368.577	86.19
368.788	55.47
368.999	41.13
369.209	2.22
369.42	37.03
369.631	110.76
369.842	90.28
370.053	71.85
370.264	63.66
370.474	82.09
370.685	-57.17
370.896	69.8
371.107	22.7
371.317	75.95
371.528	63.66
371.739	75.95
371.95	32.94
372.16	94.38
372.371	47.27
372.582	-24.4
372.792	90.28
373.003	98.47
373.214	2.22
373.424	55.47
373.635	-79.7
373.846	45.23
374.056	53.42
374.267	86.19
374.477	69.8
374.688	-12.12
374.898	106.67
375.109	-8.02
375.319	73.9
375.53	71.85
375.74	8.36
375.951	88.23
376.161	14.51
376.372	88.23
376.582	2.22
376.793	-3.93
377.003	51.37
377.214	63.66
377.424	41.13
377.635	75.95
377.845	-18.26
378.055	84.14
378.266	12.46
378.476	82.09
378.686	30.89
378.897	53.42
379.107	24.75
379.317	88.23
379.528	49.32
379.738	137.38
379.948	10.41
380.158	-10.07
380.369	37.03
380.579	30.89
380.789	16.55
380.999	69.8
381.21	-22.36
381.42	90.28
381.63	73.9
381.84	110.76
382.05	98.47
382.261	75.95
382.471	37.03
382.681	10.41
382.891	26.79
383.101	67.75
383.311	-28.5
383.521	45.23
383.731	39.08
383.941	34.99
384.151	24.75
384.361	86.19
384.571	55.47
384.781	6.31
384.991	57.51
385.201	65.71
385.411	92.33
385.621	90.28
385.831	47.27
386.041	55.47
386.251	4.27
386.461	123.05
386.671	6.31
386.881	61.61
387.091	69.8
387.301	94.38
387.511	59.56
387.72	82.09
387.93	53.42
388.14	61.61
388.35	94.38
388.56	98.47
388.769	112.81
388.979	77.99
389.189	30.89
389.399	-1.88
389.609	55.47
389.818	80.04
390.028	2.22
390.238	43.18
390.447	49.32
390.657	63.66
390.867	6.31
391.076	-1.88
391.286	53.42
391.496	110.76
391.705	55.47
391.915	55.47
392.125	137.38
392.334	92.33
392.544	106.67
392.753	26.79
392.963	53.42
393.172	32.94
393.382	28.84
393.591	77.99
393.801	49.32
394.01	135.34
394.22	73.9
394.429	121
394.639	65.71
394.848	125.1
395.058	45.23
395.267	153.77
395.477	59.56
395.686	116.9
395.895	108.71
396.105	182.44
396.314	77.99
396.524	102.57
396.733	8.36
396.942	139.43
397.152	108.71
397.361	123.05
397.57	57.51
397.78	157.86
397.989	43.18
398.198	188.58
398.407	69.8
398.617	92.33
398.826	139.43
399.035	67.75
399.244	98.47
399.453	102.57
399.663	100.52
399.872	114.86
400.081	57.51
400.29	98.47
400.499	116.9
400.708	77.99
400.917	90.28
401.127	112.81
401.336	141.48
401.545	106.67
401.754	53.42
401.963	86.19
402.172	90.28
402.381	73.9
402.59	139.43
402.799	161.96
403.008	131.24
403.217	131.24
403.426	151.72
403.635	45.23
403.844	151.72
404.053	186.54
404.262	164.01
404.471	90.28
404.68	131.24
404.888	190.63
405.097	145.58
405.306	63.66
405.515	245.93
405.724	155.82
405.933	168.1
406.142	194.73
406.35	180.39
406.559	186.54
406.768	200.87
406.977	178.34
407.185	172.2
407.394	295.08
407.603	207.02
407.812	145.58
408.02	293.03
408.229	229.54
408.438	211.11
408.646	196.78
408.855	280.74
409.064	247.97
409.272	241.83
409.481	266.41
409.69	254.12
409.898	245.93
410.107	313.51
410.315	268.45
410.524	274.6
410.733	250.02
410.941	342.18
411.15	331.94
411.358	323.75
411.567	372.9
411.775	311.46
411.984	366.76
412.192	444.58
412.401	475.3
412.609	481.44
412.818	499.88
413.026	458.92
413.234	422.05
413.443	497.83
413.651	391.33
413.86	520.35
414.068	551.07
414.276	499.88
414.485	594.08
414.693	651.42
414.901	676
415.11	594.08
415.318	661.66
415.526	639.14
415.734	749.73
415.943	690.34
416.151	776.35
416.359	719.01
416.567	700.58
416.776	811.17
416.984	917.66
417.192	819.36
417.4	858.27
417.608	905.37
417.817	923.8
418.025	985.24
418.233	1036.44
418.441	1046.68
418.649	1151.13
418.857	1231
419.065	1247.38
419.273	1169.56
419.481	1269.91
419.689	1304.73
419.897	1339.54
420.105	1388.69
420.313	1317.01
420.521	1546.39
420.729	1474.71
420.937	1552.53
421.145	1562.77
421.353	1683.6
421.561	1724.56
421.769	1812.62
421.977	1810.58
422.185	1781.9
422.393	1964.17
422.601	2078.86
422.809	2076.81
423.017	2152.59
423.224	2250.89
423.432	2259.08
423.64	2375.81
423.848	2549.89
424.056	2449.54
424.263	2609.28
424.471	2597
424.679	2709.63
424.887	2861.18
425.094	2887.81
425.302	2926.72
425.51	3121.28
425.718	3168.38
425.925	3151.99
426.133	3303.54
426.341	3596.4
426.548	3653.75
426.756	3618.93
426.964	3598.45
427.171	3848.3
427.379	3962.99
427.586	4065.39
427.794	4110.44
428.001	4360.3
428.209	4567.14
428.417	4505.7
428.624	4749.41
428.832	4739.17
429.039	4663.4
429.247	4644.96
429.454	5277.79
429.662	5648.47
429.869	5326.94
430.076	5515.35
430.284	5320.79
430.491	5580.89
430.699	5881.94
430.906	6051.92
431.114	6019.15
431.321	6201.42
431.528	6613.06
431.736	7039.04
431.943	7063.61
432.15	6832.19
432.358	6989.89
432.565	7477.3
432.772	7381.05
432.979	7743.54
433.187	8034.35
433.394	7950.39
433.601	8423.47
433.808	8519.72
434.016	8491.05
434.223	8841.25
434.43	9408.54
434.637	9021.47
434.844	9857.04
435.052	10012.69
435.259	9803.8
435.466	10041.36
435.673	9912.34
435.88	10491.91
436.087	11204.61
436.294	11024.39
436.501	11026.43
436.708	11159.55
436.915	11282.43
437.122	12001.27
437.329	11927.54
437.537	12029.94
437.743	12648.43
437.95	12355.57
438.157	13162.47
438.364	13666.27
438.571	13510.62
438.778	13350.88
438.985	14899.14
439.192	14141.39
439.399	14702.54
439.606	14372.82
439.813	15146.95
440.02	16031.67
440.227	15728.57
440.433	15511.49
440.64	15947.7
440.847	16007.09
441.054	16631.72
441.261	17602.46
441.467	17334.18
441.674	17541.02
441.881	18339.73
442.088	18130.84
442.294	18003.86
442.501	18659.21
442.708	19025.8
442.914	19687.29
443.121	20832.11
443.328	20146.04
443.534	21288.81
443.741	20920.17
443.948	20553.59
444.154	22257.5
444.361	22026.07
444.568	22114.14
444.774	22003.55
444.981	22421.33
445.187	23422.79
445.394	23713.6
445.6	23672.64
445.807	26083.1
446.013	24856.37
446.22	25175.85
446.426	26554.13
446.633	26615.57
446.839	27424.52
447.046	26355.48
447.252	27850.5
447.459	28053.25
447.665	27895.55
447.871	29126.38
448.078	29974.24
448.284	28767.99
448.491	29818.6
448.697	30635.74
448.903	31057.62
449.11	31276.75
449.316	31063.76
449.522	31420.11
449.728	32464.57
449.935	32505.53
450.141	32456.38
450.347	33420.97
450.553	31979.2
450.76	32687.8
450.966	33793.7
451.172	33265.33
451.378	34035.36
451.584	33375.92
451.791	34451.1
451.997	34035.36
452.203	34905.75
452.409	34342.56
452.615	34721.43
452.821	33150.64
453.027	32990.9
453.233	34616.99
453.44	33203.89
453.646	33750.7
453.852	34070.18
454.058	34578.08
454.264	33261.23
454.47	33984.16
454.676	33195.7
454.882	34264.74
455.088	31168.21
455.294	31762.12
455.5	31950.53
455.705	32372.41
455.911	31295.18
456.117	31123.15
456.323	30355.16
456.529	28661.49
456.735	30453.47
456.941	28978.93
457.147	28616.44
457.352	27772.67
457.558	27367.18
457.764	27547.4
457.97	26838.8
458.176	26271.51
458.381	26416.92
458.587	25173.8
458.793	25102.12
458.999	23801.66
459.204	25517.86
459.41	24872.75
459.616	23066.44
459.821	23271.24
460.027	23174.99
460.233	22624.08
460.438	21684.06
460.644	22034.27
460.85	20942.7
461.055	20520.82
461.261	20291.45
461.466	18739.08
461.672	18575.25
461.878	19552.13
462.083	18636.69
462.289	17725.34
462.494	17803.16
462.7	17108.9
462.905	16662.44
463.111	17026.98
463.316	17219.49
463.522	16869.29
463.727	16908.2
463.932	16836.52
464.138	16441.26
464.343	16873.39
464.549	16185.27
464.754	17020.84
464.959	16418.74
465.165	16342.96
465.37	15720.38
465.575	15413.18
465.781	15908.79
465.986	16015.29
466.191	15415.23
466.397	15206.34
466.602	14397.39
466.807	14987.21
467.012	15032.26
467.218	14677.96
467.423	14843.85
467.628	14778.31
467.833	15509.44
468.038	14989.25
468.244	14512.08
468.449	15050.69
468.654	14352.34
468.859	14675.91
469.064	14417.87
469.269	13705.18
469.474	13883.35
469.679	14137.3
469.885	13823.96
470.09	14008.28
470.295	13959.13
470.5	13631.45
470.705	13696.99
470.91	13277.15
471.115	13168.61
471.32	13271.01
471.525	13387.74
471.73	13084.64
471.935	12873.7
472.139	12392.43
472.344	12623.85
472.549	12441.58
472.754	12564.46
472.959	12107.76
473.164	11948.02
473.369	11802.61
473.574	12017.65
473.778	12025.84
473.983	11839.48
474.188	11829.24
474.393	11180.03
474.598	11528.19
474.802	11212.8
475.007	11364.35
475.212	11458.56
475.417	10805.25
475.621	10743.81
475.826	10799.11
476.031	10676.23
476.235	10328.08
476.44	10704.9
476.645	10166.29
476.849	10450.96
477.054	10086.42
477.259	10149.9
477.463	9902.1
477.668	9859.09
477.872	9855
478.077	9846.8
478.282	9445.4
478.486	9429.02
478.691	9515.03
478.895	9445.4
479.1	9564.18
479.304	9353.24
479.509	8908.83
479.713	9388.06
479.918	8980.51
480.122	8833.06
480.326	9019.43
480.531	8804.39
480.735	8781.86
480.94	8910.88
481.144	8945.7
481.348	8745
481.553	8728.61
481.757	8742.95
481.961	8759.33
482.166	8818.72
482.37	8874.02
482.574	8538.15
482.778	8742.95
482.983	8902.69
483.187	8689.7
483.391	8615.98
483.595	8796.2
483.8	8589.35
484.004	8632.36
484.208	8839.2
484.412	8540.2
484.616	8683.56
484.821	8863.78
485.025	8306.73
485.229	8654.89
485.433	8628.26
485.637	8726.57
485.841	8587.3
486.045	8601.64
486.249	8544.3
486.453	8554.54
486.657	8552.49
486.861	8439.85
487.065	8282.16
487.269	8525.86
487.473	8562.73
487.677	8720.42
487.881	8679.46
488.085	8525.86
488.289	8454.19
488.493	8685.61
488.697	8611.88
488.901	8667.17
489.105	8532.01
489.309	8642.6
489.512	8745
489.716	8724.52
489.92	8828.96
490.124	8734.76
490.328	8689.7
490.531	8677.41
490.735	8734.76
490.939	9031.71
491.143	8808.48
491.346	8876.07
491.55	8955.94
491.754	8974.37
491.958	8945.7
492.161	8865.83
492.365	8992.8
492.569	9074.72
492.772	9168.93
492.976	9205.79
493.18	9392.16
493.383	9472.03
493.587	9355.29
493.79	9455.64
493.994	9549.85
494.197	9582.62
494.401	9594.9
494.605	9545.75
494.808	9805.85
495.012	9539.61
495.215	9801.75
495.419	9695.25
495.622	9744.41
495.825	9988.11
496.029	9863.19
496.232	10141.71
496.436	10131.47
496.639	10430.48
496.843	10201.1
497.046	10559.5
497.249	10647.56
497.453	10842.12
497.656	10778.63
497.859	10719.24
498.063	11018.24
498.266	11319.29
498.469	11151.36
498.673	11270.14
498.876	11429.88
499.079	11509.76
499.282	11540.47
499.485	11786.23
499.689	11722.74
499.892	11870.2
500.095	11749.37
500.298	12259.31
500.501	12171.25
500.705	12568.55
500.908	12771.3
501.111	12718.06
501.314	12771.3
501.517	13111.27
501.72	13252.58
501.923	13266.91
502.126	13393.89
502.329	13805.53
502.532	13635.55
502.735	13993.94
502.938	13828.06
503.141	14311.38
503.344	14413.77
503.547	14440.4
503.75	14536.65
503.953	14567.37
504.156	14772.17
504.359	15044.55
504.562	14983.11
504.765	15370.18
504.968	15665.08
505.17	15691.71
505.373	15943.61
505.576	15855.54
505.779	16357.3
505.982	16297.91
506.185	16533.42
506.387	16369.58
506.59	16701.36
506.793	16633.77
506.996	17035.17
507.198	17721.24
507.401	17627.04
507.604	17577.89
507.807	17997.72
508.009	17975.19
508.212	17926.04
508.415	18354.07
508.617	18589.58
508.82	18509.71
509.022	18599.82
509.225	19238.79
509.428	19029.9
509.63	19306.37
509.833	19271.56
510.035	19826.56
510.238	19627.9
510.44	20246.39
510.643	20287.35
510.845	20230.01
511.048	20330.36
511.25	20750.19
511.453	20862.83
511.655	21643.1
511.858	21081.96
512.06	21196.65
512.262	21737.31
512.465	21628.77
512.667	21823.33
512.87	22034.27
513.072	22224.73
513.274	22779.73
513.477	22798.16
513.679	23258.95
513.881	23521.09
514.084	23342.92
514.286	23752.51
514.488	23744.32
514.69	24186.68
514.893	24264.5
515.095	24301.37
515.297	24446.77
515.499	24700.72
515.701	24891.18
515.904	25177.9
516.106	25210.67
516.308	25483.05
516.51	25745.19
516.712	25997.09
516.914	26072.86
517.116	26345.24
517.318	26486.55
517.52	26529.56
517.722	26720.02
517.925	26933.01
518.127	27172.62
518.329	27821.83
518.531	27158.28
518.733	28024.58
518.935	27885.31
519.136	28032.77
519.338	28729.08
519.54	28790.52
519.742	29173.49
519.944	28825.33
520.146	29265.64
520.348	29189.87
520.55	29398.76
520.752	29761.25
520.954	30033.63
521.155	29773.54
521.357	30435.03
521.559	30308.06
521.761	30678.74
521.963	30908.12
522.164	30752.47
522.366	31303.37
522.568	31780.55
522.77	31602.38
522.971	32024.26
523.173	31680.2
523.375	31878.85
523.576	32140.99
523.778	31745.73
523.98	32429.76
524.181	32597.69
524.383	32736.95
524.584	32894.64
524.786	32925.36
524.988	32986.8
525.189	33103.54
525.391	33349.29
525.592	33318.57
525.794	33404.59
525.995	33814.18
526.197	33623.72
526.398	33695.4
526.6	33711.78
526.801	34277.02
527.003	34115.23
527.204	34246.3
527.406	34375.33
527.607	34526.88
527.808	34952.85
528.01	34059.94
528.211	34426.53
528.412	35276.43
528.614	34799.26
528.815	34940.57
529.016	35063.44
529.218	35036.82
529.419	35276.43
529.62	34969.24
529.822	35235.47
530.023	35065.49
530.224	35096.21
530.425	34932.37
530.626	34952.85
530.828	34731.67
531.029	35536.52
531.23	35378.83
531.431	35053.2
531.632	35280.53
531.833	35573.39
532.035	35567.24
532.236	35126.93
532.437	35837.58
532.638	35200.66
532.839	35315.34
533.04	35710.6
533.241	35581.58
533.442	36034.18
533.643	35571.34
533.844	35540.62
534.045	35874.44
534.246	35190.42
534.447	35534.48
534.648	35665.55
534.849	35341.97
535.05	35483.28
535.251	35753.61
535.451	35284.62
535.652	35616.4
535.853	35905.16
536.054	35583.63
536.255	35749.51
536.456	35313.3
536.657	35690.12
536.857	35683.98
537.058	35466.89
537.259	35606.16
537.46	35595.92
537.66	35567.24
537.861	35573.39
538.062	35387.02
538.263	35511.95
538.463	35532.43
538.664	35374.73
538.865	35270.29
539.065	35767.94
539.266	35460.75
539.466	35659.4
539.667	35063.44
539.868	35976.84
540.068	35288.72
540.269	35376.78
540.469	35991.17
540.67	35223.19
540.87	35554.96
541.071	35470.99
541.271	35559.05
541.472	35102.36
541.672	35245.71
541.873	35171.99
542.073	34959
542.274	35559.05
542.474	34817.69
542.675	34911.89
542.875	35663.5
543.075	35436.17
543.276	34846.36
543.476	35258
543.676	34965.14
543.877	35059.35
544.077	35063.44
544.277	34883.22
544.478	35227.28
544.678	35030.68
544.878	35327.63
545.078	34954.9
545.279	34713.24
545.479	35157.65
545.679	34721.43
545.879	34895.51
546.079	34868.89
546.28	34866.84
546.48	34756.25
546.68	35026.58
546.88	35143.31
547.08	34823.83
547.28	35546.76
547.48	34858.65
547.68	35255.95
547.88	34604.7
548.081	35401.36
548.281	35182.23
548.481	34969.24
548.681	35317.39
548.881	34879.13
549.081	34768.54
549.28	34813.59
549.48	34805.4
549.68	34690.71
549.88	35219.09
550.08	34430.62
550.28	34786.97
550.48	34707.1
550.68	34842.26
550.88	34516.64
551.08	34727.58
551.279	34887.32
551.479	34297.5
551.679	34625.18
551.879	34485.92
552.079	34983.57
552.278	34092.71
552.478	34586.27
552.678	34819.74
552.878	34672.28
553.077	34555.55
553.277	34475.68
553.477	34604.7
553.676	34236.06
553.876	34528.92
554.076	34688.67
554.275	34111.14
554.475	34037.41
554.674	34580.12
554.874	34662.04
555.074	34008.74
555.273	34573.98
555.473	34612.89
555.672	34174.63
555.872	34264.74
556.071	34471.58
556.271	34225.82
556.47	33920.68
556.67	33932.96
556.869	34485.92
557.068	34227.87
557.268	33791.66
557.467	34268.83
557.667	34117.28
557.866	33978.02
558.065	34080.42
558.265	33523.37
558.464	34125.47
558.663	34485.92
558.863	33740.46
559.062	34152.1
559.261	33760.94
559.461	34303.65
559.66	33377.97
559.859	33715.88
560.058	34076.32
560.258	33826.47
560.457	33306.29
560.656	33928.87
560.855	33527.47
561.054	34006.69
561.253	33818.28
561.453	33691.3
561.652	33511.08
561.851	34033.32
562.05	33423.02
562.249	33332.91
562.448	33765.03
562.647	33801.89
562.846	33101.49
563.045	33351.34
563.244	33074.87
563.443	33709.74
563.642	33314.48
563.841	33056.43
564.04	33156.78
564.239	33185.46
564.438	32921.27
564.637	33001.14
564.836	33085.11
565.035	33009.33
565.234	33025.71
565.432	32782.01
565.631	32521.91
565.83	32829.11
566.029	32728.76
566.228	32659.13
566.427	32804.53
566.625	32577.21
566.824	32167.62
567.023	32536.25
567.222	32278.21
567.42	32730.81
567.619	32263.87
567.818	32517.82
568.016	32149.18
568.215	32599.74
568.414	32317.12
568.612	32739
568.811	32282.3
569.01	32282.3
569.208	31708.87
569.407	32155.33
569.605	31694.54
569.804	32030.4
570.002	31321.8
570.201	31649.48
570.4	31870.66
570.598	32079.55
570.797	31755.97
570.995	31710.92
571.193	31430.35
571.392	31798.98
571.59	31508.17
571.789	31585.99
571.987	31526.6
572.186	31016.66
572.384	31274.7
572.582	31239.89
572.781	31368.91
572.979	30758.61
573.177	30856.92
573.376	31325.9
573.574	30818
573.772	31266.51
573.971	30818
574.169	30639.83
574.367	30275.29
574.565	30662.36
574.763	30707.41
574.962	30564.06
575.16	30435.03
575.358	30385.88
575.556	30232.29
575.754	30781.14
575.952	30254.81
576.151	30488.28
576.349	30136.03
576.547	29900.51
576.745	30082.78
576.943	30043.87
577.141	29845.22
577.339	30045.92
577.537	29796.07
577.735	30189.28
577.933	29554.41
578.131	29943.52
578.329	29701.86
578.527	29476.58
578.725	29587.18
578.923	29490.92
579.121	29351.66
579.319	29363.95
579.516	29406.95
579.714	29351.66
579.912	29431.53
580.11	28897.01
580.308	29218.54
580.506	28892.91
580.704	28522.23
580.901	28737.27
581.099	29050.61
581.297	28460.79
581.495	28440.31
581.692	28870.39
581.89	28290.81
582.088	28645.11
582.285	28618.49
582.483	28573.43
582.681	28460.79
582.878	28575.48
583.076	28112.64
583.274	28217.08
583.471	28036.86
583.669	28288.76
583.866	27954.94
584.064	27991.81
584.262	27614.98
584.459	27776.77
584.657	27770.63
584.854	27916.03
585.052	27211.53
585.249	27498.25
585.447	27715.33
585.644	27111.18
585.841	27236.11
586.039	27645.7
586.236	27068.17
586.434	27025.17
586.631	27086.61
586.828	26814.23
587.026	27072.27
587.223	26949.39
587.42	26820.37
587.618	26748.69
587.815	26654.48
588.012	26461.97
588.21	26480.41
588.407	26754.83
588.604	26367.77
588.801	26232.6
588.999	26318.62
589.196	26128.16
589.393	26324.76
589.59	26095.39
589.787	25892.64
589.984	25868.06
590.182	25689.89
590.379	25939.74
590.576	25589.54
590.773	25724.71
590.97	25519.91
591.167	25444.13
591.364	25249.58
591.561	25552.68
591.758	25282.34
591.955	25243.43
592.152	25255.72
592.349	24768.3
592.546	25165.61
592.743	25372.46
592.94	24819.5
593.137	25071.4
593.334	24975.15
593.531	24809.26
593.727	24803.12
593.924	24756.02
594.121	24270.65
594.318	24801.07
594.515	24158.01
594.712	24581.94
594.908	24115
595.105	24454.97
595.302	24137.53
595.499	23877.44
595.696	24043.32
595.892	23775.04
596.089	23988.03
596.286	23940.93
596.482	24018.75
596.679	23646.02
596.876	23738.18
597.072	23467.84
597.269	23453.51
597.466	23367.49
597.662	23271.24
597.859	23408.45
598.055	23283.53
598.252	22884.17
598.448	23215.94
598.645	23066.44
598.841	23078.73
599.038	23181.13
599.234	22882.13
599.431	22749.01
599.627	22669.14
599.824	22572.88
600.02	22497.11
600.217	22660.94
600.413	22679.38
600.609	22382.42
600.806	22249.3
601.002	22361.94
601.198	21948.25
601.395	22050.65
601.591	22372.18
601.787	22132.57
601.984	21739.36
602.18	22097.75
602.376	22005.59
602.572	22017.88
602.769	21907.29
602.965	21430.12
603.161	21610.34
603.357	21423.97
603.553	21772.13
603.75	21266.28
603.946	21096.3
604.142	21335.91
604.338	20825.96
604.534	21213.03
604.73	21202.79
604.926	20887.4
605.122	20942.7
605.318	20944.75
605.514	20940.65
605.71	20821.87
605.906	20807.53
606.102	20617.07
606.298	20748.14
606.494	20623.22
606.69	20494.19
606.886	20600.69
607.082	20180.85
607.278	20496.24
607.474	20154.23
607.67	20445.04
607.866	20010.87
608.062	20260.73
608.257	20176.76
608.453	19935.1
608.649	20420.47
608.845	20045.69
609.041	20078.46
609.236	20037.5
609.432	19910.52
609.628	19822.46
609.824	19949.43
610.019	19691.39
610.215	19644.29
610.411	19931
610.606	19355.52
610.802	19644.29
610.998	19341.19
611.193	19470.21
611.389	19548.03
611.584	19470.21
611.78	19365.76
611.976	19423.11
612.171	19416.96
612.367	19318.66
612.562	19300.23
612.758	19165.06
612.953	18956.17
613.149	19267.46
613.344	19066.76
613.539	19179.4
613.735	18993.03
613.93	19126.15
614.126	18896.78
614.321	18882.44
614.517	19015.56
614.712	18825.1
614.907	18681.74
615.103	19062.66
615.298	18651.02
615.493	19087.24
615.688	18534.29
615.884	18843.53
616.079	18638.73
616.274	18769.8
616.47	18562.96
616.665	18417.55
616.86	18323.35
617.055	18628.49
617.25	18421.65
617.445	18599.82
617.641	18292.63
617.836	18556.82
618.031	18073.49
618.226	18225.04
618.421	17872.79
618.616	18335.63
618.811	17899.42
619.006	18108.31
619.201	17809.31
619.396	17946.52
619.591	17668
619.786	18112.41
619.981	17516.45
620.176	17747.87
620.371	17385.38
620.566	17569.69
620.761	17467.3
620.956	17526.69
621.151	17289.12
621.346	17061.8
621.541	16897.96
621.735	16951.21
621.93	16857
622.125	16734.12
622.32	16582.57
622.515	16834.47
622.709	16560.05
622.904	16529.33
623.099	16648.11
623.294	16390.06
623.488	16099.25
623.683	16410.54
623.878	15906.74
624.072	16250.8
624.267	15873.98
624.462	15916.98
624.656	15771.58
624.851	15951.8
625.046	15599.55
625.24	15443.9
625.435	15216.58
625.629	15355.84
625.824	15255.49
626.018	15335.36
626.213	14944.2
626.407	15089.6
626.602	14944.2
626.796	14970.82
626.991	15083.46
627.185	14825.42
627.38	14905.29
627.574	14536.65
627.768	14348.24
627.963	14397.39
628.157	14235.6
628.352	14223.31
628.546	14065.62
628.74	14518.22
628.935	14155.73
629.129	13811.67
629.323	13850.58
629.517	13828.06
629.712	13588.44
629.906	13776.86
630.1	13457.37
630.294	13567.96
630.489	13443.04
630.683	13705.18
630.877	13262.82
631.071	13021.16
631.265	13322.21
631.459	13109.22
631.653	12922.85
631.848	13223.9
632.042	12849.13
632.236	12986.34
632.43	12668.91
632.624	12746.73
632.818	12660.71
633.012	12677.1
633.206	12537.84
633.4	12586.99
633.594	12509.16
633.788	12390.38
633.982	12232.69
634.176	12267.5
634.369	11948.02
634.563	12136.43
634.757	11941.88
634.951	11909.11
635.145	11937.78
635.339	11900.92
635.533	11696.12
635.726	11853.81
635.92	11466.75
636.114	11556.86
636.308	11376.64
636.501	11542.52
636.695	11329.53
636.889	11286.53
637.083	11257.85
637.276	11225.09
637.47	11225.09
637.664	11196.42
637.857	11010.05
638.051	11173.89
638.244	10844.17
638.438	10960.9
638.632	10823.69
638.825	10774.53
639.019	10817.54
639.212	10520.59
639.406	10579.98
639.599	10555.4
639.793	10369.04
639.986	10586.12
640.18	10371.08
640.373	10362.89
640.567	10194.96
640.76	10174.48
640.954	10088.46
641.147	10065.94
641.34	9910.29
641.534	10035.22
641.727	9783.32
641.92	10004.5
642.114	9805.85
642.307	9756.69
642.5	9713.69
642.694	9572.38
642.887	9500.7
643.08	9537.56
643.273	9590.81
643.467	9392.16
643.66	9570.33
643.853	9316.38
644.046	9322.52
644.239	9134.11
644.432	9240.61
644.626	9048.1
644.819	9148.45
645.012	9005.09
645.205	8994.85
645.398	9185.31
645.591	8906.79
645.784	8912.93
645.977	8849.44
646.17	8722.47
646.363	8851.49
646.556	8622.12
646.749	8622.12
646.942	8611.88
647.135	8370.22
647.328	8425.51
647.521	8478.76
647.714	8421.42
647.907	8562.73
648.099	8261.68
648.292	8308.78
648.485	8269.87
648.678	8181.81
648.871	7936.05
649.064	8130.61
649.256	8083.5
649.449	8210.48
649.642	7790.64
649.835	7911.47
650.027	7878.71
650.22	7843.89
650.413	8032.3
650.605	7745.59
650.798	7843.89
650.991	7723.06
651.183	7811.12
651.376	7641.14
651.568	7624.76
651.761	7528.5
651.954	7532.6
652.146	7567.42
652.339	7288.89
652.531	7387.19
652.724	7370.81
652.916	7297.08
653.109	7192.64
653.301	7077.95
653.494	7254.08
653.686	7053.38
653.879	7100.48
654.071	7080
654.263	7135.29
654.456	6807.62
654.648	6998.08
654.84	6781
655.033	6838.34
655.225	7061.57
655.417	6838.34
655.61	6682.69
655.802	6781
655.994	6658.12
656.186	6619.21
656.379	6701.12
656.571	6694.98
656.763	6590.53
656.955	6563.91
657.148	6731.84
657.34	6623.3
657.532	6377.55
657.724	6426.7
657.916	6389.83
658.108	6428.74
658.3	6324.3
658.492	6355.02
658.684	6252.62
658.876	6170.7
659.068	6109.26
659.26	6037.58
659.452	6264.91
659.644	6086.73
659.836	6084.69
660.028	6099.02
660.22	5955.66
660.412	5869.65
660.604	5900.37
660.796	5967.95
660.988	6033.49
661.18	5914.7
661.372	5714
661.563	5859.41
661.755	5738.58
661.947	5804.11
662.139	5754.96
662.331	5529.69
662.522	5668.95
662.714	5591.13
662.906	5535.83
663.097	5572.69
663.289	5546.07
663.481	5595.22
663.673	5460.06
663.864	5505.11
664.056	5423.19
664.247	5290.07
664.439	5269.59
664.631	5417.05
664.822	5234.78
665.014	5341.27
665.205	5339.23
665.397	5259.35
665.588	5341.27
665.78	5150.81
665.971	5146.72
666.163	5089.37
666.354	5202.01
666.546	5034.08
666.737	4948.06
666.929	5054.56
667.12	4743.27
667.311	4796.51
667.503	4898.91
667.694	4943.97
667.885	4939.87
668.077	4866.14
668.268	4755.55
668.459	4694.12
668.651	4778.08
668.842	4696.16
669.033	4743.27
669.224	4808.8
669.416	4735.07
669.607	4624.48
669.798	4515.94
669.989	4753.51
670.18	4632.68
670.371	4642.92
670.563	4579.43
670.754	4558.95
670.945	4448.36
671.136	4579.43
671.327	4550.76
671.518	4454.5
671.709	4610.15
671.9	4493.41
672.091	4354.15
672.282	4423.78
672.473	4370.54
672.664	4520.04
672.855	4388.97
673.046	4216.94
673.237	4561
673.428	4178.03
673.619	4280.43
673.809	4233.32
674	4128.88
674.191	4214.89
674.382	4241.51
674.573	4339.82
674.764	4104.3
674.954	4309.1
675.145	4046.96
675.336	4020.33
675.527	4059.24
675.717	4128.88
675.908	4030.57
676.099	4032.62
676.289	4141.16
676.48	4028.53
676.671	4022.38
676.861	4055.15
677.052	4081.77
677.243	4008.05
677.433	4028.53
677.624	4055.15
677.814	3911.79
678.005	3903.6
678.195	4001.9
678.386	4030.57
678.576	3838.06
678.767	3852.4
678.957	4063.34
679.148	3825.78
679.338	4012.14
679.529	3919.98
679.719	3743.86
679.909	3809.39
680.1	3903.6
680.29	3752.05
680.481	3799.15
680.671	3795.06
680.861	3739.76
681.052	3825.78
681.242	3833.97
681.432	3811.44
681.622	3647.6
681.813	3856.5
682.003	3698.8
682.193	3637.36
682.383	3799.15
682.573	3836.02
682.764	3682.42
682.954	3729.52
683.144	3635.32
683.334	3569.78
683.524	3522.68
683.714	3719.28
683.904	3676.27
684.094	3686.51
684.284	3623.03
684.474	3477.62
684.664	3475.57
684.854	3600.5
685.044	3442.81
685.234	3448.95
685.424	3502.2
685.614	3610.74
685.804	3598.45
685.994	3360.89
686.184	3537.01
686.374	3451
686.564	3401.85
686.753	3551.35
686.943	3440.76
687.133	3364.98
687.323	3352.7
687.513	3352.7
687.702	3471.48
687.892	3278.97
688.082	3383.42
688.272	3301.5
688.461	3301.5
688.651	3301.5
688.841	3090.56
689.03	3190.91
689.22	3055.74
689.41	3102.84
689.599	3074.17
689.789	3094.65
689.979	3186.81
690.168	3160.19
690.358	3195
690.547	3235.96
690.737	2998.4
690.926	3090.56
691.116	2914.43
691.305	3065.98
691.495	3033.21
691.684	2945.15
691.874	3045.5
692.063	3127.42
692.252	2941.05
692.442	3020.92
692.631	2818.18
692.82	2963.58
693.01	2822.27
693.199	2984.06
693.388	2922.62
693.578	2834.56
693.767	2947.2
693.956	2936.96
694.146	2846.85
694.335	2904.19
694.524	2975.87
694.713	2867.33
694.902	2809.98
695.092	2861.18
695.281	2814.08
695.47	2844.8
695.659	2766.98
695.848	2805.89
696.037	2799.74
696.226	2830.46
696.415	2773.12
696.604	2797.7
696.793	2873.47
696.982	2670.72
697.171	2775.17
697.36	2715.78
697.549	2756.74
697.738	2711.68
697.927	2609.28
698.116	2748.54
698.305	2676.87
698.494	2658.43
698.683	2850.94
698.872	2689.15
699.061	2766.98
699.25	2678.91
699.438	2783.36
699.627	2795.65
699.816	2760.83
700.005	2664.58
700.193	2666.63
700.382	2680.96
700.571	2670.72
700.76	2541.7
700.948	2654.34
701.137	2631.81
701.326	2627.71
701.514	2584.71
701.703	2738.3
701.892	2586.76
702.08	2660.48
702.269	2674.82
702.457	2760.83
702.646	2730.11
702.834	2623.62
703.023	2527.36
703.212	2609.28
703.4	2586.76
703.589	2586.76
703.777	2685.06
703.965	2691.2
704.154	2670.72
704.342	2603.14
704.531	2685.06
704.719	2564.23
704.907	2734.21
705.096	2599.04
705.284	2603.14
705.472	2558.08
705.661	2683.01
705.849	2654.34
706.037	2533.51
706.226	2578.56
706.414	2519.17
706.602	2539.65
706.79	2709.63
706.979	2539.65
707.167	2736.26
707.355	2642.05
707.543	2588.8
707.731	2664.58
707.919	2513.03
708.107	2633.86
708.296	2594.95
708.484	2529.41
708.672	2637.95
708.86	2611.33
709.048	2566.28
709.236	2619.52
709.424	2508.93
709.612	2625.67
709.8	2513.03
709.988	2521.22
710.176	2353.29
710.364	2566.28
710.551	2582.66
710.739	2541.7
710.927	2549.89
711.115	2562.18
711.303	2510.98
711.491	2455.69
711.679	2592.9
711.866	2582.66
712.054	2592.9
712.242	2578.56
712.43	2642.05
712.617	2470.02
712.805	2621.57
712.993	2570.37
713.181	2537.6
713.368	2527.36
713.556	2613.38
713.744	2480.26
713.931	2597
714.119	2498.69
714.306	2619.52
714.494	2435.21
714.682	2547.84
714.869	2447.49
715.057	2500.74
715.244	2402.44
715.432	2594.95
715.619	2455.69
715.807	2527.36
715.994	2459.78
716.182	2447.49
716.369	2441.35
716.556	2533.51
716.744	2508.93
716.931	2590.85
717.119	2445.45
717.306	2556.04
717.493	2537.6
717.681	2302.09
717.868	2467.97
718.055	2486.4
718.242	2531.46
718.43	2478.21
718.617	2590.85
718.804	2492.55
718.991	2500.74
719.179	2455.69
719.366	2445.45
719.553	2443.4
719.74	2484.36
719.927	2412.68
720.114	2355.33
720.301	2328.71
720.488	2500.74
720.676	2494.6
720.863	2396.29
721.05	2498.69
721.237	2472.07
721.424	2453.64
721.611	2467.97
721.798	2353.29
721.985	2451.59
722.172	2424.97
722.358	2416.77
722.545	2384.01
722.732	2441.35
722.919	2355.33
723.106	2443.4
723.293	2429.06
723.48	2429.06
723.667	2365.57
723.853	2394.25
724.04	2369.67
724.227	2459.78
724.414	2379.91
724.6	2363.53
724.787	2435.21
724.974	2484.36
725.161	2355.33
725.347	2326.66
725.534	2287.75
725.72	2351.24
725.907	2310.28
726.094	2304.14
726.28	2343.05
726.467	2384.01
726.653	2277.51
726.84	2343.05
727.027	2412.68
727.213	2392.2
727.4	2177.16
727.586	2324.62
727.773	2449.54
727.959	2205.83
728.145	2330.76
728.332	2240.65
728.518	2265.22
728.705	2222.22
728.891	2308.23
729.077	2316.42
729.264	2269.32
729.45	2244.74
729.636	2279.56
729.823	2242.7
730.009	2197.64
730.195	2259.08
730.382	2343.05
730.568	2265.22
730.754	2248.84
730.94	2146.44
731.126	2128.01
731.313	2293.9
731.499	2175.11
731.685	2177.16
731.871	2304.14
732.057	2250.89
732.243	2199.69
732.429	2293.9
732.615	2281.61
732.801	2275.46
732.987	2203.79
733.173	2359.43
733.359	2193.55
733.545	2211.98
733.731	2173.07
733.917	2220.17
734.103	2279.56
734.289	2105.48
734.475	2121.87
734.661	2201.74
734.847	2171.02
735.033	2195.59
735.219	2158.73
735.404	2066.57
735.59	2025.61
735.776	2177.16
735.962	2158.73
736.148	2134.15
736.333	2146.44
736.519	2130.06
736.705	2072.72
736.89	2132.11
737.076	2136.2
737.262	2103.43
737.447	1990.8
737.633	2017.42
737.819	2148.49
738.004	2095.24
738.19	2029.71
738.375	2044.04
738.561	2058.38
738.747	2085
738.932	2058.38
739.118	2052.24
739.303	2039.95
739.489	2058.38
739.674	2027.66
739.859	1970.32
740.045	2078.86
740.23	1996.94
740.416	1931.41
740.601	1960.08
740.786	2007.18
740.972	1970.32
741.157	1958.03
741.342	1958.03
741.528	1976.46
741.713	1962.12
741.898	1878.16
742.084	1841.29
742.269	1826.96
742.454	1906.83
742.639	1919.12
742.824	1962.12
743.01	1800.34
743.195	1769.62
743.38	1900.69
743.565	1937.55
743.75	1849.49
743.935	1810.58
744.12	1919.12
744.305	1802.38
744.49	1835.15
744.675	1808.53
744.86	1853.58
745.045	1894.54
745.23	1792.14
745.415	1796.24
745.6	1632.4
745.785	1753.23
745.97	1710.22
746.155	1726.61
746.34	1691.79
746.525	1659.03
746.71	1708.18
746.895	1646.74
747.079	1747.09
747.264	1687.7
747.449	1642.64
747.634	1616.02
747.819	1650.83
748.003	1650.83
748.188	1687.7
748.373	1595.54
748.557	1552.53
748.742	1648.79
748.927	1538.2
749.111	1634.45
749.296	1566.87
749.481	1530
749.665	1521.81
749.85	1476.76
750.034	1538.2
750.219	1495.19
750.404	1466.52
750.588	1497.24
750.773	1484.95
750.957	1474.71
751.141	1425.56
751.326	1427.6
751.51	1368.21
751.695	1437.84
751.879	1382.55
752.064	1550.48
752.248	1448.08
752.432	1339.54
752.617	1357.97
752.801	1458.32
752.985	1423.51
753.17	1331.35
753.354	1321.11
753.538	1403.03
753.722	1372.31
753.907	1265.82
754.091	1235.1
754.275	1310.87
754.459	1353.88
754.643	1138.84
754.828	1265.82
755.012	1253.53
755.196	1267.86
755.38	1194.14
755.564	1179.8
755.748	1183.9
755.932	1239.19
756.116	1220.76
756.3	1161.37
756.484	1220.76
756.668	1142.94
756.852	1081.5
757.036	1110.17
757.22	1214.62
757.404	1061.02
757.588	1097.88
757.772	1151.13
757.956	1128.6
758.14	1212.57
758.323	1147.03
758.507	1099.93
758.691	1106.07
758.875	1151.13
759.059	1040.54
759.242	1085.59
759.426	1110.17
759.61	1155.23
759.794	1167.51
759.977	1018.01
760.161	1136.79
760.345	1038.49
760.528	1042.59
760.712	995.48
760.895	1034.39
761.079	964.76
761.263	950.43
761.446	985.24
761.63	966.81
761.813	993.44
761.997	893.09
762.18	958.62
762.364	962.72
762.547	1044.63
762.731	903.32
762.914	983.2
763.098	972.96
763.281	962.72
763.464	946.33
763.648	1003.68
763.831	903.32
764.015	833.69
764.198	960.67
764.381	909.47
764.564	858.27
764.748	938.14
764.931	938.14
765.114	868.51
765.297	934.04
765.481	878.75
765.664	936.09
765.847	893.09
766.03	1003.68
766.213	876.7
766.397	874.65
766.58	929.95
766.763	870.56
766.946	811.17
767.129	874.65
767.312	886.94
767.495	872.61
767.678	800.93
767.861	886.94
768.044	802.97
768.227	778.4
768.41	788.64
768.593	854.17
768.776	794.78
768.959	764.06
769.142	870.56
769.324	809.12
769.507	809.12
769.69	766.11
769.873	784.54
770.056	802.97
770.239	788.64
770.421	776.35
770.604	837.79
770.787	706.72
770.97	835.74
771.152	729.25
771.335	737.44
771.518	706.72
771.7	798.88
771.883	768.16
772.066	698.53
772.248	786.59
772.431	796.83
772.613	766.11
772.796	802.97
772.978	772.25
773.161	684.19
773.343	729.25
773.526	753.82
773.708	743.58
773.891	649.38
774.073	745.63
774.256	637.09
774.438	710.82
774.621	645.28
774.803	766.11
774.985	698.53
775.168	690.34
775.35	600.23
775.532	635.04
775.715	712.86
775.897	684.19
776.079	702.62
776.261	692.38
776.444	684.19
776.626	657.57
776.808	647.33
776.99	637.09
777.173	649.38
777.355	680.1
777.537	671.9
777.719	542.88
777.901	530.59
778.083	567.46
778.265	563.36
778.447	610.47
778.629	592.03
778.811	549.03
778.993	542.88
779.175	573.6
779.357	565.41
779.539	503.97
779.721	616.61
779.903	465.06
780.085	571.55
780.267	549.03
780.449	489.64
780.631	477.35
780.812	592.03
780.994	426.15
781.176	477.35
781.358	475.3
781.54	544.93
781.721	506.02
781.903	538.79
782.085	469.16
782.267	514.21
782.448	491.68
782.63	534.69
782.812	481.44
782.993	460.96
783.175	555.17
783.357	473.25
783.538	432.29
783.72	436.39
783.901	401.57
784.083	409.76
784.264	475.3
784.446	411.81
784.627	393.38
784.809	401.57
784.99	399.52
785.172	415.91
785.353	422.05
785.535	397.48
785.716	483.49
785.897	391.33
786.079	403.62
786.26	356.52
786.441	456.87
786.623	460.96
786.804	372.9
786.985	372.9
787.167	348.33
787.348	381.09
787.529	379.04
787.71	405.67
787.891	323.75
788.073	348.33
788.254	372.9
788.435	403.62
788.616	356.52
788.797	401.57
788.978	422.05
789.159	401.57
789.34	391.33
789.522	290.98
789.703	360.61
789.884	290.98
790.065	368.81
790.246	374.95
790.427	329.89
790.607	303.27
790.788	340.13
790.969	301.22
791.15	362.66
791.331	370.85
791.512	358.57
791.693	377
791.874	344.23
792.054	368.81
792.235	362.66
792.416	198.82
792.597	301.22
792.778	342.18
792.958	315.56
793.139	315.56
793.32	325.8
793.5	352.42
793.681	307.37
793.862	262.31
794.042	370.85
794.223	209.06
794.404	336.04
794.584	231.59
794.765	247.97
794.945	231.59
795.126	278.69
795.306	182.44
795.487	290.98
795.667	280.74
795.848	313.51
796.028	311.46
796.209	274.6
796.389	315.56
796.57	276.65
796.75	297.13
796.93	252.07
797.111	184.49
797.291	274.6
797.471	221.35
797.652	237.74
797.832	256.17
798.012	313.51
798.192	159.91
798.373	268.45
798.553	321.7
798.733	168.1
798.913	247.97
799.093	207.02
799.274	127.14
799.454	241.83
799.634	200.87
799.814	233.64
799.994	204.97
800.174	233.64
800.354	241.83
800.534	245.93
800.714	264.36
800.894	143.53
801.074	172.2
801.254	219.3
801.434	282.79
801.614	200.87
801.794	176.3
801.974	594.08
802.154	176.3
802.334	221.35
802.514	241.83
802.693	231.59
802.873	207.02
803.053	186.54
803.233	174.25
803.413	229.54
803.592	250.02
803.772	118.95
803.952	127.14
804.131	223.4
804.311	221.35
804.491	254.12
804.67	204.97
804.85	182.44
805.03	129.19
805.209	182.44
805.389	170.15
805.568	227.5
805.748	202.92
805.928	172.2
806.107	239.78
806.287	137.38
806.466	184.49
806.646	229.54
806.825	143.53
807.004	174.25
807.184	237.74
807.363	247.97
807.543	241.83
807.722	182.44
807.901	196.78
808.081	174.25
808.26	190.63
808.439	159.91
808.619	221.35
808.798	155.82
808.977	184.49
809.156	188.58
809.336	194.73
809.515	217.26
809.694	198.82
809.873	176.3
810.052	186.54
810.231	139.43
810.411	143.53
810.59	194.73
810.769	141.48
810.948	102.57
811.127	192.68
811.306	131.24
811.485	164.01
811.664	135.34
811.843	247.97
812.022	69.8
812.201	198.82
812.38	180.39
812.559	172.2
812.737	202.92
812.916	112.81
813.095	151.72
813.274	157.86
813.453	153.77
813.632	143.53
813.811	215.21
813.989	20.65
814.168	127.14
814.347	149.67
814.526	143.53
814.704	137.38
814.883	88.23
815.062	116.9
815.24	198.82
815.419	61.61
815.598	182.44
815.776	149.67
815.955	104.62
816.133	121
816.312	135.34
816.49	98.47
816.669	161.96
816.847	168.1
817.026	118.95
817.204	106.67
817.383	123.05
817.561	51.37
817.74	149.67
817.918	133.29
818.097	196.78
818.275	67.75
818.453	180.39
818.632	168.1
818.81	88.23
818.988	53.42
819.167	106.67
819.345	161.96
819.523	147.62
819.701	141.48
819.879	37.03
820.058	153.77
820.236	92.33
820.414	102.57
820.592	204.97
820.77	102.57
820.948	75.95
821.127	84.14
821.305	137.38
821.483	47.27
821.661	98.47
821.839	141.48
822.017	137.38
822.195	51.37
822.373	88.23
822.551	43.18
822.729	114.86
822.907	57.51
823.085	168.1
823.262	90.28
823.44	71.85
823.618	153.77
823.796	41.13
823.974	71.85
824.152	47.27
824.329	77.99
824.507	151.72
824.685	57.51
824.863	110.76
825.04	41.13
825.218	116.9
825.396	84.14
825.574	137.38
825.751	116.9
825.929	118.95
826.107	41.13
826.284	73.9
826.462	90.28
826.639	106.67
826.817	63.66
826.994	53.42
827.172	41.13
827.349	159.91
827.527	63.66
827.704	69.8
827.882	90.28
828.059	59.56
828.237	55.47
828.414	102.57
828.591	41.13
828.769	92.33
828.946	47.27
829.124	77.99
829.301	108.71
829.478	53.42
829.655	125.1
829.833	88.23
830.01	82.09
830.187	47.27
830.364	73.9
830.542	34.99
830.719	82.09
830.896	84.14
831.073	121
831.25	57.51
831.427	94.38
831.604	73.9
831.782	75.95
831.959	59.56
832.136	94.38
832.313	47.27
832.49	-8.02
832.667	88.23
832.844	82.09
833.021	94.38
833.198	2.22
833.374	106.67
833.551	108.71
833.728	55.47
833.905	20.65
834.082	129.19
834.259	104.62
834.436	41.13
834.612	88.23
834.789	73.9
834.966	55.47
835.143	63.66
835.319	39.08
835.496	110.76
835.673	-8.02
835.85	94.38
836.026	129.19
836.203	102.57
836.38	59.56
836.556	98.47
836.733	47.27
836.909	63.66
837.086	98.47
837.262	69.8
837.439	112.81
837.616	84.14
837.792	67.75
837.968	14.51
838.145	96.43
838.321	159.91
838.498	10.41
838.674	51.37
838.851	26.79
839.027	6.31
839.203	28.84
839.38	86.19
839.556	94.38
839.732	86.19
839.909	53.42
840.085	90.28
840.261	24.75
840.437	32.94
840.614	84.14
840.79	88.23
840.966	37.03
841.142	6.31
841.318	77.99
841.494	24.75
841.671	69.8
841.847	20.65
842.023	20.65
842.199	73.9
842.375	61.61
842.551	30.89
842.727	37.03
842.903	71.85
843.079	12.46
843.255	116.9
843.431	49.32
843.607	82.09
843.783	73.9
843.959	71.85
844.134	49.32
844.31	63.66
844.486	16.55
844.662	86.19
844.838	73.9
845.013	108.71
845.189	67.75
845.365	73.9
845.541	63.66
845.716	118.95
845.892	49.32
846.068	59.56
846.244	6.31
846.419	108.71
846.595	67.75
846.77	18.6
846.946	61.61
847.122	41.13
847.297	-12.12
847.473	67.75
847.648	28.84
847.824	47.27
847.999	32.94
848.175	28.84
848.35	71.85
848.526	51.37
848.701	10.41
848.876	102.57
849.052	37.03
849.227	26.79
849.403	20.65
849.578	75.95
849.753	153.77
849.929	47.27
850.104	28.84
850.279	39.08
850.454	8.36
850.63	94.38
850.805	2.22
850.98	45.23
851.155	0.17
851.33	75.95
851.505	73.9
851.681	98.47
851.856	10.41
852.031	63.66
852.206	-8.02
852.381	59.56
852.556	6.31
852.731	69.8
852.906	114.86
853.081	12.46
853.256	131.24
853.431	57.51
853.606	0.17
853.781	-28.5
853.956	55.47
854.131	30.89
854.305	4.27
854.48	16.55
854.655	10.41
854.83	47.27
855.005	69.8
855.18	-1.88
855.354	26.79
855.529	30.89
855.704	63.66
855.879	47.27
856.053	45.23
856.228	24.75
856.403	0.17
856.577	18.6
856.752	-14.17
856.926	47.27
857.101	57.51
857.276	32.94
857.45	98.47
857.625	34.99
857.799	-10.07
857.974	24.75
858.148	-36.69
858.323	45.23
858.497	61.61
858.672	57.51
858.846	63.66
859.02	39.08
859.195	2.22
859.369	88.23
859.543	39.08
859.718	20.65
859.892	4.27
860.066	112.81
860.241	-18.26
860.415	-8.02
860.589	41.13
860.763	-5.97
860.938	2.22
861.112	-1.88
861.286	-28.5
861.46	57.51
861.634	10.41
861.808	65.71
861.982	-26.45
862.157	-48.98
862.331	-8.02
862.505	-18.26
862.679	4.27
862.853	-22.36
863.027	-36.69
863.201	131.24
863.375	-18.26
863.549	37.03
863.722	37.03
863.896	47.27
864.07	59.56
864.244	-1.88
864.418	4.27
864.592	20.65
864.766	-34.64
864.939	-16.21
865.113	-14.17
865.287	108.71
865.461	-8.02
865.634	6.31
865.808	57.51
865.982	16.55
866.156	-57.17
866.329	51.37
866.503	-14.17
866.676	0.17
866.85	24.75
867.024	-14.17
867.197	24.75
867.371	90.28
867.544	47.27
867.718	-16.21
867.891	55.47
868.065	37.03
868.238	-59.22
868.412	80.04
868.585	10.41
868.759	-14.17
868.932	0.17
869.105	4.27
869.279	-28.5
869.452	-16.21
869.625	22.7
869.799	55.47
869.972	-10.07
870.145	-51.03
870.319	67.75
870.492	26.79
870.665	-3.93
870.838	-1.88
871.011	4.27
871.185	-40.79
871.358	30.89
871.531	61.61
871.704	65.71
871.877	37.03
872.05	10.41
872.223	-32.6
872.396	24.75
872.569	26.79
872.742	-16.21
872.915	-34.64
873.088	53.42
873.261	-55.12
873.434	34.99
873.607	16.55
873.78	-28.5
873.953	-36.69
874.126	16.55
874.299	104.62
874.471	-77.65
874.644	34.99
874.817	30.89
874.99	39.08
875.163	12.46
875.335	39.08
875.508	26.79
875.681	0.17
875.853	49.32
876.026	47.27
876.199	28.84
876.371	0.17
876.544	71.85
876.717	-28.5
876.889	20.65
877.062	12.46
877.234	-10.07
877.407	14.51
877.579	24.75
877.752	10.41
877.924	59.56
878.097	-18.26
878.269	6.31
878.442	-48.98
878.614	49.32
878.786	-55.12
878.959	-10.07
879.131	22.7
879.303	12.46
879.476	69.8
879.648	4.27
879.82	53.42
879.993	55.47
880.165	0.17
880.337	41.13
880.509	-22.36
880.681	2.22
880.854	96.43
881.026	-71.51
881.198	67.75
881.37	16.55
881.542	2.22
881.714	-10.07
881.886	-5.97
882.058	-5.97
882.23	2.22
882.402	45.23
882.574	-3.93
882.746	57.51
882.918	39.08
883.09	2.22
883.262	-12.12
883.434	12.46
883.606	26.79
883.778	67.75
883.95	-3.93
884.122	-26.45
884.293	24.75
884.465	32.94
884.637	12.46
884.809	-73.56
884.98	49.32
885.152	-8.02
885.324	69.8
885.496	-8.02
885.667	2.22
885.839	10.41
886.011	59.56
886.182	-8.02
886.354	41.13
886.525	18.6
886.697	14.51
886.869	10.41
887.04	61.61
887.212	28.84
887.383	4.27
887.555	-16.21
887.726	-59.22
887.897	39.08
888.069	59.56
888.24	49.32
888.412	80.04
888.583	20.65
888.754	26.79
888.926	-53.08
889.097	-44.88
889.268	-38.74
889.44	39.08
889.611	4.27
889.782	4.27
889.953	6.31
890.125	73.9
890.296	-73.56
890.467	12.46
890.638	-5.97
890.809	8.36
890.98	-10.07
891.151	-42.84
891.323	-18.26
891.494	30.89
891.665	26.79
891.836	-24.4
892.007	-87.89
892.178	-24.4
892.349	6.31
892.52	-12.12
892.691	-16.21
892.862	-44.88
893.032	65.71
893.203	32.94
893.374	16.55
893.545	75.95
893.716	-8.02
893.887	-1.88
894.057	-14.17
894.228	-5.97
894.399	-30.55
894.57	24.75
894.74	-10.07
894.911	96.43
895.082	37.03
895.253	-51.03
895.423	10.41
895.594	-18.26
895.764	24.75
895.935	8.36
896.106	12.46
896.276	51.37
896.447	32.94
896.617	22.7
896.788	-20.31
896.958	20.65
897.129	-63.32
897.299	-30.55
897.47	43.18
897.64	75.95
897.81	61.61
897.981	51.37
898.151	-65.36
898.322	26.79
898.492	-18.26
898.662	30.89
898.832	-40.79
899.003	-22.36
899.173	-46.93
899.343	45.23
899.513	-28.5
