Data from USB4F104151__68__12-01-56-888.txt Node

Date: Fri Mar 14 12:01:56 EDT 2025
User: louis
Spectrometer: USB4F10415
Trigger mode: 4
Integration Time (sec): 2.000000E-2
Scans to average: 1
Electric dark correction enabled: true
Nonlinearity correction enabled: false
Boxcar width: 0
XAxis mode: Wavelengths
Number of Pixels in Spectrum: 3648
>>>>>Begin Spectral Data<<<<<
178.204	-39.76
178.424	-39.76
178.644	-39.76
178.864	-93.01
179.084	-80.72
179.304	11.43
179.524	-17.24
179.744	13.48
179.964	-50
180.184	-39.76
180.404	-21.33
180.624	68.78
180.844	52.39
181.064	-35.67
181.283	56.49
181.503	-21.33
181.723	-17.24
181.943	-7
182.163	109.74
182.383	17.58
182.602	95.4
182.822	46.25
183.042	72.87
183.262	29.87
183.482	62.63
183.701	29.87
183.921	36.01
184.141	27.82
184.361	76.97
184.58	9.39
184.8	-17.24
185.02	33.96
185.239	36.01
185.459	19.63
185.679	87.21
185.898	13.48
186.118	93.35
186.338	-0.85
186.557	62.63
186.777	76.97
186.997	101.55
187.216	68.78
187.436	138.41
187.655	21.67
187.875	128.17
188.095	40.11
188.314	-7
188.534	107.69
188.753	21.67
188.973	29.87
189.192	74.92
189.412	9.39
189.631	66.73
189.851	79.02
190.07	72.87
190.29	52.39
190.509	56.49
190.729	46.25
190.948	81.07
191.168	105.64
191.387	76.97
191.607	23.72
191.826	-11.09
192.045	-56.15
192.265	21.67
192.484	-9.05
192.704	17.58
192.923	31.91
193.142	138.41
193.362	99.5
193.581	21.67
193.8	89.26
194.02	68.78
194.239	74.92
194.458	68.78
194.678	56.49
194.897	11.43
195.116	93.35
195.335	58.54
195.555	68.78
195.774	-17.24
195.993	29.87
196.212	36.01
196.432	-0.85
196.651	33.96
196.87	-9.05
197.089	33.96
197.308	107.69
197.528	50.35
197.747	-19.29
197.966	64.68
198.185	126.12
198.404	58.54
198.623	-9.05
198.842	-15.19
199.062	101.55
199.281	128.17
199.5	50.35
199.719	25.77
199.938	5.29
200.157	70.83
200.376	36.01
200.595	5.29
200.814	58.54
201.033	17.58
201.252	68.78
201.471	11.43
201.69	38.06
201.909	-19.29
202.128	72.87
202.347	33.96
202.566	25.77
202.785	46.25
203.004	25.77
203.223	40.11
203.442	50.35
203.661	76.97
203.879	-13.14
204.098	66.73
204.317	1.19
204.536	83.11
204.755	21.67
204.974	109.74
205.193	40.11
205.411	83.11
205.63	91.31
205.849	50.35
206.068	42.15
206.287	83.11
206.505	15.53
206.724	7.34
206.943	62.63
207.162	-2.9
207.381	31.91
207.599	58.54
207.818	93.35
208.037	-4.95
208.255	-25.43
208.474	17.58
208.693	29.87
208.911	36.01
209.13	15.53
209.349	60.59
209.567	36.01
209.786	111.78
210.005	54.44
210.223	9.39
210.442	50.35
210.661	128.17
210.879	23.72
211.098	107.69
211.316	48.3
211.535	74.92
211.753	15.53
211.972	56.49
212.191	46.25
212.409	25.77
212.628	85.16
212.846	21.67
213.065	70.83
213.283	66.73
213.502	48.3
213.72	-11.09
213.938	56.49
214.157	-0.85
214.375	-25.43
214.594	29.87
214.812	50.35
215.031	44.2
215.249	1.19
215.467	54.44
215.686	-17.24
215.904	21.67
216.122	68.78
216.341	74.92
216.559	-17.24
216.778	74.92
216.996	83.11
217.214	52.39
217.432	54.44
217.651	-0.85
217.869	33.96
218.087	154.79
218.306	29.87
218.524	27.82
218.742	93.35
218.96	27.82
219.179	-15.19
219.397	103.59
219.615	72.87
219.833	11.43
220.051	33.96
220.27	66.73
220.488	33.96
220.706	50.35
220.924	40.11
221.142	9.39
221.36	15.53
221.578	-7
221.796	44.2
222.015	54.44
222.233	23.72
222.451	144.55
222.669	-21.33
222.887	48.3
223.105	42.15
223.323	64.68
223.541	31.91
223.759	97.45
223.977	27.82
224.195	58.54
224.413	54.44
224.631	3.24
224.849	-9.05
225.067	76.97
225.285	56.49
225.503	33.96
225.721	29.87
225.939	54.44
226.157	15.53
226.375	89.26
226.592	3.24
226.81	54.44
227.028	70.83
227.246	52.39
227.464	60.59
227.682	91.31
227.9	7.34
228.117	89.26
228.335	54.44
228.553	13.48
228.771	87.21
228.989	89.26
229.206	11.43
229.424	-17.24
229.642	44.2
229.86	91.31
230.077	113.83
230.295	33.96
230.513	-9.05
230.731	-11.09
230.948	81.07
231.166	126.12
231.384	5.29
231.601	-37.72
231.819	68.78
232.037	83.11
232.254	13.48
232.472	9.39
232.689	52.39
232.907	19.63
233.125	-19.29
233.342	68.78
233.56	1.19
233.777	17.58
233.995	23.72
234.213	85.16
234.43	76.97
234.648	44.2
234.865	33.96
235.083	54.44
235.3	7.34
235.518	68.78
235.735	103.59
235.953	70.83
236.17	36.01
236.388	21.67
236.605	50.35
236.822	136.36
237.04	19.63
237.257	70.83
237.475	60.59
237.692	52.39
237.909	74.92
238.127	7.34
238.344	44.2
238.562	33.96
238.779	46.25
238.996	38.06
239.214	48.3
239.431	74.92
239.648	64.68
239.865	52.39
240.083	97.45
240.3	40.11
240.517	-15.19
240.735	79.02
240.952	87.21
241.169	62.63
241.386	42.15
241.603	66.73
241.821	-23.38
242.038	60.59
242.255	134.31
242.472	33.96
242.689	56.49
242.907	54.44
243.124	13.48
243.341	15.53
243.558	9.39
243.775	40.11
243.992	33.96
244.209	44.2
244.426	56.49
244.643	11.43
244.86	44.2
245.078	85.16
245.295	25.77
245.512	17.58
245.729	46.25
245.946	36.01
246.163	124.07
246.38	38.06
246.597	-58.2
246.814	15.53
247.031	33.96
247.248	154.79
247.464	113.83
247.681	33.96
247.898	46.25
248.115	103.59
248.332	64.68
248.549	19.63
248.766	5.29
248.983	11.43
249.2	5.29
249.417	50.35
249.633	21.67
249.85	15.53
250.067	87.21
250.284	31.91
250.501	1.19
250.717	15.53
250.934	19.63
251.151	-7
251.368	74.92
251.585	138.41
251.801	-56.15
252.018	-2.9
252.235	136.36
252.451	38.06
252.668	62.63
252.885	56.49
253.102	62.63
253.318	15.53
253.535	62.63
253.752	-21.33
253.968	29.87
254.185	-37.72
254.401	76.97
254.618	62.63
254.835	-13.14
255.051	91.31
255.268	29.87
255.484	25.77
255.701	46.25
255.917	9.39
256.134	-39.76
256.351	13.48
256.567	5.29
256.784	3.24
257	36.01
257.217	-4.95
257.433	33.96
257.65	40.11
257.866	101.55
258.082	17.58
258.299	29.87
258.515	9.39
258.732	48.3
258.948	15.53
259.165	31.91
259.381	-27.48
259.597	79.02
259.814	31.91
260.03	52.39
260.246	70.83
260.463	50.35
260.679	76.97
260.895	72.87
261.112	124.07
261.328	15.53
261.544	29.87
261.761	130.22
261.977	68.78
262.193	36.01
262.409	70.83
262.626	48.3
262.842	13.48
263.058	40.11
263.274	-4.95
263.49	52.39
263.707	60.59
263.923	85.16
264.139	-7
264.355	52.39
264.571	81.07
264.787	-15.19
265.004	-19.29
265.22	58.54
265.436	-4.95
265.652	-11.09
265.868	89.26
266.084	9.39
266.3	62.63
266.516	-47.96
266.732	76.97
266.948	68.78
267.164	79.02
267.38	44.2
267.596	132.26
267.812	46.25
268.028	40.11
268.244	13.48
268.46	40.11
268.676	48.3
268.892	3.24
269.108	48.3
269.324	93.35
269.54	11.43
269.756	81.07
269.972	9.39
270.188	3.24
270.403	48.3
270.619	74.92
270.835	74.92
271.051	7.34
271.267	23.72
271.483	29.87
271.698	-9.05
271.914	99.5
272.13	31.91
272.346	19.63
272.562	7.34
272.777	44.2
272.993	33.96
273.209	38.06
273.425	27.82
273.64	40.11
273.856	83.11
274.072	70.83
274.287	62.63
274.503	72.87
274.719	27.82
274.934	38.06
275.15	-25.43
275.366	-4.95
275.581	44.2
275.797	-19.29
276.012	44.2
276.228	48.3
276.444	36.01
276.659	19.63
276.875	-9.05
277.09	33.96
277.306	93.35
277.521	85.16
277.737	52.39
277.952	52.39
278.168	-41.81
278.383	1.19
278.599	97.45
278.814	1.19
279.03	40.11
279.245	103.59
279.461	7.34
279.676	105.64
279.892	72.87
280.107	64.68
280.322	40.11
280.538	19.63
280.753	13.48
280.969	31.91
281.184	29.87
281.399	134.31
281.615	-17.24
281.83	52.39
282.045	-25.43
282.26	-2.9
282.476	66.73
282.691	83.11
282.906	40.11
283.122	103.59
283.337	17.58
283.552	68.78
283.767	36.01
283.983	56.49
284.198	31.91
284.413	83.11
284.628	23.72
284.843	60.59
285.058	99.5
285.274	31.91
285.489	31.91
285.704	17.58
285.919	-7
286.134	29.87
286.349	54.44
286.564	-62.29
286.779	107.69
286.995	29.87
287.21	58.54
287.425	115.88
287.64	62.63
287.855	31.91
288.07	62.63
288.285	19.63
288.5	124.07
288.715	27.82
288.93	-4.95
289.145	70.83
289.36	105.64
289.575	74.92
289.79	-7
290.004	36.01
290.219	113.83
290.434	17.58
290.649	-11.09
290.864	64.68
291.079	91.31
291.294	23.72
291.509	70.83
291.724	66.73
291.938	58.54
292.153	117.93
292.368	3.24
292.583	105.64
292.798	93.35
293.012	54.44
293.227	23.72
293.442	52.39
293.657	23.72
293.871	115.88
294.086	79.02
294.301	68.78
294.516	36.01
294.73	64.68
294.945	44.2
295.16	109.74
295.374	64.68
295.589	115.88
295.804	64.68
296.018	9.39
296.233	101.55
296.447	21.67
296.662	9.39
296.877	68.78
297.091	109.74
297.306	56.49
297.52	62.63
297.735	79.02
297.949	-7
298.164	56.49
298.378	60.59
298.593	50.35
298.807	83.11
299.022	72.87
299.236	91.31
299.451	27.82
299.665	-2.9
299.88	93.35
300.094	60.59
300.309	97.45
300.523	50.35
300.737	33.96
300.952	27.82
301.166	132.26
301.381	-11.09
301.595	72.87
301.809	29.87
302.024	38.06
302.238	19.63
302.452	72.87
302.667	1.19
302.881	97.45
303.095	5.29
303.309	87.21
303.524	23.72
303.738	31.91
303.952	64.68
304.166	36.01
304.381	19.63
304.595	111.78
304.809	38.06
305.023	31.91
305.237	70.83
305.452	74.92
305.666	97.45
305.88	74.92
306.094	97.45
306.308	109.74
306.522	87.21
306.736	64.68
306.95	62.63
307.164	29.87
307.379	144.55
307.593	66.73
307.807	85.16
308.021	54.44
308.235	122.02
308.449	-33.62
308.663	33.96
308.877	5.29
309.091	72.87
309.305	101.55
309.519	-15.19
309.733	70.83
309.947	21.67
310.161	48.3
310.374	33.96
310.588	165.03
310.802	1.19
311.016	60.59
311.23	58.54
311.444	-23.38
311.658	56.49
311.872	105.64
312.085	76.97
312.299	68.78
312.513	50.35
312.727	85.16
312.941	29.87
313.154	21.67
313.368	79.02
313.582	56.49
313.796	23.72
314.009	1.19
314.223	3.24
314.437	60.59
314.651	-4.95
314.864	27.82
315.078	89.26
315.292	-31.57
315.505	72.87
315.719	95.4
315.933	62.63
316.146	124.07
316.36	68.78
316.573	85.16
316.787	111.78
317.001	48.3
317.214	62.63
317.428	72.87
317.641	38.06
317.855	44.2
318.068	66.73
318.282	-13.14
318.495	11.43
318.709	76.97
318.922	130.22
319.136	17.58
319.349	124.07
319.563	58.54
319.776	50.35
319.99	-21.33
320.203	134.31
320.417	58.54
320.63	68.78
320.843	107.69
321.057	52.39
321.27	74.92
321.483	50.35
321.697	107.69
321.91	60.59
322.124	17.58
322.337	-11.09
322.55	25.77
322.763	19.63
322.977	25.77
323.19	54.44
323.403	46.25
323.617	46.25
323.83	50.35
324.043	60.59
324.256	68.78
324.469	56.49
324.683	64.68
324.896	40.11
325.109	44.2
325.322	3.24
325.535	91.31
325.748	109.74
325.962	87.21
326.175	17.58
326.388	113.83
326.601	113.83
326.814	-19.29
327.027	60.59
327.24	83.11
327.453	21.67
327.666	64.68
327.879	74.92
328.092	21.67
328.305	36.01
328.518	21.67
328.731	17.58
328.944	40.11
329.157	21.67
329.37	89.26
329.583	56.49
329.796	72.87
330.009	5.29
330.222	46.25
330.435	36.01
330.648	48.3
330.861	42.15
331.073	29.87
331.286	79.02
331.499	21.67
331.712	56.49
331.925	89.26
332.138	64.68
332.35	89.26
332.563	76.97
332.776	95.4
332.989	-9.05
333.202	52.39
333.414	21.67
333.627	93.35
333.84	42.15
334.053	79.02
334.265	54.44
334.478	-7
334.691	72.87
334.903	40.11
335.116	-33.62
335.329	-9.05
335.541	50.35
335.754	64.68
335.966	85.16
336.179	87.21
336.392	64.68
336.604	29.87
336.817	101.55
337.029	31.91
337.242	52.39
337.454	56.49
337.667	62.63
337.88	117.93
338.092	93.35
338.305	33.96
338.517	60.59
338.729	117.93
338.942	74.92
339.154	91.31
339.367	50.35
339.579	136.36
339.792	142.5
340.004	89.26
340.217	54.44
340.429	60.59
340.641	23.72
340.854	76.97
341.066	56.49
341.278	64.68
341.491	101.55
341.703	93.35
341.915	89.26
342.128	105.64
342.34	64.68
342.552	5.29
342.764	17.58
342.977	40.11
343.189	31.91
343.401	83.11
343.613	54.44
343.826	54.44
344.038	64.68
344.25	-0.85
344.462	83.11
344.674	19.63
344.886	89.26
345.099	33.96
345.311	38.06
345.523	142.5
345.735	60.59
345.947	66.73
346.159	25.77
346.371	83.11
346.583	-39.76
346.795	146.6
347.007	46.25
347.219	60.59
347.431	111.78
347.643	107.69
347.855	9.39
348.067	109.74
348.279	97.45
348.491	113.83
348.703	52.39
348.915	109.74
349.127	7.34
349.339	105.64
349.551	-37.72
349.763	115.88
349.975	-2.9
350.187	21.67
350.399	36.01
350.61	56.49
350.822	33.96
351.034	23.72
351.246	19.63
351.458	11.43
351.669	15.53
351.881	54.44
352.093	56.49
352.305	36.01
352.517	36.01
352.728	42.15
352.94	64.68
353.152	101.55
353.363	54.44
353.575	70.83
353.787	83.11
353.999	27.82
354.21	111.78
354.422	5.29
354.633	48.3
354.845	60.59
355.057	85.16
355.268	48.3
355.48	99.5
355.692	44.2
355.903	21.67
356.115	23.72
356.326	9.39
356.538	93.35
356.749	72.87
356.961	99.5
357.172	40.11
357.384	46.25
357.595	111.78
357.807	68.78
358.018	46.25
358.23	66.73
358.441	38.06
358.653	60.59
358.864	29.87
359.075	-7
359.287	97.45
359.498	85.16
359.709	119.98
359.921	83.11
360.132	31.91
360.344	38.06
360.555	66.73
360.766	115.88
360.977	89.26
361.189	50.35
361.4	138.41
361.611	91.31
361.823	109.74
362.034	95.4
362.245	27.82
362.456	105.64
362.667	81.07
362.879	126.12
363.09	54.44
363.301	62.63
363.512	99.5
363.723	13.48
363.935	40.11
364.146	70.83
364.357	54.44
364.568	19.63
364.779	68.78
364.99	113.83
365.201	36.01
365.412	85.16
365.623	60.59
365.834	165.03
366.045	89.26
366.256	33.96
366.467	111.78
366.678	58.54
366.889	46.25
367.1	111.78
367.311	44.2
367.522	60.59
367.733	13.48
367.944	27.82
368.155	-15.19
368.366	99.5
368.577	122.02
368.788	76.97
368.999	93.35
369.209	58.54
369.42	74.92
369.631	103.59
369.842	148.65
370.053	68.78
370.264	109.74
370.474	115.88
370.685	31.91
370.896	115.88
371.107	52.39
371.317	46.25
371.528	27.82
371.739	62.63
371.95	64.68
372.16	68.78
372.371	76.97
372.582	29.87
372.792	50.35
373.003	99.5
373.214	38.06
373.424	138.41
373.635	-50
373.846	60.59
374.056	97.45
374.267	54.44
374.477	7.34
374.688	25.77
374.898	74.92
375.109	72.87
375.319	46.25
375.53	132.26
375.74	17.58
375.951	128.17
376.161	72.87
376.372	50.35
376.582	23.72
376.793	21.67
377.003	23.72
377.214	31.91
377.424	140.46
377.635	99.5
377.845	17.58
378.055	31.91
378.266	19.63
378.476	105.64
378.686	140.46
378.897	95.4
379.107	95.4
379.317	38.06
379.528	62.63
379.738	142.5
379.948	31.91
380.158	109.74
380.369	54.44
380.579	17.58
380.789	89.26
380.999	109.74
381.21	130.22
381.42	140.46
381.63	52.39
381.84	72.87
382.05	66.73
382.261	36.01
382.471	117.93
382.681	56.49
382.891	140.46
383.101	44.2
383.311	83.11
383.521	68.78
383.731	-4.95
383.941	111.78
384.151	97.45
384.361	27.82
384.571	-0.85
384.781	113.83
384.991	58.54
385.201	66.73
385.411	52.39
385.621	85.16
385.831	95.4
386.041	46.25
386.251	70.83
386.461	93.35
386.671	97.45
386.881	89.26
387.091	44.2
387.301	144.55
387.511	21.67
387.72	144.55
387.93	33.96
388.14	97.45
388.35	97.45
388.56	79.02
388.769	105.64
388.979	76.97
389.189	91.31
389.399	87.21
389.609	79.02
389.818	60.59
390.028	54.44
390.238	142.5
390.447	76.97
390.657	99.5
390.867	117.93
391.076	146.6
391.286	113.83
391.496	103.59
391.705	115.88
391.915	62.63
392.125	119.98
392.334	126.12
392.544	146.6
392.753	52.39
392.963	44.2
393.172	91.31
393.382	25.77
393.591	109.74
393.801	36.01
394.01	181.42
394.22	60.59
394.429	89.26
394.639	89.26
394.848	89.26
395.058	83.11
395.267	128.17
395.477	158.89
395.686	101.55
395.895	89.26
396.105	148.65
396.314	99.5
396.524	38.06
396.733	76.97
396.942	226.47
397.152	113.83
397.361	138.41
397.57	117.93
397.78	29.87
397.989	185.51
398.198	203.94
398.407	87.21
398.617	79.02
398.826	132.26
399.035	132.26
399.244	171.18
399.453	132.26
399.663	97.45
399.872	132.26
400.081	62.63
400.29	113.83
400.499	60.59
400.708	150.7
400.917	154.79
401.127	142.5
401.336	83.11
401.545	142.5
401.754	189.61
401.963	79.02
402.172	117.93
402.381	138.41
402.59	64.68
402.799	89.26
403.008	122.02
403.217	169.13
403.426	179.37
403.635	48.3
403.844	181.42
404.053	187.56
404.262	117.93
404.471	269.48
404.68	197.8
404.888	156.84
405.097	167.08
405.306	199.85
405.515	142.5
405.724	128.17
405.933	259.24
406.142	169.13
406.35	210.09
406.559	226.47
406.768	212.14
406.977	275.62
407.185	222.38
407.394	185.51
407.603	181.42
407.812	261.29
408.02	292.01
408.229	285.86
408.438	283.81
408.646	246.95
408.855	269.48
409.064	263.33
409.272	306.34
409.481	302.25
409.69	306.34
409.898	255.14
410.107	330.92
410.315	386.21
410.524	345.25
410.733	423.08
410.941	345.25
411.15	316.58
411.358	509.09
411.567	435.36
411.775	412.84
411.984	455.84
412.192	521.38
412.401	488.61
412.609	588.96
412.818	593.06
413.026	527.52
413.234	509.09
413.443	572.58
413.651	552.1
413.86	640.16
414.068	693.41
414.276	775.33
414.485	748.7
414.693	713.89
414.901	738.46
415.11	744.61
415.318	789.66
415.526	818.33
415.734	801.95
415.943	859.29
416.151	945.31
416.359	963.74
416.567	935.07
416.776	1062.04
416.984	1119.39
417.192	1033.37
417.4	1156.25
417.608	1080.47
417.817	1080.47
418.025	1246.36
418.233	1320.09
418.441	1285.27
418.649	1291.41
418.857	1387.67
419.065	1432.72
419.273	1356.95
419.481	1539.22
419.689	1571.99
419.897	1639.57
420.105	1719.44
420.313	1754.26
420.521	1696.91
420.729	1799.31
420.937	2028.68
421.145	1959.05
421.353	2030.73
421.561	2198.67
421.769	2202.76
421.977	2182.28
422.185	2294.92
422.393	2432.13
422.601	2493.57
422.809	2550.92
423.017	2542.72
423.224	2690.18
423.432	2790.53
423.64	2743.42
423.848	2974.85
424.056	2892.93
424.263	3224.7
424.471	3236.99
424.679	3210.36
424.887	3378.3
425.094	3437.69
425.302	3505.27
425.51	3699.83
425.718	3785.84
425.925	3771.51
426.133	3980.4
426.341	4271.21
426.548	4338.79
426.756	4220.01
426.964	4457.57
427.171	4598.88
427.379	4744.29
427.586	4822.11
427.794	4834.4
428.001	5250.14
428.209	5469.27
428.417	5446.74
428.624	5563.48
428.832	5846.1
429.039	5760.08
429.247	5649.49
429.454	6247.5
429.662	6796.35
429.869	6362.19
430.076	6571.08
430.284	6554.69
430.491	6878.27
430.699	7218.24
430.906	7222.33
431.114	7281.72
431.321	7511.1
431.528	7879.73
431.736	8176.69
431.943	8563.75
432.15	8397.87
432.358	8367.15
432.565	8746.02
432.772	8907.81
432.979	9321.5
433.187	9409.56
433.394	9417.75
433.601	10026
433.808	10056.72
434.016	10054.67
434.223	10449.93
434.43	11318.27
434.637	10822.66
434.844	11678.71
435.052	11760.63
435.259	11478.01
435.466	11871.22
435.673	11693.05
435.88	12383.21
436.087	13110.24
436.294	13188.07
436.501	13128.67
436.708	13100
436.915	13462.49
437.122	14189.52
437.329	14087.12
437.537	14726.09
437.743	14896.07
437.95	14799.82
438.157	15672.25
438.364	16061.37
438.571	15864.76
438.778	15846.33
438.985	17507.23
439.192	16739.24
439.399	17623.97
439.606	17304.48
439.813	18041.75
440.02	19071.88
440.227	18789.26
440.433	18588.56
440.64	19143.56
440.847	19104.65
441.054	19385.22
441.261	20833.13
441.467	20538.23
441.674	20990.83
441.881	21760.86
442.088	21818.21
442.294	21601.12
442.501	22391.64
442.708	22422.36
442.914	23595.84
443.121	24386.36
443.328	23720.77
443.534	25463.59
443.741	24716.08
443.948	24226.62
444.154	26198.81
444.361	25701.15
444.568	26114.84
444.774	26098.46
444.981	26553.11
445.187	27448.07
445.394	28140.29
445.6	27929.34
445.807	30890.71
446.013	29145.84
446.22	29948.64
446.426	30862.04
446.633	31048.4
446.839	32213.7
447.046	30933.71
447.252	32860.85
447.459	32885.43
447.665	32576.19
447.871	34181.79
448.078	35426.96
448.284	33606.31
448.491	34874.01
448.697	36135.56
448.903	36328.06
449.11	36815.48
449.316	36371.07
449.522	36809.34
449.728	37804.65
449.935	38228.58
450.141	37878.38
450.347	38888.03
450.553	37743.21
450.76	38412.9
450.966	39361.11
451.172	38773.34
451.378	39844.43
451.584	38990.42
451.791	39770.7
451.997	39891.53
452.203	40438.34
452.409	40342.08
452.615	40004.17
452.821	38720.09
453.027	38437.47
453.233	40299.08
453.44	38955.61
453.646	39262.8
453.852	39158.36
454.058	39481.94
454.264	38558.3
454.47	39324.24
454.676	38543.97
454.882	39699.02
455.088	36366.98
455.294	36950.65
455.5	37294.71
455.705	37622.38
455.911	36190.85
456.117	35256.98
456.323	35027.6
456.529	33405.61
456.735	34554.52
456.941	34067.11
457.147	33135.28
457.352	32236.22
457.558	31324.88
457.764	31644.36
457.97	31312.59
458.176	30677.72
458.381	30626.52
458.587	29037.3
458.793	28957.42
458.999	27583.24
459.204	29315.82
459.41	28441.34
459.616	26772.24
459.821	26485.53
460.027	26362.65
460.233	26159.9
460.438	24597.3
460.644	25199.4
460.85	23753.54
461.055	23337.8
461.261	23522.12
461.466	21803.87
461.672	21261.16
461.878	22700.88
462.083	21091.18
462.289	20882.28
462.494	20466.55
462.7	19542.91
462.905	18934.67
463.111	19747.71
463.316	19645.31
463.522	19325.83
463.727	19307.4
463.932	19348.36
464.138	19092.36
464.343	19383.17
464.549	18598.8
464.754	19141.51
464.959	18989.96
465.165	18805.64
465.37	18056.09
465.575	17427.36
465.781	18242.45
465.986	18508.69
466.191	17851.29
466.397	17415.07
466.602	16602.03
466.807	17212.32
467.012	17238.95
467.218	16972.71
467.423	17038.25
467.628	17021.86
467.833	17888.15
468.038	17132.45
468.244	16749.48
468.449	17351.59
468.654	16749.48
468.859	16462.77
469.064	16413.62
469.269	15760.31
469.474	15731.64
469.679	16190.39
469.885	15866.81
470.09	16026.55
470.295	16044.98
470.5	15485.89
470.705	15530.94
470.91	15309.76
471.115	15078.34
471.32	15287.23
471.525	15113.16
471.73	14666.7
471.935	14443.47
472.139	14326.74
472.344	14582.73
472.549	14246.87
472.754	14259.15
472.959	13829.08
473.164	13646.81
473.369	13595.61
473.574	13867.99
473.778	13843.42
473.983	13661.15
474.188	13493.21
474.393	12991.46
474.598	12823.53
474.802	12889.06
475.007	12678.12
475.212	12645.35
475.417	12360.69
475.621	12397.55
475.826	12301.29
476.031	12127.22
476.235	12045.3
476.44	12010.48
476.645	11783.16
476.849	11893.75
477.054	11602.94
477.259	11725.82
477.463	11506.68
477.668	11318.27
477.872	11244.54
478.077	11252.73
478.282	10839.05
478.486	10877.96
478.691	10724.36
478.895	10974.21
479.1	10556.43
479.304	10828.81
479.509	10445.84
479.713	10423.31
479.918	10404.88
480.122	10169.36
480.326	10236.94
480.531	10497.03
480.735	10028.05
480.94	10134.54
481.144	10300.43
481.348	9878.55
481.553	9872.4
481.757	9858.07
481.961	9849.88
482.166	10015.76
482.37	9989.14
482.574	9636.89
482.778	9823.25
482.983	10109.97
483.187	10001.43
483.391	9876.5
483.595	9860.12
483.8	9774.1
484.004	9901.08
484.208	9899.03
484.412	9683.99
484.616	9878.55
484.821	9960.47
485.025	9704.47
485.229	9829.4
485.433	9702.42
485.637	9903.12
485.841	9813.01
486.045	9731.09
486.249	9776.15
486.453	10032.15
486.657	9815.06
486.861	9757.72
487.065	9530.39
487.269	9806.87
487.473	9634.84
487.677	9815.06
487.881	9851.92
488.085	9663.51
488.289	9749.53
488.493	9757.72
488.697	10044.43
488.901	9870.36
489.105	9956.37
489.309	9886.74
489.512	9915.41
489.716	9978.9
489.92	10056.72
490.124	9952.27
490.328	10030.1
490.531	9821.2
490.735	10073.1
490.939	10159.12
491.143	9909.27
491.346	10128.4
491.55	10316.81
491.754	9966.61
491.958	10437.64
492.161	10167.31
492.365	10413.07
492.569	10298.38
492.772	10255.37
492.976	10269.71
493.18	10521.61
493.383	10464.27
493.587	10480.65
493.79	10669.06
493.994	10689.54
494.197	10667.02
494.401	10900.48
494.605	10865.67
494.808	10912.77
495.012	11043.84
495.215	11017.22
495.419	11242.5
495.622	11138.05
495.825	11203.58
496.029	11281.41
496.232	11580.41
496.436	11578.36
496.639	11772.92
496.843	11777.01
497.046	12022.77
497.249	11928.56
497.453	12104.69
497.656	12137.46
497.859	12239.86
498.063	12485.61
498.266	12612.59
498.469	12592.11
498.673	12602.35
498.876	12866.53
499.079	12772.33
499.282	12999.65
499.485	13302.75
499.689	13198.31
499.892	13773.78
500.095	13876.18
500.298	13972.44
500.501	13632.47
500.705	14197.71
500.908	14414.8
501.111	14590.92
501.314	14384.08
501.517	14695.37
501.72	14775.24
501.923	14914.5
502.126	15383.49
502.329	15418.3
502.532	15494.08
502.735	15471.55
502.938	15754.17
503.141	16047.03
503.344	16044.98
503.547	16001.97
503.75	16499.63
503.953	16556.97
504.156	16862.12
504.359	16941.99
504.562	16946.09
504.765	17253.28
504.968	17458.08
505.17	17632.16
505.373	17785.76
505.576	18185.11
505.779	18252.69
505.982	18258.84
506.185	18570.13
506.387	18955.15
506.59	18840.46
506.793	19207.05
506.996	19129.22
507.198	19747.71
507.401	19514.24
507.604	19782.52
507.807	20466.55
508.009	20108.15
508.212	20589.42
508.415	20724.59
508.617	21103.46
508.82	21037.93
509.022	21037.93
509.225	21709.66
509.428	21816.16
509.63	21740.38
509.833	21973.85
510.035	22455.12
510.238	22109.02
510.44	22682.45
510.643	23106.38
510.845	23298.89
511.048	22848.33
511.25	23223.11
511.453	23257.93
511.655	24394.55
511.858	24220.47
512.06	24421.17
512.262	24511.28
512.465	24359.73
512.667	25051.95
512.87	25242.41
513.072	25158.44
513.274	25760.55
513.477	25914.14
513.679	26004.25
513.881	26164
514.084	26514.2
514.286	26442.52
514.488	26358.55
514.69	27261.71
514.893	27472.65
515.095	27570.95
515.297	27812.61
515.499	27898.62
515.701	28183.29
515.904	28539.64
516.106	28607.22
516.308	28973.81
516.51	29250.28
516.712	29250.28
516.914	29743.84
517.116	29950.69
517.318	30192.35
517.52	30153.44
517.722	30360.28
517.925	30999.25
518.127	31214.29
518.329	31474.38
518.531	30917.33
518.733	31861.44
518.935	31906.5
519.136	31912.64
519.338	32582.33
519.54	32281.28
519.742	32826.04
519.944	32948.92
520.146	33761.96
520.348	33342.13
520.55	33665.7
520.752	33665.7
520.954	34589.34
521.155	33854.12
521.357	34890.39
521.559	34982.55
521.761	35291.79
521.963	35062.42
522.164	35512.97
522.366	35254.93
522.568	36055.68
522.77	36094.6
522.971	36975.22
523.173	36283.01
523.375	36698.75
523.576	36688.51
523.778	36805.24
523.98	36999.8
524.181	37481.07
524.383	37468.78
524.584	37753.45
524.786	37902.95
524.988	37640.81
525.189	38304.35
525.391	38543.97
525.592	38347.36
525.794	38814.3
525.995	38781.53
526.197	38965.85
526.398	38683.23
526.6	39146.07
526.801	39174.74
527.003	39567.95
527.204	39389.78
527.406	39649.87
527.607	39727.69
527.808	39897.67
528.01	39416.4
528.211	39920.2
528.412	40407.62
528.614	40331.84
528.815	40100.42
529.016	40706.62
529.218	40337.99
529.419	40204.87
529.62	40686.14
529.822	40559.17
530.023	40890.94
530.224	40755.77
530.425	41015.86
530.626	40467.01
530.828	40194.63
531.029	41142.84
531.23	40804.92
531.431	40974.91
531.632	40968.76
531.833	40933.95
532.035	41337.4
532.236	41132.6
532.437	41171.51
532.638	41269.81
532.839	41615.92
533.04	41288.24
533.241	40847.93
533.442	41753.13
533.643	41505.33
533.844	40892.99
534.045	41556.53
534.246	40710.72
534.447	41284.15
534.648	41474.61
534.849	41269.81
535.05	40892.99
535.251	41445.94
535.451	41081.4
535.652	41269.81
535.853	41091.64
536.054	40892.99
536.255	41577.01
536.456	41075.26
536.657	41732.65
536.857	40923.71
537.058	41181.75
537.259	41443.89
537.46	41396.79
537.66	41046.58
537.861	41257.53
538.062	41062.97
538.263	41321.01
538.463	40868.41
538.664	41103.93
538.865	41212.47
539.065	41509.43
539.266	40866.36
539.466	41417.27
539.667	40938.04
539.868	41427.51
540.068	40784.44
540.269	41140.79
540.469	41175.61
540.67	40714.81
540.87	41355.83
541.071	41058.87
541.271	41001.53
541.472	41065.02
541.672	40864.32
541.873	40784.44
542.073	40270.4
542.274	41071.16
542.474	40618.56
542.675	40399.43
542.875	40895.03
543.075	41239.09
543.276	40391.23
543.476	40954.43
543.676	40583.74
543.877	40610.37
544.077	41026.1
544.277	40495.68
544.478	40655.42
544.678	40985.15
544.878	40684.09
545.078	40792.64
545.279	40428.1
545.479	40403.52
545.679	40501.82
545.879	40505.92
546.079	40901.18
546.28	40305.22
546.48	40053.32
546.68	40544.83
546.88	40716.86
547.08	40286.79
547.28	40327.75
547.48	39817.8
547.68	40698.43
547.88	40170.05
548.081	40518.21
548.281	40452.67
548.481	40340.04
548.681	40663.61
548.881	40290.88
549.081	40084.04
549.28	40319.56
549.48	40438.34
549.68	39961.16
549.88	40911.42
550.08	39778.89
550.28	40194.63
550.48	40055.37
550.68	40659.52
550.88	39692.88
551.08	39940.68
551.279	40155.72
551.479	39570
551.679	39969.35
551.879	39637.58
552.079	40346.18
552.278	40036.94
552.478	39842.38
552.678	39967.3
552.878	40327.75
553.077	39805.52
553.277	39795.28
553.477	40272.45
553.676	39969.35
553.876	39692.88
554.076	39881.29
554.275	39789.13
554.475	39483.98
554.674	39340.63
554.874	39979.59
555.074	39576.14
555.273	39510.61
555.473	39744.08
555.672	39369.3
555.872	39590.48
556.071	39397.97
556.271	39799.37
556.47	39397.97
556.67	39098.97
556.869	39232.08
557.068	39580.24
557.268	39133.78
557.467	38877.79
557.667	39025.24
557.866	39281.24
558.065	39469.65
558.265	38980.18
558.464	38748.76
558.663	39133.78
558.863	38648.41
559.062	39219.8
559.261	38722.14
559.461	39043.67
559.66	38503.01
559.859	38885.98
560.058	38845.02
560.258	38572.64
560.457	37997.16
560.656	38658.65
560.855	38388.32
561.054	38539.87
561.253	38199.91
561.453	38150.76
561.652	38275.68
561.851	38484.58
562.05	38242.92
562.249	37851.75
562.448	38339.17
562.647	38189.67
562.846	38070.89
563.045	38214.24
563.244	37673.58
563.443	38163.04
563.642	37679.72
563.841	38197.86
564.04	37708.4
564.239	37831.27
564.438	37122.68
564.637	37716.59
564.836	37683.82
565.035	37378.67
565.234	37270.13
565.432	37341.81
565.631	37116.53
565.83	36969.08
566.029	36870.78
566.228	36803.19
566.427	36463.23
566.625	36676.22
566.824	36319.87
567.023	36952.69
567.222	36303.49
567.42	36862.58
567.619	36688.51
567.818	36708.99
568.016	36768.38
568.215	36514.43
568.414	36172.42
568.612	36262.53
568.811	36074.12
569.01	36147.84
569.208	35508.88
569.407	36235.91
569.605	35641.99
569.804	36272.77
570.002	35570.32
570.201	35895.94
570.4	35517.07
570.598	35592.84
570.797	35099.28
570.995	35271.31
571.193	35054.23
571.392	35508.88
571.59	34790.04
571.789	35054.23
571.987	35066.52
572.186	34874.01
572.384	34609.82
572.582	34833.05
572.781	34812.57
572.979	34165.41
573.177	34237.09
573.376	34751.13
573.574	34525.85
573.772	34636.44
573.971	34153.12
574.169	33985.19
574.367	34101.92
574.565	34538.14
574.763	33825.45
574.962	34044.58
575.16	33227.44
575.358	33899.17
575.556	33350.32
575.754	34112.16
575.952	33288.88
576.151	33622.7
576.349	33014.45
576.547	33383.09
576.745	33456.81
576.943	33022.64
577.141	32871.09
577.339	32959.16
577.537	32819.89
577.735	33137.33
577.933	32512.7
578.131	32793.27
578.329	32635.58
578.527	31920.84
578.725	32713.4
578.923	32592.57
579.121	32156.35
579.319	32187.07
579.516	32557.75
579.714	32113.34
579.912	31990.47
580.11	31869.64
580.308	31619.78
580.506	31824.58
580.704	31228.62
580.901	31609.54
581.099	32064.19
581.297	31402.7
581.495	31417.04
581.692	31124.18
581.89	31015.63
582.088	31412.94
582.285	30984.91
582.483	31077.07
582.681	30864.08
582.878	31046.35
583.076	30796.5
583.274	31093.46
583.471	30319.32
583.669	30603.99
583.866	30487.26
584.064	30503.64
584.262	30120.67
584.459	30470.87
584.657	30245.6
584.854	30110.43
585.052	29405.93
585.249	30261.98
585.447	30038.75
585.644	29715.17
585.841	29917.92
586.039	29674.21
586.236	29522.66
586.434	29547.24
586.631	29256.43
586.828	29457.13
587.026	29434.6
587.223	29074.16
587.42	29176.56
587.618	29002.48
587.815	28754.68
588.012	28695.28
588.21	28654.33
588.407	28631.8
588.604	28613.37
588.801	28361.47
588.999	28467.96
589.196	28080.89
589.393	28158.72
589.59	28584.69
589.787	28123.9
589.984	27912.96
590.182	27718.4
590.379	27798.27
590.576	27683.59
590.773	27554.57
590.97	27314.95
591.167	27558.66
591.364	27288.33
591.561	27390.73
591.758	27390.73
591.955	27269.9
592.152	27192.08
592.349	26696.47
592.546	26983.18
592.743	27212.56
592.94	26501.91
593.137	26729.23
593.334	26714.9
593.531	26286.87
593.727	26477.33
593.924	26485.53
594.121	26520.34
594.318	26501.91
594.515	25959.2
594.712	26405.66
594.908	25971.49
595.105	25940.77
595.302	25881.38
595.499	25692.96
595.696	25701.15
595.892	25547.56
596.089	25635.62
596.286	25766.69
596.482	25488.17
596.679	25514.79
596.876	25611.04
597.072	24953.65
597.269	25047.85
597.466	24857.39
597.662	24834.86
597.859	24777.52
598.055	25156.39
598.252	24572.72
598.448	24576.82
598.645	24359.73
598.841	24474.42
599.038	24310.58
599.234	24484.66
599.431	24208.19
599.627	24007.48
599.824	24193.85
600.02	24286.01
600.217	23991.1
600.413	23931.71
600.609	23966.52
600.806	23608.13
601.002	23853.89
601.198	23524.16
601.395	23653.19
601.591	23681.86
601.787	23423.81
601.984	23370.57
602.18	23567.17
602.376	23024.46
602.572	23149.39
602.769	22897.49
602.965	22815.57
603.161	23003.98
603.357	22682.45
603.553	22747.98
603.75	22842.19
603.946	22678.35
604.142	22850.38
604.338	22410.07
604.534	22465.36
604.73	22160.22
604.926	22133.59
605.122	22276.95
605.318	22274.9
605.514	21904.22
605.71	22109.02
605.906	22029.15
606.102	21850.97
606.298	21771.1
606.494	22125.4
606.69	21666.66
606.886	21584.74
607.082	21420.9
607.278	21640.03
607.474	21463.91
607.67	21736.29
607.866	21220.2
608.062	21562.21
608.257	21349.22
608.453	21451.62
608.649	21363.56
608.845	21263.21
609.041	21119.85
609.236	21164.9
609.432	21130.09
609.628	21046.12
609.824	20861.8
610.019	20659.06
610.215	20935.53
610.411	20935.53
610.606	20786.03
610.802	20759.41
610.998	20538.23
611.193	20642.67
611.389	20687.73
611.584	20415.35
611.78	20622.19
611.976	20632.43
612.171	20691.82
612.367	20302.71
612.562	20304.76
612.758	20259.7
612.953	19909.5
613.149	20263.8
613.344	19778.43
613.539	20370.29
613.735	20220.79
613.93	20196.21
614.126	20091.77
614.321	20120.44
614.517	19620.74
614.712	19774.33
614.907	19579.78
615.103	19772.28
615.298	19770.24
615.493	19919.74
615.688	19690.37
615.884	19917.69
616.079	19712.89
616.274	19540.86
616.47	19622.78
616.665	19624.83
616.86	19192.71
617.055	19338.12
617.25	19424.13
617.445	19485.57
617.641	18963.34
617.836	19168.13
618.031	18992.01
618.226	19276.68
618.421	18928.52
618.616	19323.78
618.811	18641.81
619.006	18998.15
619.201	18631.57
619.396	18715.53
619.591	18162.58
619.786	18617.23
619.981	18359.19
620.176	18480.02
620.371	18402.19
620.566	18320.28
620.761	18084.76
620.956	18213.78
621.151	17761.18
621.346	17998.74
621.541	17716.12
621.735	17976.22
621.93	17490.85
622.125	17687.45
622.32	17363.87
622.515	17499.04
622.709	17152.93
622.904	17193.89
623.099	17253.28
623.294	16927.66
623.488	16987.05
623.683	17075.11
623.878	16599.98
624.072	16696.24
624.267	16720.81
624.462	16581.55
624.656	16458.67
624.851	16495.53
625.046	16395.18
625.24	16255.92
625.435	16094.13
625.629	15885.24
625.824	15872.95
626.018	16081.85
626.213	15371.2
626.407	15367.1
626.602	15549.37
626.796	15428.54
626.991	15309.76
627.185	15066.05
627.38	15485.89
627.574	15035.33
627.768	14851.02
627.963	14971.85
628.157	14767.05
628.352	15000.52
628.546	14666.7
628.74	14771.15
628.935	14521.29
629.129	14658.51
629.323	14496.72
629.517	14361.55
629.712	14253.01
629.906	14285.78
630.1	13997.01
630.294	14052.31
630.489	13947.86
630.683	13927.38
630.877	13673.43
631.071	13743.06
631.265	13935.57
631.459	13689.82
631.653	13425.63
631.848	13489.12
632.042	13159.39
632.236	13489.12
632.43	13368.29
632.624	13388.77
632.818	13151.2
633.012	13112.29
633.206	12884.97
633.4	12895.21
633.594	12782.57
633.788	12917.73
633.982	12739.56
634.176	12661.74
634.369	12637.16
634.563	12545
634.757	12463.08
634.951	12481.52
635.145	12352.49
635.339	12202.99
635.533	12002.29
635.726	12231.66
635.92	11871.22
636.114	11852.79
636.308	11869.17
636.501	11889.65
636.695	11830.26
636.889	11668.47
637.083	11658.23
637.276	11588.6
637.47	11623.42
637.664	11473.92
637.857	11514.87
638.051	11602.94
638.244	11303.93
638.438	11275.26
638.632	11242.5
638.825	11172.86
639.019	11056.13
639.212	10888.2
639.406	10980.36
639.599	10871.81
639.793	10763.27
639.986	10837
640.18	10679.3
640.373	10513.42
640.567	10560.52
640.76	10599.43
640.954	10562.57
641.147	10570.76
641.34	10341.39
641.534	10486.79
641.727	10247.18
641.92	10372.11
642.114	10007.57
642.307	10169.36
642.5	10138.64
642.694	9876.5
642.887	9878.55
643.08	9835.54
643.273	9737.24
643.467	9649.18
643.66	9819.16
643.853	9665.56
644.046	9487.39
644.239	9643.03
644.432	9501.72
644.626	9358.36
644.819	9501.72
645.012	9370.65
645.205	9384.99
645.398	9276.45
645.591	8989.73
645.784	9241.63
645.977	9200.67
646.17	9081.89
646.363	9172
646.556	8860.71
646.749	8924.19
646.942	9020.45
647.135	8944.67
647.328	8918.05
647.521	9026.59
647.714	8559.66
647.907	8668.2
648.099	8410.15
648.292	8479.79
648.485	8449.07
648.678	8512.55
648.871	8231.98
649.064	8293.42
649.256	8320.04
649.449	8338.48
649.642	8188.97
649.835	8059.95
650.027	8250.41
650.22	8131.63
650.413	7984.18
650.605	7947.31
650.798	8078.38
650.991	7861.3
651.183	7959.6
651.376	7961.65
651.568	7717.94
651.761	7691.32
651.954	7877.68
652.146	7777.33
652.339	7705.65
652.531	7554.1
652.724	7646.26
652.916	7492.66
653.109	7435.32
653.301	7412.79
653.494	7523.38
653.686	7234.62
653.879	7287.87
654.071	7259.2
654.263	7210.04
654.456	7244.86
654.648	7240.76
654.84	6931.52
655.033	7191.61
655.225	7091.26
655.417	7107.65
655.61	7111.74
655.802	6970.43
655.994	6972.48
656.186	6872.13
656.379	6743.11
656.571	6741.06
656.763	6870.08
656.955	6636.61
657.148	6642.76
657.34	6560.84
657.532	6564.93
657.724	6642.76
657.916	6675.52
658.108	6683.72
658.3	6425.67
658.492	6589.51
658.684	6468.68
658.876	6341.71
659.068	6515.78
659.26	6274.12
659.452	6304.84
659.644	6329.42
659.836	6290.51
660.028	6282.31
660.22	6165.58
660.412	6067.28
660.604	6138.96
660.796	6102.09
660.988	5956.69
661.18	5940.3
661.372	5917.78
661.563	5905.49
661.755	5917.78
661.947	5745.75
662.139	5792.85
662.331	5698.64
662.522	5604.44
662.714	5747.79
662.906	5768.27
663.097	5637.2
663.289	5655.64
663.481	5530.71
663.673	5602.39
663.864	5393.5
664.056	5479.51
664.247	5479.51
664.439	5504.09
664.631	5540.95
664.822	5358.68
665.014	5393.5
665.205	5323.87
665.397	5375.06
665.588	5321.82
665.78	5260.38
665.971	5289.05
666.163	5239.9
666.354	5311.58
666.546	5196.89
666.737	5180.51
666.929	5241.95
667.12	5168.22
667.311	5026.91
667.503	5110.88
667.694	5114.97
667.885	5014.62
668.077	4988
668.268	5049.44
668.459	5153.88
668.651	5028.96
668.842	4893.79
669.033	5031.01
669.224	4930.66
669.416	4895.84
669.607	4848.74
669.798	4797.54
669.989	4832.35
670.18	4813.92
670.371	4652.13
670.563	4570.21
670.754	4707.43
670.945	4711.52
671.136	4750.43
671.327	4707.43
671.518	4826.21
671.709	4551.78
671.9	4600.93
672.091	4645.99
672.282	4537.45
672.473	4549.73
672.664	4588.64
672.855	4572.26
673.046	4420.71
673.237	4502.63
673.428	4439.14
673.619	4547.69
673.809	4496.49
674	4394.09
674.191	4426.86
674.382	4484.2
674.573	4260.97
674.764	4291.69
674.954	4314.22
675.145	4293.74
675.336	4273.26
675.527	4215.91
675.717	4240.49
675.908	4246.63
676.099	4185.19
676.289	4123.76
676.48	4260.97
676.671	4080.75
676.861	4154.48
677.052	4090.99
677.243	4144.24
677.433	4177
677.624	4084.84
677.814	3992.69
678.005	4041.84
678.195	4029.55
678.386	4123.76
678.576	3941.49
678.767	4017.26
678.957	4031.6
679.148	4041.84
679.338	4111.47
679.529	4004.97
679.719	4043.88
679.909	3994.73
680.1	3900.53
680.29	3943.53
680.481	3865.71
680.671	3931.25
680.861	4019.31
681.052	3939.44
681.242	4019.31
681.432	3839.09
681.622	3839.09
681.813	3826.8
682.003	3859.57
682.193	3822.7
682.383	3800.18
682.573	3859.57
682.764	3705.97
682.954	3853.42
683.144	3841.14
683.334	3650.67
683.524	3648.63
683.714	3665.01
683.904	3667.06
684.094	3867.76
684.284	3810.42
684.474	3722.35
684.664	3679.35
684.854	3763.31
685.044	3714.16
685.234	3728.5
685.424	3566.71
685.614	3613.81
685.804	3671.15
685.994	3644.53
686.184	3699.83
686.374	3595.38
686.564	3660.91
686.753	3587.19
686.943	3511.41
687.133	3427.45
687.323	3486.84
687.513	3359.86
687.702	3640.44
687.892	3429.49
688.082	3505.27
688.272	3433.59
688.461	3306.62
688.651	3445.88
688.841	3363.96
689.03	3421.3
689.22	3370.1
689.41	3345.53
689.599	3257.46
689.789	3339.38
689.979	3214.46
690.168	3251.32
690.358	3335.29
690.547	3187.83
690.737	3202.17
690.926	3329.14
691.116	3234.94
691.305	3140.73
691.495	3185.79
691.684	3239.03
691.874	3220.6
692.063	3103.87
692.252	3247.23
692.442	3150.97
692.631	3097.72
692.82	3167.35
693.01	3101.82
693.199	3091.58
693.388	3058.81
693.578	2991.23
693.767	3165.31
693.956	3032.19
694.146	3204.22
694.335	3089.53
694.524	3060.86
694.713	2923.65
694.902	3001.47
695.092	3046.52
695.281	3060.86
695.47	3013.76
695.659	2935.93
695.848	2876.54
696.037	2968.7
696.226	2964.61
696.415	2866.3
696.604	3042.43
696.793	2841.73
696.982	2804.86
697.171	3011.71
697.36	2989.18
697.549	2876.54
697.738	2806.91
697.927	2772.1
698.116	2839.68
698.305	2944.13
698.494	2770.05
698.683	2837.63
698.872	2839.68
699.061	2765.95
699.25	2886.78
699.438	2929.79
699.627	2778.24
699.816	2911.36
700.005	2876.54
700.193	2835.58
700.382	2940.03
700.571	2825.34
700.76	2825.34
700.948	2937.98
701.137	2886.78
701.326	2786.43
701.514	2802.82
701.703	2851.97
701.892	2743.42
702.08	2886.78
702.269	2710.66
702.457	2790.53
702.646	2909.31
702.834	2794.62
703.023	2761.86
703.212	2823.3
703.4	2827.39
703.589	2749.57
703.777	2778.24
703.965	2833.54
704.154	2821.25
704.342	2800.77
704.531	2696.32
704.719	2888.83
704.907	2901.12
705.096	2808.96
705.284	2940.03
705.472	2786.43
705.661	2702.47
705.849	2786.43
706.037	2790.53
706.226	2860.16
706.414	2753.66
706.602	2862.21
706.79	2894.97
706.979	2757.76
707.167	2741.38
707.355	2751.62
707.543	2772.1
707.731	2778.24
707.919	2833.54
708.107	2808.96
708.296	2876.54
708.484	2690.18
708.672	2739.33
708.86	2751.62
709.048	2776.19
709.236	2739.33
709.424	2876.54
709.612	2692.23
709.8	2827.39
709.988	2757.76
710.176	2776.19
710.364	2894.97
710.551	2722.95
710.739	2792.58
710.927	2899.07
711.115	2737.28
711.303	2800.77
711.491	2786.43
711.679	2688.13
711.866	2839.68
712.054	2782.34
712.242	2647.17
712.43	2677.89
712.617	2735.23
712.805	2786.43
712.993	2823.3
713.181	2794.62
713.368	2722.95
713.556	2847.87
713.744	2772.1
713.931	2831.49
714.119	2735.23
714.306	2843.78
714.494	2905.21
714.682	2796.67
714.869	2731.14
715.057	2860.16
715.244	2786.43
715.432	2858.11
715.619	2860.16
715.807	2837.63
715.994	2962.56
716.182	2829.44
716.369	2749.57
716.556	2872.45
716.744	2688.13
716.931	2815.1
717.119	2911.36
717.306	2804.86
717.493	2763.9
717.681	2765.95
717.868	2739.33
718.055	2782.34
718.242	2749.57
718.43	2770.05
718.617	2735.23
718.804	2696.32
718.991	2790.53
719.179	2763.9
719.366	2655.36
719.553	2690.18
719.74	2741.38
719.927	2731.14
720.114	2702.47
720.301	2663.55
720.488	2782.34
720.676	2661.51
720.863	2761.86
721.05	2802.82
721.237	2741.38
721.424	2774.14
721.611	2745.47
721.798	2708.61
721.985	2722.95
722.172	2776.19
722.358	2690.18
722.545	2651.27
722.732	2802.82
722.919	2630.79
723.106	2655.36
723.293	2829.44
723.48	2786.43
723.667	2768
723.853	2669.7
724.04	2757.76
724.227	2667.65
724.414	2602.11
724.6	2587.78
724.787	2702.47
724.974	2688.13
725.161	2602.11
725.347	2567.3
725.534	2669.7
725.72	2636.93
725.907	2663.55
726.094	2677.89
726.28	2598.02
726.467	2686.08
726.653	2606.21
726.84	2550.92
727.027	2595.97
727.213	2673.79
727.4	2634.88
727.586	2630.79
727.773	2561.16
727.959	2624.64
728.145	2661.51
728.332	2598.02
728.518	2753.66
728.705	2675.84
728.891	2632.83
729.077	2745.47
729.264	2581.64
729.45	2638.98
729.636	2645.12
729.823	2559.11
730.009	2641.03
730.195	2585.73
730.382	2548.87
730.568	2595.97
730.754	2452.61
730.94	2626.69
731.126	2712.71
731.313	2591.88
731.499	2509.96
731.685	2614.4
731.871	2655.36
732.057	2583.68
732.243	2616.45
732.429	2550.92
732.615	2591.88
732.801	2589.83
732.987	2557.06
733.173	2536.58
733.359	2550.92
733.545	2591.88
733.731	2475.14
733.917	2507.91
734.103	2606.21
734.289	2641.03
734.475	2419.85
734.661	2561.16
734.847	2557.06
735.033	2434.18
735.219	2595.97
735.404	2434.18
735.59	2464.9
735.776	2469
735.962	2487.43
736.148	2536.58
736.333	2462.85
736.519	2417.8
736.705	2497.67
736.89	2518.15
737.076	2411.65
737.262	2370.69
737.447	2403.46
737.633	2444.42
737.819	2438.28
738.004	2464.9
738.19	2385.03
738.375	2393.22
738.561	2409.61
738.747	2362.5
738.932	2462.85
739.118	2475.14
739.303	2469
739.489	2225.29
739.674	2223.24
739.859	2256.01
740.045	2385.03
740.23	2444.42
740.416	2364.55
740.601	2356.36
740.786	2290.82
740.972	2262.15
741.157	2344.07
741.342	2223.24
741.528	2284.68
741.713	2286.73
741.898	2194.57
742.084	2307.21
742.269	2270.34
742.454	2200.71
742.639	2200.71
742.824	2153.61
743.01	2274.44
743.195	2186.38
743.38	2202.76
743.565	2106.51
743.75	2268.3
743.935	2120.84
744.12	2104.46
744.305	2145.42
744.49	2161.8
744.675	2178.19
744.86	2024.59
745.045	2118.79
745.23	2104.46
745.415	2165.9
745.6	2002.06
745.785	2088.07
745.97	2032.78
746.155	2040.97
746.34	2026.64
746.525	1995.92
746.71	2040.97
746.895	2038.92
747.079	2004.11
747.264	2002.06
747.449	1916.05
747.634	1932.43
747.819	1987.72
748.003	1922.19
748.188	1914
748.373	1897.61
748.557	1901.71
748.742	1903.76
748.927	1963.15
749.111	1862.8
749.296	1809.55
749.481	1805.46
749.665	1778.83
749.85	1830.03
750.034	1799.31
750.219	1739.92
750.404	1805.46
750.588	1752.21
750.773	1735.82
750.957	1682.58
751.141	1672.34
751.326	1715.34
751.51	1672.34
751.695	1723.54
751.879	1662.1
752.064	1703.06
752.248	1645.71
752.432	1660.05
752.617	1629.33
752.801	1698.96
752.985	1668.24
753.17	1596.56
753.354	1379.48
753.538	1576.08
753.722	1537.17
753.907	1461.4
754.091	1508.5
754.275	1565.84
754.459	1426.58
754.643	1514.64
754.828	1498.26
755.012	1485.97
755.196	1539.22
755.38	1373.33
755.564	1397.91
755.748	1338.52
755.932	1445.01
756.116	1387.67
756.3	1399.96
756.484	1408.15
756.668	1426.58
756.852	1354.9
757.036	1348.76
757.22	1344.66
757.404	1440.92
757.588	1346.71
757.772	1367.19
757.956	1250.46
758.14	1359
758.323	1229.98
758.507	1340.57
758.691	1199.26
758.875	1225.88
759.059	1309.85
759.242	1266.84
759.426	1279.13
759.61	1289.37
759.794	1223.83
759.977	1234.07
760.161	1318.04
760.345	1166.49
760.528	1211.54
760.712	1254.55
760.895	1201.3
761.079	1191.06
761.263	1049.75
761.446	1195.16
761.63	1154.2
761.813	1195.16
761.997	1160.34
762.18	1053.85
762.364	1281.18
762.547	1100.95
762.731	1094.81
762.914	1117.34
763.098	1059.99
763.281	1084.57
763.464	1125.53
763.648	1117.34
763.831	1148.06
764.015	1186.97
764.198	1105.05
764.381	1084.57
764.564	1150.11
764.748	1111.19
764.931	1143.96
765.114	930.97
765.297	961.69
765.481	1047.71
765.664	1055.9
765.847	943.26
766.03	1035.42
766.213	1019.04
766.397	1041.56
766.58	1012.89
766.763	1002.65
766.946	984.22
767.129	965.79
767.312	1023.13
767.495	939.16
767.678	916.64
767.861	1016.99
768.044	1076.38
768.227	1035.42
768.41	926.88
768.593	1019.04
768.776	930.97
768.959	1008.8
769.142	967.84
769.324	926.88
769.507	926.88
769.69	1000.6
769.873	943.26
770.056	984.22
770.239	963.74
770.421	965.79
770.604	969.88
770.787	912.54
770.97	851.1
771.152	871.58
771.335	949.4
771.518	912.54
771.7	881.82
771.883	916.64
772.066	830.62
772.248	867.49
772.431	875.68
772.613	855.2
772.796	801.95
772.978	806.05
773.161	881.82
773.343	822.43
773.526	793.76
773.708	789.66
773.891	767.13
774.073	849.05
774.256	842.91
774.438	842.91
774.621	818.33
774.803	828.57
774.985	795.81
775.168	881.82
775.35	752.8
775.532	699.55
775.715	804
775.897	804
776.079	715.94
776.261	754.85
776.444	715.94
776.626	797.85
776.808	666.78
776.99	724.13
777.173	734.37
777.355	660.64
777.537	738.46
777.719	730.27
777.901	576.67
778.083	720.03
778.265	699.55
778.447	586.91
778.629	695.46
778.811	658.59
778.993	646.3
779.175	699.55
779.357	701.6
779.539	623.78
779.721	689.31
779.903	644.26
780.085	697.5
780.267	724.13
780.449	689.31
780.631	642.21
780.812	570.53
780.994	654.5
781.176	566.43
781.358	636.06
781.54	584.87
781.721	582.82
781.903	627.87
782.085	584.87
782.267	634.02
782.448	560.29
782.63	552.1
782.812	605.35
782.993	627.87
783.175	605.35
783.357	443.56
783.538	527.52
783.72	531.62
783.901	515.23
784.083	437.41
784.264	601.25
784.446	515.23
784.627	441.51
784.809	478.37
784.99	513.19
785.172	504.99
785.353	396.45
785.535	470.18
785.716	468.13
785.897	529.57
786.079	545.95
786.26	388.26
786.441	461.99
786.623	414.88
786.804	517.28
786.985	445.6
787.167	531.62
787.348	470.18
787.529	504.99
787.71	457.89
787.891	472.23
788.073	421.03
788.254	435.36
788.435	474.28
788.616	464.04
788.797	414.88
788.978	451.75
789.159	509.09
789.34	439.46
789.522	433.32
789.703	388.26
789.884	431.27
790.065	437.41
790.246	380.07
790.427	369.83
790.607	476.32
790.788	382.12
790.969	380.07
791.15	449.7
791.331	396.45
791.512	332.97
791.693	400.55
791.874	347.3
792.054	373.92
792.235	347.3
792.416	347.3
792.597	433.32
792.778	429.22
792.958	425.12
793.139	394.4
793.32	361.64
793.5	267.43
793.681	378.02
793.862	330.92
794.042	429.22
794.223	302.25
794.404	296.1
794.584	396.45
794.765	310.44
794.945	330.92
795.126	345.25
795.306	384.16
795.487	367.78
795.667	242.85
795.848	285.86
796.028	308.39
796.209	347.3
796.389	296.1
796.57	339.11
796.75	275.62
796.93	249
797.111	324.77
797.291	261.29
797.471	298.15
797.652	287.91
797.832	318.63
798.012	316.58
798.192	326.82
798.373	304.29
798.553	343.21
798.733	357.54
798.913	314.53
799.093	269.48
799.274	269.48
799.454	369.83
799.634	298.15
799.814	306.34
799.994	216.23
800.174	181.42
800.354	275.62
800.534	150.7
800.714	203.94
800.894	316.58
801.074	310.44
801.254	371.88
801.434	199.85
801.614	269.48
801.794	246.95
801.974	736.42
802.154	244.9
802.334	255.14
802.514	281.77
802.693	222.38
802.873	193.7
803.053	406.69
803.233	216.23
803.413	185.51
803.592	167.08
803.772	240.81
803.952	285.86
804.131	269.48
804.311	177.32
804.491	296.1
804.67	210.09
804.85	240.81
805.03	294.05
805.209	285.86
805.389	257.19
805.568	197.8
805.748	242.85
805.928	302.25
806.107	208.04
806.287	117.93
806.466	197.8
806.646	226.47
806.825	183.46
807.004	263.33
807.184	214.18
807.363	306.34
807.543	265.38
807.722	253.09
807.901	263.33
808.081	226.47
808.26	140.46
808.439	265.38
808.619	267.43
808.798	203.94
808.977	224.42
809.156	187.56
809.336	230.57
809.515	175.27
809.694	109.74
809.873	249
810.052	210.09
810.231	171.18
810.411	101.55
810.59	304.29
810.769	152.74
810.948	246.95
811.127	183.46
811.306	179.37
811.485	203.94
811.664	236.71
811.843	175.27
812.022	222.38
812.201	140.46
812.38	195.75
812.559	179.37
812.737	249
812.916	144.55
813.095	185.51
813.274	224.42
813.453	212.14
813.632	136.36
813.811	185.51
813.989	177.32
814.168	205.99
814.347	185.51
814.526	197.8
814.704	191.66
814.883	197.8
815.062	181.42
815.24	162.98
815.419	171.18
815.598	128.17
815.776	187.56
815.955	224.42
816.133	230.57
816.312	230.57
816.49	193.7
816.669	146.6
816.847	167.08
817.026	109.74
817.204	152.74
817.383	167.08
817.561	146.6
817.74	167.08
817.918	140.46
818.097	169.13
818.275	158.89
818.453	117.93
818.632	140.46
818.81	122.02
818.988	117.93
819.167	148.65
819.345	111.78
819.523	154.79
819.701	165.03
819.879	165.03
820.058	193.7
820.236	130.22
820.414	107.69
820.592	167.08
820.77	148.65
820.948	142.5
821.127	134.31
821.305	150.7
821.483	138.41
821.661	205.99
821.839	95.4
822.017	124.07
822.195	132.26
822.373	128.17
822.551	214.18
822.729	148.65
822.907	111.78
823.085	165.03
823.262	128.17
823.44	101.55
823.618	111.78
823.796	148.65
823.974	165.03
824.152	146.6
824.329	38.06
824.507	171.18
824.685	189.61
824.863	109.74
825.04	185.51
825.218	107.69
825.396	136.36
825.574	101.55
825.751	169.13
825.929	128.17
826.107	115.88
826.284	91.31
826.462	109.74
826.639	109.74
826.817	119.98
826.994	134.31
827.172	76.97
827.349	146.6
827.527	126.12
827.704	97.45
827.882	103.59
828.059	105.64
828.237	89.26
828.414	113.83
828.591	33.96
828.769	79.02
828.946	167.08
829.124	36.01
829.301	60.59
829.478	122.02
829.655	13.48
829.833	152.74
830.01	109.74
830.187	138.41
830.364	42.15
830.542	208.04
830.719	175.27
830.896	134.31
831.073	60.59
831.25	101.55
831.427	83.11
831.604	97.45
831.782	134.31
831.959	181.42
832.136	95.4
832.313	93.35
832.49	3.24
832.667	132.26
832.844	216.23
833.021	89.26
833.198	115.88
833.374	58.54
833.551	40.11
833.728	68.78
833.905	136.36
834.082	91.31
834.259	56.49
834.436	160.94
834.612	74.92
834.789	81.07
834.966	113.83
835.143	44.2
835.319	124.07
835.496	117.93
835.673	42.15
835.85	48.3
836.026	56.49
836.203	140.46
836.38	54.44
836.556	68.78
836.733	46.25
836.909	173.22
837.086	76.97
837.262	48.3
837.439	87.21
837.616	21.67
837.792	70.83
837.968	76.97
838.145	52.39
838.321	42.15
838.498	81.07
838.674	99.5
838.851	58.54
839.027	70.83
839.203	119.98
839.38	74.92
839.556	33.96
839.732	138.41
839.909	101.55
840.085	83.11
840.261	122.02
840.437	115.88
840.614	42.15
840.79	107.69
840.966	23.72
841.142	103.59
841.318	58.54
841.494	189.61
841.671	64.68
841.847	111.78
842.023	87.21
842.199	62.63
842.375	109.74
842.551	46.25
842.727	58.54
842.903	111.78
843.079	68.78
843.255	171.18
843.431	85.16
843.607	111.78
843.783	-37.72
843.959	64.68
844.134	46.25
844.31	113.83
844.486	31.91
844.662	64.68
844.838	48.3
845.013	81.07
845.189	79.02
845.365	101.55
845.541	13.48
845.716	93.35
845.892	146.6
846.068	154.79
846.244	19.63
846.419	54.44
846.595	111.78
846.77	68.78
846.946	79.02
847.122	93.35
847.297	36.01
847.473	44.2
847.648	40.11
847.824	68.78
847.999	-4.95
848.175	107.69
848.35	72.87
848.526	132.26
848.701	72.87
848.876	64.68
849.052	103.59
849.227	93.35
849.403	54.44
849.578	148.65
849.753	95.4
849.929	58.54
850.104	-60.24
850.279	-50
850.454	68.78
850.63	76.97
850.805	68.78
850.98	44.2
851.155	5.29
851.33	60.59
851.505	54.44
851.681	56.49
851.856	81.07
852.031	48.3
852.206	111.78
852.381	58.54
852.556	46.25
852.731	124.07
852.906	64.68
853.081	119.98
853.256	158.89
853.431	97.45
853.606	25.77
853.781	48.3
853.956	21.67
854.131	56.49
854.305	85.16
854.48	109.74
854.655	74.92
854.83	85.16
855.005	54.44
855.18	5.29
855.354	9.39
855.529	85.16
855.704	91.31
855.879	95.4
856.053	25.77
856.228	42.15
856.403	23.72
856.577	50.35
856.752	52.39
856.926	60.59
857.101	140.46
857.276	-7
857.45	97.45
857.625	54.44
857.799	-45.91
857.974	81.07
858.148	9.39
858.323	130.22
858.497	21.67
858.672	97.45
858.846	50.35
859.02	99.5
859.195	21.67
859.369	13.48
859.543	-9.05
859.718	7.34
859.892	29.87
860.066	-4.95
860.241	11.43
860.415	79.02
860.589	42.15
860.763	50.35
860.938	70.83
861.112	3.24
861.286	21.67
861.46	33.96
861.634	23.72
861.808	40.11
861.982	44.2
862.157	130.22
862.331	13.48
862.505	76.97
862.679	9.39
862.853	-7
863.027	50.35
863.201	21.67
863.375	9.39
863.549	23.72
863.722	54.44
863.896	74.92
864.07	-45.91
864.244	109.74
864.418	109.74
864.592	-27.48
864.766	56.49
864.939	89.26
865.113	66.73
865.287	19.63
865.461	29.87
865.634	60.59
865.808	11.43
865.982	27.82
866.156	3.24
866.329	-56.15
866.503	66.73
866.676	122.02
866.85	-19.29
867.024	52.39
867.197	46.25
867.371	115.88
867.544	87.21
867.718	31.91
867.891	44.2
868.065	56.49
868.238	9.39
868.412	72.87
868.585	66.73
868.759	-70.48
868.932	60.59
869.105	-27.48
869.279	87.21
869.452	89.26
869.625	29.87
869.799	44.2
869.972	40.11
870.145	-11.09
870.319	93.35
870.492	19.63
870.665	-9.05
870.838	21.67
871.011	-47.96
871.185	1.19
871.358	68.78
871.531	64.68
871.704	40.11
871.877	72.87
872.05	19.63
872.223	76.97
872.396	42.15
872.569	52.39
872.742	-66.39
872.915	1.19
873.088	40.11
873.261	21.67
873.434	58.54
873.607	66.73
873.78	3.24
873.953	-27.48
874.126	-33.62
874.299	44.2
874.471	42.15
874.644	44.2
874.817	3.24
874.99	97.45
875.163	46.25
875.335	-2.9
875.508	29.87
875.681	44.2
875.853	29.87
876.026	46.25
876.199	13.48
876.371	48.3
876.544	23.72
876.717	54.44
876.889	72.87
877.062	66.73
877.234	33.96
877.407	29.87
877.579	60.59
877.752	40.11
877.924	3.24
878.097	74.92
878.269	13.48
878.442	29.87
878.614	64.68
878.786	-19.29
878.959	64.68
879.131	68.78
879.303	-0.85
879.476	23.72
879.648	31.91
879.82	60.59
879.993	42.15
880.165	50.35
880.337	19.63
880.509	15.53
880.681	-52.05
880.854	64.68
881.026	25.77
881.198	124.07
881.37	40.11
881.542	23.72
881.714	3.24
881.886	19.63
882.058	27.82
882.23	-13.14
882.402	91.31
882.574	50.35
882.746	74.92
882.918	44.2
883.09	58.54
883.262	105.64
883.434	31.91
883.606	66.73
883.778	13.48
883.95	25.77
884.122	76.97
884.293	56.49
884.465	-17.24
884.637	13.48
884.809	-68.44
884.98	33.96
885.152	40.11
885.324	-2.9
885.496	46.25
885.667	79.02
885.839	-43.86
886.011	27.82
886.182	-4.95
886.354	27.82
886.525	-0.85
886.697	9.39
886.869	15.53
887.04	31.91
887.212	29.87
887.383	81.07
887.555	68.78
887.726	-86.87
887.897	9.39
888.069	-23.38
888.24	83.11
888.412	58.54
888.583	15.53
888.754	79.02
888.926	54.44
889.097	97.45
889.268	23.72
889.44	29.87
889.611	-4.95
889.782	9.39
889.953	-47.96
890.125	83.11
890.296	40.11
890.467	62.63
890.638	-70.48
890.809	31.91
890.98	-31.57
891.151	46.25
891.323	27.82
891.494	5.29
891.665	42.15
891.836	5.29
892.007	56.49
892.178	-7
892.349	66.73
892.52	-11.09
892.691	66.73
892.862	-41.81
893.032	52.39
893.203	52.39
893.374	58.54
893.545	19.63
893.716	9.39
893.887	107.69
894.057	48.3
894.228	64.68
894.399	38.06
894.57	50.35
894.74	42.15
894.911	38.06
895.082	19.63
895.253	46.25
895.423	-60.24
895.594	62.63
895.764	27.82
895.935	-76.63
896.106	40.11
896.276	11.43
896.447	13.48
896.617	7.34
896.788	36.01
896.958	13.48
897.129	3.24
897.299	42.15
897.47	27.82
897.64	9.39
897.81	15.53
897.981	40.11
898.151	76.97
898.322	66.73
898.492	66.73
898.662	1.19
898.832	40.11
899.003	17.58
899.173	-33.62
899.343	-19.29
899.513	38.06
