Data from USB4F104151__61__12-01-50-488.txt Node

Date: Fri Mar 14 12:01:50 EDT 2025
User: louis
Spectrometer: USB4F10415
Trigger mode: 4
Integration Time (sec): 2.000000E-2
Scans to average: 1
Electric dark correction enabled: true
Nonlinearity correction enabled: false
Boxcar width: 0
XAxis mode: Wavelengths
Number of Pixels in Spectrum: 3648
>>>>>Begin Spectral Data<<<<<
178.204	-79.7
178.424	-79.7
178.644	-79.7
178.864	-46.93
179.084	-46.93
179.304	10.41
179.524	-34.64
179.744	-38.74
179.964	14.51
180.184	-10.07
180.404	-14.17
180.624	-1.88
180.844	10.41
181.064	-34.64
181.283	-16.21
181.503	37.03
181.723	77.99
181.943	-30.55
182.163	94.38
182.383	-3.93
182.602	37.03
182.822	47.27
183.042	-10.07
183.262	51.37
183.482	41.13
183.701	77.99
183.921	-38.74
184.141	71.85
184.361	92.33
184.58	16.55
184.8	28.84
185.02	45.23
185.239	41.13
185.459	-8.02
185.679	41.13
185.898	53.42
186.118	-1.88
186.338	51.37
186.557	63.66
186.777	-5.97
186.997	10.41
187.216	26.79
187.436	131.24
187.655	24.75
187.875	69.8
188.095	18.6
188.314	96.43
188.534	129.19
188.753	-69.46
188.973	88.23
189.192	39.08
189.412	32.94
189.631	16.55
189.851	14.51
190.07	108.71
190.29	-18.26
190.509	26.79
190.729	92.33
190.948	147.62
191.168	145.58
191.387	127.14
191.607	53.42
191.826	0.17
192.045	73.9
192.265	22.7
192.484	12.46
192.704	80.04
192.923	6.31
193.142	118.95
193.362	-63.32
193.581	39.08
193.8	80.04
194.02	32.94
194.239	90.28
194.458	125.1
194.678	18.6
194.897	71.85
195.116	24.75
195.335	37.03
195.555	10.41
195.774	32.94
195.993	71.85
196.212	18.6
196.432	53.42
196.651	55.47
196.87	69.8
197.089	82.09
197.308	22.7
197.528	16.55
197.747	51.37
197.966	37.03
198.185	49.32
198.404	20.65
198.623	20.65
198.842	67.75
199.062	16.55
199.281	69.8
199.5	92.33
199.719	41.13
199.938	90.28
200.157	77.99
200.376	41.13
200.595	65.71
200.814	22.7
201.033	16.55
201.252	26.79
201.471	-36.69
201.69	-16.21
201.909	84.14
202.128	51.37
202.347	16.55
202.566	-28.5
202.785	43.18
203.004	-1.88
203.223	67.75
203.442	47.27
203.661	92.33
203.879	34.99
204.098	92.33
204.317	57.51
204.536	37.03
204.755	18.6
204.974	39.08
205.193	14.51
205.411	129.19
205.63	51.37
205.849	84.14
206.068	30.89
206.287	22.7
206.505	14.51
206.724	-46.93
206.943	2.22
207.162	45.23
207.381	45.23
207.599	-12.12
207.818	14.51
208.037	-22.36
208.255	77.99
208.474	108.71
208.693	12.46
208.911	82.09
209.13	-24.4
209.349	65.71
209.567	67.75
209.786	112.81
210.005	96.43
210.223	92.33
210.442	-51.03
210.661	47.27
210.879	28.84
211.098	39.08
211.316	63.66
211.535	125.1
211.753	2.22
211.972	30.89
212.191	14.51
212.409	53.42
212.628	71.85
212.846	0.17
213.065	28.84
213.283	84.14
213.502	96.43
213.72	18.6
213.938	37.03
214.157	34.99
214.375	88.23
214.594	16.55
214.812	37.03
215.031	49.32
215.249	61.61
215.467	47.27
215.686	-34.64
215.904	49.32
216.122	53.42
216.341	92.33
216.559	20.65
216.778	59.56
216.996	28.84
217.214	75.95
217.432	47.27
217.651	30.89
217.869	84.14
218.087	104.62
218.306	37.03
218.524	41.13
218.742	6.31
218.96	102.57
219.179	30.89
219.397	-5.97
219.615	116.9
219.833	114.86
220.051	39.08
220.27	143.53
220.488	51.37
220.706	53.42
220.924	47.27
221.142	2.22
221.36	32.94
221.578	22.7
221.796	14.51
222.015	51.37
222.233	6.31
222.451	112.81
222.669	-5.97
222.887	135.34
223.105	-34.64
223.323	8.36
223.541	12.46
223.759	90.28
223.977	55.47
224.195	49.32
224.413	129.19
224.631	88.23
224.849	84.14
225.067	71.85
225.285	-32.6
225.503	80.04
225.721	-26.45
225.939	22.7
226.157	20.65
226.375	125.1
226.592	4.27
226.81	43.18
227.028	57.51
227.246	12.46
227.464	-42.84
227.682	123.05
227.9	112.81
228.117	41.13
228.335	43.18
228.553	45.23
228.771	63.66
228.989	10.41
229.206	28.84
229.424	-53.08
229.642	22.7
229.86	22.7
230.077	61.61
230.295	-1.88
230.513	77.99
230.731	98.47
230.948	77.99
231.166	37.03
231.384	80.04
231.601	77.99
231.819	57.51
232.037	-30.55
232.254	59.56
232.472	96.43
232.689	57.51
232.907	69.8
233.125	-34.64
233.342	80.04
233.56	94.38
233.777	18.6
233.995	-10.07
234.213	-73.56
234.43	98.47
234.648	8.36
234.865	-34.64
235.083	149.67
235.3	55.47
235.518	0.17
235.735	102.57
235.953	20.65
236.17	8.36
236.388	47.27
236.605	84.14
236.822	32.94
237.04	34.99
237.257	82.09
237.475	-16.21
237.692	28.84
237.909	65.71
238.127	32.94
238.344	114.86
238.562	73.9
238.779	32.94
238.996	61.61
239.214	90.28
239.431	69.8
239.648	32.94
239.865	82.09
240.083	57.51
240.3	41.13
240.517	30.89
240.735	82.09
240.952	116.9
241.169	-8.02
241.386	84.14
241.603	8.36
241.821	28.84
242.038	39.08
242.255	77.99
242.472	14.51
242.689	51.37
242.907	51.37
243.124	57.51
243.341	-42.84
243.558	20.65
243.775	32.94
243.992	-5.97
244.209	90.28
244.426	135.34
244.643	82.09
244.86	-3.93
245.078	-30.55
245.295	88.23
245.512	20.65
245.729	-3.93
245.946	80.04
246.163	16.55
246.38	39.08
246.597	43.18
246.814	51.37
247.031	-20.31
247.248	53.42
247.464	47.27
247.681	-46.93
247.898	88.23
248.115	8.36
248.332	8.36
248.549	80.04
248.766	94.38
248.983	12.46
249.2	49.32
249.417	4.27
249.633	-5.97
249.85	69.8
250.067	43.18
250.284	28.84
250.501	14.51
250.717	8.36
250.934	14.51
251.151	90.28
251.368	39.08
251.585	51.37
251.801	45.23
252.018	69.8
252.235	100.52
252.451	82.09
252.668	8.36
252.885	98.47
253.102	61.61
253.318	75.95
253.535	39.08
253.752	30.89
253.968	49.32
254.185	20.65
254.401	18.6
254.618	28.84
254.835	28.84
255.051	37.03
255.268	28.84
255.484	106.67
255.701	84.14
255.917	88.23
256.134	-28.5
256.351	-26.45
256.567	16.55
256.784	57.51
257	90.28
257.217	20.65
257.433	96.43
257.65	30.89
257.866	75.95
258.082	88.23
258.299	37.03
258.515	0.17
258.732	30.89
258.948	8.36
259.165	51.37
259.381	-61.27
259.597	65.71
259.814	94.38
260.03	61.61
260.246	49.32
260.463	92.33
260.679	8.36
260.895	-12.12
261.112	-40.79
261.328	41.13
261.544	88.23
261.761	49.32
261.977	43.18
262.193	0.17
262.409	112.81
262.626	14.51
262.842	63.66
263.058	53.42
263.274	51.37
263.49	65.71
263.707	123.05
263.923	34.99
264.139	-18.26
264.355	-20.31
264.571	26.79
264.787	71.85
265.004	112.81
265.22	57.51
265.436	65.71
265.652	-8.02
265.868	12.46
266.084	73.9
266.3	53.42
266.516	22.7
266.732	10.41
266.948	22.7
267.164	26.79
267.38	34.99
267.596	71.85
267.812	55.47
268.028	96.43
268.244	34.99
268.46	28.84
268.676	20.65
268.892	75.95
269.108	-10.07
269.324	18.6
269.54	24.75
269.756	-5.97
269.972	-24.4
270.188	80.04
270.403	71.85
270.619	26.79
270.835	90.28
271.051	10.41
271.267	86.19
271.483	30.89
271.698	43.18
271.914	-1.88
272.13	51.37
272.346	34.99
272.562	32.94
272.777	125.1
272.993	12.46
273.209	12.46
273.425	-1.88
273.64	-61.27
273.856	69.8
274.072	41.13
274.287	-3.93
274.503	39.08
274.719	65.71
274.934	41.13
275.15	57.51
275.366	18.6
275.581	59.56
275.797	-10.07
276.012	65.71
276.228	32.94
276.444	59.56
276.659	137.38
276.875	39.08
277.09	37.03
277.306	114.86
277.521	30.89
277.737	51.37
277.952	51.37
278.168	-12.12
278.383	49.32
278.599	12.46
278.814	69.8
279.03	51.37
279.245	65.71
279.461	4.27
279.676	100.52
279.892	71.85
280.107	20.65
280.322	108.71
280.538	86.19
280.753	32.94
280.969	145.58
281.184	16.55
281.399	0.17
281.615	-61.27
281.83	18.6
282.045	6.31
282.26	34.99
282.476	102.57
282.691	45.23
282.906	123.05
283.122	96.43
283.337	4.27
283.552	71.85
283.767	4.27
283.983	75.95
284.198	14.51
284.413	-8.02
284.628	6.31
284.843	26.79
285.058	102.57
285.274	18.6
285.489	37.03
285.704	88.23
285.919	90.28
286.134	55.47
286.349	96.43
286.564	18.6
286.779	86.19
286.995	92.33
287.21	-46.93
287.425	69.8
287.64	34.99
287.855	51.37
288.07	26.79
288.285	59.56
288.5	22.7
288.715	8.36
288.93	77.99
289.145	-32.6
289.36	92.33
289.575	24.75
289.79	104.62
290.004	32.94
290.219	84.14
290.434	-12.12
290.649	47.27
290.864	51.37
291.079	10.41
291.294	-28.5
291.509	30.89
291.724	92.33
291.938	4.27
292.153	84.14
292.368	-22.36
292.583	88.23
292.798	67.75
293.012	88.23
293.227	61.61
293.442	49.32
293.657	24.75
293.871	71.85
294.086	-8.02
294.301	114.86
294.516	59.56
294.73	10.41
294.945	67.75
295.16	45.23
295.374	92.33
295.589	-30.55
295.804	2.22
296.018	80.04
296.233	34.99
296.447	94.38
296.662	49.32
296.877	131.24
297.091	-1.88
297.306	34.99
297.52	80.04
297.735	20.65
297.949	77.99
298.164	14.51
298.378	2.22
298.593	41.13
298.807	26.79
299.022	14.51
299.236	-36.69
299.451	26.79
299.665	18.6
299.88	73.9
300.094	47.27
300.309	114.86
300.523	37.03
300.737	24.75
300.952	-46.93
301.166	73.9
301.381	51.37
301.595	106.67
301.809	30.89
302.024	51.37
302.238	37.03
302.452	61.61
302.667	73.9
302.881	24.75
303.095	96.43
303.309	32.94
303.524	69.8
303.738	49.32
303.952	155.82
304.166	84.14
304.381	63.66
304.595	84.14
304.809	-16.21
305.023	43.18
305.237	61.61
305.452	43.18
305.666	32.94
305.88	45.23
306.094	77.99
306.308	49.32
306.522	37.03
306.736	8.36
306.95	51.37
307.164	69.8
307.379	53.42
307.593	63.66
307.807	30.89
308.021	51.37
308.235	67.75
308.449	-16.21
308.663	24.75
308.877	100.52
309.091	8.36
309.305	57.51
309.519	12.46
309.733	106.67
309.947	51.37
310.161	86.19
310.374	59.56
310.588	69.8
310.802	-46.93
311.016	-18.26
311.23	116.9
311.444	98.47
311.658	73.9
311.872	12.46
312.085	61.61
312.299	-3.93
312.513	22.7
312.727	59.56
312.941	55.47
313.154	41.13
313.368	82.09
313.582	84.14
313.796	-26.45
314.009	-34.64
314.223	69.8
314.437	49.32
314.651	-3.93
314.864	30.89
315.078	-12.12
315.292	45.23
315.505	45.23
315.719	43.18
315.933	65.71
316.146	47.27
316.36	28.84
316.573	65.71
316.787	-26.45
317.001	-12.12
317.214	84.14
317.428	55.47
317.641	57.51
317.855	100.52
318.068	30.89
318.282	37.03
318.495	26.79
318.709	77.99
318.922	30.89
319.136	75.95
319.349	18.6
319.563	71.85
319.776	-14.17
319.99	-28.5
320.203	59.56
320.417	67.75
320.63	41.13
320.843	125.1
321.057	41.13
321.27	121
321.483	88.23
321.697	59.56
321.91	43.18
322.124	53.42
322.337	-24.4
322.55	10.41
322.763	63.66
322.977	100.52
323.19	57.51
323.403	55.47
323.617	65.71
323.83	59.56
324.043	57.51
324.256	92.33
324.469	37.03
324.683	108.71
324.896	28.84
325.109	51.37
325.322	102.57
325.535	55.47
325.748	59.56
325.962	73.9
326.175	86.19
326.388	110.76
326.601	69.8
326.814	86.19
327.027	28.84
327.24	30.89
327.453	28.84
327.666	49.32
327.879	57.51
328.092	63.66
328.305	16.55
328.518	-16.21
328.731	24.75
328.944	82.09
329.157	123.05
329.37	22.7
329.583	45.23
329.796	116.9
330.009	59.56
330.222	73.9
330.435	75.95
330.648	73.9
330.861	12.46
331.073	34.99
331.286	30.89
331.499	51.37
331.712	75.95
331.925	12.46
332.138	69.8
332.35	61.61
332.563	59.56
332.776	80.04
332.989	-14.17
333.202	75.95
333.414	32.94
333.627	37.03
333.84	43.18
334.053	37.03
334.265	63.66
334.478	-14.17
334.691	30.89
334.903	71.85
335.116	41.13
335.329	82.09
335.541	37.03
335.754	100.52
335.966	-24.4
336.179	71.85
336.392	39.08
336.604	22.7
336.817	67.75
337.029	0.17
337.242	59.56
337.454	61.61
337.667	28.84
337.88	114.86
338.092	18.6
338.305	47.27
338.517	67.75
338.729	30.89
338.942	133.29
339.154	-51.03
339.367	-5.97
339.579	82.09
339.792	55.47
340.004	137.38
340.217	57.51
340.429	145.58
340.641	55.47
340.854	45.23
341.066	28.84
341.278	57.51
341.491	47.27
341.703	41.13
341.915	53.42
342.128	96.43
342.34	26.79
342.552	125.1
342.764	143.53
342.977	16.55
343.189	-5.97
343.401	47.27
343.613	-28.5
343.826	55.47
344.038	20.65
344.25	106.67
344.462	51.37
344.674	116.9
344.886	20.65
345.099	16.55
345.311	102.57
345.523	43.18
345.735	12.46
345.947	80.04
346.159	26.79
346.371	47.27
346.583	-10.07
346.795	125.1
347.007	121
347.219	47.27
347.431	77.99
347.643	157.86
347.855	18.6
348.067	57.51
348.279	51.37
348.491	26.79
348.703	98.47
348.915	49.32
349.127	34.99
349.339	49.32
349.551	57.51
349.763	51.37
349.975	88.23
350.187	139.43
350.399	55.47
350.61	55.47
350.822	45.23
351.034	0.17
351.246	22.7
351.458	61.61
351.669	51.37
351.881	67.75
352.093	53.42
352.305	73.9
352.517	94.38
352.728	96.43
352.94	100.52
353.152	47.27
353.363	28.84
353.575	112.81
353.787	32.94
353.999	67.75
354.21	45.23
354.422	65.71
354.633	98.47
354.845	71.85
355.057	49.32
355.268	63.66
355.48	98.47
355.692	57.51
355.903	65.71
356.115	86.19
356.326	12.46
356.538	45.23
356.749	77.99
356.961	106.67
357.172	75.95
357.384	63.66
357.595	6.31
357.807	110.76
358.018	49.32
358.23	67.75
358.441	51.37
358.653	94.38
358.864	108.71
359.075	43.18
359.287	135.34
359.498	114.86
359.709	-10.07
359.921	30.89
360.132	59.56
360.344	84.14
360.555	6.31
360.766	47.27
360.977	12.46
361.189	20.65
361.4	96.43
361.611	84.14
361.823	106.67
362.034	69.8
362.245	6.31
362.456	80.04
362.667	80.04
362.879	98.47
363.09	116.9
363.301	53.42
363.512	-36.69
363.723	118.95
363.935	41.13
364.146	67.75
364.357	67.75
364.568	67.75
364.779	-32.6
364.99	106.67
365.201	-16.21
365.412	77.99
365.623	-16.21
365.834	18.6
366.045	26.79
366.256	69.8
366.467	82.09
366.678	34.99
366.889	6.31
367.1	94.38
367.311	71.85
367.522	34.99
367.733	34.99
367.944	86.19
368.155	-48.98
368.366	55.47
368.577	61.61
368.788	34.99
368.999	28.84
369.209	30.89
369.42	151.72
369.631	73.9
369.842	10.41
370.053	51.37
370.264	57.51
370.474	45.23
370.685	14.51
370.896	77.99
371.107	65.71
371.317	172.2
371.528	61.61
371.739	53.42
371.95	53.42
372.16	155.82
372.371	-40.79
372.582	49.32
372.792	131.24
373.003	61.61
373.214	118.95
373.424	149.67
373.635	-12.12
373.846	77.99
374.056	104.62
374.267	96.43
374.477	55.47
374.688	49.32
374.898	82.09
375.109	49.32
375.319	104.62
375.53	98.47
375.74	80.04
375.951	65.71
376.161	80.04
376.372	63.66
376.582	47.27
376.793	30.89
377.003	-32.6
377.214	39.08
377.424	53.42
377.635	73.9
377.845	51.37
378.055	77.99
378.266	59.56
378.476	-5.97
378.686	-12.12
378.897	96.43
379.107	75.95
379.317	67.75
379.528	34.99
379.738	47.27
379.948	22.7
380.158	102.57
380.369	96.43
380.579	51.37
380.789	-5.97
380.999	88.23
381.21	86.19
381.42	141.48
381.63	65.71
381.84	98.47
382.05	110.76
382.261	-1.88
382.471	96.43
382.681	4.27
382.891	69.8
383.101	39.08
383.311	30.89
383.521	92.33
383.731	32.94
383.941	51.37
384.151	75.95
384.361	159.91
384.571	16.55
384.781	82.09
384.991	16.55
385.201	30.89
385.411	53.42
385.621	82.09
385.831	104.62
386.041	63.66
386.251	20.65
386.461	32.94
386.671	45.23
386.881	125.1
387.091	18.6
387.301	28.84
387.511	80.04
387.72	51.37
387.93	106.67
388.14	2.22
388.35	61.61
388.56	90.28
388.769	106.67
388.979	129.19
389.189	59.56
389.399	63.66
389.609	133.29
389.818	51.37
390.028	63.66
390.238	149.67
390.447	75.95
390.657	125.1
390.867	104.62
391.076	12.46
391.286	57.51
391.496	51.37
391.705	57.51
391.915	141.48
392.125	110.76
392.334	61.61
392.544	104.62
392.753	55.47
392.963	22.7
393.172	49.32
393.382	86.19
393.591	61.61
393.801	106.67
394.01	145.58
394.22	63.66
394.429	94.38
394.639	45.23
394.848	106.67
395.058	71.85
395.267	106.67
395.477	168.1
395.686	47.27
395.895	121
396.105	145.58
396.314	157.86
396.524	116.9
396.733	92.33
396.942	100.52
397.152	86.19
397.361	82.09
397.57	92.33
397.78	41.13
397.989	63.66
398.198	139.43
398.407	45.23
398.617	94.38
398.826	145.58
399.035	67.75
399.244	112.81
399.453	96.43
399.663	86.19
399.872	65.71
400.081	80.04
400.29	137.38
400.499	141.48
400.708	88.23
400.917	147.62
401.127	172.2
401.336	147.62
401.545	137.38
401.754	98.47
401.963	178.34
402.172	131.24
402.381	125.1
402.59	145.58
402.799	63.66
403.008	106.67
403.217	82.09
403.426	143.53
403.635	104.62
403.844	133.29
404.053	67.75
404.262	131.24
404.471	108.71
404.68	194.73
404.888	114.86
405.097	96.43
405.306	118.95
405.515	153.77
405.724	172.2
405.933	155.82
406.142	145.58
406.35	168.1
406.559	184.49
406.768	88.23
406.977	233.64
407.185	219.3
407.394	217.26
407.603	209.06
407.812	104.62
408.02	215.21
408.229	286.89
408.438	204.97
408.646	178.34
408.855	221.35
409.064	215.21
409.272	272.55
409.481	284.84
409.69	229.54
409.898	293.03
410.107	227.5
410.315	303.27
410.524	336.04
410.733	387.24
410.941	370.85
411.15	338.09
411.358	338.09
411.567	372.9
411.775	393.38
411.984	401.57
412.192	379.04
412.401	352.42
412.609	422.05
412.818	428.2
413.026	487.59
413.234	456.87
413.443	450.72
413.651	508.07
413.86	450.72
414.068	553.12
414.276	485.54
414.485	614.56
414.693	592.03
414.901	596.13
415.11	667.81
415.318	708.77
415.526	702.62
415.734	649.38
415.943	751.78
416.151	821.41
416.359	835.74
416.567	852.13
416.776	845.98
416.984	874.65
417.192	870.56
417.4	1028.25
417.608	981.15
417.817	948.38
418.025	897.18
418.233	1124.51
418.441	1026.2
418.649	1069.21
418.857	1163.42
419.065	1239.19
419.273	1167.51
419.481	1208.47
419.689	1192.09
419.897	1335.45
420.105	1368.21
420.313	1503.38
420.521	1474.71
420.729	1515.67
420.937	1605.78
421.145	1603.73
421.353	1693.84
421.561	1818.77
421.769	1882.25
421.977	1882.25
422.185	1849.49
422.393	1882.25
422.601	2082.95
422.809	2166.92
423.017	2068.62
423.224	2173.07
423.432	2302.09
423.64	2332.81
423.848	2543.75
424.056	2433.16
424.263	2560.13
424.471	2547.84
424.679	2621.57
424.887	2828.42
425.094	2902.14
425.302	2855.04
425.51	2924.67
425.718	2973.82
425.925	2955.39
426.133	3262.58
426.341	3506.29
426.548	3508.34
426.756	3467.38
426.964	3668.08
427.171	3805.3
427.379	4012.14
427.586	4012.14
427.794	4208.75
428.001	4370.54
428.209	4522.09
428.417	4425.83
428.624	4802.66
428.832	4870.24
429.039	4771.94
429.247	4821.09
429.454	5072.99
429.662	5509.21
429.869	5105.76
430.076	5453.91
430.284	5341.27
430.491	5603.41
430.699	5873.75
430.906	5875.79
431.114	6037.58
431.321	6422.6
431.528	6508.62
431.736	6715.46
431.943	7018.56
432.15	6776.9
432.358	6842.43
432.565	7354.43
432.772	7211.07
432.979	7536.7
433.187	7782.45
433.394	7888.95
433.601	8204.33
433.808	8319.02
434.016	8230.96
434.223	8761.38
434.43	9388.06
434.637	9154.59
434.844	9619.48
435.052	9916.44
435.259	9588.76
435.466	9754.65
435.673	9734.17
435.88	10283.02
436.087	10946.56
436.294	10903.56
436.501	10727.43
436.708	10835.97
436.915	11128.83
437.122	11806.71
437.329	11587.58
437.537	12081.14
437.743	12427.25
437.95	12234.74
438.157	12939.24
438.364	13152.23
438.571	13211.62
438.778	13440.99
438.985	14548.94
439.192	14067.67
439.399	14325.71
439.606	14221.27
439.813	14972.87
440.02	16027.57
440.227	15511.49
440.433	15134.66
440.64	16031.67
440.847	15830.97
441.054	15867.83
441.261	17340.32
441.467	17072.04
441.674	17239.97
441.881	18163.61
442.088	17766.3
442.294	17731.48
442.501	18612.11
442.708	18468.75
442.914	19355.52
443.121	20074.36
443.328	19695.49
443.534	21020.52
443.741	20588.4
443.948	20113.27
444.154	21856.09
444.361	21460.84
444.568	21585.76
444.774	21573.47
444.981	22157.14
445.187	22613.84
445.394	23646.02
445.6	23244.62
445.807	25540.39
446.013	24352.57
446.22	24905.52
446.426	25851.68
446.633	26195.74
446.839	27045.65
447.046	25976.61
447.252	27449.1
447.459	27143.95
447.665	27334.41
447.871	28559.09
448.078	29394.67
448.284	28313.34
448.491	28882.67
448.697	30146.27
448.903	30678.74
449.11	30621.4
449.316	30047.97
449.522	30842.58
449.728	31874.76
449.935	31823.56
450.141	31549.13
450.347	32386.75
450.553	31368.91
450.76	31925.96
450.966	32833.21
451.172	32444.09
451.378	33433.26
451.584	32579.26
451.791	33369.77
451.997	33543.85
452.203	34135.71
452.409	34082.47
452.615	33838.76
452.821	32370.36
453.027	32501.43
453.233	33853.09
453.44	32509.63
453.646	32970.42
453.852	33216.18
454.058	33560.23
454.264	32583.35
454.47	32947.89
454.676	32251.58
454.882	33883.81
455.088	30744.28
455.294	31176.4
455.5	31370.96
455.705	32028.35
455.911	30588.63
456.117	29818.6
456.323	29830.88
456.529	27514.63
456.735	29097.71
456.941	28552.95
457.147	27940.61
457.352	27318.03
457.558	26533.65
457.764	26896.14
457.97	26371.86
458.176	25798.43
458.381	25765.67
458.587	24487.73
458.793	24723.25
458.999	23086.92
459.204	25173.8
459.41	24102.71
459.616	22587.22
459.821	22560.59
460.027	22292.31
460.233	22157.14
460.438	20739.95
460.644	21495.65
460.85	20340.6
461.055	20033.4
461.261	19937.15
461.466	18472.85
461.672	17723.29
461.878	19085.19
462.083	17645.47
462.289	17770.4
462.494	17352.61
462.7	16396.21
462.905	16072.63
463.111	16504.75
463.316	16691.12
463.522	16342.96
463.727	16334.77
463.932	16359.35
464.138	16119.73
464.343	16252.85
464.549	15740.86
464.754	16160.69
464.959	16095.16
465.165	16017.33
465.37	15269.83
465.575	14979.01
465.781	15656.89
465.986	15890.36
466.191	15142.85
466.397	15009.73
466.602	14129.11
466.807	14512.08
467.012	14692.3
467.218	14641.1
467.423	14395.34
467.628	14221.27
467.833	15003.59
468.038	14522.32
468.244	13959.13
468.449	14452.69
468.654	14208.98
468.859	14133.2
469.064	13969.37
469.269	13498.33
469.474	13410.27
469.679	13547.48
469.885	13453.28
470.09	13369.31
470.295	13639.64
470.5	12888.04
470.705	13062.12
470.91	12890.09
471.115	12679.15
471.32	13236.19
471.525	12828.65
471.73	12398.57
471.935	12550.12
472.139	12089.33
472.344	12324.85
472.549	12363.76
472.754	12148.72
472.959	11591.67
473.164	11448.32
473.369	11343.87
473.574	11894.77
473.778	11634.68
473.983	11552.76
474.188	11505.66
474.393	11182.08
474.598	10979.33
474.802	10891.27
475.007	11059.2
475.212	10737.67
475.417	10377.23
475.621	10479.63
475.826	10432.52
476.031	10377.23
476.235	10332.17
476.44	10256.4
476.645	10194.96
476.849	10067.99
477.054	9979.92
477.259	9777.17
477.463	9904.15
477.668	9648.15
477.872	9779.22
478.077	9486.36
478.282	9244.7
478.486	9039.9
478.691	8976.42
478.895	9066.53
479.1	9193.5
479.304	9154.59
479.509	8775.72
479.713	8972.32
479.918	8884.26
480.122	8732.71
480.326	8826.92
480.531	8644.65
480.735	8626.22
480.94	8839.2
481.144	8966.18
481.348	8347.69
481.553	8540.2
481.757	8312.88
481.961	8495.15
482.166	8783.91
482.37	8577.06
482.574	8362.03
482.778	8310.83
482.983	8499.24
483.187	8372.27
483.391	8402.99
483.595	8173.61
483.8	8372.27
484.004	8362.03
484.208	8503.34
484.412	8333.36
484.616	8362.03
484.821	8429.61
485.025	8294.44
485.229	8589.35
485.433	8364.08
485.637	8357.93
485.841	8353.84
486.045	8263.72
486.249	8605.74
486.453	8276.01
486.657	8298.54
486.861	8452.14
487.065	8171.57
487.269	8433.71
487.473	8077.36
487.677	8241.2
487.881	8513.58
488.085	8366.12
488.289	8316.97
488.493	8335.4
488.697	8458.28
488.901	8532.01
489.105	8349.74
489.309	8575.02
489.512	8570.92
489.716	8505.38
489.92	8462.38
490.124	8384.55
490.328	8540.2
490.531	8595.5
490.735	8658.98
490.939	8540.2
491.143	8472.62
491.346	8325.16
491.55	8650.79
491.754	8601.64
491.958	8724.52
492.161	8724.52
492.365	8890.4
492.569	8712.23
492.772	8988.71
492.976	8908.83
493.18	8763.43
493.383	9023.52
493.587	9068.58
493.79	9193.5
493.994	9062.43
494.197	9244.7
494.401	9111.58
494.605	9306.14
494.808	9371.68
495.012	9492.51
495.215	9494.55
495.419	9625.62
495.622	9400.35
495.825	9631.77
496.029	9697.3
496.232	9887.76
496.436	9820.18
496.639	9986.07
496.843	10041.36
497.046	10100.75
497.249	10291.21
497.453	10375.18
497.656	10485.77
497.859	10266.64
498.063	10719.24
498.266	10887.17
498.469	10774.53
498.673	10807.3
498.876	11155.46
499.079	11331.58
499.282	10895.36
499.485	11446.27
499.689	11331.58
499.892	11550.71
500.095	11450.36
500.298	11833.33
500.501	11851.77
500.705	11935.73
500.908	12111.86
501.111	12326.89
501.314	12398.57
501.517	12687.34
501.72	12675.05
501.923	12734.44
502.126	13244.38
502.329	13066.21
502.532	12974.05
502.735	13301.73
502.938	13674.46
503.141	13662.17
503.344	13717.47
503.547	13842.39
503.75	14208.98
503.953	14141.39
504.156	14311.38
504.359	14632.91
504.562	14579.66
504.765	14825.42
504.968	15142.85
505.17	15132.61
505.373	15210.43
505.576	15546.3
505.779	15531.97
505.982	15693.76
506.185	15867.83
506.387	16113.59
506.59	16111.54
506.793	16512.94
506.996	16320.43
507.198	16932.78
507.401	16875.43
507.604	17008.55
507.807	17287.07
508.009	17397.67
508.212	17465.25
508.415	17723.29
508.617	17909.66
508.82	17907.61
509.022	17901.47
509.225	18331.54
509.428	18605.97
509.63	18636.69
509.833	18677.65
510.035	19130.25
510.238	18829.2
510.44	19406.72
510.643	19445.63
510.845	19726.21
511.048	19492.74
511.25	19947.39
511.453	20072.31
511.655	20694.89
511.858	20281.21
512.06	20713.33
512.262	21032.81
512.465	20936.56
512.667	21262.18
512.87	21479.27
513.072	21636.96
513.274	22009.69
513.477	21919.58
513.679	22062.94
513.881	22372.18
514.084	22755.15
514.286	22536.02
514.488	22794.06
514.69	23512.9
514.893	23385.93
515.095	23533.38
515.297	23904.06
515.499	23881.53
515.701	24043.32
515.904	24497.97
516.106	24432.44
516.308	24672.05
516.51	25263.91
516.712	24653.62
516.914	25278.25
517.116	25468.71
517.318	25755.43
517.52	25747.23
517.722	25859.87
517.925	26212.12
518.127	26521.37
518.329	26519.32
518.531	26693.4
518.733	27244.3
518.935	27318.03
519.136	27242.25
519.338	27750.15
519.54	27633.41
519.742	28352.25
519.944	27926.27
520.146	28548.86
520.348	28522.23
520.55	28798.71
520.752	28600.05
520.954	29439.72
521.155	28907.25
521.357	29607.65
521.559	29732.58
521.761	30242.53
521.963	29757.16
522.164	29914.85
522.366	30129.89
522.568	30531.29
522.77	30846.68
522.971	31080.14
523.173	30926.55
523.375	31145.68
523.576	31063.76
523.778	31186.64
523.98	31848.13
524.181	31561.42
524.383	32038.59
524.584	32030.4
524.786	32431.8
524.988	32091.84
525.189	32628.41
525.391	32677.56
525.592	32978.61
525.794	32720.57
525.995	32816.82
526.197	32878.26
526.398	33128.11
526.6	33429.16
526.801	33443.5
527.003	33463.98
527.204	33187.5
527.406	33441.45
527.607	33621.67
527.808	33715.88
528.01	33334.96
528.211	33545.9
528.412	34143.91
528.614	33955.49
528.815	33955.49
529.016	34385.57
529.218	34051.75
529.419	34274.98
529.62	34320.03
529.822	34244.26
530.023	34213.54
530.224	34127.52
530.425	34496.16
530.626	34356.89
530.828	34100.9
531.029	34770.58
531.23	34148
531.431	34803.35
531.632	34784.92
531.833	34971.29
532.035	34584.22
532.236	34565.79
532.437	34875.03
532.638	34725.53
532.839	34856.6
533.04	35036.82
533.241	34436.77
533.442	35303.06
533.643	35151.51
533.844	34664.09
534.045	34909.85
534.246	34496.16
534.447	35108.5
534.648	35012.24
534.849	34782.87
535.05	35090.07
535.251	34571.93
535.451	34731.67
535.652	35186.32
535.853	34764.44
536.054	34635.42
536.255	35188.37
536.456	34651.8
536.657	35354.26
536.857	34907.8
537.058	34930.33
537.259	34647.71
537.46	35163.79
537.66	35057.3
537.861	34993.81
538.062	35006.1
538.263	35112.59
538.463	34893.46
538.664	34969.24
538.865	35245.71
539.065	34903.7
539.266	34655.9
539.466	34629.27
539.667	34670.23
539.868	34885.27
540.068	34872.98
540.269	34698.91
540.469	35040.92
540.67	34412.19
540.87	34866.84
541.071	34969.24
541.271	34889.37
541.472	34569.88
541.672	34649.75
541.873	34686.62
542.073	34246.3
542.274	34692.76
542.474	34332.32
542.675	34483.87
542.875	34735.77
543.075	34598.55
543.276	34197.15
543.476	34823.83
543.676	34320.03
543.877	34565.79
544.077	34475.68
544.277	34438.81
544.478	34295.46
544.678	34713.24
544.878	34565.79
545.078	34444.96
545.279	34404
545.479	34000.55
545.679	34354.85
545.879	34332.32
546.079	33930.92
546.28	34090.66
546.48	33877.67
546.68	34424.48
546.88	34541.21
547.08	34317.98
547.28	34379.42
547.48	34289.31
547.68	34291.36
547.88	34053.8
548.081	34502.3
548.281	34221.73
548.481	33883.81
548.681	34209.44
548.881	33930.92
549.081	33982.12
549.28	33779.37
549.48	34012.84
549.68	33947.3
549.88	34360.99
550.08	33916.58
550.28	33988.26
550.48	33691.3
550.68	34076.32
550.88	33502.89
551.08	34313.89
551.279	33930.92
551.479	33867.43
551.679	33939.11
551.879	33588.91
552.079	34078.37
552.278	33697.45
552.478	33973.92
552.678	33808.04
552.878	33824.42
553.077	33429.16
553.277	33687.21
553.477	34014.88
553.676	33814.18
553.876	33511.08
554.076	33805.99
554.275	33210.03
554.475	33351.34
554.674	33656.49
554.874	33568.43
555.074	33517.23
555.273	33980.07
555.473	33662.63
555.672	33433.26
555.872	33250.99
556.071	33400.49
556.271	33273.52
556.47	33269.42
556.67	33066.67
556.869	33408.68
557.068	33316.53
557.268	33105.59
557.467	33136.31
557.667	33289.9
557.866	33095.35
558.065	33566.38
558.265	32857.78
558.464	32923.32
558.663	33314.48
558.863	32702.14
559.062	33660.59
559.261	32695.99
559.461	33111.73
559.66	32607.93
559.859	33015.47
560.058	32724.66
560.258	32734.9
560.457	32609.98
560.656	32810.68
560.855	32773.81
561.054	32906.93
561.253	32278.21
561.453	32413.37
561.652	32663.22
561.851	32784.05
562.05	32534.2
562.249	32573.11
562.448	33025.71
562.647	32243.39
562.846	32128.7
563.045	32507.58
563.244	32196.29
563.443	32405.18
563.642	31909.57
563.841	32153.28
564.04	31721.16
564.239	32579.26
564.438	31698.63
564.637	31612.62
564.836	32294.59
565.035	31514.31
565.234	32005.83
565.432	31416.01
565.631	31665.86
565.83	31776.45
566.029	31338.19
566.228	31682.25
566.427	31332.04
566.625	31182.54
566.824	31284.94
567.023	31534.79
567.222	31004.37
567.42	31563.47
567.619	30973.65
567.818	31330
568.016	31067.86
568.215	31254.22
568.414	31289.04
568.612	31051.47
568.811	30824.15
569.01	31102.67
569.208	30576.34
569.407	30768.85
569.605	30709.46
569.804	30830.29
570.002	30480.09
570.201	30633.69
570.4	30410.46
570.598	30176.99
570.797	30152.41
570.995	30596.82
571.193	30013.15
571.392	30308.06
571.59	30164.7
571.789	29843.17
571.987	30236.38
572.186	29667.05
572.384	29773.54
572.582	30033.63
572.781	29964
572.979	29421.29
573.177	29599.46
573.376	29822.69
573.574	29153.01
573.772	29599.46
573.971	29333.23
574.169	29241.07
574.367	28980.98
574.565	29660.9
574.763	29341.42
574.962	28985.07
575.16	28694.26
575.358	28937.97
575.556	28634.87
575.754	28964.59
575.952	28546.81
576.151	28720.88
576.349	28581.62
576.547	28575.48
576.745	28280.57
576.943	28440.31
577.141	28110.59
577.339	28385.02
577.537	28155.65
577.735	28372.73
577.933	28339.96
578.131	28120.83
578.329	27629.32
578.527	27922.18
578.725	27924.22
578.923	28151.55
579.121	27766.53
579.319	27735.81
579.516	27928.32
579.714	27770.63
579.912	27633.41
580.11	27356.94
580.308	27512.58
580.506	27483.91
580.704	27041.55
580.901	27678.47
581.099	27606.79
581.297	27152.14
581.495	27033.36
581.692	27334.41
581.89	26965.78
582.088	26916.62
582.285	26707.73
582.483	27006.73
582.681	26668.82
582.878	26498.84
583.076	26447.64
583.274	26677.01
583.471	26142.49
583.669	26441.5
583.866	26257.18
584.064	26748.69
584.262	26216.22
584.459	26230.55
584.657	26156.83
584.854	26402.58
585.052	25734.95
585.249	26093.34
585.447	26009.37
585.644	25442.09
585.841	25855.78
586.039	25597.73
586.236	25450.28
586.434	25597.73
586.631	25337.64
586.828	25530.15
587.026	25315.11
587.223	25145.13
587.42	24964.91
587.618	25304.87
587.815	25073.45
588.012	24682.29
588.21	25032.49
588.407	25192.23
588.604	24969.01
588.801	24604.47
588.999	24688.43
589.196	24563.51
589.393	24444.73
589.59	24565.56
589.787	24233.78
589.984	24391.48
590.182	24020.8
590.379	24411.96
590.576	23781.18
590.773	23936.83
590.97	24006.46
591.167	24192.83
591.364	23664.45
591.561	23762.75
591.758	23529.28
591.955	23441.22
592.152	23910.21
592.349	23627.59
592.546	23498.56
592.743	23209.8
592.94	22947.66
593.137	23113.55
593.334	23338.82
593.531	22959.95
593.727	23174.99
593.924	22849.36
594.121	22912.85
594.318	22962
594.515	22363.99
594.712	23048.01
594.908	22257.5
595.105	22624.08
595.302	22310.74
595.499	22675.28
595.696	22548.31
595.892	22343.51
596.089	22437.72
596.286	22316.89
596.482	22056.79
596.679	21958.49
596.876	22163.29
597.072	22085.47
597.269	22034.27
597.466	21933.92
597.662	21733.22
597.859	21907.29
598.055	21954.4
598.252	21639.01
598.448	21516.13
598.645	21380.96
598.841	21262.18
599.038	21360.48
599.234	21397.35
599.431	21204.84
599.627	21041
599.824	21389.16
600.02	20850.54
600.217	20963.18
600.413	21006.19
600.609	21135.21
600.806	20498.29
601.002	20877.16
601.198	20774.77
601.395	20606.83
601.591	20750.19
601.787	20424.56
601.984	20293.49
602.18	20320.12
602.376	20375.41
602.572	20252.53
602.769	20207.48
602.965	20113.27
603.161	20094.84
603.357	20051.83
603.553	19947.39
603.75	20129.66
603.946	19668.86
604.142	19924.86
604.338	19638.14
604.534	19761.02
604.73	19701.63
604.926	19623.81
605.122	19773.31
605.318	19468.16
605.514	19185.54
605.71	19343.24
605.906	19300.23
606.102	19300.23
606.298	19296.13
606.494	19171.21
606.69	19122.05
606.886	19265.41
607.082	18921.35
607.278	19005.32
607.474	19021.7
607.67	18771.85
607.866	18718.61
608.062	18712.46
608.257	18517.9
608.453	18679.69
608.649	18661.26
608.845	18790.28
609.041	18700.17
609.236	18497.42
609.432	18325.4
609.628	18728.84
609.824	18372.5
610.019	18149.27
610.215	18667.41
610.411	18517.9
610.606	18261.91
610.802	18319.25
610.998	18251.67
611.193	18087.83
611.389	18112.41
611.584	18245.52
611.78	17858.46
611.976	17956.76
612.171	17944.47
612.367	17811.35
612.562	17706.91
612.758	17778.59
612.953	17612.7
613.149	17866.65
613.344	17715.1
613.539	17946.52
613.735	17751.96
613.93	17674.14
614.126	17471.39
614.321	17715.1
614.517	17612.7
614.712	17622.94
614.907	17446.82
615.103	17440.67
615.298	17475.49
615.493	17518.5
615.688	16983.98
615.884	17840.03
616.079	16854.95
616.274	17203.11
616.47	17223.59
616.665	17176.48
616.86	17055.65
617.055	16981.93
617.25	17065.89
617.445	17149.86
617.641	16736.17
617.836	16900.01
618.031	16940.97
618.226	16707.5
618.421	16734.12
618.616	16732.08
618.811	16594.86
619.006	16797.61
619.201	16349.11
619.396	16558
619.591	16302
619.786	16424.88
619.981	16334.77
620.176	16443.31
620.371	16318.39
620.566	15867.83
620.761	16156.6
620.956	16205.75
621.151	15609.79
621.346	16154.55
621.541	15962.04
621.735	15738.81
621.93	15386.56
622.125	15572.93
622.32	15310.79
622.515	15484.86
622.709	15214.53
622.904	15177.67
623.099	15267.78
623.294	15017.93
623.488	15177.67
623.683	14962.63
623.878	14737.35
624.072	14915.53
624.267	14684.11
624.462	14743.5
624.656	14708.68
624.851	14596.04
625.046	14458.83
625.24	14213.07
625.435	14157.78
625.629	14258.13
625.824	14172.11
626.018	14022.61
626.213	13606.88
626.407	14010.32
626.602	13709.27
626.796	13780.95
626.991	13760.47
627.185	13496.28
627.38	13658.07
627.574	13453.28
627.768	13414.37
627.963	13285.34
628.157	13260.77
628.352	13250.53
628.546	13090.79
628.74	13225.95
628.935	12838.89
629.129	12914.66
629.323	12816.36
629.517	12699.62
629.712	12777.45
629.906	12668.91
630.1	12482.54
630.294	12486.64
630.489	12228.59
630.683	12468.2
630.877	12242.93
631.071	12130.29
631.265	12269.55
631.459	12011.51
631.653	12105.71
631.848	11935.73
632.042	11915.25
632.236	11954.16
632.43	11851.77
632.624	11864.05
632.818	11806.71
633.012	11581.43
633.206	11487.23
633.4	11544.57
633.594	11270.14
633.788	11261.95
633.982	11235.33
634.176	11175.94
634.369	11130.88
634.563	11120.64
634.757	11087.87
634.951	11208.7
635.145	11067.39
635.339	10973.19
635.533	11032.58
635.726	10811.4
635.92	10696.71
636.114	10631.18
636.308	10582.03
636.501	10563.59
636.695	10481.67
636.889	10278.93
637.083	10274.83
637.276	10536.97
637.47	10295.31
637.664	10203.15
637.857	10129.42
638.051	10065.94
638.244	10082.32
638.438	10055.7
638.632	10018.83
638.825	9830.42
639.019	9879.57
639.212	9754.65
639.406	9830.42
639.599	9695.25
639.793	9725.97
639.986	9572.38
640.18	9412.64
640.373	9408.54
640.567	9369.63
640.76	9338.91
640.954	9375.77
641.147	9396.25
641.34	9367.58
641.534	9246.75
641.727	9130.02
641.92	9068.58
642.114	9250.85
642.307	9009.19
642.5	8839.2
642.694	8650.79
642.887	8667.17
643.08	8812.58
643.273	8824.87
643.467	8642.6
643.66	8536.1
643.853	8468.52
644.046	8519.72
644.239	8450.09
644.432	8521.77
644.626	8439.85
644.819	8300.59
645.012	8312.88
645.205	8310.83
645.398	8327.21
645.591	8183.85
645.784	8126.51
645.977	7995.44
646.17	8063.02
646.363	7946.29
646.556	7997.49
646.749	7936.05
646.942	7985.2
647.135	7739.44
647.328	7802.93
647.521	7764.02
647.714	7788.6
647.907	7690.29
648.099	7616.57
648.292	7743.54
648.485	7874.61
648.678	7495.74
648.871	7557.18
649.064	7462.97
649.256	7501.88
649.449	7381.05
649.642	7241.79
649.835	7157.82
650.027	7192.64
650.22	7428.15
650.413	7139.39
650.605	7215.16
650.798	7245.88
650.991	7161.92
651.183	7174.21
651.376	7000.13
651.568	6996.03
651.761	7020.61
651.954	7006.27
652.146	6813.76
652.339	6815.81
652.531	6733.89
652.724	6957.12
652.916	6752.32
653.109	6555.72
653.301	6871.11
653.494	6641.73
653.686	6598.73
653.879	6680.64
654.071	6393.93
654.263	6531.14
654.456	6463.56
654.648	6443.08
654.84	6373.45
655.033	6303.82
655.225	6207.56
655.417	6408.26
655.61	6412.36
655.802	6176.84
655.994	6056.01
656.186	6178.89
656.379	5963.86
656.571	6084.69
656.763	6029.39
656.955	5929.04
657.148	5904.46
657.34	6101.07
657.532	5865.55
657.724	5775.44
657.916	5748.82
658.108	5886.03
658.3	5908.56
658.492	5933.14
658.684	5660.76
658.876	5716.05
659.068	5726.29
659.26	5615.7
659.452	5582.93
659.644	5548.12
659.836	5611.61
660.028	5560.41
660.22	5421.14
660.412	5470.3
660.604	5345.37
660.796	5365.85
660.988	5490.77
661.18	5415
661.372	5433.43
661.563	5374.04
661.755	5328.99
661.947	5351.51
662.139	5324.89
662.331	5173.34
662.522	5275.74
662.714	5150.81
662.906	5072.99
663.097	5156.96
663.289	5116
663.481	5025.89
663.673	5079.13
663.864	5056.61
664.056	4892.77
664.247	4962.4
664.439	5032.03
664.631	4968.54
664.822	5023.84
665.014	4741.22
665.205	4816.99
665.397	4808.8
665.588	4890.72
665.78	4845.66
665.971	4853.86
666.163	4751.46
666.354	4704.35
666.546	4667.49
666.737	4628.58
666.929	4640.87
667.12	4716.64
667.311	4610.15
667.503	4526.18
667.694	4532.33
667.885	4491.37
668.077	4683.88
668.268	4577.38
668.459	4468.84
668.651	4315.24
668.842	4444.26
669.033	4483.17
669.224	4288.62
669.416	4548.71
669.607	4421.74
669.798	4374.63
669.989	4231.27
670.18	4302.95
670.371	4337.77
670.563	4288.62
670.754	4372.58
670.945	4206.7
671.136	4300.91
671.327	4243.56
671.518	4145.26
671.709	4257.9
671.9	4122.73
672.091	4139.12
672.282	4065.39
672.473	4094.06
672.664	4155.5
672.855	4124.78
673.046	4016.24
673.237	3983.47
673.428	4014.19
673.619	4098.16
673.809	3922.03
674	4022.38
674.191	3930.22
674.382	3850.35
674.573	3991.66
674.764	3928.17
674.954	3934.32
675.145	3795.06
675.336	3840.11
675.527	3762.29
675.717	3901.55
675.908	3743.86
676.099	3862.64
676.289	3772.53
676.48	3678.32
676.671	3756.15
676.861	3793.01
677.052	3702.9
677.243	3760.24
677.433	3709.04
677.624	3745.91
677.814	3858.54
678.005	3750
678.195	3631.22
678.386	3657.84
678.576	3676.27
678.767	3774.58
678.957	3700.85
679.148	3528.82
679.338	3672.18
679.529	3571.83
679.719	3539.06
679.909	3635.32
680.1	3528.82
680.29	3737.71
680.481	3543.16
680.671	3522.68
680.861	3549.3
681.052	3555.44
681.242	3516.53
681.432	3510.39
681.622	3547.25
681.813	3643.51
682.003	3412.09
682.193	3559.54
682.383	3483.77
682.573	3543.16
682.764	3432.57
682.954	3496.05
683.144	3592.31
683.334	3389.56
683.524	3313.78
683.714	3516.53
683.904	3477.62
684.094	3364.98
684.284	3436.66
684.474	3440.76
684.664	3395.7
684.854	3383.42
685.044	3385.46
685.234	3254.39
685.424	3379.32
685.614	3219.58
685.804	3221.63
685.994	3221.63
686.184	3395.7
686.374	3180.67
686.564	3262.58
686.753	3256.44
686.943	3195
687.133	3143.8
687.323	3205.24
687.513	3256.44
687.702	3192.95
687.892	3035.26
688.082	3145.85
688.272	3092.6
688.461	3123.32
688.651	3192.95
688.841	3076.22
689.03	3121.28
689.22	3070.08
689.41	3111.04
689.599	3078.27
689.789	2939.01
689.979	2992.25
690.168	2943.1
690.358	3037.31
690.547	2953.34
690.737	2918.53
690.926	3086.46
691.116	2891.9
691.305	2975.87
691.495	2945.15
691.684	2863.23
691.874	2822.27
692.063	2861.18
692.252	2734.21
692.442	2883.71
692.631	2730.11
692.82	2850.94
693.01	2726.02
693.199	2769.02
693.388	2723.97
693.578	2859.14
693.767	2826.37
693.956	2787.46
694.146	2723.97
694.335	2699.39
694.524	2863.23
694.713	2652.29
694.902	2871.42
695.092	2746.5
695.281	2715.78
695.47	2695.3
695.659	2627.71
695.848	2646.15
696.037	2613.38
696.226	2635.91
696.415	2588.8
696.604	2666.63
696.793	2719.87
696.982	2488.45
697.171	2705.54
697.36	2568.32
697.549	2588.8
697.738	2578.56
697.927	2541.7
698.116	2726.02
698.305	2558.08
698.494	2539.65
698.683	2562.18
698.872	2484.36
699.061	2500.74
699.25	2556.04
699.438	2625.67
699.627	2640
699.816	2670.72
700.005	2513.03
700.193	2584.71
700.382	2664.58
700.571	2547.84
700.76	2560.13
700.948	2523.27
701.137	2455.69
701.326	2523.27
701.514	2535.56
701.703	2535.56
701.892	2560.13
702.08	2640
702.269	2482.31
702.457	2574.47
702.646	2584.71
702.834	2551.94
703.023	2472.07
703.212	2556.04
703.4	2580.61
703.589	2603.14
703.777	2562.18
703.965	2545.8
704.154	2560.13
704.342	2525.32
704.531	2549.89
704.719	2615.43
704.907	2607.23
705.096	2445.45
705.284	2599.04
705.472	2484.36
705.661	2590.85
705.849	2599.04
706.037	2644.1
706.226	2629.76
706.414	2508.93
706.602	2480.26
706.79	2562.18
706.979	2635.91
707.167	2592.9
707.355	2670.72
707.543	2629.76
707.731	2566.28
707.919	2551.94
708.107	2603.14
708.296	2492.55
708.484	2500.74
708.672	2558.08
708.86	2433.16
709.048	2658.43
709.236	2543.75
709.424	2609.28
709.612	2467.97
709.8	2420.87
709.988	2529.41
710.176	2570.37
710.364	2490.5
710.551	2500.74
710.739	2547.84
710.927	2410.63
711.115	2472.07
711.303	2463.88
711.491	2580.61
711.679	2519.17
711.866	2521.22
712.054	2482.31
712.242	2640
712.43	2535.56
712.617	2607.23
712.805	2558.08
712.993	2420.87
713.181	2558.08
713.368	2427.01
713.556	2529.41
713.744	2551.94
713.931	2619.52
714.119	2506.88
714.306	2562.18
714.494	2502.79
714.682	2459.78
714.869	2513.03
715.057	2707.59
715.244	2513.03
715.432	2480.26
715.619	2572.42
715.807	2578.56
715.994	2484.36
716.182	2611.33
716.369	2496.64
716.556	2568.32
716.744	2431.11
716.931	2601.09
717.119	2510.98
717.306	2467.97
717.493	2576.52
717.681	2490.5
717.868	2478.21
718.055	2558.08
718.242	2498.69
718.43	2515.08
718.617	2498.69
718.804	2541.7
718.991	2445.45
719.179	2424.97
719.366	2535.56
719.553	2400.39
719.74	2521.22
719.927	2558.08
720.114	2527.36
720.301	2404.49
720.488	2515.08
720.676	2414.73
720.863	2580.61
721.05	2476.16
721.237	2408.58
721.424	2470.02
721.611	2502.79
721.798	2644.1
721.985	2406.53
722.172	2494.6
722.358	2398.34
722.545	2525.32
722.732	2457.73
722.919	2451.59
723.106	2560.13
723.293	2488.45
723.48	2521.22
723.667	2433.16
723.853	2453.64
724.04	2338.95
724.227	2603.14
724.414	2394.25
724.6	2504.84
724.787	2427.01
724.974	2472.07
725.161	2447.49
725.347	2427.01
725.534	2371.72
725.72	2588.8
725.907	2336.9
726.094	2535.56
726.28	2427.01
726.467	2459.78
726.653	2414.73
726.84	2439.3
727.027	2381.96
727.213	2490.5
727.4	2582.66
727.586	2437.25
727.773	2420.87
727.959	2228.36
728.145	2420.87
728.332	2412.68
728.518	2402.44
728.705	2521.22
728.891	2449.54
729.077	2461.83
729.264	2384.01
729.45	2527.36
729.636	2531.46
729.823	2457.73
730.009	2455.69
730.195	2424.97
730.382	2513.03
730.568	2508.93
730.754	2379.91
730.94	2367.62
731.126	2439.3
731.313	2322.57
731.499	2271.37
731.685	2384.01
731.871	2355.33
732.057	2386.05
732.243	2390.15
732.429	2406.53
732.615	2336.9
732.801	2422.92
732.987	2304.14
733.173	2328.71
733.359	2287.75
733.545	2390.15
733.731	2330.76
733.917	2412.68
734.103	2242.7
734.289	2306.18
734.475	2302.09
734.661	2312.33
734.847	2293.9
735.033	2275.46
735.219	2377.86
735.404	2297.99
735.59	2275.46
735.776	2336.9
735.962	2207.88
736.148	2228.36
736.333	2314.38
736.519	2246.79
736.705	2257.03
736.89	2316.42
737.076	2072.72
737.262	2193.55
737.447	2130.06
737.633	2140.3
737.819	2218.12
738.004	2105.48
738.19	2236.55
738.375	2232.46
738.561	2226.31
738.747	2300.04
738.932	2232.46
739.118	2295.94
739.303	2171.02
739.489	2162.83
739.674	2087.05
739.859	2183.31
740.045	2211.98
740.23	2289.8
740.416	2195.59
740.601	2285.7
740.786	2197.64
740.972	2048.14
741.157	2066.57
741.342	2091.15
741.528	2117.77
741.713	2080.91
741.898	2078.86
742.084	2070.67
742.269	2216.07
742.454	2052.24
742.639	2089.1
742.824	2074.76
743.01	2105.48
743.195	2031.76
743.38	2062.48
743.565	2011.28
743.75	2101.39
743.935	1970.32
744.12	2054.28
744.305	1941.65
744.49	2035.85
744.675	2078.86
744.86	2005.13
745.045	2023.56
745.23	2001.04
745.415	2072.72
745.6	2037.9
745.785	1908.88
745.97	1925.26
746.155	1943.69
746.34	1833.1
746.525	1730.7
746.71	1908.88
746.895	1816.72
747.079	1882.25
747.264	1820.81
747.449	1865.87
747.634	1779.86
747.819	1738.9
748.003	1738.9
748.188	1740.94
748.373	1841.29
748.557	1767.57
748.742	1777.81
748.927	1745.04
749.111	1667.22
749.296	1642.64
749.481	1632.4
749.665	1671.31
749.85	1616.02
750.034	1683.6
750.219	1568.91
750.404	1607.83
750.588	1573.01
750.773	1554.58
750.957	1622.16
751.141	1587.35
751.326	1523.86
751.51	1593.49
751.695	1550.48
751.879	1585.3
752.064	1581.2
752.248	1564.82
752.432	1511.57
752.617	1493.14
752.801	1536.15
752.985	1519.76
753.17	1579.15
753.354	1439.89
753.538	1632.4
753.722	1382.55
753.907	1390.74
754.091	1370.26
754.275	1296.53
754.459	1423.51
754.643	1351.83
754.828	1429.65
755.012	1433.75
755.196	1343.64
755.38	1403.03
755.564	1390.74
755.748	1376.41
755.932	1296.53
756.116	1333.4
756.3	1296.53
756.484	1282.2
756.668	1319.06
756.852	1177.75
757.036	1306.77
757.22	1202.33
757.404	1241.24
757.588	1245.34
757.772	1357.97
757.956	1214.62
758.14	1343.64
758.323	1245.34
758.507	1198.23
758.691	1202.33
758.875	1239.19
759.059	1122.46
759.242	1300.63
759.426	1228.95
759.61	1269.91
759.794	1108.12
759.977	1110.17
760.161	1214.62
760.345	1167.51
760.528	1081.5
760.712	1079.45
760.895	1116.31
761.079	1134.75
761.263	1128.6
761.446	1009.82
761.63	1136.79
761.813	1175.7
761.997	1018.01
762.18	1087.64
762.364	1087.64
762.547	1056.92
762.731	1054.87
762.914	968.86
763.098	1018.01
763.281	1073.31
763.464	1003.68
763.648	1052.83
763.831	1040.54
764.015	1030.3
764.198	997.53
764.381	1063.07
764.564	983.2
764.748	919.71
764.931	989.34
765.114	972.96
765.297	985.24
765.481	985.24
765.664	1007.77
765.847	921.76
766.03	962.72
766.213	952.48
766.397	995.48
766.58	1028.25
766.763	958.62
766.946	903.32
767.129	968.86
767.312	790.69
767.495	845.98
767.678	909.47
767.861	956.57
768.044	962.72
768.227	884.89
768.41	962.72
768.593	893.09
768.776	850.08
768.959	862.37
769.142	835.74
769.324	860.32
769.507	878.75
769.69	891.04
769.873	807.07
770.056	970.91
770.239	944.28
770.421	872.61
770.604	778.4
770.787	768.16
770.97	907.42
771.152	839.84
771.335	792.73
771.518	790.69
771.7	909.47
771.883	745.63
772.066	817.31
772.248	788.64
772.431	710.82
772.613	802.97
772.796	852.13
772.978	798.88
773.161	858.27
773.343	798.88
773.526	784.54
773.708	780.45
773.891	751.78
774.073	821.41
774.256	784.54
774.438	782.49
774.621	704.67
774.803	688.29
774.985	692.38
775.168	710.82
775.35	739.49
775.532	794.78
775.715	727.2
775.897	637.09
776.079	694.43
776.261	702.62
776.444	682.14
776.626	639.14
776.808	659.62
776.99	624.8
777.173	624.8
777.355	669.86
777.537	620.71
777.719	676
777.901	655.52
778.083	579.75
778.265	526.5
778.447	708.77
778.629	573.6
778.811	688.29
778.993	618.66
779.175	678.05
779.357	610.47
779.539	569.51
779.721	645.28
779.903	569.51
780.085	579.75
780.267	569.51
780.449	639.14
780.631	616.61
780.812	575.65
780.994	538.79
781.176	514.21
781.358	487.59
781.54	491.68
781.721	542.88
781.903	573.6
782.085	553.12
782.267	569.51
782.448	573.6
782.63	501.92
782.812	520.35
782.993	499.88
783.175	563.36
783.357	460.96
783.538	546.98
783.72	372.9
783.901	458.92
784.083	559.27
784.264	495.78
784.446	426.15
784.627	460.96
784.809	434.34
784.99	432.29
785.172	489.64
785.353	477.35
785.535	469.16
785.716	444.58
785.897	446.63
786.079	411.81
786.26	456.87
786.441	420
786.623	395.43
786.804	409.76
786.985	450.72
787.167	430.24
787.348	420
787.529	438.44
787.71	450.72
787.891	434.34
788.073	420
788.254	428.2
788.435	460.96
788.616	383.14
788.797	368.81
788.978	399.52
789.159	366.76
789.34	379.04
789.522	299.17
789.703	430.24
789.884	346.28
790.065	405.67
790.246	428.2
790.427	393.38
790.607	417.96
790.788	428.2
790.969	333.99
791.15	379.04
791.331	327.85
791.512	352.42
791.693	286.89
791.874	389.28
792.054	436.39
792.235	424.1
792.416	317.61
792.597	272.55
792.778	342.18
792.958	313.51
793.139	317.61
793.32	370.85
793.5	327.85
793.681	293.03
793.862	307.37
794.042	331.94
794.223	276.65
794.404	309.41
794.584	329.89
794.765	311.46
794.945	280.74
795.126	319.65
795.306	329.89
795.487	266.41
795.667	338.09
795.848	241.83
796.028	288.93
796.209	295.08
796.389	282.79
796.57	256.17
796.75	217.26
796.93	307.37
797.111	276.65
797.291	346.28
797.471	233.64
797.652	239.78
797.832	258.21
798.012	288.93
798.192	290.98
798.373	229.54
798.553	313.51
798.733	272.55
798.913	301.22
799.093	233.64
799.274	276.65
799.454	180.39
799.634	276.65
799.814	270.5
799.994	295.08
800.174	280.74
800.354	250.02
800.534	194.73
800.714	313.51
800.894	311.46
801.074	237.74
801.254	268.45
801.434	245.93
801.614	276.65
801.794	286.89
801.974	647.33
802.154	225.45
802.334	225.45
802.514	174.25
802.693	196.78
802.873	112.81
803.053	258.21
803.233	166.06
803.413	225.45
803.592	256.17
803.772	264.36
803.952	151.72
804.131	225.45
804.311	223.4
804.491	139.43
804.67	166.06
804.85	139.43
805.03	164.01
805.209	256.17
805.389	194.73
805.568	225.45
805.748	182.44
805.928	239.78
806.107	176.3
806.287	247.97
806.466	209.06
806.646	221.35
806.825	125.1
807.004	178.34
807.184	225.45
807.363	190.63
807.543	145.58
807.722	207.02
807.901	149.67
808.081	190.63
808.26	112.81
808.439	155.82
808.619	176.3
808.798	180.39
808.977	184.49
809.156	211.11
809.336	180.39
809.515	278.69
809.694	90.28
809.873	176.3
810.052	170.15
810.231	147.62
810.411	256.17
810.59	172.2
810.769	104.62
810.948	215.21
811.127	143.53
811.306	147.62
811.485	147.62
811.664	155.82
811.843	125.1
812.022	188.58
812.201	209.06
812.38	127.14
812.559	106.67
812.737	213.16
812.916	129.19
813.095	225.45
813.274	135.34
813.453	192.68
813.632	161.96
813.811	170.15
813.989	172.2
814.168	168.1
814.347	123.05
814.526	184.49
814.704	176.3
814.883	166.06
815.062	141.48
815.24	200.87
815.419	118.95
815.598	118.95
815.776	153.77
815.955	170.15
816.133	82.09
816.312	174.25
816.49	157.86
816.669	184.49
816.847	133.29
817.026	127.14
817.204	174.25
817.383	104.62
817.561	88.23
817.74	139.43
817.918	147.62
818.097	164.01
818.275	133.29
818.453	233.64
818.632	110.76
818.81	178.34
818.988	96.43
819.167	118.95
819.345	157.86
819.523	118.95
819.701	139.43
819.879	145.58
820.058	82.09
820.236	204.97
820.414	108.71
820.592	121
820.77	172.2
820.948	116.9
821.127	129.19
821.305	184.49
821.483	86.19
821.661	153.77
821.839	84.14
822.017	116.9
822.195	135.34
822.373	108.71
822.551	12.46
822.729	186.54
822.907	161.96
823.085	123.05
823.262	178.34
823.44	112.81
823.618	57.51
823.796	69.8
823.974	129.19
824.152	69.8
824.329	127.14
824.507	164.01
824.685	90.28
824.863	49.32
825.04	131.24
825.218	166.06
825.396	88.23
825.574	100.52
825.751	114.86
825.929	43.18
826.107	55.47
826.284	77.99
826.462	71.85
826.639	127.14
826.817	20.65
826.994	98.47
827.172	53.42
827.349	151.72
827.527	118.95
827.704	155.82
827.882	125.1
828.059	161.96
828.237	153.77
828.414	161.96
828.591	77.99
828.769	143.53
828.946	8.36
829.124	194.73
829.301	133.29
829.478	129.19
829.655	116.9
829.833	86.19
830.01	34.99
830.187	114.86
830.364	114.86
830.542	94.38
830.719	114.86
830.896	88.23
831.073	90.28
831.25	190.63
831.427	94.38
831.604	90.28
831.782	166.06
831.959	102.57
832.136	153.77
832.313	102.57
832.49	90.28
832.667	98.47
832.844	118.95
833.021	123.05
833.198	135.34
833.374	133.29
833.551	141.48
833.728	141.48
833.905	82.09
834.082	131.24
834.259	86.19
834.436	121
834.612	63.66
834.789	147.62
834.966	59.56
835.143	102.57
835.319	80.04
835.496	98.47
835.673	8.36
835.85	143.53
836.026	53.42
836.203	80.04
836.38	131.24
836.556	45.23
836.733	94.38
836.909	77.99
837.086	-1.88
837.262	80.04
837.439	116.9
837.616	141.48
837.792	55.47
837.968	28.84
838.145	0.17
838.321	16.55
838.498	141.48
838.674	88.23
838.851	22.7
839.027	71.85
839.203	24.75
839.38	65.71
839.556	-5.97
839.732	41.13
839.909	164.01
840.085	100.52
840.261	30.89
840.437	135.34
840.614	16.55
840.79	51.37
840.966	104.62
841.142	104.62
841.318	86.19
841.494	90.28
841.671	84.14
841.847	57.51
842.023	39.08
842.199	90.28
842.375	37.03
842.551	51.37
842.727	32.94
842.903	82.09
843.079	57.51
843.255	63.66
843.431	41.13
843.607	131.24
843.783	26.79
843.959	145.58
844.134	12.46
844.31	110.76
844.486	55.47
844.662	69.8
844.838	47.27
845.013	157.86
845.189	0.17
845.365	59.56
845.541	104.62
845.716	69.8
845.892	18.6
846.068	18.6
846.244	88.23
846.419	118.95
846.595	-24.4
846.77	51.37
846.946	77.99
847.122	135.34
847.297	16.55
847.473	100.52
847.648	88.23
847.824	57.51
847.999	20.65
848.175	71.85
848.35	45.23
848.526	73.9
848.701	65.71
848.876	47.27
849.052	100.52
849.227	-8.02
849.403	24.75
849.578	55.47
849.753	22.7
849.929	80.04
850.104	4.27
850.279	22.7
850.454	41.13
850.63	12.46
850.805	14.51
850.98	118.95
851.155	24.75
851.33	94.38
851.505	10.41
851.681	129.19
851.856	28.84
852.031	43.18
852.206	96.43
852.381	55.47
852.556	26.79
852.731	106.67
852.906	4.27
853.081	121
853.256	-16.21
853.431	135.34
853.606	-22.36
853.781	39.08
853.956	-22.36
854.131	63.66
854.305	129.19
854.48	10.41
854.655	-22.36
854.83	30.89
855.005	32.94
855.18	118.95
855.354	92.33
855.529	39.08
855.704	10.41
855.879	86.19
856.053	55.47
856.228	57.51
856.403	22.7
856.577	47.27
856.752	2.22
856.926	30.89
857.101	-18.26
857.276	51.37
857.45	84.14
857.625	112.81
857.799	86.19
857.974	61.61
858.148	47.27
858.323	77.99
858.497	-28.5
858.672	-30.55
858.846	-1.88
859.02	24.75
859.195	28.84
859.369	32.94
859.543	53.42
859.718	69.8
859.892	43.18
860.066	96.43
860.241	-32.6
860.415	28.84
860.589	22.7
860.763	4.27
860.938	-18.26
861.112	10.41
861.286	43.18
861.46	84.14
861.634	28.84
861.808	53.42
861.982	-8.02
862.157	43.18
862.331	10.41
862.505	-3.93
862.679	69.8
862.853	-32.6
863.027	41.13
863.201	45.23
863.375	47.27
863.549	94.38
863.722	43.18
863.896	116.9
864.07	18.6
864.244	43.18
864.418	43.18
864.592	32.94
864.766	39.08
864.939	28.84
865.113	32.94
865.287	45.23
865.461	2.22
865.634	73.9
865.808	110.76
865.982	57.51
866.156	110.76
866.329	-3.93
866.503	26.79
866.676	-3.93
866.85	-10.07
867.024	-34.64
867.197	18.6
867.371	53.42
867.544	20.65
867.718	47.27
867.891	41.13
868.065	88.23
868.238	-18.26
868.412	63.66
868.585	-5.97
868.759	69.8
868.932	-28.5
869.105	-30.55
869.279	53.42
869.452	71.85
869.625	57.51
869.799	88.23
869.972	-36.69
870.145	24.75
870.319	53.42
870.492	82.09
870.665	-40.79
870.838	47.27
871.011	16.55
871.185	96.43
871.358	90.28
871.531	45.23
871.704	10.41
871.877	0.17
872.05	-10.07
872.223	37.03
872.396	32.94
872.569	16.55
872.742	53.42
872.915	26.79
873.088	22.7
873.261	92.33
873.434	28.84
873.607	49.32
873.78	41.13
873.953	-14.17
874.126	0.17
874.299	-71.51
874.471	55.47
874.644	77.99
874.817	26.79
874.99	112.81
875.163	0.17
875.335	43.18
875.508	6.31
875.681	65.71
875.853	14.51
876.026	37.03
876.199	49.32
876.371	73.9
876.544	22.7
876.717	-16.21
876.889	47.27
877.062	12.46
877.234	69.8
877.407	-40.79
877.579	47.27
877.752	51.37
877.924	59.56
878.097	98.47
878.269	-42.84
878.442	26.79
878.614	55.47
878.786	-16.21
878.959	-1.88
879.131	61.61
879.303	41.13
879.476	77.99
879.648	20.65
879.82	49.32
879.993	14.51
880.165	20.65
880.337	-36.69
880.509	22.7
880.681	-48.98
880.854	75.95
881.026	-3.93
881.198	92.33
881.37	57.51
881.542	51.37
881.714	-3.93
881.886	34.99
882.058	30.89
882.23	49.32
882.402	20.65
882.574	65.71
882.746	41.13
882.918	69.8
883.09	18.6
883.262	-59.22
883.434	6.31
883.606	-40.79
883.778	2.22
883.95	98.47
884.122	59.56
884.293	28.84
884.465	86.19
884.637	49.32
884.809	71.85
884.98	49.32
885.152	4.27
885.324	41.13
885.496	39.08
885.667	102.57
885.839	-1.88
886.011	-5.97
886.182	16.55
886.354	-57.17
886.525	39.08
886.697	53.42
886.869	-24.4
887.04	41.13
887.212	39.08
887.383	94.38
887.555	37.03
887.726	49.32
887.897	18.6
888.069	84.14
888.24	77.99
888.412	45.23
888.583	32.94
888.754	51.37
888.926	34.99
889.097	39.08
889.268	30.89
889.44	-1.88
889.611	-10.07
889.782	45.23
889.953	-14.17
890.125	90.28
890.296	-8.02
890.467	-16.21
890.638	51.37
890.809	61.61
890.98	-10.07
891.151	32.94
891.323	-5.97
891.494	10.41
891.665	12.46
891.836	34.99
892.007	84.14
892.178	118.95
892.349	16.55
892.52	63.66
892.691	18.6
892.862	18.6
893.032	12.46
893.203	2.22
893.374	-14.17
893.545	49.32
893.716	6.31
893.887	45.23
894.057	2.22
894.228	10.41
894.399	20.65
894.57	77.99
894.74	2.22
894.911	12.46
895.082	8.36
895.253	-8.02
895.423	16.55
895.594	53.42
895.764	26.79
895.935	80.04
896.106	22.7
896.276	22.7
896.447	65.71
896.617	-12.12
896.788	32.94
896.958	65.71
897.129	-24.4
897.299	-14.17
897.47	39.08
897.64	20.65
897.81	32.94
897.981	39.08
898.151	12.46
898.322	28.84
898.492	51.37
898.662	43.18
898.832	71.85
899.003	-10.07
899.173	-26.45
899.343	43.18
899.513	14.51
