Data from USB4F104151__35__12-00-43-352.txt Node

Date: Fri Mar 14 12:00:43 EDT 2025
User: louis
Spectrometer: USB4F10415
Trigger mode: 4
Integration Time (sec): 2.000000E-2
Scans to average: 1
Electric dark correction enabled: true
Nonlinearity correction enabled: false
Boxcar width: 0
XAxis mode: Wavelengths
Number of Pixels in Spectrum: 3648
>>>>>Begin Spectral Data<<<<<
178.204	-50.18
178.424	-50.18
178.644	-50.18
178.864	-52.22
179.084	-1.02
179.304	41.98
179.524	-33.79
179.744	58.37
179.964	5.12
180.184	-25.6
180.404	76.8
180.624	-72.7
180.844	31.74
181.064	-21.5
181.283	-62.46
181.503	17.41
181.723	-15.36
181.943	-97.28
182.163	-17.41
182.383	87.04
182.602	23.55
182.822	105.47
183.042	37.89
183.262	21.5
183.482	29.7
183.701	-13.31
183.921	56.32
184.141	31.74
184.361	13.31
184.58	44.03
184.8	-17.41
185.02	25.6
185.239	82.94
185.459	5.12
185.679	41.98
185.898	41.98
186.118	62.46
186.338	31.74
186.557	62.46
186.777	41.98
186.997	17.41
187.216	31.74
187.436	70.65
187.655	54.27
187.875	105.47
188.095	25.6
188.314	66.56
188.534	91.13
188.753	29.7
188.973	41.98
189.192	39.94
189.412	58.37
189.631	78.85
189.851	29.7
190.07	72.7
190.29	37.89
190.509	23.55
190.729	39.94
190.948	37.89
191.168	142.33
191.387	70.65
191.607	-11.26
191.826	-5.12
192.045	68.61
192.265	-48.13
192.484	17.41
192.704	7.17
192.923	-33.79
193.142	29.7
193.362	54.27
193.581	27.65
193.8	72.7
194.02	78.85
194.239	74.75
194.458	-48.13
194.678	-15.36
194.897	33.79
195.116	-15.36
195.335	-9.22
195.555	52.22
195.774	48.13
195.993	78.85
196.212	52.22
196.432	84.99
196.651	111.61
196.87	-19.46
197.089	93.18
197.308	19.46
197.528	74.75
197.747	1.02
197.966	-1.02
198.185	29.7
198.404	95.23
198.623	44.03
198.842	37.89
199.062	-15.36
199.281	-21.5
199.5	72.7
199.719	62.46
199.938	50.18
200.157	62.46
200.376	23.55
200.595	-29.7
200.814	23.55
201.033	78.85
201.252	93.18
201.471	62.46
201.69	35.84
201.909	105.47
202.128	35.84
202.347	13.31
202.566	-64.51
202.785	19.46
203.004	19.46
203.223	-15.36
203.442	44.03
203.661	44.03
203.879	99.33
204.098	62.46
204.317	39.94
204.536	109.57
204.755	33.79
204.974	-33.79
205.193	17.41
205.411	89.09
205.63	39.94
205.849	25.6
206.068	50.18
206.287	21.5
206.505	111.61
206.724	93.18
206.943	-27.65
207.162	-56.32
207.381	142.33
207.599	1.02
207.818	31.74
208.037	23.55
208.255	44.03
208.474	39.94
208.693	60.42
208.911	44.03
209.13	29.7
209.349	48.13
209.567	21.5
209.786	44.03
210.005	41.98
210.223	66.56
210.442	-25.6
210.661	29.7
210.879	48.13
211.098	35.84
211.316	-5.12
211.535	84.99
211.753	9.22
211.972	76.8
212.191	-21.5
212.409	17.41
212.628	52.22
212.846	72.7
213.065	54.27
213.283	-46.08
213.502	101.37
213.72	72.7
213.938	31.74
214.157	29.7
214.375	17.41
214.594	66.56
214.812	11.26
215.031	-31.74
215.249	33.79
215.467	-21.5
215.686	21.5
215.904	76.8
216.122	54.27
216.341	62.46
216.559	3.07
216.778	62.46
216.996	64.51
217.214	29.7
217.432	25.6
217.651	-11.26
217.869	-31.74
218.087	25.6
218.306	50.18
218.524	25.6
218.742	-27.65
218.96	52.22
219.179	29.7
219.397	-3.07
219.615	25.6
219.833	29.7
220.051	48.13
220.27	9.22
220.488	-15.36
220.706	95.23
220.924	31.74
221.142	19.46
221.36	35.84
221.578	64.51
221.796	11.26
222.015	50.18
222.233	9.22
222.451	58.37
222.669	74.75
222.887	66.56
223.105	-62.46
223.323	19.46
223.541	11.26
223.759	70.65
223.977	84.99
224.195	109.57
224.413	3.07
224.631	64.51
224.849	21.5
225.067	62.46
225.285	58.37
225.503	82.94
225.721	7.17
225.939	-35.84
226.157	101.37
226.375	146.43
226.592	21.5
226.81	-7.17
227.028	144.38
227.246	87.04
227.464	-1.02
227.682	-7.17
227.9	84.99
228.117	99.33
228.335	7.17
228.553	17.41
228.771	3.07
228.989	140.29
229.206	17.41
229.424	21.5
229.642	7.17
229.86	70.65
230.077	68.61
230.295	64.51
230.513	50.18
230.731	44.03
230.948	58.37
231.166	117.76
231.384	46.08
231.601	15.36
231.819	58.37
232.037	56.32
232.254	-62.46
232.472	119.81
232.689	5.12
232.907	74.75
233.125	50.18
233.342	93.18
233.56	33.79
233.777	31.74
233.995	23.55
234.213	9.22
234.43	17.41
234.648	50.18
234.865	87.04
235.083	76.8
235.3	5.12
235.518	62.46
235.735	23.55
235.953	68.61
236.17	54.27
236.388	44.03
236.605	-7.17
236.822	125.95
237.04	23.55
237.257	66.56
237.475	52.22
237.692	31.74
237.909	41.98
238.127	33.79
238.344	66.56
238.562	13.31
238.779	-21.5
238.996	9.22
239.214	56.32
239.431	19.46
239.648	-93.18
239.865	13.31
240.083	-3.07
240.3	33.79
240.517	62.46
240.735	13.31
240.952	95.23
241.169	-21.5
241.386	25.6
241.603	29.7
241.821	54.27
242.038	68.61
242.255	15.36
242.472	70.65
242.689	37.89
242.907	48.13
243.124	39.94
243.341	33.79
243.558	31.74
243.775	-62.46
243.992	3.07
244.209	44.03
244.426	35.84
244.643	121.85
244.86	31.74
245.078	5.12
245.295	-1.02
245.512	3.07
245.729	25.6
245.946	29.7
246.163	7.17
246.38	23.55
246.597	62.46
246.814	78.85
247.031	-21.5
247.248	25.6
247.464	101.37
247.681	41.98
247.898	80.89
248.115	66.56
248.332	21.5
248.549	66.56
248.766	25.6
248.983	115.71
249.2	89.09
249.417	62.46
249.633	62.46
249.85	87.04
250.067	60.42
250.284	46.08
250.501	35.84
250.717	29.7
250.934	15.36
251.151	-21.5
251.368	46.08
251.585	44.03
251.801	17.41
252.018	41.98
252.235	97.28
252.451	7.17
252.668	-13.31
252.885	11.26
253.102	29.7
253.318	87.04
253.535	3.07
253.752	52.22
253.968	-21.5
254.185	125.95
254.401	1.02
254.618	-17.41
254.835	41.98
255.051	31.74
255.268	105.47
255.484	-27.65
255.701	136.19
255.917	46.08
256.134	15.36
256.351	39.94
256.567	-1.02
256.784	17.41
257	31.74
257.217	37.89
257.433	78.85
257.65	9.22
257.866	52.22
258.082	46.08
258.299	21.5
258.515	39.94
258.732	-27.65
258.948	3.07
259.165	48.13
259.381	33.79
259.597	11.26
259.814	111.61
260.03	31.74
260.246	37.89
260.463	41.98
260.679	107.52
260.895	72.7
261.112	37.89
261.328	29.7
261.544	-1.02
261.761	101.37
261.977	7.17
262.193	13.31
262.409	3.07
262.626	-31.74
262.842	13.31
263.058	78.85
263.274	103.42
263.49	89.09
263.707	89.09
263.923	39.94
264.139	107.52
264.355	39.94
264.571	41.98
264.787	113.66
265.004	93.18
265.22	91.13
265.436	39.94
265.652	41.98
265.868	25.6
266.084	46.08
266.3	39.94
266.516	80.89
266.732	121.85
266.948	23.55
267.164	130.05
267.38	13.31
267.596	121.85
267.812	134.14
268.028	29.7
268.244	21.5
268.46	72.7
268.676	33.79
268.892	84.99
269.108	-41.98
269.324	41.98
269.54	-33.79
269.756	-7.17
269.972	-37.89
270.188	5.12
270.403	58.37
270.619	99.33
270.835	56.32
271.051	-7.17
271.267	128
271.483	37.89
271.698	146.43
271.914	48.13
272.13	39.94
272.346	54.27
272.562	3.07
272.777	52.22
272.993	66.56
273.209	52.22
273.425	19.46
273.64	46.08
273.856	33.79
274.072	25.6
274.287	5.12
274.503	44.03
274.719	84.99
274.934	48.13
275.15	41.98
275.366	-11.26
275.581	52.22
275.797	44.03
276.012	13.31
276.228	-44.03
276.444	60.42
276.659	13.31
276.875	-31.74
277.09	46.08
277.306	7.17
277.521	35.84
277.737	130.05
277.952	37.89
278.168	128
278.383	78.85
278.599	82.94
278.814	64.51
279.03	-17.41
279.245	111.61
279.461	15.36
279.676	52.22
279.892	-25.6
280.107	62.46
280.322	60.42
280.538	-9.22
280.753	-3.07
280.969	35.84
281.184	87.04
281.399	37.89
281.615	76.8
281.83	13.31
282.045	31.74
282.26	89.09
282.476	-5.12
282.691	140.29
282.906	25.6
283.122	99.33
283.337	74.75
283.552	72.7
283.767	-21.5
283.983	35.84
284.198	17.41
284.413	78.85
284.628	25.6
284.843	138.24
285.058	31.74
285.274	48.13
285.489	70.65
285.704	78.85
285.919	46.08
286.134	-37.89
286.349	66.56
286.564	84.99
286.779	70.65
286.995	23.55
287.21	37.89
287.425	41.98
287.64	7.17
287.855	52.22
288.07	52.22
288.285	72.7
288.5	7.17
288.715	93.18
288.93	-62.46
289.145	-17.41
289.36	-15.36
289.575	37.89
289.79	72.7
290.004	-41.98
290.219	46.08
290.434	5.12
290.649	13.31
290.864	37.89
291.079	17.41
291.294	44.03
291.509	58.37
291.724	25.6
291.938	17.41
292.153	52.22
292.368	70.65
292.583	60.42
292.798	-5.12
293.012	72.7
293.227	13.31
293.442	46.08
293.657	33.79
293.871	52.22
294.086	13.31
294.301	64.51
294.516	111.61
294.73	5.12
294.945	-9.22
295.16	52.22
295.374	68.61
295.589	56.32
295.804	31.74
296.018	19.46
296.233	23.55
296.447	74.75
296.662	-5.12
296.877	27.65
297.091	48.13
297.306	103.42
297.52	37.89
297.735	60.42
297.949	66.56
298.164	15.36
298.378	56.32
298.593	31.74
298.807	-35.84
299.022	33.79
299.236	23.55
299.451	29.7
299.665	1.02
299.88	33.79
300.094	-9.22
300.309	62.46
300.523	35.84
300.737	13.31
300.952	56.32
301.166	39.94
301.381	7.17
301.595	66.56
301.809	70.65
302.024	19.46
302.238	103.42
302.452	35.84
302.667	9.22
302.881	99.33
303.095	21.5
303.309	64.51
303.524	19.46
303.738	68.61
303.952	58.37
304.166	25.6
304.381	11.26
304.595	82.94
304.809	44.03
305.023	-31.74
305.237	17.41
305.452	78.85
305.666	23.55
305.88	44.03
306.094	60.42
306.308	107.52
306.522	70.65
306.736	103.42
306.95	13.31
307.164	44.03
307.379	-3.07
307.593	107.52
307.807	146.43
308.021	97.28
308.235	66.56
308.449	39.94
308.663	1.02
308.877	156.67
309.091	-13.31
309.305	56.32
309.519	33.79
309.733	87.04
309.947	113.66
310.161	52.22
310.374	56.32
310.588	72.7
310.802	15.36
311.016	46.08
311.23	15.36
311.444	-35.84
311.658	39.94
311.872	91.13
312.085	21.5
312.299	107.52
312.513	52.22
312.727	125.95
312.941	21.5
313.154	25.6
313.368	17.41
313.582	115.71
313.796	23.55
314.009	29.7
314.223	82.94
314.437	123.9
314.651	31.74
314.864	101.37
315.078	62.46
315.292	-1.02
315.505	-23.55
315.719	19.46
315.933	9.22
316.146	-3.07
316.36	35.84
316.573	125.95
316.787	54.27
317.001	44.03
317.214	9.22
317.428	103.42
317.641	41.98
317.855	-9.22
318.068	50.18
318.282	37.89
318.495	113.66
318.709	46.08
318.922	64.51
319.136	66.56
319.349	64.51
319.563	54.27
319.776	80.89
319.99	33.79
320.203	23.55
320.417	19.46
320.63	68.61
320.843	109.57
321.057	23.55
321.27	74.75
321.483	132.09
321.697	39.94
321.91	87.04
322.124	68.61
322.337	128
322.55	101.37
322.763	84.99
322.977	66.56
323.19	13.31
323.403	68.61
323.617	48.13
323.83	78.85
324.043	-13.31
324.256	39.94
324.469	-7.17
324.683	19.46
324.896	93.18
325.109	80.89
325.322	-23.55
325.535	78.85
325.748	35.84
325.962	29.7
326.175	33.79
326.388	1.02
326.601	168.96
326.814	80.89
327.027	21.5
327.24	103.42
327.453	25.6
327.666	97.28
327.879	140.29
328.092	35.84
328.305	25.6
328.518	99.33
328.731	60.42
328.944	50.18
329.157	87.04
329.37	142.33
329.583	50.18
329.796	68.61
330.009	117.76
330.222	-23.55
330.435	95.23
330.648	31.74
330.861	15.36
331.073	97.28
331.286	62.46
331.499	60.42
331.712	27.65
331.925	-41.98
332.138	44.03
332.35	19.46
332.563	39.94
332.776	64.51
332.989	17.41
333.202	31.74
333.414	3.07
333.627	89.09
333.84	70.65
334.053	25.6
334.265	111.61
334.478	48.13
334.691	52.22
334.903	76.8
335.116	31.74
335.329	31.74
335.541	70.65
335.754	60.42
335.966	27.65
336.179	80.89
336.392	37.89
336.604	132.09
336.817	46.08
337.029	37.89
337.242	29.7
337.454	84.99
337.667	52.22
337.88	99.33
338.092	115.71
338.305	58.37
338.517	54.27
338.729	89.09
338.942	-15.36
339.154	68.61
339.367	31.74
339.579	93.18
339.792	68.61
340.004	91.13
340.217	9.22
340.429	109.57
340.641	-19.46
340.854	97.28
341.066	39.94
341.278	70.65
341.491	72.7
341.703	37.89
341.915	44.03
342.128	146.43
342.34	56.32
342.552	29.7
342.764	84.99
342.977	35.84
343.189	17.41
343.401	93.18
343.613	-21.5
343.826	76.8
344.038	35.84
344.25	-7.17
344.462	21.5
344.674	76.8
344.886	-11.26
345.099	107.52
345.311	80.89
345.523	25.6
345.735	-3.07
345.947	44.03
346.159	58.37
346.371	15.36
346.583	-46.08
346.795	66.56
347.007	13.31
347.219	74.75
347.431	80.89
347.643	109.57
347.855	70.65
348.067	54.27
348.279	76.8
348.491	107.52
348.703	62.46
348.915	56.32
349.127	58.37
349.339	70.65
349.551	33.79
349.763	52.22
349.975	25.6
350.187	27.65
350.399	72.7
350.61	41.98
350.822	27.65
351.034	-7.17
351.246	99.33
351.458	89.09
351.669	107.52
351.881	128
352.093	33.79
352.305	82.94
352.517	33.79
352.728	11.26
352.94	39.94
353.152	101.37
353.363	87.04
353.575	54.27
353.787	111.61
353.999	50.18
354.21	37.89
354.422	119.81
354.633	48.13
354.845	76.8
355.057	27.65
355.268	60.42
355.48	93.18
355.692	21.5
355.903	19.46
356.115	58.37
356.326	50.18
356.538	87.04
356.749	11.26
356.961	62.46
357.172	93.18
357.384	19.46
357.595	113.66
357.807	31.74
358.018	54.27
358.23	64.51
358.441	101.37
358.653	140.29
358.864	48.13
359.075	74.75
359.287	123.9
359.498	103.42
359.709	113.66
359.921	72.7
360.132	-13.31
360.344	46.08
360.555	78.85
360.766	-5.12
360.977	19.46
361.189	62.46
361.4	54.27
361.611	87.04
361.823	80.89
362.034	99.33
362.245	58.37
362.456	70.65
362.667	33.79
362.879	23.55
363.09	39.94
363.301	89.09
363.512	99.33
363.723	54.27
363.935	87.04
364.146	115.71
364.357	62.46
364.568	74.75
364.779	35.84
364.99	54.27
365.201	87.04
365.412	52.22
365.623	64.51
365.834	44.03
366.045	-9.22
366.256	84.99
366.467	60.42
366.678	37.89
366.889	115.71
367.1	3.07
367.311	84.99
367.522	44.03
367.733	107.52
367.944	93.18
368.155	46.08
368.366	44.03
368.577	62.46
368.788	25.6
368.999	31.74
369.209	103.42
369.42	68.61
369.631	70.65
369.842	138.24
370.053	44.03
370.264	87.04
370.474	80.89
370.685	146.43
370.896	80.89
371.107	76.8
371.317	113.66
371.528	-5.12
371.739	109.57
371.95	48.13
372.16	72.7
372.371	46.08
372.582	89.09
372.792	82.94
373.003	91.13
373.214	19.46
373.424	58.37
373.635	44.03
373.846	109.57
374.056	52.22
374.267	101.37
374.477	31.74
374.688	68.61
374.898	39.94
375.109	48.13
375.319	58.37
375.53	33.79
375.74	39.94
375.951	-15.36
376.161	62.46
376.372	97.28
376.582	37.89
376.793	87.04
377.003	35.84
377.214	35.84
377.424	35.84
377.635	66.56
377.845	23.55
378.055	105.47
378.266	35.84
378.476	82.94
378.686	113.66
378.897	113.66
379.107	125.95
379.317	72.7
379.528	113.66
379.738	95.23
379.948	25.6
380.158	62.46
380.369	84.99
380.579	119.81
380.789	3.07
380.999	95.23
381.21	109.57
381.42	76.8
381.63	84.99
381.84	29.7
382.05	158.72
382.261	166.91
382.471	136.19
382.681	33.79
382.891	111.61
383.101	37.89
383.311	64.51
383.521	52.22
383.731	87.04
383.941	101.37
384.151	39.94
384.361	54.27
384.571	111.61
384.781	58.37
384.991	84.99
385.201	48.13
385.411	58.37
385.621	105.47
385.831	103.42
386.041	76.8
386.251	70.65
386.461	111.61
386.671	123.9
386.881	154.62
387.091	76.8
387.301	119.81
387.511	78.85
387.72	144.38
387.93	125.95
388.14	144.38
388.35	66.56
388.56	7.17
388.769	87.04
388.979	80.89
389.189	9.22
389.399	101.37
389.609	60.42
389.818	179.2
390.028	95.23
390.238	136.19
390.447	58.37
390.657	84.99
390.867	99.33
391.076	76.8
391.286	58.37
391.496	125.95
391.705	91.13
391.915	111.61
392.125	152.57
392.334	95.23
392.544	105.47
392.753	72.7
392.963	56.32
393.172	111.61
393.382	93.18
393.591	91.13
393.801	80.89
394.01	117.76
394.22	117.76
394.429	152.57
394.639	39.94
394.848	105.47
395.058	101.37
395.267	148.48
395.477	164.86
395.686	89.09
395.895	261.12
396.105	132.09
396.314	111.61
396.524	68.61
396.733	84.99
396.942	148.48
397.152	123.9
397.361	168.96
397.57	105.47
397.78	150.53
397.989	156.67
398.198	164.86
398.407	103.42
398.617	101.37
398.826	136.19
399.035	144.38
399.244	175.1
399.453	168.96
399.663	201.72
399.872	119.81
400.081	138.24
400.29	222.2
400.499	148.48
400.708	183.29
400.917	185.34
401.127	191.49
401.336	113.66
401.545	216.06
401.754	211.96
401.963	138.24
402.172	80.89
402.381	121.85
402.59	140.29
402.799	162.81
403.008	207.87
403.217	134.14
403.426	140.29
403.635	132.09
403.844	134.14
404.053	228.35
404.262	248.83
404.471	160.77
404.68	142.33
404.888	162.81
405.097	89.09
405.306	207.87
405.515	171.01
405.724	173.05
405.933	211.96
406.142	250.88
406.35	199.68
406.559	252.92
406.768	267.26
406.977	312.32
407.185	197.63
407.394	193.53
407.603	308.22
407.812	242.68
408.02	349.18
408.229	383.99
408.438	349.18
408.646	214.01
408.855	369.66
409.064	314.36
409.272	332.79
409.481	379.9
409.69	244.73
409.898	369.66
410.107	367.61
410.315	420.86
410.524	435.19
410.733	439.29
410.941	443.39
411.15	437.24
411.358	455.67
411.567	656.37
411.775	508.92
411.984	586.74
412.192	607.22
412.401	521.21
412.609	631.8
412.818	695.29
413.026	644.09
413.234	576.5
413.443	623.61
413.651	656.37
413.86	775.16
414.068	840.69
414.276	803.83
414.485	756.72
414.693	865.27
414.901	990.19
415.11	822.26
415.318	930.8
415.526	1022.96
415.734	1065.97
415.943	1123.31
416.151	1068.02
416.359	1131.5
416.567	1119.21
416.776	1291.24
416.984	1297.39
417.192	1375.21
417.4	1281
417.608	1328.11
417.817	1358.83
418.025	1487.85
418.233	1608.68
418.441	1580.01
418.649	1534.95
418.857	1625.06
419.065	1709.03
419.273	1672.17
419.481	1838.05
419.689	1911.78
419.897	2012.13
420.105	1985.51
420.313	1995.75
420.521	2159.58
420.729	2135.01
420.937	2362.33
421.145	2444.25
421.353	2460.63
421.561	2556.89
421.769	2759.64
421.977	2749.4
422.185	2819.03
422.393	2935.76
422.601	3154.9
422.809	3163.09
423.017	3171.28
423.224	3339.21
423.432	3314.64
423.64	3306.45
423.848	3587.02
424.056	3613.64
424.263	3941.32
424.471	3939.27
424.679	3869.64
424.887	4068.29
425.094	4350.91
425.302	4266.94
425.51	4395.96
425.718	4522.94
425.925	4649.91
426.133	4944.82
426.341	5143.47
426.548	5360.56
426.756	5471.15
426.964	5475.24
427.171	5841.83
427.379	5860.26
427.586	5991.33
427.794	6263.71
428.001	6396.83
428.209	6753.18
428.417	6669.21
428.624	6949.78
428.832	7250.83
429.039	7048.08
429.247	7136.15
429.454	7826.31
429.662	8397.7
429.869	7699.34
430.076	8278.91
430.284	8092.55
430.491	8563.58
430.699	8842.11
430.906	8876.92
431.114	8948.6
431.321	9530.22
431.528	9476.98
431.736	10195.81
431.943	10703.71
432.15	10208.1
432.358	10324.83
432.565	10888.03
432.772	10742.62
432.979	11465.55
433.187	11721.55
433.394	11627.34
433.601	12626.75
433.808	12645.18
434.016	12464.96
434.223	12899.13
434.43	14089
434.637	13452.08
434.844	14664.48
435.052	14723.87
435.259	14713.63
435.466	14924.57
435.673	14854.94
435.88	15641.36
436.087	16478.98
436.294	16392.97
436.501	16309
436.708	16337.67
436.915	16984.83
437.122	17685.23
437.329	17674.99
437.537	18324.2
437.743	18459.37
437.95	18369.26
438.157	19317.47
438.364	20073.17
438.571	20026.06
438.778	20200.14
438.985	22155.95
439.192	21109.44
439.399	21381.82
439.606	21648.05
439.813	22606.5
440.02	24001.17
440.227	23423.64
440.433	23503.51
440.64	23870.1
440.847	23943.83
441.054	24355.47
441.261	25815.67
441.467	26129.01
441.674	26342
441.881	27456.09
442.088	27337.31
442.294	27216.48
442.501	27611.74
442.708	28105.3
442.914	29303.36
443.121	30405.17
443.328	29575.74
443.534	31777.31
443.741	30855.72
443.948	30341.68
444.154	32913.93
444.361	32465.42
444.568	32782.86
444.774	33126.92
444.981	33081.86
445.187	34335.22
445.394	35613.15
445.6	35205.61
445.807	38201.79
446.013	37030.35
446.22	37419.46
446.426	38988.21
446.633	39076.27
446.839	40487.32
447.046	38961.58
447.252	41529.73
447.459	41351.56
447.665	40995.21
447.871	42479.99
448.078	44503.38
448.284	42529.14
448.491	43907.43
448.697	45085.01
448.903	45883.72
449.11	46049.6
449.316	44921.17
449.522	45715.78
449.728	47395.12
449.935	47384.88
450.141	47601.96
450.347	48245.02
450.553	46735.67
450.76	47667.5
450.966	49271.06
451.172	48445.72
451.378	49658.12
451.584	48599.32
451.791	49916.17
451.997	49582.35
452.203	50270.46
452.409	50297.09
452.615	50829.56
452.821	48564.51
453.027	47706.41
453.233	50137.35
453.44	48128.29
453.646	48273.7
453.852	48992.53
454.058	49735.95
454.264	48177.44
454.47	49148.18
454.676	47966.5
454.882	49568.01
455.088	44994.9
455.294	45640.01
455.5	46399.8
455.705	47008.05
455.911	44853.59
456.117	44061.02
456.323	43905.38
456.529	41173.39
456.735	42748.28
456.941	41820.55
457.147	41187.72
457.352	40196.51
457.558	39184.81
457.764	39465.38
457.97	38791.6
458.176	38074.81
458.381	38052.28
458.587	35985.88
458.793	36209.11
458.999	34040.31
459.204	36608.47
459.41	35527.14
459.616	33131.01
459.821	33436.16
460.027	32975.37
460.233	32455.18
460.438	30843.43
460.644	31472.16
460.85	29690.43
461.055	29125.19
461.261	29076.04
461.466	27050.6
461.672	26243.7
461.878	28240.47
462.083	26067.57
462.289	25647.74
462.494	25612.92
462.7	24466.06
462.905	23726.74
463.111	24492.68
463.316	24390.28
463.522	23949.97
463.727	23960.21
463.932	24025.75
464.138	23632.54
464.343	23882.39
464.549	23093.92
464.754	23896.72
464.959	23667.35
465.165	23685.78
465.37	22557.35
465.575	22139.57
465.781	23071.39
465.986	22997.67
466.191	22067.89
466.397	21709.49
466.602	20857.54
466.807	21455.54
467.012	21516.98
467.218	21392.06
467.423	20744.9
467.628	21320.38
467.833	22080.18
468.038	21021.38
468.244	20554.44
468.449	21328.57
468.654	20808.39
468.859	21076.67
469.064	20695.75
469.269	19479.25
469.474	19714.77
469.679	20138.7
469.885	19376.86
470.09	19856.08
470.295	19886.8
470.5	19350.23
470.705	19161.82
470.91	18842.34
471.115	18778.85
471.32	19094.24
471.525	18983.65
471.73	18741.99
471.935	18221.8
472.139	17715.95
472.344	18105.07
472.549	17654.51
472.754	17359.61
472.959	17081.08
473.164	16880.38
473.369	16567.04
473.574	17152.76
473.778	17126.14
473.983	17066.75
474.188	17025.79
474.393	15835.92
474.598	16073.48
474.802	15926.03
475.007	15852.3
475.212	15797.01
475.417	15223.58
475.621	15172.38
475.826	15414.04
476.031	14947.1
476.235	14603.04
476.44	15010.59
476.645	14725.92
476.849	14746.4
477.054	14490.4
477.259	14185.26
477.463	14467.88
477.668	14117.67
477.872	14205.74
478.077	13992.75
478.282	13335.35
478.486	13470.51
478.691	13314.87
478.895	13589.3
479.1	12960.57
479.304	13390.64
479.509	13032.25
479.713	13163.32
479.918	12778.3
480.122	12618.56
480.326	12854.08
480.531	12907.32
480.735	12632.9
480.94	12393.28
481.144	12974.91
481.348	12342.08
481.553	12376.9
481.757	12174.15
481.961	12522.3
482.166	12520.26
482.37	12409.67
482.574	12047.18
482.778	12317.51
482.983	12456.77
483.187	12358.47
483.391	12342.08
483.595	12227.4
483.8	12002.12
484.004	12505.92
484.208	12542.78
484.412	12112.71
484.616	12204.87
484.821	12313.41
485.025	12045.13
485.229	12407.62
485.433	12190.53
485.637	12086.09
485.841	12241.73
486.045	12442.43
486.249	12346.18
486.453	12071.75
486.657	12430.15
486.861	12315.46
487.065	12059.46
487.269	12424
487.473	11905.87
487.677	12317.51
487.881	12180.29
488.085	12231.49
488.289	12305.22
488.493	12147.53
488.697	12247.88
488.901	12217.16
489.105	12299.08
489.309	12297.03
489.512	12440.39
489.716	12323.65
489.92	12299.08
490.124	12530.5
490.328	12622.66
490.531	12452.67
490.735	12458.82
490.939	12751.68
491.143	12534.59
491.346	12477.25
491.55	12981.05
491.754	12616.51
491.958	12702.53
492.161	12970.81
492.365	12880.7
492.569	12739.39
492.772	13036.35
492.976	12995.39
493.18	12940.09
493.383	13013.82
493.587	13386.55
493.79	13349.68
493.994	13095.74
494.197	13214.52
494.401	13460.27
494.605	13562.67
494.808	13890.35
495.012	13615.92
495.215	13935.4
495.419	13959.98
495.622	13964.07
495.825	14291.75
496.029	14299.94
496.232	14549.79
496.436	14297.89
496.639	14789.41
496.843	14842.65
497.046	14957.34
497.249	15141.66
497.453	15088.41
497.656	15672.08
497.859	15188.76
498.063	15485.72
498.266	15837.97
498.469	15868.69
498.673	15895.31
498.876	16429.83
499.079	16378.63
499.282	16177.93
499.485	16720.64
499.689	17150.71
499.892	17068.8
500.095	17130.23
500.298	17697.52
500.501	17300.22
500.705	18017.01
500.908	17892.08
501.111	18168.55
501.314	18383.59
501.517	18516.71
501.72	18696.93
501.923	18711.27
502.126	19196.64
502.329	19208.92
502.532	19481.3
502.735	19501.78
502.938	20136.65
503.141	20075.21
503.344	20519.62
503.547	20304.59
503.75	20693.7
503.953	21191.36
504.156	21181.12
504.359	21273.28
504.562	21691.06
504.765	22092.46
504.968	22327.98
505.17	22674.09
505.373	22379.18
505.576	22778.53
505.779	22903.46
505.982	22946.47
506.185	23788.18
506.387	23935.63
506.59	24056.46
506.793	24556.17
506.996	23958.16
507.198	24797.83
507.401	24623.75
507.604	25166.46
507.807	25465.47
508.009	25512.57
508.212	26038.9
508.415	25756.28
508.617	26522.22
508.82	26434.16
509.022	26622.57
509.225	27523.68
509.428	27337.31
509.63	27525.72
509.833	27445.85
510.035	28076.63
510.238	28072.53
510.44	28754.51
510.643	29217.35
510.845	29106.76
511.048	28985.93
511.25	29678.14
511.453	29815.35
511.655	30775.85
511.858	29956.66
512.06	30478.89
512.262	30976.55
512.465	30972.46
512.667	31552.03
512.87	31820.31
513.072	31840.79
513.274	32256.53
513.477	32805.39
513.679	33176.07
513.881	33335.81
514.084	33360.39
514.286	33511.94
514.488	33884.67
514.69	34773.49
514.893	34642.42
515.095	34783.73
515.297	35310.05
515.499	35211.75
515.701	35736.03
515.904	35609.06
516.106	35789.28
516.308	36514.26
516.51	37157.32
516.712	36897.23
516.914	37587.39
517.116	37933.5
517.318	37743.04
517.52	38046.14
517.722	38144.44
517.925	38816.18
518.127	39045.55
518.329	39545.25
518.531	39287.21
518.733	40231.32
518.935	40575.38
519.136	40462.74
519.338	40688.02
519.54	40796.56
519.742	41423.24
519.944	41257.35
520.146	42412.41
520.348	42310.01
520.55	42365.31
520.752	42408.31
520.954	43262.32
521.155	43186.54
521.357	43534.7
521.559	43628.9
521.761	44536.15
521.963	44054.88
522.164	44476.76
522.366	44534.1
522.568	45095.25
522.77	45359.44
522.971	45777.22
523.173	45252.94
523.375	45881.67
523.576	46100.8
523.778	46260.54
523.98	46967.09
524.181	46559.55
524.383	46713.14
524.584	47749.42
524.786	47202.61
524.988	47175.98
525.189	47937.83
525.391	48218.4
525.592	48421.15
525.794	48886.04
525.995	48421.15
526.197	48449.82
526.398	48853.27
526.6	48972.05
526.801	49080.6
527.003	49434.89
527.204	49146.13
527.406	50231.55
527.607	49166.61
527.808	50090.24
528.01	49453.33
528.211	49916.17
528.412	50555.13
528.614	50299.14
528.815	50381.06
529.016	50948.34
529.218	50862.33
529.419	50534.65
529.62	50811.13
529.822	50768.12
530.023	50983.16
530.224	50772.22
530.425	50712.83
530.626	50821.37
530.828	50618.62
531.029	51986.66
531.23	50897.14
531.431	51081.46
531.632	51278.07
531.833	51654.89
532.035	51425.52
532.236	51237.11
532.437	51781.87
532.638	51415.28
532.839	51333.36
533.04	51667.18
533.241	50972.92
533.442	52023.53
533.643	51630.32
533.844	51792.11
534.045	51874.02
534.246	51220.72
534.447	51538.16
534.648	51288.31
534.849	51558.64
535.05	51026.17
535.251	51329.26
535.451	51441.9
535.652	51607.79
535.853	51779.82
536.054	51624.17
536.255	51542.25
536.456	51235.06
536.657	52173.03
536.857	51306.74
537.058	51138.8
537.259	51783.91
537.46	51335.41
537.66	51394.8
537.861	51939.56
538.062	51597.55
538.263	51413.23
538.463	51308.79
538.664	51509.49
538.865	51431.66
539.065	51917.03
539.266	50923.77
539.466	52013.29
539.667	51200.24
539.868	51523.82
540.068	51759.34
540.269	51312.88
540.469	51833.07
540.67	50821.37
540.87	51493.1
541.071	51202.29
541.271	51159.28
541.472	51056.88
541.672	51228.91
541.873	50393.34
542.073	50721.02
542.274	51435.76
542.474	51073.27
542.675	50852.09
542.875	51222.77
543.075	50843.9
543.276	50409.73
543.476	51583.21
543.676	50559.23
543.877	50884.86
544.077	51038.45
544.277	50872.57
544.478	50292.99
544.678	50712.83
544.878	50839.8
545.078	51034.36
545.279	50497.79
545.479	50551.04
545.679	50751.74
545.879	50600.19
546.079	50544.89
546.28	50540.8
546.48	50321.66
546.68	50886.9
546.88	50448.64
547.08	50688.25
547.28	50505.98
547.48	49887.49
547.68	50352.38
547.88	49737.99
548.081	50727.16
548.281	49881.35
548.481	50059.52
548.681	50262.27
548.881	50508.03
549.081	50331.9
549.28	49926.41
549.48	50376.96
549.68	49709.32
549.88	50981.11
550.08	50147.59
550.28	50534.65
550.48	49864.97
550.68	50145.54
550.88	49907.97
551.08	49918.21
551.279	50067.72
551.479	49498.38
551.679	49879.3
551.879	50092.29
552.079	49977.61
552.278	49862.92
552.478	50086.15
552.678	49666.31
552.878	50256.13
553.077	49680.65
553.277	48951.57
553.477	50149.63
553.676	49500.43
553.876	49783.05
554.076	49244.43
554.275	49672.46
554.475	48965.91
554.674	49983.75
554.874	49596.68
555.074	49099.03
555.273	49465.61
555.473	49537.29
555.672	49256.72
555.872	49447.18
556.071	49516.81
556.271	49449.23
556.47	49322.26
556.67	48587.03
556.869	49013.01
557.068	49127.7
557.268	48687.39
557.467	49017.11
557.667	48904.47
557.866	48711.96
558.065	48998.68
558.265	48365.85
558.464	48316.7
558.663	49428.75
558.863	48279.84
559.062	49105.17
559.261	47802.66
559.461	48763.16
559.66	48099.62
559.859	48240.93
560.058	47825.19
560.258	48455.96
560.457	47868.2
560.656	48259.36
560.855	47794.47
561.054	47911.2
561.253	47540.52
561.453	48306.46
561.652	48060.71
561.851	47946.02
562.05	47644.97
562.249	47237.42
562.448	47556.91
562.647	47427.88
562.846	47485.23
563.045	47679.78
563.244	46887.22
563.443	47571.24
563.642	46291.26
563.841	47059.25
564.04	46885.17
564.239	47184.18
564.438	46594.36
564.637	47200.56
564.836	47044.91
565.035	46522.68
565.234	46797.11
565.432	46426.43
565.631	46172.48
565.83	46162.24
566.029	46235.97
566.228	46119.23
566.427	46108.99
566.625	45832.52
566.824	45347.15
567.023	46307.65
567.222	45187.41
567.42	46676.28
567.619	45650.25
567.818	45525.32
568.016	45209.93
568.215	45480.27
568.414	45107.54
568.612	45441.35
568.811	45498.7
569.01	45080.91
569.208	44327.26
569.407	45234.51
569.605	44546.39
569.804	44992.85
570.002	44210.53
570.201	44722.52
570.4	44345.69
570.598	43993.44
570.797	44138.85
570.995	44052.83
571.193	43475.3
571.392	43966.82
571.59	43682.15
571.789	43673.96
571.987	43815.27
572.186	43753.83
572.384	43630.95
572.582	43262.32
572.781	43446.63
572.979	42785.14
573.177	43352.43
573.376	42979.7
573.574	42703.22
573.772	43145.58
573.971	42903.92
574.169	42703.22
574.367	42578.29
574.565	42860.91
574.763	42645.88
574.962	42123.65
575.16	41845.12
575.358	42477.94
575.556	41703.81
575.754	42180.99
575.952	41382.28
576.151	42076.54
576.349	41609.61
576.547	41451.91
576.745	41654.66
576.943	41281.93
577.141	41384.33
577.339	41681.28
577.537	41107.85
577.735	40901.01
577.933	40481.17
578.131	41079.18
578.329	40335.77
578.527	40466.84
578.725	40616.34
578.923	40788.37
579.121	40567.19
579.319	40489.37
579.516	40124.83
579.714	40073.63
579.912	39629.22
580.11	40087.96
580.308	40012.19
580.506	39958.94
580.704	39307.69
580.901	39508.39
581.099	39643.56
581.297	38961.58
581.495	39061.93
581.692	39549.35
581.89	38894
582.088	38963.63
582.285	38810.03
582.483	38814.13
582.681	38912.43
582.878	38715.83
583.076	38363.57
583.274	38635.95
583.471	37945.79
583.669	38285.75
583.866	38263.22
584.064	38123.96
584.262	37284.3
584.459	37990.84
584.657	37767.62
584.854	37857.73
585.052	37050.83
585.249	37433.8
585.447	37425.6
585.644	37155.27
585.841	37110.22
586.039	37427.65
586.236	36544.98
586.434	36901.32
586.631	36309.46
586.828	36557.27
587.026	36614.61
587.223	36487.64
587.42	36336.09
587.618	36602.32
587.815	35994.07
588.012	36153.82
588.21	35942.88
588.407	36016.6
588.604	35844.57
588.801	35525.09
588.999	35647.97
589.196	35721.69
589.393	35373.54
589.59	35090.92
589.787	34691.57
589.984	35336.68
590.182	34750.96
590.379	35119.59
590.576	35054.06
590.773	34480.63
590.97	34519.54
591.167	34646.51
591.364	34284.02
591.561	34490.87
591.758	33860.09
591.955	34302.45
592.152	34345.46
592.349	33485.31
592.546	34118.14
592.743	33866.24
592.94	33145.35
593.137	33554.94
593.334	33501.7
593.531	32883.21
593.727	33303.04
593.924	33038.86
594.121	32805.39
594.318	33278.47
594.515	32657.93
594.712	33036.81
594.908	32369.17
595.105	32772.62
595.302	32289.3
595.499	32799.24
595.696	32606.73
595.892	31894.04
596.089	32426.51
596.286	32004.63
596.482	31955.48
596.679	31891.99
596.876	31777.31
597.072	31719.96
597.269	31672.86
597.466	31318.56
597.662	31345.19
597.859	31167.01
598.055	31377.95
598.252	30980.65
598.448	30839.34
598.645	30779.95
598.841	30681.64
599.038	30485.04
599.234	30990.89
599.431	30323.25
599.627	30399.02
599.824	30759.47
600.02	30104.12
600.217	30257.71
600.413	29995.57
600.609	29649.47
600.806	29809.21
601.002	29921.85
601.198	29524.54
601.395	29477.44
601.591	29676.09
601.787	29454.91
601.984	29125.19
602.18	29317.7
602.376	28908.1
602.572	29030.98
602.769	28772.94
602.965	28820.04
603.161	29047.36
603.357	28699.21
603.553	28758.6
603.75	28723.79
603.946	28592.72
604.142	28340.82
604.338	27832.92
604.534	28445.26
604.73	27705.95
604.926	27818.58
605.122	27933.27
605.318	27798.1
605.514	27519.58
605.71	27355.74
605.906	27607.64
606.102	27312.74
606.298	27546.2
606.494	27429.47
606.69	27325.02
606.886	27353.69
607.082	26886.76
607.278	27359.84
607.474	26987.11
607.67	26956.39
607.866	26548.84
608.062	27064.93
608.257	26610.28
608.453	26899.05
608.649	26643.05
608.845	26729.06
609.041	26200.69
609.236	26585.71
609.432	26448.49
609.628	26698.34
609.824	26067.57
610.019	26110.58
610.215	26184.3
610.411	25989.75
610.606	25989.75
610.802	26002.04
610.998	26102.39
611.193	26212.98
611.389	25928.31
611.584	26051.19
611.78	25629.3
611.976	26004.08
612.171	25643.64
612.367	25553.53
612.562	25451.13
612.758	24896.13
612.953	25277.05
613.149	25512.57
613.344	25098.88
613.539	25559.67
613.735	25293.44
613.93	25188.99
614.126	25217.66
614.321	25369.21
614.517	24976
614.712	25164.42
614.907	25025.15
615.103	24853.12
615.298	24744.58
615.493	25008.77
615.688	24595.08
615.884	24881.8
616.079	24564.36
616.274	24664.71
616.47	24791.69
616.665	24443.53
616.86	24554.12
617.055	24228.49
617.25	24437.39
617.445	24810.12
617.641	23972.5
617.836	24187.53
618.031	23749.27
618.226	24109.71
618.421	24109.71
618.616	24081.04
618.811	23511.71
619.006	24017.55
619.201	23403.16
619.396	23866
619.591	23132.83
619.786	23624.34
619.981	23028.38
620.176	22964.9
620.371	22837.92
620.566	23351.96
620.761	22538.92
620.956	22977.19
621.151	22512.3
621.346	22655.65
621.541	22489.77
621.735	22444.71
621.93	22031.02
622.125	22123.18
622.32	21678.77
622.515	21791.41
622.709	21793.46
622.904	21781.17
623.099	21490.36
623.294	21824.18
623.488	21189.31
623.683	21435.06
623.878	20929.22
624.072	21015.23
624.267	21025.47
624.462	20822.72
624.656	20380.36
624.851	20519.62
625.046	20355.79
625.24	20394.7
625.435	20230.86
625.629	20212.43
625.824	20095.69
626.018	20228.81
626.213	19419.86
626.407	19673.81
626.602	19747.54
626.796	19835.6
626.991	19491.54
627.185	19274.46
627.38	19016.41
627.574	19147.48
627.768	18909.92
627.963	18932.45
628.157	18809.57
628.352	18637.54
628.546	18442.98
628.74	18739.94
628.935	18424.55
629.129	18467.56
629.323	17947.37
629.517	18227.95
629.712	17918.7
629.906	18017.01
630.1	17611.51
630.294	17746.67
630.489	17689.33
630.683	17728.24
630.877	17371.89
631.071	17429.24
631.265	17345.27
631.459	17093.37
631.653	17048.32
631.848	16890.62
632.042	16911.1
632.236	16909.05
632.43	16573.19
632.624	16714.5
632.818	16474.88
633.012	16501.51
633.206	16130.83
633.4	16372.49
633.594	16286.47
633.788	16192.26
633.982	15977.23
634.176	15868.69
634.369	15708.94
634.563	16005.9
634.757	15715.09
634.951	15739.66
635.145	15735.57
635.339	15315.73
635.533	15467.28
635.726	15581.97
635.92	15135.51
636.114	15121.18
636.308	15084.31
636.501	14981.92
636.695	14732.06
636.889	14908.19
637.083	14883.61
637.276	14402.34
637.47	14453.54
637.664	14533.41
637.857	14476.07
638.051	14676.77
638.244	14201.64
638.438	14076.71
638.632	14015.27
638.825	14109.48
639.019	13851.44
639.212	13914.92
639.406	13755.18
639.599	13558.58
639.793	13773.61
639.986	13740.85
640.18	13480.75
640.373	13460.27
640.567	13441.84
640.76	13273.91
640.954	13392.69
641.147	13251.38
641.34	12960.57
641.534	13126.46
641.727	12935.99
641.92	12972.86
642.114	13036.35
642.307	12675.9
642.5	12890.94
642.694	12677.95
642.887	12589.89
643.08	12790.59
643.273	12438.34
643.467	12278.6
643.66	12182.34
643.853	12237.64
644.046	12174.15
644.239	12176.2
644.432	12112.71
644.626	12000.07
644.819	11993.93
645.012	11981.64
645.205	11905.87
645.398	11905.87
645.591	11791.18
645.784	11580.24
645.977	11453.27
646.17	11465.55
646.363	11344.72
646.556	11348.82
646.749	11596.62
646.942	11275.09
647.135	11230.04
647.328	11133.78
647.521	11139.93
647.714	11004.76
647.907	11047.77
648.099	10988.38
648.292	10951.51
648.485	11008.86
648.678	10537.82
648.871	10744.67
649.064	10410.85
649.256	10519.39
649.449	10550.11
649.642	10341.22
649.835	10562.4
650.027	10244.96
650.22	10210.15
650.413	10343.27
650.605	10240.87
650.798	10183.52
650.991	10117.99
651.183	10025.83
651.376	9986.92
651.568	9866.09
651.761	9771.88
651.954	9870.19
652.146	9771.88
652.339	9677.68
652.531	9753.45
652.724	9618.29
652.916	9554.8
653.109	9331.57
653.301	9366.39
653.494	9370.48
653.686	9331.57
653.879	9378.67
654.071	9208.69
654.263	9186.16
654.456	9182.07
654.648	9141.11
654.84	8846.2
655.033	9005.94
655.225	8995.7
655.417	8852.34
655.61	8924.02
655.802	8778.62
655.994	8708.99
656.186	8764.28
656.379	8731.51
656.571	8641.4
656.763	8633.21
656.955	8532.86
657.148	8526.72
657.34	8360.83
657.532	8465.28
657.724	8389.5
657.916	8407.94
658.108	8397.7
658.3	8133.51
658.492	8450.94
658.684	8078.21
658.876	8086.4
659.068	8088.45
659.26	7990.15
659.452	7953.29
659.644	8065.92
659.836	7955.33
660.028	7902.09
660.22	7666.57
660.412	7642
660.604	7807.88
660.796	7691.15
660.988	7750.54
661.18	7545.74
661.372	7404.43
661.563	7592.84
661.755	7392.14
661.947	7738.25
662.139	7293.84
662.331	7455.63
662.522	7324.56
662.714	7160.72
662.906	7236.5
663.097	7138.2
663.289	7310.22
663.481	7254.93
663.673	7097.24
663.864	7015.32
664.056	7162.77
664.247	7017.36
664.439	6943.64
664.631	6974.36
664.822	6898.58
665.014	6880.15
665.205	6787.99
665.397	6656.92
665.588	6734.75
665.78	6781.85
665.971	6577.05
666.163	6626.2
666.354	6572.96
666.546	6650.78
666.737	6493.08
666.929	6484.89
667.12	6384.54
667.311	6593.44
667.503	6497.18
667.694	6505.37
667.885	6390.69
668.077	6251.42
668.268	6255.52
668.459	6280.1
668.651	6321.06
668.842	6114.21
669.033	6175.65
669.224	6118.31
669.416	6206.37
669.607	6177.7
669.798	5913.51
669.989	6009.76
670.18	6003.62
670.371	6003.62
670.563	6042.53
670.754	6134.69
670.945	6026.15
671.136	5993.38
671.327	5843.88
671.518	5770.15
671.709	5868.45
671.9	5829.54
672.091	5694.38
672.282	5563.31
672.473	5671.85
672.664	5800.87
672.855	5813.16
673.046	5514.16
673.237	5735.34
673.428	5575.59
673.619	5657.51
673.809	5534.64
674	5591.98
674.191	5458.86
674.382	5387.18
674.573	5409.71
674.764	5430.19
674.954	5434.29
675.145	5399.47
675.336	5399.47
675.527	5317.55
675.717	5331.89
675.908	5323.69
676.099	5262.26
676.289	5315.5
676.48	5186.48
676.671	5241.78
676.861	5245.87
677.052	5221.3
677.243	5243.82
677.433	5188.53
677.624	5139.38
677.814	5094.32
678.005	5034.93
678.195	4885.43
678.386	5018.55
678.576	5151.67
678.767	4975.54
678.957	4989.88
679.148	4946.87
679.338	4987.83
679.529	5088.18
679.719	4930.48
679.909	4989.88
680.1	4901.81
680.29	4860.85
680.481	4950.96
680.671	4686.78
680.861	4944.82
681.052	4916.15
681.242	4869.05
681.432	4725.69
681.622	4891.57
681.813	4776.89
682.003	4793.27
682.193	4590.52
682.383	4772.79
682.573	4862.9
682.764	4617.15
682.954	4723.64
683.144	4645.82
683.334	4602.81
683.524	4727.74
683.714	4647.87
683.904	4631.48
684.094	4594.62
684.284	4500.41
684.474	4682.68
684.664	4735.93
684.854	4522.94
685.044	4518.84
685.234	4322.24
685.424	4490.17
685.614	4518.84
685.804	4508.6
685.994	4486.08
686.184	4420.54
686.374	4385.73
686.564	4377.53
686.753	4424.64
686.943	4338.62
687.133	4340.67
687.323	4314.05
687.513	4242.37
687.702	4344.77
687.892	4279.23
688.082	4115.39
688.272	4105.15
688.461	4244.42
688.651	4201.41
688.841	4170.69
689.03	4289.47
689.22	4172.74
689.41	4117.44
689.599	4162.5
689.789	3959.75
689.979	3902.4
690.168	3967.94
690.358	3924.93
690.547	4072.39
690.737	3955.65
690.926	4043.71
691.116	4039.62
691.305	3972.04
691.495	3980.23
691.684	3924.93
691.874	3974.08
692.063	3894.21
692.252	3781.57
692.442	3836.87
692.631	3795.91
692.82	3902.4
693.01	3664.84
693.199	3777.48
693.388	3738.57
693.578	3763.14
693.767	3732.42
693.956	3605.45
694.146	3630.02
694.335	3703.75
694.524	3640.26
694.713	3689.42
694.902	3646.41
695.092	3623.88
695.281	3578.83
695.47	3697.61
695.659	3537.87
695.848	3548.11
696.037	3503.05
696.226	3685.32
696.415	3607.5
696.604	3505.1
696.793	3333.07
696.982	3515.34
697.171	3607.5
697.36	3447.76
697.549	3558.35
697.738	3369.93
697.927	3417.04
698.116	3464.14
698.305	3476.43
698.494	3429.32
698.683	3402.7
698.872	3464.14
699.061	3369.93
699.25	3476.43
699.438	3453.9
699.627	3435.47
699.816	3554.25
700.005	3423.18
700.193	3529.67
700.382	3374.03
700.571	3455.95
700.76	3441.61
700.948	3482.57
701.137	3394.51
701.326	3453.9
701.514	3331.02
701.703	3306.45
701.892	3316.69
702.08	3439.56
702.269	3328.97
702.457	3308.49
702.646	3363.79
702.834	3226.57
703.023	3433.42
703.212	3427.28
703.4	3402.7
703.589	3226.57
703.777	3320.78
703.965	3285.97
704.154	3347.4
704.342	3386.32
704.531	3226.57
704.719	3261.39
704.907	3214.29
705.096	3333.07
705.284	3230.67
705.472	3392.46
705.661	3228.62
705.849	3365.84
706.037	3285.97
706.226	3374.03
706.414	3236.81
706.602	3353.55
706.79	3290.06
706.979	3281.87
707.167	3290.06
707.355	3294.16
707.543	3259.34
707.731	3195.86
707.919	3130.32
708.107	3179.47
708.296	3271.63
708.484	3292.11
708.672	3230.67
708.86	3322.83
709.048	3105.74
709.236	3079.12
709.424	3212.24
709.612	3374.03
709.8	3212.24
709.988	3292.11
710.176	3199.95
710.364	3142.61
710.551	3322.83
710.739	3302.35
710.927	3185.62
711.115	3095.5
711.303	3210.19
711.491	3226.57
711.679	3150.8
711.866	3183.57
712.054	3234.77
712.242	3283.92
712.43	3191.76
712.617	3179.47
712.805	3183.57
712.993	3206.1
713.181	3034.07
713.368	3107.79
713.556	3085.26
713.744	3138.51
713.931	3085.26
714.119	3107.79
714.306	3183.57
714.494	3175.38
714.682	3087.31
714.869	3099.6
715.057	3093.46
715.244	3148.75
715.432	3234.77
715.619	3124.18
715.807	3109.84
715.994	3156.94
716.182	3132.37
716.369	3062.74
716.556	3177.42
716.744	3089.36
716.931	3154.9
717.119	3038.16
717.306	3087.31
717.493	3118.03
717.681	3044.31
717.868	3011.54
718.055	3060.69
718.242	3113.94
718.43	3163.09
718.617	2993.11
718.804	3087.31
718.991	3025.87
719.179	3189.71
719.366	2991.06
719.553	3097.55
719.74	3103.7
719.927	3091.41
720.114	2968.53
720.301	3150.8
720.488	3009.49
720.676	3046.35
720.863	2946
721.05	3140.56
721.237	3040.21
721.424	3136.46
721.611	2995.15
721.798	2962.39
721.985	3042.26
722.172	2999.25
722.358	2941.91
722.545	2986.96
722.732	2991.06
722.919	3068.88
723.106	3089.36
723.293	2958.29
723.48	3079.12
723.667	3021.78
723.853	2921.43
724.04	2925.52
724.227	2872.28
724.414	2982.87
724.6	2941.91
724.787	2968.53
724.974	2941.91
725.161	2915.28
725.347	2886.61
725.534	2905.04
725.72	2819.03
725.907	2995.15
726.094	2970.58
726.28	2866.13
726.467	2993.11
726.653	3050.45
726.84	2909.14
727.027	2874.32
727.213	2927.57
727.4	2976.72
727.586	3019.73
727.773	2884.56
727.959	2890.71
728.145	2884.56
728.332	2878.42
728.518	2794.45
728.705	2935.76
728.891	2866.13
729.077	2855.89
729.264	2812.89
729.45	2892.76
729.636	2933.72
729.823	2868.18
730.009	2823.12
730.195	2866.13
730.382	2950.1
730.568	2814.93
730.754	3021.78
730.94	2966.48
731.126	2855.89
731.313	2802.65
731.499	2765.78
731.685	2730.97
731.871	2796.5
732.057	2810.84
732.243	2782.17
732.429	2882.52
732.615	2802.65
732.801	2755.54
732.987	2878.42
733.173	2898.9
733.359	2882.52
733.545	2728.92
733.731	2792.41
733.917	2778.07
734.103	2718.68
734.289	2819.03
734.475	2757.59
734.661	2939.86
734.847	2739.16
735.033	2696.15
735.219	2747.35
735.404	2677.72
735.59	2753.49
735.776	2690.01
735.962	2790.36
736.148	2743.25
736.333	2716.63
736.519	2753.49
736.705	2690.01
736.89	2638.81
737.076	2773.97
737.262	2640.86
737.447	2653.14
737.633	2636.76
737.819	2663.38
738.004	2612.18
738.19	2569.18
738.375	2638.81
738.561	2690.01
738.747	2608.09
738.932	2509.79
739.118	2653.14
739.303	2507.74
739.489	2612.18
739.674	2700.25
739.859	2556.89
740.045	2663.38
740.23	2487.26
740.416	2413.53
740.601	2483.16
740.786	2548.7
740.972	2415.58
741.157	2560.98
741.342	2397.15
741.528	2499.55
741.713	2485.21
741.898	2477.02
742.084	2460.63
742.269	2325.47
742.454	2343.9
742.639	2429.91
742.824	2413.53
743.01	2304.99
743.195	2468.83
743.38	2307.04
743.565	2388.96
743.75	2450.39
743.935	2333.66
744.12	2345.95
744.305	2218.97
744.49	2270.17
744.675	2401.24
744.86	2350.04
745.045	2257.89
745.23	2225.12
745.415	2352.09
745.6	2348
745.785	2216.93
745.97	2266.08
746.155	2284.51
746.34	2221.02
746.525	2081.76
746.71	2331.61
746.895	2169.82
747.079	2135.01
747.264	2165.73
747.449	2124.77
747.634	2085.86
747.819	2102.24
748.003	2157.54
748.188	2116.58
748.373	2128.86
748.557	2100.19
748.742	2034.66
748.927	2079.71
749.111	1940.45
749.296	1997.79
749.481	2018.27
749.665	2016.23
749.85	1924.07
750.034	1911.78
750.219	1956.83
750.404	1836
750.588	1866.72
750.773	1866.72
750.957	1848.29
751.141	1815.52
751.326	1973.22
751.51	1891.3
751.695	1690.6
751.879	1860.58
752.064	1907.68
752.248	1866.72
752.432	1870.82
752.617	1803.24
752.801	1831.91
752.985	1836
753.17	1678.31
753.354	1713.13
753.538	1741.8
753.722	1655.78
753.907	1620.97
754.091	1545.19
754.275	1569.77
754.459	1649.64
754.643	1645.54
754.828	1676.26
755.012	1682.41
755.196	1577.96
755.38	1598.44
755.564	1612.78
755.748	1586.15
755.932	1530.86
756.116	1545.19
756.3	1598.44
756.484	1559.53
756.668	1459.18
756.852	1551.34
757.036	1493.99
757.22	1580.01
757.404	1557.48
757.588	1502.19
757.772	1485.8
757.956	1481.71
758.14	1438.7
758.323	1500.14
758.507	1448.94
758.691	1385.45
758.875	1397.74
759.059	1420.27
759.242	1373.16
759.426	1299.44
759.61	1379.31
759.794	1362.92
759.977	1328.11
760.161	1309.68
760.345	1313.77
760.528	1362.92
760.712	1369.07
760.895	1264.62
761.079	1340.4
761.263	1227.76
761.446	1235.95
761.63	1307.63
761.813	1233.9
761.997	1238
762.18	1164.27
762.364	1213.42
762.547	1178.61
762.731	1227.76
762.914	1295.34
763.098	1201.13
763.281	1229.81
763.464	1186.8
763.648	1131.5
763.831	1178.61
764.015	1235.95
764.198	1217.52
764.381	1203.18
764.564	1176.56
764.748	1211.37
764.931	1115.12
765.114	1074.16
765.297	1178.61
765.481	1180.65
765.664	1121.26
765.847	1055.73
766.03	1164.27
766.213	1113.07
766.397	1059.82
766.58	1065.97
766.763	1143.79
766.946	1094.64
767.129	1049.58
767.312	1096.69
767.495	1135.6
767.678	1051.63
767.861	1115.12
768.044	1129.45
768.227	1065.97
768.41	1037.3
768.593	1002.48
768.776	1033.2
768.959	986.1
769.142	1080.3
769.324	1043.44
769.507	998.38
769.69	1072.11
769.873	1068.02
770.056	1010.67
770.239	1070.06
770.421	1018.86
770.604	1010.67
770.787	1027.06
770.97	1102.83
771.152	916.47
771.335	1014.77
771.518	1006.58
771.7	1010.67
771.883	965.62
772.066	1029.1
772.248	893.94
772.431	1012.72
772.613	891.89
772.796	918.51
772.978	889.84
773.161	998.38
773.343	850.93
773.526	822.26
773.708	900.08
773.891	830.45
774.073	830.45
774.256	914.42
774.438	969.71
774.621	861.17
774.803	836.6
774.985	816.12
775.168	828.4
775.35	766.96
775.532	840.69
775.715	861.17
775.897	809.97
776.079	809.97
776.261	775.16
776.444	785.4
776.626	826.36
776.808	744.44
776.99	855.03
777.173	787.44
777.355	703.48
777.537	807.92
777.719	814.07
777.901	721.91
778.083	773.11
778.265	699.38
778.447	721.91
778.629	795.64
778.811	744.44
778.993	746.48
779.175	750.58
779.357	723.96
779.539	601.08
779.721	713.72
779.903	670.71
780.085	656.37
780.267	715.77
780.449	730.1
780.631	742.39
780.812	582.65
780.994	662.52
781.176	635.89
781.358	592.89
781.54	656.37
781.721	633.85
781.903	711.67
782.085	664.57
782.267	691.19
782.448	629.75
782.63	592.89
782.812	590.84
782.993	617.46
783.175	621.56
783.357	592.89
783.538	633.85
783.72	570.36
783.901	490.49
784.083	502.78
784.264	496.63
784.446	631.8
784.627	560.12
784.809	531.45
784.99	523.26
785.172	488.44
785.353	568.31
785.535	535.54
785.716	519.16
785.897	500.73
786.079	525.3
786.26	529.4
786.441	539.64
786.623	470.01
786.804	531.45
786.985	486.39
787.167	451.58
787.348	404.47
787.529	476.15
787.71	470.01
787.891	488.44
788.073	510.97
788.254	465.91
788.435	472.06
788.616	369.66
788.797	445.43
788.978	457.72
789.159	427
789.34	455.67
789.522	441.34
789.703	437.24
789.884	427
790.065	381.95
790.246	449.53
790.427	443.39
790.607	371.71
790.788	424.95
790.969	410.62
791.15	459.77
791.331	363.51
791.512	398.33
791.693	379.9
791.874	349.18
792.054	359.42
792.235	371.71
792.416	404.47
792.597	328.7
792.778	414.71
792.958	410.62
793.139	408.57
793.32	343.03
793.5	334.84
793.681	394.23
793.862	349.18
794.042	386.04
794.223	375.8
794.404	369.66
794.584	394.23
794.765	306.17
794.945	357.37
795.126	381.95
795.306	418.81
795.487	429.05
795.667	287.74
795.848	357.37
796.028	361.47
796.209	316.41
796.389	363.51
796.57	322.56
796.75	226.3
796.93	383.99
797.111	318.46
797.291	314.36
797.471	375.8
797.652	388.09
797.832	334.84
798.012	322.56
798.192	316.41
798.373	322.56
798.553	386.04
798.733	347.13
798.913	310.27
799.093	297.98
799.274	306.17
799.454	396.28
799.634	334.84
799.814	267.26
799.994	316.41
800.174	392.19
800.354	236.54
800.534	324.6
800.714	238.59
800.894	316.41
801.074	359.42
801.254	263.16
801.434	338.94
801.614	310.27
801.794	306.17
801.974	574.46
802.154	273.4
802.334	279.55
802.514	279.55
802.693	191.49
802.873	269.31
803.053	277.5
803.233	265.21
803.413	236.54
803.592	306.17
803.772	287.74
803.952	238.59
804.131	304.12
804.311	252.92
804.491	250.88
804.67	166.91
804.85	193.53
805.03	222.2
805.209	275.45
805.389	261.12
805.568	263.16
805.748	287.74
805.928	146.43
806.107	232.44
806.287	162.81
806.466	242.68
806.646	236.54
806.825	205.82
807.004	246.78
807.184	267.26
807.363	220.16
807.543	220.16
807.722	281.6
807.901	234.49
808.081	244.73
808.26	146.43
808.439	232.44
808.619	177.15
808.798	177.15
808.977	205.82
809.156	285.69
809.336	265.21
809.515	318.46
809.694	236.54
809.873	252.92
810.052	193.53
810.231	150.53
810.411	240.64
810.59	173.05
810.769	250.88
810.948	181.25
811.127	214.01
811.306	193.53
811.485	197.63
811.664	277.5
811.843	236.54
812.022	195.58
812.201	185.34
812.38	209.92
812.559	158.72
812.737	201.72
812.916	201.72
813.095	205.82
813.274	195.58
813.453	109.57
813.632	236.54
813.811	168.96
813.989	136.19
814.168	152.57
814.347	160.77
814.526	224.25
814.704	187.39
814.883	193.53
815.062	156.67
815.24	179.2
815.419	136.19
815.598	166.91
815.776	183.29
815.955	234.49
816.133	66.56
816.312	209.92
816.49	125.95
816.669	179.2
816.847	179.2
817.026	154.62
817.204	130.05
817.383	189.44
817.561	160.77
817.74	187.39
817.918	187.39
818.097	160.77
818.275	144.38
818.453	154.62
818.632	158.72
818.81	140.29
818.988	209.92
819.167	189.44
819.345	181.25
819.523	211.96
819.701	99.33
819.879	64.51
820.058	119.81
820.236	173.05
820.414	130.05
820.592	171.01
820.77	177.15
820.948	152.57
821.127	91.13
821.305	173.05
821.483	146.43
821.661	140.29
821.839	136.19
822.017	89.09
822.195	95.23
822.373	156.67
822.551	142.33
822.729	168.96
822.907	158.72
823.085	136.19
823.262	128
823.44	156.67
823.618	197.63
823.796	177.15
823.974	128
824.152	152.57
824.329	128
824.507	158.72
824.685	146.43
824.863	154.62
825.04	113.66
825.218	136.19
825.396	103.42
825.574	162.81
825.751	123.9
825.929	234.49
826.107	84.99
826.284	101.37
826.462	119.81
826.639	91.13
826.817	72.7
826.994	93.18
827.172	101.37
827.349	123.9
827.527	60.42
827.704	80.89
827.882	105.47
828.059	144.38
828.237	93.18
828.414	91.13
828.591	78.85
828.769	128
828.946	72.7
829.124	154.62
829.301	89.09
829.478	-3.07
829.655	162.81
829.833	136.19
830.01	95.23
830.187	113.66
830.364	99.33
830.542	166.91
830.719	107.52
830.896	111.61
831.073	52.22
831.25	109.57
831.427	134.14
831.604	91.13
831.782	97.28
831.959	82.94
832.136	158.72
832.313	109.57
832.49	70.65
832.667	162.81
832.844	52.22
833.021	175.1
833.198	87.04
833.374	107.52
833.551	64.51
833.728	119.81
833.905	154.62
834.082	89.09
834.259	109.57
834.436	87.04
834.612	29.7
834.789	136.19
834.966	82.94
835.143	132.09
835.319	21.5
835.496	111.61
835.673	80.89
835.85	76.8
836.026	91.13
836.203	154.62
836.38	125.95
836.556	95.23
836.733	93.18
836.909	78.85
837.086	107.52
837.262	41.98
837.439	70.65
837.616	11.26
837.792	56.32
837.968	9.22
838.145	107.52
838.321	41.98
838.498	80.89
838.674	103.42
838.851	130.05
839.027	99.33
839.203	115.71
839.38	72.7
839.556	82.94
839.732	119.81
839.909	87.04
840.085	136.19
840.261	101.37
840.437	68.61
840.614	50.18
840.79	99.33
840.966	46.08
841.142	62.46
841.318	44.03
841.494	132.09
841.671	58.37
841.847	33.79
842.023	60.42
842.199	111.61
842.375	78.85
842.551	89.09
842.727	64.51
842.903	58.37
843.079	39.94
843.255	150.53
843.431	33.79
843.607	78.85
843.783	23.55
843.959	93.18
844.134	70.65
844.31	109.57
844.486	89.09
844.662	84.99
844.838	17.41
845.013	140.29
845.189	33.79
845.365	95.23
845.541	64.51
845.716	101.37
845.892	64.51
846.068	146.43
846.244	76.8
846.419	144.38
846.595	54.27
846.77	60.42
846.946	31.74
847.122	148.48
847.297	-5.12
847.473	101.37
847.648	56.32
847.824	121.85
847.999	78.85
848.175	29.7
848.35	152.57
848.526	-3.07
848.701	123.9
848.876	39.94
849.052	68.61
849.227	44.03
849.403	15.36
849.578	60.42
849.753	123.9
849.929	15.36
850.104	66.56
850.279	37.89
850.454	58.37
850.63	91.13
850.805	62.46
850.98	91.13
851.155	-23.55
851.33	62.46
851.505	-1.02
851.681	74.75
851.856	82.94
852.031	-11.26
852.206	64.51
852.381	27.65
852.556	74.75
852.731	80.89
852.906	78.85
853.081	46.08
853.256	125.95
853.431	5.12
853.606	48.13
853.781	21.5
853.956	11.26
854.131	52.22
854.305	27.65
854.48	25.6
854.655	-11.26
854.83	15.36
855.005	29.7
855.18	50.18
855.354	46.08
855.529	95.23
855.704	128
855.879	3.07
856.053	3.07
856.228	35.84
856.403	-35.84
856.577	31.74
856.752	-13.31
856.926	54.27
857.101	23.55
857.276	15.36
857.45	46.08
857.625	103.42
857.799	46.08
857.974	-1.02
858.148	54.27
858.323	107.52
858.497	-37.89
858.672	-5.12
858.846	136.19
859.02	31.74
859.195	23.55
859.369	56.32
859.543	37.89
859.718	52.22
859.892	17.41
860.066	60.42
860.241	31.74
860.415	-3.07
860.589	97.28
860.763	76.8
860.938	70.65
861.112	-5.12
861.286	84.99
861.46	-5.12
861.634	142.33
861.808	89.09
861.982	41.98
862.157	15.36
862.331	5.12
862.505	-7.17
862.679	-3.07
862.853	29.7
863.027	-23.55
863.201	58.37
863.375	-5.12
863.549	48.13
863.722	15.36
863.896	107.52
864.07	68.61
864.244	68.61
864.418	25.6
864.592	-21.5
864.766	93.18
864.939	66.56
865.113	48.13
865.287	33.79
865.461	84.99
865.634	119.81
865.808	27.65
865.982	31.74
866.156	7.17
866.329	19.46
866.503	48.13
866.676	39.94
866.85	78.85
867.024	-13.31
867.197	76.8
867.371	41.98
867.544	99.33
867.718	29.7
867.891	-48.13
868.065	13.31
868.238	132.09
868.412	29.7
868.585	39.94
868.759	17.41
868.932	66.56
869.105	-13.31
869.279	29.7
869.452	62.46
869.625	66.56
869.799	37.89
869.972	-21.5
870.145	1.02
870.319	23.55
870.492	48.13
870.665	39.94
870.838	15.36
871.011	5.12
871.185	46.08
871.358	46.08
871.531	99.33
871.704	52.22
871.877	31.74
872.05	37.89
872.223	25.6
872.396	-13.31
872.569	-31.74
872.742	41.98
872.915	33.79
873.088	35.84
873.261	41.98
873.434	58.37
873.607	95.23
873.78	29.7
873.953	46.08
874.126	33.79
874.299	33.79
874.471	70.65
874.644	50.18
874.817	50.18
874.99	97.28
875.163	-3.07
875.335	29.7
875.508	3.07
875.681	50.18
875.853	68.61
876.026	27.65
876.199	3.07
876.371	68.61
876.544	33.79
876.717	140.29
876.889	31.74
877.062	19.46
877.234	56.32
877.407	25.6
877.579	48.13
877.752	39.94
877.924	-3.07
878.097	84.99
878.269	11.26
878.442	41.98
878.614	56.32
878.786	19.46
878.959	29.7
879.131	31.74
879.303	35.84
879.476	37.89
879.648	50.18
879.82	19.46
879.993	9.22
880.165	-11.26
880.337	-29.7
880.509	44.03
880.681	19.46
880.854	13.31
881.026	27.65
881.198	105.47
881.37	-31.74
881.542	19.46
881.714	37.89
881.886	72.7
882.058	121.85
882.23	17.41
882.402	-17.41
882.574	48.13
882.746	50.18
882.918	46.08
883.09	62.46
883.262	-31.74
883.434	7.17
883.606	31.74
883.778	-37.89
883.95	13.31
884.122	48.13
884.293	58.37
884.465	46.08
884.637	5.12
884.809	37.89
884.98	99.33
885.152	17.41
885.324	56.32
885.496	23.55
885.667	39.94
885.839	-93.18
886.011	105.47
886.182	-5.12
886.354	74.75
886.525	58.37
886.697	128
886.869	35.84
887.04	15.36
887.212	78.85
887.383	17.41
887.555	23.55
887.726	66.56
887.897	52.22
888.069	113.66
888.24	-35.84
888.412	37.89
888.583	29.7
888.754	74.75
888.926	-66.56
889.097	13.31
889.268	66.56
889.44	29.7
889.611	3.07
889.782	9.22
889.953	25.6
890.125	7.17
890.296	1.02
890.467	27.65
890.638	-13.31
890.809	97.28
890.98	-27.65
891.151	109.57
891.323	25.6
891.494	-5.12
891.665	-68.61
891.836	105.47
892.007	-11.26
892.178	60.42
892.349	46.08
892.52	23.55
892.691	-37.89
892.862	37.89
893.032	-21.5
893.203	89.09
893.374	5.12
893.545	-11.26
893.716	-62.46
893.887	68.61
894.057	5.12
894.228	-13.31
894.399	5.12
894.57	50.18
894.74	-1.02
894.911	41.98
895.082	-5.12
895.253	39.94
895.423	54.27
895.594	-3.07
895.764	-19.46
895.935	17.41
896.106	25.6
896.276	13.31
896.447	-48.13
896.617	-7.17
896.788	39.94
896.958	31.74
897.129	35.84
897.299	21.5
897.47	78.85
897.64	29.7
897.81	60.42
897.981	60.42
898.151	-1.02
898.322	15.36
898.492	5.12
898.662	-33.79
898.832	-23.55
899.003	50.18
899.173	58.37
899.343	-11.26
899.513	80.89
