Data from USB4F104151__31__12-00-41-292.txt Node

Date: Fri Mar 14 12:00:41 EDT 2025
User: louis
Spectrometer: USB4F10415
Trigger mode: 4
Integration Time (sec): 2.000000E-2
Scans to average: 1
Electric dark correction enabled: true
Nonlinearity correction enabled: false
Boxcar width: 0
XAxis mode: Wavelengths
Number of Pixels in Spectrum: 3648
>>>>>Begin Spectral Data<<<<<
178.204	35.16
178.424	35.16
178.644	35.16
178.864	-61.1
179.084	-46.76
179.304	6.49
179.524	8.53
179.744	20.82
179.964	31.06
180.184	12.63
180.404	63.83
180.624	14.68
180.844	-50.86
181.064	-77.48
181.283	-13.99
181.503	-7.85
181.723	-7.85
181.943	-18.09
182.163	-3.75
182.383	45.4
182.602	57.68
182.822	29.01
183.042	43.35
183.262	29.01
183.482	26.96
183.701	-20.14
183.921	41.3
184.141	-7.85
184.361	115.03
184.58	55.64
184.8	41.3
185.02	26.96
185.239	41.3
185.459	43.35
185.679	45.4
185.898	10.58
186.118	67.92
186.338	41.3
186.557	14.68
186.777	-9.9
186.997	47.44
187.216	-48.81
187.436	55.64
187.655	45.4
187.875	24.92
188.095	-28.33
188.314	72.02
188.534	55.64
188.753	49.49
188.973	-24.23
189.192	53.59
189.412	55.64
189.631	47.44
189.851	37.2
190.07	72.02
190.29	14.68
190.509	55.64
190.729	12.63
190.948	65.88
191.168	106.84
191.387	110.93
191.607	47.44
191.826	-7.85
192.045	53.59
192.265	29.01
192.484	43.35
192.704	-13.99
192.923	24.92
193.142	88.4
193.362	80.21
193.581	72.02
193.8	69.97
194.02	45.4
194.239	94.55
194.458	90.45
194.678	82.26
194.897	43.35
195.116	-9.9
195.335	51.54
195.555	112.98
195.774	-11.95
195.993	26.96
196.212	47.44
196.432	55.64
196.651	76.12
196.87	22.87
197.089	88.4
197.308	43.35
197.528	72.02
197.747	59.73
197.966	14.68
198.185	41.3
198.404	59.73
198.623	57.68
198.842	92.5
199.062	67.92
199.281	43.35
199.5	-28.33
199.719	59.73
199.938	29.01
200.157	127.32
200.376	-22.19
200.595	69.97
200.814	41.3
201.033	-36.52
201.252	106.84
201.471	53.59
201.69	65.88
201.909	102.74
202.128	-26.28
202.347	18.77
202.566	16.73
202.785	41.3
203.004	-36.52
203.223	76.12
203.442	67.92
203.661	37.2
203.879	-38.57
204.098	90.45
204.317	-42.67
204.536	26.96
204.755	26.96
204.974	74.07
205.193	49.49
205.411	78.16
205.63	2.39
205.849	20.82
206.068	78.16
206.287	76.12
206.505	88.4
206.724	172.37
206.943	29.01
207.162	65.88
207.381	47.44
207.599	-3.75
207.818	69.97
208.037	108.88
208.255	12.63
208.474	82.26
208.693	67.92
208.911	39.25
209.13	90.45
209.349	96.6
209.567	35.16
209.786	47.44
210.005	90.45
210.223	33.11
210.442	59.73
210.661	31.06
210.879	-5.8
211.098	84.31
211.316	65.88
211.535	108.88
211.753	-5.8
211.972	22.87
212.191	61.78
212.409	-16.04
212.628	24.92
212.846	35.16
213.065	41.3
213.283	155.99
213.502	-5.8
213.72	2.39
213.938	145.75
214.157	0.34
214.375	53.59
214.594	65.88
214.812	-54.95
215.031	24.92
215.249	29.01
215.467	8.53
215.686	31.06
215.904	78.16
216.122	12.63
216.341	47.44
216.559	39.25
216.778	55.64
216.996	98.64
217.214	29.01
217.432	49.49
217.651	63.83
217.869	-7.85
218.087	2.39
218.306	37.2
218.524	0.34
218.742	-3.75
218.96	43.35
219.179	4.44
219.397	59.73
219.615	78.16
219.833	108.88
220.051	31.06
220.27	37.2
220.488	20.82
220.706	55.64
220.924	37.2
221.142	74.07
221.36	-24.23
221.578	92.5
221.796	31.06
222.015	45.4
222.233	14.68
222.451	90.45
222.669	24.92
222.887	67.92
223.105	63.83
223.323	45.4
223.541	4.44
223.759	29.01
223.977	55.64
224.195	59.73
224.413	18.77
224.631	14.68
224.849	14.68
225.067	86.36
225.285	51.54
225.503	69.97
225.721	-11.95
225.939	33.11
226.157	57.68
226.375	51.54
226.592	-32.43
226.81	45.4
227.028	92.5
227.246	98.64
227.464	55.64
227.682	69.97
227.9	29.01
228.117	98.64
228.335	47.44
228.553	69.97
228.771	69.97
228.989	76.12
229.206	24.92
229.424	-28.33
229.642	53.59
229.86	106.84
230.077	12.63
230.295	33.11
230.513	43.35
230.731	63.83
230.948	51.54
231.166	92.5
231.384	12.63
231.601	76.12
231.819	112.98
232.037	14.68
232.254	14.68
232.472	100.69
232.689	35.16
232.907	6.49
233.125	14.68
233.342	61.78
233.56	14.68
233.777	53.59
233.995	-9.9
234.213	84.31
234.43	39.25
234.648	8.53
234.865	29.01
235.083	61.78
235.3	29.01
235.518	51.54
235.735	98.64
235.953	74.07
236.17	8.53
236.388	53.59
236.605	20.82
236.822	43.35
237.04	4.44
237.257	26.96
237.475	90.45
237.692	0.34
237.909	45.4
238.127	-13.99
238.344	41.3
238.562	102.74
238.779	2.39
238.996	26.96
239.214	37.2
239.431	92.5
239.648	-3.75
239.865	49.49
240.083	37.2
240.3	104.79
240.517	24.92
240.735	41.3
240.952	84.31
241.169	92.5
241.386	43.35
241.603	35.16
241.821	55.64
242.038	72.02
242.255	45.4
242.472	94.55
242.689	24.92
242.907	31.06
243.124	18.77
243.341	-9.9
243.558	-24.23
243.775	24.92
243.992	-9.9
244.209	31.06
244.426	69.97
244.643	110.93
244.86	41.3
245.078	31.06
245.295	47.44
245.512	57.68
245.729	0.34
245.946	-7.85
246.163	39.25
246.38	31.06
246.597	33.11
246.814	20.82
247.031	63.83
247.248	82.26
247.464	80.21
247.681	51.54
247.898	80.21
248.115	63.83
248.332	67.92
248.549	51.54
248.766	80.21
248.983	-3.75
249.2	16.73
249.417	39.25
249.633	-20.14
249.85	-9.9
250.067	8.53
250.284	2.39
250.501	72.02
250.717	53.59
250.934	43.35
251.151	-63.15
251.368	-5.8
251.585	-18.09
251.801	65.88
252.018	41.3
252.235	72.02
252.451	26.96
252.668	-42.67
252.885	74.07
253.102	24.92
253.318	86.36
253.535	104.79
253.752	49.49
253.968	22.87
254.185	-26.28
254.401	69.97
254.618	112.98
254.835	20.82
255.051	45.4
255.268	65.88
255.484	67.92
255.701	63.83
255.917	59.73
256.134	-1.71
256.351	76.12
256.567	2.39
256.784	22.87
257	-5.8
257.217	76.12
257.433	2.39
257.65	59.73
257.866	61.78
258.082	-13.99
258.299	47.44
258.515	78.16
258.732	69.97
258.948	20.82
259.165	94.55
259.381	51.54
259.597	51.54
259.814	20.82
260.03	35.16
260.246	-1.71
260.463	43.35
260.679	33.11
260.895	-34.47
261.112	29.01
261.328	20.82
261.544	41.3
261.761	14.68
261.977	84.31
262.193	18.77
262.409	33.11
262.626	2.39
262.842	35.16
263.058	45.4
263.274	0.34
263.49	65.88
263.707	-7.85
263.923	22.87
264.139	84.31
264.355	26.96
264.571	88.4
264.787	49.49
265.004	-24.23
265.22	26.96
265.436	-44.71
265.652	106.84
265.868	53.59
266.084	-42.67
266.3	51.54
266.516	43.35
266.732	33.11
266.948	90.45
267.164	127.32
267.38	115.03
267.596	129.36
267.812	29.01
268.028	43.35
268.244	12.63
268.46	-30.38
268.676	55.64
268.892	125.27
269.108	26.96
269.324	6.49
269.54	45.4
269.756	63.83
269.972	65.88
270.188	31.06
270.403	26.96
270.619	24.92
270.835	-3.75
271.051	61.78
271.267	57.68
271.483	61.78
271.698	90.45
271.914	59.73
272.13	16.73
272.346	123.22
272.562	47.44
272.777	41.3
272.993	112.98
273.209	69.97
273.425	108.88
273.64	76.12
273.856	31.06
274.072	80.21
274.287	43.35
274.503	96.6
274.719	18.77
274.934	67.92
275.15	41.3
275.366	57.68
275.581	8.53
275.797	80.21
276.012	65.88
276.228	61.78
276.444	26.96
276.659	133.46
276.875	-38.57
277.09	18.77
277.306	43.35
277.521	43.35
277.737	94.55
277.952	61.78
278.168	74.07
278.383	76.12
278.599	-11.95
278.814	45.4
279.03	14.68
279.245	67.92
279.461	92.5
279.676	72.02
279.892	45.4
280.107	26.96
280.322	4.44
280.538	37.2
280.753	2.39
280.969	74.07
281.184	49.49
281.399	55.64
281.615	39.25
281.83	65.88
282.045	26.96
282.26	84.31
282.476	45.4
282.691	33.11
282.906	29.01
283.122	63.83
283.337	8.53
283.552	65.88
283.767	16.73
283.983	49.49
284.198	112.98
284.413	53.59
284.628	41.3
284.843	43.35
285.058	2.39
285.274	-1.71
285.489	-1.71
285.704	94.55
285.919	-3.75
286.134	47.44
286.349	43.35
286.564	39.25
286.779	72.02
286.995	-7.85
287.21	26.96
287.425	82.26
287.64	55.64
287.855	12.63
288.07	10.58
288.285	41.3
288.5	67.92
288.715	80.21
288.93	86.36
289.145	112.98
289.36	14.68
289.575	-13.99
289.79	78.16
290.004	2.39
290.219	35.16
290.434	72.02
290.649	-52.91
290.864	-34.47
291.079	2.39
291.294	74.07
291.509	37.2
291.724	41.3
291.938	96.6
292.153	41.3
292.368	-18.09
292.583	100.69
292.798	74.07
293.012	135.51
293.227	80.21
293.442	45.4
293.657	69.97
293.871	35.16
294.086	10.58
294.301	39.25
294.516	14.68
294.73	-9.9
294.945	84.31
295.16	22.87
295.374	49.49
295.589	78.16
295.804	26.96
296.018	39.25
296.233	72.02
296.447	41.3
296.662	18.77
296.877	123.22
297.091	39.25
297.306	131.41
297.52	22.87
297.735	26.96
297.949	65.88
298.164	49.49
298.378	59.73
298.593	16.73
298.807	-3.75
299.022	22.87
299.236	55.64
299.451	-34.47
299.665	10.58
299.88	57.68
300.094	41.3
300.309	43.35
300.523	82.26
300.737	-30.38
300.952	61.78
301.166	90.45
301.381	41.3
301.595	90.45
301.809	35.16
302.024	41.3
302.238	-18.09
302.452	88.4
302.667	41.3
302.881	106.84
303.095	-5.8
303.309	121.17
303.524	47.44
303.738	47.44
303.952	37.2
304.166	51.54
304.381	31.06
304.595	-16.04
304.809	61.78
305.023	41.3
305.237	6.49
305.452	115.03
305.666	37.2
305.88	24.92
306.094	-11.95
306.308	41.3
306.522	82.26
306.736	10.58
306.95	63.83
307.164	41.3
307.379	-3.75
307.593	47.44
307.807	20.82
308.021	76.12
308.235	65.88
308.449	82.26
308.663	26.96
308.877	63.83
309.091	-20.14
309.305	55.64
309.519	-69.29
309.733	94.55
309.947	80.21
310.161	8.53
310.374	31.06
310.588	35.16
310.802	26.96
311.016	78.16
311.23	35.16
311.444	24.92
311.658	55.64
311.872	43.35
312.085	47.44
312.299	72.02
312.513	29.01
312.727	143.7
312.941	14.68
313.154	78.16
313.368	-5.8
313.582	117.08
313.796	51.54
314.009	16.73
314.223	37.2
314.437	76.12
314.651	14.68
314.864	35.16
315.078	43.35
315.292	29.01
315.505	39.25
315.719	82.26
315.933	55.64
316.146	104.79
316.36	63.83
316.573	74.07
316.787	-24.23
317.001	20.82
317.214	63.83
317.428	115.03
317.641	18.77
317.855	61.78
318.068	49.49
318.282	57.68
318.495	106.84
318.709	94.55
318.922	29.01
319.136	104.79
319.349	92.5
319.563	37.2
319.776	55.64
319.99	2.39
320.203	49.49
320.417	41.3
320.63	20.82
320.843	108.88
321.057	43.35
321.27	37.2
321.483	59.73
321.697	125.27
321.91	18.77
322.124	-11.95
322.337	63.83
322.55	57.68
322.763	39.25
322.977	47.44
323.19	37.2
323.403	45.4
323.617	63.83
323.83	12.63
324.043	-5.8
324.256	96.6
324.469	20.82
324.683	53.59
324.896	69.97
325.109	86.36
325.322	6.49
325.535	29.01
325.748	102.74
325.962	39.25
326.175	82.26
326.388	55.64
326.601	100.69
326.814	100.69
327.027	100.69
327.24	69.97
327.453	45.4
327.666	65.88
327.879	20.82
328.092	35.16
328.305	20.82
328.518	43.35
328.731	37.2
328.944	49.49
329.157	94.55
329.37	72.02
329.583	106.84
329.796	24.92
330.009	39.25
330.222	86.36
330.435	117.08
330.648	69.97
330.861	-3.75
331.073	57.68
331.286	16.73
331.499	49.49
331.712	-9.9
331.925	94.55
332.138	76.12
332.35	88.4
332.563	-7.85
332.776	12.63
332.989	39.25
333.202	-5.8
333.414	45.4
333.627	88.4
333.84	59.73
334.053	35.16
334.265	78.16
334.478	33.11
334.691	67.92
334.903	37.2
335.116	-63.15
335.329	123.22
335.541	18.77
335.754	96.6
335.966	18.77
336.179	74.07
336.392	22.87
336.604	0.34
336.817	18.77
337.029	43.35
337.242	78.16
337.454	84.31
337.667	51.54
337.88	67.92
338.092	24.92
338.305	8.53
338.517	-5.8
338.729	86.36
338.942	43.35
339.154	-11.95
339.367	33.11
339.579	100.69
339.792	76.12
340.004	137.56
340.217	72.02
340.429	57.68
340.641	4.44
340.854	72.02
341.066	20.82
341.278	76.12
341.491	55.64
341.703	31.06
341.915	16.73
342.128	90.45
342.34	18.77
342.552	67.92
342.764	37.2
342.977	57.68
343.189	37.2
343.401	100.69
343.613	69.97
343.826	10.58
344.038	43.35
344.25	57.68
344.462	39.25
344.674	31.06
344.886	69.97
345.099	84.31
345.311	104.79
345.523	14.68
345.735	45.4
345.947	41.3
346.159	92.5
346.371	78.16
346.583	0.34
346.795	45.4
347.007	41.3
347.219	12.63
347.431	84.31
347.643	72.02
347.855	-67.24
348.067	49.49
348.279	67.92
348.491	143.7
348.703	41.3
348.915	35.16
349.127	16.73
349.339	55.64
349.551	100.69
349.763	57.68
349.975	45.4
350.187	69.97
350.399	67.92
350.61	29.01
350.822	16.73
351.034	80.21
351.246	84.31
351.458	53.59
351.669	108.88
351.881	90.45
352.093	84.31
352.305	47.44
352.517	4.44
352.728	53.59
352.94	45.4
353.152	69.97
353.363	55.64
353.575	90.45
353.787	69.97
353.999	-5.8
354.21	90.45
354.422	96.6
354.633	45.4
354.845	63.83
355.057	67.92
355.268	-11.95
355.48	117.08
355.692	98.64
355.903	41.3
356.115	74.07
356.326	2.39
356.538	98.64
356.749	110.93
356.961	98.64
357.172	69.97
357.384	-16.04
357.595	110.93
357.807	119.12
358.018	80.21
358.23	133.46
358.441	59.73
358.653	82.26
358.864	18.77
359.075	61.78
359.287	61.78
359.498	57.68
359.709	86.36
359.921	100.69
360.132	20.82
360.344	26.96
360.555	92.5
360.766	135.51
360.977	18.77
361.189	55.64
361.4	166.23
361.611	102.74
361.823	90.45
362.034	65.88
362.245	14.68
362.456	51.54
362.667	35.16
362.879	2.39
363.09	6.49
363.301	51.54
363.512	106.84
363.723	106.84
363.935	65.88
364.146	35.16
364.357	67.92
364.568	43.35
364.779	55.64
364.99	112.98
365.201	67.92
365.412	49.49
365.623	43.35
365.834	76.12
366.045	47.44
366.256	100.69
366.467	31.06
366.678	67.92
366.889	4.44
367.1	55.64
367.311	102.74
367.522	33.11
367.733	84.31
367.944	123.22
368.155	39.25
368.366	22.87
368.577	47.44
368.788	102.74
368.999	55.64
369.209	82.26
369.42	125.27
369.631	110.93
369.842	4.44
370.053	141.65
370.264	76.12
370.474	39.25
370.685	129.36
370.896	26.96
371.107	119.12
371.317	108.88
371.528	18.77
371.739	53.59
371.95	76.12
372.16	45.4
372.371	-40.62
372.582	69.97
372.792	20.82
373.003	67.92
373.214	112.98
373.424	139.6
373.635	2.39
373.846	88.4
374.056	84.31
374.267	20.82
374.477	59.73
374.688	55.64
374.898	123.22
375.109	59.73
375.319	63.83
375.53	94.55
375.74	33.11
375.951	106.84
376.161	123.22
376.372	39.25
376.582	104.79
376.793	69.97
377.003	76.12
377.214	121.17
377.424	131.41
377.635	127.32
377.845	67.92
378.055	115.03
378.266	100.69
378.476	94.55
378.686	26.96
378.897	55.64
379.107	59.73
379.317	82.26
379.528	129.36
379.738	115.03
379.948	74.07
380.158	33.11
380.369	96.6
380.579	129.36
380.789	10.58
380.999	137.56
381.21	63.83
381.42	92.5
381.63	-7.85
381.84	155.99
382.05	112.98
382.261	63.83
382.471	108.88
382.681	-16.04
382.891	86.36
383.101	86.36
383.311	0.34
383.521	127.32
383.731	139.6
383.941	84.31
384.151	90.45
384.361	65.88
384.571	141.65
384.781	39.25
384.991	127.32
385.201	98.64
385.411	69.97
385.621	143.7
385.831	78.16
386.041	49.49
386.251	90.45
386.461	72.02
386.671	67.92
386.881	49.49
387.091	121.17
387.301	133.46
387.511	14.68
387.72	141.65
387.93	39.25
388.14	127.32
388.35	108.88
388.56	112.98
388.769	37.2
388.979	106.84
389.189	123.22
389.399	53.59
389.609	59.73
389.818	96.6
390.028	14.68
390.238	88.4
390.447	47.44
390.657	92.5
390.867	88.4
391.076	57.68
391.286	57.68
391.496	57.68
391.705	43.35
391.915	100.69
392.125	4.44
392.334	49.49
392.544	33.11
392.753	100.69
392.963	160.08
393.172	123.22
393.382	18.77
393.591	160.08
393.801	143.7
394.01	84.31
394.22	127.32
394.429	84.31
394.639	80.21
394.848	106.84
395.058	115.03
395.267	110.93
395.477	123.22
395.686	117.08
395.895	133.46
396.105	119.12
396.314	117.08
396.524	194.9
396.733	84.31
396.942	192.85
397.152	129.36
397.361	178.51
397.57	160.08
397.78	94.55
397.989	80.21
398.198	129.36
398.407	90.45
398.617	102.74
398.826	53.59
399.035	129.36
399.244	188.75
399.453	170.32
399.663	190.8
399.872	176.47
400.081	33.11
400.29	192.85
400.499	180.56
400.708	162.13
400.917	51.54
401.127	213.33
401.336	139.6
401.545	164.18
401.754	211.28
401.963	153.94
402.172	143.7
402.381	98.64
402.59	127.32
402.799	182.61
403.008	106.84
403.217	149.84
403.426	153.94
403.635	135.51
403.844	215.38
404.053	180.56
404.262	196.95
404.471	211.28
404.68	168.27
404.888	117.08
405.097	151.89
405.306	192.85
405.515	213.33
405.724	229.71
405.933	213.33
406.142	137.56
406.35	242
406.559	262.48
406.768	266.58
406.977	256.34
407.185	274.77
407.394	293.2
407.603	252.24
407.812	280.91
408.02	305.49
408.229	223.57
408.438	293.2
408.646	348.5
408.855	375.12
409.064	368.98
409.272	432.46
409.481	360.78
409.69	358.74
409.898	338.26
410.107	409.94
410.315	438.61
410.524	448.85
410.733	452.94
410.941	477.52
411.15	518.48
411.358	498
411.567	577.87
411.775	555.34
411.984	569.68
412.192	534.86
412.401	581.96
412.609	637.26
412.818	694.6
413.026	616.78
413.234	700.75
413.443	758.09
413.651	721.23
413.86	676.17
414.068	784.71
414.276	809.29
414.485	756.04
414.693	889.16
414.901	930.12
415.11	979.27
415.318	915.78
415.526	977.22
415.734	1024.33
415.943	1012.04
416.151	1110.34
416.359	1220.93
416.567	1083.72
416.776	1165.64
416.984	1304.9
417.192	1261.89
417.4	1349.95
417.608	1290.56
417.817	1397.06
418.025	1358.14
418.233	1642.81
418.441	1433.92
418.649	1630.52
418.857	1636.67
419.065	1820.99
419.273	1663.29
419.481	1767.74
419.689	1890.62
419.897	2111.8
420.105	1993.01
420.313	2087.22
420.521	2144.56
420.729	2232.63
420.937	2316.59
421.145	2459.95
421.353	2384.18
421.561	2541.87
421.769	2748.72
421.977	2722.09
422.185	2726.19
422.393	2898.22
422.601	3088.68
422.809	3051.81
423.017	3217.7
423.224	3334.43
423.432	3283.24
423.64	3379.49
423.848	3598.62
424.056	3569.95
424.263	3887.39
424.471	3916.06
424.679	3932.44
424.887	4221.2
425.094	4296.98
425.302	4319.51
425.51	4661.52
425.718	4555.02
425.925	4669.71
426.133	4808.97
426.341	5079.3
426.548	5325.06
426.756	5288.2
426.964	5368.07
427.171	5779.71
427.379	5736.7
427.586	5816.57
427.794	6166.78
428.001	6447.35
428.209	6594.8
428.417	6676.72
428.624	6955.24
428.832	7131.37
429.039	7147.75
429.247	7043.31
429.454	7848.16
429.662	8120.54
429.869	7735.52
430.076	8165.59
430.284	8048.86
430.491	8370.39
430.699	8763.6
430.906	8921.29
431.114	8947.92
431.321	9478.34
431.528	9513.16
431.736	10100.92
431.943	10592.44
432.15	10318.01
432.358	10436.79
432.565	10879.15
432.772	10860.72
432.979	11622.56
433.187	11653.28
433.394	11493.54
433.601	12560.53
433.808	12478.61
434.016	12437.66
434.223	12988.56
434.43	13805.7
434.637	13635.72
434.844	14305.4
435.052	14596.21
435.259	14712.95
435.466	14667.89
435.673	14637.17
435.88	15439.98
436.087	16246.88
436.294	16433.24
436.501	16072.8
436.708	16304.22
436.915	16726.1
437.122	17559.63
437.329	17700.94
437.537	18180.16
437.743	18561.08
437.95	18391.1
438.157	19449.9
438.364	19830.82
438.571	19808.3
438.778	19990.56
438.985	21735.43
439.192	20961.3
439.399	21624.84
439.606	21313.55
439.813	22468.61
440.02	23648.24
440.227	23193.59
440.433	23103.48
440.64	24029.16
440.847	24043.49
441.054	24446.94
441.261	25991.11
441.467	25583.57
441.674	26103.75
441.881	27002.81
442.088	27303.86
442.294	26748.86
442.501	27350.96
442.708	28026.79
442.914	29061.02
443.121	30388.1
443.328	29654.93
443.534	31702.9
443.741	31084.41
443.948	30384.01
444.154	32468.84
444.361	32319.34
444.568	32968.54
444.774	32747.36
444.981	32919.39
445.187	33843.02
445.394	35092.29
445.6	34897.73
445.807	38422.28
446.013	36286.25
446.22	37283.61
446.426	38809.35
446.633	38909.7
446.839	40453.87
447.046	38506.25
447.252	40586.99
447.459	40894.18
447.665	40578.79
447.871	42749.64
448.078	44072.63
448.284	41903.83
448.491	43323.07
448.697	45092.52
448.903	45475.49
449.11	45600.41
449.316	44934.82
449.522	45897.37
449.728	46904.97
449.935	47267.46
450.141	47359.62
450.347	48412.27
450.553	46872.2
450.76	47537.79
450.966	48701.04
451.172	48195.19
451.378	49571.42
451.584	48213.62
451.791	49501.79
451.997	49528.42
452.203	50273.88
452.409	50265.69
452.615	49913.44
452.821	48201.33
453.027	47312.52
453.233	50017.88
453.44	47976.06
453.646	48397.94
453.852	48508.53
454.058	49409.64
454.264	47447.68
454.47	48733.81
454.676	47789.69
454.882	49217.13
455.088	45354.66
455.294	45131.43
455.5	45637.28
455.705	46044.82
455.911	44639.92
456.117	43855.54
456.323	43058.88
456.529	41045.73
456.735	42921.67
456.941	42116.82
457.147	40607.47
457.352	39390.97
457.558	39055.11
457.764	39300.86
457.97	38323.98
458.176	37662.49
458.381	37322.52
458.587	35884.85
458.793	35798.84
458.999	33812.31
459.204	36190
459.41	35077.95
459.616	33228.63
459.821	33324.89
460.027	32907.1
460.233	32221.03
460.438	30603.14
460.644	30615.43
460.85	29151.13
461.055	29069.21
461.261	28757.92
461.466	26810.3
461.672	26075.08
461.878	28082.09
462.083	26169.29
462.289	25432.02
462.494	25264.08
462.7	24072.17
462.905	23537.65
463.111	24385.51
463.316	24397.79
463.522	23615.47
463.727	24020.97
463.932	24086.5
464.138	23662.57
464.343	23681
464.549	22849.53
464.754	23908.33
464.959	23586.8
465.165	23281.65
465.37	22288.39
465.575	21854.22
465.781	22857.72
465.986	22714.36
466.191	21997.57
466.397	21430.29
466.602	20623.39
466.807	21135.38
467.012	21463.05
467.218	21133.33
467.423	21084.18
467.628	21391.37
467.833	22022.15
468.038	21254.16
468.244	20512.8
468.449	21418
468.654	20725.79
468.859	20607
469.064	20308
469.269	19652.65
469.474	19863.59
469.679	20174.88
469.885	19535.92
470.09	20049.96
470.295	19554.35
470.5	19101.75
470.705	19093.55
470.91	18866.23
471.115	18741.3
471.32	19085.36
471.525	18622.52
471.73	18294.85
471.935	18278.46
472.139	17778.76
472.344	17889.35
472.549	17698.89
472.754	17561.67
472.959	17141.84
473.164	16754.77
473.369	16805.97
473.574	17078.35
473.778	16736.34
473.983	16994.39
474.188	16939.09
474.393	15986.79
474.598	16138.34
474.802	15966.31
475.007	15788.13
475.212	15964.26
475.417	15298.67
475.621	15122.54
475.826	15163.5
476.031	14864.5
476.235	14893.17
476.44	14796.92
476.645	14813.3
476.849	14534.78
477.054	14293.12
477.259	14385.27
477.463	14215.29
477.668	13920.38
477.872	13981.82
478.077	13858.95
478.282	13455.5
478.486	13523.08
478.691	13412.49
478.895	13340.81
479.1	13125.77
479.304	13162.64
479.509	12830.87
479.713	13146.25
479.918	12685.46
480.122	12329.11
480.326	12875.92
480.531	12695.7
480.735	12447.9
480.94	12703.89
481.144	12845.2
481.348	12036.25
481.553	12527.77
481.757	12226.71
481.961	12429.46
482.166	12583.06
482.37	12343.45
482.574	12472.47
482.778	12349.59
482.983	12730.52
483.187	12382.36
483.391	12325.02
483.595	12249.24
483.8	11976.86
484.004	12144.8
484.208	12191.9
484.412	11962.53
484.616	12478.61
484.821	12228.76
485.025	12066.97
485.229	12402.84
485.433	12163.23
485.637	12161.18
485.841	12236.95
486.045	12167.32
486.249	12114.08
486.453	12161.18
486.657	12243.1
486.861	12089.5
487.065	11935.9
487.269	12243.1
487.473	11960.48
487.677	12247.19
487.881	12320.92
488.085	12165.28
488.289	12402.84
488.493	12236.95
488.697	12167.32
488.901	12333.21
489.105	12345.5
489.309	12495
489.512	12126.36
489.716	12372.12
489.92	12402.84
490.124	12249.24
490.328	12662.93
490.531	12423.32
490.735	12443.8
490.939	12587.16
491.143	12423.32
491.346	12538.01
491.55	12722.32
491.754	12720.28
491.958	12648.6
492.161	12748.95
492.365	13047.95
492.569	12765.33
492.772	12583.06
492.976	13113.49
493.18	12920.98
493.383	13043.85
493.587	13115.53
493.79	13310.09
493.994	13244.56
494.197	13387.91
494.401	13488.26
494.605	13566.09
494.808	13635.72
495.012	13711.49
495.215	13805.7
495.419	14145.66
495.622	13688.96
495.825	14246.01
496.029	14069.89
496.232	14426.23
496.436	14399.61
496.639	14864.5
496.843	14612.6
497.046	14973.04
497.249	15095.92
497.453	15061.1
497.656	15196.27
497.859	15173.74
498.063	15435.88
498.266	15704.17
498.469	15669.35
498.673	15853.67
498.876	16345.18
499.079	16400.48
499.282	16283.74
499.485	16750.68
499.689	16713.81
499.892	17014.87
500.095	16928.85
500.298	17442.89
500.501	17246.29
500.705	18081.86
500.908	17870.92
501.111	18167.87
501.314	18243.65
501.517	18174.02
501.72	18452.54
501.923	18626.62
502.126	19091.51
502.329	19468.33
502.532	19226.67
502.735	19486.76
502.938	19417.13
503.141	20029.48
503.344	20324.38
503.547	20156.45
503.75	20344.86
503.953	21098.52
504.156	21067.8
504.359	21374.99
504.562	21229.59
504.765	21692.43
504.968	21958.66
505.17	22372.35
505.373	22390.78
505.576	22659.07
505.779	23132.15
505.982	22802.43
506.185	23625.71
506.387	23547.89
506.59	23810.03
506.793	24229.86
506.996	24023.01
507.198	24647.65
507.401	24750.04
507.604	24780.76
507.807	25544.66
508.009	25659.34
508.212	25518.03
508.415	25880.52
508.617	26236.87
508.82	26484.67
509.022	26179.53
509.225	27060.15
509.428	27226.04
509.63	27353.01
509.833	27246.52
510.035	28123.05
510.238	27897.77
510.44	28540.83
510.643	28772.25
510.845	29276.05
511.048	28780.45
511.25	29319.06
511.453	29474.71
511.655	30500.74
511.858	30031.76
512.06	30422.92
512.262	30668.67
512.465	30504.84
512.667	31272.82
512.87	31678.32
513.072	31360.89
513.274	31969.13
513.477	32481.13
513.679	32610.15
513.881	32950.11
514.084	33404.76
514.286	33314.65
514.488	33603.41
514.69	34484.04
514.893	34451.27
515.095	34594.63
515.297	35047.23
515.499	34977.6
515.701	35792.69
515.904	36005.68
516.106	35788.6
516.308	36026.16
516.51	37058.34
516.712	36417.32
516.914	37238.56
517.116	38260.49
517.318	37717.78
517.52	37916.43
517.722	38254.35
517.925	38567.69
518.127	39198.46
518.329	39444.22
518.531	39169.79
518.733	40042.23
518.935	40052.47
519.136	40208.11
519.338	40863.46
519.54	40660.71
519.742	41410.27
519.944	41082.59
520.146	41991.89
520.348	41742.04
520.55	42440.4
520.752	42403.53
520.954	42974.92
521.155	42817.22
521.357	43695.8
521.559	43990.71
521.761	43816.63
521.963	44211.89
522.164	44205.75
522.366	44908.2
522.568	44986.02
522.77	45428.38
522.971	45629.09
523.173	45498.02
523.375	45827.74
523.576	45870.75
523.778	45784.73
523.98	46466.7
524.181	46808.72
524.383	46710.41
524.584	47402.63
524.786	47664.77
524.988	47169.16
525.189	47746.68
525.391	47963.77
525.592	48172.66
525.794	48125.56
525.995	48742
526.197	48813.68
526.398	48313.97
526.6	49000.04
526.801	48813.68
527.003	49401.44
527.204	49100.39
527.406	49739.36
527.607	49790.56
527.808	49976.92
528.01	49053.29
528.211	49495.65
528.412	50290.26
528.614	50613.84
528.815	50206.3
529.016	50505.3
529.218	50177.62
529.419	50495.06
529.62	50579.03
529.822	50617.94
530.023	50757.2
530.224	50785.87
530.425	50689.62
530.626	50386.52
530.828	50599.51
531.029	51426.88
531.23	50501.2
531.431	50843.21
531.632	50921.04
531.833	51418.69
532.035	50982.48
532.236	51129.93
532.437	51842.62
532.638	50949.71
532.839	51387.97
533.04	51375.69
533.241	50671.18
533.442	52043.32
533.643	51689.02
533.844	51195.46
534.045	51416.64
534.246	50706
534.447	51805.76
534.648	51713.6
534.849	51240.52
535.05	51123.79
535.251	51236.42
535.451	51680.83
535.652	51744.32
535.853	51383.88
536.054	51904.06
536.255	51820.09
536.456	51414.6
536.657	51674.69
536.857	51289.67
537.058	51066.44
537.259	51656.26
537.46	51598.91
537.66	51306.05
537.861	51074.63
538.062	51103.31
538.263	51426.88
538.463	51115.59
538.664	51103.31
538.865	51621.44
539.065	51727.94
539.266	51009.1
539.466	51598.91
539.667	50556.5
539.868	51445.32
540.068	51357.25
540.269	51267.14
540.469	51316.29
540.67	50519.63
540.87	50962
541.071	51381.83
541.271	51017.29
541.472	50914.89
541.672	50595.41
541.873	50521.68
542.073	50089.56
542.274	51140.17
542.474	50507.35
542.675	50501.2
542.875	50992.72
543.075	50986.57
543.276	50261.59
543.476	51306.05
543.676	50667.09
543.877	51056.2
544.077	50765.39
544.277	50728.53
544.478	50761.29
544.678	50726.48
544.878	50482.77
545.078	50984.52
545.279	50583.12
545.479	50308.69
545.679	50654.8
545.879	50767.44
546.079	50550.35
546.28	50120.28
546.48	49974.87
546.68	50501.2
546.88	50454.1
547.08	50214.49
547.28	50357.84
547.48	50130.52
547.68	50519.63
547.88	50218.58
548.081	50327.13
548.281	50202.2
548.481	49991.26
548.681	50304.6
548.881	50216.54
549.081	49981.02
549.28	49792.61
549.48	50265.69
549.68	49942.11
549.88	50486.87
550.08	50167.38
550.28	50363.99
550.48	49763.93
550.68	50273.88
550.88	50128.47
551.08	50329.17
551.279	49960.54
551.479	49700.45
551.679	49862.24
551.879	49925.72
552.079	49772.13
552.278	49520.23
552.478	49989.21
552.678	49868.38
552.878	50204.25
553.077	49440.35
553.277	49462.88
553.477	50028.12
553.676	49202.79
553.876	49569.38
554.076	49213.03
554.275	49555.04
554.475	48809.58
554.674	49423.97
554.874	49417.83
555.074	49163.88
555.273	49344.1
555.473	49596
555.672	49129.06
555.872	49380.96
556.071	49192.55
556.271	48883.31
556.47	48793.2
556.67	48770.67
556.869	48682.61
557.068	48916.07
557.268	48762.48
557.467	49122.92
557.667	48948.84
557.866	48631.41
558.065	48549.49
558.265	48500.34
558.464	48490.1
558.663	48336.5
558.863	47933.05
559.062	49127.02
559.261	47890.04
559.461	48694.89
559.66	47689.34
559.859	47806.08
560.058	47634.05
560.258	47830.65
560.457	47996.54
560.656	48143.99
560.855	47918.71
561.054	48166.52
561.253	47347.33
561.453	47580.8
561.652	47601.28
561.851	47486.59
562.05	47425.15
562.249	47105.67
562.448	47916.67
562.647	47449.73
562.846	47482.5
563.045	47113.86
563.244	46780.04
563.443	47603.33
563.642	46550.67
563.841	47220.36
564.04	46745.23
564.239	46933.64
564.438	46864.01
564.637	46933.64
564.836	46765.71
565.035	46331.54
565.234	46425.74
565.432	46243.48
565.631	46309.01
565.83	46503.57
566.029	45846.17
566.228	45835.93
566.427	46171.8
566.625	45794.97
566.824	45551.26
567.023	45858.46
567.222	44852.9
567.42	46229.14
567.619	45772.44
567.818	45383.33
568.016	45033.13
568.215	45850.27
568.414	44959.4
568.612	45282.98
568.811	45074.09
569.01	45330.08
569.208	44385.97
569.407	44924.58
569.605	44377.78
569.804	44953.26
570.002	44402.35
570.201	44863.14
570.4	44345.01
570.598	44132.02
570.797	43923.13
570.995	43966.13
571.193	43458.24
571.392	44453.55
571.59	43710.14
571.789	43814.58
571.987	43564.73
572.186	43491.01
572.384	43083.46
572.582	43486.91
572.781	43693.75
572.979	42708.68
573.177	43151.04
573.376	43241.15
573.574	42786.5
573.772	42862.28
573.971	42766.02
574.169	42624.71
574.367	42086.1
574.565	42469.07
574.763	41989.84
574.962	41936.6
575.16	42020.56
575.358	41977.56
575.556	41721.56
575.754	42024.66
575.952	41481.95
576.151	42364.62
576.349	41479.9
576.547	41613.02
576.745	41678.55
576.943	41658.07
577.141	41537.24
577.339	41291.49
577.537	41342.69
577.735	41156.32
577.933	40791.78
578.131	40828.65
578.329	40759.02
578.527	40165.1
578.725	40681.19
578.923	40591.08
579.121	40257.26
579.319	40201.97
579.516	40425.2
579.714	40386.29
579.912	39915.25
580.11	39835.38
580.308	39808.76
580.506	39784.18
580.704	39169.79
580.901	39538.43
581.099	39902.96
581.297	39173.89
581.495	39173.89
581.692	39288.57
581.89	38661.9
582.088	38981.38
582.285	38747.91
582.483	38956.8
582.681	38622.98
582.878	38340.36
583.076	38344.46
583.274	38641.42
583.471	37930.77
583.669	38276.88
583.866	37873.43
584.064	37936.91
584.262	37435.16
584.459	37855
584.657	37074.72
584.854	37648.15
585.052	37029.66
585.249	37353.24
585.447	37115.68
585.644	36677.41
585.841	37134.11
586.039	37533.46
586.236	36759.33
586.434	36630.31
586.631	36306.73
586.828	36800.29
587.026	36712.23
587.223	36136.75
587.42	36208.43
587.618	35964.72
587.815	35847.99
588.012	35651.38
588.21	35940.14
588.407	35741.49
588.604	35723.06
588.801	35514.17
588.999	35344.19
589.196	35385.15
589.393	35319.61
589.59	34815.81
589.787	35229.5
589.984	34975.55
590.182	34641.73
590.379	35166.01
590.576	34688.84
590.773	34744.13
590.97	34254.67
591.167	34498.37
591.364	33937.23
591.561	34260.81
591.758	33677.14
591.955	34078.54
592.152	33910.61
592.349	33693.52
592.546	34189.13
592.743	33613.65
592.94	33029.98
593.137	33511.25
593.334	33535.83
593.531	32993.12
593.727	33253.21
593.924	33218.39
594.121	32882.53
594.318	32710.5
594.515	32587.62
594.712	32956.25
594.908	32771.94
595.105	32561
595.302	32139.11
595.499	32448.36
595.696	32149.35
595.892	31850.35
596.089	31919.98
596.286	32421.73
596.482	31676.27
596.679	32014.19
596.876	32108.4
597.072	31248.25
597.269	31594.36
597.466	31174.52
597.662	31174.52
597.859	31256.44
598.055	31301.5
598.252	30742.4
598.448	30670.72
598.645	30797.7
598.841	30470.02
599.038	30783.36
599.234	30459.78
599.431	30103.43
599.627	30265.22
599.824	30326.66
600.02	30082.95
600.217	30269.32
600.413	30035.85
600.609	30015.37
600.806	29538.19
601.002	29806.48
601.198	29484.95
601.395	29208.47
601.591	29448.08
601.787	29507.48
601.984	29159.32
602.18	29144.98
602.376	28905.37
602.572	28950.43
602.769	29259.67
602.965	28723.1
603.161	28809.12
603.357	28497.83
603.553	28356.52
603.75	28792.73
603.946	28395.43
604.142	28299.17
604.338	27961.26
604.534	28293.03
604.73	27750.32
604.926	27942.83
605.122	28168.1
605.318	27400.12
605.514	27512.75
605.71	27477.94
605.906	27662.26
606.102	27623.34
606.298	27658.16
606.494	27271.09
606.69	27295.67
606.886	27131.83
607.082	26933.18
607.278	27207.61
607.474	26582.98
607.67	26927.03
607.866	26519.49
608.062	26986.43
608.257	26777.53
608.453	26812.35
608.649	26662.85
608.845	26468.29
609.041	26361.8
609.236	26369.99
609.432	26537.92
609.628	26269.64
609.824	26267.59
610.019	26136.52
610.215	26257.35
610.411	26417.09
610.606	25892.81
610.802	26077.13
610.998	25907.15
611.193	25804.75
611.389	25823.18
611.584	25698.25
611.78	25327.57
611.976	25452.5
612.171	25599.95
612.367	25747.4
612.562	25503.7
612.758	25171.93
612.953	25139.16
613.149	25339.86
613.344	25047
613.539	25698.25
613.735	25190.36
613.93	25092.05
614.126	24969.18
614.321	25108.44
614.517	24946.65
614.712	24907.74
614.907	24862.68
615.103	25290.71
615.298	24721.37
615.493	25130.97
615.688	24553.44
615.884	24801.24
616.079	24438.75
616.274	24600.54
616.47	24426.46
616.665	24600.54
616.86	24567.77
617.055	24084.45
617.25	24172.52
617.445	24348.64
617.641	23791.59
617.836	24238.05
618.031	23715.82
618.226	23871.47
618.421	23611.37
618.616	23834.6
618.811	23314.42
619.006	23791.59
619.201	23089.14
619.396	23418.86
619.591	22990.84
619.786	23644.14
619.981	22960.12
620.176	23384.05
620.371	22884.34
620.566	22779.9
620.761	22904.82
620.956	22767.61
621.151	22616.06
621.346	22329.34
621.541	22046.72
621.735	22466.56
621.93	21870.6
622.125	21884.94
622.32	21418
622.515	21639.18
622.709	21717
622.904	21585.93
623.099	21823.5
623.294	21686.28
623.488	20801.56
623.683	21495.82
623.878	20895.77
624.072	20994.07
624.267	21080.08
624.462	20819.99
624.656	20355.1
624.851	20615.19
625.046	20383.77
625.24	20432.93
625.435	19933.22
625.629	19804.2
625.824	19947.56
626.018	19834.92
626.213	19494.96
626.407	19726.38
626.602	19228.72
626.796	19568.68
626.991	19220.53
627.185	19148.85
627.38	19036.21
627.574	19124.27
627.768	19040.31
627.963	18782.26
628.157	18847.8
628.352	18808.89
628.546	18004.03
628.74	18432.06
628.935	18366.53
629.129	18344
629.323	17879.11
629.517	17807.43
629.712	17907.78
629.906	17985.6
630.1	17602.63
630.294	17369.16
630.489	17473.61
630.683	17827.91
630.877	17449.04
631.071	17170.51
631.265	17068.11
631.459	17090.64
631.653	16967.76
631.848	16961.62
632.042	16873.56
632.236	16586.84
632.43	16466.01
632.624	16705.62
632.818	16789.59
633.012	16449.63
633.206	16273.5
633.4	16177.25
633.594	16140.38
633.788	16128.1
633.982	16017.5
634.176	15900.77
634.369	15681.64
634.563	15685.73
634.757	15468.65
634.951	15540.33
635.145	15628.39
635.339	15396.97
635.533	15317.1
635.726	15276.14
635.92	15126.64
636.114	14930.03
636.308	14932.08
636.501	15253.61
636.695	14938.23
636.889	14649.46
637.083	14549.11
637.276	14506.1
637.47	14604.41
637.664	14340.22
637.857	14286.97
638.051	14336.12
638.244	14274.68
638.438	14110.85
638.632	13889.67
638.825	13899.91
639.019	14004.35
639.212	13836.42
639.406	14028.93
639.599	13768.84
639.793	13475.98
639.986	13377.67
640.18	13516.94
640.373	13191.31
640.567	13301.9
640.76	13379.72
640.954	13162.64
641.147	12845.2
641.34	13138.06
641.534	13265.03
641.727	12843.15
641.92	12820.63
642.114	12640.4
642.307	12808.34
642.5	12712.08
642.694	12439.7
642.887	12374.17
643.08	12488.85
643.273	12359.83
643.467	12304.54
643.66	12337.31
643.853	12159.13
644.046	12069.02
644.239	12128.41
644.432	12173.47
644.626	11948.19
644.819	11571.36
645.012	11860.13
645.205	11735.2
645.398	11849.89
645.591	11600.04
645.784	11632.8
645.977	11436.2
646.17	11473.06
646.363	11305.13
646.556	11227.31
646.749	11196.59
646.942	11110.57
647.135	11141.29
647.328	11104.43
647.521	10774.7
647.714	10883.25
647.907	11010.22
648.099	10799.28
648.292	10682.55
648.485	10832.05
648.678	10594.48
648.871	10492.09
649.064	10330.3
649.256	10842.29
649.449	10328.25
649.642	10358.97
649.835	10105.02
650.027	10252.47
650.22	10242.23
650.413	10125.5
650.605	10148.03
650.798	9992.38
650.991	10031.29
651.183	9990.33
651.376	9842.88
651.568	9955.52
651.761	9791.68
651.954	9705.67
652.146	9705.67
652.339	9769.15
652.531	9601.22
652.724	9472.2
652.916	9402.57
653.109	9611.46
653.301	9504.96
653.494	9478.34
653.686	9308.36
653.879	9142.47
654.071	9248.97
654.263	9050.32
654.456	9121.99
654.648	9205.96
654.84	8929.49
655.033	8839.37
655.225	9007.31
655.417	8911.05
655.61	8650.96
655.802	8884.43
655.994	8710.35
656.186	8757.46
656.379	8542.42
656.571	8616.15
656.763	8458.45
656.955	8374.49
657.148	8642.77
657.34	8349.91
657.532	8186.07
657.724	8239.32
657.916	8247.51
658.108	8267.99
658.3	8216.79
658.492	8188.12
658.684	8132.83
658.876	8012
659.068	7930.08
659.26	7985.37
659.452	7882.97
659.644	7944.41
659.836	7733.47
660.028	7872.73
660.22	7684.32
660.412	7874.78
660.604	7473.38
660.796	7719.14
660.988	7370.98
661.18	7481.57
661.372	7432.42
661.563	7602.4
661.755	7448.8
661.947	7665.89
662.139	7235.81
662.331	7241.96
662.522	7229.67
662.714	7321.83
662.906	7143.66
663.097	7067.88
663.289	7211.24
663.481	7180.52
663.673	7018.73
663.864	6988.01
664.056	7012.59
664.247	6895.85
664.439	6820.08
664.631	7014.63
664.822	6705.39
665.014	6809.84
665.205	6813.93
665.397	6740.21
665.588	6742.25
665.78	6828.27
665.971	6699.25
666.163	6539.51
666.354	6701.3
666.546	6625.52
666.737	6537.46
666.929	6492.4
667.12	6379.76
667.311	6455.54
667.503	6428.92
667.694	6326.52
667.885	6357.24
668.077	6166.78
668.268	6105.34
668.459	6301.94
668.651	6115.58
668.842	6297.85
669.033	6123.77
669.224	6101.24
669.416	6017.27
669.607	6138.1
669.798	6023.42
669.989	6033.66
670.18	6013.18
670.371	5902.59
670.563	6023.42
670.754	5949.69
670.945	5873.92
671.136	5720.32
671.327	5802.24
671.518	5839.1
671.709	5701.89
671.9	5658.88
672.091	5636.35
672.282	5923.07
672.473	5705.98
672.664	5658.88
672.855	5699.84
673.046	5544.19
673.237	5595.39
673.428	5628.16
673.619	5478.66
673.809	5366.02
674	5445.89
674.191	5482.75
674.382	5212.42
674.573	5388.55
674.764	5490.95
674.954	5458.18
675.145	5345.54
675.336	5218.57
675.527	5294.34
675.717	5355.78
675.908	5228.81
676.099	5267.72
676.289	5329.16
676.48	5263.62
676.671	4972.81
676.861	5171.46
677.052	5101.83
677.243	5083.4
677.433	4976.91
677.624	4956.43
677.814	4919.56
678.005	5202.18
678.195	5001.48
678.386	4833.55
678.576	4892.94
678.767	5085.45
678.957	4866.32
679.148	4901.13
679.338	4843.79
679.529	4757.77
679.719	4675.85
679.909	4948.23
680.1	4935.95
680.29	4792.59
680.481	4868.36
680.671	4886.79
680.861	4872.46
681.052	4839.69
681.242	4708.62
681.432	4722.96
681.622	4737.29
681.813	4806.92
682.003	4725.01
682.193	4708.62
682.383	4780.3
682.573	4669.71
682.764	4731.15
682.954	4624.65
683.144	4749.58
683.334	4595.98
683.524	4579.6
683.714	4655.37
683.904	4593.94
684.094	4682
684.284	4514.06
684.474	4473.11
684.664	4458.77
684.854	4581.65
685.044	4505.87
685.234	4444.43
685.424	4274.45
685.614	4520.21
685.804	4331.8
685.994	4397.33
686.184	4366.61
686.374	4405.52
686.564	4260.12
686.753	4294.93
686.943	4249.88
687.133	4282.64
687.323	4206.87
687.513	4208.92
687.702	4313.36
687.892	4268.31
688.082	4188.44
688.272	4239.64
688.461	4167.96
688.651	4229.4
688.841	4079.9
689.03	4051.22
689.22	4112.66
689.41	4135.19
689.599	4012.31
689.789	4075.8
689.979	3819.8
690.168	3965.21
690.358	3897.63
690.547	3961.11
690.737	3901.72
690.926	3926.3
691.116	3744.03
691.305	3977.5
691.495	3830.04
691.684	3701.02
691.874	3813.66
692.063	3883.29
692.252	3778.84
692.442	3813.66
692.631	3729.69
692.82	3703.07
693.01	3707.16
693.199	3797.28
693.388	3565.85
693.578	3811.61
693.767	3629.34
693.956	3647.77
694.146	3641.63
694.335	3617.05
694.524	3557.66
694.713	3615.01
694.902	3578.14
695.092	3574.05
695.281	3459.36
695.47	3580.19
695.659	3473.7
695.848	3567.9
696.037	3545.38
696.226	3402.02
696.415	3528.99
696.604	3408.16
696.793	3561.76
696.982	3465.5
697.171	3277.09
697.36	3428.64
697.549	3316
697.738	3449.12
697.927	3399.97
698.116	3449.12
698.305	3248.42
698.494	3432.74
698.683	3490.08
698.872	3410.21
699.061	3543.33
699.25	3422.5
699.438	3328.29
699.627	3311.91
699.816	3281.19
700.005	3397.92
700.193	3414.31
700.382	3377.44
700.571	3258.66
700.76	3471.65
700.948	3393.83
701.137	3318.05
701.326	3348.77
701.514	3311.91
701.703	3369.25
701.892	3254.56
702.08	3365.15
702.269	3422.5
702.457	3264.8
702.646	3305.76
702.834	3225.89
703.023	3324.19
703.212	3273
703.4	3225.89
703.589	3221.8
703.777	3313.95
703.965	3152.17
704.154	3217.7
704.342	3313.95
704.531	3184.93
704.719	3238.18
704.907	3361.06
705.096	3115.3
705.284	3266.85
705.472	3375.39
705.661	3213.6
705.849	3492.13
706.037	3211.56
706.226	3186.98
706.414	3248.42
706.602	3227.94
706.79	3199.27
706.979	3154.21
707.167	3219.75
707.355	3129.64
707.543	3254.56
707.731	3156.26
707.919	3189.03
708.107	3197.22
708.296	3131.69
708.484	3166.5
708.672	3217.7
708.86	3076.39
709.048	3229.99
709.236	3150.12
709.424	3217.7
709.612	3137.83
709.8	3232.04
709.988	3305.76
710.176	3262.76
710.364	3062.05
710.551	3211.56
710.739	3100.97
710.927	3160.36
711.115	3137.83
711.303	3135.78
711.491	3117.35
711.679	3215.65
711.866	3082.53
712.054	3184.93
712.242	3078.44
712.43	3260.71
712.617	3131.69
712.805	3125.54
712.993	3017
713.181	3082.53
713.368	3094.82
713.556	3109.16
713.744	3055.91
713.931	3219.75
714.119	2978.09
714.306	3115.3
714.494	3049.77
714.682	3180.84
714.869	3049.77
715.057	3164.45
715.244	2963.75
715.432	3123.49
715.619	3105.06
715.807	3062.05
715.994	3107.11
716.182	3100.97
716.369	3139.88
716.556	3137.83
716.744	3109.16
716.931	2933.03
717.119	3051.81
717.306	3057.96
717.493	2955.56
717.681	3047.72
717.868	3051.81
718.055	3045.67
718.242	3094.82
718.43	3078.44
718.617	3055.91
718.804	2984.23
718.991	3139.88
719.179	3111.21
719.366	2916.65
719.553	3072.29
719.74	2793.77
719.927	3051.81
720.114	2955.56
720.301	2959.66
720.488	2965.8
720.676	3000.62
720.863	2908.46
721.05	3060.01
721.237	3053.86
721.424	2916.65
721.611	2973.99
721.798	2955.56
721.985	2986.28
722.172	2961.7
722.358	2894.12
722.545	2861.35
722.732	3025.19
722.919	2947.37
723.106	2904.36
723.293	2947.37
723.48	2988.33
723.667	2930.98
723.853	2900.27
724.04	2969.9
724.227	2836.78
724.414	2769.2
724.6	2920.74
724.787	2969.9
724.974	2935.08
725.161	2830.63
725.347	2842.92
725.534	2922.79
725.72	2771.24
725.907	2783.53
726.094	2892.07
726.28	2763.05
726.467	2707.76
726.653	2857.26
726.84	2863.4
727.027	2828.59
727.213	2885.93
727.4	2890.03
727.586	2746.67
727.773	2832.68
727.959	2693.42
728.145	2883.88
728.332	2863.4
728.518	2799.91
728.705	2775.34
728.891	2726.19
729.077	2693.42
729.264	2887.98
729.45	2791.72
729.636	2795.82
729.823	2775.34
730.009	2797.87
730.195	2810.15
730.382	2773.29
730.568	2834.73
730.754	2722.09
730.94	2744.62
731.126	2752.81
731.313	2844.97
731.499	2838.83
731.685	2711.85
731.871	2761
732.057	2840.87
732.243	2773.29
732.429	2754.86
732.615	2887.98
732.801	2679.08
732.987	2646.32
733.173	2697.52
733.359	2648.36
733.545	2697.52
733.731	2640.17
733.917	2793.77
734.103	2670.89
734.289	2728.24
734.475	2480.43
734.661	2677.04
734.847	2638.13
735.033	2761
735.219	2648.36
735.404	2736.43
735.59	2636.08
735.776	2617.65
735.962	2664.75
736.148	2677.04
736.333	2591.02
736.519	2576.69
736.705	2642.22
736.89	2537.77
737.076	2634.03
737.262	2574.64
737.447	2666.8
737.633	2646.32
737.819	2511.15
738.004	2535.73
738.19	2531.63
738.375	2541.87
738.561	2539.82
738.747	2609.45
738.932	2527.53
739.118	2572.59
739.303	2511.15
739.489	2511.15
739.674	2418.99
739.859	2525.49
740.045	2453.81
740.23	2560.3
740.416	2375.99
740.601	2437.42
740.786	2359.6
740.972	2418.99
741.157	2462
741.342	2406.7
741.528	2404.66
741.713	2459.95
741.898	2373.94
742.084	2343.22
742.269	2373.94
742.454	2339.12
742.639	2294.07
742.824	2349.36
743.01	2279.73
743.195	2359.6
743.38	2365.75
743.565	2228.53
743.75	2363.7
743.935	2263.35
744.12	2308.4
744.305	2312.5
744.49	2208.05
744.675	2349.36
744.86	2277.68
745.045	2105.65
745.23	2228.53
745.415	2232.63
745.6	2218.29
745.785	2165.04
745.97	2193.72
746.155	2156.85
746.34	2169.14
746.525	2074.93
746.71	2122.04
746.895	2167.09
747.079	2136.37
747.264	2165.04
747.449	2097.46
747.634	2099.51
747.819	2122.04
748.003	1931.58
748.188	1972.54
748.373	2031.93
748.557	1878.33
748.742	1974.58
748.927	1913.14
749.111	1931.58
749.296	1966.39
749.481	1937.72
749.665	1999.16
749.85	1927.48
750.034	1872.18
750.219	1732.92
750.404	1950.01
750.588	1884.47
750.773	1790.27
750.957	1812.79
751.141	1933.62
751.326	1782.07
751.51	1700.16
751.695	1743.16
751.879	1786.17
752.064	1751.35
752.248	1720.64
752.432	1691.96
752.617	1687.87
752.801	1775.93
752.985	1659.2
753.17	1771.83
753.354	1706.3
753.538	1575.23
753.722	1706.3
753.907	1614.14
754.091	1571.13
754.275	1685.82
754.459	1700.16
754.643	1583.42
754.828	1536.32
755.012	1556.8
755.196	1564.99
755.38	1460.54
755.564	1481.02
755.748	1558.85
755.932	1462.59
756.116	1562.94
756.3	1446.21
756.484	1517.89
756.668	1526.08
756.852	1499.45
757.036	1507.65
757.22	1511.74
757.404	1376.58
757.588	1485.12
757.772	1448.26
757.956	1257.79
758.14	1448.26
758.323	1360.19
758.507	1452.35
758.691	1368.38
758.875	1403.2
759.059	1304.9
759.242	1329.47
759.426	1276.23
759.61	1276.23
759.794	1319.23
759.977	1141.06
760.161	1421.63
760.345	1255.75
760.528	1235.27
760.712	1354.05
760.895	1317.19
761.079	1294.66
761.263	1206.59
761.446	1311.04
761.63	1175.88
761.813	1261.89
761.997	1122.63
762.18	1206.59
762.364	1102.15
762.547	1220.93
762.731	1255.75
762.914	1128.77
763.098	1184.07
763.281	1159.49
763.464	1061.19
763.648	1253.7
763.831	1065.29
764.015	1079.62
764.198	1147.2
764.381	1186.12
764.564	1149.25
764.748	1145.16
764.931	1077.57
765.114	1098.05
765.297	1143.11
765.481	1067.33
765.664	1083.72
765.847	1079.62
766.03	1192.26
766.213	1063.24
766.397	1077.57
766.58	1050.95
766.763	1184.07
766.946	1044.81
767.129	1053
767.312	1057.09
767.495	1083.72
767.678	1139.01
767.861	981.32
768.044	1067.33
768.227	993.61
768.41	964.93
768.593	1077.57
768.776	983.37
768.959	874.82
769.142	1009.99
769.324	989.51
769.507	975.17
769.69	921.93
769.873	1003.85
770.056	966.98
770.239	991.56
770.421	997.7
770.604	977.22
770.787	1001.8
770.97	1077.57
771.152	952.65
771.335	952.65
771.518	901.45
771.7	985.41
771.883	958.79
772.066	926.02
772.248	874.82
772.431	979.27
772.613	958.79
772.796	948.55
772.978	880.97
773.161	870.73
773.343	797
773.526	842.06
773.708	788.81
773.891	883.02
774.073	897.35
774.256	809.29
774.438	876.87
774.621	858.44
774.803	827.72
774.985	807.24
775.168	799.05
775.35	856.39
775.532	852.3
775.715	848.2
775.897	842.06
776.079	741.71
776.261	797
776.444	790.86
776.626	893.26
776.808	782.67
776.99	780.62
777.173	753.99
777.355	768.33
777.537	733.51
777.719	780.62
777.901	698.7
778.083	749.9
778.265	713.03
778.447	725.32
778.629	639.31
778.811	696.65
778.993	690.51
779.175	702.79
779.357	737.61
779.539	682.31
779.721	612.68
779.903	721.23
780.085	704.84
780.267	710.99
780.449	627.02
780.631	692.55
780.812	653.64
780.994	647.5
781.176	627.02
781.358	674.12
781.54	635.21
781.721	624.97
781.903	665.93
782.085	629.07
782.267	594.25
782.448	479.57
782.63	606.54
782.812	631.12
782.993	534.86
783.175	649.55
783.357	557.39
783.538	616.78
783.72	489.81
783.901	561.48
784.083	575.82
784.264	616.78
784.446	616.78
784.627	571.72
784.809	487.76
784.99	526.67
785.172	506.19
785.353	631.12
785.535	516.43
785.716	502.09
785.897	491.85
786.079	506.19
786.26	526.67
786.441	506.19
786.623	436.56
786.804	532.81
786.985	489.81
787.167	500.05
787.348	489.81
787.529	512.33
787.71	422.22
787.891	510.29
788.073	442.7
788.254	498
788.435	493.9
788.616	397.65
788.797	403.79
788.978	434.51
789.159	430.41
789.34	444.75
789.522	362.83
789.703	459.09
789.884	489.81
790.065	362.83
790.246	397.65
790.427	444.75
790.607	364.88
790.788	373.07
790.969	395.6
791.15	387.41
791.331	364.88
791.512	389.46
791.693	422.22
791.874	418.13
792.054	493.9
792.235	393.55
792.416	414.03
792.597	387.41
792.778	332.11
792.958	403.79
793.139	342.35
793.32	483.66
793.5	344.4
793.681	371.02
793.862	362.83
794.042	287.06
794.223	377.17
794.404	348.5
794.584	305.49
794.765	340.3
794.945	373.07
795.126	385.36
795.306	368.98
795.487	252.24
795.667	344.4
795.848	348.5
796.028	328.02
796.209	350.54
796.389	317.78
796.57	272.72
796.75	338.26
796.93	282.96
797.111	319.82
797.291	416.08
797.471	309.58
797.652	313.68
797.832	344.4
798.012	311.63
798.192	317.78
798.373	299.34
798.553	289.1
798.733	315.73
798.913	250.19
799.093	340.3
799.274	278.87
799.454	354.64
799.634	309.58
799.814	285.01
799.994	264.53
800.174	309.58
800.354	213.33
800.534	299.34
800.714	231.76
800.894	270.67
801.074	297.3
801.254	278.87
801.434	325.97
801.614	201.04
801.794	223.57
801.974	622.92
802.154	246.1
802.334	229.71
802.514	328.02
802.693	254.29
802.873	184.66
803.053	266.58
803.233	203.09
803.413	330.06
803.592	262.48
803.772	280.91
803.952	250.19
804.131	221.52
804.311	244.05
804.491	242
804.67	158.03
804.85	319.82
805.03	274.77
805.209	270.67
805.389	264.53
805.568	229.71
805.748	242
805.928	321.87
806.107	221.52
806.287	248.15
806.466	176.47
806.646	174.42
806.825	158.03
807.004	246.1
807.184	198.99
807.363	258.39
807.543	239.95
807.722	274.77
807.901	168.27
808.081	293.2
808.26	145.75
808.439	180.56
808.619	246.1
808.798	198.99
808.977	205.14
809.156	188.75
809.336	211.28
809.515	262.48
809.694	233.81
809.873	160.08
810.052	254.29
810.231	266.58
810.411	178.51
810.59	151.89
810.769	153.94
810.948	246.1
811.127	268.63
811.306	143.7
811.485	121.17
811.664	235.86
811.843	168.27
812.022	164.18
812.201	203.09
812.38	211.28
812.559	215.38
812.737	203.09
812.916	180.56
813.095	160.08
813.274	217.43
813.453	190.8
813.632	194.9
813.811	149.84
813.989	215.38
814.168	172.37
814.347	194.9
814.526	155.99
814.704	141.65
814.883	188.75
815.062	231.76
815.24	160.08
815.419	90.45
815.598	194.9
815.776	108.88
815.955	235.86
816.133	110.93
816.312	164.18
816.49	160.08
816.669	194.9
816.847	160.08
817.026	174.42
817.204	104.79
817.383	221.52
817.561	174.42
817.74	129.36
817.918	143.7
818.097	188.75
818.275	108.88
818.453	207.19
818.632	170.32
818.81	88.4
818.988	239.95
819.167	55.64
819.345	104.79
819.523	129.36
819.701	53.59
819.879	131.41
820.058	170.32
820.236	184.66
820.414	133.46
820.592	190.8
820.77	67.92
820.948	117.08
821.127	158.03
821.305	137.56
821.483	147.8
821.661	160.08
821.839	61.78
822.017	125.27
822.195	110.93
822.373	174.42
822.551	176.47
822.729	149.84
822.907	94.55
823.085	151.89
823.262	155.99
823.44	96.6
823.618	86.36
823.796	121.17
823.974	145.75
824.152	139.6
824.329	137.56
824.507	123.22
824.685	86.36
824.863	155.99
825.04	184.66
825.218	178.51
825.396	143.7
825.574	112.98
825.751	121.17
825.929	194.9
826.107	127.32
826.284	119.12
826.462	117.08
826.639	100.69
826.817	47.44
826.994	106.84
827.172	59.73
827.349	217.43
827.527	24.92
827.704	45.4
827.882	78.16
828.059	88.4
828.237	108.88
828.414	94.55
828.591	119.12
828.769	80.21
828.946	0.34
829.124	110.93
829.301	121.17
829.478	110.93
829.655	133.46
829.833	57.68
830.01	31.06
830.187	160.08
830.364	104.79
830.542	166.23
830.719	135.51
830.896	80.21
831.073	94.55
831.25	162.13
831.427	155.99
831.604	0.34
831.782	98.64
831.959	74.07
832.136	90.45
832.313	168.27
832.49	65.88
832.667	117.08
832.844	47.44
833.021	170.32
833.198	26.96
833.374	137.56
833.551	59.73
833.728	39.25
833.905	57.68
834.082	125.27
834.259	137.56
834.436	123.22
834.612	133.46
834.789	207.19
834.966	61.78
835.143	84.31
835.319	67.92
835.496	147.8
835.673	96.6
835.85	139.6
836.026	82.26
836.203	108.88
836.38	12.63
836.556	78.16
836.733	139.6
836.909	80.21
837.086	127.32
837.262	20.82
837.439	84.31
837.616	47.44
837.792	43.35
837.968	108.88
838.145	57.68
838.321	92.5
838.498	117.08
838.674	133.46
838.851	102.74
839.027	-5.8
839.203	51.54
839.38	53.59
839.556	14.68
839.732	63.83
839.909	74.07
840.085	86.36
840.261	125.27
840.437	55.64
840.614	82.26
840.79	153.94
840.966	45.4
841.142	41.3
841.318	55.64
841.494	29.01
841.671	69.97
841.847	108.88
842.023	82.26
842.199	121.17
842.375	155.99
842.551	59.73
842.727	-34.47
842.903	151.89
843.079	63.83
843.255	41.3
843.431	4.44
843.607	39.25
843.783	49.49
843.959	63.83
844.134	59.73
844.31	121.17
844.486	47.44
844.662	14.68
844.838	125.27
845.013	74.07
845.189	12.63
845.365	31.06
845.541	67.92
845.716	43.35
845.892	153.94
846.068	76.12
846.244	4.44
846.419	59.73
846.595	4.44
846.77	63.83
846.946	76.12
847.122	18.77
847.297	86.36
847.473	69.97
847.648	-13.99
847.824	43.35
847.999	-26.28
848.175	88.4
848.35	45.4
848.526	180.56
848.701	86.36
848.876	51.54
849.052	92.5
849.227	-11.95
849.403	-9.9
849.578	55.64
849.753	53.59
849.929	74.07
850.104	-22.19
850.279	24.92
850.454	145.75
850.63	45.4
850.805	61.78
850.98	41.3
851.155	76.12
851.33	96.6
851.505	14.68
851.681	100.69
851.856	22.87
852.031	35.16
852.206	45.4
852.381	98.64
852.556	47.44
852.731	65.88
852.906	6.49
853.081	24.92
853.256	57.68
853.431	39.25
853.606	76.12
853.781	10.58
853.956	8.53
854.131	47.44
854.305	-9.9
854.48	18.77
854.655	33.11
854.83	39.25
855.005	61.78
855.18	39.25
855.354	49.49
855.529	76.12
855.704	20.82
855.879	-1.71
856.053	-71.34
856.228	57.68
856.403	22.87
856.577	59.73
856.752	96.6
856.926	59.73
857.101	-22.19
857.276	65.88
857.45	10.58
857.625	74.07
857.799	90.45
857.974	-5.8
858.148	47.44
858.323	41.3
858.497	20.82
858.672	6.49
858.846	31.06
859.02	33.11
859.195	16.73
859.369	39.25
859.543	57.68
859.718	8.53
859.892	41.3
860.066	49.49
860.241	16.73
860.415	14.68
860.589	82.26
860.763	-54.95
860.938	72.02
861.112	33.11
861.286	-24.23
861.46	-11.95
861.634	127.32
861.808	55.64
861.982	-7.85
862.157	18.77
862.331	31.06
862.505	24.92
862.679	33.11
862.853	102.74
863.027	-26.28
863.201	12.63
863.375	-24.23
863.549	76.12
863.722	57.68
863.896	86.36
864.07	-46.76
864.244	-22.19
864.418	41.3
864.592	61.78
864.766	-24.23
864.939	-44.71
865.113	-5.8
865.287	117.08
865.461	35.16
865.634	86.36
865.808	61.78
865.982	-32.43
866.156	12.63
866.329	67.92
866.503	41.3
866.676	0.34
866.85	-44.71
867.024	-5.8
867.197	33.11
867.371	29.01
867.544	37.2
867.718	67.92
867.891	35.16
868.065	18.77
868.238	78.16
868.412	102.74
868.585	88.4
868.759	53.59
868.932	10.58
869.105	26.96
869.279	53.59
869.452	0.34
869.625	14.68
869.799	-50.86
869.972	59.73
870.145	43.35
870.319	-9.9
870.492	-11.95
870.665	96.6
870.838	49.49
871.011	-13.99
871.185	-38.57
871.358	35.16
871.531	12.63
871.704	-16.04
871.877	61.78
872.05	10.58
872.223	-26.28
872.396	10.58
872.569	4.44
872.742	55.64
872.915	18.77
873.088	59.73
873.261	43.35
873.434	78.16
873.607	47.44
873.78	26.96
873.953	-22.19
874.126	20.82
874.299	51.54
874.471	74.07
874.644	67.92
874.817	29.01
874.99	47.44
875.163	31.06
875.335	37.2
875.508	-32.43
875.681	-11.95
875.853	26.96
876.026	33.11
876.199	6.49
876.371	-54.95
876.544	-3.75
876.717	-16.04
876.889	29.01
877.062	59.73
877.234	20.82
877.407	33.11
877.579	24.92
877.752	61.78
877.924	92.5
878.097	-1.71
878.269	24.92
878.442	35.16
878.614	55.64
878.786	96.6
878.959	98.64
879.131	72.02
879.303	-87.72
879.476	98.64
879.648	55.64
879.82	31.06
879.993	43.35
880.165	-18.09
880.337	41.3
880.509	90.45
880.681	4.44
880.854	6.49
881.026	37.2
881.198	82.26
881.37	-7.85
881.542	92.5
881.714	31.06
881.886	39.25
882.058	18.77
882.23	-79.53
882.402	20.82
882.574	29.01
882.746	49.49
882.918	-26.28
883.09	57.68
883.262	74.07
883.434	4.44
883.606	0.34
883.778	22.87
883.95	8.53
884.122	41.3
884.293	37.2
884.465	45.4
884.637	80.21
884.809	65.88
884.98	47.44
885.152	-16.04
885.324	12.63
885.496	39.25
885.667	63.83
885.839	51.54
886.011	139.6
886.182	29.01
886.354	39.25
886.525	-48.81
886.697	41.3
886.869	39.25
887.04	-46.76
887.212	96.6
887.383	0.34
887.555	29.01
887.726	61.78
887.897	45.4
888.069	20.82
888.24	-1.71
888.412	43.35
888.583	-32.43
888.754	35.16
888.926	10.58
889.097	-24.23
889.268	-44.71
889.44	57.68
889.611	-42.67
889.782	-3.75
889.953	26.96
890.125	12.63
890.296	67.92
890.467	53.59
890.638	37.2
890.809	18.77
890.98	-26.28
891.151	-40.62
891.323	16.73
891.494	49.49
891.665	41.3
891.836	8.53
892.007	-61.1
892.178	-32.43
892.349	-5.8
892.52	69.97
892.691	49.49
892.862	20.82
893.032	31.06
893.203	-18.09
893.374	-9.9
893.545	0.34
893.716	-81.58
893.887	22.87
894.057	-30.38
894.228	-79.53
894.399	26.96
894.57	59.73
894.74	6.49
894.911	33.11
895.082	0.34
895.253	-26.28
895.423	37.2
895.594	51.54
895.764	43.35
895.935	-48.81
896.106	-52.91
896.276	12.63
896.447	-30.38
896.617	31.06
896.788	49.49
896.958	61.78
897.129	8.53
897.299	18.77
897.47	108.88
897.64	-54.95
897.81	39.25
897.981	-16.04
898.151	-28.33
898.322	18.77
898.492	18.77
898.662	-20.14
898.832	22.87
899.003	16.73
899.173	-30.38
899.343	-36.52
899.513	-9.9
