Data from USB4F104151__92__12-13-05-300.txt Node

Date: Fri Mar 14 12:13:05 EDT 2025
User: louis
Spectrometer: USB4F10415
Trigger mode: 4
Integration Time (sec): 5.000000E-2
Scans to average: 1
Electric dark correction enabled: true
Nonlinearity correction enabled: false
Boxcar width: 0
XAxis mode: Wavelengths
Number of Pixels in Spectrum: 3648
>>>>>Begin Spectral Data<<<<<
178.204	-238.08
178.424	-238.08
178.644	-238.08
178.864	-244.22
179.084	-242.17
179.304	-2.56
179.524	-61.95
179.744	-10.75
179.964	87.55
180.184	22.02
180.404	28.16
180.624	-25.09
180.844	-12.8
181.064	-72.19
181.283	28.16
181.503	-55.81
181.723	75.26
181.943	-45.57
182.163	79.36
182.383	-43.52
182.602	19.97
182.822	19.97
183.042	-18.94
183.262	-27.14
183.482	-4.61
183.701	7.68
183.921	50.69
184.141	-8.7
184.361	26.11
184.58	36.35
184.8	7.68
185.02	-31.23
185.239	120.32
185.459	71.17
185.679	22.02
185.898	-41.47
186.118	67.07
186.338	40.45
186.557	26.11
186.777	30.21
186.997	-51.71
187.216	-49.66
187.436	173.57
187.655	32.26
187.875	97.79
188.095	-14.85
188.314	120.32
188.534	73.21
188.753	-39.42
188.973	11.78
189.192	140.8
189.412	15.87
189.631	81.41
189.851	97.79
190.07	56.83
190.29	7.68
190.509	77.31
190.729	-31.23
190.948	97.79
191.168	89.6
191.387	42.5
191.607	-6.66
191.826	15.87
192.045	79.36
192.265	3.58
192.484	15.87
192.704	151.04
192.923	-70.14
193.142	144.89
193.362	58.88
193.581	157.18
193.8	13.82
194.02	120.32
194.239	28.16
194.458	62.98
194.678	40.45
194.897	50.69
195.116	19.97
195.335	50.69
195.555	93.69
195.774	-6.66
195.993	46.59
196.212	22.02
196.432	52.74
196.651	32.26
196.87	5.63
197.089	120.32
197.308	24.06
197.528	93.69
197.747	-23.04
197.966	58.88
198.185	187.9
198.404	60.93
198.623	44.54
198.842	22.02
199.062	13.82
199.281	15.87
199.5	40.45
199.719	44.54
199.938	42.5
200.157	89.6
200.376	97.79
200.595	124.41
200.814	38.4
201.033	36.35
201.252	99.84
201.471	22.02
201.69	46.59
201.909	54.78
202.128	56.83
202.347	101.89
202.566	7.68
202.785	-27.14
203.004	-41.47
203.223	114.17
203.442	83.45
203.661	11.78
203.879	67.07
204.098	99.84
204.317	46.59
204.536	71.17
204.755	-33.28
204.974	136.7
205.193	32.26
205.411	138.75
205.63	5.63
205.849	-27.14
206.068	30.21
206.287	-6.66
206.505	120.32
206.724	-16.9
206.943	-20.99
207.162	95.74
207.381	-12.8
207.599	9.73
207.818	52.74
208.037	42.5
208.255	38.4
208.474	120.32
208.693	36.35
208.911	3.58
209.13	36.35
209.349	24.06
209.567	-27.14
209.786	89.6
210.005	62.98
210.223	30.21
210.442	-0.51
210.661	91.65
210.879	-0.51
211.098	7.68
211.316	110.08
211.535	67.07
211.753	-35.33
211.972	60.93
212.191	-8.7
212.409	108.03
212.628	103.93
212.846	-12.8
213.065	81.41
213.283	204.28
213.502	-35.33
213.72	7.68
213.938	87.55
214.157	-8.7
214.375	34.3
214.594	42.5
214.812	13.82
215.031	7.68
215.249	-4.61
215.467	91.65
215.686	28.16
215.904	89.6
216.122	32.26
216.341	67.07
216.559	-25.09
216.778	91.65
216.996	-23.04
217.214	13.82
217.432	19.97
217.651	44.54
217.869	-31.23
218.087	56.83
218.306	-33.28
218.524	42.5
218.742	9.73
218.96	15.87
219.179	32.26
219.397	30.21
219.615	136.7
219.833	110.08
220.051	11.78
220.27	52.74
220.488	17.92
220.706	138.75
220.924	46.59
221.142	46.59
221.36	3.58
221.578	13.82
221.796	52.74
222.015	-23.04
222.233	44.54
222.451	183.81
222.669	-2.56
222.887	32.26
223.105	-12.8
223.323	48.64
223.541	58.88
223.759	93.69
223.977	30.21
224.195	114.17
224.413	110.08
224.631	81.41
224.849	-12.8
225.067	79.36
225.285	-20.99
225.503	54.78
225.721	-72.19
225.939	32.26
226.157	79.36
226.375	198.14
226.592	-33.28
226.81	5.63
227.028	93.69
227.246	165.37
227.464	-8.7
227.682	101.89
227.9	58.88
228.117	-4.61
228.335	73.21
228.553	58.88
228.771	71.17
228.989	75.26
229.206	-35.33
229.424	73.21
229.642	19.97
229.86	42.5
230.077	50.69
230.295	15.87
230.513	91.65
230.731	3.58
230.948	87.55
231.166	73.21
231.384	48.64
231.601	1.54
231.819	114.17
232.037	-0.51
232.254	-2.56
232.472	77.31
232.689	-51.71
232.907	44.54
233.125	52.74
233.342	-14.85
233.56	22.02
233.777	79.36
233.995	-31.23
234.213	140.8
234.43	105.98
234.648	-29.18
234.865	81.41
235.083	85.5
235.3	91.65
235.518	71.17
235.735	161.28
235.953	42.5
236.17	32.26
236.388	114.17
236.605	67.07
236.822	79.36
237.04	69.12
237.257	50.69
237.475	-0.51
237.692	89.6
237.909	-12.8
238.127	32.26
238.344	-4.61
238.562	32.26
238.779	17.92
238.996	19.97
239.214	-4.61
239.431	46.59
239.648	-27.14
239.865	116.22
240.083	105.98
240.3	32.26
240.517	9.73
240.735	38.4
240.952	122.37
241.169	7.68
241.386	85.5
241.603	-23.04
241.821	65.02
242.038	38.4
242.255	50.69
242.472	-18.94
242.689	3.58
242.907	120.32
243.124	50.69
243.341	56.83
243.558	65.02
243.775	-8.7
243.992	-41.47
244.209	56.83
244.426	110.08
244.643	130.56
244.86	-10.75
245.078	42.5
245.295	58.88
245.512	60.93
245.729	-10.75
245.946	73.21
246.163	15.87
246.38	22.02
246.597	24.06
246.814	-33.28
247.031	-0.51
247.248	7.68
247.464	56.83
247.681	-43.52
247.898	179.71
248.115	38.4
248.332	-41.47
248.549	75.26
248.766	120.32
248.983	93.69
249.2	5.63
249.417	52.74
249.633	-59.9
249.85	77.31
250.067	-25.09
250.284	79.36
250.501	62.98
250.717	81.41
250.934	36.35
251.151	58.88
251.368	73.21
251.585	7.68
251.801	112.13
252.018	42.5
252.235	54.78
252.451	50.69
252.668	15.87
252.885	54.78
253.102	46.59
253.318	50.69
253.535	54.78
253.752	81.41
253.968	-35.33
254.185	-14.85
254.401	-35.33
254.618	54.78
254.835	22.02
255.051	108.03
255.268	114.17
255.484	19.97
255.701	13.82
255.917	71.17
256.134	22.02
256.351	60.93
256.567	-41.47
256.784	34.3
257	-57.86
257.217	77.31
257.433	58.88
257.65	-27.14
257.866	69.12
258.082	-16.9
258.299	83.45
258.515	13.82
258.732	36.35
258.948	-39.42
259.165	36.35
259.381	3.58
259.597	52.74
259.814	-12.8
260.03	-2.56
260.246	95.74
260.463	48.64
260.679	87.55
260.895	44.54
261.112	56.83
261.328	7.68
261.544	30.21
261.761	196.09
261.977	15.87
262.193	-2.56
262.409	75.26
262.626	19.97
262.842	56.83
263.058	48.64
263.274	38.4
263.49	48.64
263.707	83.45
263.923	87.55
264.139	-25.09
264.355	9.73
264.571	101.89
264.787	116.22
265.004	95.74
265.22	-35.33
265.436	54.78
265.652	11.78
265.868	128.51
266.084	-8.7
266.3	34.3
266.516	-59.9
266.732	67.07
266.948	5.63
267.164	-8.7
267.38	75.26
267.596	-2.56
267.812	118.27
268.028	15.87
268.244	71.17
268.46	-4.61
268.676	54.78
268.892	52.74
269.108	-10.75
269.324	-51.71
269.54	5.63
269.756	30.21
269.972	-16.9
270.188	44.54
270.403	58.88
270.619	-55.81
270.835	77.31
271.051	13.82
271.267	-12.8
271.483	54.78
271.698	67.07
271.914	81.41
272.13	85.5
272.346	-4.61
272.562	101.89
272.777	13.82
272.993	81.41
273.209	-6.66
273.425	69.12
273.64	-18.94
273.856	79.36
274.072	22.02
274.287	-35.33
274.503	56.83
274.719	44.54
274.934	17.92
275.15	58.88
275.366	3.58
275.581	30.21
275.797	-14.85
276.012	-27.14
276.228	5.63
276.444	87.55
276.659	56.83
276.875	24.06
277.09	-14.85
277.306	32.26
277.521	67.07
277.737	1.54
277.952	15.87
278.168	26.11
278.383	-2.56
278.599	-23.04
278.814	83.45
279.03	50.69
279.245	134.65
279.461	50.69
279.676	48.64
279.892	17.92
280.107	79.36
280.322	-18.94
280.538	32.26
280.753	7.68
280.969	62.98
281.184	15.87
281.399	132.61
281.615	32.26
281.83	-8.7
282.045	-82.43
282.26	36.35
282.476	9.73
282.691	140.8
282.906	17.92
283.122	30.21
283.337	5.63
283.552	11.78
283.767	17.92
283.983	77.31
284.198	75.26
284.413	-29.18
284.628	-6.66
284.843	-27.14
285.058	44.54
285.274	85.5
285.489	-72.19
285.704	114.17
285.919	9.73
286.134	40.45
286.349	67.07
286.564	71.17
286.779	38.4
286.995	34.3
287.21	-68.09
287.425	46.59
287.64	28.16
287.855	97.79
288.07	-39.42
288.285	17.92
288.5	108.03
288.715	97.79
288.93	1.54
289.145	-12.8
289.36	5.63
289.575	87.55
289.79	91.65
290.004	38.4
290.219	146.94
290.434	-20.99
290.649	3.58
290.864	26.11
291.079	58.88
291.294	50.69
291.509	75.26
291.724	93.69
291.938	-33.28
292.153	87.55
292.368	99.84
292.583	-0.51
292.798	122.37
293.012	46.59
293.227	-14.85
293.442	-25.09
293.657	73.21
293.871	65.02
294.086	11.78
294.301	79.36
294.516	99.84
294.73	13.82
294.945	-96.77
295.16	-2.56
295.374	89.6
295.589	87.55
295.804	52.74
296.018	71.17
296.233	15.87
296.447	38.4
296.662	-0.51
296.877	165.37
297.091	34.3
297.306	54.78
297.52	-41.47
297.735	62.98
297.949	77.31
298.164	58.88
298.378	75.26
298.593	85.5
298.807	-10.75
299.022	81.41
299.236	48.64
299.451	40.45
299.665	-61.95
299.88	81.41
300.094	140.8
300.309	-8.7
300.523	19.97
300.737	71.17
300.952	69.12
301.166	19.97
301.381	11.78
301.595	56.83
301.809	71.17
302.024	108.03
302.238	-4.61
302.452	87.55
302.667	11.78
302.881	95.74
303.095	77.31
303.309	30.21
303.524	50.69
303.738	32.26
303.952	11.78
304.166	28.16
304.381	-20.99
304.595	142.85
304.809	-2.56
305.023	13.82
305.237	17.92
305.452	89.6
305.666	67.07
305.88	58.88
306.094	44.54
306.308	19.97
306.522	38.4
306.736	124.41
306.95	97.79
307.164	87.55
307.379	3.58
307.593	120.32
307.807	65.02
308.021	-12.8
308.235	93.69
308.449	40.45
308.663	1.54
308.877	183.81
309.091	48.64
309.305	48.64
309.519	-86.53
309.733	60.93
309.947	-49.66
310.161	124.41
310.374	54.78
310.588	93.69
310.802	124.41
311.016	19.97
311.23	3.58
311.444	38.4
311.658	32.26
311.872	15.87
312.085	56.83
312.299	112.13
312.513	95.74
312.727	58.88
312.941	-10.75
313.154	40.45
313.368	50.69
313.582	-20.99
313.796	48.64
314.009	17.92
314.223	85.5
314.437	60.93
314.651	93.69
314.864	-57.86
315.078	1.54
315.292	73.21
315.505	56.83
315.719	79.36
315.933	89.6
316.146	46.59
316.36	-4.61
316.573	151.04
316.787	34.3
317.001	91.65
317.214	-29.18
317.428	62.98
317.641	69.12
317.855	103.93
318.068	62.98
318.282	22.02
318.495	138.75
318.709	91.65
318.922	-12.8
319.136	169.47
319.349	40.45
319.563	73.21
319.776	73.21
319.99	-8.7
320.203	19.97
320.417	-29.18
320.63	83.45
320.843	89.6
321.057	3.58
321.27	75.26
321.483	71.17
321.697	-2.56
321.91	52.74
322.124	73.21
322.337	-0.51
322.55	1.54
322.763	-4.61
322.977	-25.09
323.19	44.54
323.403	-16.9
323.617	120.32
323.83	32.26
324.043	28.16
324.256	-29.18
324.469	9.73
324.683	101.89
324.896	13.82
325.109	-2.56
325.322	-39.42
325.535	40.45
325.748	32.26
325.962	-18.94
326.175	24.06
326.388	85.5
326.601	69.12
326.814	42.5
327.027	44.54
327.24	118.27
327.453	-12.8
327.666	56.83
327.879	120.32
328.092	69.12
328.305	108.03
328.518	-14.85
328.731	75.26
328.944	-45.57
329.157	30.21
329.37	-18.94
329.583	34.3
329.796	114.17
330.009	7.68
330.222	89.6
330.435	48.64
330.648	54.78
330.861	71.17
331.073	38.4
331.286	5.63
331.499	79.36
331.712	40.45
331.925	11.78
332.138	44.54
332.35	60.93
332.563	11.78
332.776	81.41
332.989	11.78
333.202	3.58
333.414	89.6
333.627	112.13
333.84	24.06
334.053	30.21
334.265	-0.51
334.478	30.21
334.691	-23.04
334.903	75.26
335.116	-45.57
335.329	34.3
335.541	77.31
335.754	97.79
335.966	3.58
336.179	116.22
336.392	65.02
336.604	24.06
336.817	32.26
337.029	93.69
337.242	79.36
337.454	13.82
337.667	120.32
337.88	138.75
338.092	85.5
338.305	-8.7
338.517	11.78
338.729	73.21
338.942	130.56
339.154	38.4
339.367	-14.85
339.579	46.59
339.792	32.26
340.004	17.92
340.217	62.98
340.429	69.12
340.641	15.87
340.854	-76.29
341.066	24.06
341.278	75.26
341.491	112.13
341.703	1.54
341.915	5.63
342.128	101.89
342.34	42.5
342.552	34.3
342.764	36.35
342.977	56.83
343.189	60.93
343.401	24.06
343.613	5.63
343.826	60.93
344.038	-27.14
344.25	-4.61
344.462	60.93
344.674	67.07
344.886	101.89
345.099	42.5
345.311	116.22
345.523	67.07
345.735	-4.61
345.947	28.16
346.159	62.98
346.371	32.26
346.583	77.31
346.795	136.7
347.007	3.58
347.219	56.83
347.431	-4.61
347.643	116.22
347.855	22.02
348.067	132.61
348.279	-41.47
348.491	73.21
348.703	67.07
348.915	50.69
349.127	26.11
349.339	56.83
349.551	-8.7
349.763	73.21
349.975	69.12
350.187	77.31
350.399	128.51
350.61	83.45
350.822	79.36
351.034	50.69
351.246	95.74
351.458	116.22
351.669	48.64
351.881	52.74
352.093	132.61
352.305	112.13
352.517	44.54
352.728	34.3
352.94	17.92
353.152	67.07
353.363	5.63
353.575	65.02
353.787	116.22
353.999	62.98
354.21	79.36
354.422	-10.75
354.633	40.45
354.845	38.4
355.057	60.93
355.268	91.65
355.48	32.26
355.692	-37.38
355.903	46.59
356.115	13.82
356.326	26.11
356.538	91.65
356.749	67.07
356.961	110.08
357.172	89.6
357.384	19.97
357.595	126.46
357.807	46.59
358.018	28.16
358.23	7.68
358.441	140.8
358.653	54.78
358.864	19.97
359.075	-37.38
359.287	3.58
359.498	28.16
359.709	89.6
359.921	52.74
360.132	32.26
360.344	69.12
360.555	19.97
360.766	30.21
360.977	60.93
361.189	79.36
361.4	79.36
361.611	148.99
361.823	163.33
362.034	42.5
362.245	-23.04
362.456	81.41
362.667	30.21
362.879	-53.76
363.09	-0.51
363.301	101.89
363.512	17.92
363.723	5.63
363.935	3.58
364.146	62.98
364.357	62.98
364.568	50.69
364.779	-8.7
364.99	50.69
365.201	46.59
365.412	97.79
365.623	-39.42
365.834	62.98
366.045	30.21
366.256	126.46
366.467	91.65
366.678	22.02
366.889	93.69
367.1	-29.18
367.311	101.89
367.522	19.97
367.733	97.79
367.944	22.02
368.155	-86.53
368.366	-8.7
368.577	136.7
368.788	54.78
368.999	122.37
369.209	91.65
369.42	132.61
369.631	116.22
369.842	69.12
370.053	42.5
370.264	42.5
370.474	-25.09
370.685	60.93
370.896	11.78
371.107	124.41
371.317	112.13
371.528	56.83
371.739	17.92
371.95	95.74
372.16	13.82
372.371	24.06
372.582	91.65
372.792	89.6
373.003	22.02
373.214	7.68
373.424	97.79
373.635	36.35
373.846	140.8
374.056	97.79
374.267	103.93
374.477	87.55
374.688	-16.9
374.898	134.65
375.109	48.64
375.319	116.22
375.53	120.32
375.74	46.59
375.951	69.12
376.161	83.45
376.372	87.55
376.582	19.97
376.793	85.5
377.003	28.16
377.214	56.83
377.424	87.55
377.635	103.93
377.845	30.21
378.055	144.89
378.266	5.63
378.476	24.06
378.686	65.02
378.897	60.93
379.107	140.8
379.317	97.79
379.528	15.87
379.738	46.59
379.948	-29.18
380.158	101.89
380.369	26.11
380.579	165.37
380.789	69.12
380.999	122.37
381.21	114.17
381.42	120.32
381.63	-6.66
381.84	32.26
382.05	144.89
382.261	114.17
382.471	128.51
382.681	62.98
382.891	116.22
383.101	28.16
383.311	1.54
383.521	-4.61
383.731	110.08
383.941	132.61
384.151	60.93
384.361	-55.81
384.571	77.31
384.781	42.5
384.991	159.23
385.201	165.37
385.411	28.16
385.621	134.65
385.831	69.12
386.041	28.16
386.251	62.98
386.461	89.6
386.671	38.4
386.881	71.17
387.091	105.98
387.301	81.41
387.511	79.36
387.72	153.09
387.93	81.41
388.14	-53.76
388.35	91.65
388.56	65.02
388.769	67.07
388.979	65.02
389.189	40.45
389.399	87.55
389.609	81.41
389.818	67.07
390.028	116.22
390.238	93.69
390.447	-4.61
390.657	34.3
390.867	22.02
391.076	-10.75
391.286	112.13
391.496	153.09
391.705	48.64
391.915	194.05
392.125	77.31
392.334	87.55
392.544	136.7
392.753	5.63
392.963	48.64
393.172	120.32
393.382	52.74
393.591	216.57
393.801	75.26
394.01	208.38
394.22	101.89
394.429	38.4
394.639	77.31
394.848	93.69
395.058	93.69
395.267	38.4
395.477	81.41
395.686	-27.14
395.895	204.28
396.105	187.9
396.314	73.21
396.524	71.17
396.733	79.36
396.942	155.13
397.152	101.89
397.361	171.52
397.57	30.21
397.78	48.64
397.989	32.26
398.198	206.33
398.407	105.98
398.617	71.17
398.826	171.52
399.035	126.46
399.244	169.47
399.453	161.28
399.663	130.56
399.872	134.65
400.081	75.26
400.29	140.8
400.499	91.65
400.708	155.13
400.917	87.55
401.127	146.94
401.336	105.98
401.545	169.47
401.754	103.93
401.963	151.04
402.172	99.84
402.381	138.75
402.59	130.56
402.799	91.65
403.008	116.22
403.217	165.37
403.426	198.14
403.635	163.33
403.844	108.03
404.053	142.85
404.262	50.69
404.471	153.09
404.68	163.33
404.888	151.04
405.097	177.66
405.306	220.67
405.515	206.33
405.724	114.17
405.933	151.04
406.142	112.13
406.35	245.24
406.559	159.23
406.768	241.15
406.977	222.72
407.185	255.48
407.394	247.29
407.603	144.89
407.812	218.62
408.02	290.3
408.229	222.72
408.438	192
408.646	237.05
408.855	243.2
409.064	208.38
409.272	284.16
409.481	284.16
409.69	235
409.898	368.12
410.107	327.16
410.315	292.35
410.524	300.54
410.733	355.83
410.941	284.16
411.15	351.74
411.358	329.21
411.567	404.99
411.775	425.47
411.984	425.47
412.192	417.27
412.401	431.61
412.609	507.38
412.818	554.49
413.026	609.78
413.234	525.82
413.443	495.1
413.651	480.76
413.86	572.92
414.068	644.6
414.276	675.32
414.485	630.26
414.693	648.69
414.901	771.57
415.11	714.23
415.318	663.03
415.526	706.04
415.734	761.33
415.943	837.11
416.151	775.67
416.359	871.92
416.567	882.16
416.776	927.22
416.984	951.79
417.192	1076.72
417.4	998.9
417.608	1017.33
417.817	1019.38
418.025	1177.07
418.233	1150.45
418.441	1132.01
418.649	1132.01
418.857	1293.8
419.065	1351.15
419.273	1373.68
419.481	1340.91
419.689	1459.69
419.897	1476.07
420.105	1496.55
420.313	1476.07
420.521	1650.15
420.729	1666.53
420.937	1627.62
421.145	1644.01
421.353	1836.52
421.561	1936.87
421.769	1938.91
421.977	2041.31
422.185	2043.36
422.393	2035.17
422.601	2223.58
422.809	2246.11
423.017	2295.26
423.224	2299.36
423.432	2493.91
423.64	2448.86
423.848	2813.4
424.056	2563.54
424.263	2971.09
424.471	2930.13
424.679	2872.79
424.887	3003.86
425.094	3065.3
425.302	3173.84
425.51	3292.62
425.718	3270.09
425.925	3569.1
426.133	3450.32
426.341	3843.53
426.548	3870.15
426.756	3743.17
426.964	4048.32
427.171	4222.4
427.379	4144.58
427.586	4373.95
427.794	4410.81
428.001	4804.02
428.209	4836.79
428.417	4779.45
428.624	5166.51
428.832	5072.31
429.039	5129.65
429.247	5154.23
429.454	5588.39
429.662	6043.04
429.869	5520.81
430.076	6008.23
430.284	5897.64
430.491	6241.7
430.699	6348.19
430.906	6372.77
431.114	6497.69
431.321	6673.82
431.528	7155.09
431.736	7234.96
431.943	7632.27
432.15	7482.77
432.358	7439.76
432.565	7964.04
432.772	7869.83
432.979	8455.55
433.187	8488.32
433.394	8557.95
433.601	9014.65
433.808	9143.67
434.016	9186.68
434.223	9454.96
434.43	9981.29
434.637	9887.08
434.844	10399.07
435.052	10581.34
435.259	10603.87
435.466	10571.1
435.673	10517.86
435.88	11056.47
436.087	11760.97
436.294	11828.56
436.501	11564.37
436.708	11750.73
436.915	12154.18
437.122	12764.48
437.329	12500.29
437.537	13098.3
437.743	13356.34
437.95	13194.55
438.157	13927.72
438.364	14165.29
438.571	14339.37
438.778	14374.18
438.985	15594.77
439.192	14920.99
439.399	15686.93
439.606	15303.96
439.813	16149.77
440.02	17003.77
440.227	16778.5
440.433	16618.75
440.64	17227
440.847	16999.68
441.054	17738.99
441.261	18681.06
441.467	18171.11
441.674	18857.18
441.881	19248.35
442.088	19350.74
442.294	19158.24
442.501	19895.5
442.708	20307.15
442.914	20923.58
443.121	21699.76
443.328	21241.02
443.534	22721.7
443.741	22052.02
443.948	21798.07
444.154	23461.02
444.361	23489.69
444.568	23327.9
444.774	23483.55
444.981	23825.56
445.187	24370.32
445.394	25392.25
445.6	25277.57
445.807	27679.83
446.013	26340.46
446.22	26539.12
446.426	27948.12
446.633	28181.59
446.839	28920.9
447.046	27751.51
447.252	29557.82
447.459	29373.5
447.665	29099.08
447.871	30606.38
448.078	31849.5
448.284	30258.23
448.491	31388.71
448.697	32631.82
448.903	33104.9
449.11	33059.85
449.316	32263.19
449.522	33174.53
449.728	33659.9
449.935	34046.97
450.141	33944.57
450.347	35070.95
450.553	33741.82
450.76	34055.16
450.966	35505.12
451.172	34923.5
451.378	35578.85
451.584	35222.5
451.791	36373.46
451.997	35714.02
452.203	36434.9
452.409	36883.41
452.615	36334.55
452.821	35068.9
453.027	34706.41
453.233	36432.85
453.44	35140.58
453.646	35312.61
453.852	35920.86
454.058	36273.11
454.264	34933.74
454.47	35894.24
454.676	34634.74
454.882	35994.59
455.088	32732.17
455.294	33303.56
455.5	34006.01
455.705	34059.26
455.911	32873.48
456.117	32189.46
456.323	32003.1
456.529	30272.56
456.735	31644.7
456.941	30620.72
457.147	30231.6
457.352	29062.21
457.558	29316.16
457.764	29277.25
457.97	28386.38
458.176	27933.78
458.381	27462.75
458.587	26557.55
458.793	26455.15
458.999	25003.14
459.204	26981.48
459.41	26297.45
459.616	24439.95
459.821	24210.57
460.027	24276.11
460.233	23792.79
460.438	22820
460.644	22725.8
460.85	21793.97
461.055	21554.36
461.261	21427.39
461.466	19713.24
461.672	19039.45
461.878	20554.95
462.083	19268.83
462.289	18760.93
462.494	18697.44
462.7	17868.02
462.905	17239.29
463.111	17954.03
463.316	17968.37
463.522	18023.66
463.727	17669.36
463.932	17997.04
464.138	17564.92
464.343	17601.78
464.549	17100.03
464.754	17726.71
464.959	17429.75
465.165	17263.86
465.37	16469.25
465.575	16360.71
465.781	16854.27
465.986	16964.86
466.191	16112.91
466.397	15990.03
466.602	15211.8
466.807	15998.22
467.012	15768.85
467.218	15744.27
467.423	15676.69
467.628	15551.76
467.833	16233.74
468.038	15838.48
468.244	15357.21
468.449	15777.04
468.654	15310.1
468.859	15086.87
469.064	15080.73
469.269	14607.65
469.474	14880.03
469.679	14800.16
469.885	14556.45
470.09	14720.29
470.295	14513.44
470.5	14118.18
470.705	14343.46
470.91	14122.28
471.115	14071.08
471.32	14122.28
471.525	14091.56
471.73	13731.12
471.935	13653.3
472.139	13188.41
472.344	13376.82
472.549	13260.09
472.754	13178.17
472.959	12576.06
473.164	12619.07
473.369	12391.75
473.574	13141.3
473.778	12672.32
473.983	12852.54
474.188	12449.09
474.393	12137.8
474.598	11978.06
474.802	11996.49
475.007	11971.91
475.212	12072.26
475.417	11470.16
475.621	11277.65
475.826	11431.25
476.031	11074.9
476.235	10775.9
476.44	11171.16
476.645	11097.43
476.849	11111.77
477.054	10743.13
477.259	10526.05
477.463	10640.73
477.668	10507.62
477.872	10673.5
478.077	10374.5
478.282	9969
478.486	10161.51
478.691	9925.99
478.895	10030.44
479.1	10093.93
479.304	9753.96
479.509	9622.89
479.713	9899.37
479.918	9604.46
480.122	9381.23
480.326	9647.47
480.531	9684.33
480.735	9346.42
480.94	9409.9
481.144	9577.84
481.348	9260.4
481.553	9536.88
481.757	9233.78
481.961	9370.99
482.166	9573.74
482.37	9307.51
482.574	9135.48
482.778	9262.45
482.983	9323.89
483.187	9172.34
483.391	9317.75
483.595	9344.37
483.8	9065.85
484.004	9348.47
484.208	9221.49
484.412	9137.52
484.616	9282.93
484.821	9194.87
485.025	9102.71
485.229	9110.9
485.433	9160.05
485.637	9069.94
485.841	9233.78
486.045	9149.81
486.249	9196.92
486.453	8795.51
486.657	9151.86
486.861	9162.1
487.065	8912.25
487.269	9125.24
487.473	8910.2
487.677	9227.64
487.881	9117.04
488.085	9223.54
488.289	9354.61
488.493	9307.51
488.697	9293.17
488.901	9366.9
489.105	9178.48
489.309	9198.96
489.512	9477.49
489.716	9346.42
489.92	9426.29
490.124	9276.79
490.328	9545.07
490.531	9373.04
490.735	9680.24
490.939	9536.88
491.143	9207.16
491.346	9340.27
491.55	9524.59
491.754	9760.11
491.958	9586.03
492.161	9717.1
492.365	9559.41
492.569	9758.06
492.772	9751.92
492.976	9835.88
493.18	9786.73
493.383	10022.25
493.587	10169.7
493.79	10034.53
493.994	9833.83
494.197	10153.32
494.401	10233.19
494.605	10196.32
494.808	10437.98
495.012	10306.91
495.215	10591.58
495.419	10431.84
495.622	10579.29
495.825	10650.97
496.029	10683.74
496.232	11056.47
496.436	10870.11
496.639	11214.16
496.843	10943.83
497.046	11300.18
497.249	11425.11
497.453	11427.15
497.656	11474.26
497.859	11642.19
498.063	11818.32
498.266	11836.75
498.469	11939.15
498.673	12016.97
498.876	12336.45
499.079	12369.22
499.282	12395.84
499.485	12830.01
499.689	12768.57
499.892	12727.61
500.095	13126.97
500.298	13167.93
500.501	13169.98
500.705	13518.13
500.908	13712.69
501.111	13600.05
501.314	13800.75
501.517	14005.55
501.72	14378.28
501.923	13997.35
502.126	14476.58
502.329	14939.42
502.532	14882.08
502.735	14816.54
502.938	15172.89
503.141	15131.93
503.344	15303.96
503.547	15502.61
503.75	15467.8
503.953	16020.75
504.156	16088.33
504.359	16030.99
504.562	16227.59
504.765	16665.86
504.968	16694.53
505.17	17063.16
505.373	17050.88
505.576	17286.39
505.779	17396.98
505.982	17607.92
506.185	17794.29
506.387	17884.4
506.59	17896.69
506.793	18367.72
506.996	18162.92
507.198	18865.38
507.401	18658.53
507.604	18767.07
507.807	19387.61
508.009	19301.59
508.212	19463.38
508.415	19653.84
508.617	19815.63
508.82	19895.5
509.022	19789.01
509.225	20360.39
509.428	20370.63
509.63	20999.36
509.833	20860.1
510.035	21163.2
510.238	21079.23
510.44	21642.42
510.643	21796.02
510.845	22062.26
511.048	21779.64
511.25	22123.69
511.453	22260.91
511.655	23334.04
511.858	22969.51
512.06	23168.16
512.262	23280.8
512.465	23446.68
512.667	23876.76
512.87	23833.75
513.072	23825.56
513.274	24288.4
513.477	25025.67
513.679	24734.85
513.881	24980.61
514.084	25351.29
514.286	25359.49
514.488	25623.67
514.69	25967.73
514.893	26240.11
515.095	26215.54
515.297	26430.57
515.499	26588.27
515.701	26743.91
515.904	26903.65
516.106	27085.92
516.308	27464.8
516.51	27833.43
516.712	27685.98
516.914	27997.27
517.116	28091.48
517.318	28343.38
517.52	28720.2
517.722	28456.01
517.925	28857.42
518.127	28914.76
518.329	29410.37
518.531	29451.33
518.733	29717.56
518.935	30129.2
519.136	30053.43
519.338	30655.53
519.54	30555.18
519.742	30819.37
519.944	31224.87
520.146	31216.68
520.348	31661.08
520.55	31773.72
520.752	31931.42
520.954	32179.22
521.155	31575.07
521.357	32351.25
521.559	32576.53
521.761	33285.12
521.963	32723.98
522.164	32674.83
522.366	33242.12
522.568	33246.21
522.77	33575.94
522.971	33915.9
523.173	33473.54
523.375	33985.53
523.576	34178.04
523.778	34110.46
523.98	34497.52
524.181	34278.39
524.383	34661.36
524.584	34886.64
524.786	34913.26
524.988	34829.29
525.189	35501.03
525.391	35656.67
525.592	35417.06
525.794	35451.88
525.995	35681.25
526.197	35709.92
526.398	35935.2
526.6	35728.35
526.801	35781.6
527.003	36187.1
527.204	36486.1
527.406	36363.22
527.607	36441.04
527.808	36457.43
528.01	35857.37
528.211	36285.4
528.412	37080.01
528.614	36889.55
528.815	36525.01
529.016	37303.24
529.218	36563.92
529.419	37168.07
529.62	37192.65
529.822	37073.87
530.023	36989.9
530.224	36918.22
530.425	36948.94
530.626	36748.24
530.828	37030.86
531.029	37673.92
531.23	37069.77
531.431	37290.95
531.632	37237.7
531.833	37047.24
532.035	37278.66
532.236	37587.91
532.437	37458.88
532.638	37536.71
532.839	37307.33
533.04	37708.74
533.241	37419.97
533.442	37653.44
533.643	37399.49
533.844	37807.04
534.045	37401.54
534.246	36768.72
534.447	37624.77
534.648	37350.34
534.849	37475.27
535.05	37135.31
535.251	37288.9
535.451	37381.06
535.652	37516.23
535.853	37399.49
536.054	37280.71
536.255	37364.68
536.456	37002.19
536.657	37528.52
536.857	37311.43
537.058	36862.93
537.259	37626.82
537.46	37317.57
537.66	36957.13
537.861	37467.08
538.062	37200.84
538.263	36959.18
538.463	37276.62
538.664	37106.63
538.865	37589.95
539.065	37135.31
539.266	37110.73
539.466	37432.26
539.667	36879.31
539.868	37317.57
540.068	37338.05
540.269	36897.74
540.469	37342.15
540.67	36838.35
540.87	37172.17
541.071	37034.95
541.271	37196.74
541.472	37430.21
541.672	36836.3
541.873	37014.48
542.073	36656.08
542.274	37219.27
542.474	37004.24
542.675	36867.02
542.875	37864.38
543.075	37131.21
543.276	36883.41
543.476	37483.46
543.676	36764.62
543.877	37135.31
544.077	36735.95
544.277	37104.59
544.478	36912.08
544.678	37252.04
544.878	36905.93
545.078	36807.63
545.279	36885.45
545.479	36817.87
545.679	36697.04
545.879	36926.41
546.079	36731.86
546.28	36850.64
546.48	36086.75
546.68	36973.52
546.88	36983.76
547.08	36666.32
547.28	36639.7
547.48	36443.09
547.68	36928.46
547.88	36690.9
548.081	36525.01
548.281	37010.38
548.481	36402.13
548.681	36727.76
548.881	36893.65
549.081	36774.86
549.28	36703.18
549.48	37106.63
549.68	36389.84
549.88	36826.06
550.08	36137.94
550.28	36707.28
550.48	36697.04
550.68	36707.28
550.88	36187.1
551.08	36170.71
551.279	36672.46
551.479	36377.56
551.679	36684.75
551.879	36156.38
552.079	36809.68
552.278	36252.63
552.478	36740.05
552.678	36557.78
552.878	36719.57
553.077	36189.14
553.277	36342.74
553.477	36682.7
553.676	36334.55
553.876	36410.32
554.076	36336.6
554.275	35918.81
554.475	36092.89
554.674	36459.48
554.874	36330.45
555.074	36543.44
555.273	36295.64
555.473	36309.97
555.672	35998.68
555.872	36166.62
556.071	36488.15
556.271	36334.55
556.47	35898.33
556.67	36127.7
556.869	35689.44
557.068	36185.05
557.268	35888.09
557.467	36053.98
557.667	35826.65
557.866	35967.96
558.065	36078.55
558.265	35779.55
558.464	35976.16
558.663	36172.76
558.863	35582.95
559.062	36469.72
559.261	35556.32
559.461	36297.69
559.66	35734.49
559.859	35810.27
560.058	35763.17
560.258	35754.97
560.457	35283.94
560.656	36058.07
560.855	35707.87
561.054	36226.01
561.253	35441.64
561.453	35836.89
561.652	35724.25
561.851	35888.09
562.05	35613.66
562.249	35652.58
562.448	36230.1
562.647	35933.15
562.846	35945.44
563.045	35474.4
563.244	35326.95
563.443	35873.76
563.642	34986.99
563.841	35718.11
564.04	35580.9
564.239	36080.6
564.438	35505.12
564.637	35599.33
564.836	35668.96
565.035	35126.25
565.234	35392.48
565.432	35259.37
565.631	35277.8
565.83	35601.38
566.029	35185.64
566.228	35093.48
566.427	35146.73
566.625	34946.03
566.824	34925.55
567.023	35310.57
567.222	34374.64
567.42	35263.46
567.619	35087.34
567.818	35097.58
568.016	34882.54
568.215	34964.46
568.414	35267.56
568.612	35111.91
568.811	35130.34
569.01	35099.62
569.208	34632.69
569.407	35091.43
569.605	34413.55
569.804	35027.95
570.002	34706.41
570.201	34733.04
570.4	34677.74
570.598	34474.99
570.797	34190.33
570.995	34677.74
571.193	34612.21
571.392	35060.71
571.59	34030.58
571.789	34450.42
571.987	34554.86
572.186	34474.99
572.384	34137.08
572.582	34407.41
572.781	34526.19
572.979	33766.4
573.177	34188.28
573.376	34384.88
573.574	34130.94
573.772	33776.64
573.971	33670.14
574.169	33713.15
574.367	33442.82
574.565	33948.67
574.763	33684.48
574.962	33561.6
575.16	33543.17
575.358	33784.83
575.556	33438.72
575.754	33637.37
575.952	33235.97
576.151	33942.52
576.349	33432.58
576.547	33324.04
576.745	33606.66
576.943	33061.9
577.141	33408
577.339	33027.08
577.537	32840.71
577.735	33246.21
577.933	32939.02
578.131	32756.75
578.329	32820.24
578.527	32605.2
578.725	32762.89
578.923	32832.52
579.121	32443.41
579.319	32181.27
579.516	32742.41
579.714	32932.87
579.912	32132.12
580.11	32291.86
580.308	32689.17
580.506	32324.63
580.704	31962.14
580.901	32398.35
581.099	32615.44
581.297	32185.36
581.495	31964.18
581.692	32199.7
581.89	32023.58
582.088	32230.42
582.285	31929.37
582.483	32402.45
582.681	31833.11
582.878	31570.97
583.076	31652.89
583.274	31726.62
583.471	31419.42
583.669	31501.34
583.866	31570.97
584.064	31425.57
584.262	30759.98
584.459	31601.69
584.657	31235.11
584.854	31220.77
585.052	30923.82
585.249	31185.96
585.447	30848.04
585.644	30659.63
585.841	30811.18
586.039	30643.24
586.236	30872.62
586.434	30534.7
586.631	30749.74
586.828	30833.71
587.026	30551.09
587.223	30749.74
587.42	30583.85
587.618	30377.01
587.815	30135.35
588.012	29996.09
588.21	30073.91
588.407	30714.92
588.604	30088.24
588.801	29914.17
588.999	29963.32
589.196	30133.3
589.393	30014.52
589.59	29871.16
589.787	29414.46
589.984	29492.29
590.182	29385.79
590.379	29649.98
590.576	29889.59
590.773	29523.01
590.97	29369.41
591.167	29228.1
591.364	29129.8
591.561	29469.76
591.758	29047.88
591.955	29228.1
592.152	29248.58
592.349	29254.72
592.546	28826.7
592.743	28945.48
592.94	28644.43
593.137	28724.3
593.334	28845.13
593.531	28658.76
593.727	28767.31
593.924	28593.23
594.121	28621.9
594.318	28386.38
594.515	27921.49
594.712	28744.78
594.908	28124.24
595.105	28339.28
595.302	28003.41
595.499	27974.74
595.696	28124.24
595.892	27622.49
596.089	27675.74
596.286	27903.06
596.482	27706.46
596.679	27642.97
596.876	27874.39
597.072	27702.36
597.269	27493.47
597.466	27505.76
597.662	27516
597.859	27182.18
598.055	27313.25
598.252	26973.28
598.448	27438.17
598.645	26803.3
598.841	26817.64
599.038	27130.98
599.234	27141.22
599.431	26811.49
599.627	26676.33
599.824	26940.52
600.02	26432.62
600.217	26907.75
600.413	26473.58
600.609	26418.28
600.806	26299.5
601.002	26498.16
601.198	26070.13
601.395	26348.65
601.591	26119.28
601.787	26301.55
601.984	26066.03
602.18	26334.32
602.376	25980.02
602.572	25859.19
602.769	26150
602.965	25638.01
603.161	26045.55
603.357	25607.29
603.553	25707.64
603.75	25783.41
603.946	25263.23
604.142	25691.26
604.338	25384.06
604.534	25683.06
604.73	25334.91
604.926	25468.03
605.122	25404.54
605.318	25083.01
605.514	25336.96
605.71	25093.25
605.906	24820.87
606.102	25154.69
606.298	25083.01
606.494	24941.7
606.69	24695.94
606.886	24847.49
607.082	24376.46
607.278	24814.73
607.474	24493.19
607.67	24679.56
607.866	24278.16
608.062	24992.9
608.257	24620.17
608.453	24476.81
608.649	24425.61
608.845	24186
609.041	24364.17
609.236	24450.19
609.432	24435.85
609.628	24218.77
609.824	24351.88
610.019	24089.74
610.215	24321.16
610.411	24145.04
610.606	24106.13
610.802	23825.56
610.998	24102.03
611.193	23997.59
611.389	23737.49
611.584	23569.56
611.78	23880.85
611.976	23870.61
612.171	24085.65
612.367	23549.08
612.562	23481.5
612.758	23544.98
612.953	23405.72
613.149	23729.3
613.344	23235.74
613.539	23391.39
613.735	23512.22
613.93	23501.98
614.126	23504.03
614.321	23463.07
614.517	23530.65
614.712	23424.15
614.907	23395.48
615.103	23350.43
615.298	23342.24
615.493	23725.21
615.688	23157.92
615.884	23348.38
616.079	22889.63
616.274	22908.07
616.47	22836.39
616.665	22889.63
616.86	23026.85
617.055	22877.35
617.25	23051.42
617.445	22723.75
617.641	22494.38
617.836	22875.3
618.031	22269.1
618.226	22881.44
618.421	22502.57
618.616	22516.9
618.811	22566.06
619.006	22680.74
619.201	22127.79
619.396	22346.92
619.591	21681.33
619.786	21968.05
619.981	21638.33
620.176	21906.61
620.371	21333.18
620.566	21605.56
620.761	21433.53
620.956	21630.13
621.151	21140.67
621.346	21419.19
621.541	21056.7
621.735	21290.17
621.93	20853.95
622.125	21062.85
622.32	20452.55
622.515	20876.48
622.709	20845.76
622.904	20788.42
623.099	20446.41
623.294	20618.44
623.488	20057.29
623.683	20311.24
623.878	19969.23
624.072	20092.11
624.267	19883.22
624.462	19918.03
624.656	19594.45
624.851	19520.73
625.046	19543.25
625.24	19696.85
625.435	19410.14
625.629	18978.01
625.824	19016.93
626.018	19150.04
626.213	18730.21
626.407	19055.84
626.602	18455.78
626.796	18855.14
626.991	18664.68
627.185	18584.8
627.38	18517.22
627.574	18363.62
627.768	18314.47
627.963	18117.87
628.157	17937.65
628.352	18115.82
628.546	17792.24
628.74	17833.2
628.935	17550.58
629.129	17655.03
629.323	17282.3
629.517	17349.88
629.712	17423.61
629.906	17399.03
630.1	17151.23
630.294	17169.66
630.489	16958.72
630.683	16903.42
630.877	16827.65
631.071	16688.39
631.265	16657.67
631.459	16809.22
631.653	16487.68
631.848	16626.95
632.042	16145.67
632.236	16778.5
632.43	16489.73
632.624	16033.04
632.818	15975.69
633.012	15834.38
633.206	15854.86
633.4	15936.78
633.594	15754.51
633.788	15666.45
633.982	15899.92
634.176	15697.17
634.369	15336.73
634.563	15219.99
634.757	15320.34
634.951	15318.29
635.145	15248.66
635.339	15222.04
635.533	14964
635.726	15312.15
635.92	14712.1
636.114	14646.56
636.308	14546.21
636.501	14738.72
636.695	14605.6
636.889	14460.2
637.083	14365.99
637.276	14288.17
637.47	14230.82
637.664	14064.94
637.857	14116.14
638.051	14146.86
638.244	13849.9
638.438	13765.93
638.632	13796.65
638.825	13645.1
639.019	13698.35
639.212	13618.48
639.406	13815.09
639.599	13407.54
639.793	13409.59
639.986	13327.67
640.18	13620.53
640.373	13032.76
640.567	13075.77
640.76	12936.51
640.954	12903.74
641.147	12848.44
641.34	12942.65
641.534	12741.95
641.727	12768.57
641.92	12883.26
642.114	12531.01
642.307	12418.37
642.5	12739.9
642.694	12264.77
642.887	12412.23
643.08	12401.99
643.273	12141.89
643.467	12121.42
643.66	11990.35
643.853	12152.13
644.046	11976.01
644.239	11734.35
644.432	11785.55
644.626	11638.09
644.819	11570.51
645.012	11609.42
645.205	11644.24
645.398	11455.83
645.591	11656.53
645.784	11554.13
645.977	11285.84
646.17	11306.32
646.363	11171.16
646.556	11148.63
646.749	11115.86
646.942	10995.03
647.135	10810.72
647.328	10956.12
647.521	10870.11
647.714	10630.49
647.907	10782.04
648.099	10745.18
648.292	10685.79
648.485	10474.85
648.678	10468.7
648.871	10417.51
649.064	10538.34
649.256	10417.51
649.449	10298.72
649.642	10171.75
649.835	10173.8
650.027	10200.42
650.22	9932.14
650.413	10167.65
650.605	10218.85
650.798	10014.06
650.991	9887.08
651.183	9796.97
651.376	9782.63
651.568	9864.55
651.761	9715.05
651.954	9467.25
652.146	9557.36
652.339	9426.29
652.531	9620.85
652.724	9307.51
652.916	9258.35
653.109	9178.48
653.301	9317.75
653.494	9401.71
653.686	9196.92
653.879	9420.14
654.071	9018.74
654.263	9295.22
654.456	9035.13
654.648	9213.3
654.84	8908.15
655.033	8904.06
655.225	8662.4
655.417	8723.83
655.61	9014.65
655.802	8871.29
655.994	8916.34
656.186	8750.46
656.379	8410.5
656.571	8353.15
656.763	8580.48
656.955	8424.83
657.148	8371.58
657.34	8418.69
657.532	8287.62
657.724	8258.95
657.916	8185.22
658.108	8306.05
658.3	7976.33
658.492	8005
658.684	8062.34
658.876	8172.93
659.068	8035.72
659.26	7984.52
659.452	7910.79
659.644	7947.65
659.836	7949.7
660.028	7773.58
660.22	7849.35
660.412	7708.04
660.604	7726.47
660.796	7894.41
660.988	7792.01
661.18	7640.46
661.372	7538.06
661.563	7493.01
661.755	7435.66
661.947	7427.47
662.139	7347.6
662.331	7538.06
662.522	7280.02
662.714	7388.56
662.906	7282.06
663.097	7335.31
663.289	7155.09
663.481	7046.55
663.673	7116.18
663.864	7028.12
664.056	7179.67
664.247	7087.51
664.439	6933.91
664.631	6929.81
664.822	7067.03
665.014	6946.2
665.205	6813.08
665.397	6792.6
665.588	6923.67
665.78	6679.96
665.971	6649.24
666.163	6733.21
666.354	6585.76
666.546	6610.33
666.737	6657.43
666.929	6460.83
667.12	6567.32
667.311	6542.75
667.503	6540.7
667.694	6557.08
667.885	6399.39
668.077	6557.08
668.268	6407.58
668.459	6428.06
668.651	6258.08
668.842	6346.14
669.033	6321.57
669.224	6362.53
669.416	6372.77
669.607	6176.16
669.798	6155.68
669.989	6260.13
670.18	6159.78
670.371	6278.56
670.563	6190.5
670.754	6047.14
670.945	6137.25
671.136	6139.3
671.327	5920.17
671.518	5918.12
671.709	6133.15
671.9	5973.41
672.091	5975.46
672.282	6016.42
672.473	5961.13
672.664	5881.25
672.855	6026.66
673.046	5961.13
673.237	5858.73
673.428	5862.82
673.619	5891.49
673.809	5744.04
674	5762.47
674.191	5717.42
674.382	6020.52
674.573	5735.85
674.764	5715.37
674.954	5840.29
675.145	5559.72
675.336	5635.5
675.527	5787.05
675.717	5707.18
675.908	5539.24
676.099	5545.39
676.289	5578.15
676.48	5625.26
676.671	5531.05
676.861	5567.92
677.052	5639.59
677.243	5465.52
677.433	5459.37
677.624	5576.11
677.814	5647.79
678.005	5440.94
678.195	5518.76
678.386	5639.59
678.576	5397.93
678.767	5539.24
678.957	5453.23
679.148	5535.15
679.338	5436.85
679.529	5539.24
679.719	5432.75
679.909	5641.64
680.1	5379.5
680.29	5371.31
680.481	5340.59
680.671	5524.91
680.861	5238.19
681.052	5529
681.242	5395.89
681.432	5477.8
681.622	5248.43
681.813	5264.82
682.003	5336.49
682.193	5438.89
682.383	5510.57
682.573	5387.69
682.764	5283.25
682.954	5356.97
683.144	5356.97
683.334	5234.1
683.524	5264.82
683.714	5324.21
683.904	5291.44
684.094	5215.66
684.284	5152.18
684.474	5307.82
684.664	5266.86
684.854	5326.25
685.044	5184.94
685.234	5240.24
685.424	5207.47
685.614	5176.75
685.804	5098.93
685.994	5064.11
686.184	5301.68
686.374	5150.13
686.564	4914.61
686.753	5115.31
686.943	4988.34
687.133	4996.53
687.323	4840.89
687.513	4974
687.702	4980.15
687.892	5021.11
688.082	4916.66
688.272	5039.54
688.461	4935.09
688.651	4959.67
688.841	4904.37
689.03	4683.19
689.22	4826.55
689.41	4808.12
689.599	4785.59
689.789	4736.44
689.979	4697.53
690.168	4744.63
690.358	4672.95
690.547	4640.19
690.737	4677.05
690.926	4597.18
691.116	4677.05
691.305	4517.31
691.495	4543.93
691.684	4562.36
691.874	4627.9
692.063	4464.06
692.252	4433.34
692.442	4588.99
692.631	4472.25
692.82	4468.16
693.01	4388.29
693.199	4423.1
693.388	4402.62
693.578	4376
693.767	4498.88
693.956	4441.53
694.146	4398.52
694.335	4345.28
694.524	4312.51
694.713	4369.85
694.902	4283.84
695.092	4373.95
695.281	4277.69
695.47	4355.52
695.659	4392.38
695.848	4296.13
696.037	4212.16
696.226	4396.48
696.415	4263.36
696.604	4332.99
696.793	4318.65
696.982	4230.59
697.171	4242.88
697.36	4206.02
697.549	4232.64
697.738	4138.43
697.927	4263.36
698.116	4259.26
698.305	4220.35
698.494	4310.46
698.683	4292.03
698.872	4335.04
699.061	4314.56
699.25	4261.31
699.438	4173.25
699.627	4308.41
699.816	4314.56
700.005	4259.26
700.193	4287.93
700.382	4353.47
700.571	4240.83
700.76	4449.72
700.948	4271.55
701.137	4206.02
701.326	4388.29
701.514	4208.06
701.703	4240.83
701.892	4304.32
702.08	4281.79
702.269	4216.26
702.457	4269.5
702.646	4249.02
702.834	4369.85
703.023	4343.23
703.212	4421.05
703.4	4320.7
703.589	4228.54
703.777	4318.65
703.965	4226.5
704.154	4259.26
704.342	4378.05
704.531	4126.15
704.719	4167.1
704.907	4355.52
705.096	4234.69
705.284	4320.7
705.472	4316.61
705.661	4341.18
705.849	4359.61
706.037	4289.98
706.226	4253.12
706.414	4308.41
706.602	4398.52
706.79	4322.75
706.979	4322.75
707.167	4244.93
707.355	4292.03
707.543	4281.79
707.731	4363.71
707.919	4427.2
708.107	4195.78
708.296	4328.89
708.484	4195.78
708.672	4359.61
708.86	4201.92
709.048	4326.85
709.236	4281.79
709.424	4324.8
709.612	4285.89
709.8	4234.69
709.988	4394.43
710.176	4300.22
710.364	4337.09
710.551	4404.67
710.739	4324.8
710.927	4330.94
711.115	4195.78
711.303	4376
711.491	4281.79
711.679	4140.48
711.866	4435.39
712.054	4404.67
712.242	4310.46
712.43	4519.36
712.617	4218.3
712.805	4177.34
712.993	4287.93
713.181	4253.12
713.368	4271.55
713.556	4492.73
713.744	4351.42
713.931	4613.56
714.119	4263.36
714.306	4451.77
714.494	4367.81
714.682	4343.23
714.869	4328.89
715.057	4474.3
715.244	4267.45
715.432	4378.05
715.619	4382.14
715.807	4394.43
715.994	4298.17
716.182	4320.7
716.369	4509.12
716.556	4382.14
716.744	4365.76
716.931	4294.08
717.119	4548.03
717.306	4574.65
717.493	4359.61
717.681	4548.03
717.868	4515.26
718.055	4400.57
718.242	4431.29
718.43	4539.83
718.617	4386.24
718.804	4498.88
718.991	4298.17
719.179	4505.02
719.366	4349.37
719.553	4335.04
719.74	4425.15
719.927	4279.74
720.114	4332.99
720.301	4279.74
720.488	4359.61
720.676	4376
720.863	4402.62
721.05	4425.15
721.237	4351.42
721.424	4335.04
721.611	4306.37
721.798	4259.26
721.985	4298.17
722.172	4312.51
722.358	4380.09
722.545	4527.55
722.732	4255.17
722.919	4449.72
723.106	4451.77
723.293	4451.77
723.48	4343.23
723.667	4320.7
723.853	4382.14
724.04	4363.71
724.227	4306.37
724.414	4435.39
724.6	4404.67
724.787	4355.52
724.974	4369.85
725.161	4402.62
725.347	4251.07
725.534	4226.5
725.72	4382.14
725.907	4332.99
726.094	4369.85
726.28	4201.92
726.467	4249.02
726.653	4281.79
726.84	4339.13
727.027	4380.09
727.213	4349.37
727.4	4408.76
727.586	4324.8
727.773	4242.88
727.959	4427.2
728.145	4357.57
728.332	4328.89
728.518	4224.45
728.705	4369.85
728.891	4386.24
729.077	4304.32
729.264	4160.96
729.45	4384.19
729.636	4275.65
729.823	4263.36
730.009	4314.56
730.195	4310.46
730.382	4357.57
730.568	4359.61
730.754	4314.56
730.94	4226.5
731.126	4267.45
731.313	4419
731.499	4230.59
731.685	4203.97
731.871	4181.44
732.057	4308.41
732.243	4257.22
732.429	4316.61
732.615	4163.01
732.801	4306.37
732.987	4214.21
733.173	4218.3
733.359	4255.17
733.545	4201.92
733.731	4177.34
733.917	4150.72
734.103	4242.88
734.289	4058.56
734.475	3986.88
734.661	4269.5
734.847	4064.71
735.033	4335.04
735.219	4079.04
735.404	4070.85
735.59	4029.89
735.776	4074.95
735.962	4124.1
736.148	4324.8
736.333	4085.19
736.519	4046.27
736.705	4120
736.89	3974.6
737.076	4134.34
737.262	4093.38
737.447	4136.38
737.633	4027.84
737.819	4009.41
738.004	4007.36
738.19	4025.79
738.375	3872.2
738.561	3966.4
738.747	3917.25
738.932	3757.51
739.118	4005.31
739.303	3882.44
739.489	3902.92
739.674	3732.94
739.859	3788.23
740.045	3982.79
740.23	3825.09
740.416	3630.54
740.601	3894.72
740.786	3790.28
740.972	3745.22
741.157	3859.91
741.342	3767.75
741.528	3677.64
741.713	3843.53
741.898	3622.34
742.084	3646.92
742.269	3640.78
742.454	3679.69
742.639	3683.78
742.824	3657.16
743.01	3673.54
743.195	3706.31
743.38	3663.3
743.565	3573.19
743.75	3634.63
743.935	3556.81
744.12	3665.35
744.305	3548.62
744.49	3481.03
744.675	3524.04
744.86	3452.36
745.045	3565
745.23	3462.6
745.415	3417.55
745.6	3401.16
745.785	3397.07
745.97	3528.14
746.155	3276.24
746.34	3241.42
746.525	3341.77
746.71	3448.27
746.895	3188.18
747.079	3442.12
747.264	3128.78
747.449	3220.94
747.634	3208.66
747.819	3311.05
748.003	3222.99
748.188	3120.59
748.373	3151.31
748.557	3065.3
748.742	3073.49
748.927	2964.95
749.111	3100.11
749.296	2962.9
749.481	3024.34
749.665	3089.87
749.85	2921.94
750.034	2817.49
750.219	3065.3
750.404	3010
750.588	2946.52
750.773	2786.77
750.957	2930.13
751.141	2946.52
751.326	2821.59
751.51	2756.05
751.695	2797.01
751.879	2831.83
752.064	2825.68
752.248	2639.32
752.432	2760.15
752.617	2690.52
752.801	2606.55
752.985	2702.81
753.17	2655.7
753.354	2643.42
753.538	2608.6
753.722	2588.12
753.907	2448.86
754.091	2442.71
754.275	2522.59
754.459	2465.24
754.643	2543.07
754.828	2448.86
755.012	2545.11
755.196	2432.47
755.38	2358.75
755.564	2354.65
755.748	2446.81
755.932	2334.17
756.116	2375.13
756.3	2364.89
756.484	2176.48
756.668	2293.21
756.852	2207.2
757.036	2346.46
757.22	2205.15
757.404	2133.47
757.588	2242.01
757.772	2348.51
757.956	2239.97
758.14	2375.13
758.323	2133.47
758.507	2278.88
758.691	2137.57
758.875	2112.99
759.059	2139.62
759.242	2135.52
759.426	2213.34
759.61	2051.55
759.794	2033.12
759.977	2076.13
760.161	2096.61
760.345	2084.32
760.528	2065.89
760.712	2033.12
760.895	2018.79
761.079	2057.7
761.263	1897.96
761.446	1922.53
761.63	1906.15
761.813	1908.19
761.997	1932.77
762.18	1922.53
762.364	1949.15
762.547	1820.13
762.731	1816.04
762.914	1918.43
763.098	1766.89
763.281	1773.03
763.464	1824.23
763.648	1834.47
763.831	1762.79
764.015	1756.65
764.198	1859.04
764.381	1840.61
764.564	1713.64
764.748	1760.74
764.931	1828.32
765.114	1822.18
765.297	1760.74
765.481	1674.73
765.664	1662.44
765.847	1646.05
766.03	1730.02
766.213	1668.58
766.397	1736.17
766.58	1523.18
766.763	1734.12
766.946	1621.48
767.129	1605.1
767.312	1598.95
767.495	1570.28
767.678	1578.47
767.861	1598.95
768.044	1646.05
768.227	1701.35
768.41	1590.76
768.593	1646.05
768.776	1580.52
768.959	1566.18
769.142	1660.39
769.324	1510.89
769.507	1531.37
769.69	1551.85
769.873	1510.89
770.056	1609.19
770.239	1586.66
770.421	1504.75
770.604	1553.9
770.787	1428.97
770.97	1555.94
771.152	1502.7
771.335	1496.55
771.518	1484.27
771.7	1502.7
771.883	1562.09
772.066	1461.74
772.248	1521.13
772.431	1496.55
772.613	1553.9
772.796	1486.31
772.978	1416.68
773.161	1469.93
773.343	1424.87
773.526	1467.88
773.708	1318.38
773.891	1304.04
774.073	1367.53
774.256	1433.07
774.438	1402.35
774.621	1320.43
774.803	1340.91
774.985	1361.39
775.168	1357.29
775.35	1279.47
775.532	1428.97
775.715	1220.08
775.897	1275.37
776.079	1230.32
776.261	1334.76
776.444	1224.17
776.626	1250.8
776.808	1242.61
776.99	1177.07
777.173	1123.82
777.355	1172.97
777.537	1193.45
777.719	1242.61
777.901	1093.1
778.083	1136.11
778.265	1113.58
778.447	1195.5
778.629	1125.87
778.811	1164.78
778.993	1181.17
779.175	1148.4
779.357	1039.86
779.539	1050.1
779.721	966.13
779.903	1224.17
780.085	1054.19
780.267	1099.25
780.449	1146.35
780.631	1023.47
780.812	1111.54
780.994	1011.18
781.176	1080.82
781.358	966.13
781.54	1037.81
781.721	1054.19
781.903	1050.1
782.085	1033.71
782.267	1021.42
782.448	980.47
782.63	904.69
782.812	957.94
782.993	953.84
783.175	984.56
783.357	857.59
783.538	978.42
783.72	968.18
783.901	849.4
784.083	931.31
784.264	884.21
784.446	923.12
784.627	816.63
784.809	837.11
784.99	765.43
785.172	919.03
785.353	833.01
785.535	890.35
785.716	876.02
785.897	837.11
786.079	767.48
786.26	769.52
786.441	814.58
786.623	726.52
786.804	710.13
786.985	802.29
787.167	898.55
787.348	693.75
787.529	710.13
787.71	880.11
787.891	699.89
788.073	734.71
788.254	703.99
788.435	808.44
788.616	716.28
788.797	636.41
788.978	761.33
789.159	656.89
789.34	728.56
789.522	728.56
789.703	570.87
789.884	753.14
790.065	706.04
790.246	685.56
790.427	613.88
790.607	740.85
790.788	632.31
790.969	560.63
791.15	693.75
791.331	521.72
791.512	595.45
791.693	642.55
791.874	574.97
792.054	644.6
792.235	642.55
792.416	564.73
792.597	560.63
792.778	556.54
792.958	603.64
793.139	607.73
793.32	591.35
793.5	556.54
793.681	648.69
793.862	509.43
794.042	722.42
794.223	550.39
794.404	548.34
794.584	445.95
794.765	574.97
794.945	511.48
795.126	636.41
795.306	484.86
795.487	554.49
795.667	548.34
795.848	546.3
796.028	458.23
796.209	474.62
796.389	501.24
796.57	519.67
796.75	478.71
796.93	470.52
797.111	429.56
797.291	423.42
797.471	515.58
797.652	468.47
797.832	501.24
798.012	548.34
798.192	460.28
798.373	368.12
798.553	347.64
798.733	466.42
798.913	456.19
799.093	427.51
799.274	458.23
799.454	480.76
799.634	488.95
799.814	484.86
799.994	495.1
800.174	470.52
800.354	433.66
800.534	411.13
800.714	466.42
800.894	425.47
801.074	409.08
801.254	396.79
801.434	536.06
801.614	396.79
801.794	378.36
801.974	1342.96
802.154	460.28
802.334	460.28
802.514	361.98
802.693	417.27
802.873	443.9
803.053	435.71
803.233	386.55
803.413	368.12
803.592	327.16
803.772	355.83
803.952	351.74
804.131	329.21
804.311	400.89
804.491	493.05
804.67	343.55
804.85	306.68
805.03	370.17
805.209	468.47
805.389	357.88
805.568	280.06
805.748	353.79
805.928	353.79
806.107	400.89
806.287	314.88
806.466	298.49
806.646	271.87
806.825	335.35
807.004	370.17
807.184	353.79
807.363	357.88
807.543	353.79
807.722	345.59
807.901	456.19
808.081	284.16
808.26	249.34
808.439	441.85
808.619	300.54
808.798	333.31
808.977	284.16
809.156	355.83
809.336	333.31
809.515	290.3
809.694	314.88
809.873	255.48
810.052	333.31
810.231	318.97
810.411	310.78
810.59	312.83
810.769	271.87
810.948	378.36
811.127	200.19
811.306	251.39
811.485	275.96
811.664	351.74
811.843	314.88
812.022	251.39
812.201	331.26
812.38	290.3
812.559	300.54
812.737	245.24
812.916	265.72
813.095	312.83
813.274	245.24
813.453	302.59
813.632	370.17
813.811	366.07
813.989	251.39
814.168	269.82
814.347	155.13
814.526	206.33
814.704	267.77
814.883	284.16
815.062	259.58
815.24	357.88
815.419	214.52
815.598	275.96
815.776	124.41
815.955	230.91
816.133	171.52
816.312	300.54
816.49	181.76
816.669	310.78
816.847	204.28
817.026	292.35
817.204	243.2
817.383	237.05
817.561	134.65
817.74	286.2
817.918	206.33
818.097	308.73
818.275	200.19
818.453	280.06
818.632	275.96
818.81	212.48
818.988	202.24
819.167	122.37
819.345	218.62
819.523	214.52
819.701	296.44
819.879	220.67
820.058	235
820.236	228.86
820.414	210.43
820.592	108.03
820.77	134.65
820.948	128.51
821.127	222.72
821.305	243.2
821.483	97.79
821.661	214.52
821.839	196.09
822.017	179.71
822.195	155.13
822.373	159.23
822.551	253.44
822.729	222.72
822.907	200.19
823.085	237.05
823.262	167.42
823.44	101.89
823.618	116.22
823.796	237.05
823.974	165.37
824.152	181.76
824.329	192
824.507	249.34
824.685	146.94
824.863	138.75
825.04	204.28
825.218	167.42
825.396	196.09
825.574	155.13
825.751	218.62
825.929	237.05
826.107	75.26
826.284	177.66
826.462	132.61
826.639	130.56
826.817	122.37
826.994	185.85
827.172	169.47
827.349	112.13
827.527	161.28
827.704	163.33
827.882	198.14
828.059	171.52
828.237	130.56
828.414	185.85
828.591	17.92
828.769	122.37
828.946	69.12
829.124	167.42
829.301	101.89
829.478	183.81
829.655	163.33
829.833	175.61
830.01	24.06
830.187	175.61
830.364	181.76
830.542	155.13
830.719	202.24
830.896	204.28
831.073	228.86
831.25	206.33
831.427	159.23
831.604	192
831.782	112.13
831.959	124.41
832.136	140.8
832.313	206.33
832.49	163.33
832.667	155.13
832.844	77.31
833.021	146.94
833.198	116.22
833.374	138.75
833.551	148.99
833.728	128.51
833.905	140.8
834.082	44.54
834.259	126.46
834.436	157.18
834.612	79.36
834.789	126.46
834.966	122.37
835.143	83.45
835.319	-10.75
835.496	146.94
835.673	140.8
835.85	179.71
836.026	118.27
836.203	157.18
836.38	140.8
836.556	85.5
836.733	101.89
836.909	192
837.086	56.83
837.262	65.02
837.439	151.04
837.616	7.68
837.792	101.89
837.968	81.41
838.145	52.74
838.321	73.21
838.498	110.08
838.674	124.41
838.851	110.08
839.027	116.22
839.203	97.79
839.38	79.36
839.556	44.54
839.732	134.65
839.909	54.78
840.085	134.65
840.261	28.16
840.437	48.64
840.614	124.41
840.79	89.6
840.966	124.41
841.142	120.32
841.318	103.93
841.494	128.51
841.671	116.22
841.847	75.26
842.023	7.68
842.199	110.08
842.375	65.02
842.551	-0.51
842.727	99.84
842.903	46.59
843.079	116.22
843.255	165.37
843.431	167.42
843.607	83.45
843.783	1.54
843.959	128.51
844.134	54.78
844.31	140.8
844.486	-16.9
844.662	1.54
844.838	30.21
845.013	126.46
845.189	124.41
845.365	136.7
845.541	34.3
845.716	11.78
845.892	71.17
846.068	-2.56
846.244	34.3
846.419	56.83
846.595	54.78
846.77	128.51
846.946	118.27
847.122	73.21
847.297	60.93
847.473	103.93
847.648	-35.33
847.824	58.88
847.999	-23.04
848.175	11.78
848.35	24.06
848.526	83.45
848.701	89.6
848.876	89.6
849.052	146.94
849.227	91.65
849.403	81.41
849.578	95.74
849.753	42.5
849.929	73.21
850.104	73.21
850.279	122.37
850.454	40.45
850.63	65.02
850.805	75.26
850.98	30.21
851.155	62.98
851.33	79.36
851.505	-25.09
851.681	50.69
851.856	24.06
852.031	89.6
852.206	42.5
852.381	34.3
852.556	91.65
852.731	93.69
852.906	50.69
853.081	36.35
853.256	126.46
853.431	105.98
853.606	52.74
853.781	22.02
853.956	-70.14
854.131	-8.7
854.305	-59.9
854.48	60.93
854.655	50.69
854.83	32.26
855.005	75.26
855.18	62.98
855.354	19.97
855.529	36.35
855.704	19.97
855.879	62.98
856.053	52.74
856.228	62.98
856.403	52.74
856.577	126.46
856.752	11.78
856.926	3.58
857.101	93.69
857.276	77.31
857.45	128.51
857.625	99.84
857.799	58.88
857.974	24.06
858.148	11.78
858.323	54.78
858.497	62.98
858.672	58.88
858.846	5.63
859.02	93.69
859.195	-16.9
859.369	32.26
859.543	62.98
859.718	-0.51
859.892	26.11
860.066	54.78
860.241	-49.66
860.415	-33.28
860.589	19.97
860.763	19.97
860.938	48.64
861.112	79.36
861.286	62.98
861.46	-35.33
861.634	91.65
861.808	54.78
861.982	-0.51
862.157	-10.75
862.331	7.68
862.505	-16.9
862.679	-66.05
862.853	17.92
863.027	65.02
863.201	103.93
863.375	-16.9
863.549	40.45
863.722	60.93
863.896	48.64
864.07	-29.18
864.244	67.07
864.418	-4.61
864.592	24.06
864.766	97.79
864.939	93.69
865.113	-12.8
865.287	62.98
865.461	15.87
865.634	9.73
865.808	32.26
865.982	9.73
866.156	7.68
866.329	9.73
866.503	9.73
866.676	19.97
866.85	17.92
867.024	-8.7
867.197	17.92
867.371	85.5
867.544	22.02
867.718	42.5
867.891	58.88
868.065	11.78
868.238	-29.18
868.412	116.22
868.585	5.63
868.759	7.68
868.932	69.12
869.105	38.4
869.279	-12.8
869.452	-64
869.625	46.59
869.799	87.55
869.972	-16.9
870.145	79.36
870.319	101.89
870.492	3.58
870.665	-23.04
870.838	-8.7
871.011	-86.53
871.185	-18.94
871.358	-43.52
871.531	48.64
871.704	52.74
871.877	69.12
872.05	-18.94
872.223	-43.52
872.396	30.21
872.569	32.26
872.742	-70.14
872.915	69.12
873.088	28.16
873.261	17.92
873.434	71.17
873.607	69.12
873.78	44.54
873.953	-6.66
874.126	60.93
874.299	-2.56
874.471	9.73
874.644	22.02
874.817	69.12
874.99	42.5
875.163	-18.94
875.335	62.98
875.508	52.74
875.681	93.69
875.853	-20.99
876.026	-16.9
876.199	50.69
876.371	89.6
876.544	40.45
876.717	81.41
876.889	77.31
877.062	28.16
877.234	7.68
877.407	15.87
877.579	-2.56
877.752	34.3
877.924	42.5
878.097	34.3
878.269	-16.9
878.442	50.69
878.614	7.68
878.786	34.3
878.959	22.02
879.131	13.82
879.303	-51.71
879.476	9.73
879.648	9.73
879.82	3.58
879.993	-41.47
880.165	30.21
880.337	-61.95
880.509	38.4
880.681	-23.04
880.854	-12.8
881.026	32.26
881.198	142.85
881.37	-0.51
881.542	-66.05
881.714	83.45
881.886	-10.75
882.058	48.64
882.23	22.02
882.402	36.35
882.574	19.97
882.746	62.98
882.918	19.97
883.09	56.83
883.262	-27.14
883.434	46.59
883.606	-20.99
883.778	-6.66
883.95	103.93
884.122	-4.61
884.293	3.58
884.465	30.21
884.637	-33.28
884.809	3.58
884.98	44.54
885.152	1.54
885.324	103.93
885.496	44.54
885.667	62.98
885.839	-66.05
886.011	69.12
886.182	52.74
886.354	52.74
886.525	-0.51
886.697	-12.8
886.869	-51.71
887.04	30.21
887.212	103.93
887.383	87.55
887.555	52.74
887.726	-23.04
887.897	62.98
888.069	-53.76
888.24	38.4
888.412	44.54
888.583	105.98
888.754	-16.9
888.926	101.89
889.097	11.78
889.268	-27.14
889.44	13.82
889.611	-6.66
889.782	-31.23
889.953	-27.14
890.125	-29.18
890.296	-37.38
890.467	1.54
890.638	-23.04
890.809	42.5
890.98	36.35
891.151	52.74
891.323	-10.75
891.494	87.55
891.665	-6.66
891.836	-31.23
892.007	26.11
892.178	38.4
892.349	42.5
892.52	-66.05
892.691	7.68
892.862	9.73
893.032	-47.62
893.203	-129.53
893.374	32.26
893.545	97.79
893.716	28.16
893.887	69.12
894.057	7.68
894.228	11.78
894.399	-12.8
894.57	1.54
894.74	-18.94
894.911	24.06
895.082	-4.61
895.253	3.58
895.423	-0.51
895.594	3.58
895.764	19.97
895.935	36.35
896.106	42.5
896.276	19.97
896.447	36.35
896.617	-31.23
896.788	-88.57
896.958	-12.8
897.129	-55.81
897.299	-29.18
897.47	44.54
897.64	75.26
897.81	40.45
897.981	89.6
898.151	-47.62
898.322	30.21
898.492	69.12
898.662	-18.94
898.832	-47.62
899.003	-2.56
899.173	-66.05
899.343	-10.75
899.513	-14.85
